DTS Sentinel unit serial number:	SN413079Multiplexer serial number:	ORYXHardware model number:	OX4-SRSoftware version number:	ORYX F/W v4.00 Oryx Data Collector v3.7.2.0data status	okinstallation	princeton_trtdifferential loss correction	single-endedforward channel	channel 1reverse channel	N/Adate	2019/09/12time	13:32:11forward acquisition time	60.00reverse acquisition time	0.00gamma	496.2192k internal	0.2291k external	0.2291temperature offset calibration	1.0043default loss term (dB/km)	0.3790temperature slope calibration	1.0000multiplexer offset coefficient	1.0000multiplexer slope coefficient	1.0000fibre end	0.00T internal ref (°C)	41.06T ext. ref 1 (°C)	2.05T ext. ref 2 (°C)	36.22length (m)	temperature (°C)	Stokes	anti-Stokes-747.200	-180.680	-0.187	0.004
-746.185	-57.052	-0.216	0.098
-745.171	-118.339	-0.139	-0.025
-744.156	114.333	0.080	0.100
-743.142	54.088	0.219	0.215
-742.127	109.024	0.104	0.127
-741.112	48.543	-0.271	0.260
-740.098	288.407	-0.125	0.232
-739.083	800.000	0.089	-0.282
-738.069	119.031	-0.133	0.168
-737.054	-27.698	-0.186	0.111
-736.039	-0.627	0.138	0.100
-735.025	-31.297	-0.062	-0.036
-734.010	-141.474	0.124	-0.013
-732.996	-149.575	-0.122	0.010
-731.981	399.496	-0.236	-0.506
-730.966	-194.129	0.201	0.002
-729.952	-200.000	-0.002	0.049
-728.937	40.129	-0.104	-0.096
-727.923	-33.660	0.129	-0.073
-726.908	268.100	-0.107	-0.191
-725.894	800.000	-0.061	-0.193
-724.879	800.000	0.107	-0.471
-723.864	-110.837	0.228	0.048
-722.850	800.000	-0.036	-0.118
-721.835	63.237	-0.097	0.099
-720.821	-97.577	0.200	0.053
-719.806	800.000	-0.052	0.227
-718.791	38.757	-0.039	0.035
-717.777	363.214	-0.065	0.133
-716.762	800.000	-0.086	0.284
-715.748	-144.194	-0.253	-0.024
-714.733	116.674	-0.156	0.196
-713.718	-80.746	-0.180	-0.061
-712.704	-133.508	-0.561	0.072
-711.689	48.558	0.135	0.129
-710.675	277.636	-0.059	-0.107
-709.660	136.262	-0.066	0.088
-708.645	-200.000	-0.031	0.241
-707.631	240.266	0.176	0.300
-706.616	-200.000	0.055	-0.416
-705.602	-73.865	0.371	-0.138
-704.587	66.251	-0.154	0.159
-703.572	293.294	-0.131	-0.244
-702.558	-200.000	-0.023	0.253
-701.543	13.410	-0.170	-0.134
-700.529	-133.630	-0.400	0.051
-699.514	-16.440	-0.261	-0.169
-698.499	123.873	0.155	-0.199
-697.485	-200.000	0.061	-0.336
-696.470	67.317	0.127	0.132
-695.456	800.000	-0.085	0.366
-694.441	800.000	-0.027	0.116
-693.426	-92.755	0.372	0.106
-692.412	594.438	-0.099	0.250
-691.397	-47.424	-0.220	0.109
-690.383	-54.228	-0.147	0.068
-689.368	-172.131	-0.163	0.005
-688.354	122.598	0.087	-0.111
-687.339	-50.670	-0.275	-0.133
-686.324	-200.000	0.005	-0.044
-685.310	80.779	0.172	-0.189
-684.295	317.033	0.070	0.135
-683.281	192.474	-0.138	0.212
-682.266	162.727	-0.071	-0.102
-681.251	-158.429	0.381	-0.023
-680.237	276.215	0.144	-0.262
-679.222	-64.885	-0.126	-0.052
-678.208	-29.465	-0.170	-0.099
-677.193	-14.209	-0.225	0.148
-676.178	-7.174	0.317	-0.219
-675.164	20.238	-0.113	-0.093
-674.149	-56.676	-0.113	-0.051
-673.135	24.029	0.226	-0.191
-672.120	-16.437	-0.129	-0.083
-671.105	-69.895	-0.325	-0.126
-670.091	-150.409	-0.495	-0.039
-669.076	-200.000	0.057	0.506
-668.062	115.119	0.089	-0.111
-667.047	328.318	-0.028	-0.055
-666.032	236.897	-0.054	0.092
-665.018	173.607	-0.176	0.260
-664.003	479.020	0.077	-0.178
-662.989	80.810	0.072	0.079
-661.974	-200.000	-0.003	-0.040
-660.959	710.430	-0.094	0.254
-659.945	155.320	-0.111	-0.157
-658.930	-165.535	0.164	0.007
-657.916	737.397	0.092	-0.253
-656.901	-53.026	-0.075	0.035
-655.886	-200.000	0.028	0.271
-654.872	800.000	-0.058	0.194
-653.857	-200.000	0.026	-0.237
-652.843	-200.000	-0.067	-0.424
-651.828	108.401	0.037	0.045
-650.814	-178.055	0.112	0.003
-649.799	-200.000	0.010	-0.301
-648.784	-21.076	-0.287	0.179
-647.770	50.265	-0.054	-0.052
-646.755	525.558	-0.139	-0.333
-645.741	21.477	0.029	0.024
-644.726	-20.057	-0.244	0.154
-643.711	411.161	0.086	0.185
-642.697	800.000	0.124	-0.395
-641.682	-117.586	0.172	-0.032
-640.668	-117.750	0.297	-0.054
-639.653	-124.950	-0.224	-0.035
-638.638	580.063	-0.112	-0.279
-637.624	-98.062	-0.212	0.056
-636.609	-146.736	-0.218	0.019
-635.595	-200.000	-0.023	-0.124
-634.580	82.026	-0.211	0.233
-633.565	-25.272	0.167	0.101
-632.551	-17.075	-0.228	0.147
-631.536	526.050	-0.081	-0.195
-630.522	-73.569	-0.102	0.038
-629.507	-104.855	-0.062	-0.014
-628.492	447.182	0.085	-0.191
-627.478	-114.365	-0.335	0.066
-626.463	364.899	-0.053	-0.108
-625.449	691.744	0.182	-0.486
-624.434	-174.571	-0.409	0.012
-623.419	-11.577	0.253	-0.170
-622.405	800.000	0.050	-0.218
-621.390	358.506	-0.116	0.236
-620.376	800.000	-0.049	0.166
-619.361	49.392	0.184	-0.176
-618.346	49.752	-0.084	0.080
-617.332	39.520	-0.146	-0.133
-616.317	-34.703	-0.369	-0.206
-615.303	403.787	-0.052	0.111
-614.288	-200.000	-0.040	-0.265
-613.273	800.000	0.056	0.197
-612.259	502.537	-0.054	-0.127
-611.244	-47.245	-0.082	0.041
-610.230	-21.139	0.109	-0.068
-609.215	-200.000	-0.007	0.120
-608.201	27.377	-0.085	0.073
-607.186	106.439	-0.127	0.153
-606.171	455.929	-0.113	0.255
-605.157	33.181	0.154	-0.136
-604.142	277.633	-0.065	0.118
-603.128	-80.524	-0.072	-0.025
-602.113	4.426	-0.110	0.082
-601.098	-166.886	0.268	-0.011
-600.084	-200.000	0.008	-0.133
-599.069	253.820	-0.193	-0.336
-598.055	135.921	0.098	0.130
-597.040	800.000	-0.057	0.213
-596.025	-0.489	-0.045	0.033
-595.011	-104.287	-0.274	-0.065
-593.996	205.432	-0.226	0.357
-592.982	128.762	-0.155	-0.200
-591.967	234.757	-0.083	0.139
-590.952	-65.880	-0.051	0.021
-589.938	383.250	0.187	-0.392
-588.923	78.989	-0.222	-0.241
-587.909	26.093	-0.144	0.123
-586.894	-127.330	-0.368	-0.055
-585.879	-144.176	-0.279	-0.027
-584.865	-115.784	0.229	-0.044
-583.850	-111.845	0.141	0.029
-582.836	32.150	0.157	-0.138
-581.821	-130.201	0.273	-0.038
-580.806	800.000	0.010	-0.043
-579.792	-28.372	0.331	0.194
-578.777	800.000	0.019	0.062
-577.763	-200.000	-0.029	0.298
-576.748	-200.000	-0.020	0.120
-575.733	-200.000	0.056	-0.373
-574.719	44.209	0.072	-0.067
-573.704	-127.764	-0.205	0.030
-572.690	-200.000	0.013	0.115
-571.675	231.404	-0.056	-0.094
-570.661	-126.006	-0.164	-0.025
-569.646	800.000	0.077	-0.300
-568.631	-34.617	-0.236	0.132
-567.617	-51.665	0.085	-0.040
-566.602	800.000	-0.053	0.195
-565.588	122.192	0.150	-0.190
-564.573	-156.070	-0.042	0.003
-563.558	-61.532	-0.156	-0.066
-562.544	7.163	-0.250	-0.190
-561.529	14.619	0.206	0.164
-560.515	-200.000	0.010	0.304
-559.500	11.385	-0.200	-0.156
-558.485	12.230	-0.067	0.052
-557.471	-116.031	0.155	0.029
-556.456	-1.935	-0.217	-0.155
-555.442	-38.170	-0.144	0.078
-554.427	-171.264	-0.341	0.012
-553.412	-98.210	0.146	0.038
-552.398	-138.731	-0.245	0.027
-551.383	281.742	0.168	0.306
-550.369	-102.158	-0.071	-0.017
-549.354	-83.110	0.187	-0.061
-548.339	-2.468	-0.097	0.069
-547.325	-80.155	0.100	-0.034
-546.310	251.078	-0.078	-0.135
-545.296	-45.535	0.197	-0.099
-544.281	-200.000	0.003	0.271
-543.266	800.000	-0.023	0.069
-542.252	130.712	0.027	0.035
-541.237	126.750	0.196	0.252
-540.223	-72.099	0.096	0.036
-539.208	-2.186	0.170	0.121
-538.193	-165.132	0.249	0.011
-537.179	-95.209	-0.118	0.032
-536.164	-181.992	-0.288	0.006
-535.150	222.176	-0.050	-0.082
-534.135	-127.095	0.252	-0.037
-533.121	-198.438	0.312	0.002
-532.106	201.459	-0.157	-0.246
-531.091	-200.000	0.012	0.298
-530.077	-200.000	0.021	0.168
-529.062	304.630	0.152	0.287
-528.048	-24.879	0.129	-0.078
-527.033	74.746	-0.129	0.138
-526.018	-200.000	0.011	0.166
-525.004	-200.000	-0.019	-0.105
-523.989	-29.173	-0.088	-0.051
-522.975	-4.371	-0.277	0.194
-521.960	800.000	-0.052	0.151
-520.945	124.268	-0.129	-0.164
-519.931	-9.010	-0.139	-0.094
-518.916	-88.895	-0.215	0.065
-517.902	63.492	-0.093	0.094
-516.887	800.000	0.036	-0.135
-515.872	-18.826	0.185	0.117
-514.858	-200.000	-0.010	0.067
-513.843	58.697	0.061	-0.061
-512.829	-103.266	0.157	-0.038
-511.814	-115.124	0.366	-0.070
-510.799	217.038	-0.133	0.215
-509.785	158.593	-0.125	-0.175
-508.770	223.503	-0.114	-0.186
-507.756	-200.000	-0.018	-0.175
-506.741	4.518	0.088	-0.065
-505.726	-135.664	0.198	0.024
-504.712	564.280	-0.017	-0.043
-503.697	-42.867	0.128	-0.066
-502.683	679.490	-0.097	-0.257
-501.668	53.822	-0.100	-0.097
-500.653	154.571	0.193	-0.268
-499.639	800.000	0.043	-0.169
-498.624	-4.580	0.101	-0.071
-497.610	69.159	-0.166	-0.173
-496.595	272.305	0.173	0.310
-495.581	-199.880	-0.222	-0.001
-494.566	-200.000	-0.009	0.162
-493.551	-200.000	-0.028	0.271
-492.537	-156.805	0.091	0.006
-491.522	-105.773	0.109	0.025
-490.508	670.152	0.090	0.237
-489.493	85.527	-0.066	-0.074
-488.478	22.750	-0.015	-0.012
-487.464	87.259	-0.084	0.094
-486.449	-86.404	0.047	0.015
-485.435	559.418	0.056	0.138
-484.420	-64.505	0.176	-0.073
-483.405	-200.000	0.011	0.057
-482.391	-166.042	0.205	-0.009
-481.376	16.618	0.191	0.153
-480.362	-35.482	-0.134	-0.074
-479.347	722.407	0.040	-0.109
-478.332	-129.980	0.265	0.037
-477.318	58.316	0.105	0.105
-476.303	153.319	0.138	-0.192
-475.289	-20.578	0.273	0.170
-474.274	93.218	-0.121	0.138
-473.259	138.526	-0.139	-0.185
-472.245	123.417	-0.125	-0.159
-471.230	48.077	0.284	0.269
-470.216	-184.015	0.436	-0.007
-469.201	800.000	-0.072	0.229
-468.186	-7.895	0.061	-0.042
-467.172	29.747	0.228	0.197
-466.157	800.000	0.049	-0.152
-465.143	-67.913	-0.253	-0.100
-464.128	800.000	-0.020	-0.057
-463.113	-200.000	-0.017	-0.189
-462.099	800.000	0.087	0.245
-461.084	191.907	0.084	0.128
-460.070	-69.362	-0.119	-0.046
-459.055	212.178	0.049	-0.078
-458.040	148.708	-0.109	0.149
-457.026	-20.169	0.337	-0.210
-456.011	-135.463	-0.136	-0.016
-454.997	159.449	-0.167	-0.235
-453.982	-0.932	0.131	-0.094
-452.968	800.000	0.147	-0.528
-451.953	-200.000	-0.034	-0.236
-450.938	-200.000	-0.028	0.256
-449.924	-125.796	-0.192	-0.029
-448.909	-200.000	0.021	0.156
-447.895	70.053	0.020	0.021
-446.880	-2.015	0.329	0.234
-445.865	800.000	-0.037	-0.154
-444.851	720.653	0.109	-0.294
-443.836	235.086	-0.046	0.076
-442.822	-200.000	-0.077	-0.401
-441.807	109.637	-0.185	-0.224
-440.792	264.335	-0.144	0.254
-439.778	-200.000	-0.022	0.106
-438.763	-28.064	-0.234	0.137
-437.749	800.000	-0.088	0.248
-436.734	82.533	0.134	-0.147
-435.719	800.000	0.030	-0.090
-434.705	-151.121	-0.130	0.010
-433.690	-164.802	0.238	-0.011
-432.676	309.446	-0.107	0.202
-431.661	574.502	-0.076	-0.187
-430.646	-36.619	0.247	0.134
-429.632	-200.000	-0.011	0.079
-428.617	800.000	-0.059	-0.177
-427.603	133.137	0.080	-0.105
-426.588	96.960	0.109	0.127
-425.573	-84.413	0.283	0.091
-424.559	190.916	-0.211	0.321
-423.544	-200.000	-0.026	-0.270
-422.530	537.694	-0.027	0.066
-421.515	-46.430	0.183	0.091
-420.500	-45.306	0.051	-0.026
-419.486	557.684	-0.190	0.464
-418.471	-131.616	-0.275	-0.037
-417.457	-16.037	0.213	-0.137
-416.442	28.534	0.162	-0.139
-415.428	-200.000	-0.007	0.249
-414.413	512.491	-0.120	-0.282
-413.398	-200.000	-0.019	-0.125
-412.384	-111.899	0.132	-0.027
-411.369	-193.155	-0.153	0.001
-410.355	-135.277	0.214	-0.026
-409.340	800.000	-0.069	-0.258
-408.325	29.668	0.080	0.069
-407.311	-200.000	0.020	-0.158
-406.296	122.697	-0.176	0.222
-405.282	265.909	0.110	-0.193
-404.267	-160.770	-0.068	-0.004
-403.252	800.000	0.102	-0.340
-402.238	193.117	-0.108	-0.165
-401.223	-200.000	-0.006	-0.183
-400.209	800.000	-0.077	0.275
-399.194	-107.508	0.206	0.046
-398.179	-67.336	-0.337	0.134
-397.165	-144.506	0.105	0.010
-396.150	214.337	0.130	0.208
-395.136	-6.279	0.116	0.080
-394.121	301.490	-0.085	0.158
-393.106	484.591	-0.116	0.267
-392.092	798.744	0.125	0.347
-391.077	-117.387	-0.087	-0.016
-390.063	-137.369	-0.106	0.012
-389.048	800.000	-0.027	0.093
-388.033	345.068	-0.098	0.195
-387.019	-200.000	-0.010	0.170
-386.004	3.009	-0.197	-0.144
-384.990	-51.106	0.111	0.053
-383.975	301.400	-0.104	0.194
-382.960	-127.046	0.506	-0.075
-381.946	51.747	-0.166	-0.159
-380.931	2.274	-0.129	0.094
-379.917	-48.878	0.162	0.079
-378.902	-21.362	-0.047	-0.029
-377.888	-62.627	0.145	0.061
-376.873	-180.504	0.297	-0.006
-375.858	-56.549	0.150	0.067
-374.844	413.417	-0.098	-0.210
-373.829	-78.289	-0.351	-0.122
-372.815	228.228	0.033	0.055
-371.800	-200.000	-0.038	-0.182
-370.785	-128.173	-0.012	-0.002
-369.771	-200.000	0.036	0.280
-368.756	800.000	0.051	-0.143
-367.742	213.589	0.068	-0.109
-366.727	-200.000	-0.007	-0.047
-365.712	-200.000	-0.006	-0.135
-364.698	101.738	0.152	-0.179
-363.683	-23.010	-0.248	-0.151
-362.669	-200.000	0.012	0.153
-361.654	718.425	0.048	0.127
-360.639	800.000	0.076	0.216
-359.625	-200.000	0.016	-0.400
-358.610	84.850	-0.181	-0.200
-357.596	68.913	0.047	0.049
-356.581	14.247	0.151	0.118
-355.566	65.748	-0.023	0.024
-354.552	800.000	-0.082	-0.229
-353.537	-200.000	0.025	0.110
-352.523	-200.000	-0.036	0.314
-351.508	36.874	0.163	-0.145
-350.493	-200.000	-0.015	-0.384
-349.479	-111.986	0.414	0.084
-348.464	-200.000	-0.002	0.103
-347.450	800.000	-0.139	-0.443
-346.435	-109.842	-0.404	0.085
-345.420	-200.000	0.022	0.256
-344.406	-120.971	0.271	0.046
-343.391	-108.239	0.078	-0.017
-342.377	269.820	0.183	0.325
-341.362	800.000	-0.042	0.181
-340.348	120.094	0.149	-0.187
-339.333	-60.806	0.075	-0.032
-338.318	581.749	-0.123	0.304
-337.304	-134.824	-0.078	0.010
-336.289	-20.256	-0.491	-0.305
-335.275	-200.000	0.013	-0.176
-334.260	49.420	0.191	0.181
-333.245	157.574	0.052	-0.073
-332.231	247.217	-0.117	0.199
-331.216	-3.310	0.150	0.105
-330.202	-134.976	0.070	0.008
-329.187	-200.000	0.007	-0.125
-328.172	-200.000	-0.000	0.223
-327.158	393.599	-0.108	-0.227
-326.143	-200.000	-0.008	-0.570
-325.129	181.297	0.098	0.145
-324.114	322.849	-0.058	-0.112
-323.099	800.000	-0.098	-0.329
-322.085	-98.541	0.221	0.057
-321.070	15.764	-0.090	0.071
-320.056	-200.000	0.049	0.281
-319.041	29.863	0.329	-0.283
-318.026	309.892	-0.193	-0.364
-317.012	-24.226	0.214	0.128
-315.997	-200.000	-0.012	-0.099
-314.983	-109.037	0.590	0.127
-313.968	-61.088	-0.166	-0.071
-312.953	-200.000	0.056	0.274
-311.939	-37.063	-0.396	0.213
-310.924	-200.000	0.000	0.111
-309.910	-106.334	-0.086	-0.019
-308.895	-144.594	-0.119	-0.011
-307.880	800.000	0.118	-0.398
-306.866	-168.340	0.139	0.005
-305.851	-155.354	-0.373	0.024
-304.837	132.072	0.076	-0.098
-303.822	-39.518	0.265	0.140
-302.807	-94.028	-0.424	0.117
-301.793	-200.000	-0.077	0.553
-300.778	-78.574	-0.211	0.073
-299.764	13.422	-0.128	0.100
-298.749	-158.977	-0.223	-0.013
-297.735	-200.000	0.011	0.074
-296.720	-86.618	-0.201	0.062
-295.705	9.976	0.214	-0.163
-294.691	800.000	0.082	-0.333
-293.676	-42.094	-0.166	0.085
-292.662	-200.000	0.067	0.407
-291.647	700.110	-0.120	0.318
-290.632	566.587	-0.080	0.196
-289.618	-17.034	-0.214	0.136
-288.603	325.916	0.122	0.234
-287.589	-106.911	-0.187	0.042
-286.574	-200.000	0.111	-0.499
-285.559	49.056	0.116	-0.110
-284.545	-39.411	-0.067	0.036
-283.530	98.546	0.180	0.208
-282.516	58.642	-0.254	0.251
-281.501	84.779	0.081	0.089
-280.486	-50.335	0.259	-0.123
-279.472	43.076	-0.227	0.208
-278.457	800.000	-0.087	0.263
-277.443	282.333	-0.162	-0.291
-276.428	-76.167	0.116	0.041
-275.413	22.944	0.174	-0.143
-274.399	487.097	-0.071	-0.163
-273.384	-200.000	0.026	-0.319
-272.370	-21.948	-0.096	0.058
-271.355	248.904	-0.081	0.138
-270.340	-93.564	0.133	0.037
-269.326	58.027	-0.065	-0.064
-268.311	-173.414	0.179	-0.005
-267.297	119.007	-0.059	-0.074
-266.282	-103.278	0.187	0.044
-265.267	-200.000	-0.094	-0.609
-264.253	800.000	-0.051	0.198
-263.238	118.238	-0.033	0.040
-262.224	-22.421	-0.050	-0.031
-261.209	150.227	-0.264	0.361
-260.195	-94.951	-0.159	0.043
-259.180	-102.292	-0.258	-0.062
-258.165	800.000	-0.054	-0.157
-257.151	-200.000	-0.006	-0.073
-256.136	261.219	-0.065	-0.113
-255.122	106.030	0.072	0.086
-254.107	-46.933	0.074	0.036
-253.092	191.123	0.110	-0.167
-252.078	-200.000	0.008	-0.052
-251.063	464.063	-0.057	-0.129
-250.049	342.574	0.075	-0.147
-249.034	-59.442	0.197	-0.085
-248.019	-124.263	0.169	0.026
-247.005	-200.000	-0.010	-0.357
-245.990	-2.691	-0.138	-0.097
-244.976	141.582	0.358	0.476
-243.961	-115.610	0.238	-0.045
-242.946	-200.000	-0.000	-0.026
-241.932	172.730	0.110	-0.159
-240.917	-200.000	-0.021	0.266
-239.903	234.026	-0.116	-0.191
-238.888	186.205	-0.115	-0.172
-237.873	32.924	0.330	0.287
-236.859	800.000	0.071	0.218
-235.844	-200.000	-0.015	-0.111
-234.830	-41.410	0.317	-0.164
-233.815	34.322	0.168	0.147
-232.800	-178.270	-0.588	0.014
-231.786	-53.083	0.162	-0.075
-230.771	800.000	0.029	0.105
-229.757	-140.137	-0.132	-0.014
-228.742	425.541	0.041	0.089
-227.727	104.587	-0.232	0.274
-226.713	487.820	0.004	-0.010
-225.698	471.058	0.036	-0.080
-224.684	175.821	0.149	-0.217
-223.669	-59.090	0.266	0.115
-222.655	-200.000	0.058	-0.000
-221.640	-43.018	-0.421	0.214
-220.625	-200.000	0.002	-0.112
-219.611	-87.379	-0.133	0.040
-218.596	-176.187	0.207	-0.005
-217.582	-26.550	-0.237	0.139
-216.567	-102.988	-0.310	0.074
-215.552	-27.939	-0.394	0.229
-214.538	-95.918	0.313	0.084
-213.523	23.297	-0.085	-0.070
-212.509	-129.417	0.262	0.036
-211.494	538.495	-0.057	0.136
-210.479	192.017	-0.058	0.088
-209.465	155.847	-0.169	-0.233
-208.450	157.083	-0.246	-0.342
-207.436	164.465	0.236	-0.334
-206.421	-200.000	0.057	0.322
-205.406	-22.788	0.222	-0.134
-204.392	-200.000	0.032	0.180
-203.377	800.000	0.049	-0.146
-202.363	-200.000	0.041	0.247
-201.348	197.563	0.020	-0.031
-200.333	800.000	-0.051	-0.191
-199.319	-159.381	0.089	-0.005
-198.304	-76.561	0.319	0.112
-197.290	-110.931	0.341	-0.070
-196.275	386.314	0.053	0.110
-195.260	-200.000	-0.020	0.412
-194.246	800.000	-0.086	0.239
-193.231	121.768	0.064	-0.080
-192.217	406.793	-0.149	-0.315
-191.202	800.000	-0.117	0.411
-190.187	-172.401	-0.285	0.009
-189.173	-78.231	0.027	-0.009
-188.158	169.322	-0.191	-0.273
-187.144	-200.000	-0.024	-0.130
-186.129	-83.019	0.412	-0.133
-185.114	-200.000	-0.023	-0.167
-184.100	170.569	0.230	0.330
-183.085	41.757	0.363	0.330
-182.071	135.375	0.139	0.181
-181.056	6.678	-0.085	-0.063
-180.042	-96.303	-0.300	0.079
-179.027	-120.682	-0.150	0.025
-178.012	-83.814	-0.095	0.030
-176.998	800.000	-0.089	0.343
-175.983	385.239	-0.070	-0.144
-174.969	-67.132	0.328	-0.129
-173.954	800.000	0.127	0.435
-172.939	-200.000	-0.050	-0.308
-171.925	9.498	-0.096	0.073
-170.910	-93.528	0.341	-0.095
-169.896	146.241	0.196	-0.263
-168.881	-181.555	-0.415	0.008
-167.866	257.404	0.057	0.098
-166.852	-26.824	0.143	-0.083
-165.837	-66.434	0.135	-0.054
-164.823	-75.798	0.030	-0.010
-163.808	143.549	-0.197	-0.262
-162.793	49.073	-0.026	0.025
-161.779	226.760	0.213	-0.346
-160.764	-115.024	0.210	-0.040
-159.750	235.416	0.165	0.272
-158.735	-200.000	-0.013	-0.174
-157.720	79.681	-0.020	-0.022
-156.706	373.735	0.106	-0.216
-155.691	-80.269	-0.382	0.128
-154.677	7.576	0.181	-0.135
-153.662	-86.833	0.133	0.041
-152.647	64.757	0.165	0.167
-151.633	-17.463	0.052	0.033
-150.618	64.702	0.109	-0.110
-149.604	75.286	0.054	0.057
-148.589	108.102	-0.032	0.038
-147.574	462.410	0.103	-0.230
-146.560	-36.556	-0.170	-0.092
-145.545	-25.787	0.101	-0.060
-144.531	-99.972	0.322	0.080
-143.516	-11.370	0.237	-0.156
-142.502	-106.458	-0.232	0.052
-141.487	-173.163	-0.166	0.005
-140.472	-89.259	-0.139	-0.041
-139.458	214.712	-0.062	-0.098
-138.443	-121.951	0.340	-0.056
-137.429	-155.133	0.078	0.005
-136.414	-144.409	-0.244	0.023
-135.399	16.354	-0.184	-0.145
-134.385	-200.000	-0.055	0.244
-133.370	-66.330	-0.117	0.046
-132.356	241.112	0.120	0.201
-131.341	800.000	0.113	0.386
-130.326	-44.781	0.118	0.059
-129.312	-200.000	-0.028	-0.143
-128.297	40.849	0.263	-0.237
-127.283	800.000	0.136	0.445
-126.268	-42.725	0.190	-0.097
-125.253	89.774	0.153	0.170
-124.239	-148.470	0.534	0.044
-123.224	-200.000	0.020	-0.194
-122.210	299.407	-0.052	-0.096
-121.195	65.129	0.029	0.030
-120.180	76.306	-0.114	-0.120
-119.166	-54.436	-0.133	0.060
-118.151	-65.857	0.214	0.085
-117.137	217.805	-0.132	0.210
-116.122	800.000	-0.073	0.317
-115.107	223.505	-0.278	0.448
-114.093	800.000	-0.118	-0.346
-113.078	-150.739	0.364	0.028
-112.064	75.017	0.243	-0.256
-111.049	-200.000	0.003	0.089
-110.034	-24.327	0.204	-0.121
-109.020	135.400	0.158	-0.205
-108.005	-66.119	0.346	-0.138
-106.991	154.721	-0.158	-0.217
-105.976	-79.086	-0.294	0.100
-104.962	800.000	0.103	0.297
-103.947	-88.579	-0.448	-0.133
-102.932	-200.000	-0.385	0.002
-101.918	-200.000	-0.006	0.108
-100.903	-27.652	0.077	0.044
-99.889	274.120	-0.109	-0.192
-98.874	-62.113	0.344	-0.143
-97.859	60.758	0.249	-0.246
-96.845	-133.053	0.327	-0.041
-95.830	312.203	0.065	0.122
-94.816	13.176	0.010	-0.008
-93.801	-22.242	0.319	0.193
-92.786	135.383	0.204	0.264
-91.772	800.000	0.034	-0.096
-90.757	-30.798	0.142	0.080
-89.743	-84.576	-0.234	-0.074
-88.728	19.323	-0.166	-0.133
-87.713	33.159	0.152	-0.132
-86.699	200.194	0.074	0.114
-85.684	609.327	-0.045	0.112
-84.670	120.653	-0.149	-0.185
-83.655	192.093	0.077	0.116
-82.640	-123.149	0.123	-0.020
-81.626	83.286	-0.166	0.180
-80.611	82.494	0.107	0.116
-79.597	800.000	0.060	-0.233
-78.582	800.000	-0.012	-0.034
-77.567	-31.922	0.029	0.016
-76.553	52.479	-0.102	-0.097
-75.538	-130.603	-0.260	-0.035
-74.524	-200.000	-0.009	-0.347
-73.509	-200.000	0.021	-0.123
-72.494	800.000	0.073	-0.282
-71.480	203.253	0.125	0.193
-70.465	-86.210	-0.299	-0.092
-69.451	50.193	0.098	0.093
-68.436	-53.926	0.302	-0.137
-67.422	13.001	-0.121	0.093
-66.407	59.299	0.226	-0.222
-65.392	-15.959	0.023	-0.015
-64.378	-169.406	-0.133	-0.005
-63.363	85.744	0.120	0.131
-62.349	-200.000	-0.050	0.268
-61.334	-2.326	-0.651	-0.455
-60.319	356.749	0.170	0.337
-59.305	-200.000	-0.009	-0.660
-58.290	184.791	0.482	0.712
-57.276	800.000	0.552	1.655
-56.261	-200.000	75.372	509.328
-55.246	527.560	1321.479	3104.992
-54.232	146.689	2552.684	3418.366
-53.217	118.300	2226.316	2736.308
-52.203	53.015	1669.634	1592.163
-51.188	44.821	1392.452	1276.740
-50.173	41.167	1346.522	1212.381
-49.159	59.689	1381.135	1357.689
-48.144	66.623	1400.005	1418.697
-47.130	45.273	1362.848	1252.169
-46.115	41.216	1346.339	1212.327
-45.100	40.971	1342.016	1206.895
-44.086	40.862	1339.193	1203.651
-43.071	40.889	1337.012	1201.803
-42.057	40.766	1335.053	1199.253
-41.042	40.893	1333.163	1198.275
-40.027	41.013	1331.175	1197.160
-39.013	40.904	1329.562	1195.011
-37.998	41.034	1327.676	1194.046
-36.984	41.043	1326.234	1192.754
-35.969	41.117	1324.040	1191.177
-34.954	41.104	1322.215	1189.410
-33.940	41.153	1321.137	1188.689
-32.925	41.151	1320.243	1187.825
-31.911	41.196	1318.373	1186.360
-30.896	41.205	1316.702	1184.868
-29.881	41.058	1316.158	1183.455
-28.867	41.194	1314.041	1182.313
-27.852	41.106	1313.050	1180.849
-26.838	41.274	1310.872	1179.843
-25.823	41.216	1309.813	1178.497
-24.809	41.158	1308.251	1176.705
-23.794	41.274	1306.622	1175.876
-22.779	41.108	1305.877	1174.179
-21.765	41.239	1304.046	1173.258
-20.750	41.182	1302.960	1171.899
-19.736	41.036	1301.969	1170.103
-18.721	41.054	1300.908	1169.210
-17.706	41.027	1299.227	1167.492
-16.692	40.982	1298.329	1166.375
-15.677	41.047	1297.219	1165.711
-14.663	40.918	1296.393	1164.167
-13.648	40.977	1295.064	1163.273
-12.633	40.794	1294.642	1161.782
-11.619	40.930	1293.337	1161.353
-10.604	41.073	1292.145	1161.074
-9.590	40.939	1290.997	1159.216
-8.575	40.900	1289.984	1158.033
-7.560	41.086	1289.156	1158.323
-6.546	40.945	1288.254	1156.649
-5.531	40.934	1287.439	1155.804
-4.517	41.074	1286.575	1155.797
-3.502	40.985	1285.708	1154.457
-2.487	41.063	1284.788	1154.037
-1.473	41.055	1280.976	1150.522
-0.458	39.922	1265.689	1130.268
0.556	35.826	1245.327	1085.875
1.571	31.427	1248.970	1063.987
2.586	30.138	1263.599	1068.928
3.600	28.709	1253.286	1051.929
4.615	21.059	1175.733	945.462
5.629	8.504	1092.037	814.484
6.644	2.569	1067.567	766.535
7.659	2.185	1064.249	762.168
8.673	1.707	1062.955	758.792
9.688	1.723	1061.821	757.993
10.702	2.144	1060.409	759.010
11.717	9.199	1070.658	801.581
12.731	20.414	1086.588	869.925
13.746	25.192	1092.573	898.642
14.761	25.534	1092.943	900.581
15.775	25.284	1092.273	898.693
16.790	25.245	1091.215	897.549
17.804	25.107	1090.376	896.092
18.819	25.148	1090.452	896.277
19.834	25.319	1089.866	896.572
20.848	25.297	1089.315	895.932
21.863	25.335	1088.731	895.560
22.877	25.290	1087.961	894.624
23.892	25.246	1087.265	893.750
24.907	25.209	1086.896	893.184
25.921	25.380	1085.464	892.781
26.936	25.286	1084.160	891.163
27.950	25.230	1082.581	889.507
28.965	25.124	1080.952	887.564
29.980	25.127	1079.180	886.048
30.994	25.243	1078.675	886.125
32.009	25.407	1076.981	885.467
33.023	25.045	1076.476	883.187
34.038	25.195	1075.108	882.724
35.053	25.356	1074.383	882.842
36.067	25.306	1073.997	882.203
37.082	25.354	1073.086	881.614
38.096	25.541	1072.584	882.037
39.111	25.550	1071.851	881.403
40.126	25.465	1070.135	879.499
41.140	25.097	1068.716	876.456
42.155	24.745	1067.561	873.712
43.169	24.817	1066.400	873.032
44.184	24.918	1065.244	872.505
45.199	24.792	1064.424	871.139
46.213	24.898	1063.770	871.046
47.228	25.054	1062.715	870.862
48.242	25.084	1062.496	870.750
49.257	25.071	1061.823	870.057
50.271	25.196	1061.027	869.936
51.286	25.378	1060.134	870.010
52.301	25.321	1059.010	868.732
53.315	25.210	1058.223	867.476
54.330	25.123	1057.317	866.234
55.344	25.153	1056.559	865.682
56.359	25.200	1055.547	865.004
57.374	25.105	1054.487	863.598
58.388	24.930	1054.391	862.604
59.403	24.917	1053.099	861.407
60.417	24.777	1052.507	860.175
61.432	24.851	1051.487	859.618
62.447	25.040	1051.187	860.204
63.461	25.033	1050.680	859.678
64.476	24.976	1049.408	858.291
65.490	24.974	1048.151	857.176
66.505	24.882	1047.713	856.301
67.520	24.911	1047.161	855.912
68.534	24.743	1045.865	853.977
69.549	24.325	1045.349	851.483
70.563	24.550	1043.804	851.221
71.578	24.520	1043.461	850.726
72.593	24.327	1042.265	848.755
73.607	24.422	1041.855	848.798
74.622	24.691	1041.570	849.771
75.636	24.918	1040.543	849.935
76.651	24.586	1040.216	848.019
77.666	24.475	1039.388	846.740
78.680	24.552	1038.482	846.294
79.695	24.562	1038.006	845.876
80.709	24.961	1036.776	846.687
81.724	24.822	1036.296	845.564
82.739	24.826	1035.682	845.007
83.753	25.250	1034.969	846.351
84.768	25.575	1034.055	847.057
85.782	25.637	1033.338	846.690
86.797	25.508	1032.821	845.582
87.812	25.319	1031.625	843.643
88.826	25.405	1030.575	843.114
89.841	25.421	1029.749	842.436
90.855	25.497	1028.782	841.927
91.870	25.383	1028.297	840.921
92.884	25.333	1026.716	839.321
93.899	25.294	1025.606	838.155
94.914	25.393	1025.085	838.120
95.928	25.337	1023.429	836.428
96.943	25.024	1022.573	834.198
97.957	24.817	1021.617	832.383
98.972	24.689	1020.748	831.004
99.987	24.979	1019.799	831.505
101.001	25.138	1019.083	831.587
102.016	25.082	1018.457	830.744
103.030	25.136	1017.432	830.081
104.045	24.925	1016.344	828.148
105.060	24.746	1015.637	826.669
106.074	25.020	1015.027	827.364
107.089	25.235	1014.339	827.722
108.103	25.192	1013.189	826.516
109.118	24.949	1011.893	824.262
110.133	24.931	1011.145	823.499
111.147	24.723	1010.115	821.634
112.162	24.549	1009.373	820.157
113.176	24.956	1008.645	821.358
114.191	24.944	1007.696	820.462
115.206	24.529	1006.721	817.693
116.220	24.429	1006.147	816.696
117.235	24.696	1004.850	816.793
118.249	24.544	1004.517	815.754
119.264	24.470	1003.482	814.506
120.279	24.637	1002.456	814.360
121.293	24.665	1002.223	814.228
122.308	24.574	1001.213	812.920
123.322	24.511	999.963	811.549
124.337	24.512	998.402	810.214
125.352	24.076	996.821	806.883
126.366	23.931	996.108	805.580
127.381	24.648	995.951	808.626
128.395	25.016	995.698	810.013
129.410	25.233	995.178	810.500
130.424	25.192	993.952	809.243
131.439	25.072	993.255	808.062
132.454	25.124	991.998	807.203
133.468	25.185	991.338	806.868
134.483	25.232	990.389	806.235
135.497	25.394	990.311	806.828
136.512	25.458	989.189	806.132
137.527	25.478	988.058	805.225
138.541	25.419	987.403	804.357
139.556	25.577	986.393	804.172
140.570	25.564	985.893	803.636
141.585	25.562	984.817	802.676
142.600	25.506	983.962	801.658
143.614	25.674	983.584	802.031
144.629	25.812	982.940	802.048
145.643	25.558	981.421	799.605
146.658	25.394	980.187	797.805
147.673	25.376	978.988	796.677
148.687	25.291	978.051	795.466
149.702	25.223	976.791	794.071
150.716	25.262	975.696	793.282
151.731	25.270	975.558	793.137
152.746	25.444	975.092	793.458
153.760	25.614	974.461	793.622
154.775	25.744	973.646	793.461
155.789	25.563	972.921	792.005
156.804	25.554	971.860	791.028
157.819	25.522	971.183	790.268
158.833	25.645	970.579	790.245
159.848	25.804	969.397	789.911
160.862	25.468	968.590	787.713
161.877	25.479	967.429	786.748
162.892	25.551	966.524	786.258
163.906	25.566	965.258	785.220
164.921	25.486	964.525	784.205
165.935	25.640	963.289	783.802
166.950	25.566	962.313	782.618
167.964	25.567	961.679	782.038
168.979	25.439	960.196	780.208
169.994	25.251	959.622	778.854
171.008	25.586	959.449	780.100
172.023	25.606	958.538	779.377
173.037	25.418	957.423	777.588
174.052	25.232	956.442	775.918
175.067	25.330	955.707	775.676
176.081	25.323	955.054	775.045
177.096	25.238	954.669	774.300
178.110	25.099	953.221	772.458
179.125	24.885	953.103	771.372
180.140	24.964	952.480	771.139
181.154	25.038	952.511	771.413
182.169	25.285	952.353	772.280
183.183	25.715	951.697	773.530
184.198	25.314	951.036	771.200
185.213	25.367	949.916	770.450
186.227	25.610	949.375	770.987
187.242	25.550	949.035	770.388
188.256	25.569	948.341	769.835
189.271	25.698	947.236	769.422
190.286	25.430	946.129	767.309
191.300	24.802	944.395	763.159
192.315	23.908	943.009	758.163
193.329	23.841	942.251	757.198
194.344	24.785	943.276	761.981
195.359	25.408	943.145	764.456
196.373	25.546	942.357	764.338
197.388	25.249	942.306	762.967
198.402	25.423	941.262	762.792
199.417	25.499	940.595	762.505
200.432	25.252	939.612	760.596
201.446	25.097	938.817	759.229
202.461	25.094	938.351	758.774
203.475	24.186	936.763	753.583
204.490	23.561	935.048	749.499
205.504	24.341	935.310	752.933
206.519	25.083	935.213	755.922
207.534	25.067	934.979	755.596
208.548	25.607	934.685	757.567
209.563	25.234	933.939	755.328
210.577	25.322	933.326	755.135
211.592	25.688	932.861	756.230
212.607	25.732	931.855	755.530
213.621	25.660	931.393	754.788
214.636	25.670	930.720	754.218
215.650	25.533	930.136	753.104
216.665	25.642	929.498	752.975
217.680	25.597	928.647	752.034
218.694	25.234	927.627	749.624
219.709	25.053	926.797	748.129
220.723	25.313	926.888	749.225
221.738	25.474	925.903	749.032
222.753	25.265	925.915	748.105
223.767	25.573	925.031	748.607
224.782	25.845	924.666	749.374
225.796	25.733	924.120	748.403
226.811	25.200	922.548	744.850
227.826	24.382	921.260	740.349
228.840	24.614	920.929	740.982
229.855	24.741	920.253	740.900
230.869	24.442	918.810	738.435
231.884	24.657	919.187	739.560
232.899	25.305	919.280	742.251
233.913	25.381	918.337	741.739
234.928	25.314	917.818	740.976
235.942	25.167	917.414	739.980
236.957	24.977	916.252	738.194
237.972	24.989	915.654	737.695
238.986	25.173	915.297	738.100
240.001	25.235	914.502	737.647
241.015	25.302	914.201	737.615
242.030	25.371	914.095	737.748
243.045	25.441	913.312	737.340
244.059	25.640	913.059	737.884
245.074	25.409	911.832	735.881
246.088	25.125	910.710	733.751
247.103	25.470	910.434	734.875
248.117	25.932	910.513	736.762
249.132	26.135	910.333	737.380
250.147	26.172	909.932	737.142
251.161	26.395	909.219	737.405
252.176	26.320	908.725	736.633
253.190	26.324	908.581	736.469
254.205	26.622	907.781	736.969
255.220	26.490	907.356	736.022
256.234	26.459	906.409	735.064
257.249	26.146	905.757	733.199
258.263	26.323	905.102	733.320
259.278	26.366	904.285	732.768
260.293	26.295	903.952	732.147
261.307	26.426	902.848	731.718
262.322	26.156	902.150	729.994
263.336	25.504	900.148	725.679
264.351	24.398	898.369	719.721
265.366	24.532	898.263	720.115
266.380	25.583	899.071	724.935
267.395	26.015	898.538	726.183
268.409	25.940	897.820	725.235
269.424	26.106	897.473	725.559
270.439	26.088	896.768	724.853
271.453	26.160	896.304	724.704
272.468	26.391	896.010	725.329
273.482	26.519	895.196	725.119
274.497	26.136	894.140	722.664
275.512	25.604	893.035	719.578
276.526	26.002	893.371	721.382
277.541	26.226	893.335	722.184
278.555	25.998	891.952	720.092
279.570	25.898	891.402	719.182
280.585	25.970	891.201	719.247
281.599	25.987	889.951	718.242
282.614	25.518	888.437	715.090
283.628	25.489	888.373	714.859
284.643	25.743	888.327	715.768
285.657	25.435	886.543	713.045
286.672	25.095	885.642	710.911
287.687	25.556	886.159	713.092
288.701	25.770	885.545	713.384
289.716	25.432	884.480	711.125
290.730	25.359	883.790	710.216
291.745	25.130	883.212	708.784
292.760	25.444	882.783	709.618
293.774	26.312	883.555	713.603
294.789	26.650	883.238	714.619
295.803	26.768	882.618	714.520
296.818	26.774	881.864	713.871
297.833	26.317	880.840	711.181
298.847	26.166	879.925	709.785
299.862	26.597	879.602	711.156
300.876	26.603	879.858	711.321
301.891	26.730	878.412	710.589
302.906	26.198	877.642	707.816
303.920	26.295	877.553	708.064
304.935	26.607	877.387	709.091
305.949	26.606	876.919	708.646
306.964	26.422	875.666	706.848
307.979	26.549	874.829	706.607
308.993	26.770	875.062	707.597
310.008	26.853	874.286	707.229
311.022	26.513	873.870	705.504
312.037	26.409	872.999	704.336
313.052	26.181	871.934	702.526
314.066	25.328	870.660	698.120
315.081	24.907	869.917	695.828
316.095	25.727	870.297	699.256
317.110	26.276	869.872	700.984
318.125	25.496	868.597	696.872
319.139	24.359	866.937	691.075
320.154	24.430	866.415	690.873
321.168	25.337	866.723	694.568
322.183	26.084	867.284	697.847
323.197	26.221	867.029	698.110
324.212	26.505	866.648	698.838
325.227	26.423	866.131	698.043
326.241	26.436	865.040	697.151
327.256	26.278	864.549	696.085
328.270	26.140	863.728	694.832
329.285	25.981	862.938	693.525
330.300	25.788	862.083	692.034
331.314	26.103	861.817	692.968
332.329	26.485	861.749	694.319
333.343	26.524	861.643	694.323
334.358	26.599	861.040	694.063
335.373	26.578	860.826	693.748
336.387	26.879	860.840	694.853
337.402	27.153	860.323	695.419
338.416	26.840	860.600	694.386
339.431	27.083	859.790	694.601
340.446	27.208	859.366	694.673
341.460	27.048	859.063	693.754
342.475	26.837	858.326	692.291
343.489	26.974	857.963	692.460
344.504	27.193	857.734	693.051
345.519	27.427	857.668	693.828
346.533	27.529	856.799	693.453
347.548	27.516	856.192	692.852
348.562	27.408	856.039	692.255
349.577	27.303	855.278	691.179
350.592	27.281	854.540	690.437
351.606	27.352	853.400	689.724
352.621	27.344	852.557	688.951
353.635	27.093	852.142	687.607
354.650	26.465	850.683	683.993
355.665	25.613	848.894	679.280
356.679	26.087	848.798	680.932
357.694	26.459	848.278	681.855
358.708	26.180	848.146	680.638
359.723	26.621	847.844	681.997
360.738	26.887	848.025	683.084
361.752	27.027	847.162	682.855
362.767	27.454	846.563	683.914
363.781	27.514	846.730	684.217
364.796	27.745	846.121	684.527
365.810	27.901	845.581	684.616
366.825	27.736	845.115	683.562
367.840	27.492	844.385	681.997
368.854	27.044	843.484	679.533
369.869	26.981	843.347	679.127
370.883	27.213	842.526	679.273
371.898	27.042	842.352	678.434
372.913	27.147	842.158	678.608
373.927	27.248	841.214	678.165
374.942	27.426	840.944	678.549
375.956	27.542	840.791	678.800
376.971	27.476	840.709	678.429
377.986	27.747	839.988	678.795
379.000	27.593	839.573	677.825
380.015	27.516	838.477	676.594
381.029	27.635	837.776	676.411
382.044	27.755	837.474	676.552
383.059	27.753	836.752	675.900
384.073	27.630	836.636	675.291
385.088	27.702	835.718	674.759
386.102	27.432	835.177	673.263
387.117	27.409	834.651	672.693
388.132	26.999	833.166	669.926
389.146	26.680	832.216	667.926
390.161	27.064	832.181	669.255
391.175	27.459	832.451	670.869
392.190	27.050	831.287	668.367
393.205	25.738	829.231	661.836
394.219	24.203	827.178	654.503
395.234	23.972	827.190	653.608
396.248	25.654	828.529	660.791
397.263	27.301	829.119	667.249
398.278	27.245	828.865	666.780
399.292	26.964	828.297	665.234
400.307	26.938	827.809	664.689
401.321	27.094	827.450	664.910
402.336	27.400	827.286	665.843
403.350	27.843	827.425	667.512
404.365	28.139	826.987	668.183
405.380	28.343	826.748	668.674
406.394	28.365	826.429	668.438
407.409	28.326	825.745	667.685
408.423	28.319	825.291	667.234
409.438	28.302	825.086	666.946
410.453	28.517	824.633	667.302
411.467	28.374	823.808	666.058
412.482	28.495	823.298	666.023
413.496	28.665	823.145	666.460
414.511	28.454	822.663	665.244
415.526	28.406	822.518	664.895
416.540	28.271	821.670	663.659
417.555	27.920	820.996	661.787
418.569	28.224	820.088	662.095
419.584	28.045	820.095	661.395
420.599	27.817	819.608	660.118
421.613	94.257	1262.844	1370.294
422.628	81.212	1327.443	1370.404
