DTS Sentinel unit serial number:	SN413079Multiplexer serial number:	ORYXHardware model number:	OX4-SRSoftware version number:	ORYX F/W v4.00 Oryx Data Collector v3.7.2.0data status	okinstallation	princeton_trtdifferential loss correction	single-endedforward channel	channel 1reverse channel	N/Adate	2019/09/16time	00:54:35forward acquisition time	60.00reverse acquisition time	0.00gamma	496.2192k internal	0.2335k external	0.2335temperature offset calibration	0.9977default loss term (dB/km)	0.3790temperature slope calibration	1.0000multiplexer offset coefficient	1.0000multiplexer slope coefficient	1.0000fibre end	0.00T internal ref (°C)	27.37T ext. ref 1 (°C)	9.71T ext. ref 2 (°C)	21.35length (m)	temperature (°C)	Stokes	anti-Stokes-747.200	-200.000	0.017	-0.156
-746.185	-85.906	0.049	-0.015
-745.171	213.064	0.149	-0.236
-744.156	14.052	0.395	-0.309
-743.142	-11.146	0.189	-0.125
-742.127	-62.839	-0.328	0.137
-741.112	-131.062	-0.139	-0.019
-740.098	-111.698	-0.482	0.098
-739.083	214.062	0.101	0.161
-738.069	81.813	-0.086	0.093
-737.054	65.675	-0.146	-0.148
-736.039	-3.910	-0.268	0.187
-735.025	225.420	0.112	0.182
-734.010	-90.489	-0.336	0.098
-732.996	-127.038	0.375	0.055
-731.981	232.827	-0.088	-0.146
-730.966	49.489	-0.126	0.119
-729.952	-200.000	-0.036	-0.204
-728.937	-79.530	-0.313	-0.106
-727.923	-200.000	0.026	-0.221
-726.908	65.060	0.147	-0.150
-725.894	16.979	-0.007	0.005
-724.879	32.024	0.188	-0.163
-723.864	-200.000	-0.044	-0.276
-722.850	228.795	-0.227	-0.372
-721.835	800.000	0.056	-0.199
-720.821	-12.528	0.175	0.115
-719.806	-200.000	0.001	-0.257
-718.791	74.315	-0.292	-0.307
-717.777	800.000	-0.074	-0.232
-716.762	-200.000	0.049	-0.363
-715.748	-84.118	0.167	0.053
-714.733	-154.422	-0.090	0.006
-713.718	-40.174	0.189	-0.099
-712.704	139.006	-0.212	-0.280
-711.689	-156.366	0.073	0.005
-710.675	-60.221	0.085	0.036
-709.660	-200.000	-0.053	0.292
-708.645	-43.164	0.047	0.024
-707.631	-160.093	-0.039	-0.002
-706.616	-200.000	0.054	-0.240
-705.602	-200.000	0.006	0.112
-704.587	58.237	-0.285	-0.280
-703.572	168.621	-0.090	-0.128
-702.558	719.272	-0.027	-0.073
-701.543	-137.128	0.203	0.023
-700.529	19.063	-0.407	0.328
-699.514	-83.589	0.231	0.074
-698.499	-101.716	0.149	-0.036
-697.485	-174.918	0.556	-0.016
-696.470	74.593	-0.164	0.173
-695.456	27.522	0.190	-0.160
-694.441	33.391	0.205	0.178
-693.426	177.943	0.140	0.205
-692.412	246.269	-0.119	-0.201
-691.397	45.614	-0.105	-0.097
-690.383	-62.548	-0.429	-0.179
-689.368	-119.016	-0.453	-0.080
-688.354	-25.263	-0.111	-0.066
-687.339	377.243	-0.089	-0.182
-686.324	14.078	-0.199	-0.155
-685.310	800.000	0.035	-0.130
-684.295	-72.856	-0.121	0.045
-683.281	-59.492	0.297	-0.128
-682.266	286.994	0.096	0.174
-681.251	800.000	0.107	-0.319
-680.237	70.422	-0.216	0.224
-679.222	133.134	0.114	-0.148
-678.208	-45.079	0.196	0.098
-677.193	800.000	0.096	0.283
-676.178	440.117	0.061	0.135
-675.164	-145.490	-0.227	0.020
-674.149	-200.000	0.021	0.145
-673.135	-118.334	-0.135	0.024
-672.120	45.486	-0.092	-0.086
-671.105	129.681	0.124	-0.159
-670.091	545.151	-0.074	-0.177
-669.076	-4.028	0.238	-0.165
-668.062	-200.000	-0.070	0.323
-667.047	800.000	0.009	0.028
-666.032	-21.663	0.339	-0.207
-665.018	-73.227	-0.252	-0.093
-664.003	-126.026	-0.209	-0.032
-662.989	-200.000	-0.003	-0.312
-661.974	-63.453	-0.237	-0.097
-660.959	-60.957	-0.083	-0.035
-659.945	225.969	0.086	-0.140
-658.930	207.618	0.085	-0.134
-657.916	-200.000	0.038	0.178
-656.901	193.888	0.102	0.155
-655.886	-138.963	-0.387	-0.042
-654.872	800.000	-0.114	0.334
-653.857	-77.562	0.191	0.066
-652.843	-54.122	0.275	0.125
-651.828	-28.789	0.348	-0.201
-650.814	49.410	0.039	0.037
-649.799	-29.012	0.048	0.028
-648.784	-200.000	-0.016	-0.135
-647.770	-200.000	0.001	0.183
-646.755	-42.807	0.099	-0.051
-645.741	-200.000	-0.013	0.157
-644.726	266.957	0.031	-0.055
-643.711	-200.000	0.027	-0.207
-642.697	-109.852	0.226	-0.048
-641.682	800.000	0.027	-0.090
-640.668	-200.000	0.033	-0.275
-639.653	-200.000	0.001	-0.307
-638.638	572.319	0.064	0.155
-637.624	-171.331	-0.073	0.002
-636.609	48.610	-0.222	-0.208
-635.595	351.758	0.012	-0.024
-634.580	800.000	-0.064	-0.195
-633.565	45.563	0.157	-0.146
-632.551	661.354	-0.102	-0.263
-631.536	-170.013	-0.169	0.006
-630.522	-25.851	0.199	0.117
-629.507	641.736	0.047	0.119
-628.492	75.031	-0.237	-0.250
-627.478	-196.896	-0.263	0.002
-626.463	-200.000	-0.001	-0.333
-625.449	-87.432	-0.140	0.043
-624.434	800.000	-0.063	-0.190
-623.419	162.093	-0.137	-0.192
-622.405	-26.867	-0.466	-0.272
-621.390	-115.459	0.163	-0.031
-620.376	-57.807	0.252	0.110
-619.361	231.895	-0.151	-0.247
-618.346	-200.000	-0.003	-0.155
-617.332	166.368	0.015	0.021
-616.317	-83.496	-0.158	-0.051
-615.303	37.805	-0.224	-0.199
-614.288	32.335	-0.159	-0.138
-613.273	-155.632	0.174	-0.011
-612.259	800.000	0.009	-0.038
-611.244	-0.895	-0.147	-0.104
-610.230	-51.373	0.149	0.070
-609.215	-112.373	0.113	-0.023
-608.201	800.000	-0.008	0.027
-607.186	36.625	-0.120	-0.106
-606.171	33.879	0.054	-0.047
-605.157	-116.339	-0.105	0.019
-604.142	35.335	0.145	-0.127
-603.128	-81.636	0.183	0.060
-602.113	-200.000	-0.012	0.336
-601.098	14.383	0.132	-0.103
-600.084	-162.279	-0.148	0.007
-599.069	-54.165	-0.221	0.101
-598.055	78.987	0.043	-0.047
-597.040	-76.753	-0.215	-0.075
-596.025	-200.000	0.020	0.145
-595.011	-113.497	0.243	0.048
-593.996	-200.000	0.061	0.434
-592.982	-200.000	-0.004	-0.216
-591.967	800.000	0.100	-0.282
-590.952	-49.330	-0.256	-0.122
-589.938	568.276	0.115	0.280
-588.923	24.058	0.114	-0.094
-587.909	-151.453	0.237	-0.018
-586.894	-108.408	0.337	-0.073
-585.879	305.451	0.026	-0.049
-584.865	717.764	0.096	-0.254
-583.850	800.000	-0.076	-0.239
-582.836	-200.000	-0.044	0.199
-581.821	-129.371	0.477	0.066
-580.806	242.634	0.049	0.083
-579.792	-118.815	0.278	-0.049
-578.777	800.000	0.074	-0.241
-577.763	-142.592	-0.048	-0.005
-576.748	-200.000	-0.029	-0.198
-575.733	-25.614	-0.083	0.049
-574.719	800.000	0.043	0.146
-573.704	-64.802	-0.261	-0.106
-572.690	299.191	0.083	0.152
-571.675	800.000	0.078	0.244
-570.661	113.446	0.098	-0.119
-569.646	142.236	0.146	-0.193
-568.631	9.510	-0.327	-0.247
-567.617	800.000	-0.069	-0.257
-566.602	-178.985	0.181	-0.004
-565.588	-200.000	0.004	-0.047
-564.573	72.829	-0.224	-0.234
-563.558	210.207	-0.110	-0.173
-562.544	68.195	0.454	-0.464
-561.529	105.138	-0.019	0.022
-560.515	13.011	-0.117	0.091
-559.500	-37.201	-0.102	0.054
-558.485	206.601	-0.039	-0.061
-557.471	229.785	0.085	0.138
-556.456	107.088	-0.224	0.266
-555.442	-75.820	-0.178	-0.063
-554.427	-122.164	-0.192	0.031
-553.412	-40.258	-0.134	0.069
-552.398	-88.012	-0.205	-0.061
-551.383	387.041	0.068	0.140
-550.369	172.178	-0.166	-0.238
-549.354	5.165	-0.030	-0.022
-548.339	-102.544	-0.210	0.050
-547.325	-200.000	0.081	0.427
-546.310	-11.157	0.223	-0.147
-545.296	-200.000	0.021	-0.355
-544.281	146.031	0.286	-0.383
-543.266	800.000	-0.035	-0.096
-542.252	11.292	-0.264	-0.201
-541.237	-200.000	0.028	0.171
-540.223	183.750	-0.276	0.407
-539.208	800.000	0.075	0.220
-538.193	305.170	0.043	-0.079
-537.179	-20.788	0.303	0.185
-536.164	-31.886	-0.080	0.045
-535.150	-200.000	-0.027	-0.143
-534.135	800.000	-0.019	-0.074
-533.121	-141.737	-0.220	-0.022
-532.106	800.000	-0.098	-0.286
-531.091	-200.000	0.001	-0.058
-530.077	-200.000	0.023	-0.195
-529.062	421.147	0.094	-0.201
-528.048	-137.360	0.039	0.004
-527.033	95.456	-0.094	-0.107
-526.018	199.669	-0.089	0.135
-525.004	-83.043	-0.173	-0.055
-523.989	143.624	-0.335	0.445
-522.975	-104.611	-0.203	0.047
-521.960	170.713	0.127	-0.182
-520.945	-90.206	0.170	0.049
-519.931	225.391	-0.195	-0.315
-518.916	243.342	0.070	-0.117
-517.902	800.000	-0.070	-0.269
-516.887	41.453	0.046	-0.041
-515.872	103.532	0.201	0.235
-514.858	-200.000	-0.019	0.138
-513.843	-82.276	-0.353	0.115
-512.829	-46.793	0.306	0.149
-511.814	239.664	-0.088	0.146
-510.799	-200.000	-0.014	0.103
-509.785	-200.000	0.037	0.348
-508.770	53.463	-0.190	-0.182
-507.756	-200.000	-0.023	-0.567
-506.741	33.891	-0.179	-0.155
-505.726	349.894	0.236	0.464
-504.712	277.622	-0.067	-0.119
-503.697	-106.032	0.177	0.040
-502.683	203.065	-0.135	-0.208
-501.668	703.281	0.042	-0.110
-500.653	-26.275	-0.232	0.135
-499.639	-130.126	-0.161	0.022
-498.624	19.116	-0.151	0.120
-497.610	-30.503	0.076	-0.043
-496.595	61.455	-0.136	0.134
-495.581	800.000	0.056	0.214
-494.566	-200.000	-0.023	-0.176
-493.551	-166.038	0.302	-0.013
-492.537	212.366	0.128	0.201
-491.522	-200.000	-0.001	0.029
-490.508	265.825	-0.120	-0.209
-489.493	-64.211	0.098	-0.040
-488.478	-48.556	0.385	0.184
-487.464	-200.000	-0.058	-0.358
-486.449	606.841	-0.169	-0.419
-485.435	-91.558	-0.052	-0.015
-484.420	-47.108	0.092	-0.045
-483.405	-43.934	0.312	-0.156
-482.391	-200.000	-0.003	-0.200
-481.376	-200.000	-0.049	0.306
-480.362	257.926	-0.139	-0.238
-479.347	-200.000	-0.020	0.115
-478.332	170.070	-0.114	-0.162
-477.318	531.012	0.155	0.365
-476.303	-200.000	-0.014	-0.233
-475.289	-200.000	-0.035	0.255
-474.274	423.929	0.076	0.163
-473.259	-83.203	-0.347	0.111
-472.245	36.010	-0.220	-0.192
-471.230	-169.087	0.428	0.016
-470.216	-122.577	0.103	-0.017
-469.201	436.895	0.044	-0.096
-468.186	-114.455	-0.128	-0.024
-467.172	-200.000	-0.021	0.284
-466.157	-172.726	0.259	-0.008
-465.143	225.820	0.087	-0.140
-464.128	-200.000	0.032	0.404
-463.113	-81.469	-0.201	0.066
-462.099	211.967	-0.050	-0.078
-461.084	-47.063	-0.133	0.065
-460.070	-200.000	-0.013	0.070
-459.055	-3.471	0.220	-0.152
-458.040	800.000	0.031	-0.094
-457.026	-75.814	-0.206	0.073
-456.011	76.785	0.023	-0.024
-454.997	107.640	0.087	0.103
-453.982	179.766	-0.188	-0.274
-452.968	800.000	-0.112	-0.398
-451.953	115.974	-0.038	0.046
-450.938	-27.049	0.024	0.014
-449.924	-98.564	-0.195	0.050
-448.909	132.036	0.220	0.281
-447.895	-77.063	0.068	-0.023
-446.880	59.198	0.057	-0.056
-445.865	800.000	0.050	0.211
-444.851	194.588	0.085	0.129
-443.836	-70.808	-0.091	0.034
-442.822	658.384	0.091	-0.234
-441.807	-200.000	-0.042	0.207
-440.792	-46.026	-0.101	-0.049
-439.778	309.295	0.178	-0.330
-438.763	-200.000	-0.047	0.382
-437.749	-200.000	-0.112	0.618
-436.734	-108.712	-0.032	-0.007
-435.719	-150.884	0.064	-0.005
-434.705	-200.000	0.030	-0.151
-433.690	-20.872	-0.207	0.126
-432.676	-200.000	-0.045	0.229
-431.661	98.975	-0.127	-0.146
-430.646	714.281	-0.095	0.250
-429.632	800.000	0.076	0.264
-428.617	143.766	0.078	-0.103
-427.603	326.380	-0.110	0.209
-426.588	82.308	-0.171	-0.184
-425.573	67.176	0.286	0.289
-424.559	66.921	-0.105	0.106
-423.544	31.371	-0.190	0.162
-422.530	-128.491	-0.166	-0.023
-421.515	-200.000	-0.007	0.192
-420.500	-104.381	0.164	0.038
-419.486	-118.081	-0.075	0.013
-418.471	4.642	-0.152	0.111
-417.457	-37.727	0.601	0.317
-416.442	201.441	0.062	0.095
-415.428	-132.969	-0.152	-0.019
-414.413	-200.000	-0.031	0.309
-413.398	-68.051	0.117	-0.045
-412.384	662.690	-0.105	-0.268
-411.369	-112.648	-0.272	-0.054
-410.355	4.840	0.083	0.061
-409.340	-200.000	0.028	-0.135
-408.325	-63.195	0.240	-0.098
-407.311	-55.598	-0.163	-0.072
-406.296	800.000	0.081	0.343
-405.282	800.000	-0.050	0.178
-404.267	-200.000	-0.017	0.176
-403.252	-137.649	0.358	-0.040
-402.238	25.277	0.193	-0.159
-401.223	71.950	0.219	-0.226
-400.209	-27.352	0.237	-0.137
-399.194	800.000	0.060	0.190
-398.179	-180.585	0.221	-0.005
-397.165	27.719	-0.188	-0.157
-396.150	276.782	0.074	0.131
-395.136	800.000	0.052	0.146
-394.121	-200.000	-0.024	0.231
-393.106	-109.910	-0.192	0.040
-392.092	-155.892	-0.436	-0.028
-391.077	-105.789	0.083	0.019
-390.063	-56.879	0.118	0.052
-389.048	-159.877	-0.258	-0.014
-388.033	800.000	-0.101	-0.308
-387.019	-200.000	0.143	0.001
-386.004	-84.077	-0.056	0.018
-384.990	-169.672	-0.363	0.013
-383.975	800.000	-0.062	0.208
-382.960	-77.101	-0.331	0.114
-381.946	65.659	-0.182	-0.183
-380.931	-7.618	0.299	0.200
-379.917	-40.890	0.096	0.049
-378.902	800.000	-0.052	-0.209
-377.888	-51.484	0.082	-0.038
-376.873	90.486	0.327	0.363
-375.858	800.000	0.091	0.304
-374.844	-70.348	-0.107	-0.040
-373.829	-127.426	-0.048	-0.007
-372.815	-200.000	0.000	-0.199
-371.800	-200.000	0.004	0.068
-370.785	34.980	0.125	-0.108
-369.771	219.828	0.066	0.105
-368.756	800.000	-0.235	0.665
-367.742	161.036	0.166	0.230
-366.727	-82.224	-0.152	0.049
-365.712	800.000	-0.042	0.121
-364.698	163.128	0.165	0.230
-363.683	-60.412	-0.011	0.005
-362.669	-200.000	0.001	-0.145
-361.654	-200.000	-0.004	0.103
-360.639	-200.000	0.049	0.239
-359.625	-1.873	0.177	0.123
-358.610	109.676	-0.278	0.330
-357.596	760.977	-0.073	-0.196
-356.581	-114.809	0.110	-0.021
-355.566	44.317	0.114	0.104
-354.552	730.008	-0.084	-0.223
-353.537	-57.435	0.155	-0.067
-352.523	-200.000	-0.075	-0.397
-351.508	-26.945	0.171	0.099
-350.493	-172.715	-0.109	0.003
-349.479	-17.971	-0.141	0.087
-348.464	400.269	-0.151	0.314
-347.450	196.609	-0.105	-0.158
-346.435	506.936	-0.179	0.412
-345.420	-200.000	0.004	-0.227
-344.406	-80.072	0.087	0.029
-343.391	-105.471	0.148	-0.033
-342.377	-52.676	-0.141	-0.064
-341.362	53.122	0.054	0.051
-340.348	-200.000	-0.031	0.163
-339.333	-51.916	-0.136	-0.063
-338.318	145.064	0.151	0.199
-337.304	-37.231	-0.057	0.030
-336.289	-154.376	0.191	0.013
-335.275	-91.620	-0.315	0.089
-334.260	306.305	0.051	-0.093
-333.245	-200.000	0.005	-0.204
-332.231	-33.657	-0.124	0.068
-331.216	-49.076	-0.012	-0.006
-330.202	800.000	0.015	0.046
-329.187	-37.862	-0.068	-0.036
-328.172	-55.714	-0.124	0.055
-327.158	-58.454	-0.332	-0.142
-326.143	-117.548	0.282	0.050
-325.129	800.000	0.049	0.171
-324.114	-15.073	-0.171	0.108
-323.099	402.245	0.106	-0.221
-322.085	-63.035	-0.076	-0.031
-321.070	5.180	0.120	-0.087
-320.056	-166.643	-0.243	-0.010
-319.041	-87.129	-0.090	0.027
-318.026	26.259	-0.165	-0.136
-317.012	188.432	0.070	-0.104
-315.997	-141.264	-0.207	-0.021
-314.983	-200.000	0.023	0.199
-313.968	-42.360	0.165	0.083
-312.953	-100.192	-0.110	0.027
-311.939	505.216	-0.139	-0.318
-310.924	-200.000	0.009	-0.070
-309.910	637.020	0.141	-0.353
-308.895	12.636	-0.175	0.133
-307.880	-100.832	0.070	0.017
-306.866	800.000	0.005	0.019
-305.851	9.573	-0.078	0.058
-304.837	-200.000	0.069	-0.470
-303.822	-109.194	0.138	0.029
-302.807	35.184	-0.214	-0.185
-301.793	-90.695	0.063	-0.018
-300.778	-130.179	-0.284	-0.038
-299.764	800.000	0.066	-0.190
-298.749	261.848	0.164	-0.280
-297.735	50.838	-0.103	-0.096
-296.720	3.694	0.238	0.172
-295.705	55.189	-0.188	0.179
-294.691	445.009	0.085	0.183
-293.676	-122.633	0.363	0.058
-292.662	-125.325	0.032	-0.005
-291.647	-51.432	-0.348	0.160
-290.632	5.449	0.223	-0.162
-289.618	207.653	-0.245	-0.377
-288.603	-117.072	0.337	-0.061
-287.589	-24.063	-0.165	0.097
-286.574	174.130	0.165	-0.235
-285.559	145.576	0.220	-0.291
-284.545	439.028	0.124	0.266
-283.530	577.523	-0.090	-0.217
-282.516	-47.473	0.238	-0.114
-281.501	-7.701	0.079	0.052
-280.486	800.000	0.087	0.317
-279.472	131.170	-0.158	0.200
-278.457	-32.037	0.185	0.102
-277.443	73.172	0.083	0.086
-276.428	216.773	0.141	-0.221
-275.413	96.460	0.129	-0.146
-274.399	-200.000	0.007	0.315
-273.384	-132.687	0.498	0.063
-272.370	-200.000	0.003	0.025
-271.355	31.839	-0.313	0.266
-270.340	-84.613	0.232	0.072
-269.326	604.546	0.152	-0.372
-268.311	297.481	0.066	0.120
-267.297	-200.000	0.015	0.352
-266.282	800.000	0.046	0.150
-265.267	-200.000	0.036	0.179
-264.253	216.845	0.155	0.243
-263.238	80.487	-0.117	-0.125
-262.224	-133.039	-0.253	-0.032
-261.209	-88.162	0.111	-0.033
-260.195	174.870	-0.157	0.224
-259.180	372.637	0.147	-0.294
-258.165	54.925	-0.079	-0.075
-257.151	50.610	0.144	0.135
-256.136	-161.702	-0.228	-0.011
-255.122	121.830	0.120	-0.147
-254.107	133.016	-0.028	-0.036
-253.092	-200.000	0.041	-0.288
-252.078	-200.000	-0.004	-0.050
-251.063	-200.000	0.018	0.169
-250.049	20.042	0.175	0.139
-249.034	-78.238	0.237	0.080
-248.019	-164.038	0.391	0.018
-247.005	800.000	-0.079	0.322
-245.990	-104.707	-0.382	0.087
-244.976	-130.043	0.367	0.049
-243.961	-60.345	0.402	-0.169
-242.946	800.000	0.032	-0.129
-241.932	222.117	0.031	-0.050
-240.917	-125.853	-0.248	0.037
-239.903	-34.107	-0.222	0.120
-238.888	167.503	-0.263	-0.368
-237.873	-125.260	-0.217	-0.033
-236.859	-113.434	-0.374	0.072
-235.844	403.169	0.183	-0.380
-234.830	160.893	-0.160	-0.220
-233.815	593.365	-0.132	-0.321
-232.800	-68.788	0.235	-0.090
-231.786	-134.610	-0.250	0.030
-230.771	-200.000	-0.027	-0.129
-229.757	774.730	-0.036	0.098
-228.742	155.402	0.130	0.176
-227.727	-61.916	-0.222	0.092
-226.713	108.994	-0.304	0.358
-225.698	-45.633	-0.261	0.127
-224.684	246.502	-0.101	-0.168
-223.669	-114.889	0.493	0.092
-222.655	-51.172	-0.192	0.088
-221.640	-14.258	0.231	0.147
-220.625	-76.474	0.192	0.066
-219.611	-61.910	0.260	-0.107
-218.596	-72.769	-0.137	-0.050
-217.582	-148.877	-0.406	0.032
-216.567	-132.911	0.465	-0.058
-215.552	-200.000	-0.016	0.185
-214.538	800.000	0.044	-0.174
-213.523	46.229	-0.305	-0.278
-212.509	33.677	-0.242	-0.207
-211.494	-115.732	-0.055	0.010
-210.479	-128.876	0.140	-0.019
-209.465	800.000	0.071	-0.261
-208.450	112.009	0.221	0.262
-207.436	27.761	-0.256	0.212
-206.421	555.878	0.117	-0.277
-205.406	122.544	0.273	0.335
-204.392	-200.000	0.056	0.360
-203.377	-125.566	0.147	0.022
-202.363	-200.000	0.041	-0.222
-201.348	-100.433	0.630	0.154
-200.333	-107.303	0.358	-0.077
-199.319	-200.000	0.088	0.425
-198.304	800.000	-0.091	-0.317
-197.290	-200.000	0.023	-0.102
-196.275	41.863	-0.137	0.122
-195.260	251.448	-0.054	0.091
-194.246	69.038	0.075	-0.076
-193.231	-88.458	-0.069	0.020
-192.217	208.723	0.164	0.253
-191.202	-200.000	-0.064	0.325
-190.187	-59.467	0.289	0.122
-189.173	401.653	-0.115	0.237
-188.158	-101.309	0.249	0.060
-187.144	-83.093	0.129	-0.041
-186.129	-117.170	0.355	-0.064
-185.114	288.569	-0.152	0.271
-184.100	-22.114	-0.208	0.124
-183.085	-93.492	0.359	0.098
-182.071	-200.000	0.019	-0.215
-181.056	166.377	-0.141	0.197
-180.042	800.000	0.058	-0.171
-179.027	-200.000	-0.012	-0.246
-178.012	-189.132	-0.047	0.001
-176.998	371.394	0.141	-0.280
-175.983	-97.972	-0.265	0.067
-174.969	-109.279	-0.390	0.081
-173.954	71.473	-0.165	0.168
-172.939	-194.183	0.159	0.001
-171.925	23.688	-0.208	-0.168
-170.910	-36.105	-0.258	-0.137
-169.896	646.710	0.116	0.291
-168.881	111.293	-0.102	0.121
-167.866	800.000	0.025	0.092
-166.852	800.000	-0.050	-0.213
-165.837	49.420	-0.040	0.037
-164.823	531.482	0.065	-0.152
-163.808	-200.000	-0.045	0.254
-162.793	-200.000	-0.025	-0.261
-161.779	800.000	-0.049	-0.192
-160.764	-106.350	0.128	0.028
-159.750	-132.824	0.362	-0.045
-158.735	85.824	-0.210	0.227
-157.720	394.486	0.166	0.340
-156.706	-76.152	-0.254	-0.088
-155.691	379.945	-0.059	-0.119
-154.677	-200.000	-0.042	0.269
-153.662	-50.037	0.177	0.082
-152.647	-200.000	-0.023	-0.546
-151.633	-151.779	0.028	0.002
-150.618	-7.681	-0.254	-0.168
-149.604	-71.944	-0.116	-0.042
-148.589	236.446	-0.021	-0.034
-147.574	800.000	0.132	-0.389
-146.560	-70.761	0.343	0.127
-145.545	-200.000	-0.059	0.377
-144.531	-200.000	0.000	0.078
-143.516	-200.000	0.001	0.095
-142.502	-1.373	-0.132	0.092
-141.487	32.990	0.152	-0.129
-140.472	72.241	-0.224	0.229
-139.458	229.920	-0.168	0.269
-138.443	31.423	-0.124	0.105
-137.429	-200.000	-0.020	-0.169
-136.414	281.240	-0.066	0.116
-135.399	-200.000	0.007	0.149
-134.385	-88.539	0.214	-0.063
-133.370	-156.681	0.070	0.004
-132.356	800.000	-0.040	-0.135
-131.341	-149.018	-0.250	0.020
-130.326	800.000	0.106	-0.371
-129.312	-92.525	-0.145	0.040
-128.297	74.828	-0.160	-0.166
-127.283	46.768	0.271	0.247
-126.268	-153.524	0.115	-0.008
-125.253	-169.323	0.116	-0.004
-124.239	-179.901	0.102	-0.002
-123.224	-103.628	-0.269	0.062
-122.210	-94.626	0.261	0.070
-121.195	226.833	0.022	-0.036
-120.180	789.281	-0.028	0.076
-119.166	-155.632	0.298	-0.019
-118.151	369.091	0.079	-0.158
-117.137	175.245	0.107	0.152
-116.122	64.529	-0.173	-0.171
-115.107	55.183	-0.112	0.106
-114.093	800.000	-0.070	0.238
-113.078	-71.833	0.084	-0.031
-112.064	800.000	-0.090	0.339
-111.049	-200.000	-0.022	0.313
-110.034	172.671	-0.166	-0.234
-109.020	-200.000	0.022	0.132
-108.005	56.039	0.197	-0.187
-106.991	-159.117	0.249	0.014
-105.976	800.000	-0.089	0.300
-104.962	-176.147	-0.215	-0.006
-103.947	-8.354	0.107	0.070
-102.932	800.000	0.051	0.145
-101.918	349.928	-0.125	0.241
-100.903	153.787	-0.271	0.364
-99.889	207.877	-0.148	-0.227
-98.874	-0.703	-0.047	0.033
-97.859	-92.191	-0.043	-0.012
-96.845	-200.000	-0.398	-0.002
-95.830	377.687	0.082	-0.164
-94.816	467.744	0.022	-0.047
-93.801	24.875	0.237	-0.192
-92.786	4.354	0.073	-0.053
-91.772	198.461	0.404	-0.606
-90.757	-94.580	-0.316	-0.084
-89.743	41.864	-0.051	0.045
-88.728	-30.290	-0.161	0.090
-87.713	27.969	-0.272	0.224
-86.699	186.729	0.222	0.323
-85.684	252.428	0.272	-0.454
-84.670	-200.000	-0.067	-0.367
-83.655	800.000	-0.156	-0.554
-82.640	-140.627	-0.109	0.011
-81.626	-184.126	0.387	-0.006
-80.611	377.262	-0.122	0.244
-79.597	15.671	0.096	-0.074
-78.582	800.000	-0.122	-0.381
-77.567	48.403	0.133	-0.122
-76.553	113.297	-0.186	0.221
-75.538	78.697	-0.141	0.148
-74.524	-200.000	0.050	0.422
-73.509	302.790	0.163	-0.296
-72.494	-80.308	0.161	-0.053
-71.480	-200.000	-0.024	0.217
-70.465	-200.000	-0.016	-0.070
-69.451	-200.000	0.001	-0.079
-68.436	-200.000	0.033	-0.297
-67.422	-200.000	-0.024	-0.279
-66.407	28.650	-0.320	0.265
-65.392	0.724	0.123	0.086
-64.378	-73.181	0.238	-0.085
-63.363	-15.484	0.192	0.120
-62.349	-200.000	-0.010	0.326
-61.334	129.824	-0.936	-1.172
-60.319	72.835	0.364	0.372
-59.305	256.623	-0.637	-1.071
-58.290	288.698	0.620	1.099
-57.276	800.000	0.423	1.770
-56.261	-200.000	113.938	643.662
-55.246	479.023	1498.806	3321.139
-54.232	149.699	2659.346	3524.998
-53.217	102.990	2139.018	2450.718
-52.203	38.514	1589.036	1385.691
-51.188	30.767	1335.542	1118.271
-50.173	27.751	1298.062	1069.203
-49.159	54.561	1353.661	1276.001
-48.144	53.429	1368.300	1282.995
-47.130	30.937	1324.473	1109.844
-46.115	27.554	1306.361	1074.712
-45.100	27.375	1301.240	1069.403
-44.086	27.217	1299.222	1066.776
-43.071	27.203	1297.075	1064.885
-42.057	27.179	1294.588	1062.664
-41.042	27.281	1292.589	1061.577
-40.027	27.333	1291.203	1060.699
-39.013	27.310	1289.185	1058.861
-37.998	27.253	1287.690	1057.260
-36.984	27.300	1285.674	1055.838
-35.969	27.338	1283.655	1054.356
-34.954	27.370	1282.286	1053.380
-33.940	27.491	1280.936	1052.924
-32.925	27.458	1279.781	1051.743
-31.911	27.344	1278.471	1049.968
-30.896	27.441	1276.773	1049.089
-29.881	27.528	1275.392	1048.416
-28.867	27.496	1273.937	1046.993
-27.852	27.595	1272.537	1046.369
-26.838	27.357	1271.502	1044.114
-25.823	27.491	1270.161	1043.737
-24.809	27.465	1268.711	1042.354
-23.794	27.449	1267.565	1041.282
-22.779	27.538	1265.868	1040.356
-21.765	27.544	1264.713	1039.396
-20.750	27.344	1263.961	1037.601
-19.736	27.324	1262.815	1036.502
-18.721	27.283	1261.875	1035.459
-17.706	27.424	1260.110	1034.771
-16.692	27.342	1258.993	1033.345
-15.677	27.402	1258.031	1032.855
-14.663	27.334	1256.639	1031.283
-13.648	27.293	1256.016	1030.498
-12.633	27.307	1254.681	1029.441
-11.619	27.291	1253.703	1028.508
-10.604	27.313	1253.505	1028.430
-9.590	27.290	1252.077	1027.087
-8.575	27.370	1250.815	1026.463
-7.560	27.274	1250.146	1025.334
-6.546	27.319	1249.357	1024.900
-5.531	27.309	1248.528	1024.120
-4.517	27.355	1247.464	1023.468
-3.502	27.352	1246.652	1022.742
-2.487	27.283	1246.185	1021.932
-1.473	27.290	1241.965	1018.471
-0.458	25.752	1226.820	997.499
0.556	20.767	1210.505	960.537
1.571	17.128	1216.062	944.654
2.586	16.380	1230.970	951.942
3.600	16.440	1220.427	944.037
4.615	14.832	1153.880	883.985
5.629	11.647	1087.130	816.879
6.644	9.817	1070.821	795.539
7.659	9.680	1068.867	793.342
8.673	9.661	1067.764	792.359
9.688	9.672	1065.881	790.947
10.702	9.908	1064.080	790.694
11.717	11.910	1065.735	801.667
12.731	15.272	1070.405	821.610
13.746	17.328	1072.876	833.522
14.761	17.520	1072.705	834.258
15.775	16.510	1070.270	827.349
16.790	15.593	1068.036	821.069
17.804	14.720	1066.779	815.770
18.819	14.357	1065.938	813.281
19.834	14.199	1064.849	811.608
20.848	13.970	1063.997	809.771
21.863	13.712	1062.730	807.477
22.877	13.508	1062.242	806.044
23.892	13.430	1061.512	805.039
24.907	13.464	1060.804	804.597
25.921	13.626	1059.404	804.250
26.936	13.485	1058.762	803.006
27.950	13.546	1057.144	802.003
28.965	13.525	1055.916	800.899
29.980	13.722	1053.676	800.082
30.994	13.612	1053.174	799.100
32.009	13.745	1051.784	798.611
33.023	13.850	1050.554	798.112
34.038	13.716	1049.335	796.474
35.053	13.617	1049.266	795.877
36.067	13.619	1048.076	794.910
37.082	13.543	1047.319	793.901
38.096	13.797	1046.058	794.093
39.111	13.624	1045.612	792.857
40.126	13.618	1044.235	791.712
41.140	13.466	1042.974	789.960
42.155	13.378	1042.004	788.738
43.169	13.413	1041.163	788.196
44.184	13.325	1039.512	786.462
45.199	13.428	1038.737	786.296
46.213	13.458	1037.760	785.629
47.228	13.587	1036.699	785.366
48.242	13.637	1035.528	784.645
49.257	13.431	1034.725	782.993
50.271	13.607	1033.573	782.884
51.286	13.628	1033.075	782.538
52.301	13.621	1031.844	781.503
53.315	13.588	1030.984	780.625
54.330	13.428	1029.956	779.028
55.344	13.414	1028.996	778.164
56.359	13.606	1027.713	778.028
57.374	13.493	1027.538	777.294
58.388	13.419	1026.272	775.923
59.403	13.293	1025.633	774.778
60.417	13.354	1025.052	774.561
61.432	13.456	1023.842	774.051
62.447	13.243	1023.142	772.461
63.461	13.348	1021.946	771.976
64.476	13.383	1021.374	771.642
65.490	13.379	1020.441	770.851
66.505	13.462	1019.523	770.475
67.520	13.360	1019.322	769.778
68.534	13.423	1018.574	769.441
69.549	13.421	1017.806	768.783
70.563	13.419	1016.689	767.862
71.578	13.349	1015.955	766.915
72.593	13.507	1014.833	766.730
73.607	13.244	1014.833	765.447
74.622	13.373	1013.856	765.236
75.636	13.407	1013.157	764.799
76.651	13.389	1012.422	764.092
77.666	13.329	1011.464	763.028
78.680	13.250	1011.231	762.417
79.695	13.412	1010.268	762.374
80.709	13.442	1009.641	761.969
81.724	13.460	1009.429	761.822
82.739	13.397	1008.978	761.125
83.753	13.539	1007.812	760.830
84.768	13.639	1007.094	760.682
85.782	13.756	1005.676	760.081
86.797	13.752	1004.801	759.332
87.812	13.539	1004.395	757.983
88.826	13.603	1003.093	757.227
89.841	13.694	1002.248	756.937
90.855	13.711	1001.668	756.511
91.870	13.852	1000.553	756.245
92.884	13.768	999.719	755.162
93.899	13.742	999.019	754.450
94.914	13.743	998.025	753.639
95.928	13.646	997.543	752.764
96.943	13.776	996.290	752.345
97.957	13.750	995.794	751.783
98.972	13.779	994.489	750.862
99.987	13.645	993.971	749.802
101.001	13.738	992.787	749.259
102.016	13.706	992.108	748.539
103.030	13.836	990.940	748.178
104.045	13.847	990.534	747.852
105.060	13.807	989.370	746.728
106.074	13.536	988.997	745.160
107.089	13.448	987.885	743.864
108.103	13.409	986.736	742.758
109.118	13.508	985.683	742.342
110.133	13.518	984.694	741.576
111.147	13.536	983.841	740.949
112.162	13.673	982.845	740.746
113.176	13.653	982.328	740.199
114.191	13.607	981.698	739.454
115.206	13.638	980.901	738.928
116.220	13.529	980.466	738.047
117.235	13.558	979.053	737.049
118.249	13.615	977.704	736.221
119.264	13.435	977.891	735.497
120.279	13.466	976.870	734.800
121.293	13.523	976.108	734.418
122.308	13.488	975.084	733.427
123.322	13.466	973.739	732.254
124.337	13.518	972.639	731.588
125.352	13.441	971.730	730.503
126.366	13.487	971.008	730.096
127.381	13.578	969.441	729.256
128.395	13.639	968.917	729.066
129.410	13.551	968.319	728.165
130.424	13.571	967.328	727.442
131.439	13.577	966.409	726.713
132.454	13.628	966.049	726.602
133.468	13.634	964.937	725.725
134.483	13.451	964.419	724.471
135.497	13.679	962.877	724.245
136.512	13.592	962.415	723.454
137.527	13.588	961.379	722.593
138.541	13.719	960.476	722.421
139.556	13.725	960.324	722.268
140.570	13.784	959.482	721.830
141.585	13.825	958.245	721.012
142.600	13.650	957.985	719.992
143.614	13.905	956.992	720.289
144.629	13.979	956.345	720.058
145.643	13.772	955.501	718.463
146.658	13.740	954.286	717.349
147.673	13.658	953.475	716.323
148.687	13.599	952.562	715.318
149.702	13.656	951.565	714.751
150.716	13.667	951.056	714.355
151.731	13.751	949.944	713.814
152.746	13.728	949.422	713.261
153.760	13.823	948.627	713.009
154.775	13.828	948.450	712.837
155.789	13.934	947.905	712.815
156.804	13.816	947.321	711.809
157.819	13.951	946.196	711.481
158.833	13.994	945.322	710.942
159.848	13.942	945.250	710.601
160.862	13.887	944.060	709.410
161.877	13.902	942.788	708.455
162.892	13.868	941.809	707.511
163.906	13.869	940.953	706.812
164.921	13.771	940.444	705.950
165.935	13.821	939.801	705.618
166.950	13.917	938.584	705.047
167.964	13.891	938.028	704.459
168.979	13.907	936.575	703.371
169.994	14.005	935.618	703.006
171.008	13.906	935.302	702.290
172.023	14.232	934.500	702.999
173.037	14.071	933.990	701.877
174.052	14.107	933.188	701.360
175.067	13.967	932.352	700.083
176.081	13.895	932.169	699.580
177.096	13.956	931.415	699.206
178.110	13.939	931.274	698.969
179.125	14.039	930.465	698.719
180.140	13.987	930.133	698.189
181.154	14.053	929.399	697.856
182.169	13.979	928.956	697.150
183.183	14.201	928.359	697.573
184.198	14.162	927.464	696.675
185.213	14.127	926.853	696.006
186.227	14.206	925.835	695.509
187.242	14.202	925.507	695.184
188.256	14.336	925.318	695.540
189.271	14.221	924.280	694.222
190.286	14.045	923.567	692.892
191.300	13.938	922.559	691.629
192.315	13.898	922.017	690.992
193.329	13.832	921.614	690.357
194.344	13.990	920.775	690.322
195.359	14.063	920.316	690.222
196.373	14.143	919.928	690.201
197.388	14.250	919.719	690.426
198.402	14.294	919.035	690.033
199.417	14.393	918.435	689.932
200.432	14.541	917.183	689.544
201.446	14.556	917.114	689.490
202.461	14.500	916.562	688.786
203.475	14.465	915.869	688.058
204.490	14.534	914.717	687.417
205.504	14.396	914.778	686.834
206.519	14.516	912.987	685.920
207.534	14.596	912.701	685.976
208.548	14.484	912.373	685.205
209.563	14.359	911.729	684.147
210.577	14.445	910.786	683.733
211.592	14.660	910.013	683.972
212.607	14.602	909.751	683.479
213.621	14.560	908.905	682.613
214.636	14.678	907.971	682.331
215.650	14.481	907.806	681.341
216.665	14.526	907.022	680.876
217.680	14.615	906.087	680.476
218.694	14.769	905.312	680.464
219.709	14.704	904.494	679.523
220.723	14.622	904.105	678.840
221.738	14.716	903.585	678.769
222.753	14.685	903.078	678.201
223.767	14.669	902.564	677.691
224.782	14.806	901.983	677.750
225.796	14.871	901.228	677.386
226.811	14.792	900.397	676.385
227.826	14.775	899.575	675.637
228.840	14.878	898.651	675.300
229.855	14.563	898.184	673.617
230.869	14.748	897.300	673.639
231.884	14.670	897.324	673.285
232.899	14.796	895.899	672.664
233.913	14.696	895.304	671.754
234.928	14.556	894.756	670.718
235.942	14.630	894.062	670.440
236.957	14.613	893.892	670.182
237.972	14.706	893.154	669.946
238.986	14.719	892.311	669.306
240.001	14.766	891.851	669.088
241.015	14.845	891.025	668.724
242.030	14.891	890.023	668.100
243.045	14.866	889.824	667.788
244.059	14.855	889.408	667.374
245.074	15.026	888.476	667.296
246.088	14.825	887.893	665.999
247.103	15.019	887.687	666.558
248.117	15.128	886.584	666.104
249.132	15.092	886.435	665.792
250.147	15.283	885.503	665.790
251.161	15.163	885.441	665.208
252.176	15.338	884.196	664.910
253.190	15.363	883.530	664.448
254.205	15.468	883.082	664.468
255.220	15.240	882.442	663.028
256.234	15.354	881.957	663.052
257.249	15.411	880.793	662.345
258.263	15.252	880.361	661.335
259.278	15.275	879.879	661.005
260.293	15.461	879.250	661.205
261.307	15.476	878.514	660.652
262.322	15.475	877.936	660.156
263.336	15.566	876.891	659.668
264.351	15.522	876.404	659.071
265.366	15.615	876.054	659.114
266.380	15.567	875.391	658.372
267.395	15.668	874.496	658.035
268.409	15.497	874.013	656.943
269.424	15.447	873.052	655.967
270.439	15.558	872.147	655.664
271.453	15.432	872.087	655.068
272.468	15.452	871.515	654.659
273.482	15.536	870.533	654.189
274.497	15.498	870.203	653.736
275.512	15.515	870.083	653.653
276.526	15.568	869.472	653.344
277.541	15.573	868.803	652.801
278.555	15.582	868.176	652.310
279.570	15.756	867.330	652.291
280.585	15.672	866.809	651.514
281.599	15.601	865.983	650.561
282.614	15.646	865.267	650.141
283.628	15.708	864.408	649.678
284.643	15.696	864.149	649.378
285.657	15.735	863.255	648.799
286.672	15.773	862.938	648.652
287.687	15.835	862.347	648.386
288.701	15.793	861.871	647.809
289.716	15.874	861.398	647.708
290.730	15.704	860.861	646.593
291.745	15.817	860.016	646.336
292.760	15.921	859.254	646.107
293.774	15.899	858.865	645.673
294.789	15.918	858.327	645.284
295.803	15.809	857.493	644.183
296.818	15.788	857.054	643.715
297.833	15.937	856.011	643.443
298.847	15.838	855.918	642.940
299.862	15.817	855.260	642.309
300.876	15.886	854.937	642.272
301.891	15.988	854.248	642.085
302.906	16.061	853.422	641.685
303.920	16.144	852.863	641.522
304.935	16.213	852.435	641.408
305.949	16.066	852.037	640.493
306.964	16.079	851.280	639.915
307.979	16.092	850.635	639.425
308.993	16.192	850.131	639.368
310.008	16.382	849.505	639.561
311.022	16.138	848.801	638.050
312.037	16.033	848.437	637.323
313.052	16.260	847.235	637.221
314.066	16.110	847.136	636.525
315.081	15.918	846.631	635.365
316.095	16.066	846.032	635.415
317.110	16.056	845.567	634.974
318.125	16.181	844.941	634.918
319.139	16.113	844.586	634.339
320.154	16.019	844.314	633.726
321.168	16.088	843.440	633.270
322.183	16.225	842.942	633.357
323.197	16.221	842.338	632.830
324.212	16.255	841.719	632.436
325.227	16.155	841.442	631.799
326.241	16.117	840.906	631.196
327.256	16.149	840.090	630.650
328.270	16.230	839.727	630.625
329.285	16.269	839.079	630.226
330.300	16.258	838.681	629.830
331.314	16.149	838.249	629.044
332.329	16.296	837.701	629.126
333.343	16.317	837.174	628.751
334.358	16.372	837.029	628.791
335.373	16.324	836.384	628.073
336.387	16.417	836.060	628.121
337.402	16.481	835.732	628.056
338.416	16.577	835.180	627.944
339.431	16.606	834.808	627.713
340.446	16.495	834.584	627.080
341.460	16.714	833.631	627.119
342.475	16.678	833.633	626.932
343.489	16.678	833.115	626.488
344.504	16.682	832.716	626.146
345.519	16.783	832.213	626.087
346.533	16.697	832.072	625.607
347.548	16.624	831.202	624.629
348.562	16.505	830.398	623.528
349.577	16.561	830.134	623.484
350.592	16.756	829.464	623.642
351.606	16.566	828.917	622.474
352.621	16.556	828.078	621.753
353.635	16.576	827.458	621.309
354.650	16.604	827.196	621.158
355.665	16.762	826.369	621.062
356.679	16.725	825.450	620.182
357.694	16.695	825.123	619.769
358.708	16.719	824.719	619.501
359.723	16.767	823.875	618.985
360.738	16.910	823.095	618.867
361.752	16.834	822.775	618.295
362.767	17.011	821.767	618.129
363.781	16.962	821.948	618.031
364.796	17.052	821.356	617.859
365.810	17.099	820.908	617.639
366.825	16.982	820.307	616.704
367.840	16.977	820.356	616.671
368.854	16.973	819.908	616.263
369.869	17.052	818.853	615.701
370.883	16.941	819.024	615.374
371.898	16.978	818.560	615.105
372.913	17.069	818.096	615.031
373.927	17.042	817.496	614.428
374.942	17.153	816.915	614.340
375.956	17.342	816.309	614.514
376.971	17.163	816.074	613.635
377.986	17.379	815.578	613.988
379.000	17.436	815.010	613.710
380.015	17.296	814.711	612.925
381.029	17.175	814.327	612.147
382.044	17.405	813.461	612.270
383.059	17.299	812.684	611.250
384.073	17.261	812.116	610.630
385.088	17.408	811.639	610.746
386.102	17.268	811.507	610.092
387.117	17.204	810.705	609.205
388.132	17.231	810.083	608.781
389.146	17.239	809.919	608.633
390.161	17.427	808.912	608.494
391.175	17.362	808.541	607.929
392.190	17.425	808.128	607.787
393.205	17.364	807.878	607.327
394.219	17.270	807.357	606.547
395.234	17.228	806.888	605.993
396.248	17.177	806.674	605.597
397.263	17.152	806.101	605.023
398.278	17.354	805.547	605.274
399.292	17.348	805.221	604.955
400.307	17.310	804.672	604.353
401.321	17.389	804.199	604.224
402.336	17.263	804.155	603.690
403.350	17.408	803.661	603.781
404.365	17.501	803.040	603.591
405.380	17.522	802.672	603.335
406.394	17.590	801.776	602.849
407.409	17.671	801.526	602.894
408.423	17.689	801.304	602.735
409.438	17.595	801.014	602.134
410.453	17.708	800.697	602.240
411.467	17.592	800.254	601.445
412.482	17.852	799.569	601.795
413.496	17.783	799.356	601.335
414.511	17.729	799.138	600.930
415.526	17.816	798.573	600.758
416.540	17.837	797.813	600.208
417.555	17.658	797.517	599.301
418.569	17.862	796.891	599.495
419.584	17.803	796.650	599.052
420.599	17.938	796.218	599.150
421.613	112.139	1294.318	1477.459
422.628	96.530	1366.857	1477.552
