DTS Sentinel unit serial number:	SN413079Multiplexer serial number:	ORYXHardware model number:	OX4-SRSoftware version number:	ORYX F/W v4.00 Oryx Data Collector v3.7.2.0data status	okinstallation	princeton_trtdifferential loss correction	single-endedforward channel	channel 1reverse channel	N/Adate	2019/09/10time	21:16:11forward acquisition time	60.00reverse acquisition time	0.00gamma	496.2192k internal	0.2329k external	0.2329temperature offset calibration	0.9936default loss term (dB/km)	0.3790temperature slope calibration	1.0000multiplexer offset coefficient	1.0000multiplexer slope coefficient	1.0000fibre end	0.00T internal ref (°C)	31.37T ext. ref 1 (°C)	-0.31T ext. ref 2 (°C)	24.48length (m)	temperature (°C)	Stokes	anti-Stokes-747.200	-200.000	-0.031	-0.143
-746.185	275.342	-0.137	0.245
-745.171	-200.000	0.008	0.360
-744.156	-165.152	-0.300	-0.013
-743.142	-0.494	0.222	-0.159
-742.127	-200.000	0.010	-0.069
-741.112	54.796	-0.112	0.108
-740.098	-200.000	0.057	0.256
-739.083	-200.000	0.004	-0.225
-738.069	-170.301	0.092	0.003
-737.054	157.011	0.118	-0.164
-736.039	-17.524	-0.205	-0.130
-735.025	-69.924	0.082	-0.032
-734.010	-105.989	-0.355	0.081
-732.996	-200.000	0.052	-0.252
-731.981	0.922	-0.181	-0.131
-730.966	-4.645	-0.028	-0.020
-729.952	-125.331	-0.191	0.029
-728.937	-125.558	-0.225	-0.034
-727.923	-36.066	-0.081	0.044
-726.908	-200.000	-0.025	0.218
-725.894	207.011	0.132	-0.207
-724.879	202.456	0.018	0.029
-723.864	715.992	-0.024	-0.063
-722.850	278.606	-0.097	-0.174
-721.835	-117.801	0.220	-0.040
-720.821	-200.000	-0.048	-0.219
-719.806	-61.401	-0.210	0.089
-718.791	-200.000	-0.024	-0.255
-717.777	257.842	-0.034	-0.060
-716.762	37.896	-0.106	0.094
-715.748	800.000	0.095	0.420
-714.733	-200.000	0.012	-0.146
-713.718	-158.136	-0.318	-0.019
-712.704	-104.356	-0.339	-0.079
-711.689	-200.000	0.049	-0.360
-710.675	-18.220	-0.169	-0.107
-709.660	277.788	0.005	0.008
-708.645	256.629	0.055	0.094
-707.631	-48.010	-0.125	-0.061
-706.616	800.000	-0.088	0.291
-705.602	-200.000	0.041	-0.249
-704.587	-200.000	-0.053	-0.286
-703.572	-200.000	-0.036	-0.225
-702.558	20.918	-0.333	-0.271
-701.543	62.816	-0.172	-0.173
-700.529	30.189	0.145	0.124
-699.514	172.088	0.200	0.289
-698.499	63.884	0.272	-0.275
-697.485	-36.861	-0.262	0.141
-696.470	-105.273	-0.448	0.103
-695.456	-200.000	-0.019	0.193
-694.441	59.292	0.056	-0.055
-693.426	-11.042	-0.061	-0.041
-692.412	-70.115	-0.157	0.060
-691.397	-200.000	-0.062	-0.306
-690.383	-76.989	-0.236	-0.083
-689.368	-20.357	0.172	-0.106
-688.354	800.000	-0.096	0.349
-687.339	11.730	0.117	0.090
-686.324	-54.604	0.229	0.104
-685.310	576.933	-0.061	0.149
-684.295	-124.480	0.378	-0.059
-683.281	-200.000	-0.076	-0.414
-682.266	800.000	-0.076	-0.257
-681.251	-200.000	-0.011	0.053
-680.237	207.122	-0.079	-0.124
-679.222	800.000	0.157	-0.469
-678.208	74.850	0.156	0.165
-677.193	800.000	-0.007	-0.025
-676.178	-127.885	-0.125	0.018
-675.164	-200.000	0.063	0.360
-674.149	44.254	0.212	-0.195
-673.135	-200.000	0.013	-0.127
-672.120	-96.328	0.270	0.072
-671.105	-63.730	-0.277	-0.114
-670.091	3.677	0.287	-0.211
-669.076	-169.907	-0.367	0.013
-668.062	-40.694	-0.097	-0.050
-667.047	-53.342	0.233	-0.107
-666.032	17.101	0.139	0.111
-665.018	176.141	0.091	-0.132
-664.003	-58.869	0.348	0.151
-662.989	117.270	-0.147	-0.182
-661.974	-187.620	0.243	0.003
-660.959	293.305	-0.244	0.447
-659.945	265.004	-0.167	-0.292
-658.930	-200.000	-0.004	-0.289
-657.916	524.502	-0.113	-0.268
-656.901	100.059	-0.228	-0.265
-655.886	-200.000	-0.017	-0.180
-654.872	800.000	-0.048	-0.162
-653.857	100.380	-0.138	0.160
-652.843	180.091	-0.224	0.330
-651.828	-116.712	0.289	0.053
-650.814	18.215	-0.156	0.125
-649.799	800.000	-0.028	0.087
-648.784	-46.291	-0.336	-0.166
-647.770	-157.155	-0.426	0.026
-646.755	-148.642	0.071	0.006
-645.741	-200.000	0.030	-0.176
-644.726	-71.916	-0.112	0.042
-643.711	90.107	-0.193	-0.216
-642.697	211.991	-0.193	0.305
-641.682	640.676	-0.010	-0.024
-640.668	-99.489	-0.110	-0.028
-639.653	67.778	0.257	0.263
-638.638	-200.000	-0.005	0.026
-637.624	800.000	-0.079	-0.257
-636.609	-136.178	-0.162	0.019
-635.595	176.454	0.107	-0.156
-634.580	-41.902	-0.371	-0.191
-633.565	382.314	-0.069	-0.143
-632.551	66.804	0.288	0.294
-631.536	-200.000	0.021	-0.653
-630.522	-104.897	0.106	0.025
-629.507	184.114	0.125	-0.185
-628.492	-51.253	-0.334	0.157
-627.478	-91.487	-0.193	-0.055
-626.463	-50.409	-0.355	0.168
-625.449	-200.000	-0.023	-0.247
-624.434	60.934	0.133	0.132
-623.419	-169.717	0.325	-0.012
-622.405	18.048	0.263	-0.210
-621.390	-200.000	-0.029	0.306
-620.376	168.169	0.193	-0.275
-619.361	440.339	0.073	-0.161
-618.346	49.549	-0.151	0.142
-617.332	800.000	0.081	-0.284
-616.317	-200.000	-0.017	-0.149
-615.303	206.430	-0.061	0.095
-614.288	157.659	-0.034	-0.047
-613.273	70.764	0.192	-0.200
-612.259	217.210	-0.237	0.379
-611.244	-118.419	0.197	-0.035
-610.230	118.753	-0.205	-0.254
-609.215	800.000	-0.037	-0.120
-608.201	-200.000	0.042	-0.209
-607.186	-32.832	0.227	-0.126
-606.171	-97.193	-0.070	-0.018
-605.157	20.290	0.070	0.057
-604.142	383.746	0.054	-0.111
-603.128	-8.122	-0.212	-0.143
-602.113	-63.696	0.275	0.113
-601.098	-100.667	-0.074	-0.018
-600.084	580.484	0.105	0.257
-599.069	-200.000	0.002	-0.281
-598.055	15.507	0.253	0.199
-597.040	179.654	0.130	0.191
-596.025	148.114	0.232	0.313
-595.011	130.012	0.027	0.034
-593.996	-172.060	-0.202	0.007
-592.982	260.200	-0.125	-0.216
-591.967	764.051	-0.076	0.208
-590.952	541.639	-0.077	0.184
-589.938	169.870	-0.096	-0.138
-588.923	-65.888	0.163	-0.065
-587.909	-123.509	-0.154	0.025
-586.894	793.240	0.085	0.234
-585.879	-200.000	0.002	0.222
-584.865	-109.816	0.156	-0.033
-583.850	-151.252	0.483	-0.036
-582.836	-200.000	-0.069	0.311
-581.821	-166.090	-0.248	-0.011
-580.806	-121.219	-0.168	0.028
-579.792	800.000	-0.068	-0.202
-578.777	104.893	-0.068	0.081
-577.763	223.690	-0.138	0.223
-576.748	-200.000	-0.075	0.359
-575.733	76.019	0.079	0.084
-574.719	-116.514	-0.281	0.052
-573.704	-75.713	-0.207	-0.074
-572.690	217.085	-0.158	-0.252
-571.675	1.258	0.183	0.131
-570.661	-200.000	-0.054	0.260
-569.646	160.983	-0.115	0.161
-568.631	-46.444	-0.304	0.149
-567.617	-137.345	0.272	0.031
-566.602	-200.000	0.016	-0.246
-565.588	-36.990	-0.295	-0.158
-564.573	-37.480	-0.169	0.090
-563.558	-100.419	0.248	0.062
-562.544	32.682	-0.101	0.088
-561.529	137.153	0.107	-0.140
-560.515	281.001	0.107	-0.192
-559.500	-88.831	-0.165	-0.049
-558.485	-157.313	-0.034	0.002
-557.471	59.690	-0.331	-0.327
-556.456	-7.664	0.135	-0.091
-555.442	-104.632	0.127	-0.029
-554.427	660.126	0.059	0.153
-553.412	176.884	-0.061	0.089
-552.398	-102.240	0.209	0.050
-551.383	-77.398	0.183	0.063
-550.369	-96.079	-0.184	0.049
-549.354	-35.943	0.329	0.178
-548.339	653.514	-0.094	0.242
-547.325	800.000	0.087	0.297
-546.310	69.086	0.279	-0.287
-545.296	75.682	0.062	-0.065
-544.281	396.420	-0.147	0.307
-543.266	0.130	0.155	-0.111
-542.252	-200.000	-0.018	0.199
-541.237	756.593	0.066	-0.178
-540.223	-107.755	0.409	-0.089
-539.208	-63.055	0.256	0.105
-538.193	163.736	0.071	-0.099
-537.179	485.154	0.067	0.153
-536.164	17.117	-0.173	-0.137
-535.150	322.519	0.048	-0.092
-534.135	-200.000	0.053	-0.281
-533.121	33.222	0.202	-0.175
-532.106	800.000	0.083	0.265
-531.091	602.367	-0.092	0.227
-530.077	364.214	0.086	-0.172
-529.062	-25.762	-0.366	-0.216
-528.048	-108.876	-0.201	-0.043
-527.033	-48.418	-0.332	-0.160
-526.018	-200.000	-0.011	-0.248
-525.004	-29.966	0.075	-0.043
-523.989	800.000	-0.014	0.052
-522.975	195.650	0.113	0.172
-521.960	82.229	-0.222	0.240
-520.945	199.135	-0.108	-0.166
-519.931	-136.225	-0.082	-0.010
-518.916	-92.479	0.230	-0.064
-517.902	800.000	-0.033	0.124
-516.887	548.064	0.120	-0.288
-515.872	800.000	-0.073	-0.293
-514.858	-122.160	0.106	-0.017
-513.843	-137.138	0.160	-0.018
-512.829	-200.000	-0.034	0.150
-511.814	33.370	0.247	0.214
-510.799	-18.851	-0.067	0.042
-509.785	45.081	0.100	0.092
-508.770	525.129	0.133	-0.313
-507.756	365.962	-0.062	0.125
-506.741	187.169	-0.124	-0.185
-505.726	-200.000	-0.081	0.354
-504.712	-200.000	0.007	-0.301
-503.697	-200.000	0.011	0.246
-502.683	-118.623	0.152	-0.027
-501.668	327.771	-0.056	0.107
-500.653	-200.000	0.065	-0.294
-499.639	-200.000	0.026	-0.129
-498.624	98.763	-0.217	0.250
-497.610	171.162	-0.176	0.252
-496.595	559.411	0.137	-0.331
-495.581	-122.364	-0.245	0.040
-494.566	-200.000	0.036	-0.374
-493.551	60.749	0.136	0.134
-492.537	179.962	0.212	0.310
-491.522	95.353	-0.091	-0.103
-490.508	119.030	-0.123	-0.152
-489.493	384.453	-0.073	0.150
-488.478	-200.000	-0.030	0.166
-487.464	800.000	0.029	0.117
-486.449	339.612	-0.033	0.064
-485.435	84.529	-0.080	0.087
-484.420	-200.000	0.010	-0.133
-483.405	-200.000	0.003	0.018
-482.391	14.565	-0.075	0.058
-481.376	-68.679	0.314	0.121
-480.362	-200.000	0.031	0.167
-479.347	-200.000	-0.019	-0.401
-478.332	800.000	-0.044	-0.151
-477.318	-200.000	-0.047	-0.374
-476.303	800.000	0.122	-0.448
-475.289	149.760	0.150	0.203
-474.274	-200.000	-0.030	-0.150
-473.259	-5.996	-0.137	-0.093
-472.245	-160.209	0.162	0.009
-471.230	15.761	0.272	0.213
-470.216	-32.568	-0.140	-0.078
-469.201	96.871	0.103	-0.117
-468.186	-200.000	0.063	0.291
-467.172	-200.000	-0.002	-0.067
-466.157	326.156	-0.198	-0.377
-465.143	-200.000	-0.054	-0.269
-464.128	-82.429	0.142	0.046
-463.113	-200.000	-0.032	0.247
-462.099	89.978	-0.269	0.300
-461.084	-118.303	-0.131	0.023
-460.070	-200.000	0.016	-0.312
-459.055	-200.000	-0.061	0.404
-458.040	222.674	-0.172	-0.276
-457.026	-200.000	-0.035	-0.236
-456.011	542.547	-0.033	-0.079
-454.997	-44.918	0.184	0.091
-453.982	614.856	0.078	-0.193
-452.968	-25.534	-0.313	0.184
-451.953	-93.463	0.114	0.031
-450.938	-200.000	-0.024	-0.174
-449.924	-80.426	0.188	0.063
-448.909	-132.367	0.429	-0.055
-447.895	-200.000	0.083	0.438
-446.880	80.290	0.178	0.191
-445.865	-100.697	-0.271	-0.067
-444.851	-200.000	-0.022	0.191
-443.836	800.000	-0.156	-0.478
-442.822	-100.537	0.152	-0.037
-441.807	561.956	0.183	0.440
-440.792	800.000	-0.006	0.021
-439.778	337.101	-0.057	0.110
-438.763	-200.000	-0.019	0.354
-437.749	-200.000	-0.009	0.172
-436.734	-95.923	-0.135	-0.036
-435.719	100.367	0.085	-0.098
-434.705	266.328	-0.085	0.147
-433.690	245.307	0.213	-0.357
-432.676	79.805	0.187	0.200
-431.661	-92.509	-0.167	0.047
-430.646	-57.487	-0.221	0.097
-429.632	-200.000	0.018	0.090
-428.617	-200.000	-0.177	0.001
-427.603	162.876	-0.127	-0.177
-426.588	10.284	0.179	-0.136
-425.573	800.000	0.059	0.232
-424.559	800.000	0.026	-0.083
-423.544	-200.000	0.033	-0.172
-422.530	-200.000	0.014	0.097
-421.515	-8.750	-0.180	0.120
-420.500	148.411	0.254	-0.341
-419.486	390.021	0.046	0.096
-418.471	-200.000	-0.004	0.077
-417.457	-89.059	-0.357	0.105
-416.442	800.000	0.076	0.311
-415.428	-89.987	0.361	-0.105
-414.413	-94.464	-0.249	-0.067
-413.398	-119.700	0.113	0.019
-412.384	-113.671	0.309	0.060
-411.369	124.803	0.167	-0.208
-410.355	31.359	-0.067	0.057
-409.340	301.597	0.117	0.215
-408.325	-65.945	0.152	0.060
-407.311	168.773	-0.193	-0.273
-406.296	301.999	0.037	0.068
-405.282	-200.000	0.022	-0.150
-404.267	421.063	0.021	-0.044
-403.252	-200.000	0.007	-0.030
-402.238	-18.735	-0.358	0.222
-401.223	4.997	0.090	-0.066
-400.209	-28.355	-0.186	0.107
-399.194	-72.348	0.326	-0.120
-398.179	-3.719	0.258	-0.178
-397.165	51.729	0.113	0.107
-396.150	167.159	-0.067	-0.095
-395.136	-200.000	0.014	0.134
-394.121	96.765	-0.151	0.172
-393.106	99.995	-0.146	-0.168
-392.092	-164.938	0.175	-0.008
-391.077	-22.950	-0.336	0.201
-390.063	-130.685	0.155	-0.021
-389.048	-62.101	-0.243	-0.101
-388.033	-73.664	0.530	-0.192
-387.019	-137.987	-0.248	-0.027
-386.004	120.949	-0.080	-0.099
-384.990	-123.542	0.164	-0.026
-383.975	19.929	-0.142	0.113
-382.960	-160.211	0.058	0.003
-381.946	65.499	-0.127	-0.127
-380.931	-200.000	-0.022	0.143
-379.917	0.056	-0.068	0.048
-378.902	18.996	0.073	-0.058
-377.888	-146.818	0.272	0.023
-376.873	383.536	-0.026	0.053
-375.858	-200.000	0.041	-0.228
-374.844	-24.602	-0.218	0.129
-373.829	241.087	0.179	-0.296
-372.815	-32.530	-0.156	0.086
-371.800	-101.811	0.218	0.052
-370.785	185.438	0.154	-0.227
-369.771	-33.151	0.201	-0.111
-368.756	800.000	0.062	0.187
-367.742	-200.000	-0.042	-0.246
-366.727	-200.000	-0.042	0.250
-365.712	437.572	-0.174	0.376
-364.698	-200.000	0.012	0.076
-363.683	-15.871	-0.269	-0.170
-362.669	-32.725	0.482	0.266
-361.654	-192.515	0.285	0.003
-360.639	-34.270	0.052	0.028
-359.625	-200.000	0.015	0.235
-358.610	223.312	0.082	-0.130
-357.596	-136.696	-0.139	-0.016
-356.581	-182.703	0.346	0.006
-355.566	-94.749	0.044	0.012
-354.552	3.496	-0.219	0.159
-353.537	9.850	0.066	0.049
-352.523	-154.740	0.124	-0.008
-351.508	197.434	-0.201	0.304
-350.493	800.000	0.054	-0.150
-349.479	-24.026	-0.089	-0.053
-348.464	134.136	0.098	0.125
-347.450	682.506	0.081	-0.208
-346.435	-200.000	-0.002	-0.211
-345.420	-3.572	-0.241	0.166
-344.406	-200.000	0.036	0.432
-343.391	-200.000	-0.005	-0.166
-342.377	145.343	-0.088	0.117
-341.362	-78.506	0.170	-0.058
-340.348	273.932	-0.079	-0.139
-339.333	-200.000	0.004	-0.034
-338.318	-142.383	0.105	-0.010
-337.304	-7.045	-0.311	0.209
-336.289	146.055	-0.273	-0.363
-335.275	800.000	0.093	-0.294
-334.260	-32.463	0.108	0.059
-333.245	-134.089	0.262	-0.032
-332.231	-94.444	0.209	0.056
-331.216	800.000	0.187	-0.577
-330.202	3.074	0.072	-0.052
-329.187	-100.098	-0.160	-0.040
-328.172	-139.565	0.159	0.017
-327.158	72.087	-0.253	-0.260
-326.143	6.720	-0.182	-0.134
-325.129	-136.633	-0.112	0.013
-324.114	274.035	-0.102	-0.178
-323.099	-133.436	0.156	0.019
-322.085	-200.000	0.037	0.207
-321.070	800.000	-0.036	0.153
-320.056	-57.191	-0.048	0.021
-319.041	-148.673	-0.281	-0.023
-318.026	781.107	0.076	-0.207
-317.012	-200.000	-0.035	0.236
-315.997	-148.008	-0.163	-0.013
-314.983	-50.854	-0.301	-0.140
-313.968	-200.000	-0.006	0.040
-312.953	24.415	-0.216	-0.177
-311.939	-23.872	0.300	-0.178
-310.924	11.355	-0.187	-0.142
-309.910	226.344	-0.202	-0.324
-308.895	-86.604	-0.139	0.042
-307.880	432.357	-0.049	0.105
-306.866	460.989	-0.124	-0.273
-305.851	-57.164	0.172	0.075
-304.837	-140.739	-0.374	-0.038
-303.822	-119.945	0.218	0.037
-302.807	800.000	-0.104	0.290
-301.793	-200.000	-0.033	-0.243
-300.778	307.645	-0.019	-0.035
-299.764	-40.722	0.100	-0.051
-298.749	71.929	0.117	-0.120
-297.735	85.292	0.228	0.247
-296.720	800.000	0.119	0.373
-295.705	40.803	-0.271	-0.242
-294.691	-4.042	0.090	0.062
-293.676	152.485	-0.168	0.227
-292.662	70.728	-0.119	-0.122
-291.647	-42.427	0.257	0.130
-290.632	167.476	-0.229	0.322
-289.618	800.000	0.091	0.254
-288.603	101.969	0.169	0.195
-287.589	-200.000	0.000	0.050
-286.574	228.513	-0.022	0.036
-285.559	501.913	-0.112	-0.256
-284.545	571.636	-0.091	-0.218
-283.530	-200.000	-0.056	0.271
-282.516	-36.866	0.190	-0.101
-281.501	81.440	-0.113	0.121
-280.486	-150.065	-0.180	-0.014
-279.472	800.000	-0.059	-0.201
-278.457	96.870	0.303	-0.344
-277.443	92.436	-0.056	0.063
-276.428	105.761	-0.027	-0.031
-275.413	-63.128	-0.226	-0.092
-274.399	800.000	0.055	-0.218
-273.384	-46.699	-0.138	0.067
-272.370	108.580	0.242	0.286
-271.355	-50.942	-0.155	0.072
-270.340	176.578	0.016	-0.023
-269.326	-200.000	0.012	-0.152
-268.311	234.427	0.082	0.133
-267.297	32.576	-0.121	-0.103
-266.282	92.272	0.140	-0.156
-265.267	106.191	-0.167	-0.195
-264.253	-62.673	-0.134	0.055
-263.238	114.383	0.121	-0.145
-262.224	-200.000	-0.031	0.184
-261.209	-52.969	0.103	-0.047
-260.195	-108.269	0.144	-0.031
-259.180	47.695	-0.273	0.252
-258.165	-159.743	0.346	0.019
-257.151	141.298	0.149	0.195
-256.136	-171.723	0.166	-0.005
-255.122	-200.000	0.023	0.207
-254.107	-106.138	-0.152	0.034
-253.092	61.244	-0.115	0.113
-252.078	589.492	0.140	-0.340
-251.063	72.426	0.151	-0.155
-250.049	-15.028	0.127	-0.080
-249.034	-48.808	-0.203	-0.096
-248.019	-200.000	0.008	0.057
-247.005	84.204	-0.248	-0.268
-245.990	-200.000	-0.003	-0.105
-244.976	-124.028	0.353	-0.055
-243.961	-62.636	-0.224	-0.092
-242.946	127.273	0.172	0.216
-241.932	44.215	0.144	-0.130
-240.917	-27.277	-0.056	-0.032
-239.903	15.892	-0.203	0.158
-238.888	-102.680	-0.187	-0.044
-237.873	-131.644	0.328	-0.043
-236.859	-57.470	-0.204	-0.089
-235.844	-69.495	-0.113	-0.043
-234.830	-116.178	-0.191	0.035
-233.815	165.937	0.125	0.174
-232.800	-200.000	0.007	0.243
-231.786	67.781	-0.193	0.195
-230.771	-21.381	-0.207	0.125
-229.757	-137.120	-0.254	-0.029
-228.742	136.988	0.090	0.116
-227.727	-200.000	0.029	0.232
-226.713	0.579	-0.208	-0.146
-225.698	800.000	-0.102	0.284
-224.684	21.581	-0.209	0.168
-223.669	108.497	-0.205	-0.241
-222.655	800.000	0.057	0.195
-221.640	-200.000	-0.008	-0.318
-220.625	-31.909	0.343	-0.189
-219.611	684.695	0.088	-0.227
-218.596	-76.927	-0.107	0.037
-217.582	-200.000	0.067	0.540
-216.567	36.426	0.047	0.041
-215.552	-0.681	-0.087	-0.061
-214.538	-113.950	0.252	-0.048
-213.523	-105.760	-0.164	0.037
-212.509	-68.818	-0.082	-0.031
-211.494	319.704	-0.098	-0.183
-210.479	259.609	-0.191	0.325
-209.465	-146.990	-0.131	0.011
-208.450	-162.546	-0.067	0.003
-207.436	-112.804	-0.163	-0.032
-206.421	-51.016	0.129	-0.060
-205.406	203.860	0.120	-0.184
-204.392	-63.792	0.082	-0.033
-203.377	-200.000	-0.043	-0.236
-202.363	21.748	-0.205	0.164
-201.348	-200.000	0.023	0.308
-200.333	-79.904	-0.083	0.028
-199.319	-200.000	-0.010	0.232
-198.304	-200.000	-0.013	-0.210
-197.290	800.000	0.017	0.056
-196.275	-100.952	0.246	-0.060
-195.260	800.000	0.024	-0.071
-194.246	-141.189	0.443	0.045
-193.231	157.174	-0.143	0.195
-192.217	106.230	-0.102	-0.119
-191.202	201.927	-0.071	-0.108
-190.187	553.169	0.020	0.047
-189.173	130.461	0.049	-0.062
-188.158	-65.030	0.548	-0.218
-187.144	49.667	0.030	0.028
-186.129	-101.344	0.114	-0.027
-185.114	107.136	-0.085	0.099
-184.100	45.790	-0.202	-0.184
-183.085	-85.582	-0.061	-0.019
-182.071	-111.991	0.190	0.038
-181.056	-195.842	0.015	0.000
-180.042	-26.849	0.251	-0.144
-179.027	62.060	-0.139	-0.137
-178.012	797.061	0.053	0.144
-176.998	69.732	-0.115	0.116
-175.983	-121.428	-0.222	0.036
-174.969	-168.579	0.239	-0.009
-173.954	-60.438	-0.155	-0.065
-172.939	-142.293	0.403	0.039
-171.925	-106.795	-0.390	0.085
-170.910	287.922	0.197	-0.352
-169.896	550.561	-0.202	0.478
-168.881	534.433	-0.115	0.268
-167.866	184.665	-0.143	0.208
-166.852	-107.046	-0.142	-0.031
-165.837	90.334	0.100	-0.110
-164.823	88.952	0.034	-0.038
-163.808	-184.804	0.228	-0.004
-162.793	210.625	0.010	0.015
-161.779	-177.193	-0.073	0.002
-160.764	4.068	0.154	-0.111
-159.750	-139.414	0.163	0.017
-158.735	-71.344	0.320	0.118
-157.720	-200.000	0.004	0.238
-156.706	-200.000	-0.022	0.355
-155.691	-128.830	-0.017	0.002
-154.677	-14.106	0.243	-0.154
-153.662	70.115	0.104	0.105
-152.647	489.801	-0.083	0.187
-151.633	200.607	-0.078	0.117
-150.618	800.000	0.111	-0.374
-149.604	-200.000	-0.012	0.115
-148.589	-200.000	-0.008	0.220
-147.574	777.223	0.104	-0.279
-146.560	-64.347	-0.286	0.115
-145.545	-37.581	-0.105	0.055
-144.531	-95.543	-0.162	0.043
-143.516	-32.847	0.289	-0.158
-142.502	128.140	-0.125	-0.156
-141.487	-53.859	0.139	-0.063
-140.472	-200.000	0.000	-0.225
-139.458	-200.000	0.025	0.123
-138.443	800.000	0.078	-0.295
-137.429	-177.175	0.146	-0.004
-136.414	-200.000	-0.072	-0.451
-135.399	-200.000	0.026	0.182
-134.385	345.254	0.054	-0.104
-133.370	-200.000	0.018	-0.433
-132.356	2.067	-0.229	-0.163
-131.341	604.777	-0.120	-0.294
-130.326	-64.467	0.252	0.101
-129.312	-109.752	0.384	0.079
-128.297	688.858	0.050	-0.128
-127.283	550.401	0.075	-0.177
-126.268	-159.392	0.117	-0.006
-125.253	800.000	0.028	-0.084
-124.239	-29.453	0.384	0.216
-123.224	-142.666	0.523	0.050
-122.210	-128.365	0.107	0.015
-121.195	-200.000	0.004	0.244
-120.180	-31.860	-0.233	0.128
-119.166	-56.219	0.104	0.045
-118.151	-71.961	0.203	0.074
-117.137	-124.794	0.318	0.048
-116.122	-20.490	-0.107	0.064
-115.107	-200.000	-0.029	-0.280
-114.093	281.445	0.026	-0.046
-113.078	-200.000	0.018	-0.220
-112.064	591.099	-0.074	0.180
-111.049	420.758	-0.077	0.161
-110.034	566.439	-0.128	0.305
-109.020	113.458	0.065	0.077
-108.005	-144.910	0.066	0.006
-106.991	64.131	-0.196	0.194
-105.976	-200.000	0.044	0.542
-104.962	792.796	0.071	0.191
-103.947	-200.000	0.014	0.237
-102.932	-22.919	-0.130	-0.077
-101.918	-98.968	0.010	0.002
-100.903	-95.013	-0.283	-0.075
-99.889	132.499	0.104	0.132
-98.874	200.220	0.095	-0.143
-97.859	799.668	0.134	-0.363
-96.845	379.787	0.150	0.302
-95.830	-12.973	-0.397	-0.254
-94.816	-166.188	0.200	-0.008
-93.801	800.000	0.129	-0.372
-92.786	-24.797	-0.340	0.198
-91.772	-171.167	-0.306	-0.010
-90.757	800.000	-0.019	0.059
-89.743	-84.017	0.244	0.076
-88.728	109.744	0.019	0.023
-87.713	21.304	-0.027	-0.021
-86.699	75.620	0.106	-0.110
-85.684	449.867	0.163	0.354
-84.670	-41.999	-0.193	0.097
-83.655	-99.489	0.179	-0.044
-82.640	329.227	0.082	-0.155
-81.626	299.619	-0.121	-0.219
-80.611	26.149	0.091	-0.075
-79.597	-1.583	-0.230	-0.159
-78.582	-31.049	-0.119	0.066
-77.567	-89.100	0.156	0.045
-76.553	108.307	0.047	-0.055
-75.538	237.105	0.048	-0.077
-74.524	110.384	-0.218	-0.256
-73.509	-200.000	-0.005	-0.058
-72.494	-69.005	-0.112	0.042
-71.480	-26.869	0.245	0.141
-70.465	122.015	0.127	0.155
-69.451	-157.354	0.435	-0.026
-68.436	-2.275	0.258	-0.177
-67.422	-160.227	-0.246	0.013
-66.407	117.186	-0.251	-0.302
-65.392	-83.589	0.203	-0.064
-64.378	-200.000	-0.037	-0.172
-63.363	-29.890	0.311	0.174
-62.349	-8.122	-0.187	0.123
-61.334	-60.350	-1.201	-0.501
-60.319	156.062	0.287	0.387
-59.305	-200.000	-0.067	-0.862
-58.290	117.998	0.931	1.125
-57.276	800.000	0.437	1.630
-56.261	-200.000	98.136	609.636
-55.246	595.466	1405.142	3409.091
-54.232	192.299	2598.253	3843.075
-53.217	117.947	2143.062	2588.169
-52.203	43.527	1596.519	1430.944
-51.188	34.954	1333.672	1144.313
-50.173	31.663	1292.893	1090.156
-49.159	54.163	1342.270	1265.756
-48.144	56.422	1357.745	1293.668
-47.130	35.038	1315.780	1129.274
-46.115	31.606	1298.239	1094.154
-45.100	31.425	1293.555	1089.112
-44.086	31.299	1291.269	1086.412
-43.071	31.175	1288.890	1083.645
-42.057	31.245	1286.787	1082.242
-41.042	31.278	1285.157	1081.016
-40.027	31.354	1283.405	1079.938
-39.013	31.405	1281.389	1078.495
-37.998	31.247	1280.036	1076.402
-36.984	31.319	1277.897	1074.976
-35.969	31.425	1275.978	1073.929
-34.954	31.486	1274.408	1072.914
-33.940	31.399	1273.522	1071.626
-32.925	31.428	1272.138	1070.586
-31.911	31.596	1270.748	1070.334
-30.896	31.409	1269.865	1068.479
-29.881	31.424	1267.883	1066.852
-28.867	31.598	1266.079	1066.287
-27.852	31.503	1265.207	1064.969
-26.838	31.592	1263.365	1063.879
-25.823	31.512	1262.349	1062.529
-24.809	31.454	1260.838	1060.887
-23.794	31.521	1259.455	1060.059
-22.779	31.529	1258.212	1059.018
-21.765	31.465	1257.275	1057.826
-20.750	31.452	1255.768	1056.442
-19.736	31.448	1254.067	1054.948
-18.721	31.258	1253.265	1053.156
-17.706	31.377	1251.967	1052.694
-16.692	31.283	1250.936	1051.256
-15.677	31.237	1249.818	1050.019
-14.663	31.317	1248.665	1049.456
-13.648	31.299	1247.675	1048.484
-12.633	31.268	1247.028	1047.721
-11.619	31.278	1245.981	1046.860
-10.604	31.387	1244.685	1046.340
-9.590	31.194	1244.036	1044.670
-8.575	31.233	1243.178	1044.126
-7.560	31.199	1242.381	1043.228
-6.546	31.304	1241.135	1042.726
-5.531	31.135	1240.573	1041.265
-4.517	31.247	1239.352	1040.824
-3.502	31.313	1238.605	1040.524
-2.487	31.280	1237.357	1039.252
-1.473	31.283	1233.492	1035.981
-0.458	29.664	1218.790	1014.710
0.556	23.780	1200.446	975.188
1.571	19.988	1205.588	958.335
2.586	19.076	1220.634	965.099
3.600	18.885	1210.051	955.586
4.615	13.702	1139.013	872.211
5.629	4.390	1063.265	768.227
6.644	-0.002	1043.482	732.501
7.659	-0.335	1040.685	728.855
8.673	-0.422	1039.141	727.287
9.688	-0.479	1037.878	726.062
10.702	-0.068	1036.376	726.939
11.717	5.679	1044.490	760.519
12.731	14.549	1057.852	813.619
13.746	18.668	1062.253	837.064
14.761	19.019	1062.172	838.641
15.775	18.985	1061.305	837.717
16.790	18.745	1060.413	835.767
17.804	18.694	1060.192	835.274
18.819	18.707	1059.622	834.814
19.834	18.810	1059.160	834.874
20.848	18.729	1058.620	833.985
21.863	18.783	1057.957	833.649
22.877	18.748	1057.226	832.829
23.892	18.671	1056.761	832.016
24.907	18.727	1056.344	831.883
25.921	18.732	1055.248	830.972
26.936	18.685	1054.045	829.722
27.950	18.703	1051.868	828.024
28.965	18.647	1049.735	826.001
29.980	18.590	1048.468	824.657
30.994	18.717	1047.334	824.301
32.009	18.851	1045.725	823.606
33.023	18.610	1044.702	821.575
34.038	18.787	1043.924	821.734
35.053	18.881	1043.395	821.694
36.067	18.974	1042.439	821.315
37.082	18.906	1041.746	820.371
38.096	19.069	1040.892	820.405
39.111	19.116	1040.096	819.930
40.126	18.937	1038.810	817.989
41.140	18.718	1037.148	815.568
42.155	18.474	1035.369	812.941
43.169	18.393	1034.835	812.065
44.184	18.637	1033.861	812.385
45.199	18.486	1032.912	810.852
46.213	18.605	1031.353	810.119
47.228	18.560	1030.540	809.197
48.242	18.699	1029.642	809.076
49.257	18.703	1029.221	808.692
50.271	18.746	1028.097	807.940
51.286	18.754	1027.471	807.414
52.301	18.956	1026.127	807.234
53.315	18.866	1024.866	805.748
54.330	18.853	1024.080	805.000
55.344	18.920	1022.906	804.318
56.359	18.794	1021.995	802.943
57.374	18.606	1021.300	801.445
58.388	18.677	1020.395	800.996
59.403	18.651	1019.803	800.340
60.417	18.516	1018.306	798.466
61.432	18.703	1017.884	798.936
62.447	18.723	1017.260	798.465
63.461	18.612	1016.853	797.562
64.476	18.607	1015.550	796.446
65.490	18.529	1014.921	795.517
66.505	18.625	1013.740	794.967
67.520	18.570	1013.110	794.148
68.534	18.539	1011.771	792.885
69.549	18.306	1010.817	790.990
70.563	18.277	1010.136	790.252
71.578	18.335	1009.357	789.844
72.593	18.122	1008.663	788.248
73.607	18.296	1007.685	788.217
74.622	18.508	1007.486	788.964
75.636	18.548	1006.506	788.311
76.651	18.495	1005.820	787.462
77.666	18.386	1004.745	786.050
78.680	18.389	1004.198	785.568
79.695	18.595	1003.740	786.083
80.709	18.541	1002.885	785.097
81.724	18.479	1002.021	784.068
82.739	18.558	1001.317	783.808
83.753	18.800	1000.731	784.385
84.768	19.012	999.932	784.658
85.782	19.079	998.702	783.926
86.797	18.859	997.861	782.195
87.812	18.805	996.530	780.840
88.826	18.965	995.723	780.865
89.841	18.869	994.675	779.538
90.855	18.935	993.822	779.098
91.870	18.932	992.962	778.340
92.884	18.841	991.846	776.988
93.899	18.851	991.081	776.363
94.914	19.042	989.766	776.127
95.928	18.974	988.506	774.764
96.943	18.690	987.835	772.890
97.957	18.400	986.632	770.578
98.972	18.261	985.681	769.143
99.987	18.522	985.071	769.768
101.001	18.734	983.984	769.802
102.016	18.889	983.142	769.771
103.030	18.641	982.322	767.952
104.045	18.520	981.247	766.502
105.060	18.383	980.278	765.066
106.074	18.538	979.761	765.287
107.089	18.938	979.236	766.592
108.103	18.943	977.696	765.340
109.118	18.608	976.527	762.866
110.133	18.706	975.511	762.444
111.147	18.525	974.325	760.643
112.162	18.422	973.201	759.244
113.176	18.585	973.031	759.765
114.191	18.548	971.321	758.201
115.206	18.277	970.657	756.418
116.220	18.185	969.974	755.413
117.235	18.455	968.890	755.692
118.249	18.466	967.614	754.677
119.264	18.330	967.213	753.701
120.279	18.418	966.802	753.699
121.293	18.477	965.918	753.203
122.308	18.456	964.751	752.133
123.322	18.578	963.207	751.400
124.337	18.332	962.017	749.328
125.352	17.874	960.511	746.087
126.366	17.853	959.205	744.914
127.381	18.575	958.985	747.825
128.395	18.915	958.445	748.821
129.410	18.851	957.797	747.969
130.424	18.867	956.597	747.034
131.439	18.796	955.890	746.107
132.454	18.887	954.530	745.376
133.468	18.764	953.691	744.124
134.483	18.862	952.959	743.908
135.497	19.129	951.917	744.187
136.512	18.977	951.330	743.002
137.527	19.122	950.160	742.651
138.541	19.143	949.754	742.358
139.556	19.014	948.856	741.035
140.570	19.092	947.809	740.486
141.585	19.159	946.413	739.617
142.600	19.095	945.368	738.462
143.614	19.312	944.764	738.855
144.629	19.206	944.383	738.037
145.643	19.274	942.819	737.040
146.658	19.144	941.417	735.326
147.673	19.048	940.493	734.127
148.687	18.939	939.932	733.159
149.702	18.858	938.674	731.769
150.716	18.818	938.114	731.099
151.731	19.112	937.331	731.671
152.746	19.164	936.779	731.398
153.760	19.311	936.117	731.442
154.775	19.341	935.509	731.029
155.789	19.117	934.974	729.593
156.804	19.153	933.793	728.761
157.819	19.411	933.139	729.276
158.833	19.324	932.465	728.321
159.848	19.212	931.255	726.838
160.862	19.046	930.415	725.419
161.877	19.189	929.467	725.218
162.892	19.305	928.292	724.725
163.906	19.193	927.284	723.402
164.921	19.230	926.408	722.810
165.935	19.353	925.606	722.638
166.950	19.210	924.629	721.211
167.964	19.264	923.819	720.742
168.979	19.104	922.970	719.344
169.994	19.080	922.085	718.492
171.008	19.206	921.456	718.463
172.023	19.165	920.384	717.394
173.037	18.910	919.059	715.238
174.052	18.865	918.555	714.595
175.067	19.046	917.996	714.849
176.081	19.269	917.155	715.056
177.096	19.121	916.244	713.667
178.110	18.834	915.614	711.924
179.125	18.624	914.708	710.290
180.140	18.822	914.295	710.725
181.154	18.903	914.094	710.840
182.169	19.018	913.734	710.971
183.183	19.226	913.590	711.658
184.198	19.150	912.466	710.405
185.213	19.112	911.927	709.766
186.227	19.192	911.146	709.424
187.242	19.132	910.163	708.348
188.256	19.199	909.767	708.252
189.271	19.170	908.711	707.249
190.286	19.012	907.545	705.631
191.300	18.460	906.438	702.448
192.315	17.831	905.041	698.728
193.329	17.778	904.610	698.116
194.344	18.733	904.915	702.196
195.359	19.119	904.597	703.467
196.373	19.227	903.900	703.303
197.388	19.065	903.199	702.036
198.402	18.990	902.074	700.792
199.417	18.939	902.000	700.466
200.432	18.778	900.602	698.661
201.446	18.578	899.952	697.285
202.461	18.638	899.140	696.835
203.475	17.729	897.627	691.914
204.490	17.114	896.613	688.578
205.504	18.185	896.846	693.038
206.519	18.827	896.567	695.360
207.534	18.932	896.133	695.390
208.548	19.263	896.058	696.608
209.563	18.967	895.255	694.726
210.577	18.917	894.196	693.638
211.592	19.192	894.093	694.606
212.607	19.198	893.213	693.886
213.621	19.194	893.160	693.768
214.636	19.248	892.103	693.104
215.650	19.212	891.323	692.290
216.665	19.281	890.909	692.183
217.680	19.258	889.768	691.146
218.694	18.818	888.106	688.029
219.709	18.757	888.088	687.712
220.723	18.968	887.750	688.234
221.738	19.117	887.074	688.244
222.753	19.106	886.614	687.783
223.767	19.243	885.447	687.362
224.782	19.347	885.566	687.809
225.796	19.344	884.829	687.165
226.811	18.672	883.041	683.042
227.826	18.268	882.190	680.717
228.840	18.369	881.462	680.494
229.855	18.458	880.808	680.283
230.869	18.148	879.554	678.028
231.884	18.549	879.971	679.880
232.899	19.186	880.123	682.462
233.913	19.210	878.728	681.414
234.928	19.161	878.405	680.908
235.942	18.983	878.086	679.897
236.957	18.860	876.581	678.188
237.972	18.834	876.296	677.804
238.986	19.030	875.143	677.625
240.001	18.983	874.503	676.884
241.015	19.135	873.890	676.946
242.030	19.021	873.753	676.331
243.045	19.230	873.447	676.856
244.059	19.337	872.782	676.702
245.074	19.120	871.575	674.854
246.088	18.871	870.477	672.970
247.103	19.118	870.237	673.694
248.117	19.538	870.077	675.152
249.132	19.805	869.725	675.862
250.147	19.818	869.100	675.368
251.161	19.885	869.069	675.544
252.176	19.864	868.072	674.628
253.190	19.803	867.573	673.942
254.205	20.049	866.967	674.373
255.220	20.016	866.043	673.466
256.234	19.791	865.392	672.026
257.249	19.736	864.570	671.113
258.263	19.858	863.678	670.833
259.278	20.005	863.143	670.928
260.293	19.951	862.685	670.304
261.307	19.668	861.786	668.451
262.322	19.603	860.535	667.173
263.336	18.913	859.194	663.412
264.351	17.797	857.301	657.592
265.366	18.010	856.955	658.088
266.380	19.177	857.559	662.990
267.395	19.530	857.212	664.019
268.409	19.590	856.406	663.569
269.424	19.733	856.075	663.801
270.439	19.676	855.352	662.966
271.453	19.871	854.872	663.279
272.468	20.060	854.556	663.701
273.482	20.099	853.645	663.083
274.497	19.683	852.210	660.322
275.512	19.315	851.941	658.648
276.526	19.784	851.789	660.264
277.541	19.720	852.126	660.222
278.555	19.678	850.096	658.433
279.570	19.441	849.510	657.018
280.585	19.657	848.595	657.072
281.599	19.665	847.765	656.401
282.614	19.137	846.902	653.670
283.628	19.184	846.144	653.206
284.643	19.523	846.059	654.370
285.657	19.140	844.857	651.931
286.672	18.908	843.876	650.239
287.687	19.485	843.936	652.409
288.701	19.412	843.447	651.699
289.716	19.070	842.639	649.723
290.730	19.118	841.662	649.094
291.745	18.884	841.160	647.769
292.760	19.076	840.884	648.221
293.774	19.907	841.492	651.765
294.789	20.353	840.633	652.719
295.803	20.395	839.993	652.322
296.818	20.444	839.405	651.991
297.833	19.959	838.633	649.514
298.847	19.862	837.945	648.560
299.862	20.217	837.137	649.208
300.876	20.346	837.046	649.562
301.891	20.088	836.589	648.186
302.906	19.676	835.487	645.734
303.920	19.882	834.386	645.595
304.935	20.074	834.576	646.401
305.949	20.124	834.248	646.276
306.964	20.024	832.981	644.866
307.979	20.127	832.835	645.078
308.993	20.447	832.638	646.060
310.008	20.341	832.034	645.139
311.022	20.292	830.964	644.071
312.037	20.152	830.374	643.038
313.052	19.997	829.658	641.851
314.066	19.052	828.448	637.361
315.081	18.884	827.648	636.069
316.095	19.751	827.818	639.348
317.110	20.144	827.817	640.746
318.125	19.277	826.235	636.264
319.139	18.491	824.625	632.070
320.154	18.526	824.176	631.800
321.168	19.226	824.490	634.562
322.183	19.832	824.880	637.038
323.197	20.019	824.347	637.258
324.212	20.185	824.073	637.601
325.227	20.183	823.227	636.883
326.241	20.162	822.372	636.088
327.256	20.061	822.005	635.378
328.270	19.965	821.266	634.398
329.285	19.976	820.523	633.808
330.300	19.765	819.650	632.306
331.314	19.897	819.359	632.508
332.329	20.047	819.464	633.083
333.343	20.250	818.956	633.374
334.358	20.103	818.658	632.552
335.373	20.353	818.194	633.049
336.387	20.726	818.049	634.241
337.402	20.589	817.821	633.508
338.416	20.500	817.035	632.522
339.431	20.542	816.746	632.392
340.446	20.712	816.407	632.695
341.460	20.507	815.977	631.557
342.475	20.380	815.313	630.528
343.489	20.507	814.936	630.641
344.504	20.683	814.628	630.987
345.519	20.843	814.501	631.411
346.533	20.974	813.780	631.271
347.548	20.915	813.380	630.693
348.562	21.049	812.922	630.764
349.577	20.822	812.219	629.342
350.592	21.002	811.515	629.391
351.606	21.062	810.879	629.058
352.621	20.781	810.096	627.385
353.635	20.831	809.245	626.848
354.650	20.110	807.723	623.023
355.665	19.286	806.252	618.876
356.679	19.602	806.253	619.959
357.694	20.045	805.785	621.131
358.708	20.047	805.509	620.869
359.723	20.427	804.857	621.673
360.738	20.575	805.037	622.287
361.752	20.819	804.503	622.691
362.767	21.083	803.979	623.174
363.781	21.037	803.967	622.946
364.796	21.261	803.101	623.018
365.810	21.265	802.900	622.822
366.825	21.296	802.476	622.549
367.840	20.967	801.353	620.451
368.854	20.522	801.066	618.590
369.869	20.781	800.561	619.068
370.883	20.602	800.387	618.241
371.898	20.512	799.605	617.265
372.913	20.850	799.126	618.037
373.927	20.816	799.024	617.783
374.942	20.907	798.720	617.816
375.956	20.994	798.524	617.918
376.971	21.158	797.483	617.638
377.986	21.222	797.392	617.740
379.000	21.165	797.021	617.197
380.015	21.053	796.323	616.204
381.029	21.156	795.810	616.120
382.044	21.331	795.171	616.187
383.059	21.331	794.433	615.560
384.073	21.289	794.217	615.190
385.088	21.370	793.535	614.892
386.102	21.108	792.940	613.457
387.117	21.185	792.052	612.986
388.132	20.749	791.680	611.111
389.146	20.487	790.578	609.288
390.161	20.494	790.761	609.400
391.175	21.074	790.220	610.962
392.190	20.839	789.088	609.209
393.205	19.470	787.690	603.294
394.219	18.166	786.181	597.534
395.234	18.166	785.872	597.245
396.248	19.826	786.985	603.836
397.263	20.981	787.535	608.238
398.278	20.897	787.285	607.697
399.292	20.828	786.560	606.844
400.307	20.919	785.736	606.471
401.321	20.924	785.920	606.576
402.336	21.085	785.327	606.626
403.350	21.605	785.084	608.190
404.365	21.838	785.077	608.941
405.380	21.822	784.720	608.554
406.394	21.920	783.823	608.144
407.409	21.913	783.428	607.761
408.423	21.741	783.217	606.948
409.438	21.875	782.846	607.071
410.453	21.780	782.284	606.251
411.467	21.965	781.842	606.495
412.482	21.865	781.801	606.063
413.496	21.809	781.519	605.599
414.511	21.931	780.721	605.347
415.526	22.106	780.094	605.412
416.540	21.797	779.341	603.710
417.555	21.531	778.705	602.248
418.569	21.589	778.401	602.159
419.584	21.714	777.950	602.187
420.599	21.443	777.463	600.826
421.613	158.402	1361.960	1796.209
422.628	136.825	1447.111	1796.280
