DTS Sentinel unit serial number:	SN413079Multiplexer serial number:	ORYXHardware model number:	OX4-SRSoftware version number:	ORYX F/W v4.00 Oryx Data Collector v3.7.2.0data status	okinstallation	princeton_trtdifferential loss correction	single-endedforward channel	channel 1reverse channel	N/Adate	2019/09/13time	05:06:35forward acquisition time	60.00reverse acquisition time	0.00gamma	496.2192k internal	0.2335k external	0.2335temperature offset calibration	1.0162default loss term (dB/km)	0.3790temperature slope calibration	1.0000multiplexer offset coefficient	1.0000multiplexer slope coefficient	1.0000fibre end	0.00T internal ref (°C)	26.42T ext. ref 1 (°C)	4.05T ext. ref 2 (°C)	20.90length (m)	temperature (°C)	Stokes	anti-Stokes-747.200	800.000	0.099	-0.294
-746.185	-138.861	-0.183	0.020
-745.171	-16.258	-0.188	0.120
-744.156	-122.116	-0.337	0.055
-743.142	28.343	0.309	0.263
-742.127	-200.000	-0.314	0.001
-741.112	800.000	-0.069	-0.256
-740.098	251.007	0.148	-0.253
-739.083	-200.000	-0.031	0.338
-738.069	-95.019	0.078	0.021
-737.054	98.436	-0.143	-0.166
-736.039	800.000	-0.084	-0.256
-735.025	40.592	0.206	-0.186
-734.010	-85.571	-0.209	0.065
-732.996	-182.086	-0.172	0.003
-731.981	-200.000	-0.003	-0.140
-730.966	405.196	0.051	-0.107
-729.952	800.000	0.028	-0.087
-728.937	12.188	-0.201	0.155
-727.923	-23.887	-0.188	0.113
-726.908	-173.255	-0.272	-0.008
-725.894	44.996	0.193	0.178
-724.879	-123.357	0.254	-0.041
-723.864	-32.581	-0.026	-0.015
-722.850	737.284	-0.133	-0.357
-721.835	-60.946	0.092	-0.039
-720.821	-39.242	0.127	-0.067
-719.806	78.807	-0.157	-0.169
-718.791	204.793	0.069	-0.108
-717.777	-104.652	0.178	-0.041
-716.762	-10.539	0.281	-0.187
-715.748	-55.488	0.158	-0.071
-714.733	193.600	-0.127	-0.193
-713.718	426.648	-0.068	0.148
-712.704	737.261	0.083	0.223
-711.689	538.360	-0.089	-0.211
-710.675	133.882	-0.217	-0.283
-709.660	-89.439	0.212	-0.063
-708.645	-15.173	-0.277	-0.178
-707.631	-100.340	-0.288	-0.072
-706.616	-5.069	-0.206	0.142
-705.602	-124.562	0.109	0.017
-704.587	82.940	-0.195	-0.212
-703.572	143.045	-0.105	-0.141
-702.558	-140.750	-0.112	-0.012
-701.543	-105.775	-0.191	0.043
-700.529	-52.723	-0.136	-0.063
-699.514	3.816	-0.102	0.075
-698.499	67.572	-0.111	0.114
-697.485	98.148	0.231	-0.267
-696.470	-122.844	0.155	-0.025
-695.456	422.845	0.109	0.235
-694.441	131.058	0.040	-0.051
-693.426	-122.465	-0.403	-0.066
-692.412	-200.000	-0.001	0.086
-691.397	800.000	-0.063	-0.229
-690.383	-122.151	-0.337	-0.055
-689.368	800.000	-0.056	-0.182
-688.354	-200.000	0.004	-0.327
-687.339	7.334	0.082	-0.061
-686.324	-200.000	-0.043	-0.229
-685.310	13.594	-0.335	0.260
-684.295	41.206	0.360	-0.326
-683.281	-200.000	0.000	-0.141
-682.266	36.425	0.075	-0.066
-681.251	800.000	0.085	-0.251
-680.237	379.578	0.047	0.097
-679.222	611.389	0.096	0.241
-678.208	11.358	-0.190	-0.146
-677.193	-92.780	-0.258	0.072
-676.178	134.028	0.089	0.115
-675.164	-68.438	0.041	0.016
-674.149	265.698	0.034	0.059
-673.135	-7.864	-0.118	-0.080
-672.120	201.029	-0.105	0.162
-671.105	104.521	-0.281	0.331
-670.091	25.252	0.147	0.122
-669.076	-200.000	-0.020	-0.303
-668.062	-117.632	0.215	-0.039
-667.047	800.000	-0.052	-0.220
-666.032	-200.000	0.019	-0.223
-665.018	-107.380	-0.228	0.050
-664.003	81.287	0.160	-0.173
-662.989	-54.239	-0.129	-0.059
-661.974	301.430	0.098	-0.182
-660.959	800.000	0.064	0.217
-659.945	154.203	0.181	-0.248
-658.930	-200.000	-0.034	-0.202
-657.916	-7.745	-0.185	-0.125
-656.901	112.627	-0.122	-0.148
-655.886	44.570	-0.184	-0.169
-654.872	9.643	0.213	0.162
-653.857	-55.623	-0.160	0.072
-652.843	-200.000	0.015	0.244
-651.828	4.164	-0.247	-0.181
-650.814	23.467	0.174	0.144
-649.799	-14.366	-0.017	0.011
-648.784	328.647	0.026	0.050
-647.770	-148.308	0.454	0.037
-646.755	-71.064	-0.159	0.060
-645.741	365.795	-0.109	0.219
-644.726	800.000	0.124	0.486
-643.711	239.766	-0.212	0.353
-642.697	-200.000	0.213	0.000
-641.682	-60.140	-0.166	0.071
-640.668	137.157	-0.047	-0.062
-639.653	800.000	0.070	0.290
-638.638	231.879	-0.126	-0.206
-637.624	-82.357	0.214	-0.070
-636.609	44.919	0.105	-0.097
-635.595	-200.000	-0.071	-0.422
-634.580	34.886	-0.233	0.204
-633.565	18.876	-0.085	0.068
-632.551	-200.000	-0.033	-0.530
-631.536	39.611	0.350	-0.314
-630.522	-200.000	-0.061	-0.397
-629.507	229.162	-0.176	-0.288
-628.492	-98.550	0.334	0.085
-627.478	-19.392	-0.094	-0.058
-626.463	-200.000	-0.007	0.119
-625.449	120.510	-0.092	-0.114
-624.434	190.943	-0.085	0.128
-623.419	-100.391	-0.157	0.039
-622.405	-200.000	-0.003	0.157
-621.390	-151.924	-0.217	0.016
-620.376	133.044	-0.141	-0.182
-619.361	-130.539	-0.321	0.043
-618.346	309.749	0.109	-0.205
-617.332	-7.920	-0.149	-0.101
-616.317	400.993	0.118	0.248
-615.303	378.131	-0.076	-0.155
-614.288	-66.690	-0.052	-0.020
-613.273	137.657	-0.080	0.105
-612.259	707.815	0.058	-0.154
-611.244	25.822	0.174	0.145
-610.230	709.576	-0.156	-0.414
-609.215	41.091	0.460	-0.415
-608.201	-40.739	-0.296	0.153
-607.186	-138.488	0.234	-0.026
-606.171	362.470	-0.013	0.026
-605.157	91.914	-0.181	0.204
-604.142	-65.122	-0.087	-0.035
-603.128	404.821	-0.075	0.158
-602.113	436.692	-0.046	0.100
-601.098	-22.182	0.086	-0.052
-600.084	-120.475	-0.383	-0.065
-599.069	-20.750	-0.065	-0.040
-598.055	190.963	0.178	0.268
-597.040	-65.642	0.179	0.072
-596.025	-200.000	-0.014	-0.171
-595.011	-67.929	0.214	-0.083
-593.996	17.182	-0.443	0.351
-592.982	74.483	0.069	0.073
-591.967	32.079	-0.225	0.194
-590.952	582.573	0.180	-0.442
-589.938	-200.000	0.007	-0.086
-588.923	142.978	0.163	0.217
-587.909	63.473	-0.109	0.109
-586.894	152.168	-0.246	-0.335
-585.879	-45.669	0.221	0.109
-584.865	-22.410	-0.330	0.199
-583.850	1.417	0.079	0.057
-582.836	95.178	0.221	-0.251
-581.821	-135.779	0.203	-0.024
-580.806	252.924	-0.174	-0.296
-579.792	-121.058	0.129	0.022
-578.777	800.000	-0.137	-0.425
-577.763	-200.000	-0.010	0.357
-576.748	-10.322	-0.114	0.076
-575.733	526.274	-0.094	-0.220
-574.719	-69.372	0.133	-0.051
-573.704	352.332	-0.114	-0.226
-572.690	191.786	-0.197	-0.296
-571.675	-13.732	-0.089	0.057
-570.661	161.360	-0.228	-0.318
-569.646	37.845	-0.235	0.209
-568.631	-140.933	0.075	0.008
-567.617	-3.864	0.280	0.194
-566.602	31.759	0.079	0.068
-565.588	-104.577	0.263	-0.060
-564.573	-200.000	-0.024	-0.209
-563.558	-54.089	-0.126	-0.057
-562.544	104.175	-0.034	-0.040
-561.529	313.799	-0.155	-0.292
-560.515	99.160	0.140	0.162
-559.500	-67.292	0.086	-0.034
-558.485	-120.859	-0.349	0.059
-557.471	800.000	0.092	0.347
-556.456	-135.586	-0.194	0.023
-555.442	-27.175	0.470	0.273
-554.427	-130.515	-0.129	-0.017
-553.412	314.194	-0.079	0.149
-552.398	800.000	-0.082	-0.241
-551.383	-27.785	-0.077	-0.044
-550.369	780.918	0.113	0.307
-549.354	-168.594	-0.413	0.016
-548.339	-200.000	-0.045	-0.247
-547.325	-88.034	-0.268	-0.080
-546.310	27.422	-0.176	-0.147
-545.296	800.000	-0.063	-0.190
-544.281	63.547	-0.105	-0.105
-543.266	-23.716	-0.148	0.089
-542.252	-67.159	0.208	-0.082
-541.237	30.736	-0.216	-0.185
-540.223	-200.000	-0.005	0.171
-539.208	-200.000	-0.008	-0.054
-538.193	71.205	0.305	0.315
-537.179	-200.000	-0.040	-0.317
-536.164	-63.450	-0.199	0.081
-535.150	-58.415	0.343	0.149
-534.135	270.357	-0.104	-0.182
-533.121	495.417	0.058	0.133
-532.106	225.918	-0.095	0.154
-531.091	162.873	-0.091	0.127
-530.077	-38.500	0.258	0.136
-529.062	-144.871	0.387	0.035
-528.048	-101.906	-0.338	0.081
-527.033	-200.000	0.010	0.101
-526.018	48.133	-0.206	0.192
-525.004	26.491	-0.241	0.201
-523.989	-24.323	0.195	-0.116
-522.975	436.870	0.053	0.115
-521.960	-95.943	-0.209	-0.056
-520.945	-64.216	-0.134	-0.055
-519.931	-159.333	0.067	-0.004
-518.916	302.025	-0.142	0.262
-517.902	-200.000	0.388	-0.001
-516.887	-84.909	0.175	0.055
-515.872	-49.116	0.178	0.085
-514.858	64.653	-0.254	0.255
-513.843	800.000	0.100	0.314
-512.829	302.909	-0.076	0.139
-511.814	224.351	-0.022	-0.035
-510.799	-15.078	0.325	-0.207
-509.785	-8.121	0.139	0.093
-508.770	261.335	0.147	-0.253
-507.756	289.267	0.085	0.154
-506.741	-200.000	0.006	0.186
-505.726	-200.000	0.032	0.216
-504.712	109.759	-0.070	-0.084
-503.697	-200.000	-0.003	0.234
-502.683	800.000	-0.077	-0.245
-501.668	-107.854	0.134	0.029
-500.653	-93.600	0.195	0.054
-499.639	383.626	0.150	-0.307
-498.624	95.253	-0.186	0.210
-497.610	14.756	-0.112	0.087
-496.595	-116.135	-0.146	-0.027
-495.581	800.000	0.013	-0.053
-494.566	-13.723	-0.408	-0.263
-493.551	800.000	0.033	-0.111
-492.537	-200.000	-0.007	0.070
-491.522	-75.407	0.050	0.018
-490.508	-125.116	0.392	-0.060
-489.493	800.000	0.043	-0.147
-488.478	800.000	0.082	-0.262
-487.464	-141.986	-0.463	-0.046
-486.449	-128.423	0.129	0.018
-485.435	136.981	-0.107	-0.139
-484.420	73.071	0.099	-0.103
-483.405	800.000	-0.045	-0.170
-482.391	-200.000	-0.019	0.183
-481.376	-53.416	-0.098	0.045
-480.362	800.000	0.132	-0.411
-479.347	-74.936	0.307	-0.110
-478.332	-200.000	-0.014	-0.196
-477.318	38.476	-0.256	-0.227
-476.303	-147.342	0.321	-0.027
-475.289	648.371	-0.007	0.018
-474.274	-30.125	0.407	-0.230
-473.259	-2.815	-0.072	-0.050
-472.245	800.000	0.101	0.353
-471.230	-98.734	-0.248	-0.063
-470.216	-200.000	-0.008	0.070
-469.201	-114.828	0.137	0.026
-468.186	163.587	0.115	0.161
-467.172	-200.000	-0.041	-0.263
-466.157	44.059	0.141	0.129
-465.143	-19.551	-0.210	-0.129
-464.128	45.422	0.094	-0.087
-463.113	-200.000	0.024	-0.235
-462.099	209.142	-0.014	-0.022
-461.084	-88.969	-0.351	0.103
-460.070	-160.333	-0.356	0.019
-459.055	87.000	-0.163	-0.179
-458.040	-96.336	-0.175	-0.046
-457.026	-81.713	-0.281	0.091
-456.011	712.551	-0.015	0.039
-454.997	65.276	-0.202	-0.203
-453.982	14.622	0.208	-0.161
-452.968	-200.000	-0.082	-0.503
-451.953	-74.482	0.224	-0.080
-450.938	-15.937	-0.270	0.171
-449.924	800.000	0.057	-0.203
-448.909	-66.689	0.271	0.107
-447.895	-133.754	0.148	-0.018
-446.880	528.304	0.075	-0.175
-445.865	-200.000	0.061	-0.272
-444.851	-139.810	0.395	-0.042
-443.836	35.363	-0.057	0.050
-442.822	-23.407	-0.242	0.144
-441.807	-145.153	0.227	0.020
-440.792	-141.925	-0.254	0.025
-439.778	-200.000	-0.005	0.048
-438.763	-54.327	0.167	-0.075
-437.749	-134.176	-0.191	0.023
-436.734	-71.333	-0.300	-0.112
-435.719	-200.000	0.036	0.202
-434.705	800.000	-0.070	0.197
-433.690	-200.000	-0.006	0.069
-432.676	-200.000	-0.015	0.107
-431.661	-79.060	0.065	-0.022
-430.646	753.317	0.032	0.087
-429.632	171.343	0.262	0.373
-428.617	-18.086	0.199	-0.124
-427.603	281.152	-0.164	0.292
-426.588	-30.563	0.078	0.044
-425.573	472.398	-0.103	-0.231
-424.559	256.906	0.028	0.047
-423.544	-200.000	-0.043	-0.327
-422.530	-200.000	-0.024	-0.286
-421.515	-63.659	-0.050	0.020
-420.500	800.000	-0.062	-0.243
-419.486	-69.070	-0.177	0.068
-418.471	10.603	-0.440	0.333
-417.457	30.518	-0.182	0.155
-416.442	535.041	-0.202	0.476
-415.428	506.684	0.114	-0.263
-414.413	-2.889	-0.213	0.148
-413.398	96.415	-0.128	-0.145
-412.384	57.704	0.205	-0.199
-411.369	800.000	0.009	-0.027
-410.355	214.020	0.099	-0.156
-409.340	177.917	0.139	0.200
-408.325	-200.000	0.033	0.316
-407.311	-15.566	0.073	-0.046
-406.296	26.655	0.256	-0.212
-405.282	-3.508	-0.212	0.146
-404.267	156.708	0.062	0.086
-403.252	-200.000	-0.067	0.417
-402.238	-80.197	-0.207	0.069
-401.223	800.000	0.041	0.116
-400.209	-9.217	-0.095	0.063
-399.194	195.022	0.112	-0.169
-398.179	-15.948	-0.154	0.097
-397.165	334.077	-0.118	-0.226
-396.150	-200.000	0.033	0.365
-395.136	-60.376	-0.244	-0.103
-394.121	153.863	0.278	0.378
-393.106	-200.000	-0.023	-0.155
-392.092	-51.365	0.188	-0.087
-391.077	-49.492	0.333	-0.157
-390.063	638.563	0.018	-0.046
-389.048	-200.000	0.007	0.266
-388.033	141.772	-0.095	0.124
-387.019	-200.000	0.004	-0.166
-386.004	-136.860	-0.177	0.020
-384.990	-3.887	-0.112	-0.077
-383.975	-200.000	-0.000	-0.131
-382.960	-200.000	0.036	0.160
-381.946	800.000	-0.098	-0.312
-380.931	533.040	0.125	-0.293
-379.917	800.000	-0.056	-0.194
-378.902	484.688	0.097	-0.220
-377.888	-134.593	-0.295	0.036
-376.873	374.509	-0.063	-0.128
-375.858	-200.000	0.025	-0.153
-374.844	800.000	0.034	0.097
-373.829	-200.000	-0.036	0.252
-372.815	-200.000	-0.012	-0.349
-371.800	245.106	-0.278	0.463
-370.785	-17.825	0.293	-0.182
-369.771	55.917	-0.062	-0.060
-368.756	-57.178	-0.331	0.144
-367.742	800.000	-0.067	-0.244
-366.727	-200.000	0.028	-0.189
-365.712	252.140	0.077	0.130
-364.698	482.105	-0.048	-0.108
-363.683	-155.934	-0.361	0.023
-362.669	-66.000	-0.221	-0.088
-361.654	-200.000	0.002	0.196
-360.639	-104.144	0.155	0.036
-359.625	96.006	-0.120	-0.135
-358.610	800.000	-0.048	0.186
-357.596	36.225	0.304	0.265
-356.581	6.268	-0.136	-0.100
-355.566	800.000	0.028	0.094
-354.552	438.145	0.136	-0.294
-353.537	251.455	0.096	0.161
-352.523	391.011	-0.075	-0.154
-351.508	43.653	0.097	0.087
-350.493	310.909	-0.128	-0.237
-349.479	-29.846	-0.238	0.134
-348.464	-83.761	-0.275	0.087
-347.450	310.455	-0.067	-0.125
-346.435	-200.000	-0.037	-0.410
-345.420	-11.645	0.101	0.066
-344.406	800.000	-0.063	-0.180
-343.391	-114.273	0.203	-0.039
-342.377	-67.124	0.132	-0.051
-341.362	800.000	0.041	0.113
-340.348	800.000	-0.133	0.466
-339.333	-200.000	-0.024	0.247
-338.318	-200.000	0.043	0.272
-337.304	800.000	0.025	0.088
-336.289	411.176	0.106	0.223
-335.275	233.135	-0.102	-0.166
-334.260	-57.856	0.084	0.036
-333.245	4.254	0.252	0.183
-332.231	-155.893	-0.471	0.030
-331.216	67.215	0.261	-0.263
-330.202	485.296	-0.176	0.396
-329.187	-191.163	0.030	-0.000
-328.172	43.555	-0.352	0.319
-327.158	17.422	0.073	0.057
-326.143	-39.027	-0.290	0.151
-325.129	49.031	0.321	0.298
-324.114	-64.916	0.169	-0.067
-323.099	34.482	0.292	-0.252
-322.085	-51.040	0.133	0.062
-321.070	-126.661	0.188	0.027
-320.056	-94.478	-0.239	0.065
-319.041	-103.796	0.268	0.062
-318.026	-36.475	-0.273	-0.145
-317.012	424.357	-0.064	-0.135
-315.997	-67.879	-0.317	-0.122
-314.983	-200.000	0.004	0.142
-313.968	71.698	0.064	0.066
-312.953	800.000	-0.080	-0.239
-311.939	78.385	0.275	0.290
-310.924	11.907	-0.039	-0.029
-309.910	-60.258	-0.175	-0.074
-308.895	-75.854	0.263	-0.092
-307.880	33.956	-0.183	0.158
-306.866	155.085	-0.290	-0.393
-305.851	130.523	0.075	0.094
-304.837	172.547	-0.162	0.230
-303.822	-144.017	0.505	-0.047
-302.807	-68.224	0.314	0.121
-301.793	800.000	0.062	0.198
-300.778	-130.256	0.359	-0.048
-299.764	-159.469	0.444	0.024
-298.749	-125.456	-0.281	-0.042
-297.735	800.000	0.058	0.191
-296.720	54.221	-0.175	-0.166
-295.705	285.989	-0.155	-0.276
-294.691	-104.021	0.334	-0.077
-293.676	375.607	-0.182	-0.366
-292.662	-81.015	0.265	-0.087
-291.647	168.187	0.090	-0.127
-290.632	-154.964	-0.263	-0.017
-289.618	-102.824	-0.447	-0.105
-288.603	800.000	-0.022	0.060
-287.589	800.000	0.086	0.280
-286.574	78.565	0.125	0.132
-285.559	19.373	0.143	-0.113
-284.545	210.107	-0.084	-0.131
-283.530	406.610	0.024	-0.050
-282.516	800.000	0.054	0.193
-281.501	-200.000	0.014	-0.209
-280.486	154.576	0.222	0.302
-279.472	800.000	0.020	-0.069
-278.457	263.069	-0.093	-0.159
-277.443	80.660	0.239	-0.255
-276.428	-200.000	0.027	0.201
-275.413	-91.161	0.045	-0.013
-274.399	100.261	-0.133	0.152
-273.384	-127.287	0.358	-0.052
-272.370	14.940	-0.119	0.092
-271.355	-91.236	0.094	0.027
-270.340	-186.632	0.320	-0.004
-269.326	39.744	0.120	-0.106
-268.311	323.959	0.228	-0.428
-267.297	195.239	-0.171	-0.256
-266.282	110.990	-0.228	-0.271
-265.267	-5.648	-0.112	-0.075
-264.253	3.600	-0.104	-0.075
-263.238	-32.571	0.241	-0.132
-262.224	-200.000	-0.012	0.178
-261.209	-200.000	0.015	-0.092
-260.195	72.996	-0.159	0.163
-259.180	-24.000	-0.212	0.125
-258.165	-47.345	0.242	0.116
-257.151	-169.797	0.186	0.007
-256.136	-42.978	0.114	0.057
-255.122	-141.081	-0.098	0.010
-254.107	-122.139	-0.257	0.042
-253.092	7.552	0.305	0.225
-252.078	-145.323	0.245	0.022
-251.063	150.576	0.110	0.148
-250.049	204.709	-0.126	0.193
-249.034	-148.426	0.500	-0.040
-248.019	402.673	-0.057	0.118
-247.005	37.268	-0.135	-0.118
-245.990	295.676	0.075	-0.136
-244.976	-18.182	-0.093	-0.057
-243.961	259.068	0.210	0.356
-242.946	-27.058	-0.224	-0.129
-241.932	78.383	0.217	-0.228
-240.917	-66.812	0.208	-0.081
-239.903	-18.056	0.267	0.165
-238.888	239.560	0.045	0.074
-237.873	687.286	-0.085	0.219
-236.859	2.512	0.050	-0.036
-235.844	8.638	0.159	0.118
-234.830	-152.077	-0.196	0.014
-233.815	-113.572	0.137	-0.026
-232.800	49.415	0.155	0.144
-231.786	-156.399	0.104	0.006
-230.771	115.872	-0.046	-0.055
-229.757	108.886	-0.066	-0.077
-228.742	-176.116	0.249	0.006
-227.727	800.000	0.103	0.340
-226.713	195.251	0.212	0.318
-225.698	-43.197	-0.132	-0.066
-224.684	64.143	0.204	-0.202
-223.669	93.628	-0.216	0.241
-222.655	109.351	0.083	0.098
-221.640	-200.000	-0.024	-0.113
-220.625	63.833	-0.148	-0.146
-219.611	-78.446	0.209	-0.071
-218.596	-49.529	-0.088	0.041
-217.582	-40.079	0.133	0.068
-216.567	-145.203	-0.231	0.021
-215.552	800.000	0.075	-0.320
-214.538	-34.182	-0.023	-0.013
-213.523	-200.000	-0.006	-0.190
-212.509	-54.890	-0.285	-0.127
-211.494	-116.698	0.246	-0.045
-210.479	-145.401	-0.276	0.024
-209.465	93.286	0.191	-0.213
-208.450	-90.096	-0.241	0.069
-207.436	-78.697	0.134	0.045
-206.421	-70.751	-0.180	-0.067
-205.406	-52.369	0.248	0.113
-204.392	140.057	0.024	0.031
-203.377	-121.126	0.132	0.022
-202.363	9.423	0.101	0.075
-201.348	-185.823	0.213	-0.003
-200.333	-97.561	0.250	0.064
-199.319	-184.478	-0.056	-0.001
-198.304	121.656	0.074	-0.091
-197.290	165.402	0.196	-0.273
-196.275	-48.706	0.121	0.057
-195.260	-110.233	-0.288	0.059
-194.246	-128.523	-0.285	0.040
-193.231	-200.000	0.004	0.283
-192.217	63.274	-0.027	-0.027
-191.202	-34.735	-0.254	-0.136
-190.187	197.704	0.118	0.177
-189.173	139.350	-0.017	0.022
-188.158	-200.000	0.022	-0.177
-187.144	186.512	0.157	0.229
-186.129	800.000	0.049	0.161
-185.114	800.000	-0.056	-0.182
-184.100	-3.374	0.178	-0.122
-183.085	-138.678	-0.414	0.045
-182.071	-82.006	0.071	0.023
-181.056	-200.000	-0.028	0.131
-180.042	27.216	-0.216	-0.178
-179.027	800.000	-0.042	-0.132
-178.012	123.846	0.063	-0.078
-176.998	154.730	0.108	-0.146
-175.983	-200.000	-0.006	-0.062
-174.969	193.833	-0.096	-0.143
-173.954	-200.000	-0.037	-0.191
-172.939	-200.000	-0.002	0.083
-171.925	288.618	-0.101	-0.180
-170.910	-45.721	-0.154	-0.075
-169.896	90.666	0.080	0.089
-168.881	288.661	-0.042	0.075
-167.866	56.451	0.068	0.065
-166.852	461.773	0.120	-0.262
-165.837	25.241	-0.180	-0.147
-164.823	776.259	0.103	0.275
-163.808	-200.000	-0.046	0.208
-162.793	264.817	0.088	0.151
-161.779	800.000	0.060	0.194
-160.764	-200.000	-0.035	-0.356
-159.750	4.337	0.281	0.202
-158.735	-91.218	0.173	0.049
-157.720	-200.000	-0.078	0.439
-156.706	2.809	-0.232	0.166
-155.691	96.142	0.231	0.259
-154.677	-200.000	0.004	0.148
-153.662	-200.000	-0.018	0.105
-152.647	-200.000	-0.038	0.411
-151.633	51.699	0.185	0.173
-150.618	-33.918	0.160	-0.087
-149.604	271.732	0.125	0.216
-148.589	382.120	-0.111	-0.224
-147.574	585.114	-0.108	-0.262
-146.560	-12.845	-0.234	0.150
-145.545	-200.000	0.008	-0.400
-144.531	77.006	-0.065	-0.067
-143.516	-169.306	-0.421	0.015
-142.502	15.395	0.265	0.204
-141.487	436.985	0.110	0.236
-140.472	-90.566	-0.398	-0.113
-139.458	800.000	-0.036	0.127
-138.443	-13.210	0.349	0.222
-137.429	800.000	-0.051	0.204
-136.414	35.370	0.085	-0.073
-135.399	265.579	0.205	0.350
-134.385	-200.000	0.026	-0.345
-133.370	-131.503	-0.082	-0.011
-132.356	52.259	-0.188	0.176
-131.341	784.943	0.064	0.173
-130.326	589.376	-0.108	0.261
-129.312	-200.000	-0.049	0.226
-128.297	-200.000	-0.028	-0.182
-127.283	-17.130	0.106	0.065
-126.268	-46.983	0.105	0.050
-125.253	-53.698	-0.221	0.099
-124.239	440.330	-0.114	0.245
-123.224	102.842	0.277	0.318
-122.210	-93.804	0.126	0.034
-121.195	-10.407	-0.099	0.065
-120.180	113.647	-0.279	-0.332
-119.166	-53.051	-0.103	-0.046
-118.151	-106.938	0.106	-0.023
-117.137	-22.080	0.097	0.058
-116.122	-64.416	0.259	0.103
-115.107	79.078	0.099	-0.104
-114.093	-60.497	0.315	-0.131
-113.078	800.000	0.102	-0.330
-112.064	-105.942	0.354	0.078
-111.049	800.000	0.042	0.125
-110.034	-78.524	-0.435	0.146
-109.020	58.250	0.066	0.064
-108.005	800.000	-0.044	-0.176
-106.991	129.799	0.114	-0.143
-105.976	689.775	0.091	0.232
-104.962	431.759	0.097	-0.207
-103.947	800.000	0.033	0.106
-102.932	288.515	-0.141	-0.250
-101.918	308.625	0.025	-0.046
-100.903	800.000	0.090	0.267
-99.889	-47.759	0.170	-0.081
-98.874	33.583	-0.038	0.033
-97.859	187.603	-0.100	-0.146
-96.845	432.141	-0.122	0.260
-95.830	-29.437	0.114	-0.064
-94.816	66.982	0.117	-0.117
-93.801	-117.083	-0.046	0.008
-92.786	-122.290	0.217	-0.035
-91.772	-54.098	0.562	-0.250
-90.757	-117.473	0.235	-0.042
-89.743	-115.929	-0.080	-0.015
-88.728	74.962	0.255	-0.263
-87.713	-13.814	-0.209	-0.132
-86.699	52.750	0.175	0.164
-85.684	-200.000	-0.042	-0.209
-84.670	44.188	-0.107	-0.097
-83.655	64.996	-0.104	0.103
-82.640	-45.451	-0.138	-0.067
-81.626	-91.255	0.176	0.049
-80.611	494.614	0.060	-0.135
-79.597	-70.466	0.138	-0.051
-78.582	-103.003	0.338	-0.079
-77.567	800.000	0.043	0.142
-76.553	59.626	0.292	0.282
-75.538	-73.607	-0.144	0.051
-74.524	800.000	0.061	0.241
-73.509	123.524	-0.167	-0.205
-72.494	-116.600	-0.207	0.037
-71.480	-163.904	0.426	0.019
-70.465	-200.000	0.069	-0.336
-69.451	-200.000	0.016	-0.139
-68.436	-33.630	-0.107	0.058
-67.422	-154.782	0.195	0.013
-66.407	-12.521	-0.209	0.133
-65.392	-16.188	-0.063	-0.039
-64.378	-56.915	-0.138	-0.060
-63.363	800.000	0.114	0.366
-62.349	106.722	-0.128	0.148
-61.334	263.296	-0.674	-1.146
-60.319	-30.673	0.691	0.383
-59.305	800.000	-0.270	-1.032
-58.290	516.902	0.555	1.270
-57.276	689.504	0.728	1.862
-56.261	-200.000	116.625	650.961
-55.246	504.725	1543.826	3496.379
-54.232	175.345	2711.846	3844.180
-53.217	106.083	2150.243	2490.297
-52.203	38.021	1584.755	1378.513
-51.188	29.715	1328.326	1105.973
-50.173	26.921	1289.138	1057.054
-49.159	52.959	1348.546	1261.792
-48.144	51.281	1361.157	1263.561
-47.130	29.807	1315.577	1095.727
-46.115	26.446	1297.487	1060.945
-45.100	26.275	1292.322	1055.679
-44.086	26.224	1289.775	1053.257
-43.071	26.185	1287.608	1051.218
-42.057	26.260	1284.975	1049.467
-41.042	26.304	1283.410	1048.400
-40.027	26.246	1282.009	1046.880
-39.013	26.263	1280.509	1045.707
-37.998	26.281	1278.756	1044.340
-36.984	26.334	1276.694	1042.918
-35.969	26.414	1274.773	1041.770
-34.954	26.310	1273.373	1039.988
-33.940	26.440	1271.818	1039.421
-32.925	26.555	1270.074	1038.616
-31.911	26.447	1268.978	1037.061
-30.896	26.518	1267.221	1035.987
-29.881	26.587	1266.455	1035.715
-28.867	26.501	1264.992	1033.990
-27.852	26.553	1263.211	1032.791
-26.838	26.463	1262.153	1031.368
-25.823	26.421	1260.819	1029.998
-24.809	26.437	1259.551	1029.015
-23.794	26.348	1258.599	1027.686
-22.779	26.530	1256.718	1027.142
-21.765	26.465	1256.007	1026.154
-20.750	26.507	1254.575	1025.183
-19.736	26.372	1253.651	1023.622
-18.721	26.353	1252.215	1022.301
-17.706	26.341	1251.324	1021.466
-16.692	26.528	1249.618	1021.086
-15.677	26.606	1248.052	1020.206
-14.663	26.564	1247.025	1019.090
-13.648	26.345	1246.588	1017.457
-12.633	26.481	1245.271	1017.111
-11.619	26.372	1244.559	1015.874
-10.604	26.440	1243.679	1015.497
-9.590	26.388	1242.561	1014.251
-8.575	26.247	1241.850	1012.845
-7.560	26.375	1240.827	1012.682
-6.546	26.375	1240.189	1012.125
-5.531	26.412	1239.190	1011.474
-4.517	26.309	1238.069	1009.943
-3.502	26.420	1237.485	1010.045
-2.487	26.503	1236.154	1009.387
-1.473	26.312	1232.614	1005.390
-0.458	24.819	1217.736	985.002
0.556	22.918	1201.280	947.428
1.571	18.982	1207.337	930.863
2.586	18.135	1221.763	937.260
3.600	18.091	1209.327	927.396
4.615	14.077	1139.905	853.514
5.629	7.233	1069.345	767.554
6.644	4.289	1051.641	740.735
7.659	4.169	1049.330	738.473
8.673	3.799	1048.464	736.035
9.688	3.934	1046.669	735.349
10.702	4.316	1044.992	735.918
11.717	8.714	1050.459	760.638
12.731	16.428	1061.876	805.752
13.746	21.349	1067.160	833.206
14.761	22.399	1068.519	839.202
15.775	21.583	1066.911	833.983
16.790	20.707	1064.967	828.221
17.804	20.129	1063.295	824.098
18.819	19.795	1062.428	821.767
19.834	19.849	1062.205	821.781
20.848	19.797	1061.233	820.706
21.863	19.656	1060.493	819.395
22.877	19.444	1059.597	817.626
23.892	19.479	1059.009	817.266
24.907	19.438	1058.303	816.454
25.921	19.214	1057.664	814.829
26.936	19.399	1056.021	814.366
27.950	19.365	1054.646	813.072
28.965	19.537	1053.352	812.810
29.980	19.611	1052.180	812.184
30.994	19.709	1051.094	811.734
32.009	19.833	1049.695	811.165
33.023	19.786	1049.109	810.418
34.038	19.783	1047.840	809.355
35.053	19.475	1046.925	807.134
36.067	19.444	1046.747	806.781
37.082	19.486	1045.805	806.177
38.096	19.699	1045.144	806.594
39.111	19.767	1044.278	806.168
40.126	19.537	1042.745	803.844
41.140	19.170	1041.095	800.796
42.155	19.012	1039.769	798.969
43.169	18.891	1038.983	797.735
44.184	18.956	1037.832	797.082
45.199	18.868	1037.301	796.193
46.213	19.211	1036.373	797.002
47.228	19.359	1036.115	797.413
48.242	19.462	1034.857	796.851
49.257	19.441	1033.557	795.683
50.271	19.617	1033.088	796.063
51.286	19.783	1031.930	795.866
52.301	19.510	1031.055	793.866
53.315	19.294	1030.001	791.990
54.330	19.149	1029.173	790.619
55.344	19.191	1027.967	789.813
56.359	19.264	1027.126	789.432
57.374	19.159	1026.180	788.155
58.388	18.978	1025.111	786.437
59.403	18.931	1024.758	785.882
60.417	19.010	1023.856	785.480
61.432	18.855	1023.539	784.459
62.447	18.881	1021.850	783.215
63.461	18.829	1021.437	782.593
64.476	18.860	1019.724	781.352
65.490	18.804	1019.520	780.871
66.505	18.849	1019.113	780.696
67.520	18.806	1018.589	780.027
68.534	18.832	1017.542	779.276
69.549	18.779	1016.513	778.177
70.563	18.629	1015.342	776.533
71.578	18.660	1014.294	775.804
72.593	18.477	1014.258	774.880
73.607	18.511	1013.315	774.247
74.622	18.479	1012.854	773.683
75.636	18.555	1012.411	773.617
76.651	18.587	1011.617	773.084
77.666	18.686	1011.219	773.161
78.680	18.639	1010.258	772.143
79.695	18.638	1010.148	771.990
80.709	18.921	1009.419	772.634
81.724	19.050	1008.566	772.492
82.739	19.169	1008.377	772.813
83.753	19.331	1008.095	773.255
84.768	19.749	1006.919	774.157
85.782	20.063	1005.890	774.700
86.797	19.959	1004.932	773.429
87.812	19.588	1004.020	771.007
88.826	19.784	1003.191	771.173
89.841	19.831	1002.353	770.669
90.855	19.898	1001.662	770.371
91.870	19.890	1001.171	769.889
92.884	19.741	1000.207	768.416
93.899	19.896	998.847	767.990
94.914	19.906	998.256	767.513
95.928	19.798	997.434	766.334
96.943	19.648	996.423	764.827
97.957	19.470	995.897	763.568
98.972	19.736	994.674	763.738
99.987	19.843	993.782	763.460
101.001	19.736	992.962	762.288
102.016	19.732	991.920	761.404
103.030	19.675	991.535	760.791
104.045	19.668	990.828	760.148
105.060	19.581	989.594	758.750
106.074	19.279	988.173	756.271
107.089	19.048	986.807	754.146
108.103	18.947	985.996	753.017
109.118	18.968	985.049	752.319
110.133	18.838	983.669	750.633
111.147	18.762	983.338	749.980
112.162	18.811	982.567	749.538
113.176	19.029	982.144	750.103
114.191	19.192	981.196	750.019
115.206	19.118	980.555	749.142
116.220	19.040	979.796	748.159
117.235	19.097	978.952	747.693
118.249	18.965	978.052	746.369
119.264	18.867	977.194	745.221
120.279	18.825	976.714	744.608
121.293	18.679	975.930	743.314
122.308	18.535	974.885	741.827
123.322	18.474	973.803	740.674
124.337	18.507	972.784	739.979
125.352	18.544	972.161	739.596
126.366	18.631	970.433	738.592
127.381	18.640	969.730	738.032
128.395	18.572	969.468	737.473
129.410	18.824	967.877	737.278
130.424	18.792	967.529	736.810
131.439	18.886	966.976	736.728
132.454	18.980	965.915	736.257
133.468	19.036	965.024	735.752
134.483	19.154	964.184	735.550
135.497	19.035	963.612	734.541
136.512	19.093	962.720	734.045
137.527	19.166	961.873	733.646
138.541	19.032	961.617	732.813
139.556	19.234	960.856	733.028
140.570	19.450	960.098	733.304
141.585	19.548	959.873	733.481
142.600	19.674	958.707	733.062
143.614	19.798	957.992	732.975
144.629	19.795	957.190	732.283
145.643	19.827	956.163	731.568
146.658	19.457	955.178	729.187
147.673	19.368	953.665	727.591
148.687	19.213	952.897	726.287
149.702	19.194	951.685	725.222
150.716	19.058	951.172	724.195
151.731	19.167	950.554	724.117
152.746	19.204	950.020	723.801
153.760	19.374	949.109	723.755
154.775	19.352	948.568	723.187
155.789	19.522	948.069	723.456
156.804	19.528	947.191	722.750
157.819	19.588	946.666	722.532
158.833	19.800	946.581	723.292
159.848	19.785	945.514	722.348
160.862	19.552	944.759	720.735
161.877	19.277	942.787	718.023
162.892	19.199	941.439	716.609
163.906	19.176	941.031	716.139
164.921	18.867	941.133	714.868
165.935	19.200	939.332	714.820
166.950	19.231	938.855	714.521
167.964	19.342	937.464	713.859
168.979	19.186	936.731	712.591
169.994	19.280	935.902	712.288
171.008	19.371	935.565	712.343
172.023	19.624	934.831	712.767
173.037	19.833	934.089	712.999
174.052	19.516	933.420	711.118
175.067	19.146	932.547	708.869
176.081	19.054	931.626	707.728
177.096	19.082	931.337	707.560
178.110	19.214	930.667	707.531
179.125	19.190	929.715	706.647
180.140	19.303	929.643	706.991
181.154	19.435	929.595	707.434
182.169	19.656	929.112	707.909
183.183	19.600	928.866	707.428
184.198	19.549	927.667	706.247
185.213	19.636	927.081	706.094
186.227	19.731	926.485	705.964
187.242	19.773	925.990	705.695
188.256	19.954	925.238	705.798
189.271	19.904	924.786	705.188
190.286	19.600	923.347	702.792
191.300	18.941	922.445	699.361
192.315	18.946	921.523	698.623
193.329	19.026	921.277	698.697
194.344	19.267	920.740	699.209
195.359	19.363	919.798	698.818
196.373	19.503	919.483	699.087
197.388	19.559	919.550	699.300
198.402	19.978	919.106	700.596
199.417	20.158	918.349	700.685
200.432	20.083	917.951	700.018
201.446	20.320	917.709	700.729
202.461	20.479	917.085	700.831
203.475	20.013	916.810	698.678
204.490	19.732	915.803	696.718
205.504	19.777	914.687	695.987
206.519	19.828	913.450	695.190
207.534	19.753	913.381	694.776
208.548	19.804	912.635	694.351
209.563	19.682	911.909	693.248
210.577	19.915	911.114	693.517
211.592	20.158	910.723	694.129
212.607	20.147	910.070	693.527
213.621	20.026	909.331	692.416
214.636	20.037	908.412	691.702
215.650	20.121	907.711	691.440
216.665	20.082	907.394	690.983
217.680	20.433	906.887	691.935
218.694	20.399	906.108	691.143
219.709	20.207	905.537	689.884
220.723	20.279	904.555	689.361
221.738	20.063	903.883	687.927
222.753	20.098	903.726	687.885
223.767	20.238	903.296	688.056
224.782	20.371	902.499	687.914
225.796	20.258	902.357	687.296
226.811	20.295	900.970	686.327
227.826	20.035	900.514	684.890
228.840	20.151	899.318	684.377
229.855	20.017	898.787	683.385
230.869	20.061	897.893	682.818
231.884	19.931	897.749	682.134
232.899	19.922	896.614	681.176
233.913	19.791	895.927	680.082
234.928	19.603	895.284	678.793
235.942	19.670	894.837	678.659
236.957	19.762	894.220	678.491
237.972	19.777	893.637	678.046
238.986	19.717	893.096	677.340
240.001	19.716	892.412	676.760
241.015	19.836	891.832	676.728
242.030	19.904	891.634	676.784
243.045	20.056	890.955	676.802
244.059	20.088	890.043	676.177
245.074	20.033	889.885	675.780
246.088	20.297	889.154	676.195
247.103	20.285	888.863	675.865
248.117	20.545	888.730	676.718
249.132	20.840	888.520	677.647
250.147	20.980	888.185	677.873
251.161	21.114	887.468	677.789
252.176	20.990	886.914	676.824
253.190	21.209	885.829	676.785
254.205	21.189	885.699	676.548
255.220	21.116	884.630	675.390
256.234	20.971	884.290	674.509
257.249	21.036	883.169	673.844
258.263	20.993	882.534	673.135
259.278	21.096	881.911	672.997
260.293	21.141	881.447	672.758
261.307	21.165	880.895	672.370
262.322	21.134	880.713	672.051
263.336	21.330	879.977	672.182
264.351	21.137	878.881	670.545
265.366	21.223	878.504	670.529
266.380	21.102	877.795	669.467
267.395	21.173	876.659	668.813
268.409	20.885	876.371	667.428
269.424	20.928	875.571	666.925
270.439	20.954	874.797	666.377
271.453	20.887	873.722	665.242
272.468	20.733	873.947	664.766
273.482	20.833	872.743	664.173
274.497	20.826	872.210	663.682
275.512	20.873	871.600	663.339
276.526	20.863	871.447	663.124
277.541	21.026	871.007	663.353
278.555	21.240	870.218	663.504
279.570	21.389	869.767	663.668
280.585	21.238	869.498	662.832
281.599	21.021	868.424	661.133
282.614	20.905	867.545	659.964
283.628	20.940	866.874	659.529
284.643	20.745	866.604	658.525
285.657	20.981	865.434	658.471
286.672	20.933	865.466	658.257
287.687	21.117	864.305	658.007
288.701	21.060	864.105	657.583
289.716	21.068	863.364	656.990
290.730	21.035	863.199	656.683
291.745	21.179	862.403	656.561
292.760	21.228	861.743	656.184
293.774	21.540	861.102	656.811
294.789	21.180	861.186	655.464
295.803	21.096	859.829	654.057
296.818	21.051	858.757	653.016
297.833	21.034	858.264	652.521
298.847	21.141	857.676	652.416
299.862	21.317	856.936	652.451
300.876	21.219	857.109	652.162
301.891	21.352	856.860	652.408
302.906	21.635	855.815	652.611
303.920	21.691	855.702	652.675
304.935	21.828	855.279	652.804
305.949	21.613	854.061	651.018
306.964	21.447	853.203	649.690
307.979	21.446	852.686	649.235
308.993	21.633	852.365	649.628
310.008	21.666	851.922	649.354
311.022	21.536	850.994	648.109
312.037	21.197	850.976	646.782
313.052	20.987	850.175	645.339
314.066	21.026	848.922	644.475
315.081	21.026	848.720	644.265
316.095	20.947	848.438	643.702
317.110	21.169	847.217	643.536
318.125	20.999	846.817	642.548
319.139	21.038	846.461	642.367
320.154	21.201	845.880	642.467
321.168	21.217	845.602	642.260
322.183	21.136	845.241	641.631
323.197	21.303	844.300	641.473
324.212	21.403	843.737	641.353
325.227	21.354	843.171	640.687
326.241	21.203	842.744	639.753
327.256	21.127	842.543	639.267
328.270	21.156	841.301	638.373
329.285	21.048	841.161	637.817
330.300	20.945	840.629	636.981
331.314	21.173	839.948	637.240
332.329	21.344	839.809	637.703
333.343	21.446	839.461	637.754
334.358	21.473	838.971	637.423
335.373	21.518	838.634	637.276
336.387	21.643	838.347	637.454
337.402	21.606	838.368	637.278
338.416	21.767	838.180	637.664
339.431	21.842	838.163	637.871
340.446	22.031	837.344	637.877
341.460	22.151	837.101	638.070
342.475	22.241	837.039	638.292
343.489	22.278	836.238	637.761
344.504	22.369	835.874	637.756
345.519	22.419	835.135	637.317
346.533	22.106	834.565	635.694
347.548	21.957	833.964	634.641
348.562	21.785	833.069	633.282
349.577	21.580	832.609	632.138
350.592	21.509	831.569	631.033
351.606	21.533	831.165	630.758
352.621	21.667	830.343	630.562
353.635	21.802	829.437	630.303
354.650	21.769	829.216	629.961
355.665	21.802	828.645	629.588
356.679	21.905	827.819	629.275
357.694	21.918	827.618	629.112
358.708	21.916	826.934	628.530
359.723	21.889	826.224	627.838
360.738	21.917	825.654	627.451
361.752	21.916	825.378	627.183
362.767	22.359	824.406	627.967
363.781	22.479	824.488	628.405
364.796	22.462	823.957	627.882
365.810	22.591	823.826	628.186
366.825	22.494	823.711	627.697
367.840	22.308	823.053	626.479
368.854	22.423	821.750	625.841
369.869	22.208	821.541	624.861
370.883	22.348	821.323	625.138
371.898	22.441	821.403	625.475
372.913	22.623	820.500	625.378
373.927	22.376	820.036	624.093
374.942	22.354	819.775	623.762
375.956	22.554	819.196	623.971
376.971	22.561	819.012	623.802
377.986	22.802	818.548	624.246
379.000	22.777	817.849	623.570
380.015	22.700	817.255	622.790
381.029	22.615	817.003	622.244
382.044	22.682	816.305	621.891
383.059	22.747	815.647	621.563
384.073	22.655	814.749	620.503
385.088	22.378	814.025	618.920
386.102	22.337	813.485	618.313
387.117	22.171	812.887	617.219
388.132	22.153	812.664	616.934
389.146	22.326	812.124	617.077
390.161	22.497	811.731	617.320
391.175	22.578	811.388	617.288
392.190	22.338	810.585	615.785
393.205	22.135	810.371	614.858
394.219	22.125	809.503	614.110
395.234	22.240	808.757	613.891
396.248	22.218	808.441	613.519
397.263	22.019	807.987	612.425
398.278	22.065	807.698	612.313
399.292	22.057	807.020	611.716
400.307	22.070	806.846	611.577
401.321	21.979	806.446	610.904
402.336	22.174	806.089	611.258
403.350	22.412	805.705	611.737
404.365	22.518	805.499	611.895
405.380	22.685	805.107	612.124
406.394	22.773	804.493	611.909
407.409	22.929	803.988	612.012
408.423	23.007	803.741	612.039
409.438	23.082	803.523	612.077
410.453	23.200	803.026	612.052
411.467	23.186	802.748	611.737
412.482	23.059	802.770	611.262
413.496	23.231	801.889	611.132
414.511	23.202	801.888	610.978
415.526	23.040	801.231	609.861
416.540	23.065	800.421	609.280
417.555	22.992	800.157	608.771
418.569	22.908	799.771	608.136
419.584	23.021	799.147	607.994
420.599	23.118	798.809	608.018
421.613	165.732	1371.667	1799.083
422.628	143.990	1455.138	1799.180
