DTS Sentinel unit serial number:	SN413079Multiplexer serial number:	ORYXHardware model number:	OX4-SRSoftware version number:	ORYX F/W v4.00 Oryx Data Collector v3.7.2.0data status	okinstallation	princeton_trtdifferential loss correction	single-endedforward channel	channel 1reverse channel	N/Adate	2019/09/13time	06:30:35forward acquisition time	60.00reverse acquisition time	0.00gamma	496.2192k internal	0.2335k external	0.2335temperature offset calibration	1.0161default loss term (dB/km)	0.3790temperature slope calibration	1.0000multiplexer offset coefficient	1.0000multiplexer slope coefficient	1.0000fibre end	0.00T internal ref (°C)	26.06T ext. ref 1 (°C)	4.08T ext. ref 2 (°C)	20.62length (m)	temperature (°C)	Stokes	anti-Stokes-747.200	267.759	0.125	-0.220
-746.185	800.000	-0.026	0.107
-745.171	666.128	-0.160	-0.415
-744.156	-79.636	-0.422	-0.143
-743.142	-46.822	0.088	0.043
-742.127	-58.898	-0.304	-0.132
-741.112	800.000	0.032	-0.108
-740.098	-16.649	-0.090	0.057
-739.083	-84.876	-0.445	-0.140
-738.069	4.891	0.265	0.196
-737.054	13.705	0.143	-0.112
-736.039	-139.234	-0.298	-0.032
-735.025	-200.000	-0.014	-0.143
-734.010	61.327	-0.195	-0.195
-732.996	-200.000	0.017	-0.238
-731.981	92.363	-0.366	-0.414
-730.966	-172.531	-0.382	0.012
-729.952	180.103	-0.029	0.043
-728.937	-200.000	0.014	-0.433
-727.923	-59.818	0.099	0.043
-726.908	102.751	-0.204	0.240
-725.894	333.852	0.111	-0.216
-724.879	144.581	-0.095	-0.128
-723.864	-200.000	-0.033	-0.149
-722.850	323.233	0.110	-0.211
-721.835	-109.709	-0.135	-0.029
-720.821	-95.276	0.268	0.073
-719.806	-200.000	-0.013	0.150
-718.791	545.017	0.107	0.257
-717.777	-200.000	-0.017	-0.175
-716.762	-23.144	-0.120	0.073
-715.748	6.238	-0.147	-0.109
-714.733	93.328	0.208	0.237
-713.718	-111.394	0.135	0.028
-712.704	220.039	-0.081	0.131
-711.689	180.690	-0.195	0.287
-710.675	800.000	0.084	0.241
-709.660	172.900	0.153	-0.222
-708.645	137.769	-0.067	-0.088
-707.631	64.361	0.146	0.147
-706.616	204.747	-0.066	0.103
-705.602	202.797	0.245	-0.380
-704.587	800.000	0.078	-0.261
-703.572	-134.014	-0.065	0.008
-702.558	-69.547	0.423	0.162
-701.543	-200.000	0.048	-0.224
-700.529	-198.164	0.220	0.001
-699.514	-168.185	-0.524	-0.020
-698.499	800.000	0.011	0.035
-697.485	-200.000	0.005	-0.034
-696.470	135.501	0.069	0.090
-695.456	-42.671	0.230	0.117
-694.441	800.000	0.043	0.160
-693.426	-142.294	0.150	-0.015
-692.412	-200.000	-0.034	-0.228
-691.397	-6.454	0.072	0.049
-690.383	-39.513	-0.267	0.140
-689.368	-200.000	0.086	-0.441
-688.354	-122.535	0.146	0.024
-687.339	800.000	0.009	0.031
-686.324	106.402	0.237	0.282
-685.310	-15.639	-0.228	0.146
-684.295	322.851	0.087	0.165
-683.281	-45.253	-0.200	-0.099
-682.266	785.020	-0.034	0.095
-681.251	308.741	-0.079	0.147
-680.237	-200.000	-0.001	-0.088
-679.222	-2.523	0.165	-0.116
-678.208	-75.790	0.161	0.057
-677.193	81.034	0.147	-0.159
-676.178	800.000	0.049	-0.203
-675.164	800.000	0.006	0.022
-674.149	130.192	-0.107	0.137
-673.135	-111.052	0.449	-0.092
-672.120	800.000	0.020	-0.061
-671.105	-22.970	-0.191	0.115
-670.091	-106.958	0.139	-0.031
-669.076	133.383	-0.259	-0.335
-668.062	172.500	0.089	-0.128
-667.047	-59.158	-0.205	-0.088
-666.032	21.069	0.144	-0.117
-665.018	800.000	0.008	0.026
-664.003	63.626	-0.181	-0.182
-662.989	582.558	-0.093	0.229
-661.974	49.040	0.228	-0.215
-660.959	-101.864	-0.205	0.050
-659.945	-145.089	-0.043	-0.004
-658.930	-118.416	0.210	-0.037
-657.916	772.598	-0.028	0.076
-656.901	421.045	-0.085	-0.182
-655.886	217.219	0.235	0.374
-654.872	-200.000	0.054	0.380
-653.857	262.332	-0.064	-0.111
-652.843	-145.642	-0.354	0.032
-651.828	-34.212	0.338	-0.186
-650.814	207.964	-0.218	-0.341
-649.799	19.875	-0.260	-0.210
-648.784	358.689	-0.119	-0.238
-647.770	718.182	0.100	0.267
-646.755	235.185	0.205	0.338
-645.741	-82.177	0.191	0.062
-644.726	298.332	-0.030	0.055
-643.711	402.487	-0.114	0.240
-642.697	-36.682	-0.280	0.150
-641.682	-200.000	-0.020	0.096
-640.668	95.024	-0.126	0.143
-639.653	-101.202	-0.094	0.023
-638.638	98.611	0.086	0.099
-637.624	13.361	-0.198	0.154
-636.609	-28.841	0.260	0.149
-635.595	41.897	0.206	-0.187
-634.580	-200.000	-0.019	0.087
-633.565	-38.998	-0.210	-0.110
-632.551	295.941	0.066	-0.121
-631.536	89.352	0.143	0.160
-630.522	-30.512	-0.099	0.056
-629.507	-39.379	0.159	0.084
-628.492	26.083	0.198	-0.166
-627.478	-200.000	-0.006	-0.178
-626.463	383.089	0.168	-0.346
-625.449	210.030	-0.249	0.391
-624.434	65.651	0.059	-0.060
-623.419	-6.063	0.319	-0.218
-622.405	-11.933	-0.189	-0.124
-621.390	0.215	0.056	0.040
-620.376	800.000	-0.066	-0.224
-619.361	-138.132	-0.397	0.044
-618.346	638.840	0.068	0.173
-617.332	-54.747	0.218	0.098
-616.317	-136.059	-0.216	0.025
-615.303	-200.000	0.002	-0.216
-614.288	-120.875	0.103	-0.017
-613.273	-200.000	0.030	-0.337
-612.259	268.757	-0.116	-0.203
-611.244	-44.652	-0.279	-0.139
-610.230	483.135	-0.144	-0.328
-609.215	-121.110	0.305	-0.051
-608.201	-199.036	0.401	0.002
-607.186	-49.783	-0.274	-0.130
-606.171	-11.383	-0.269	-0.177
-605.157	-116.949	0.125	-0.023
-604.142	50.041	-0.199	-0.187
-603.128	12.614	0.076	0.058
-602.113	-135.543	-0.334	-0.040
-601.098	-26.804	0.451	-0.263
-600.084	-16.633	0.295	-0.187
-599.069	517.470	0.059	0.139
-598.055	-63.747	0.176	-0.072
-597.040	-0.442	-0.254	-0.180
-596.025	124.236	-0.025	-0.031
-595.011	324.871	-0.047	-0.089
-593.996	95.821	-0.199	0.226
-592.982	67.286	0.238	0.242
-591.967	-26.982	-0.292	0.170
-590.952	18.577	0.147	0.117
-589.938	16.887	-0.215	0.170
-588.923	-98.254	-0.272	-0.070
-587.909	-34.852	-0.109	0.059
-586.894	-35.636	0.173	0.094
-585.879	31.619	0.130	-0.112
-584.865	-200.000	0.070	-0.375
-583.850	87.650	0.173	0.191
-582.836	-96.488	-0.208	-0.055
-581.821	800.000	0.051	0.152
-580.806	59.187	-0.071	-0.069
-579.792	-200.000	-0.014	-0.406
-578.777	-91.636	-0.223	-0.063
-577.763	-200.000	-0.034	0.314
-576.748	-127.387	-0.158	-0.023
-575.733	-96.495	0.187	-0.049
-574.719	357.917	0.053	-0.106
-573.704	-48.044	-0.108	0.052
-572.690	217.463	0.093	0.147
-571.675	-125.997	-0.294	-0.044
-570.661	-14.931	0.228	-0.146
-569.646	118.287	0.123	0.151
-568.631	-200.000	0.033	0.384
-567.617	260.171	-0.145	-0.251
-566.602	-200.000	-0.006	-0.045
-565.588	-65.695	0.221	0.089
-564.573	800.000	0.013	0.049
-563.558	-200.000	-0.013	-0.217
-562.544	-200.000	-0.015	-0.106
-561.529	100.494	0.234	0.271
-560.515	221.907	0.177	-0.283
-559.500	225.282	0.114	-0.184
-558.485	254.719	-0.070	-0.120
-557.471	83.994	-0.136	0.148
-556.456	-200.000	-0.061	0.267
-555.442	83.132	-0.248	0.269
-554.427	800.000	-0.082	-0.258
-553.412	-200.000	-0.006	-0.320
-552.398	39.893	-0.109	0.097
-551.383	-141.448	0.155	0.016
-550.369	192.234	-0.088	0.133
-549.354	-97.769	0.261	-0.067
-548.339	112.676	-0.110	0.132
-547.325	392.672	-0.107	0.223
-546.310	312.603	0.074	-0.139
-545.296	-112.155	-0.306	0.061
-544.281	-123.014	0.178	-0.029
-543.266	332.901	-0.201	-0.388
-542.252	11.479	0.191	-0.146
-541.237	339.443	0.122	-0.238
-540.223	-200.000	-0.056	-0.361
-539.208	62.663	0.111	0.110
-538.193	262.975	-0.119	-0.207
-537.179	-200.000	-0.016	-0.313
-536.164	-119.448	0.124	0.021
-535.150	-168.236	-0.205	-0.008
-534.135	-200.000	0.009	-0.132
-533.121	-200.000	-0.019	-0.093
-532.106	-24.283	-0.108	-0.064
-531.091	-200.000	0.000	0.180
-530.077	-200.000	-0.025	0.206
-529.062	-77.929	0.555	-0.191
-528.048	-200.000	0.010	-0.078
-527.033	-49.909	-0.198	0.093
-526.018	416.743	0.052	0.112
-525.004	300.263	-0.211	0.388
-523.989	329.726	-0.054	-0.104
-522.975	769.929	0.025	0.067
-521.960	-57.512	0.149	0.065
-520.945	800.000	0.057	-0.233
-519.931	-200.000	-0.020	0.148
-518.916	100.151	-0.027	-0.032
-517.902	-200.000	-0.021	0.256
-516.887	131.360	0.050	-0.065
-515.872	402.187	-0.035	0.073
-514.858	-56.972	-0.213	-0.094
-513.843	-6.968	0.173	-0.117
-512.829	-44.085	0.057	0.028
-511.814	-41.907	-0.232	-0.118
-510.799	42.121	-0.050	0.045
-509.785	-46.527	-0.210	-0.103
-508.770	-54.582	-0.085	-0.038
-507.756	-200.000	-0.017	0.143
-506.741	426.687	-0.079	-0.169
-505.726	423.880	-0.040	-0.085
-504.712	-73.675	0.078	-0.028
-503.697	-200.000	-0.015	0.387
-502.683	-133.197	-0.231	0.029
-501.668	69.095	0.355	0.364
-500.653	800.000	0.046	-0.185
-499.639	-200.000	0.011	-0.137
-498.624	-132.174	0.017	0.002
-497.610	53.165	0.294	-0.281
-496.595	33.218	-0.099	0.085
-495.581	41.924	0.347	0.313
-494.566	104.919	-0.109	0.127
-493.551	800.000	0.036	0.127
-492.537	-80.703	0.081	-0.027
-491.522	-200.000	0.015	-0.401
-490.508	-63.362	-0.061	-0.025
-489.493	-81.422	-0.460	0.151
-488.478	28.512	-0.135	-0.114
-487.464	-150.058	0.332	-0.026
-486.449	198.586	-0.232	-0.353
-485.435	65.599	-0.120	-0.121
-484.420	-200.000	0.015	-0.145
-483.405	75.530	0.253	0.265
-482.391	276.527	0.092	0.163
-481.376	-200.000	-0.024	-0.253
-480.362	171.748	0.061	-0.087
-479.347	-116.548	-0.207	0.038
-478.332	-200.000	-0.005	0.070
-477.318	337.233	0.062	0.120
-476.303	182.931	0.142	-0.209
-475.289	-60.743	-0.103	-0.043
-474.274	-165.879	0.392	0.017
-473.259	318.665	0.081	0.152
-472.245	-77.693	0.125	-0.043
-471.230	388.733	-0.037	-0.076
-470.216	295.181	-0.119	0.216
-469.201	-122.547	0.105	0.017
-468.186	-200.000	-0.011	0.159
-467.172	-122.885	-0.092	-0.015
-466.157	-116.124	-0.128	-0.024
-465.143	106.880	-0.051	0.060
-464.128	800.000	0.034	-0.131
-463.113	-59.803	-0.030	-0.013
-462.099	-80.415	0.347	0.115
-461.084	42.333	0.386	0.349
-460.070	-200.000	-0.017	-0.401
-459.055	-2.210	-0.150	0.105
-458.040	99.067	-0.115	-0.132
-457.026	800.000	0.104	-0.293
-456.011	800.000	-0.021	-0.069
-454.997	-94.915	0.199	-0.053
-453.982	211.342	0.051	0.080
-452.968	-110.932	-0.041	-0.008
-451.953	-49.600	0.180	0.085
-450.938	-200.000	0.014	-0.115
-449.924	800.000	-0.092	-0.263
-448.909	3.233	-0.239	-0.173
-447.895	489.843	0.031	-0.070
-446.880	-79.112	0.383	0.129
-445.865	-23.753	-0.043	0.025
-444.851	-200.000	-0.030	-0.147
-443.836	92.065	-0.135	0.151
-442.822	-200.000	-0.026	-0.282
-441.807	-133.020	0.219	-0.028
-440.792	-43.890	0.296	-0.148
-439.778	73.594	0.298	-0.310
-438.763	-38.750	-0.313	-0.164
-437.749	-200.000	-0.023	-0.282
-436.734	75.201	-0.090	0.094
-435.719	44.990	0.210	0.192
-434.705	127.089	-0.057	0.072
-433.690	16.023	-0.255	-0.199
-432.676	-52.541	-0.275	0.126
-431.661	800.000	-0.051	0.147
-430.646	-123.222	-0.262	-0.042
-429.632	0.295	0.080	-0.057
-428.617	-29.073	0.104	0.059
-427.603	38.646	-0.215	-0.191
-426.588	-88.090	0.219	-0.065
-425.573	-1.478	-0.175	-0.123
-424.559	-132.098	0.152	0.020
-423.544	-97.061	0.193	0.050
-422.530	800.000	0.028	0.103
-421.515	193.930	-0.015	-0.022
-420.500	-200.000	-0.047	-0.614
-419.486	-78.837	-0.086	-0.029
-418.471	63.994	0.140	-0.139
-417.457	153.800	0.209	0.285
-416.442	-65.328	-0.090	-0.036
-415.428	148.515	0.209	-0.280
-414.413	800.000	-0.046	0.160
-413.398	-147.176	-0.243	-0.021
-412.384	84.837	-0.319	0.347
-411.369	-125.253	0.386	-0.059
-410.355	-200.000	0.004	0.067
-409.340	259.331	0.119	0.203
-408.325	-200.000	-0.007	-0.252
-407.311	-171.593	-0.350	-0.011
-406.296	-42.494	-0.070	-0.035
-405.282	165.104	0.023	-0.032
-404.267	-18.203	0.213	-0.132
-403.252	114.179	0.320	0.386
-402.238	-7.994	0.098	-0.065
-401.223	-129.075	-0.186	0.026
-400.209	-91.397	0.173	-0.049
-399.194	19.701	-0.156	-0.124
-398.179	50.571	0.147	0.138
-397.165	-54.789	0.497	0.222
-396.150	-77.129	0.136	-0.047
-395.136	173.963	0.140	0.201
-394.121	-200.000	-0.028	0.129
-393.106	800.000	0.077	-0.215
-392.092	-13.260	-0.166	-0.107
-391.077	282.341	-0.100	0.177
-390.063	564.997	0.048	0.115
-389.048	-50.697	-0.042	-0.020
-388.033	117.399	-0.150	-0.183
-387.019	241.275	0.193	-0.320
-386.004	-38.427	-0.101	0.053
-384.990	-100.771	-0.107	-0.026
-383.975	41.940	-0.159	0.143
-382.960	800.000	-0.062	0.194
-381.946	6.369	0.117	0.086
-380.931	-200.000	0.007	0.385
-379.917	146.287	0.157	0.209
-378.902	153.629	-0.057	0.077
-377.888	156.673	0.157	0.215
-376.873	485.393	-0.054	-0.121
-375.858	-64.460	-0.198	0.080
-374.844	-17.131	-0.218	-0.136
-373.829	39.018	-0.377	0.334
-372.815	-114.755	0.118	0.022
-371.800	136.316	-0.034	0.044
-370.785	-84.423	-0.050	-0.016
-369.771	128.130	-0.037	0.046
-368.756	92.590	0.216	0.241
-367.742	121.643	-0.081	0.100
-366.727	-30.016	0.214	0.120
-365.712	-200.000	-0.012	0.170
-364.698	57.917	-0.216	0.209
-363.683	-13.928	-0.203	-0.130
-362.669	34.442	0.157	0.136
-361.654	-161.068	-0.197	0.010
-360.639	122.048	0.010	0.012
-359.625	-200.000	-0.027	0.308
-358.610	23.048	-0.153	0.124
-357.596	-200.000	0.026	0.484
-356.581	-112.026	-0.255	0.051
-355.566	-125.393	-0.173	-0.026
-354.552	-200.000	0.002	0.138
-353.537	86.426	0.129	-0.140
-352.523	309.316	0.182	0.337
-351.508	792.910	-0.076	-0.208
-350.493	-44.505	0.058	0.029
-349.479	-135.878	0.201	0.023
-348.464	-63.274	-0.053	-0.022
-347.450	461.486	-0.067	-0.147
-346.435	-109.066	0.219	-0.046
-345.420	-130.333	-0.258	-0.035
-344.406	-83.139	-0.232	0.074
-343.391	-57.611	0.407	0.176
-342.377	-200.000	-0.039	-0.171
-341.362	800.000	-0.069	0.226
-340.348	-200.000	-0.007	-0.053
-339.333	32.307	-0.187	0.160
-338.318	9.342	0.212	-0.159
-337.304	-16.360	-0.166	0.104
-336.289	-45.139	0.415	0.204
-335.275	-75.554	-0.124	0.043
-334.260	313.143	-0.079	-0.146
-333.245	-200.000	0.035	-0.209
-332.231	-137.803	-0.353	0.039
-331.216	204.730	0.163	-0.250
-330.202	-200.000	0.051	-0.357
-329.187	-107.547	-0.280	-0.061
-328.172	28.263	0.142	-0.118
-327.158	84.688	-0.306	-0.331
-326.143	-115.649	-0.047	-0.009
-325.129	-200.000	0.072	0.313
-324.114	-65.017	0.194	-0.077
-323.099	-102.378	-0.197	0.047
-322.085	1.724	-0.098	0.070
-321.070	-128.189	-0.316	-0.045
-320.056	-33.040	-0.313	0.172
-319.041	-36.339	0.393	0.209
-318.026	-200.000	-0.085	0.415
-317.012	-41.593	0.226	-0.115
-315.997	-120.372	-0.031	0.005
-314.983	-200.000	-0.049	-0.302
-313.968	-70.754	0.274	0.102
-312.953	-200.000	0.003	-0.145
-311.939	-56.754	-0.271	-0.118
-310.924	138.397	-0.213	-0.277
-309.910	48.590	-0.208	0.193
-308.895	46.704	0.140	0.128
-307.880	-168.175	0.207	-0.008
-306.866	20.244	0.042	0.034
-305.851	-200.000	0.016	0.080
-304.837	-200.000	-0.060	0.438
-303.822	-26.694	-0.049	-0.028
-302.807	-200.000	0.012	0.073
-301.793	-200.000	-0.022	0.203
-300.778	-62.675	0.148	0.061
-299.764	-200.000	-0.004	0.340
-298.749	144.417	-0.177	0.233
-297.735	-151.626	0.168	0.012
-296.720	-200.000	0.000	-0.034
-295.705	303.785	-0.046	0.085
-294.691	-200.000	0.019	0.236
-293.676	-200.000	-0.065	-0.398
-292.662	614.726	-0.072	0.178
-291.647	800.000	-0.066	-0.194
-290.632	-24.770	0.255	-0.150
-289.618	-164.061	-0.197	0.009
-288.603	162.156	0.196	0.272
-287.589	-59.578	0.282	-0.119
-286.574	-9.798	0.236	0.155
-285.559	-200.000	-0.021	-0.150
-284.545	82.139	0.147	0.157
-283.530	-89.266	-0.220	0.064
-282.516	800.000	0.048	0.206
-281.501	-45.331	-0.176	0.086
-280.486	-114.226	-0.152	0.029
-279.472	-115.134	0.244	-0.046
-278.457	326.440	-0.073	0.138
-277.443	53.543	-0.205	0.194
-276.428	26.927	-0.398	-0.329
-275.413	-79.128	-0.064	0.021
-274.399	143.707	0.077	-0.101
-273.384	-122.245	0.426	0.069
-272.370	-74.890	0.134	-0.047
-271.355	11.585	0.280	-0.212
-270.340	800.000	0.100	-0.272
-269.326	95.846	0.291	-0.327
-268.311	48.643	-0.138	-0.128
-267.297	202.896	0.044	-0.067
-266.282	1.414	-0.236	-0.167
-265.267	-200.000	-0.013	-0.137
-264.253	-173.068	-0.216	-0.007
-263.238	-21.871	-0.176	0.106
-262.224	209.519	0.121	-0.187
-261.209	-20.018	-0.149	-0.090
-260.195	-200.000	0.077	-0.428
-259.180	-200.000	-0.012	0.189
-258.165	-200.000	0.110	0.000
-257.151	-200.000	0.004	-0.083
-256.136	-200.000	-0.023	-0.141
-255.122	135.495	-0.109	-0.139
-254.107	-80.460	-0.244	0.080
-253.092	-55.049	-0.073	-0.032
-252.078	-200.000	0.007	-0.053
-251.063	800.000	0.074	0.205
-250.049	151.103	0.148	0.198
-249.034	-200.000	0.011	0.096
-248.019	445.332	-0.130	0.281
-247.005	-200.000	-0.022	-0.124
-245.990	800.000	-0.087	-0.239
-244.976	800.000	-0.090	0.302
-243.961	-200.000	0.013	-0.096
-242.946	-124.054	0.198	-0.031
-241.932	645.956	0.055	0.138
-240.917	800.000	0.050	0.138
-239.903	640.325	0.068	0.171
-238.888	-34.463	0.165	-0.089
-237.873	241.469	-0.085	0.139
-236.859	-50.383	-0.134	-0.063
-235.844	-43.149	0.073	-0.036
-234.830	-104.619	-0.221	0.050
-233.815	484.373	0.073	-0.164
-232.800	80.586	-0.052	-0.056
-231.786	800.000	0.095	-0.259
-230.771	-19.717	0.202	0.123
-229.757	800.000	0.004	0.018
-228.742	392.220	-0.127	-0.260
-227.727	-200.000	-0.011	-0.137
-226.713	742.859	-0.039	0.102
-225.698	8.121	0.091	0.067
-224.684	100.023	-0.307	0.350
-223.669	-172.371	-0.316	0.010
-222.655	-105.957	0.209	0.046
-221.640	-20.608	-0.194	-0.117
-220.625	-200.000	0.078	-0.364
-219.611	548.972	0.043	-0.102
-218.596	800.000	-0.051	0.217
-217.582	-58.781	0.282	-0.120
-216.567	75.925	0.113	-0.118
-215.552	366.378	0.008	-0.016
-214.538	269.793	-0.079	0.136
-213.523	-200.000	0.035	-0.304
-212.509	-71.933	-0.214	0.078
-211.494	334.784	-0.193	0.368
-210.479	-39.933	0.274	0.141
-209.465	-200.000	-0.039	-0.224
-208.450	800.000	-0.056	0.160
-207.436	14.443	0.172	0.132
-206.421	-189.635	0.178	0.002
-205.406	58.033	-0.066	-0.063
-204.392	-103.090	0.178	-0.041
-203.377	-15.921	0.079	0.050
-202.363	-137.623	0.267	-0.030
-201.348	57.153	0.138	0.133
-200.333	78.863	-0.160	-0.168
-199.319	-38.780	0.278	-0.144
-198.304	-200.000	-0.069	-0.365
-197.290	-43.643	0.220	0.109
-196.275	-200.000	-0.007	-0.052
-195.260	441.896	-0.156	0.337
-194.246	93.974	-0.094	0.105
-193.231	161.609	0.153	0.210
-192.217	751.179	-0.039	-0.103
-191.202	-4.195	-0.018	0.013
-190.187	-64.628	0.243	-0.097
-189.173	800.000	-0.022	-0.095
-188.158	-11.185	-0.219	-0.142
-187.144	-43.408	0.023	-0.012
-186.129	-73.171	-0.289	0.104
-185.114	-200.000	-0.028	-0.129
-184.100	-141.671	-0.065	-0.006
-183.085	-200.000	0.006	0.267
-182.071	-116.122	0.112	0.020
-181.056	-87.617	-0.086	0.025
-180.042	730.260	0.011	0.029
-179.027	23.533	0.196	0.158
-178.012	93.665	-0.168	0.187
-176.998	800.000	0.089	-0.288
-175.983	-4.958	0.144	-0.098
-174.969	114.617	-0.179	-0.214
-173.954	-150.334	-0.315	0.024
-172.939	192.140	0.160	-0.238
-171.925	244.639	0.210	0.347
-170.910	22.312	-0.224	-0.180
-169.896	-76.543	0.168	0.058
-168.881	800.000	-0.099	-0.279
-167.866	95.828	-0.146	0.164
-166.852	-111.336	0.067	0.013
-165.837	669.966	0.165	0.421
-164.823	-93.866	0.213	0.058
-163.808	-101.423	-0.426	0.102
-162.793	-200.000	-0.037	-0.180
-161.779	-200.000	0.023	0.124
-160.764	117.759	-0.078	0.094
-159.750	-146.775	0.228	-0.019
-158.735	800.000	-0.053	-0.160
-157.720	-9.494	-0.195	-0.128
-156.706	553.249	0.158	0.372
-155.691	212.666	-0.168	0.259
-154.677	419.163	-0.104	0.219
-153.662	66.423	0.057	-0.057
-152.647	-200.000	-0.001	0.371
-151.633	22.090	0.240	-0.192
-150.618	-7.518	0.147	-0.098
-149.604	8.771	0.093	0.069
-148.589	800.000	0.077	0.288
-147.574	-77.828	-0.105	0.036
-146.560	-152.100	-0.065	-0.005
-145.545	-123.832	-0.269	0.042
-144.531	-111.570	-0.157	-0.031
-143.516	-130.298	0.167	0.022
-142.502	-66.313	0.223	-0.087
-141.487	48.164	-0.121	0.111
-140.472	-100.678	0.152	0.037
-139.458	-200.000	-0.072	-0.353
-138.443	-147.817	0.304	-0.025
-137.429	49.171	0.209	-0.193
-136.414	-65.408	0.489	0.193
-135.399	-81.290	-0.179	0.058
-134.385	-139.223	-0.405	-0.043
-133.370	-179.608	0.232	-0.005
-132.356	59.207	-0.218	-0.210
-131.341	376.604	-0.119	0.237
-130.326	-57.690	0.135	0.058
-129.312	-67.030	0.205	-0.079
-128.297	287.276	0.096	-0.170
-127.283	-200.000	-0.015	0.312
-126.268	-87.627	0.154	0.046
-125.253	332.962	-0.106	-0.201
-124.239	-187.718	0.146	0.002
-123.224	800.000	0.076	-0.232
-122.210	-200.000	-0.009	-0.144
-121.195	416.987	0.134	0.280
-120.180	163.533	-0.083	-0.115
-119.166	-25.400	-0.116	0.067
-118.151	-18.742	0.343	0.210
-117.137	373.250	0.044	0.087
-116.122	120.599	0.160	-0.195
-115.107	2.462	-0.149	-0.106
-114.093	77.879	-0.242	0.253
-113.078	800.000	-0.071	0.239
-112.064	156.529	-0.209	0.283
-111.049	26.297	0.293	0.240
-110.034	-200.000	-0.005	0.197
-109.020	-67.064	0.230	0.089
-108.005	76.168	-0.071	-0.073
-106.991	-200.000	0.010	-0.121
-105.976	800.000	-0.076	0.249
-104.962	-55.741	0.293	-0.128
-103.947	-175.964	0.190	-0.005
-102.932	476.887	-0.063	-0.139
-101.918	5.368	0.068	-0.049
-100.903	-200.000	-0.010	-0.070
-99.889	-96.112	0.073	0.019
-98.874	123.631	0.069	-0.084
-97.859	-110.853	-0.170	0.034
-96.845	-41.852	0.193	0.097
-95.830	-65.477	-0.344	0.135
-94.816	492.954	-0.063	-0.141
-93.801	-23.898	-0.140	-0.082
-92.786	235.949	-0.051	-0.082
-91.772	-200.000	-0.028	0.156
-90.757	-67.483	-0.409	-0.157
-89.743	-18.892	-0.300	-0.183
-88.728	-149.786	0.354	-0.027
-87.713	48.835	0.199	0.183
-86.699	98.832	0.112	0.127
-85.684	-103.632	-0.416	0.096
-84.670	800.000	0.018	-0.056
-83.655	-200.000	0.024	0.188
-82.640	-200.000	0.061	-0.302
-81.626	-93.906	0.107	0.029
-80.611	138.423	0.074	-0.095
-79.597	800.000	0.071	0.251
-78.582	399.546	-0.034	-0.071
-77.567	-200.000	-0.007	0.266
-76.553	167.999	0.079	0.110
-75.538	-152.633	0.157	0.011
-74.524	-98.585	0.292	-0.073
-73.509	-200.000	0.000	-0.017
-72.494	-83.797	-0.185	0.058
-71.480	127.689	-0.087	0.108
-70.465	175.873	-0.127	0.181
-69.451	-24.052	-0.246	-0.144
-68.436	-79.694	0.242	0.080
-67.422	117.018	0.162	-0.194
-66.407	-164.194	0.212	-0.010
-65.392	-50.656	0.163	-0.075
-64.378	20.276	-0.042	0.033
-63.363	-200.000	0.066	-0.451
-62.349	-13.902	0.175	-0.111
-61.334	212.094	-0.735	-1.134
-60.319	800.000	0.245	0.697
-59.305	281.981	-0.580	-1.017
-58.290	269.205	0.700	1.202
-57.276	477.544	0.685	1.516
-56.261	-200.000	117.808	640.463
-55.246	480.008	1555.012	3448.111
-54.232	173.609	2722.652	3842.230
-53.217	104.376	2155.397	2481.073
-52.203	37.678	1587.114	1377.887
-51.188	29.458	1329.769	1105.428
-50.173	26.554	1291.718	1056.825
-49.159	52.039	1351.090	1258.508
-48.144	50.771	1364.205	1263.108
-47.130	29.492	1317.961	1095.637
-46.115	26.151	1300.002	1061.071
-45.100	25.900	1294.897	1055.388
-44.086	25.953	1292.150	1053.421
-43.071	25.922	1289.936	1051.389
-42.057	25.935	1287.802	1049.685
-41.042	25.922	1285.974	1048.079
-40.027	25.732	1285.405	1046.470
-39.013	25.935	1282.548	1045.277
-37.998	25.984	1280.581	1043.920
-36.984	26.077	1278.836	1042.993
-35.969	26.038	1277.366	1041.525
-34.954	26.081	1275.796	1040.450
-33.940	26.069	1274.432	1039.228
-32.925	26.016	1273.405	1038.045
-31.911	26.144	1271.564	1037.237
-30.896	26.128	1270.074	1035.894
-29.881	26.111	1268.671	1034.606
-28.867	26.192	1267.326	1033.935
-27.852	26.185	1265.938	1032.721
-26.838	26.247	1264.498	1031.862
-25.823	26.175	1263.736	1030.787
-24.809	26.161	1262.068	1029.304
-23.794	26.114	1260.922	1028.063
-22.779	26.148	1259.605	1027.140
-21.765	26.198	1257.718	1025.841
-20.750	26.113	1257.003	1024.738
-19.736	26.188	1255.039	1023.522
-18.721	26.008	1254.713	1022.193
-17.706	26.033	1253.289	1021.134
-16.692	26.081	1252.067	1020.372
-15.677	26.007	1251.578	1019.515
-14.663	26.080	1249.846	1018.474
-13.648	25.960	1248.453	1016.624
-12.633	25.910	1247.838	1015.799
-11.619	25.968	1246.850	1015.283
-10.604	26.018	1246.039	1014.862
-9.590	26.052	1245.016	1014.179
-8.575	25.993	1243.862	1012.869
-7.560	25.943	1243.784	1012.481
-6.546	25.981	1242.479	1011.597
-5.531	26.001	1241.580	1010.933
-4.517	25.938	1240.726	1009.844
-3.502	26.041	1240.022	1009.808
-2.487	26.006	1238.735	1008.525
-1.473	26.028	1234.814	1005.419
-0.458	24.456	1219.888	984.559
0.556	22.580	1203.757	947.551
1.571	18.951	1209.176	932.099
2.586	18.043	1223.867	938.355
3.600	17.824	1211.780	927.816
4.615	13.878	1141.588	853.743
5.629	7.193	1071.764	769.083
6.644	4.436	1053.944	743.054
7.659	3.999	1051.868	739.438
8.673	3.922	1050.552	738.078
9.688	3.974	1048.681	736.944
10.702	4.293	1047.052	737.254
11.717	8.412	1052.427	760.614
12.731	15.978	1063.319	804.687
13.746	21.068	1069.426	833.626
14.761	22.165	1070.322	839.490
15.775	21.321	1069.119	834.443
16.790	20.501	1066.907	828.738
17.804	19.911	1065.438	824.710
18.819	19.625	1064.132	822.268
19.834	19.575	1063.873	821.756
20.848	19.638	1063.202	821.463
21.863	19.343	1062.650	819.565
22.877	19.182	1062.001	818.226
23.892	18.942	1061.884	816.920
24.907	19.257	1059.961	816.865
25.921	19.132	1058.867	815.358
26.936	19.159	1058.152	814.864
27.950	19.131	1056.529	813.409
28.965	19.192	1055.372	812.735
29.980	19.382	1053.738	812.300
30.994	19.472	1053.425	812.407
32.009	19.434	1052.288	811.279
33.023	19.529	1051.042	810.697
34.038	19.334	1050.230	809.081
35.053	19.198	1048.941	807.381
36.067	19.160	1048.130	806.508
37.082	19.380	1047.403	806.906
38.096	19.471	1047.085	807.016
39.111	19.378	1046.339	805.933
40.126	19.200	1044.580	803.676
41.140	18.858	1043.103	800.875
42.155	18.695	1041.974	799.177
43.169	18.660	1041.099	798.274
44.184	18.605	1039.898	797.026
45.199	18.784	1038.778	796.931
46.213	19.055	1037.896	797.436
47.228	19.249	1037.501	797.961
48.242	19.240	1036.333	796.951
49.257	19.202	1035.470	796.043
50.271	19.322	1034.744	795.968
51.286	19.313	1034.416	795.602
52.301	19.294	1032.620	794.064
53.315	19.138	1032.072	792.854
54.330	18.886	1031.468	791.160
55.344	18.934	1030.071	790.240
56.359	18.994	1029.080	789.684
57.374	18.843	1028.410	788.406
58.388	18.843	1027.338	787.518
59.403	18.726	1026.605	786.349
60.417	18.688	1026.111	785.727
61.432	18.739	1025.118	785.131
62.447	18.546	1024.285	783.543
63.461	18.753	1023.331	783.687
64.476	18.544	1022.399	781.952
65.490	18.441	1021.700	780.876
66.505	18.603	1020.970	780.988
67.520	18.570	1020.230	780.205
68.534	18.601	1019.353	779.604
69.549	18.605	1018.727	779.074
70.563	18.518	1017.712	777.836
71.578	18.338	1016.628	776.124
72.593	18.188	1016.364	775.173
73.607	18.231	1015.539	774.670
74.622	18.385	1015.363	775.164
75.636	18.418	1014.671	774.717
76.651	18.547	1013.529	774.359
77.666	18.462	1013.080	773.560
78.680	18.442	1012.438	772.913
79.695	18.360	1012.259	772.338
80.709	18.651	1011.387	772.914
81.724	18.624	1011.271	772.639
82.739	18.891	1009.910	772.729
83.753	19.168	1009.750	773.785
84.768	19.578	1008.667	774.726
85.782	19.766	1007.992	774.978
86.797	19.721	1007.138	774.054
87.812	19.314	1006.035	771.318
88.826	19.349	1005.419	770.932
89.841	19.533	1004.454	770.944
90.855	19.569	1003.857	770.579
91.870	19.628	1003.038	770.148
92.884	19.580	1001.952	769.030
93.899	19.416	1001.407	767.814
94.914	19.627	1000.287	767.825
95.928	19.573	999.576	766.971
96.943	19.342	998.415	764.991
97.957	19.526	997.311	764.890
98.972	19.391	996.849	763.869
99.987	19.442	995.572	763.051
101.001	19.375	994.886	762.161
102.016	19.464	994.137	761.911
103.030	19.517	993.168	761.339
104.045	19.361	992.784	760.287
105.060	19.316	991.310	758.895
106.074	18.945	990.667	756.699
107.089	18.802	989.206	754.891
108.103	18.652	988.560	753.670
109.118	18.697	987.351	752.880
110.133	18.600	986.453	751.702
111.147	18.572	985.908	751.099
112.162	18.582	984.911	750.317
113.176	18.791	984.485	750.840
114.191	18.997	983.410	750.853
115.206	18.904	982.562	749.734
116.220	18.785	981.842	748.600
117.235	18.877	981.044	748.326
118.249	18.762	980.338	747.218
119.264	18.613	979.445	745.828
120.279	18.573	978.460	744.836
121.293	18.457	977.842	743.795
122.308	18.382	976.784	742.602
123.322	18.323	975.789	741.523
124.337	18.308	974.641	740.521
125.352	18.305	973.624	739.667
126.366	18.254	972.834	738.784
127.381	18.347	971.714	738.267
128.395	18.391	970.897	737.773
129.410	18.405	970.240	737.265
130.424	18.599	969.792	737.694
131.439	18.680	968.916	737.313
132.454	18.859	968.119	737.408
133.468	18.815	967.351	736.569
134.483	18.883	966.374	736.054
135.497	18.879	965.640	735.410
136.512	18.899	964.604	734.644
137.527	18.777	964.212	733.756
138.541	18.800	963.523	733.265
139.556	18.935	962.809	733.234
140.570	19.156	962.643	733.985
141.585	19.342	961.565	733.892
142.600	19.336	960.759	733.183
143.614	19.324	959.992	732.484
144.629	19.470	959.277	732.493
145.643	19.345	958.508	731.312
146.658	19.249	957.001	729.689
147.673	19.017	955.756	727.696
148.687	19.054	954.922	727.151
149.702	18.930	954.149	725.973
150.716	18.778	953.177	724.528
151.731	18.946	952.287	724.497
152.746	19.020	951.498	724.146
153.760	18.949	951.451	723.747
154.775	19.193	950.537	724.010
155.789	19.259	949.877	723.720
156.804	19.187	949.532	723.092
157.819	19.166	949.147	722.650
158.833	19.439	947.902	722.781
159.848	19.556	947.362	722.795
160.862	19.485	946.151	721.509
161.877	19.121	944.725	718.839
162.892	19.009	943.707	717.532
163.906	18.861	942.702	716.090
164.921	18.968	941.962	715.909
165.935	19.085	941.682	716.120
166.950	18.993	940.964	715.128
167.964	18.956	940.095	714.250
168.979	18.802	938.926	712.659
169.994	19.085	937.654	712.806
171.008	19.153	937.264	712.726
172.023	19.339	936.896	713.151
173.037	19.582	936.367	713.692
174.052	19.362	935.279	711.891
175.067	18.856	934.413	709.083
176.081	18.746	933.891	708.169
177.096	18.892	933.270	708.238
178.110	19.033	932.564	708.220
179.125	18.917	932.242	707.436
180.140	19.039	932.014	707.700
181.154	19.256	931.571	708.194
182.169	19.505	931.395	709.020
183.183	19.414	930.493	707.895
184.198	19.477	929.570	707.391
185.213	19.391	929.087	706.608
186.227	19.482	928.611	706.555
187.242	19.517	927.776	706.001
188.256	19.741	927.194	706.410
189.271	19.755	926.286	705.715
190.286	19.305	925.190	702.980
191.300	18.820	923.872	699.943
192.315	18.778	923.345	699.310
193.329	18.874	923.020	699.394
194.344	19.076	922.330	699.628
195.359	19.158	922.110	699.733
196.373	19.399	921.233	699.987
197.388	19.688	920.893	700.836
198.402	19.652	920.995	700.708
199.417	19.853	920.414	701.015
200.432	20.086	919.431	701.149
201.446	20.010	919.749	701.021
202.461	20.104	919.092	700.839
203.475	19.953	918.206	699.491
204.490	19.688	917.331	697.692
205.504	19.661	916.512	696.899
206.519	19.539	915.632	695.677
207.534	19.465	914.805	694.691
208.548	19.633	914.370	694.973
209.563	19.548	913.914	694.222
210.577	19.556	913.098	693.576
211.592	20.005	912.411	694.795
212.607	19.881	912.070	693.975
213.621	19.893	911.017	693.161
214.636	19.784	910.637	692.373
215.650	19.775	909.920	691.733
216.665	20.006	909.130	691.994
217.680	20.055	908.571	691.701
218.694	20.072	908.055	691.317
219.709	19.906	907.382	690.081
220.723	19.879	906.909	689.553
221.738	19.894	905.881	688.768
222.753	19.957	905.356	688.561
223.767	20.034	904.641	688.258
224.782	20.187	904.484	688.690
225.796	20.223	904.153	688.516
226.811	20.087	903.157	687.159
227.826	19.798	902.201	685.226
228.840	19.851	901.757	685.039
229.855	19.968	900.853	684.755
230.869	19.849	900.037	683.603
231.884	19.699	899.519	682.557
232.899	19.708	898.714	681.921
233.913	19.572	898.088	680.848
234.928	19.507	897.550	680.124
235.942	19.478	896.670	679.282
236.957	19.557	896.553	679.447
237.972	19.511	895.970	678.762
238.986	19.408	895.546	677.975
240.001	19.703	894.691	678.426
241.015	19.684	893.918	677.705
242.030	19.789	893.636	677.845
243.045	19.941	892.711	677.679
244.059	19.831	892.432	676.975
245.074	19.870	891.759	676.558
246.088	20.138	891.190	677.114
247.103	20.166	891.145	677.130
248.117	20.330	890.641	677.325
249.132	20.565	890.226	677.865
250.147	20.781	889.955	678.443
251.161	20.951	889.277	678.528
252.176	20.989	888.552	678.063
253.190	21.085	888.091	678.023
254.205	20.987	887.639	677.236
255.220	20.887	886.891	676.219
256.234	20.829	886.093	675.326
257.249	20.825	885.185	674.560
258.263	20.762	884.930	674.060
259.278	20.746	884.324	673.477
260.293	20.843	883.667	673.293
261.307	20.994	883.226	673.478
262.322	21.050	882.311	672.939
263.336	21.054	881.531	672.299
264.351	21.013	880.836	671.553
265.366	21.077	880.032	671.127
266.380	20.923	879.799	670.296
267.395	20.808	879.166	669.313
268.409	20.767	878.432	668.538
269.424	20.926	877.367	668.276
270.439	20.904	876.732	667.650
271.453	20.775	875.675	666.291
272.468	20.672	875.256	665.520
273.482	20.682	875.067	665.355
274.497	20.708	874.394	664.887
275.512	20.612	873.743	663.966
276.526	20.711	872.950	663.681
277.541	20.687	873.327	663.816
278.555	21.002	872.275	664.159
279.570	21.215	872.174	664.836
280.585	21.137	871.048	663.620
281.599	21.005	869.732	662.057
282.614	20.702	869.620	660.765
283.628	20.690	869.379	660.478
284.643	20.830	868.405	660.210
285.657	20.865	867.550	659.635
286.672	20.835	867.215	659.206
287.687	20.760	866.803	658.552
288.701	20.802	866.450	658.384
289.716	20.802	865.368	657.504
290.730	20.938	864.812	657.537
291.745	20.863	864.516	656.970
292.760	21.022	864.277	657.329
293.774	21.272	863.509	657.628
294.789	21.131	863.203	656.809
295.803	20.967	861.928	655.164
296.818	20.839	861.015	653.929
297.833	20.820	860.514	653.419
298.847	21.002	859.677	653.407
299.862	21.071	859.208	653.253
300.876	21.109	859.045	653.213
301.891	21.266	858.487	653.320
302.906	21.318	857.917	653.021
303.920	21.757	857.085	653.969
304.935	21.730	857.201	653.897
305.949	21.565	856.028	652.331
306.964	21.220	855.557	650.631
307.979	21.288	855.183	650.542
308.993	21.506	854.743	650.962
310.008	21.366	853.814	649.674
311.022	21.374	853.229	649.202
312.037	21.095	852.643	647.663
313.052	20.806	852.116	646.131
314.066	20.832	851.008	645.331
315.081	20.722	850.714	644.644
316.095	20.787	850.037	644.316
317.110	20.713	849.694	643.725
318.125	20.892	849.081	643.863
319.139	20.922	848.380	643.386
320.154	21.010	847.913	643.300
321.168	21.003	848.031	643.308
322.183	21.063	847.027	642.708
323.197	20.935	846.499	641.779
324.212	21.122	846.145	642.145
325.227	21.087	845.213	641.252
326.241	21.014	844.512	640.394
327.256	20.987	844.195	639.999
328.270	21.026	843.656	639.675
329.285	20.993	842.665	638.748
330.300	20.934	842.205	638.126
331.314	21.075	841.586	638.117
332.329	21.252	841.814	638.879
333.343	21.277	841.228	638.470
334.358	21.408	840.883	638.629
335.373	21.230	840.671	637.762
336.387	21.457	840.037	638.053
337.402	21.618	840.044	638.588
338.416	21.602	839.749	638.250
339.431	21.667	839.856	638.512
340.446	21.789	839.216	638.415
341.460	21.902	838.748	638.411
342.475	22.040	838.391	638.588
343.489	22.102	838.068	638.509
344.504	22.228	837.142	638.202
345.519	22.110	837.297	637.837
346.533	21.955	836.379	636.520
347.548	21.738	835.618	635.098
348.562	21.481	834.715	633.426
349.577	21.490	834.042	632.891
350.592	21.365	833.525	631.990
351.606	21.416	832.780	631.552
352.621	21.375	832.298	630.984
353.635	21.340	831.725	630.366
354.650	21.539	830.797	630.327
355.665	21.623	830.137	630.072
356.679	21.573	829.907	629.661
357.694	21.680	829.519	629.695
358.708	21.705	828.528	628.978
359.723	21.748	827.739	628.475
360.738	21.685	827.606	628.093
361.752	21.755	826.770	627.654
362.767	22.097	826.031	628.261
363.781	22.118	825.941	628.212
364.796	22.269	825.727	628.534
365.810	22.402	825.230	628.574
366.825	22.380	825.025	628.285
367.840	22.344	824.542	627.732
368.854	22.198	823.871	626.647
369.869	21.999	823.853	625.868
370.883	22.072	822.934	625.374
371.898	22.226	823.170	626.047
372.913	22.258	822.520	625.610
373.927	22.241	821.486	624.707
374.942	22.203	821.473	624.506
375.956	22.358	820.469	624.239
376.971	22.543	820.557	624.909
377.986	22.615	820.181	624.822
379.000	22.570	819.618	624.178
380.015	22.560	818.959	623.586
381.029	22.429	818.468	622.692
382.044	22.362	817.969	622.020
383.059	22.491	817.085	621.749
384.073	22.310	816.598	620.686
385.088	22.159	815.618	619.354
386.102	22.054	815.415	618.773
387.117	22.034	814.743	618.139
388.132	21.996	814.096	617.460
389.146	22.182	813.252	617.420
390.161	22.243	813.459	617.734
391.175	22.476	812.724	617.942
392.190	22.301	812.252	616.912
393.205	22.120	811.710	615.813
394.219	22.183	811.253	615.633
395.234	22.028	810.803	614.693
396.248	21.897	810.333	613.826
397.263	21.885	809.812	613.332
398.278	21.839	809.345	612.765
399.292	21.869	808.835	612.430
400.307	21.870	808.485	612.113
401.321	21.920	807.965	611.842
402.336	21.786	807.967	611.322
403.350	22.257	807.477	612.537
404.365	22.386	806.978	612.553
405.380	22.605	806.551	612.935
406.394	22.646	806.166	612.730
407.409	22.780	805.526	612.656
408.423	22.820	805.673	612.852
409.438	22.787	805.250	612.363
410.453	22.895	804.726	612.284
411.467	22.810	804.345	611.645
412.482	23.034	804.040	612.136
413.496	22.927	803.676	611.434
414.511	23.180	803.120	611.830
415.526	22.873	802.760	610.440
416.540	22.742	802.245	609.542
417.555	22.918	801.525	609.551
418.569	23.042	801.367	609.802
419.584	22.861	800.726	608.638
420.599	22.961	800.147	608.488
421.613	165.535	1371.332	1797.706
422.628	143.865	1454.550	1797.792
