DTS Sentinel unit serial number:	SN413079Multiplexer serial number:	ORYXHardware model number:	OX4-SRSoftware version number:	ORYX F/W v4.00 Oryx Data Collector v3.7.2.0data status	okinstallation	princeton_trtdifferential loss correction	single-endedforward channel	channel 1reverse channel	N/Adate	2019/09/12time	22:58:35forward acquisition time	60.00reverse acquisition time	0.00gamma	496.2192k internal	0.2327k external	0.2327temperature offset calibration	1.0151default loss term (dB/km)	0.3790temperature slope calibration	1.0000multiplexer offset coefficient	1.0000multiplexer slope coefficient	1.0000fibre end	0.00T internal ref (°C)	29.34T ext. ref 1 (°C)	3.74T ext. ref 2 (°C)	23.92length (m)	temperature (°C)	Stokes	anti-Stokes-747.200	-200.000	-0.082	-0.406
-746.185	-83.388	-0.187	-0.060
-745.171	87.266	0.128	0.143
-744.156	4.827	0.286	0.212
-743.142	800.000	-0.043	0.185
-742.127	64.253	-0.193	0.196
-741.112	-115.884	-0.163	0.031
-740.098	304.144	-0.020	0.037
-739.083	-10.285	0.247	0.165
-738.069	-200.000	-0.019	0.490
-737.054	-18.872	-0.190	0.119
-736.039	65.342	0.120	-0.122
-735.025	-46.860	-0.120	0.059
-734.010	-48.744	-0.265	-0.128
-732.996	152.771	0.158	-0.217
-731.981	-140.303	0.061	-0.006
-730.966	-188.728	-0.221	0.003
-729.952	-95.582	0.299	-0.081
-728.937	35.582	0.034	-0.030
-727.923	-95.625	-0.096	-0.026
-726.908	-23.328	-0.186	-0.113
-725.894	-131.674	-0.027	-0.004
-724.879	641.576	0.060	-0.155
-723.864	800.000	0.043	0.168
-722.850	155.793	-0.126	0.175
-721.835	206.386	-0.076	-0.119
-720.821	94.410	-0.041	0.047
-719.806	-80.728	0.321	-0.108
-718.791	121.635	0.103	-0.130
-717.777	-10.036	-0.327	0.219
-716.762	-97.567	-0.050	0.013
-715.748	162.185	-0.081	0.115
-714.733	92.395	-0.109	-0.124
-713.718	-200.000	0.012	-0.116
-712.704	155.455	-0.127	0.176
-711.689	-200.000	0.003	0.154
-710.675	114.081	0.136	-0.167
-709.660	-35.795	0.117	-0.064
-708.645	-5.044	0.183	-0.127
-707.631	42.050	-0.184	-0.168
-706.616	-93.998	0.037	0.010
-705.602	220.760	-0.029	-0.046
-704.587	-200.000	-0.066	-0.322
-703.572	576.962	0.142	0.349
-702.558	92.402	-0.181	-0.205
-701.543	-60.840	0.157	0.067
-700.529	-32.896	-0.123	-0.069
-699.514	-131.790	-0.185	-0.024
-698.499	107.812	0.291	0.349
-697.485	800.000	0.040	0.137
-696.470	-5.957	0.055	0.038
-695.456	9.656	0.162	-0.123
-694.441	-46.887	0.360	-0.177
-693.426	-150.133	-0.324	0.025
-692.412	276.787	0.188	-0.337
-691.397	33.816	-0.316	-0.276
-690.383	-41.552	-0.192	-0.099
-689.368	-25.444	-0.229	-0.136
-688.354	-138.826	-0.292	0.032
-687.339	800.000	-0.095	0.314
-686.324	166.451	-0.146	0.208
-685.310	-130.190	-0.233	-0.032
-684.295	33.567	0.177	0.155
-683.281	-200.000	-0.026	0.233
-682.266	800.000	0.100	-0.339
-681.251	-17.956	-0.222	-0.140
-680.237	60.032	0.141	-0.140
-679.222	666.038	-0.018	0.046
-678.208	9.927	-0.070	0.054
-677.193	-136.566	-0.177	-0.021
-676.178	128.446	-0.041	-0.053
-675.164	126.354	0.190	-0.241
-674.149	-30.807	-0.121	-0.069
-673.135	-51.643	-0.200	-0.094
-672.120	437.161	0.135	-0.295
-671.105	-75.316	0.345	0.124
-670.091	146.687	0.081	-0.109
-669.076	94.319	-0.077	0.088
-668.062	496.520	-0.114	-0.263
-667.047	-13.743	-0.156	-0.102
-666.032	-84.343	0.308	0.098
-665.018	-80.548	0.160	0.053
-664.003	-67.748	0.141	-0.055
-662.989	-72.236	0.236	-0.088
-661.974	-39.531	0.218	0.115
-660.959	-62.579	0.291	0.121
-659.945	523.174	-0.141	0.334
-658.930	-136.173	-0.201	0.024
-657.916	-122.772	0.326	-0.053
-656.901	329.622	0.151	-0.292
-655.886	-200.000	-0.018	0.104
-654.872	-10.892	-0.320	-0.212
-653.857	-87.510	0.132	0.040
-652.843	476.068	0.076	-0.173
-651.828	-101.278	-0.017	-0.004
-650.814	-63.445	-0.176	0.073
-649.799	-34.159	-0.122	0.068
-648.784	-1.121	-0.168	0.120
-647.770	-200.000	0.026	0.175
-646.755	-200.000	-0.000	-0.186
-645.741	-200.000	-0.015	0.367
-644.726	644.172	0.061	0.157
-643.711	-200.000	-0.012	-0.075
-642.697	-45.613	-0.258	0.128
-641.682	106.097	0.125	-0.149
-640.668	800.000	-0.018	0.062
-639.653	74.928	0.160	0.169
-638.638	-98.869	-0.148	0.038
-637.624	61.158	0.049	-0.049
-636.609	-200.000	-0.028	0.155
-635.595	26.796	-0.206	0.173
-634.580	163.490	0.212	0.300
-633.565	436.435	-0.045	0.099
-632.551	-181.417	0.264	-0.005
-631.536	-24.631	0.185	-0.111
-630.522	-200.000	-0.005	-0.038
-629.507	-18.761	-0.151	0.095
-628.492	-200.000	-0.021	0.092
-627.478	-200.000	0.045	-0.296
-626.463	-26.359	0.241	-0.142
-625.449	-200.000	0.008	0.046
-624.434	800.000	-0.027	0.085
-623.419	-200.000	0.037	-0.276
-622.405	-13.148	-0.299	-0.195
-621.390	-89.915	-0.220	-0.064
-620.376	610.289	-0.070	0.176
-619.361	-200.000	0.047	-0.288
-618.346	-96.804	0.124	-0.033
-617.332	-112.050	0.220	0.044
-616.317	800.000	-0.086	-0.301
-615.303	286.530	0.189	-0.342
-614.288	-89.650	0.169	0.050
-613.273	-1.623	0.142	0.101
-612.259	600.918	-0.062	0.155
-611.244	-103.891	-0.188	0.044
-610.230	195.866	0.053	-0.081
-609.215	-42.393	-0.279	-0.143
-608.201	-200.000	0.014	-0.130
-607.186	3.476	-0.083	-0.061
-606.171	-128.281	0.461	0.066
-605.157	-37.829	0.310	0.166
-604.142	-10.179	0.038	-0.026
-603.128	106.890	0.218	-0.260
-602.113	-123.175	0.200	-0.032
-601.098	-120.072	0.282	0.048
-600.084	218.943	-0.030	0.048
-599.069	93.204	-0.315	0.357
-598.055	-118.525	0.402	0.071
-597.040	-86.193	-0.345	-0.107
-596.025	-6.528	-0.091	0.062
-595.011	-50.446	0.120	-0.057
-593.996	-11.906	0.127	0.083
-592.982	245.001	0.049	0.083
-591.967	3.996	-0.288	-0.211
-590.952	-132.061	0.271	-0.035
-589.938	96.868	-0.126	-0.145
-588.923	-149.747	0.037	-0.003
-587.909	182.764	-0.042	0.062
-586.894	-131.552	-0.173	0.023
-585.879	-80.396	0.248	0.083
-584.865	310.088	-0.121	-0.228
-583.850	-200.000	-0.000	-0.020
-582.836	-3.062	-0.140	0.098
-581.821	-90.619	0.232	0.067
-580.806	132.266	0.232	-0.299
-579.792	54.320	0.102	-0.098
-578.777	800.000	0.020	0.059
-577.763	240.844	-0.219	0.366
-576.748	128.275	0.238	-0.304
-575.733	16.415	-0.240	0.190
-574.719	-137.276	0.191	0.022
-573.704	-64.936	-0.316	-0.128
-572.690	150.372	0.143	-0.194
-571.675	138.700	0.054	0.071
-570.661	528.469	0.117	-0.276
-569.646	57.648	-0.166	0.163
-568.631	-200.000	0.017	0.080
-567.617	256.345	0.092	-0.158
-566.602	-43.607	0.109	0.055
-565.588	-139.470	-0.127	-0.014
-564.573	800.000	0.059	-0.199
-563.558	-200.000	-0.009	0.103
-562.544	98.807	-0.139	-0.160
-561.529	166.022	-0.057	-0.080
-560.515	-134.028	-0.249	0.031
-559.500	735.955	0.117	0.314
-558.485	266.155	0.059	0.103
-557.471	19.795	0.221	-0.178
-556.456	-141.724	-0.111	0.011
-555.442	32.256	0.207	0.179
-554.427	266.082	0.147	0.257
-553.412	247.806	-0.058	-0.098
-552.398	18.337	0.186	0.149
-551.383	267.508	0.135	0.237
-550.369	86.912	0.038	-0.042
-549.354	-200.000	0.028	0.394
-548.339	-142.749	0.386	-0.038
-547.325	712.617	-0.039	-0.103
-546.310	800.000	0.028	0.097
-545.296	-200.000	0.013	-0.179
-544.281	-200.000	-0.046	-0.207
-543.266	-14.481	0.109	-0.070
-542.252	-70.360	-0.091	-0.034
-541.237	-73.112	0.341	-0.125
-540.223	482.961	-0.147	0.334
-539.208	135.054	0.058	0.075
-538.193	26.491	0.417	-0.349
-537.179	-24.393	-0.136	0.081
-536.164	286.030	-0.245	-0.442
-535.150	-49.191	-0.286	-0.137
-534.135	-200.000	0.025	0.174
-533.121	-200.000	-0.030	-0.258
-532.106	-200.000	0.052	0.300
-531.091	18.543	-0.376	-0.301
-530.077	-200.000	0.006	0.216
-529.062	-149.305	0.201	-0.016
-528.048	-200.000	-0.047	-0.518
-527.033	-181.207	-0.308	0.006
-526.018	-200.000	-0.004	-0.114
-525.004	491.319	-0.241	0.552
-523.989	800.000	0.100	0.342
-522.975	-200.000	-0.069	-0.510
-521.960	-17.561	0.120	0.075
-520.945	30.320	0.172	-0.147
-519.931	-73.823	0.114	0.041
-518.916	137.029	-0.093	-0.121
-517.902	-23.909	0.138	0.082
-516.887	718.892	0.126	0.335
-515.872	800.000	-0.031	0.098
-514.858	-200.000	-0.054	0.308
-513.843	-130.509	-0.272	0.037
-512.829	104.659	0.251	0.295
-511.814	-26.766	0.110	0.064
-510.799	-200.000	-0.002	0.130
-509.785	-133.750	-0.231	0.029
-508.770	-200.000	-0.056	-0.252
-507.756	58.373	-0.029	0.029
-506.741	-138.884	-0.161	0.018
-505.726	128.629	-0.108	-0.137
-504.712	41.186	0.113	-0.102
-503.697	-200.000	-0.026	-0.322
-502.683	-200.000	-0.057	-0.274
-501.668	-155.722	-0.291	0.019
-500.653	-28.913	0.196	0.112
-499.639	-200.000	-0.028	-0.213
-498.624	-43.705	0.130	-0.065
-497.610	-200.000	-0.004	0.097
-496.595	54.660	-0.067	-0.065
-495.581	-23.177	-0.112	-0.067
-494.566	-66.225	0.125	0.050
-493.551	-96.809	0.319	-0.084
-492.537	-116.545	-0.427	0.079
-491.522	283.901	-0.075	-0.134
-490.508	-200.000	0.006	0.058
-489.493	640.149	-0.094	-0.239
-488.478	-200.000	-0.009	-0.235
-487.464	-101.514	0.153	0.037
-486.449	-105.525	-0.238	0.054
-485.435	-200.000	0.030	0.187
-484.420	-200.000	0.011	0.314
-483.405	800.000	0.031	0.110
-482.391	-200.000	-0.033	0.283
-481.376	-151.334	-0.398	0.030
-480.362	-17.167	0.141	-0.089
-479.347	-51.953	-0.352	-0.163
-478.332	800.000	-0.121	-0.414
-477.318	42.028	0.110	0.100
-476.303	-15.894	-0.221	0.140
-475.289	505.042	-0.065	-0.151
-474.274	-59.125	-0.228	0.098
-473.259	1.554	-0.222	-0.159
-472.245	-200.000	-0.015	-0.117
-471.230	-177.771	0.262	0.006
-470.216	800.000	-0.063	0.213
-469.201	97.503	-0.033	0.037
-468.186	174.200	0.074	0.107
-467.172	-200.000	0.019	0.139
-466.157	-97.600	0.056	0.014
-465.143	-107.862	0.097	0.021
-464.128	-2.735	-0.254	-0.177
-463.113	800.000	-0.089	-0.336
-462.099	190.654	0.033	0.049
-461.084	165.119	0.169	-0.238
-460.070	-165.949	-0.188	0.008
-459.055	-200.000	0.013	-0.239
-458.040	-179.581	-0.348	-0.008
-457.026	-200.000	-0.023	0.544
-456.011	800.000	-0.116	0.322
-454.997	43.589	-0.197	0.180
-453.982	191.727	-0.252	-0.379
-452.968	37.636	-0.265	-0.235
-451.953	-200.000	0.023	-0.115
-450.938	46.857	0.258	-0.239
-449.924	800.000	-0.118	-0.405
-448.909	-79.952	0.134	0.045
-447.895	-120.997	-0.195	0.033
-446.880	-13.125	0.043	-0.028
-445.865	270.233	0.060	-0.104
-444.851	-116.964	-0.170	-0.031
-443.836	95.036	0.100	0.114
-442.822	107.144	0.078	0.093
-441.807	102.964	0.171	-0.199
-440.792	-61.646	-0.118	0.049
-439.778	447.600	0.119	-0.261
-438.763	174.237	-0.268	0.386
-437.749	289.558	0.022	0.040
-436.734	-128.536	-0.156	-0.022
-435.719	-153.070	-0.460	-0.032
-434.705	-53.415	0.070	-0.032
-433.690	-200.000	-0.011	-0.174
-432.676	-19.837	-0.074	-0.046
-431.661	102.746	-0.242	-0.283
-430.646	83.349	0.054	0.059
-429.632	-57.868	0.084	-0.037
-428.617	344.659	0.057	-0.111
-427.603	-156.694	0.241	-0.015
-426.588	17.554	-0.035	-0.028
-425.573	134.420	-0.068	-0.088
-424.559	-81.019	0.192	0.063
-423.544	259.344	0.090	-0.155
-422.530	523.849	0.118	-0.276
-421.515	122.566	-0.052	0.065
-420.500	121.176	-0.045	-0.055
-419.486	-144.749	0.117	-0.011
-418.471	-47.462	-0.169	0.082
-417.457	-40.613	0.251	0.130
-416.442	-200.000	0.027	-0.285
-415.428	-97.347	-0.295	0.077
-414.413	96.408	-0.300	-0.342
-413.398	164.175	0.086	-0.120
-412.384	245.248	0.129	0.216
-411.369	21.957	0.150	-0.122
-410.355	-200.000	0.133	0.641
-409.340	800.000	0.033	-0.096
-408.325	323.041	-0.092	-0.175
-407.311	-48.328	0.336	-0.161
-406.296	195.900	-0.093	-0.140
-405.282	-200.000	-0.032	0.304
-404.267	-158.228	0.027	0.002
-403.252	588.039	0.117	-0.288
-402.238	122.423	-0.129	0.161
-401.223	-154.060	-0.363	-0.025
-400.209	168.879	-0.130	0.184
-399.194	-18.877	0.210	0.130
-398.179	-8.269	0.156	-0.105
-397.165	302.436	-0.012	-0.022
-396.150	10.836	0.111	-0.084
-395.136	231.859	-0.030	0.049
-394.121	800.000	-0.061	-0.216
-393.106	-200.000	0.070	-0.468
-392.092	-48.526	-0.221	-0.106
-391.077	-96.951	0.359	0.094
-390.063	-35.430	-0.341	-0.184
-389.048	-14.560	-0.212	-0.135
-388.033	-8.703	-0.336	-0.224
-387.019	-200.000	0.037	-0.252
-386.004	800.000	-0.027	0.084
-384.990	-200.000	0.007	0.090
-383.975	800.000	0.046	0.133
-382.960	210.502	0.060	0.094
-381.946	135.313	-0.183	0.237
-380.931	-166.333	0.142	-0.006
-379.917	-200.000	0.064	-0.296
-378.902	800.000	-0.013	-0.038
-377.888	-174.497	0.159	-0.005
-376.873	161.252	0.057	0.079
-375.858	-165.330	0.053	-0.002
-374.844	-200.000	0.008	0.163
-373.829	-102.238	-0.234	0.056
-372.815	74.006	0.111	0.116
-371.800	9.955	0.106	-0.080
-370.785	-200.000	-0.026	0.277
-369.771	7.654	0.234	-0.174
-368.756	-107.639	0.127	-0.028
-367.742	-75.647	0.066	-0.023
-366.727	-128.807	0.418	-0.059
-365.712	10.977	0.075	0.057
-364.698	107.841	0.037	-0.044
-363.683	-200.000	0.083	0.627
-362.669	-200.000	-0.012	-0.102
-361.654	500.143	-0.045	0.104
-360.639	19.995	-0.224	-0.180
-359.625	237.047	-0.154	-0.253
-358.610	208.628	0.142	-0.220
-357.596	-200.000	-0.007	0.204
-356.581	700.204	0.048	0.125
-355.566	-6.988	0.092	0.062
-354.552	-200.000	-0.077	0.340
-353.537	173.404	0.086	0.123
-352.523	322.714	-0.036	0.068
-351.508	-200.000	-0.018	0.152
-350.493	-200.000	0.034	0.214
-349.479	-137.709	-0.390	0.043
-348.464	35.534	-0.199	-0.173
-347.450	-157.554	0.124	0.007
-346.435	285.943	0.104	-0.186
-345.420	-92.338	0.346	-0.097
-344.406	-101.296	0.181	-0.044
-343.391	800.000	0.043	0.155
-342.377	-17.437	-0.291	0.182
-341.362	-200.000	0.045	0.213
-340.348	44.584	-0.182	0.166
-339.333	14.357	0.267	0.207
-338.318	-88.936	0.285	-0.084
-337.304	800.000	0.035	0.113
-336.289	-14.882	-0.064	0.041
-335.275	756.266	-0.039	-0.105
-334.260	88.934	-0.197	0.218
-333.245	190.414	-0.102	-0.152
-332.231	157.101	0.254	-0.348
-331.216	245.039	-0.044	-0.074
-330.202	-178.075	0.215	0.005
-329.187	92.510	-0.166	0.186
-328.172	15.691	-0.130	-0.101
-327.158	112.315	0.062	0.074
-326.143	143.028	-0.253	-0.333
-325.129	-7.168	0.178	-0.120
-324.114	190.831	0.152	-0.227
-323.099	333.584	-0.140	-0.268
-322.085	408.620	0.161	0.338
-321.070	-68.841	-0.271	-0.104
-320.056	800.000	0.124	0.411
-319.041	65.198	0.066	-0.066
-318.026	226.115	-0.050	0.081
-317.012	324.830	-0.061	0.116
-315.997	-80.956	-0.367	0.120
-314.983	33.187	0.153	0.131
-313.968	-5.313	0.145	-0.098
-312.953	196.304	0.090	0.136
-311.939	-82.301	-0.055	-0.018
-310.924	84.539	-0.112	0.122
-309.910	-200.000	0.004	-0.106
-308.895	182.522	0.110	0.160
-307.880	312.862	-0.072	-0.134
-306.866	-48.655	0.273	-0.130
-305.851	132.404	0.239	0.305
-304.837	49.977	0.166	-0.156
-303.822	-200.000	0.034	0.338
-302.807	-88.079	0.328	0.097
-301.793	-175.751	-0.346	-0.009
-300.778	295.338	0.062	0.112
-299.764	800.000	-0.045	0.158
-298.749	-69.164	0.156	0.059
-297.735	115.324	-0.179	0.217
-296.720	800.000	0.048	0.165
-295.705	-134.880	0.176	-0.021
-294.691	632.617	-0.030	-0.075
-293.676	-123.678	-0.013	0.002
-292.662	575.090	0.016	0.039
-291.647	618.584	-0.040	0.099
-290.632	-181.121	0.221	0.004
-289.618	47.652	0.100	-0.093
-288.603	224.010	0.144	0.231
-287.589	-31.279	-0.123	0.068
-286.574	-74.828	0.103	0.036
-285.559	55.309	0.071	0.068
-284.545	192.324	-0.265	-0.396
-283.530	-83.482	-0.120	0.038
-282.516	117.403	0.101	0.123
-281.501	24.229	0.160	0.131
-280.486	800.000	0.075	0.251
-279.472	-122.437	0.298	-0.048
-278.457	-200.000	0.006	-0.052
-277.443	-200.000	0.029	-0.183
-276.428	-99.665	-0.092	-0.023
-275.413	-15.551	0.234	-0.148
-274.399	-149.272	0.349	-0.028
-273.384	59.660	-0.150	-0.146
-272.370	59.296	0.230	0.224
-271.355	-143.336	-0.365	-0.035
-270.340	-8.677	-0.259	-0.172
-269.326	24.946	0.413	-0.339
-268.311	173.866	0.147	0.210
-267.297	-166.790	-0.327	-0.013
-266.282	151.532	0.208	0.280
-265.267	426.827	0.103	0.219
-264.253	-30.269	-0.179	0.101
-263.238	500.694	0.064	0.147
-262.224	800.000	-0.217	0.761
-261.209	-200.000	0.047	0.400
-260.195	367.223	-0.069	-0.138
-259.180	180.135	-0.036	0.052
-258.165	-200.000	-0.038	0.221
-257.151	317.998	0.175	-0.327
-256.136	34.559	0.080	0.069
-255.122	-22.357	-0.096	-0.057
-254.107	-72.334	0.187	-0.069
-253.092	-86.573	0.263	0.080
-252.078	79.002	-0.045	0.048
-251.063	-156.543	0.374	-0.023
-250.049	-18.965	0.176	0.109
-249.034	17.516	-0.254	-0.200
-248.019	10.609	0.250	-0.189
-247.005	195.859	0.123	0.184
-245.990	-72.890	-0.091	-0.033
-244.976	-200.000	-0.015	0.215
-243.961	72.418	0.112	0.115
-242.946	-70.182	0.296	-0.111
-241.932	-200.000	-0.001	-0.205
-240.917	-92.964	-0.197	0.054
-239.903	-93.406	0.052	-0.014
-238.888	127.490	-0.195	0.244
-237.873	288.945	-0.076	-0.136
-236.859	-200.000	-0.023	-0.109
-235.844	-156.317	-0.258	0.016
-234.830	-19.608	0.259	-0.159
-233.815	-73.757	-0.252	-0.091
-232.800	239.564	-0.059	-0.097
-231.786	-200.000	0.003	0.397
-230.771	-97.177	-0.188	-0.048
-229.757	-200.000	0.032	-0.387
-228.742	25.512	-0.348	0.286
-227.727	-200.000	-0.061	-0.324
-226.713	23.526	0.299	-0.243
-225.698	-200.000	-0.056	0.354
-224.684	19.026	-0.133	0.105
-223.669	232.744	-0.163	-0.264
-222.655	-200.000	-0.014	-0.115
-221.640	-98.321	-0.195	0.049
-220.625	587.014	0.064	-0.155
-219.611	-200.000	-0.013	0.076
-218.596	-1.485	-0.319	-0.222
-217.582	-200.000	0.002	0.221
-216.567	729.127	-0.067	0.177
-215.552	-6.155	-0.369	-0.249
-214.538	438.782	0.116	-0.251
-213.523	-109.507	-0.343	0.072
-212.509	319.012	0.170	0.319
-211.494	337.792	-0.105	0.202
-210.479	-200.000	0.069	0.376
-209.465	800.000	-0.056	0.193
-208.450	800.000	-0.104	-0.307
-207.436	-200.000	-0.010	-0.097
-206.421	154.756	0.085	-0.116
-205.406	-94.199	0.340	0.092
-204.392	9.523	-0.318	-0.238
-203.377	-144.311	0.256	-0.024
-202.363	-33.453	-0.143	-0.078
-201.348	-21.388	-0.185	-0.112
-200.333	-134.255	0.145	-0.018
-199.319	-85.325	-0.149	0.046
-198.304	-200.000	0.019	0.117
-197.290	-22.196	-0.220	-0.132
-196.275	82.978	0.123	0.132
-195.260	-24.882	-0.122	0.072
-194.246	143.441	0.155	-0.203
-193.231	-200.000	0.006	0.283
-192.217	-17.686	-0.137	0.085
-191.202	1.198	0.206	0.146
-190.187	1.954	0.266	0.189
-189.173	119.698	-0.152	-0.186
-188.158	-27.744	0.126	0.072
-187.144	-200.000	0.006	-0.182
-186.129	-101.281	-0.187	-0.045
-185.114	-173.801	0.165	-0.005
-184.100	166.705	0.112	0.157
-183.085	116.399	-0.147	-0.177
-182.071	-200.000	-0.016	0.111
-181.056	38.116	-0.115	-0.101
-180.042	-200.000	0.040	-0.235
-179.027	425.035	0.045	-0.096
-178.012	-187.619	-0.045	-0.001
-176.998	-200.000	0.014	0.310
-175.983	-70.007	-0.190	0.071
-174.969	2.664	0.112	0.080
-173.954	10.974	-0.195	-0.147
-172.939	-23.423	-0.116	0.068
-171.925	-181.717	0.406	-0.008
-170.910	-136.069	-0.247	-0.029
-169.896	274.569	-0.072	-0.126
-168.881	39.457	-0.166	-0.147
-167.866	-200.000	-0.012	-0.074
-166.852	-173.692	0.194	0.006
-165.837	449.186	-0.103	0.224
-164.823	499.212	0.093	-0.211
-163.808	371.199	0.070	0.139
-162.793	-200.000	0.032	0.159
-161.779	-156.061	0.090	-0.006
-160.764	-98.468	0.128	0.032
-159.750	-65.858	-0.181	-0.071
-158.735	-200.000	0.005	0.064
-157.720	24.434	0.122	0.099
-156.706	522.675	0.101	-0.233
-155.691	-140.449	-0.217	0.022
-154.677	-43.944	0.027	0.013
-153.662	-66.216	0.089	-0.035
-152.647	93.210	-0.171	-0.190
-151.633	409.453	-0.118	-0.246
-150.618	-161.342	-0.208	0.011
-149.604	-200.000	-0.020	0.095
-148.589	-118.888	0.282	0.049
-147.574	-10.047	-0.276	-0.181
-146.560	800.000	0.057	0.167
-145.545	-58.359	-0.169	-0.072
-144.531	154.316	-0.103	-0.139
-143.516	-200.000	0.005	-0.127
-142.502	-48.174	-0.152	-0.072
-141.487	-3.017	0.148	0.102
-140.472	-73.464	-0.153	0.055
-139.458	-81.480	0.167	-0.054
-138.443	73.725	0.295	-0.304
-137.429	800.000	0.029	-0.109
-136.414	24.272	-0.083	-0.067
-135.399	-150.543	0.280	-0.021
-134.385	-200.000	-0.014	-0.099
-133.370	800.000	0.082	-0.263
-132.356	279.530	0.115	-0.203
-131.341	-2.611	0.216	-0.149
-130.326	718.657	0.098	-0.256
-129.312	-136.899	0.242	0.027
-128.297	348.712	0.123	-0.239
-127.283	-21.502	-0.321	0.192
-126.268	67.851	-0.243	-0.244
-125.253	312.252	0.157	-0.290
-124.239	312.068	-0.117	0.215
-123.224	-96.467	0.296	0.077
-122.210	-200.000	-0.020	-0.163
-121.195	-18.686	0.362	-0.222
-120.180	8.119	0.160	-0.118
-119.166	-89.821	0.155	-0.045
-118.151	-42.915	-0.217	0.108
-117.137	-21.898	0.036	0.022
-116.122	-80.112	-0.423	0.139
-115.107	-111.563	0.214	0.043
-114.093	277.100	0.195	0.341
-113.078	-29.570	0.097	0.055
-112.064	800.000	0.115	-0.314
-111.049	274.164	0.124	-0.216
-110.034	-200.000	-0.006	0.206
-109.020	386.112	-0.101	-0.206
-108.005	146.450	0.083	-0.110
-106.991	2.875	0.340	0.243
-105.976	-107.471	0.162	0.035
-104.962	-126.646	0.130	-0.019
-103.947	-200.000	-0.005	0.021
-102.932	-20.861	0.358	-0.216
-101.918	-113.157	-0.168	0.033
-100.903	165.885	0.101	0.141
-99.889	-200.000	-0.053	-0.312
-98.874	800.000	0.023	-0.082
-97.859	-48.911	0.140	-0.066
-96.845	-47.584	-0.209	-0.100
-95.830	223.153	0.232	-0.368
-94.816	800.000	-0.084	-0.338
-93.801	-98.638	0.112	0.028
-92.786	388.901	0.108	-0.219
-91.772	238.128	-0.120	-0.196
-90.757	12.125	0.178	0.135
-89.743	-8.744	0.150	0.099
-88.728	-132.066	0.313	-0.040
-87.713	-200.000	-0.039	-0.198
-86.699	-20.466	-0.111	-0.067
-85.684	53.667	0.104	-0.098
-84.670	170.281	-0.278	0.391
-83.655	25.838	0.106	-0.087
-82.640	-13.687	-0.156	0.099
-81.626	-55.047	0.099	0.044
-80.611	800.000	0.038	-0.135
-79.597	171.903	0.050	-0.070
-78.582	185.781	-0.301	-0.440
-77.567	49.805	-0.132	-0.122
-76.553	-68.376	0.109	-0.041
-75.538	588.239	-0.065	-0.158
-74.524	-117.642	0.164	-0.029
-73.509	-4.788	-0.023	-0.015
-72.494	-130.894	0.201	-0.026
-71.480	-74.325	0.416	-0.147
-70.465	71.239	-0.098	-0.100
-69.451	-167.259	-0.196	0.008
-68.436	60.973	-0.062	0.060
-67.422	-56.522	0.086	0.037
-66.407	-64.913	-0.186	0.074
-65.392	-139.658	-0.365	-0.038
-64.378	-23.850	0.182	-0.107
-63.363	-200.000	-0.017	-0.216
-62.349	69.518	-0.112	-0.113
-61.334	61.049	-0.769	-0.750
-60.319	-31.311	0.502	0.278
-59.305	73.385	-0.816	-0.838
-58.290	308.556	0.530	0.971
-57.276	353.113	0.616	1.199
-56.261	-200.000	109.552	604.992
-55.246	504.350	1501.763	3410.927
-54.232	178.409	2681.606	3842.192
-53.217	109.470	2150.422	2527.560
-52.203	40.582	1598.748	1413.412
-51.188	32.879	1339.341	1137.816
-50.173	29.869	1299.513	1086.298
-49.159	53.048	1355.081	1272.482
-48.144	53.349	1370.414	1288.637
-47.130	32.790	1324.497	1124.495
-46.115	29.575	1306.468	1090.201
-45.100	29.246	1301.732	1084.272
-44.086	29.244	1299.230	1082.135
-43.071	29.282	1296.770	1080.263
-42.057	29.183	1294.797	1077.998
-41.042	29.083	1293.487	1076.283
-40.027	29.381	1290.870	1075.797
-39.013	29.253	1289.508	1073.876
-37.998	29.282	1287.584	1072.397
-36.984	29.330	1285.954	1071.276
-35.969	29.415	1284.129	1070.208
-34.954	29.360	1282.573	1068.551
-33.940	29.365	1281.695	1067.806
-32.925	29.353	1280.251	1066.492
-31.911	29.454	1278.528	1065.592
-30.896	29.525	1277.210	1064.865
-29.881	29.503	1276.158	1063.816
-28.867	29.474	1274.711	1062.404
-27.852	29.451	1273.238	1061.002
-26.838	29.382	1271.782	1059.349
-25.823	29.400	1270.403	1058.262
-24.809	29.299	1269.444	1056.840
-23.794	29.292	1268.248	1055.764
-22.779	29.445	1266.969	1055.533
-21.765	29.425	1265.237	1053.935
-20.750	29.496	1263.587	1052.923
-19.736	29.334	1262.625	1051.158
-18.721	29.383	1261.267	1050.264
-17.706	29.310	1260.366	1049.054
-16.692	29.281	1259.415	1048.056
-15.677	29.238	1258.550	1047.049
-14.663	29.357	1257.372	1046.708
-13.648	29.169	1256.468	1044.845
-12.633	29.254	1255.331	1044.340
-11.619	29.295	1254.565	1043.892
-10.604	29.263	1253.854	1043.077
-9.590	29.303	1252.282	1041.957
-8.575	29.236	1251.829	1041.159
-7.560	29.322	1250.534	1040.526
-6.546	29.360	1249.742	1040.043
-5.531	29.304	1248.719	1038.832
-4.517	29.298	1247.973	1038.137
-3.502	29.261	1247.028	1037.098
-2.487	29.295	1246.572	1036.874
-1.473	29.202	1242.051	1032.551
-0.458	27.671	1226.896	1011.424
0.556	25.584	1209.731	972.627
1.571	21.700	1215.256	955.838
2.586	20.680	1229.106	961.015
3.600	20.402	1217.707	950.495
4.615	15.701	1146.190	870.319
5.629	7.669	1073.687	776.103
6.644	4.095	1054.745	745.175
7.659	3.775	1052.471	741.967
8.673	3.572	1051.101	739.965
9.688	3.539	1049.467	738.591
10.702	3.952	1047.898	739.394
11.717	9.224	1054.460	769.251
12.731	17.635	1066.558	818.578
13.746	22.522	1072.719	846.785
14.761	23.493	1073.458	851.959
15.775	22.735	1072.082	847.152
16.790	22.028	1070.275	842.260
17.804	21.496	1069.118	838.724
18.819	21.233	1068.575	836.963
19.834	21.307	1067.971	836.774
20.848	21.424	1067.787	837.113
21.863	21.274	1066.852	835.590
22.877	21.049	1066.004	833.778
23.892	21.045	1065.008	832.905
24.907	21.031	1064.249	832.172
25.921	20.936	1063.265	830.873
26.936	20.927	1061.884	829.681
27.950	20.723	1060.767	827.765
28.965	20.915	1059.240	827.408
29.980	21.166	1057.734	827.351
30.994	21.163	1057.239	826.876
32.009	21.202	1056.263	826.225
33.023	21.264	1055.232	825.638
34.038	21.171	1054.352	824.436
35.053	20.967	1053.340	822.610
36.067	20.922	1052.601	821.747
37.082	21.041	1051.427	821.318
38.096	21.182	1050.959	821.543
39.111	21.295	1050.177	821.390
40.126	20.957	1049.388	819.113
41.140	20.681	1047.709	816.437
42.155	20.392	1046.225	813.853
43.169	20.340	1045.331	812.844
44.184	20.229	1044.655	811.725
45.199	20.435	1043.872	812.006
46.213	20.643	1043.045	812.263
47.228	20.995	1042.291	813.246
48.242	21.101	1041.965	813.415
49.257	21.047	1040.496	811.946
50.271	21.127	1040.091	811.927
51.286	21.322	1039.603	812.384
52.301	21.122	1038.842	810.786
53.315	20.957	1037.494	808.900
54.330	20.847	1036.393	807.460
55.344	20.786	1035.394	806.325
56.359	20.815	1034.827	805.948
57.374	20.586	1033.698	803.938
58.388	20.386	1032.834	802.273
59.403	20.386	1031.889	801.465
60.417	20.448	1031.175	801.126
61.432	20.517	1030.161	800.585
62.447	20.214	1029.624	798.702
63.461	20.164	1028.720	797.701
64.476	20.133	1027.898	796.850
65.490	20.107	1026.556	795.622
66.505	20.302	1026.204	796.169
67.520	20.252	1025.596	795.400
68.534	20.117	1024.931	794.196
69.549	20.097	1024.258	793.512
70.563	20.046	1022.895	792.151
71.578	19.725	1022.532	790.333
72.593	19.758	1020.994	789.227
73.607	19.618	1021.273	788.732
74.622	20.020	1020.156	789.632
75.636	19.907	1019.877	788.830
76.651	20.003	1018.784	788.356
77.666	19.934	1018.614	787.841
78.680	19.990	1017.880	787.458
79.695	20.015	1017.057	786.862
80.709	20.197	1016.734	787.368
81.724	20.356	1016.205	787.612
82.739	20.436	1015.538	787.389
83.753	21.045	1015.289	789.883
84.768	21.489	1014.571	791.265
85.782	21.738	1014.080	791.938
86.797	21.615	1013.198	790.625
87.812	21.311	1012.295	788.476
88.826	21.336	1011.127	787.610
89.841	21.372	1010.857	787.491
90.855	21.445	1009.737	786.877
91.870	21.480	1008.866	786.289
92.884	21.425	1007.639	785.014
93.899	21.436	1006.596	784.181
94.914	21.493	1005.734	783.698
95.928	21.454	1005.120	782.973
96.943	21.167	1003.909	780.675
97.957	21.091	1003.430	779.897
98.972	21.302	1002.245	779.847
99.987	21.257	1001.658	779.124
101.001	21.209	1000.362	777.831
102.016	21.097	1000.189	777.130
103.030	21.191	999.355	776.832
104.045	21.255	998.860	776.661
105.060	21.119	997.765	775.136
106.074	20.838	996.077	772.512
107.089	20.512	995.212	770.329
108.103	20.533	993.260	768.842
109.118	20.282	992.686	767.220
110.133	20.215	991.712	766.101
111.147	20.136	990.515	764.760
112.162	20.310	989.500	764.678
113.176	20.438	989.438	765.124
114.191	20.402	989.540	764.977
115.206	20.306	988.606	763.766
116.220	20.362	987.437	763.040
117.235	20.271	986.711	762.012
118.249	20.185	985.592	760.706
119.264	20.068	984.826	759.532
120.279	20.008	984.253	758.760
121.293	19.915	982.785	757.154
122.308	19.857	981.712	756.007
123.322	19.677	981.238	754.790
124.337	19.775	980.071	754.252
125.352	19.771	978.935	753.297
126.366	19.850	977.987	752.841
127.381	19.983	976.843	752.472
128.395	19.798	976.602	751.419
129.410	19.999	975.753	751.570
130.424	20.212	974.853	751.732
131.439	20.370	974.406	752.007
132.454	20.421	973.523	751.481
133.468	20.447	972.594	750.808
134.483	20.377	971.938	749.933
135.497	20.444	971.349	749.702
136.512	20.586	970.176	749.342
137.527	20.565	969.618	748.754
138.541	20.586	968.772	748.127
139.556	20.550	968.419	747.630
140.570	20.932	967.838	748.759
141.585	21.282	967.172	749.677
142.600	21.294	965.947	748.714
143.614	21.413	965.637	748.919
144.629	21.469	964.707	748.371
145.643	21.352	963.808	747.105
146.658	21.070	962.537	744.850
147.673	20.818	961.027	742.543
148.687	20.525	960.433	740.767
149.702	20.487	959.210	739.598
150.716	20.540	958.410	739.142
151.731	20.468	957.983	738.441
152.746	20.721	957.103	738.771
153.760	20.867	956.200	738.630
154.775	20.870	956.208	738.580
155.789	20.980	955.309	738.289
156.804	20.907	954.983	737.662
157.819	20.939	954.502	737.360
158.833	21.137	953.749	737.549
159.848	21.330	953.410	738.039
160.862	21.196	951.406	735.856
161.877	20.688	950.222	732.735
162.892	20.571	948.660	730.976
163.906	20.408	948.015	729.729
164.921	20.436	946.865	728.897
165.935	20.655	945.968	729.059
166.950	20.730	945.307	728.798
167.964	20.700	944.719	728.155
168.979	20.499	943.303	726.163
169.994	20.376	943.090	725.417
171.008	20.924	942.006	726.808
172.023	21.118	941.580	727.223
173.037	21.266	941.550	727.752
174.052	20.841	940.347	724.987
175.067	20.639	938.987	723.036
176.081	20.224	938.423	720.815
177.096	20.305	937.612	720.464
178.110	20.422	937.087	720.482
179.125	20.363	936.824	719.970
180.140	20.685	936.269	720.813
181.154	20.871	936.017	721.327
182.169	21.120	936.046	722.317
183.183	21.163	935.426	721.954
184.198	21.023	934.465	720.569
185.213	21.075	933.840	720.235
186.227	21.107	933.539	720.075
187.242	21.138	932.955	719.686
188.256	21.408	932.403	720.309
189.271	21.399	931.703	719.668
190.286	20.936	930.433	716.720
191.300	20.312	929.193	713.137
192.315	19.991	928.336	711.098
193.329	20.200	927.889	711.551
194.344	20.439	927.354	712.060
195.359	20.576	927.101	712.363
196.373	20.769	926.785	712.849
197.388	21.053	925.972	713.321
198.402	21.332	925.901	714.344
199.417	21.548	925.532	714.878
200.432	21.657	925.009	714.854
201.446	21.728	924.671	714.821
202.461	21.780	924.528	714.859
203.475	21.365	923.698	712.464
204.490	21.220	921.775	710.329
205.504	20.958	921.410	708.915
206.519	21.038	920.437	708.430
207.534	21.030	919.505	707.617
208.548	21.042	919.429	707.546
209.563	21.132	918.441	707.088
210.577	21.021	918.063	706.283
211.592	21.458	917.604	707.636
212.607	21.537	916.972	707.406
213.621	21.606	916.491	707.250
214.636	21.365	915.705	705.609
215.650	21.478	914.628	705.175
216.665	21.435	914.218	704.621
217.680	21.704	913.704	705.246
218.694	21.620	913.597	704.761
219.709	21.551	912.374	703.481
220.723	21.504	911.601	702.634
221.738	21.442	911.121	701.954
222.753	21.338	910.225	700.783
223.767	21.529	909.984	701.299
224.782	21.656	909.721	701.542
225.796	21.695	908.977	701.065
226.811	21.636	907.842	699.893
227.826	21.366	907.207	698.260
228.840	21.215	906.601	697.130
229.855	21.183	905.798	696.323
230.869	21.170	904.842	695.476
231.884	21.052	904.595	694.754
232.899	20.936	903.588	693.459
233.913	20.908	902.781	692.666
234.928	20.787	902.078	691.584
235.942	20.721	901.461	690.787
236.957	20.782	900.991	690.607
237.972	20.728	900.530	689.982
238.986	20.773	899.955	689.656
240.001	20.765	899.252	689.024
241.015	20.909	899.144	689.452
242.030	21.115	898.353	689.598
243.045	21.116	897.978	689.253
244.059	21.148	897.354	688.841
245.074	21.213	897.114	688.850
246.088	21.490	896.385	689.321
247.103	21.578	896.229	689.486
248.117	21.830	895.963	690.214
249.132	22.284	895.497	691.579
250.147	22.419	895.403	691.976
251.161	22.590	894.915	692.211
252.176	22.599	894.577	691.922
253.190	22.678	892.985	690.941
254.205	22.678	892.699	690.658
255.220	22.610	891.674	689.535
256.234	22.438	891.670	688.800
257.249	22.383	890.883	687.916
258.263	22.407	889.978	687.250
259.278	22.485	889.228	686.914
260.293	22.406	888.938	686.321
261.307	22.483	888.619	686.314
262.322	22.692	887.970	686.567
263.336	22.671	886.967	685.646
264.351	22.575	886.095	684.541
265.366	22.546	885.941	684.248
266.380	22.678	885.021	683.988
267.395	22.550	883.972	682.622
268.409	22.460	883.394	681.766
269.424	22.257	882.993	680.612
270.439	22.139	882.139	679.437
271.453	22.200	881.363	679.014
272.468	21.961	881.066	677.803
273.482	22.126	880.343	677.825
274.497	22.122	879.432	677.049
275.512	22.187	878.944	676.860
276.526	22.223	878.368	676.494
277.541	22.261	878.208	676.461
278.555	22.518	878.203	677.383
279.570	22.747	877.283	677.495
280.585	22.713	876.757	676.897
281.599	22.445	875.485	674.828
282.614	22.085	874.737	672.815
283.628	22.222	874.079	672.772
284.643	22.073	873.688	671.843
285.657	22.096	873.004	671.343
286.672	22.162	872.410	671.079
287.687	22.168	872.011	670.737
288.701	22.186	871.174	670.104
289.716	22.357	870.692	670.325
290.730	22.264	870.055	669.421
291.745	22.329	869.566	669.231
292.760	22.358	869.474	669.211
293.774	22.841	868.493	670.231
294.789	22.743	868.017	669.432
295.803	22.411	866.954	667.298
296.818	22.153	866.324	665.774
297.833	22.071	865.539	664.801
298.847	22.222	865.192	665.049
299.862	22.321	864.683	664.970
300.876	22.570	864.385	665.623
301.891	22.869	863.888	666.313
302.906	22.834	863.985	666.195
303.920	23.064	863.293	666.470
304.935	23.215	863.054	666.794
305.949	23.015	861.608	664.869
306.964	22.697	860.988	663.136
307.979	22.671	860.489	662.593
308.993	22.772	860.017	662.550
310.008	22.963	859.463	662.781
311.022	22.708	858.605	661.106
312.037	22.525	858.128	659.993
313.052	22.279	857.425	658.473
314.066	21.997	856.781	656.868
315.081	22.178	855.873	656.789
316.095	22.248	854.955	656.287
317.110	22.167	854.334	655.452
318.125	22.137	854.416	655.345
319.139	21.791	854.200	653.830
320.154	22.049	853.439	654.153
321.168	22.180	853.041	654.276
322.183	22.358	852.457	654.433
323.197	22.371	851.719	653.856
324.212	22.355	851.120	653.279
325.227	22.260	851.085	652.840
326.241	22.088	850.047	651.350
327.256	22.157	849.619	651.221
328.270	22.045	848.767	650.093
329.285	22.035	848.302	649.643
330.300	22.110	847.601	649.326
331.314	22.035	847.796	649.141
332.329	22.386	847.061	649.816
333.343	22.541	846.913	650.218
334.358	22.600	846.422	650.003
335.373	22.582	846.252	649.747
336.387	22.721	846.061	650.054
337.402	22.779	845.865	650.061
338.416	23.075	845.511	650.819
339.431	23.114	845.187	650.656
340.446	23.360	844.968	651.334
341.460	23.377	844.350	650.864
342.475	23.358	844.503	650.852
343.489	23.504	843.737	650.743
344.504	23.579	843.505	650.780
345.519	23.723	842.878	650.768
346.533	23.497	841.959	649.174
347.548	23.259	840.917	647.443
348.562	22.865	840.708	645.783
349.577	22.741	839.599	644.423
350.592	22.499	839.203	643.176
351.606	22.486	838.219	642.316
352.621	22.552	837.802	642.183
353.635	22.790	837.215	642.541
354.650	22.801	836.279	641.807
355.665	22.691	836.259	641.336
356.679	22.824	835.918	641.498
357.694	22.929	834.755	640.931
358.708	22.828	834.097	640.003
359.723	22.996	833.627	640.196
360.738	22.867	833.159	639.313
361.752	23.118	832.606	639.739
362.767	23.346	831.973	640.021
363.781	23.530	831.812	640.504
364.796	23.797	831.690	641.316
365.810	23.810	831.145	640.888
366.825	23.818	830.979	640.732
367.840	23.711	830.257	639.733
368.854	23.420	829.571	638.100
369.869	23.185	829.036	636.788
370.883	23.394	828.707	637.228
371.898	23.518	828.565	637.510
372.913	23.640	827.955	637.420
373.927	23.524	827.078	636.273
374.942	23.569	826.542	635.967
375.956	23.722	826.387	636.337
376.971	23.858	825.993	636.467
377.986	23.851	825.603	636.082
379.000	23.861	825.108	635.682
380.015	24.019	824.317	635.581
381.029	23.940	823.917	634.933
382.044	23.835	823.218	633.963
383.059	23.963	823.100	634.273
384.073	23.677	822.101	632.431
385.088	23.475	821.347	631.076
386.102	23.287	820.366	629.595
387.117	23.178	819.518	628.503
388.132	23.179	819.163	628.180
389.146	23.335	818.924	628.492
390.161	23.621	818.611	629.213
391.175	23.846	817.929	629.428
392.190	23.467	817.665	627.829
393.205	23.164	817.190	626.334
394.219	23.252	816.275	625.891
395.234	22.996	815.798	624.564
396.248	23.077	815.293	624.407
397.263	22.949	814.816	623.537
398.278	22.916	814.403	623.048
399.292	22.729	813.820	621.889
400.307	22.962	813.420	622.348
401.321	23.011	812.932	622.091
402.336	23.226	812.482	622.448
403.350	23.403	812.682	623.170
404.365	23.567	812.491	623.546
405.380	23.909	811.943	624.270
406.394	24.182	811.425	624.774
407.409	24.033	810.986	623.860
408.423	24.178	811.062	624.368
409.438	24.252	810.556	624.185
410.453	24.171	810.378	623.708
411.467	24.184	809.635	623.126
412.482	24.462	809.264	623.756
413.496	24.494	809.136	623.715
414.511	24.266	808.765	622.578
415.526	24.210	808.034	621.763
416.540	24.310	807.036	621.288
417.555	24.171	806.697	620.490
418.569	24.277	806.396	620.573
419.584	24.209	805.690	619.737
420.599	24.215	805.283	619.391
421.613	163.425	1371.994	1796.466
422.628	142.134	1454.533	1796.571
