DTS Sentinel unit serial number:	SN413079Multiplexer serial number:	ORYXHardware model number:	OX4-SRSoftware version number:	ORYX F/W v4.00 Oryx Data Collector v3.7.2.0data status	okinstallation	princeton_trtdifferential loss correction	single-endedforward channel	channel 1reverse channel	N/Adate	2019/09/12time	20:02:34forward acquisition time	15.00reverse acquisition time	0.00gamma	496.2192k internal	0.2324k external	0.2324temperature offset calibration	1.0142default loss term (dB/km)	0.3790temperature slope calibration	1.0000multiplexer offset coefficient	1.0000multiplexer slope coefficient	1.0000fibre end	0.00T internal ref (°C)	31.75T ext. ref 1 (°C)	3.50T ext. ref 2 (°C)	26.26length (m)	temperature (°C)	Stokes	anti-Stokes-747.200	66.640	0.395	-0.406
-746.185	31.513	-0.162	-0.141
-745.171	799.024	0.228	0.635
-744.156	-128.972	-1.096	0.155
-743.142	800.000	0.008	0.023
-742.127	13.041	-0.550	-0.430
-741.112	-63.984	0.277	-0.114
-740.098	426.212	0.378	0.822
-739.083	-110.894	0.541	-0.112
-738.069	-200.000	-0.046	0.334
-737.054	-111.584	0.194	0.040
-736.039	-157.654	0.429	0.026
-735.025	-53.452	0.689	-0.318
-734.010	800.000	-0.069	0.214
-732.996	-119.928	-1.135	-0.197
-731.981	-56.958	-0.322	0.143
-730.966	91.795	-0.263	0.299
-729.952	-5.958	-0.855	0.590
-728.937	30.312	-0.635	-0.547
-727.923	-42.498	-0.559	-0.288
-726.908	-29.394	0.926	-0.534
-725.894	-48.370	-0.371	0.180
-724.879	-200.000	0.006	-0.286
-723.864	-200.000	0.062	0.755
-722.850	383.638	0.099	0.206
-721.835	-193.343	0.129	-0.001
-720.821	5.213	0.640	-0.476
-719.806	146.576	0.488	-0.661
-718.791	-94.767	1.015	0.278
-717.777	-65.969	-0.501	-0.202
-716.762	201.957	-0.432	-0.672
-715.748	137.965	0.365	0.482
-714.733	51.878	-0.417	-0.400
-713.718	-96.844	0.185	0.049
-712.704	-29.879	-0.738	-0.424
-711.689	359.178	-0.191	-0.386
-710.675	40.062	0.065	0.059
-709.660	-141.351	0.575	-0.059
-708.645	-200.000	0.021	-0.764
-707.631	800.000	0.127	-0.382
-706.616	800.000	0.114	-0.407
-705.602	25.943	-0.328	-0.276
-704.587	-200.000	0.006	-0.083
-703.572	-13.829	0.638	0.416
-702.558	171.960	-0.139	-0.201
-701.543	-48.043	0.469	-0.229
-700.529	-110.948	0.491	-0.102
-699.514	-200.000	-0.056	0.454
-698.499	-200.000	-0.008	0.306
-697.485	800.000	0.224	-0.979
-696.470	-42.337	-0.628	0.323
-695.456	25.672	0.312	-0.262
-694.441	-61.961	-0.037	0.016
-693.426	0.687	0.057	0.041
-692.412	-94.118	1.387	0.383
-691.397	-164.058	0.173	-0.008
-690.383	-60.914	1.044	0.445
-689.368	-110.384	-0.420	-0.088
-688.354	72.501	-0.324	0.340
-687.339	-61.436	0.449	0.190
-686.324	-123.252	-0.710	-0.114
-685.310	-107.783	0.912	0.200
-684.295	180.494	-0.465	0.687
-683.281	-200.000	0.034	-0.192
-682.266	800.000	0.087	0.272
-681.251	-162.119	-1.018	0.051
-680.237	2.255	0.564	-0.411
-679.222	-166.491	0.374	0.016
-678.208	-200.000	-0.064	-0.550
-677.193	-54.622	0.292	-0.133
-676.178	61.402	0.185	-0.185
-675.164	800.000	-0.082	0.241
-674.149	132.803	0.685	0.891
-673.135	-200.000	-0.115	0.525
-672.120	360.365	0.463	0.934
-671.105	248.002	0.128	-0.218
-670.091	800.000	-0.165	0.717
-669.076	-133.454	0.731	-0.092
-668.062	-154.644	0.514	0.034
-667.047	-114.773	0.437	0.084
-666.032	187.533	0.323	0.485
-665.018	-200.000	-0.090	-0.543
-664.003	120.755	0.066	-0.082
-662.989	12.341	0.291	0.226
-661.974	-124.203	0.605	-0.095
-660.959	-94.788	0.281	0.077
-659.945	21.998	0.745	0.612
-658.930	82.477	-0.295	0.322
-657.916	-20.388	-0.672	0.416
-656.901	755.210	-0.071	-0.193
-655.886	33.891	-0.495	0.433
-654.872	-34.689	-0.501	0.276
-653.857	-127.501	-0.429	0.063
-652.843	471.819	0.116	0.262
-651.828	281.323	-0.289	0.521
-650.814	43.932	0.408	0.376
-649.799	-142.754	0.348	0.034
-648.784	234.331	-0.157	0.260
-647.770	-200.000	0.038	0.339
-646.755	-200.000	-0.066	-0.448
-645.741	1.720	-0.344	0.249
-644.726	800.000	-0.126	0.384
-643.711	33.226	-0.415	0.362
-642.697	-39.047	-0.417	-0.221
-641.682	96.619	-0.781	0.899
-640.668	-45.317	-0.197	-0.098
-639.653	-32.890	0.238	0.133
-638.638	-20.390	-0.380	0.235
-637.624	309.583	-0.179	0.336
-636.609	-200.000	0.010	-1.229
-635.595	2.469	0.531	0.387
-634.580	106.891	0.053	0.064
-633.565	-7.640	0.188	-0.127
-632.551	189.216	0.371	0.559
-631.536	-200.000	0.037	-1.216
-630.522	254.487	-0.316	0.543
-629.507	-42.553	-0.329	0.168
-628.492	-200.000	0.051	0.284
-627.478	-74.239	-0.177	-0.064
-626.463	-200.000	-0.096	-0.566
-625.449	-200.000	-0.045	-0.304
-624.434	-37.240	-0.423	-0.228
-623.419	13.143	0.375	0.292
-622.405	140.728	0.365	0.485
-621.390	-3.953	0.479	-0.334
-620.376	-102.281	0.576	0.139
-619.361	48.526	-0.457	0.431
-618.346	-77.656	0.475	0.165
-617.332	-155.090	-1.213	-0.080
-616.317	11.741	1.044	0.805
-615.303	-105.099	0.387	0.089
-614.288	95.146	0.261	-0.298
-613.273	-200.000	-0.011	0.183
-612.259	-105.807	-0.849	0.193
-611.244	-200.000	-0.006	0.689
-610.230	-104.066	-0.527	-0.123
-609.215	2.553	0.980	-0.713
-608.201	42.193	0.155	0.141
-607.186	51.972	0.364	0.348
-606.171	800.000	0.026	0.104
-605.157	-105.090	-0.710	-0.163
-604.142	-200.000	-0.008	-0.050
-603.128	383.878	-0.095	-0.197
-602.113	53.288	0.533	0.513
-601.098	77.831	0.446	-0.477
-600.084	32.308	0.541	-0.469
-599.069	-89.658	-0.204	0.060
-598.055	-115.968	-0.120	-0.023
-597.040	388.446	0.553	-1.148
-596.025	-164.042	-0.065	0.003
-595.011	107.935	-0.539	-0.644
-593.996	-48.633	0.197	-0.095
-592.982	170.780	-0.366	-0.526
-591.967	101.082	0.137	-0.160
-590.952	96.915	0.380	0.437
-589.938	83.010	0.253	0.276
-588.923	-200.000	-0.058	0.565
-587.909	213.569	0.128	-0.203
-586.894	125.747	-0.514	-0.652
-585.879	-200.000	0.048	0.256
-584.865	21.779	-0.502	0.410
-583.850	800.000	-0.038	-0.136
-582.836	-40.475	0.424	-0.221
-581.821	16.988	0.157	0.125
-580.806	41.765	-0.221	-0.201
-579.792	-200.000	-0.108	0.676
-578.777	-200.000	-0.124	-0.783
-577.763	-136.981	0.219	-0.025
-576.748	-110.507	-0.895	-0.186
-575.733	294.023	-0.058	0.107
-574.719	534.395	-0.277	0.658
-573.704	-143.295	0.445	0.043
-572.690	110.077	0.236	-0.284
-571.675	122.954	0.560	-0.703
-570.661	754.224	0.376	-1.021
-569.646	192.830	-0.389	0.589
-568.631	800.000	-0.082	0.302
-567.617	800.000	-0.140	-0.578
-566.602	-43.995	0.283	0.143
-565.588	95.195	-0.270	-0.308
-564.573	221.161	0.171	0.275
-563.558	-50.337	0.639	-0.303
-562.544	800.000	-0.241	-0.929
-561.529	214.653	0.138	-0.219
-560.515	800.000	-0.301	-0.849
-559.500	-74.154	-0.690	-0.250
-558.485	-60.405	-0.670	0.286
-557.471	51.771	0.383	0.365
-556.456	800.000	0.079	-0.228
-555.442	85.947	0.248	0.273
-554.427	800.000	0.078	-0.336
-553.412	346.980	0.232	-0.457
-552.398	-200.000	-0.017	0.439
-551.383	-200.000	0.002	0.474
-550.369	235.319	-0.622	-1.030
-549.354	-104.984	0.262	-0.060
-548.339	620.087	-0.094	0.237
-547.325	-28.472	0.651	0.376
-546.310	-133.427	-0.346	0.044
-545.296	-13.263	-0.199	-0.130
-544.281	-34.217	0.632	-0.348
-543.266	-70.829	1.050	0.397
-542.252	-200.000	-0.058	0.503
-541.237	800.000	-0.308	-0.871
-540.223	161.318	-0.249	0.349
-539.208	94.968	0.572	0.652
-538.193	152.819	0.294	0.403
-537.179	-106.357	-0.699	0.157
-536.164	583.441	0.428	-1.052
-535.150	-200.000	0.142	-1.085
-534.135	-114.865	0.072	0.014
-533.121	119.539	0.279	0.345
-532.106	244.797	0.429	-0.722
-531.091	-36.156	-0.053	0.028
-530.077	800.000	0.071	0.245
-529.062	-120.378	-0.997	0.170
-528.048	-164.113	-0.199	-0.009
-527.033	-74.759	0.923	0.332
-526.018	-200.000	-0.026	0.179
-525.004	11.979	0.145	0.111
-523.989	468.123	0.198	0.446
-522.975	20.707	0.143	-0.116
-521.960	-185.125	-0.167	-0.003
-520.945	-116.173	-0.587	-0.109
-519.931	101.067	-0.121	0.141
-518.916	-8.819	0.433	-0.290
-517.902	800.000	0.086	-0.299
-516.887	121.955	0.700	-0.874
-515.872	800.000	0.201	0.664
-514.858	92.212	0.244	0.275
-513.843	800.000	-0.093	0.280
-512.829	-35.796	-0.725	-0.393
-511.814	-200.000	-0.036	-0.226
-510.799	399.081	-0.192	-0.403
-509.785	659.719	-0.033	-0.085
-508.770	325.788	-0.254	-0.487
-507.756	53.227	-0.450	0.431
-506.741	-200.000	0.012	-0.579
-505.726	-20.720	0.224	-0.138
-504.712	153.210	0.154	0.211
-503.697	201.988	-0.235	0.363
-502.683	-200.000	0.057	0.504
-501.668	345.099	0.428	0.841
-500.653	291.247	-0.334	-0.607
-499.639	-130.749	-0.576	0.077
-498.624	-112.746	0.530	-0.105
-497.610	800.000	0.109	0.460
-496.595	27.936	0.310	0.262
-495.581	204.509	0.341	-0.528
-494.566	50.947	0.405	0.383
-493.551	-42.609	0.366	-0.186
-492.537	133.982	-0.334	-0.432
-491.522	-0.766	-0.999	0.708
-490.508	800.000	-0.132	0.502
-489.493	-65.082	-0.792	0.320
-488.478	74.665	0.433	-0.455
-487.464	-200.000	0.023	-0.422
-486.449	108.839	-0.339	0.405
-485.435	200.384	0.129	-0.198
-484.420	-200.000	0.029	0.309
-483.405	-135.127	0.640	0.077
-482.391	53.002	-0.570	-0.545
-481.376	7.496	-0.593	-0.443
-480.362	41.998	-0.392	-0.355
-479.347	489.165	-0.227	-0.519
-478.332	-200.000	-0.007	0.906
-477.318	106.321	0.317	-0.375
-476.303	504.741	-0.303	-0.702
-475.289	-8.140	-0.404	0.272
-474.274	-200.000	0.026	-0.874
-473.259	800.000	-0.046	-0.174
-472.245	142.579	0.336	0.446
-471.230	-41.369	-0.142	0.073
-470.216	181.751	-0.080	-0.118
-469.201	800.000	-0.052	0.217
-468.186	-200.000	0.008	0.433
-467.172	-200.000	0.065	0.684
-466.157	-200.000	-0.066	0.724
-465.143	723.791	0.237	-0.631
-464.128	-18.948	-1.034	-0.642
-463.113	440.691	0.233	-0.508
-462.099	-200.000	0.043	-0.686
-461.084	800.000	0.153	-0.552
-460.070	-75.607	-0.520	-0.184
-459.055	-36.687	-0.034	-0.018
-458.040	306.208	0.148	0.274
-457.026	-77.365	0.249	-0.086
-456.011	-96.598	-0.409	0.108
-454.997	-150.540	-0.247	0.019
-453.982	-169.262	-0.689	0.025
-452.968	-123.885	0.596	-0.094
-451.953	58.835	-0.623	-0.611
-450.938	499.050	0.188	-0.432
-449.924	-63.265	0.857	-0.352
-448.909	-200.000	-0.002	0.591
-447.895	800.000	0.329	1.057
-446.880	94.770	0.179	0.203
-445.865	-127.302	-0.049	-0.007
-444.851	-25.446	0.903	0.532
-443.836	800.000	-0.068	0.227
-442.822	800.000	-0.215	0.666
-441.807	116.654	0.631	-0.772
-440.792	-200.000	-0.086	0.521
-439.778	-200.000	-0.044	0.352
-438.763	582.729	-0.200	0.491
-437.749	150.263	0.389	-0.527
-436.734	-200.000	0.044	0.469
-435.719	-6.848	-0.271	0.184
-434.705	-65.587	0.242	0.097
-433.690	-200.000	-0.028	-0.329
-432.676	-129.218	0.662	-0.092
-431.661	-129.872	0.711	-0.097
-430.646	-200.000	-0.003	-0.448
-429.632	6.098	-0.309	-0.229
-428.617	-56.057	-0.123	-0.055
-427.603	-94.202	0.487	0.133
-426.588	50.798	-0.266	-0.251
-425.573	-79.041	-0.853	-0.289
-424.559	-10.419	0.109	-0.072
-423.544	-87.034	0.333	-0.101
-422.530	247.647	0.409	0.689
-421.515	-48.195	-0.528	-0.254
-420.500	-9.743	-0.293	0.194
-419.486	-38.891	0.407	0.214
-418.471	121.914	0.401	0.499
-417.457	-27.689	-0.346	0.200
-416.442	-55.498	0.403	0.180
-415.428	82.314	0.417	-0.451
-414.413	159.638	-0.448	0.622
-413.398	800.000	-0.136	-0.426
-412.384	-113.956	-0.771	-0.149
-411.369	800.000	0.192	0.686
-410.355	-200.000	0.067	-0.955
-409.340	73.906	-0.102	0.107
-408.325	-119.128	0.935	-0.163
-407.311	-200.000	0.029	-0.375
-406.296	-58.789	-0.102	-0.044
-405.282	-6.195	0.279	0.190
-404.267	51.816	0.595	0.564
-403.252	-54.713	-0.802	-0.361
-402.238	-200.000	0.078	-0.671
-401.223	-52.738	0.667	0.307
-400.209	-200.000	-0.063	-0.347
-399.194	46.858	-0.441	0.409
-398.179	-200.000	-0.053	0.436
-397.165	9.100	0.839	0.631
-396.150	0.571	0.224	-0.159
-395.136	-200.000	0.128	-0.650
-394.121	-88.557	-0.596	0.177
-393.106	-10.067	-0.867	0.574
-392.092	-200.000	0.050	0.604
-391.077	-200.000	0.094	-0.631
-390.063	-16.802	-0.575	0.362
-389.048	-94.683	1.034	-0.280
-388.033	6.452	-0.363	0.268
-387.019	800.000	0.037	-0.104
-386.004	-72.661	0.504	0.185
-384.990	-26.683	-0.640	0.373
-383.975	800.000	-0.171	-0.613
-382.960	-200.000	0.018	0.901
-381.946	-130.863	-0.709	-0.095
-380.931	144.986	0.330	-0.439
-379.917	206.747	-0.091	0.142
-378.902	-117.363	-1.155	0.208
-377.888	-200.000	0.003	-0.516
-376.873	-200.000	0.068	0.373
-375.858	-200.000	-0.044	0.479
-374.844	-200.000	-0.480	-0.001
-373.829	-200.000	0.013	-0.895
-372.815	-29.626	0.487	0.277
-371.800	-150.654	0.169	0.013
-370.785	-152.564	-0.110	-0.008
-369.771	-11.642	-0.530	-0.347
-368.756	112.066	-0.189	0.227
-367.742	-200.000	0.021	0.252
-366.727	-9.066	-0.245	-0.163
-365.712	202.299	0.208	0.319
-364.698	800.000	-0.140	-0.425
-363.683	-100.456	-0.331	-0.082
-362.669	410.334	0.197	-0.415
-361.654	-28.744	0.445	-0.255
-360.639	630.301	-0.236	-0.593
-359.625	-89.537	-0.378	-0.110
-358.610	495.752	-0.285	0.651
-357.596	-132.687	0.921	0.117
-356.581	288.150	0.329	-0.593
-355.566	17.417	0.352	-0.278
-354.552	800.000	0.152	0.482
-353.537	277.114	0.311	0.550
-352.523	528.407	-0.271	0.635
-351.508	80.847	0.355	-0.381
-350.493	50.079	-0.575	0.540
-349.479	800.000	-0.169	0.734
-348.464	-98.545	-1.000	0.254
-347.450	800.000	-0.087	0.295
-346.435	-29.977	-0.352	0.199
-345.420	-200.000	0.042	-0.421
-344.406	86.602	0.087	-0.095
-343.391	-200.000	0.155	1.230
-342.377	-161.513	-0.147	-0.008
-341.362	-111.453	-0.766	0.155
-340.348	-82.450	0.803	0.259
-339.333	-200.000	0.023	-0.115
-338.318	-200.000	-0.077	-0.502
-337.304	292.731	-0.181	0.328
-336.289	493.877	0.252	-0.575
-335.275	62.465	0.476	0.472
-334.260	93.179	0.610	0.685
-333.245	-54.761	-1.011	0.454
-332.231	-0.840	0.300	0.211
-331.216	-24.092	0.362	0.215
-330.202	-200.000	-0.075	-0.431
-329.187	45.302	-0.135	0.123
-328.172	65.902	-0.536	-0.540
-327.158	-117.334	1.020	-0.184
-326.143	-24.536	0.467	0.276
-325.129	52.548	0.269	-0.256
-324.114	23.778	-0.214	-0.175
-323.099	4.327	0.462	-0.336
-322.085	-130.764	0.306	0.041
-321.070	-108.121	-0.428	0.092
-320.056	-200.000	-0.051	0.676
-319.041	106.479	-0.531	-0.625
-318.026	-200.000	-0.011	0.264
-317.012	-200.000	-0.039	-0.269
-315.997	10.802	0.416	-0.315
-314.983	800.000	-0.134	0.564
-313.968	-121.994	0.624	0.102
-312.953	-5.915	-0.562	0.382
-311.939	-157.039	-0.360	-0.022
-310.924	-143.012	0.459	0.044
-309.910	44.760	0.437	0.399
-308.895	7.182	-0.350	-0.259
-307.880	316.239	-0.141	0.265
-306.866	192.673	0.264	-0.396
-305.851	-38.265	-0.401	0.211
-304.837	-73.007	-0.720	0.262
-303.822	68.336	0.289	0.294
-302.807	-200.000	-0.153	-0.871
-301.793	278.373	0.276	-0.488
-300.778	-200.000	-0.095	-0.810
-299.764	-200.000	0.017	0.713
-298.749	-28.922	-0.622	0.355
-297.735	264.232	0.219	-0.378
-296.720	213.060	0.276	-0.432
-295.705	8.458	0.331	0.247
-294.691	800.000	0.160	0.659
-293.676	-200.000	0.005	0.186
-292.662	122.230	0.374	0.463
-291.647	428.612	0.253	0.542
-290.632	-66.242	0.735	0.290
-289.618	343.388	0.104	0.203
-288.603	-120.067	0.146	-0.025
-287.589	-200.000	0.070	-0.625
-286.574	-95.180	1.148	0.307
-285.559	-84.706	-0.527	0.165
-284.545	91.200	0.184	0.205
-283.530	106.903	0.342	-0.402
-282.516	1.798	0.384	-0.275
-281.501	-200.000	-0.013	-0.432
-280.486	152.362	0.111	-0.150
-279.472	-80.322	-0.286	-0.095
-278.457	-85.126	0.327	-0.102
-277.443	800.000	0.162	-0.462
-276.428	-45.864	-0.697	-0.341
-275.413	-70.881	-0.433	-0.162
-274.399	-157.831	0.458	0.027
-273.384	74.251	-0.385	0.401
-272.370	-34.706	-0.717	-0.389
-271.355	319.009	0.358	-0.673
-270.340	19.816	-0.261	-0.208
-269.326	78.917	0.596	-0.632
-268.311	149.140	0.282	-0.378
-267.297	-17.180	0.312	0.195
-266.282	-45.183	-0.179	0.088
-265.267	-169.655	-0.408	-0.015
-264.253	-200.000	0.005	-0.037
-263.238	800.000	0.068	-0.199
-262.224	-200.000	0.005	-0.123
-261.209	402.094	-0.100	-0.208
-260.195	-74.061	0.450	-0.161
-259.180	326.966	-0.161	0.305
-258.165	13.647	0.129	-0.099
-257.151	-23.895	0.461	0.273
-256.136	-37.857	-1.215	0.640
-255.122	-66.619	0.234	0.092
-254.107	-98.529	-0.268	-0.068
-253.092	332.258	0.210	0.401
-252.078	-24.675	0.389	-0.229
-251.063	47.543	0.204	0.188
-250.049	-200.000	0.092	-0.681
-249.034	-32.903	0.362	-0.199
-248.019	386.466	-0.251	-0.512
-247.005	161.448	-0.271	-0.375
-245.990	-42.600	0.431	-0.217
-244.976	-24.407	-0.316	0.187
-243.961	130.328	-0.183	0.232
-242.946	292.946	0.278	-0.501
-241.932	-44.937	0.413	-0.203
-240.917	-94.246	-0.547	-0.148
-239.903	142.522	-0.491	-0.645
-238.888	515.404	-0.106	-0.246
-237.873	-152.400	-0.607	-0.043
-236.859	-200.000	-0.039	-0.806
-235.844	-89.954	0.703	0.203
-234.830	-10.818	-0.715	-0.468
-233.815	162.644	0.376	-0.523
-232.800	-200.000	-0.019	-0.483
-231.786	-200.000	-0.039	-0.197
-230.771	221.615	0.011	0.018
-229.757	392.761	0.150	0.308
-228.742	133.680	0.293	-0.375
-227.727	356.903	0.349	0.689
-226.713	-54.229	0.643	0.289
-225.698	38.840	0.433	-0.382
-224.684	800.000	0.055	-0.164
-223.669	-34.902	0.980	-0.529
-222.655	-25.443	-0.490	0.286
-221.640	-106.604	-0.810	0.178
-220.625	-28.124	0.589	0.337
-219.611	-44.287	0.266	0.132
-218.596	800.000	0.080	-0.344
-217.582	-33.665	-0.181	0.099
-216.567	-35.492	0.922	-0.495
-215.552	-112.055	0.265	-0.053
-214.538	-82.717	-0.263	0.084
-213.523	800.000	0.014	0.050
-212.509	409.804	-0.746	1.564
-211.494	49.789	0.411	0.383
-210.479	-200.000	0.002	0.656
-209.465	115.571	-0.487	0.589
-208.450	680.648	-0.150	-0.387
-207.436	78.985	0.792	0.839
-206.421	-200.000	-0.064	0.368
-205.406	-110.049	0.442	-0.091
-204.392	-27.764	-0.107	-0.061
-203.377	-78.087	-1.107	-0.377
-202.363	60.170	0.713	-0.697
-201.348	186.933	-0.437	-0.644
-200.333	-80.310	-0.355	0.117
-199.319	-110.433	0.600	0.123
-198.304	50.814	0.317	-0.297
-197.290	261.579	-0.323	-0.552
-196.275	800.000	-0.081	0.344
-195.260	-83.624	0.050	0.016
-194.246	-179.522	-0.413	0.009
-193.231	-53.964	0.748	-0.336
-192.217	33.640	-0.561	0.482
-191.202	75.935	0.300	0.313
-190.187	-200.000	0.065	0.496
-189.173	131.946	-0.442	0.563
-188.158	800.000	-0.167	0.520
-187.144	800.000	-0.021	-0.063
-186.129	-160.803	-0.930	-0.049
-185.114	-200.000	0.013	-0.134
-184.100	-40.005	-0.314	0.162
-183.085	480.945	-0.108	-0.243
-182.071	426.435	0.207	0.441
-181.056	-116.302	0.416	-0.076
-180.042	-84.471	-0.387	0.121
-179.027	800.000	-0.233	-0.785
-178.012	-73.248	-0.512	0.185
-176.998	-20.156	-0.423	0.257
-175.983	-39.906	-0.087	0.045
-174.969	-149.074	-0.293	0.023
-173.954	-33.916	-0.700	-0.380
-172.939	149.382	-0.713	0.954
-171.925	-35.098	-0.347	-0.187
-170.910	800.000	0.130	-0.428
-169.896	-200.000	0.034	0.893
-168.881	-165.615	-0.685	-0.029
-167.866	-41.215	-0.628	-0.320
-166.852	151.443	-0.322	0.433
-165.837	14.530	-0.310	0.239
-164.823	-142.955	0.209	0.020
-163.808	-26.858	-0.239	-0.138
-162.793	8.805	0.417	0.311
-161.779	-98.585	0.480	0.121
-160.764	16.879	-0.804	0.628
-159.750	-0.101	-0.390	0.274
-158.735	-80.933	0.753	0.246
-157.720	-2.668	0.516	0.356
-156.706	455.834	-0.102	0.223
-155.691	-200.000	0.040	-0.444
-154.677	-200.000	0.032	0.349
-153.662	-48.663	0.922	0.437
-152.647	118.357	0.232	-0.283
-151.633	52.351	-0.674	-0.634
-150.618	-200.000	0.044	0.263
-149.604	133.479	0.286	0.364
-148.589	-32.861	0.631	0.346
-147.574	95.596	0.412	0.464
-146.560	-75.826	0.461	-0.161
-145.545	-200.000	0.078	-0.548
-144.531	452.790	-0.079	0.172
-143.516	-97.867	0.535	0.136
-142.502	-195.957	-0.407	-0.003
-141.487	800.000	0.158	0.679
-140.472	367.345	0.440	0.877
-139.458	110.842	-0.469	-0.556
-138.443	-200.000	-0.058	-0.463
-137.429	368.154	0.091	0.182
-136.414	-200.000	0.286	0.000
-135.399	541.775	-0.138	0.324
-134.385	-125.113	-0.271	0.041
-133.370	11.085	-0.520	0.392
-132.356	178.154	0.199	-0.286
-131.341	-200.000	0.031	-0.558
-130.326	-200.000	0.128	-0.615
-129.312	349.015	-0.139	-0.270
-128.297	130.313	-0.508	-0.641
-127.283	291.240	0.440	-0.789
-126.268	565.511	0.297	-0.710
-125.253	129.513	-0.325	-0.410
-124.239	37.259	0.219	-0.191
-123.224	-32.029	0.616	-0.340
-122.210	-172.975	-0.325	0.010
-121.195	-58.012	-0.416	0.179
-120.180	25.075	0.358	0.292
-119.166	25.942	-0.192	0.158
-118.151	-200.000	-0.017	-0.490
-117.137	5.805	0.164	-0.120
-116.122	-63.627	0.647	-0.261
-115.107	344.217	-0.282	-0.545
-114.093	25.188	-0.705	-0.576
-113.078	800.000	-0.203	-0.626
-112.064	298.429	-0.322	0.584
-111.049	-59.223	-0.477	-0.202
-110.034	-65.715	0.322	-0.127
-109.020	800.000	0.243	0.755
-108.005	-172.861	0.337	-0.010
-106.991	497.915	0.362	-0.821
-105.976	-169.219	-0.397	-0.014
-104.962	-12.686	0.703	0.451
-103.947	-165.092	-0.654	-0.029
-102.932	117.209	0.254	0.307
-101.918	-200.000	-0.146	-0.758
-100.903	157.717	0.427	0.582
-99.889	-129.583	-0.672	0.091
-98.874	-96.819	-0.191	-0.049
-97.859	-67.043	1.050	0.408
-96.845	-23.507	0.584	-0.345
-95.830	-64.099	-0.457	-0.184
-94.816	-200.000	-0.201	-0.950
-93.801	-122.451	0.437	-0.070
-92.786	-172.800	-0.256	-0.008
-91.772	800.000	-0.044	0.132
-90.757	800.000	0.293	-1.094
-89.743	-87.159	0.232	0.070
-88.728	62.420	-0.347	-0.341
-87.713	-33.270	-0.435	0.237
-86.699	-48.222	0.590	0.280
-85.684	-200.000	-0.016	-0.762
-84.670	800.000	-0.096	0.366
-83.655	-200.000	0.068	-0.326
-82.640	-121.983	-0.760	-0.123
-81.626	-63.067	0.257	0.104
-80.611	651.235	0.166	-0.419
-79.597	74.300	1.036	1.071
-78.582	-17.470	-0.525	-0.325
-77.567	-200.000	0.035	-0.356
-76.553	330.386	-0.170	-0.322
-75.538	-115.627	1.117	0.206
-74.524	-200.000	0.008	0.728
-73.509	172.974	-0.323	0.457
-72.494	-12.770	1.048	-0.671
-71.480	800.000	0.224	0.812
-70.465	-200.000	-0.001	-0.267
-69.451	-21.066	0.632	-0.380
-68.436	382.113	0.167	-0.337
-67.422	-200.000	-0.115	0.757
-66.407	-104.678	-0.133	-0.030
-65.392	50.364	0.247	-0.229
-64.378	-71.855	0.957	-0.350
-63.363	448.461	0.314	-0.681
-62.349	-126.031	-0.437	-0.065
-61.334	239.229	-1.072	-1.753
-60.319	-50.469	1.130	0.524
-59.305	-200.000	-0.444	-2.060
-58.290	601.675	0.305	0.745
-57.276	128.546	1.308	1.638
-56.261	-200.000	98.148	604.242
-55.246	620.327	1375.041	3397.888
-54.232	200.809	2540.669	3840.000
-53.217	118.159	2118.846	2567.011
-52.203	43.813	1585.344	1426.454
-51.188	35.307	1323.512	1140.501
-50.173	32.260	1282.286	1087.340
-49.159	56.016	1333.706	1271.592
-48.144	56.758	1350.041	1291.484
-47.130	35.327	1306.865	1126.095
-46.115	31.952	1289.208	1091.242
-45.100	31.851	1284.446	1086.581
-44.086	31.928	1281.769	1084.723
-43.071	31.532	1279.510	1080.477
-42.057	31.601	1278.233	1079.754
-41.042	31.481	1277.291	1078.223
-40.027	31.747	1274.799	1077.611
-39.013	31.848	1272.626	1076.311
-37.998	31.604	1271.252	1073.707
-36.984	31.829	1269.053	1073.096
-35.969	31.631	1267.742	1070.808
-34.954	31.721	1266.389	1070.139
-33.940	31.787	1264.892	1069.210
-32.925	31.692	1263.641	1067.565
-31.911	31.917	1261.561	1067.045
-30.896	31.838	1260.849	1065.951
-29.881	31.765	1260.310	1065.043
-28.867	32.078	1257.642	1064.522
-27.852	31.765	1256.647	1061.861
-26.838	31.922	1254.933	1061.257
-25.823	31.794	1254.366	1060.011
-24.809	31.883	1251.687	1058.207
-23.794	31.821	1251.002	1057.241
-22.779	31.717	1249.883	1055.667
-21.765	31.936	1248.862	1055.992
-20.750	31.918	1246.649	1053.982
-19.736	31.615	1245.751	1051.476
-18.721	31.591	1244.388	1050.150
-17.706	31.712	1243.087	1049.689
-16.692	31.588	1241.987	1048.024
-15.677	31.683	1241.596	1048.186
-14.663	31.765	1239.405	1046.752
-13.648	31.608	1239.117	1045.588
-12.633	31.723	1238.791	1045.917
-11.619	31.794	1237.181	1044.910
-10.604	32.063	1235.442	1044.896
-9.590	31.707	1235.836	1043.210
-8.575	31.676	1235.308	1042.547
-7.560	31.564	1233.951	1040.737
-6.546	31.479	1233.793	1040.089
-5.531	31.706	1232.129	1039.908
-4.517	31.614	1231.789	1039.065
-3.502	31.891	1229.661	1038.764
-2.487	31.803	1229.921	1038.456
-1.473	31.706	1224.606	1033.392
-0.458	30.155	1210.145	1012.685
0.556	28.090	1193.055	974.914
1.571	24.288	1198.104	958.557
2.586	22.938	1213.509	963.435
3.600	22.718	1200.990	952.224
4.615	17.457	1129.095	868.375
5.629	7.795	1056.232	765.936
6.644	4.021	1035.364	732.899
7.659	3.686	1032.751	729.403
8.673	3.091	1033.186	726.834
9.688	3.206	1031.732	726.291
10.702	3.591	1030.051	726.855
11.717	9.658	1037.351	760.648
12.731	18.862	1050.012	813.636
13.746	24.060	1055.723	842.665
14.761	24.819	1055.777	846.225
15.775	24.121	1054.551	841.872
16.790	23.345	1054.146	837.806
17.804	23.059	1053.243	835.661
18.819	23.197	1052.453	835.611
19.834	23.167	1052.420	835.368
20.848	23.017	1052.714	834.819
21.863	22.978	1052.254	834.196
22.877	22.975	1049.953	832.286
23.892	22.890	1048.956	831.024
24.907	23.004	1048.355	831.010
25.921	22.888	1047.230	829.500
26.936	22.994	1045.649	828.668
27.950	23.063	1043.623	827.315
28.965	22.746	1043.395	825.574
29.980	22.948	1041.394	824.865
30.994	23.006	1041.243	824.940
32.009	23.207	1040.433	825.163
33.023	23.309	1038.312	823.883
34.038	22.797	1038.246	821.375
35.053	22.732	1037.612	820.498
36.067	22.569	1036.122	818.493
37.082	23.035	1035.257	819.896
38.096	23.010	1034.635	819.218
39.111	22.835	1035.091	818.695
40.126	23.022	1032.901	817.756
41.140	22.594	1031.742	814.787
42.155	22.443	1030.068	812.697
43.169	22.284	1028.990	811.038
44.184	22.149	1028.353	809.844
45.199	22.120	1027.562	809.015
46.213	22.610	1027.915	811.478
47.228	22.907	1026.564	811.707
48.242	23.359	1025.157	812.594
49.257	23.128	1024.348	810.822
50.271	23.358	1024.143	811.643
51.286	23.456	1021.903	810.242
52.301	23.057	1023.622	809.707
53.315	23.063	1021.231	807.771
54.330	23.018	1021.309	807.560
55.344	22.576	1020.285	804.658
56.359	22.963	1018.888	805.249
57.374	22.638	1017.994	802.992
58.388	22.326	1016.599	800.402
59.403	22.247	1017.151	800.406
60.417	22.160	1016.647	799.545
61.432	22.401	1014.777	799.094
62.447	22.245	1013.725	797.490
63.461	22.227	1014.160	797.678
64.476	22.033	1013.078	795.876
65.490	22.101	1012.163	795.396
66.505	22.203	1010.378	794.386
67.520	22.288	1010.533	794.821
68.534	22.378	1008.606	793.639
69.549	21.940	1008.466	791.486
70.563	21.862	1007.534	790.330
71.578	21.651	1006.844	788.769
72.593	21.476	1005.132	786.572
73.607	21.656	1004.918	787.145
74.622	21.903	1004.070	787.520
75.636	21.941	1002.961	786.752
76.651	22.030	1003.045	787.144
77.666	22.112	1003.012	787.419
78.680	21.613	1002.570	784.764
79.695	21.830	1001.386	784.741
80.709	22.171	1000.805	785.739
81.724	22.382	999.962	785.951
82.739	22.204	999.513	784.732
83.753	22.817	999.543	787.423
84.768	23.399	999.626	790.014
85.782	23.430	998.260	789.001
86.797	23.723	996.671	788.980
87.812	23.226	996.519	786.583
88.826	23.205	995.642	785.725
89.841	23.233	994.545	784.917
90.855	23.579	993.558	785.600
91.870	23.533	993.010	784.891
92.884	23.217	991.856	782.514
93.899	23.319	990.776	782.045
94.914	23.373	989.658	781.328
95.928	23.262	989.190	780.402
96.943	23.247	988.059	779.375
97.957	22.854	987.225	776.919
98.972	23.151	986.303	777.429
99.987	23.233	984.709	776.465
101.001	23.045	984.148	775.131
102.016	23.057	983.695	774.759
103.030	23.252	982.403	774.522
104.045	23.237	982.841	774.733
105.060	22.905	982.752	773.145
106.074	23.061	978.976	770.783
107.089	22.912	978.811	769.937
108.103	22.639	978.452	768.395
109.118	22.212	976.648	765.053
110.133	22.158	975.180	763.603
111.147	22.076	974.152	762.375
112.162	21.977	973.962	761.728
113.176	22.524	974.007	764.067
114.191	22.370	972.265	761.969
115.206	22.201	972.194	761.113
116.220	22.286	970.653	760.206
117.235	22.177	969.082	758.441
118.249	22.023	969.091	757.715
119.264	21.885	968.828	756.846
120.279	21.478	969.063	755.205
121.293	21.252	967.775	753.160
122.308	21.414	965.629	752.120
123.322	21.355	965.044	751.344
124.337	21.520	964.294	751.402
125.352	21.331	963.327	749.773
126.366	21.876	961.599	750.696
127.381	22.019	960.871	750.672
128.395	21.825	961.215	750.045
129.410	21.874	959.550	748.888
130.424	22.473	958.398	750.475
131.439	22.360	959.097	750.475
132.454	22.319	958.289	749.602
133.468	22.403	956.921	748.822
134.483	22.637	955.613	748.725
135.497	22.567	955.943	748.622
136.512	22.349	954.761	746.703
137.527	22.588	953.894	746.973
138.541	22.321	953.293	745.305
139.556	22.727	952.019	745.963
140.570	22.993	951.755	746.814
141.585	23.156	951.753	747.435
142.600	23.247	950.956	747.124
143.614	23.310	950.228	746.752
144.629	23.486	948.584	746.133
145.643	23.448	947.806	745.298
146.658	22.816	947.035	741.971
147.673	22.932	945.536	741.218
148.687	22.708	945.313	740.037
149.702	22.548	943.986	738.263
150.716	22.667	942.271	737.355
151.731	22.387	942.921	736.624
152.746	22.485	941.858	736.139
153.760	22.806	939.889	735.874
154.775	23.287	939.384	737.418
155.789	22.789	940.102	735.838
156.804	22.714	939.829	735.248
157.819	23.195	938.772	736.356
158.833	23.173	937.935	735.546
159.848	23.376	936.993	735.584
160.862	23.287	935.161	733.712
161.877	22.738	934.969	731.220
162.892	22.505	932.693	728.414
163.906	22.357	932.845	727.856
164.921	22.144	932.221	726.425
165.935	22.669	930.623	727.280
166.950	22.818	929.841	727.217
167.964	22.821	928.771	726.329
168.979	22.272	928.225	723.582
169.994	22.378	927.163	723.123
171.008	22.952	926.499	724.899
172.023	23.199	926.586	725.914
173.037	23.844	925.471	727.618
174.052	23.134	924.237	723.680
175.067	22.719	923.075	721.010
176.081	22.294	922.590	718.832
177.096	22.564	921.460	718.990
178.110	22.364	921.819	718.389
179.125	22.354	921.628	718.137
180.140	22.493	920.623	717.856
181.154	22.926	920.158	719.194
182.169	23.265	919.453	719.959
183.183	23.045	919.767	719.244
184.198	23.111	919.280	719.067
185.213	22.927	918.581	717.711
186.227	23.274	917.050	717.860
187.242	23.250	917.487	718.038
188.256	23.230	916.898	717.432
189.271	23.340	915.023	716.347
190.286	22.825	915.145	714.296
191.300	22.663	913.067	711.957
192.315	21.970	912.746	708.847
193.329	22.128	912.350	709.113
194.344	22.713	911.405	710.677
195.359	22.303	912.461	709.783
196.373	22.749	911.084	710.443
197.388	23.261	910.010	711.601
198.402	23.178	910.467	711.562
199.417	23.595	910.209	712.972
200.432	23.587	910.154	712.834
201.446	23.593	908.877	711.798
202.461	23.475	908.873	711.257
203.475	23.360	908.075	710.107
204.490	22.918	907.075	707.493
205.504	22.651	906.309	705.765
206.519	23.091	904.640	706.159
207.534	23.072	904.306	705.762
208.548	23.105	904.257	705.793
209.563	22.983	903.304	704.499
210.577	23.291	901.751	704.453
211.592	23.642	902.248	706.172
212.607	23.519	902.192	705.580
213.621	23.638	901.159	705.183
214.636	23.379	899.987	703.176
215.650	23.494	899.472	703.165
216.665	23.630	898.577	702.942
217.680	23.356	898.391	701.647
218.694	23.656	897.337	701.951
219.709	23.083	897.970	700.117
220.723	23.162	896.225	699.007
221.738	23.094	895.551	698.151
222.753	23.195	894.349	697.549
223.767	23.464	894.932	699.004
224.782	23.477	894.869	698.944
225.796	23.803	893.740	699.281
226.811	23.412	893.257	697.303
227.826	22.989	892.103	694.680
228.840	22.841	891.599	693.645
229.855	23.172	890.581	694.090
230.869	22.965	890.300	692.996
231.884	22.724	889.284	691.202
232.899	23.220	887.809	691.934
233.913	23.031	887.951	691.244
234.928	22.488	887.888	689.008
235.942	22.505	886.687	688.083
236.957	22.621	885.632	687.656
237.972	22.428	886.007	687.134
238.986	22.421	885.108	686.350
240.001	22.761	883.679	686.502
241.015	22.501	883.619	685.385
242.030	22.819	883.746	686.658
243.045	22.662	882.929	685.352
244.059	22.933	881.417	685.168
245.074	22.799	882.233	685.224
246.088	23.221	881.254	686.037
247.103	23.682	880.926	687.508
248.117	23.723	882.205	688.604
249.132	23.908	881.633	688.815
250.147	24.666	880.001	690.407
251.161	24.234	879.942	688.631
252.176	24.268	879.743	688.543
253.190	24.432	878.703	688.301
254.205	24.513	877.581	687.674
255.220	24.358	876.679	686.311
256.234	24.106	876.338	685.012
257.249	24.266	876.239	685.490
258.263	24.006	875.965	684.214
259.278	24.192	875.159	684.239
260.293	24.375	873.452	683.547
261.307	24.306	874.057	683.695
262.322	24.144	873.999	682.969
263.336	24.164	872.715	681.983
264.351	24.347	871.675	681.809
265.366	23.905	871.425	679.863
266.380	24.328	870.434	680.644
267.395	24.233	869.454	679.455
268.409	24.004	869.451	678.519
269.424	23.999	868.750	677.893
270.439	24.324	867.219	677.875
271.453	23.885	867.251	676.169
272.468	23.946	865.517	674.990
273.482	24.118	866.043	675.994
274.497	24.310	864.836	675.719
275.512	23.924	865.271	674.536
276.526	23.906	864.462	673.776
277.541	24.062	864.363	674.231
278.555	24.335	863.567	674.582
279.570	24.477	862.692	674.377
280.585	24.529	862.068	674.027
281.599	24.291	861.179	672.372
282.614	24.046	861.007	671.254
283.628	23.900	859.630	669.573
284.643	24.141	858.523	669.557
285.657	23.971	857.940	668.405
286.672	23.544	858.312	667.029
287.687	24.093	857.178	668.149
288.701	24.115	857.417	668.361
289.716	23.925	856.722	667.048
290.730	24.469	855.484	668.061
291.745	24.211	854.930	666.603
292.760	24.128	855.681	666.821
293.774	24.681	853.824	667.381
294.789	24.775	854.491	668.192
295.803	24.289	853.016	665.168
296.818	23.986	852.456	663.540
297.833	23.878	851.593	662.410
298.847	24.092	850.960	662.655
299.862	23.940	851.095	662.135
300.876	24.212	850.713	662.790
301.891	25.077	849.396	664.919
302.906	24.702	849.707	663.708
303.920	24.759	849.671	663.835
304.935	24.972	848.665	663.780
305.949	24.778	848.352	662.758
306.964	24.121	847.678	659.740
307.979	24.061	846.897	658.851
308.993	24.823	845.143	660.240
310.008	24.819	846.390	661.141
311.022	24.691	844.970	659.502
312.037	23.863	845.036	656.440
313.052	24.083	843.181	655.750
314.066	23.595	842.747	653.558
315.081	23.607	843.111	653.828
316.095	23.678	841.333	652.651
317.110	23.886	841.097	653.176
318.125	23.541	840.221	651.171
319.139	23.127	841.450	650.543
320.154	23.479	839.745	650.458
321.168	24.006	838.960	651.723
322.183	23.863	838.562	650.834
323.197	24.040	838.358	651.264
324.212	24.122	836.808	650.304
325.227	23.777	836.874	649.038
326.241	23.658	836.211	648.031
327.256	23.933	835.088	648.106
328.270	23.840	834.611	647.340
329.285	23.571	834.755	646.415
330.300	23.279	834.574	645.153
331.314	23.503	833.552	645.120
332.329	23.759	834.227	646.519
333.343	24.583	833.177	648.641
334.358	24.470	833.173	648.170
335.373	24.386	832.030	646.917
336.387	24.131	832.471	646.278
337.402	24.562	832.202	647.575
338.416	24.692	832.639	648.330
339.431	24.707	832.449	648.177
340.446	25.261	831.311	649.239
341.460	25.115	830.358	647.910
342.475	25.575	829.969	649.211
343.489	25.309	830.455	648.574
344.504	25.208	830.273	648.007
345.519	25.265	830.336	648.208
346.533	25.291	829.030	647.222
347.548	25.180	828.261	646.165
348.562	24.760	826.708	643.386
349.577	24.593	826.413	642.499
350.592	24.285	825.840	640.890
351.606	24.489	824.148	640.251
352.621	24.278	824.745	639.900
353.635	24.415	823.503	639.371
354.650	24.450	822.791	638.889
355.665	24.771	821.865	639.261
356.679	24.397	821.976	637.952
357.694	24.847	821.139	638.855
358.708	24.606	819.408	636.592
359.723	24.413	820.162	636.434
360.738	24.363	818.845	635.177
361.752	24.457	819.268	635.784
362.767	25.096	818.550	637.444
363.781	25.393	817.858	637.904
364.796	25.452	817.680	637.916
365.810	25.378	817.871	637.747
366.825	25.416	817.524	637.553
367.840	24.895	817.483	635.617
368.854	24.708	816.433	634.081
369.869	24.746	816.043	633.857
370.883	24.744	815.336	633.245
371.898	24.855	815.761	633.911
372.913	25.491	814.802	635.358
373.927	24.880	814.020	632.535
374.942	25.301	812.794	633.013
375.956	25.237	812.512	632.511
376.971	25.317	812.992	633.110
377.986	25.552	812.503	633.503
379.000	25.560	812.125	633.179
380.015	25.635	811.663	633.026
381.029	25.712	810.563	632.383
382.044	25.758	809.794	631.889
383.059	25.602	809.121	630.761
384.073	25.599	808.253	630.017
385.088	25.191	808.312	628.579
386.102	25.172	807.001	627.438
387.117	25.195	806.467	627.045
388.132	24.791	806.204	625.373
389.146	24.980	805.681	625.575
390.161	25.325	805.023	626.211
391.175	25.612	805.516	627.539
392.190	25.338	804.367	625.634
393.205	24.823	803.858	623.390
394.219	24.573	803.288	622.021
395.234	24.270	803.218	620.858
396.248	24.588	802.119	621.060
397.263	24.280	802.856	620.503
398.278	24.345	801.700	619.781
399.292	24.468	801.241	619.799
400.307	24.341	800.348	618.614
401.321	24.395	799.632	618.192
402.336	24.946	799.195	619.707
403.350	25.250	799.191	620.699
404.365	25.487	798.794	621.156
405.380	25.541	799.579	621.899
406.394	25.630	798.978	621.683
407.409	25.989	798.444	622.452
408.423	26.258	797.439	622.539
409.438	25.798	798.185	621.482
410.453	25.843	797.417	620.985
411.467	25.693	796.840	619.963
412.482	25.475	796.755	619.092
413.496	26.045	795.609	620.106
414.511	25.872	795.391	619.284
415.526	25.709	795.451	618.716
416.540	25.677	794.029	617.447
417.555	25.742	794.065	617.644
418.569	25.783	793.272	617.110
419.584	26.095	792.647	617.640
420.599	25.921	792.413	616.807
421.613	162.376	1370.287	1793.646
422.628	140.770	1454.457	1793.740
