DTS Sentinel unit serial number:	SN413079Multiplexer serial number:	ORYXHardware model number:	OX4-SRSoftware version number:	ORYX F/W v4.00 Oryx Data Collector v3.7.2.0data status	okinstallation	princeton_trtdifferential loss correction	single-endedforward channel	channel 1reverse channel	N/Adate	2019/09/14time	00:46:35forward acquisition time	60.00reverse acquisition time	0.00gamma	496.2192k internal	0.2337k external	0.2337temperature offset calibration	1.0080default loss term (dB/km)	0.3790temperature slope calibration	1.0000multiplexer offset coefficient	1.0000multiplexer slope coefficient	1.0000fibre end	0.00T internal ref (°C)	26.42T ext. ref 1 (°C)	3.17T ext. ref 2 (°C)	21.08length (m)	temperature (°C)	Stokes	anti-Stokes-747.200	-84.128	0.363	-0.116
-746.185	-143.358	0.241	0.023
-745.171	-43.236	0.279	0.142
-744.156	-200.000	-0.022	0.454
-743.142	190.579	0.125	0.188
-742.127	-84.912	-0.169	-0.053
-741.112	-200.000	0.009	-0.238
-740.098	119.803	-0.197	-0.245
-739.083	-78.236	-0.113	-0.039
-738.069	-151.739	-0.412	0.030
-737.054	-200.000	0.003	-0.289
-736.039	-113.399	-0.304	0.060
-735.025	-18.583	-0.098	-0.062
-734.010	800.000	0.015	-0.056
-732.996	-82.109	-0.082	-0.027
-731.981	-200.000	0.001	-0.033
-730.966	-139.438	-0.249	-0.027
-729.952	-52.474	0.225	-0.105
-728.937	-43.844	0.164	-0.083
-727.923	-98.901	-0.146	0.037
-726.908	55.408	-0.025	0.025
-725.894	800.000	0.040	0.112
-724.879	-42.344	0.271	-0.139
-723.864	92.830	0.058	-0.065
-722.850	-200.000	-0.076	-0.344
-721.835	474.338	-0.195	0.442
-720.821	-70.013	0.062	0.024
-719.806	800.000	-0.093	0.359
-718.791	61.842	-0.143	-0.143
-717.777	-40.993	0.026	0.013
-716.762	-23.938	-0.173	0.104
-715.748	-89.633	-0.019	0.005
-714.733	543.558	0.213	-0.509
-713.718	800.000	0.067	0.283
-712.704	-172.515	0.056	-0.002
-711.689	145.192	-0.119	-0.159
-710.675	248.082	-0.144	0.244
-709.660	17.459	-0.073	0.058
-708.645	-84.218	-0.219	0.070
-707.631	-58.260	0.328	0.143
-706.616	158.533	-0.183	-0.255
-705.602	54.204	0.099	0.095
-704.587	-17.970	-0.321	0.202
-703.572	-96.331	-0.238	-0.063
-702.558	134.167	-0.073	0.095
-701.543	96.100	0.173	0.198
-700.529	89.293	-0.151	-0.169
-699.514	-104.929	-0.266	-0.061
-698.499	-200.000	-0.039	-0.213
-697.485	-138.519	-0.186	0.020
-696.470	354.587	0.092	-0.183
-695.456	-130.843	-0.340	-0.046
-694.441	-200.000	0.031	0.221
-693.426	-135.020	-0.275	0.033
-692.412	-200.000	0.004	0.038
-691.397	95.202	-0.174	-0.198
-690.383	-162.574	0.216	0.011
-689.368	-71.343	-0.170	-0.064
-688.354	58.910	0.246	-0.243
-687.339	-12.597	0.176	-0.115
-686.324	-0.880	0.184	-0.131
-685.310	58.881	0.015	0.015
-684.295	-132.188	-0.154	-0.020
-683.281	-200.000	-0.004	0.138
-682.266	114.981	-0.182	-0.222
-681.251	-149.257	-0.141	-0.011
-680.237	-40.419	-0.080	0.042
-679.222	-60.814	0.303	-0.128
-678.208	-3.748	-0.263	-0.183
-677.193	-3.090	0.281	-0.196
-676.178	-200.000	-0.012	0.338
-675.164	309.653	-0.081	-0.152
-674.149	-53.647	-0.501	-0.229
-673.135	-180.878	-0.257	-0.005
-672.120	576.191	-0.028	0.069
-671.105	-48.221	-0.247	-0.119
-670.091	-103.508	0.330	0.078
-669.076	-191.385	-0.247	0.003
-668.062	-141.111	-0.505	-0.052
-667.047	-2.152	0.088	-0.062
-666.032	-92.086	0.147	-0.042
-665.018	-93.710	-0.135	0.037
-664.003	-200.000	-0.038	0.248
-662.989	-111.855	-0.517	0.104
-661.974	103.807	-0.357	-0.419
-660.959	-200.000	0.018	-0.296
-659.945	304.942	0.045	0.084
-658.930	-10.363	0.236	0.156
-657.916	-6.829	-0.157	-0.107
-656.901	-81.712	-0.244	-0.080
-655.886	144.267	-0.003	0.004
-654.872	-72.957	0.350	0.129
-653.857	800.000	-0.011	-0.030
-652.843	-141.951	-0.189	0.019
-651.828	-109.801	0.145	0.031
-650.814	-128.504	-0.278	-0.039
-649.799	-200.000	-0.017	0.352
-648.784	447.748	-0.121	-0.265
-647.770	-76.051	-0.128	0.045
-646.755	-105.698	0.086	0.019
-645.741	-65.274	-0.361	0.146
-644.726	-20.555	-0.201	0.124
-643.711	-135.738	-0.271	0.032
-642.697	-200.000	0.005	-0.183
-641.682	552.492	-0.078	0.187
-640.668	-64.787	-0.106	-0.043
-639.653	800.000	0.002	0.007
-638.638	-200.000	-0.020	-0.258
-637.624	23.664	0.070	0.057
-636.609	800.000	-0.026	0.106
-635.595	-99.840	-0.195	-0.049
-634.580	-15.214	-0.263	0.168
-633.565	-62.071	0.143	0.060
-632.551	-60.886	-0.553	0.234
-631.536	-200.000	-0.062	0.333
-630.522	-200.000	0.006	-0.045
-629.507	86.387	-0.203	-0.224
-628.492	298.227	-0.070	0.129
-627.478	747.859	-0.051	0.137
-626.463	310.592	0.070	-0.131
-625.449	65.442	0.039	-0.040
-624.434	560.995	-0.117	-0.282
-623.419	800.000	-0.037	-0.121
-622.405	-27.261	-0.335	-0.195
-621.390	664.570	-0.106	0.274
-620.376	-200.000	-0.062	0.273
-619.361	-116.564	0.326	0.060
-618.346	800.000	-0.030	0.106
-617.332	53.316	-0.153	0.147
-616.317	-200.000	0.044	-0.203
-615.303	-200.000	-0.047	-0.273
-614.288	800.000	0.095	0.278
-613.273	112.955	0.204	0.246
-612.259	-177.131	0.387	-0.010
-611.244	147.981	-0.096	-0.129
-610.230	-200.000	-0.054	-0.254
-609.215	-57.243	0.234	0.103
-608.201	138.885	0.138	-0.181
-607.186	103.459	-0.150	0.175
-606.171	-172.460	0.196	0.006
-605.157	176.034	0.135	-0.196
-604.142	-200.000	0.036	-0.172
-603.128	-200.000	-0.032	0.384
-602.113	-40.082	0.236	-0.123
-601.098	-36.612	-0.216	-0.116
-600.084	-200.000	-0.007	0.034
-599.069	-122.191	-0.142	-0.023
-598.055	98.409	0.074	0.086
-597.040	508.422	0.114	-0.265
-596.025	342.293	-0.060	-0.117
-595.011	202.324	-0.159	-0.245
-593.996	96.387	-0.082	0.094
-592.982	686.451	-0.059	0.154
-591.967	77.225	0.155	-0.164
-590.952	-154.209	0.229	-0.015
-589.938	119.422	-0.213	-0.263
-588.923	-148.334	0.163	0.013
-587.909	-36.952	0.144	-0.077
-586.894	523.404	0.028	-0.066
-585.879	800.000	-0.056	0.243
-584.865	8.015	0.073	-0.054
-583.850	282.408	-0.164	-0.294
-582.836	3.051	0.406	0.295
-581.821	-57.203	0.174	0.076
-580.806	-32.442	-0.044	-0.024
-579.792	-200.000	0.008	0.119
-578.777	16.048	-0.159	-0.125
-577.763	492.688	-0.041	0.093
-576.748	-24.344	-0.080	0.047
-575.733	-23.113	0.190	-0.114
-574.719	-134.508	-0.213	0.026
-573.704	-108.198	-0.260	0.056
-572.690	92.130	0.220	0.247
-571.675	-200.000	0.048	-0.541
-570.661	27.455	-0.118	-0.099
-569.646	32.726	-0.224	0.193
-568.631	-86.189	0.097	-0.030
-567.617	169.133	-0.124	0.177
-566.602	3.240	-0.246	-0.178
-565.588	-200.000	-0.001	0.412
-564.573	119.660	-0.047	0.058
-563.558	596.714	0.039	-0.096
-562.544	-134.046	-0.248	-0.031
-561.529	800.000	0.032	-0.102
-560.515	74.892	0.116	0.122
-559.500	30.248	0.111	0.095
-558.485	89.484	-0.248	0.275
-557.471	-200.000	0.023	0.000
-556.456	454.190	-0.034	0.076
-555.442	65.739	0.416	0.420
-554.427	-200.000	-0.025	-0.270
-553.412	-103.745	-0.064	0.015
-552.398	98.790	-0.105	0.121
-551.383	800.000	0.119	0.379
-550.369	-72.601	0.367	-0.135
-549.354	-118.153	-0.173	0.031
-548.339	-111.001	0.235	0.048
-547.325	-200.000	-0.002	-0.255
-546.310	-151.607	-0.121	-0.009
-545.296	-148.182	0.090	0.007
-544.281	159.492	-0.060	0.083
-543.266	-149.364	0.356	-0.028
-542.252	-38.737	-0.265	0.139
-541.237	-99.036	-0.078	0.020
-540.223	-39.140	0.056	0.029
-539.208	399.602	-0.036	-0.075
-538.193	70.153	0.142	-0.146
-537.179	-193.183	-0.201	0.002
-536.164	-149.207	-0.071	-0.006
-535.150	-200.000	0.040	0.264
-534.135	194.856	-0.034	0.051
-533.121	-113.103	-0.217	0.043
-532.106	117.384	-0.130	0.160
-531.091	-76.736	0.305	0.107
-530.077	-119.722	-0.203	-0.035
-529.062	-97.500	-0.212	-0.055
-528.048	-9.248	-0.116	0.077
-527.033	800.000	0.021	0.059
-526.018	-200.000	0.084	-0.406
-525.004	-52.947	0.248	-0.114
-523.989	98.875	0.112	-0.129
-522.975	-200.000	0.006	0.322
-521.960	31.728	-0.134	-0.115
-520.945	-103.840	0.282	0.066
-519.931	33.909	-0.099	0.086
-518.916	-0.776	-0.238	0.168
-517.902	-71.280	-0.274	-0.102
-516.887	-57.901	-0.122	-0.053
-515.872	341.588	0.186	-0.362
-514.858	-200.000	0.063	-0.331
-513.843	271.523	0.165	0.289
-512.829	-42.434	-0.127	-0.064
-511.814	631.916	-0.048	-0.120
-510.799	-132.349	-0.159	0.020
-509.785	289.978	0.110	-0.199
-508.770	26.109	0.201	-0.167
-507.756	-67.767	-0.142	0.055
-506.741	256.761	-0.059	-0.100
-505.726	-22.776	0.107	-0.064
-504.712	800.000	-0.108	-0.433
-503.697	101.470	0.145	-0.168
-502.683	-187.131	0.381	0.005
-501.668	126.498	-0.077	-0.098
-500.653	476.494	0.122	0.275
-499.639	-137.782	0.374	0.042
-498.624	-107.183	0.284	-0.062
-497.610	-25.754	0.225	0.132
-496.595	-200.000	0.038	0.353
-495.581	-200.000	-0.019	-0.145
-494.566	-94.910	-0.493	-0.133
-493.551	667.525	0.160	-0.411
-492.537	-122.584	0.303	-0.049
-491.522	690.108	0.101	-0.262
-490.508	65.125	-0.312	-0.313
-489.493	52.433	0.046	-0.044
-488.478	-200.000	-0.058	0.314
-487.464	226.163	-0.129	0.207
-486.449	71.016	0.246	-0.253
-485.435	-71.347	0.193	0.072
-484.420	-138.615	-0.174	0.019
-483.405	-138.341	0.210	-0.023
-482.391	180.113	-0.210	0.306
-481.376	70.537	0.123	-0.127
-480.362	38.981	0.108	0.096
-479.347	12.012	0.026	-0.020
-478.332	269.955	0.074	-0.128
-477.318	103.518	0.145	-0.169
-476.303	-48.906	0.229	0.109
-475.289	-22.137	-0.097	-0.059
-474.274	800.000	0.030	0.107
-473.259	-200.000	0.002	0.207
-472.245	65.003	-0.070	-0.070
-471.230	173.385	0.117	-0.167
-470.216	-44.318	0.210	0.105
-469.201	552.817	-0.024	-0.057
-468.186	-148.626	0.330	-0.027
-467.172	-95.876	-0.308	-0.082
-466.157	-200.000	-0.057	0.259
-465.143	-196.676	-0.203	-0.001
-464.128	800.000	-0.024	-0.081
-463.113	-200.000	-0.050	0.241
-462.099	21.276	0.207	-0.167
-461.084	-94.021	-0.200	0.055
-460.070	-200.000	-0.015	-0.175
-459.055	210.608	0.091	-0.141
-458.040	-12.829	0.174	-0.113
-457.026	251.386	0.107	0.181
-456.011	10.218	0.349	-0.263
-454.997	-64.232	-0.131	0.053
-453.982	800.000	-0.080	0.243
-452.968	-93.226	-0.198	0.055
-451.953	-200.000	0.053	-0.386
-450.938	-45.127	-0.455	0.225
-449.924	-157.014	0.389	-0.024
-448.909	-25.318	-0.118	0.069
-447.895	403.521	-0.124	0.259
-446.880	133.102	0.115	0.147
-445.865	29.461	-0.164	-0.138
-444.851	1.873	-0.108	-0.078
-443.836	-36.848	0.065	0.035
-442.822	85.570	-0.092	-0.101
-441.807	300.120	-0.094	0.172
-440.792	327.447	-0.102	0.194
-439.778	-123.635	0.013	-0.002
-438.763	-200.000	0.002	0.262
-437.749	-29.630	-0.122	-0.069
-436.734	800.000	-0.074	0.283
-435.719	-79.197	0.239	0.080
-434.705	800.000	0.006	0.024
-433.690	80.687	0.138	0.148
-432.676	28.587	0.473	0.397
-431.661	16.291	-0.098	-0.077
-430.646	-4.105	-0.335	-0.230
-429.632	102.690	0.149	0.173
-428.617	800.000	-0.061	-0.178
-427.603	-87.614	0.180	-0.054
-426.588	-23.130	-0.091	0.054
-425.573	-200.000	0.012	-0.104
-424.559	311.478	0.092	-0.171
-423.544	-200.000	-0.009	-0.239
-422.530	49.398	-0.147	-0.138
-421.515	192.697	0.144	0.216
-420.500	95.051	0.085	-0.096
-419.486	125.503	-0.139	-0.174
-418.471	-15.067	-0.120	-0.076
-417.457	43.736	-0.103	0.094
-416.442	108.996	0.101	0.119
-415.428	-200.000	-0.013	-0.139
-414.413	0.450	-0.059	-0.042
-413.398	92.992	0.078	-0.087
-412.384	-144.467	-0.239	0.022
-411.369	31.053	0.118	0.100
-410.355	-67.886	0.107	0.041
-409.340	371.577	0.121	0.244
-408.325	800.000	0.035	-0.145
-407.311	52.308	-0.201	-0.190
-406.296	800.000	-0.140	0.468
-405.282	596.070	-0.010	-0.025
-404.267	-30.406	-0.349	0.196
-403.252	-200.000	-0.032	0.203
-402.238	-56.081	0.162	0.072
-401.223	68.525	-0.504	-0.512
-400.209	318.620	-0.124	0.232
-399.194	800.000	0.056	0.181
-398.179	-76.187	-0.095	0.033
-397.165	126.777	0.216	0.271
-396.150	-64.410	-0.545	-0.220
-395.136	19.732	-0.139	-0.111
-394.121	132.506	0.219	-0.280
-393.106	-15.646	-0.198	-0.125
-392.092	75.092	0.143	-0.149
-391.077	19.255	-0.175	-0.139
-390.063	58.256	0.202	-0.196
-389.048	-87.307	-0.190	-0.057
-388.033	144.924	0.162	-0.214
-387.019	38.942	-0.244	0.216
-386.004	-113.208	-0.107	0.021
-384.990	-40.231	-0.183	-0.094
-383.975	306.316	0.193	0.355
-382.960	-179.745	0.333	0.007
-381.946	36.264	-0.127	0.111
-380.931	-187.128	0.286	-0.004
-379.917	31.873	-0.184	-0.157
-378.902	-130.502	-0.194	0.026
-377.888	800.000	-0.110	-0.332
-376.873	-200.000	-0.040	-0.282
-375.858	530.349	0.054	0.126
-374.844	251.155	-0.065	0.109
-373.829	-200.000	0.005	0.039
-372.815	40.593	0.061	-0.054
-371.800	800.000	-0.058	0.251
-370.785	517.983	0.039	-0.089
-369.771	-200.000	0.007	0.184
-368.756	-125.808	0.272	0.041
-367.742	-88.977	0.109	0.032
-366.727	-92.949	0.245	0.068
-365.712	-125.512	-0.303	0.046
-364.698	-79.345	0.134	0.045
-363.683	800.000	-0.027	0.082
-362.669	385.173	-0.203	0.413
-361.654	-105.491	-0.141	-0.032
-360.639	-177.864	-0.193	0.005
-359.625	173.064	0.105	0.150
-358.610	-83.421	-0.495	-0.157
-357.596	252.936	-0.022	0.038
-356.581	-129.609	0.443	0.061
-355.566	-200.000	0.016	-0.288
-354.552	-5.101	-0.266	0.181
-353.537	-69.022	-0.625	0.238
-352.523	649.174	-0.119	-0.302
-351.508	-113.197	0.165	0.032
-350.493	149.802	0.072	0.097
-349.479	-200.000	-0.002	0.085
-348.464	-116.117	0.250	0.046
-347.450	-65.833	0.376	0.149
-346.435	-54.423	0.391	0.175
-345.420	-50.282	0.314	0.147
-344.406	-180.127	0.072	-0.001
-343.391	148.637	-0.123	0.165
-342.377	1.538	0.265	0.189
-341.362	35.789	-0.169	0.146
-340.348	-200.000	-0.034	0.149
-339.333	-200.000	0.010	-0.320
-338.318	-101.823	0.232	-0.056
-337.304	191.482	0.057	-0.084
-336.289	-200.000	-0.012	0.075
-335.275	-159.409	-0.511	0.028
-334.260	-64.477	0.196	0.079
-333.245	-200.000	-0.023	0.192
-332.231	9.518	-0.231	0.173
-331.216	800.000	0.016	0.063
-330.202	289.466	0.143	0.255
-329.187	-166.880	-0.259	0.011
-328.172	-200.000	-0.028	-0.268
-327.158	-135.377	-0.241	-0.029
-326.143	-5.696	0.225	-0.152
-325.129	49.217	-0.201	0.187
-324.114	-109.150	-0.036	0.008
-323.099	10.163	0.273	-0.205
-322.085	-100.816	-0.319	0.077
-321.070	-52.594	0.200	0.091
-320.056	47.023	-0.230	-0.211
-319.041	-83.602	-0.285	0.090
-318.026	-200.000	0.038	0.259
-317.012	-200.000	0.047	0.412
-315.997	-159.737	-0.221	0.012
-314.983	-101.584	0.332	-0.080
-313.968	-38.045	-0.115	0.060
-312.953	-56.632	0.278	0.122
-311.939	800.000	-0.097	0.352
-310.924	41.763	0.309	-0.276
-309.910	-83.447	-0.103	0.033
-308.895	350.515	-0.088	-0.173
-307.880	-200.000	-0.029	-0.370
-306.866	596.161	0.110	0.268
-305.851	292.697	-0.067	0.121
-304.837	-55.706	-0.162	0.072
-303.822	-3.338	0.137	-0.094
-302.807	251.665	-0.147	-0.246
-301.793	-158.914	-0.238	0.013
-300.778	-200.000	-0.029	-0.174
-299.764	-200.000	-0.001	-0.049
-298.749	156.725	0.135	-0.184
-297.735	746.821	0.109	0.288
-296.720	-33.849	-0.124	0.068
-295.705	154.175	-0.093	0.126
-294.691	800.000	-0.076	-0.214
-293.676	-29.298	-0.199	-0.112
-292.662	-119.896	-0.123	0.021
-291.647	-52.030	-0.041	-0.019
-290.632	-35.261	0.051	-0.027
-289.618	-69.437	0.184	0.070
-288.603	-122.765	0.039	0.006
-287.589	-61.348	0.172	-0.072
-286.574	-146.768	0.155	0.013
-285.559	-131.064	0.048	0.006
-284.545	-200.000	0.023	-0.307
-283.530	-76.594	-0.225	-0.078
-282.516	-200.000	0.015	-0.285
-281.501	22.387	-0.364	0.293
-280.486	97.394	0.128	0.145
-279.472	20.620	0.284	-0.227
-278.457	-186.857	-0.043	0.001
-277.443	49.595	0.086	-0.080
-276.428	-100.475	0.159	-0.039
-275.413	566.983	-0.071	0.170
-274.399	800.000	-0.031	0.113
-273.384	800.000	-0.053	-0.205
-272.370	-46.612	-0.141	0.068
-271.355	-200.000	-0.006	0.116
-270.340	-142.829	0.249	-0.024
-269.326	800.000	-0.030	-0.102
-268.311	558.743	-0.111	0.264
-267.297	-122.229	0.086	-0.014
-266.282	-117.154	0.400	-0.072
-265.267	-68.907	-0.177	-0.067
-264.253	-157.007	-0.170	-0.010
-263.238	-109.004	0.148	0.031
-262.224	-200.000	-0.006	-0.149
-261.209	-200.000	0.004	0.180
-260.195	800.000	0.051	-0.155
-259.180	-28.663	-0.135	-0.076
-258.165	-200.000	0.045	-0.308
-257.151	117.947	-0.192	-0.232
-256.136	108.502	0.094	0.110
-255.122	-17.086	0.094	-0.058
-254.107	800.000	-0.078	0.286
-253.092	-6.535	0.101	0.068
-252.078	-200.000	-0.034	-0.151
-251.063	800.000	-0.083	-0.309
-250.049	-71.099	0.220	0.081
-249.034	73.310	0.336	0.347
-248.019	-200.000	-0.000	0.029
-247.005	684.158	-0.082	-0.211
-245.990	286.804	-0.074	0.131
-244.976	589.963	-0.031	-0.076
-243.961	181.609	0.171	0.248
-242.946	-117.094	-0.107	0.019
-241.932	98.818	-0.232	-0.264
-240.917	-200.000	-0.021	0.275
-239.903	-98.879	-0.082	-0.021
-238.888	35.072	0.181	-0.156
-237.873	-1.748	0.135	0.093
-236.859	80.782	-0.277	-0.294
-235.844	-79.375	-0.230	0.077
-234.830	-62.697	-0.349	-0.142
-233.815	677.148	0.039	0.100
-232.800	-200.000	0.038	0.227
-231.786	-101.624	0.214	-0.051
-230.771	800.000	0.108	0.375
-229.757	-133.019	0.219	-0.027
-228.742	-200.000	0.007	-0.194
-227.727	-200.000	-0.032	0.203
-226.713	155.784	-0.027	-0.037
-225.698	10.108	-0.155	-0.116
-224.684	-99.746	-0.051	0.012
-223.669	262.309	-0.054	0.092
-222.655	38.959	0.213	-0.187
-221.640	800.000	0.044	-0.135
-220.625	-200.000	0.010	-0.081
-219.611	-200.000	0.020	0.124
-218.596	-19.493	0.131	-0.080
-217.582	-127.627	0.068	0.010
-216.567	24.179	0.060	-0.049
-215.552	-60.145	-0.177	-0.074
-214.538	47.617	-0.125	0.115
-213.523	-30.051	0.021	-0.012
-212.509	-200.000	0.010	0.247
-211.494	364.556	0.099	0.195
-210.479	-3.504	-0.251	-0.172
-209.465	261.190	0.333	-0.567
-208.450	-200.000	0.062	-0.304
-207.436	612.133	-0.108	-0.266
-206.421	-149.117	0.230	-0.018
-205.406	-200.000	0.012	0.242
-204.392	-76.876	-0.275	-0.095
-203.377	31.877	0.116	-0.098
-202.363	-200.000	0.001	-0.022
-201.348	199.681	-0.070	-0.105
-200.333	-83.181	-0.124	-0.039
-199.319	-83.626	0.362	-0.114
-198.304	71.874	0.166	-0.169
-197.290	-97.709	0.146	0.037
-196.275	-102.308	-0.364	0.086
-195.260	-76.874	0.155	-0.053
-194.246	-200.000	0.005	0.292
-193.231	116.284	0.025	0.030
-192.217	737.986	-0.032	-0.083
-191.202	13.397	-0.111	-0.084
-190.187	-200.000	-0.016	0.248
-189.173	179.122	0.180	-0.259
-188.158	-17.095	-0.133	0.083
-187.144	-136.606	0.177	0.020
-186.129	-151.866	0.194	0.014
-185.114	579.421	0.110	0.265
-184.100	-40.807	-0.229	0.117
-183.085	-103.114	0.269	-0.062
-182.071	-94.508	-0.099	-0.026
-181.056	212.633	0.100	0.155
-180.042	-65.205	-0.184	0.073
-179.027	-139.518	0.055	-0.006
-178.012	-147.947	0.410	-0.034
-176.998	240.157	-0.048	-0.079
-175.983	-10.737	-0.099	-0.064
-174.969	81.162	0.125	-0.133
-173.954	800.000	0.015	-0.045
-172.939	-49.363	0.343	-0.161
-171.925	-153.795	-0.238	0.016
-170.910	-200.000	-0.004	0.142
-169.896	-23.914	0.294	-0.173
-168.881	-27.918	0.065	0.037
-167.866	800.000	-0.014	-0.051
-166.852	171.949	-0.083	0.117
-165.837	-146.419	0.128	0.011
-164.823	252.468	-0.035	-0.059
-163.808	-200.000	0.008	0.393
-162.793	516.341	0.131	-0.300
-161.779	-74.229	0.044	0.016
-160.764	700.886	0.139	-0.358
-159.750	-200.000	-0.004	0.146
-158.735	-86.020	0.117	-0.035
-157.720	158.546	0.041	0.056
-156.706	673.978	-0.127	-0.323
-155.691	-96.063	0.040	-0.011
-154.677	-122.418	0.117	0.019
-153.662	800.000	-0.067	-0.270
-152.647	-53.331	0.045	0.020
-151.633	645.293	0.033	-0.082
-150.618	6.385	0.139	0.101
-149.604	-200.000	0.042	0.254
-148.589	219.910	-0.188	0.296
-147.574	129.603	-0.285	0.358
-146.560	-119.193	0.232	-0.040
-145.545	800.000	0.067	0.202
-144.531	-105.691	0.278	0.062
-143.516	-39.847	-0.093	0.048
-142.502	81.241	0.172	0.183
-141.487	-22.853	-0.097	0.057
-140.472	-111.245	-0.372	0.075
-139.458	-200.000	-0.007	0.057
-138.443	-8.714	-0.179	0.118
-137.429	-92.129	-0.070	-0.019
-136.414	-200.000	0.001	0.109
-135.399	800.000	0.054	0.162
-134.385	-200.000	0.018	-0.140
-133.370	-96.802	0.356	-0.092
-132.356	-48.638	0.065	0.030
-131.341	-116.259	0.298	0.054
-130.326	148.000	-0.189	-0.250
-129.312	756.164	0.090	0.238
-128.297	32.502	-0.303	0.257
-127.283	-89.270	-0.256	-0.074
-126.268	-200.000	0.040	0.283
-125.253	-200.000	-0.033	0.170
-124.239	40.416	0.563	-0.497
-123.224	800.000	-0.168	0.459
-122.210	-142.831	-0.103	0.010
-121.195	139.761	0.102	-0.131
-120.180	-107.872	-0.197	0.042
-119.166	800.000	0.201	0.659
-118.151	404.672	0.044	-0.090
-117.137	397.611	-0.092	0.188
-116.122	800.000	0.033	-0.099
-115.107	-200.000	0.042	0.201
-114.093	150.230	0.166	0.221
-113.078	800.000	-0.059	-0.224
-112.064	-1.119	-0.169	-0.117
-111.049	800.000	0.060	-0.245
-110.034	94.099	-0.243	-0.270
-109.020	-200.000	-0.022	-0.334
-108.005	-200.000	0.017	-0.340
-106.991	-196.150	0.129	0.001
-105.976	-128.605	-0.198	0.027
-104.962	-136.293	-0.426	0.049
-103.947	159.192	-0.085	0.115
-102.932	52.838	0.171	-0.160
-101.918	-25.008	0.279	0.162
-100.903	78.152	0.114	0.120
-99.889	49.748	-0.205	-0.189
-98.874	-119.662	-0.029	-0.005
-97.859	20.370	0.273	-0.216
-96.845	9.442	0.062	-0.046
-95.830	-123.151	-0.211	0.033
-94.816	424.467	-0.097	0.204
-93.801	312.884	0.104	-0.192
-92.786	146.553	0.174	-0.229
-91.772	-15.874	-0.145	-0.091
-90.757	261.352	0.170	-0.288
-89.743	-200.000	0.015	-0.344
-88.728	-200.000	0.072	0.442
-87.713	1.210	-0.330	0.232
-86.699	28.553	-0.186	-0.154
-85.684	-200.000	0.030	0.164
-84.670	392.691	0.278	0.567
-83.655	-123.445	-0.092	-0.014
-82.640	-130.962	-0.103	-0.014
-81.626	800.000	0.048	-0.161
-80.611	353.407	0.055	-0.108
-79.597	-140.379	0.125	-0.013
-78.582	334.690	0.089	0.168
-77.567	14.668	-0.219	-0.167
-76.553	-54.354	0.326	0.145
-75.538	-138.191	0.170	-0.018
-74.524	67.159	0.170	-0.169
-73.509	-135.386	-0.418	-0.049
-72.494	-7.888	0.049	-0.033
-71.480	-16.774	0.142	0.088
-70.465	-23.644	0.052	0.030
-69.451	-64.775	0.372	0.147
-68.436	167.050	0.174	-0.241
-67.422	194.456	-0.269	-0.399
-66.407	779.669	0.120	-0.320
-65.392	-93.107	-0.200	-0.054
-64.378	504.056	-0.113	0.256
-63.363	192.063	0.152	-0.225
-62.349	2.511	-0.117	0.083
-61.334	16.890	-1.171	-0.906
-60.319	187.804	0.395	0.577
-59.305	497.656	-0.531	-1.196
-58.290	800.000	0.411	1.208
-57.276	800.000	0.516	1.702
-56.261	-200.000	116.206	642.447
-55.246	497.503	1539.128	3461.604
-54.232	176.192	2707.446	3842.228
-53.217	105.019	2149.585	2477.984
-52.203	37.984	1584.405	1376.613
-51.188	29.745	1327.775	1104.621
-50.173	26.885	1288.646	1055.414
-49.159	52.271	1347.402	1255.452
-48.144	50.772	1360.769	1258.945
-47.130	29.915	1314.967	1094.794
-46.115	26.556	1296.615	1059.848
-45.100	26.286	1291.912	1054.384
-44.086	26.255	1288.783	1051.610
-43.071	26.226	1287.085	1050.010
-42.057	26.233	1284.737	1048.095
-41.042	26.287	1282.885	1046.858
-40.027	26.397	1280.961	1045.884
-39.013	26.276	1279.445	1043.904
-37.998	26.260	1277.958	1042.555
-36.984	26.404	1275.921	1041.684
-35.969	26.406	1274.536	1040.523
-34.954	26.413	1272.741	1039.057
-33.940	26.430	1271.305	1037.941
-32.925	26.465	1269.749	1036.832
-31.911	26.496	1268.560	1035.995
-30.896	26.462	1266.863	1034.373
-29.881	26.541	1265.551	1033.714
-28.867	26.508	1264.059	1032.266
-27.852	26.606	1262.678	1031.651
-26.838	26.412	1261.541	1029.577
-25.823	26.552	1259.956	1029.040
-24.809	26.495	1258.928	1027.837
-23.794	26.437	1257.512	1026.311
-22.779	26.573	1256.347	1026.090
-21.765	26.611	1254.888	1025.071
-20.750	26.441	1253.945	1023.297
-19.736	26.414	1252.292	1021.758
-18.721	26.312	1251.589	1020.570
-17.706	26.421	1250.146	1019.966
-16.692	26.494	1248.533	1019.020
-15.677	26.448	1248.349	1018.571
-14.663	26.366	1246.843	1016.841
-13.648	26.397	1245.586	1015.952
-12.633	26.304	1244.955	1014.874
-11.619	26.404	1243.705	1014.372
-10.604	26.387	1243.058	1013.708
-9.590	26.257	1242.590	1012.562
-8.575	26.424	1241.299	1012.404
-7.560	26.394	1240.276	1011.357
-6.546	26.426	1239.424	1010.803
-5.531	26.329	1239.167	1010.012
-4.517	26.389	1237.624	1009.048
-3.502	26.283	1237.011	1007.916
-2.487	26.308	1235.963	1007.164
-1.473	26.324	1231.604	1003.660
-0.458	24.891	1216.913	983.783
0.556	21.677	1200.750	947.075
1.571	18.206	1206.786	932.860
2.586	17.327	1221.336	939.169
3.600	17.065	1209.235	928.348
4.615	12.847	1138.868	852.477
5.629	6.190	1068.727	767.505
6.644	3.316	1051.398	741.176
7.659	3.103	1048.755	738.227
8.673	3.125	1048.057	737.775
9.688	3.157	1046.800	736.980
10.702	3.344	1044.349	736.080
11.717	7.178	1049.129	757.759
12.731	14.500	1059.527	800.469
13.746	18.914	1065.298	826.016
14.761	19.804	1065.545	830.405
15.775	18.948	1063.773	824.850
16.790	17.952	1061.575	818.300
17.804	17.155	1060.732	813.764
18.819	16.865	1059.398	811.277
19.834	16.859	1058.445	810.447
20.848	16.596	1058.269	808.984
21.863	16.379	1057.241	807.091
22.877	16.264	1056.597	805.978
23.892	16.277	1055.455	805.098
24.907	16.397	1055.127	805.348
25.921	16.379	1053.416	803.888
26.936	16.347	1052.641	803.069
27.950	16.335	1051.433	802.022
28.965	16.474	1049.695	801.282
29.980	16.519	1048.434	800.464
30.994	16.500	1047.584	799.653
32.009	16.723	1046.090	799.494
33.023	16.612	1045.208	798.227
34.038	16.403	1044.476	796.610
35.053	16.450	1042.936	795.590
36.067	16.402	1042.715	795.121
37.082	16.370	1041.839	794.237
38.096	16.623	1041.082	794.775
39.111	16.586	1039.971	793.686
40.126	16.413	1038.943	792.018
41.140	16.279	1037.566	790.271
42.155	16.130	1036.289	788.533
43.169	16.011	1035.490	787.300
44.184	15.951	1034.463	786.168
45.199	16.153	1033.069	785.982
46.213	16.255	1031.693	785.337
47.228	16.325	1031.660	785.570
48.242	16.362	1030.365	784.684
49.257	16.221	1029.977	783.666
50.271	16.464	1028.314	783.458
51.286	16.497	1027.775	783.129
52.301	16.353	1026.848	781.689
53.315	16.217	1025.988	780.336
54.330	16.243	1024.529	779.275
55.344	16.242	1023.519	778.434
56.359	16.210	1022.907	777.754
57.374	16.212	1021.761	776.825
58.388	16.161	1020.805	775.792
59.403	16.111	1020.128	774.982
60.417	16.075	1019.546	774.303
61.432	16.102	1018.934	773.896
62.447	15.963	1017.815	772.339
63.461	16.130	1016.796	772.264
64.476	15.903	1016.097	770.626
65.490	16.019	1015.307	770.488
66.505	15.938	1014.640	769.545
67.520	15.964	1014.260	769.304
68.534	16.076	1013.417	769.110
69.549	16.007	1012.311	767.885
70.563	15.838	1012.069	766.867
71.578	15.910	1010.833	766.187
72.593	15.817	1010.358	765.339
73.607	15.854	1009.609	764.871
74.622	15.807	1009.526	764.525
75.636	15.913	1008.206	763.940
76.651	15.948	1007.078	763.177
77.666	16.008	1006.577	763.002
78.680	15.933	1006.568	762.587
79.695	16.071	1005.286	762.174
80.709	16.051	1005.179	761.933
81.724	16.082	1004.248	761.302
82.739	16.225	1004.081	761.755
83.753	16.272	1003.493	761.451
84.768	16.649	1002.103	762.025
85.782	16.784	1001.138	761.834
86.797	16.580	1000.900	760.665
87.812	16.452	999.639	759.066
88.826	16.416	998.623	758.067
89.841	16.555	997.460	757.738
90.855	16.605	996.831	757.419
91.870	16.552	996.315	756.721
92.884	16.739	995.298	756.718
93.899	16.578	994.483	755.311
94.914	16.743	993.394	755.153
95.928	16.488	993.263	753.853
96.943	16.533	991.482	752.633
97.957	16.675	990.379	752.360
98.972	16.465	990.501	751.451
99.987	16.617	989.187	751.064
101.001	16.528	988.440	750.038
102.016	16.441	987.947	749.210
103.030	16.621	986.416	748.782
104.045	16.494	986.380	748.125
105.060	16.501	985.093	747.114
106.074	16.218	984.129	745.067
107.089	16.028	982.863	743.203
108.103	16.070	981.877	742.575
109.118	16.137	980.759	741.962
110.133	16.052	980.171	741.077
111.147	15.983	979.735	740.378
112.162	16.080	978.561	739.851
113.176	16.196	978.071	739.926
114.191	16.231	977.294	739.426
115.206	16.287	976.230	738.800
116.220	16.296	975.475	738.200
117.235	16.280	974.048	736.985
118.249	16.240	973.643	736.441
119.264	16.206	972.654	735.477
120.279	16.196	972.059	734.923
121.293	16.064	971.392	733.777
122.308	15.993	970.481	732.714
123.322	15.929	969.413	731.565
124.337	15.950	968.052	730.564
125.352	16.009	967.450	730.303
126.366	16.007	966.115	729.221
127.381	15.908	965.304	728.116
128.395	16.048	964.352	727.939
129.410	16.000	963.562	727.070
130.424	15.981	963.001	726.500
131.439	16.215	962.309	726.923
132.454	16.304	961.424	726.574
133.468	16.203	960.768	725.578
134.483	16.229	959.707	724.825
135.497	16.237	958.787	724.098
136.512	16.311	957.829	723.628
137.527	16.311	956.846	722.824
138.541	16.212	956.482	722.060
139.556	16.306	955.886	721.947
140.570	16.366	955.513	721.859
141.585	16.562	954.517	721.880
142.600	16.682	953.530	721.581
143.614	16.705	953.118	721.303
144.629	16.742	951.996	720.549
145.643	16.561	950.970	718.939
146.658	16.458	950.044	717.739
147.673	16.308	949.283	716.462
148.687	16.265	948.707	715.781
149.702	16.357	947.434	715.147
150.716	16.329	946.816	714.501
151.731	16.246	946.315	713.709
152.746	16.360	945.407	713.439
153.760	16.374	944.833	713.004
154.775	16.541	944.302	713.245
155.789	16.517	943.225	712.268
156.804	16.514	943.017	712.035
157.819	16.743	941.872	712.070
158.833	16.664	941.442	711.349
159.848	16.801	940.428	711.095
160.862	16.771	939.669	710.331
161.877	16.448	938.668	708.161
162.892	16.331	937.833	706.977
163.906	16.288	936.577	705.790
164.921	16.341	935.940	705.466
165.935	16.387	935.231	705.063
166.950	16.553	934.052	704.803
167.964	16.534	933.577	704.304
168.979	16.649	932.122	703.619
169.994	16.412	931.581	702.165
171.008	16.582	930.857	702.265
172.023	16.639	930.808	702.402
173.037	16.778	929.867	702.204
174.052	16.699	928.745	700.969
175.067	16.394	928.384	699.371
176.081	16.333	927.710	698.550
177.096	16.273	927.365	697.980
178.110	16.567	926.455	698.448
179.125	16.447	925.911	697.482
180.140	16.460	925.528	697.183
181.154	16.542	925.430	697.384
182.169	16.820	924.507	697.774
183.183	16.779	924.247	697.347
184.198	16.796	923.408	696.721
185.213	16.863	922.958	696.598
186.227	16.954	921.841	696.063
187.242	16.905	921.614	695.631
188.256	16.950	921.107	695.372
189.271	16.963	920.121	694.619
190.286	16.715	919.463	693.047
191.300	16.397	917.946	690.541
192.315	16.388	917.839	690.363
193.329	16.472	917.250	690.204
194.344	16.649	916.557	690.342
195.359	16.563	916.225	689.680
196.373	16.756	915.316	689.721
197.388	16.971	915.447	690.634
198.402	17.056	914.831	690.454
199.417	16.963	914.507	689.770
200.432	17.239	913.690	690.216
201.446	17.195	913.469	689.806
202.461	17.315	912.734	689.679
203.475	17.137	911.925	688.283
204.490	17.043	911.038	687.174
205.504	16.844	910.294	685.746
206.519	16.907	909.732	685.515
207.534	17.026	908.659	685.128
208.548	17.017	908.634	685.011
209.563	17.030	907.689	684.293
210.577	17.083	907.167	684.050
211.592	17.217	906.445	683.984
212.607	17.259	905.826	683.626
213.621	17.141	904.847	682.353
214.636	17.103	904.668	682.004
215.650	17.175	903.771	681.558
216.665	17.260	903.128	681.355
217.680	17.346	902.427	681.107
218.694	17.318	901.653	680.354
219.709	17.338	901.288	680.095
220.723	17.281	900.180	678.974
221.738	17.340	899.468	678.612
222.753	17.243	899.493	678.182
223.767	17.410	898.715	678.204
224.782	17.364	898.517	677.809
225.796	17.405	897.834	677.399
226.811	17.465	896.836	676.825
227.826	17.272	896.471	675.722
228.840	17.346	895.238	675.026
229.855	17.271	894.580	674.173
230.869	17.302	893.726	673.593
231.884	17.195	893.294	672.781
232.899	17.082	892.590	671.744
233.913	17.107	891.755	671.158
234.928	17.122	891.382	670.875
235.942	17.123	890.487	670.146
236.957	17.191	890.018	670.001
237.972	17.079	889.760	669.309
238.986	17.260	889.044	669.424
240.001	17.386	887.909	669.004
241.015	17.278	887.760	668.408
242.030	17.313	887.064	667.962
243.045	17.333	886.331	667.431
244.059	17.266	886.405	667.166
245.074	17.407	885.375	666.882
246.088	17.589	884.478	666.859
247.103	17.673	884.228	666.943
248.117	17.667	884.197	666.834
249.132	17.915	883.151	666.958
250.147	18.039	882.807	667.121
251.161	18.015	882.464	666.711
252.176	17.950	881.704	665.825
253.190	18.203	880.708	665.999
254.205	18.087	880.529	665.352
255.220	18.084	879.970	664.860
256.234	17.964	879.360	663.873
257.249	18.022	878.483	663.378
258.263	18.035	877.945	662.962
259.278	18.115	876.972	662.479
260.293	18.024	876.931	662.036
261.307	18.298	875.742	662.140
262.322	18.190	875.646	661.591
263.336	18.353	874.317	661.160
264.351	18.293	873.695	660.398
265.366	18.280	873.277	659.973
266.380	18.261	872.923	659.576
267.395	18.346	871.901	659.073
268.409	18.085	871.149	657.443
269.424	18.234	870.434	657.417
270.439	18.204	869.421	656.478
271.453	18.058	869.156	655.660
272.468	17.957	868.761	654.915
273.482	18.045	868.158	654.740
274.497	18.189	867.185	654.500
275.512	18.070	867.166	653.973
276.526	18.033	866.628	653.366
277.541	18.219	865.550	653.207
278.555	18.366	865.546	653.705
279.570	18.491	864.915	653.650
280.585	18.344	864.164	652.464
281.599	18.171	863.412	651.179
282.614	18.289	862.390	650.801
283.628	18.177	862.151	650.139
284.643	18.252	861.519	649.887
285.657	18.164	860.954	649.069
286.672	18.279	859.961	648.700
287.687	18.434	859.569	648.933
288.701	18.251	859.064	647.801
289.716	18.405	858.032	647.550
290.730	18.300	857.950	647.034
291.745	18.378	857.370	646.835
292.760	18.421	856.879	646.569
293.774	18.549	856.332	646.581
294.789	18.495	855.276	645.520
295.803	18.311	854.624	644.279
296.818	18.361	854.021	643.959
297.833	18.393	853.325	643.497
298.847	18.340	852.952	642.957
299.862	18.421	852.398	642.788
300.876	18.484	851.835	642.541
301.891	18.724	851.118	642.842
302.906	18.722	850.848	642.577
303.920	18.803	850.252	642.369
304.935	18.890	849.923	642.390
305.949	18.772	848.920	641.136
306.964	18.587	848.810	640.304
307.979	18.694	848.048	640.073
308.993	18.821	847.369	639.976
310.008	18.875	846.883	639.753
311.022	18.786	846.286	638.915
312.037	18.688	845.603	637.979
313.052	18.522	844.844	636.732
314.066	18.420	844.476	636.020
315.081	18.447	843.825	635.576
316.095	18.499	843.177	635.224
317.110	18.537	842.857	635.069
318.125	18.448	842.120	634.127
319.139	18.587	841.812	634.353
320.154	18.554	841.658	634.057
321.168	18.621	840.651	633.488
322.183	18.758	840.166	633.575
323.197	18.659	839.805	632.882
324.212	18.513	839.383	631.969
325.227	18.619	838.238	631.441
326.241	18.832	837.385	631.527
327.256	18.722	837.108	630.857
328.270	18.652	836.778	630.295
329.285	18.670	836.079	629.778
330.300	18.576	835.779	629.153
331.314	18.726	835.051	629.097
332.329	18.875	834.759	629.369
333.343	18.832	834.492	628.952
334.358	18.841	833.944	628.517
335.373	18.844	833.450	628.102
336.387	18.766	833.405	627.727
337.402	19.053	832.672	628.167
338.416	19.074	832.572	628.114
339.431	19.152	832.290	628.130
340.446	19.270	831.739	628.087
341.460	19.248	831.505	627.776
342.475	19.295	830.740	627.313
343.489	19.311	830.535	627.159
344.504	19.333	830.578	627.218
345.519	19.381	829.923	626.843
346.533	19.417	829.016	626.233
347.548	19.191	828.492	624.962
348.562	19.022	828.225	624.090
349.577	18.962	827.437	623.224
350.592	19.072	826.430	622.810
351.606	18.863	825.708	621.456
352.621	18.981	825.301	621.520
353.635	19.227	824.402	621.674
354.650	19.166	824.101	621.174
355.665	19.241	823.504	620.936
356.679	19.275	822.828	620.497
357.694	19.230	822.161	619.777
358.708	19.088	821.958	619.059
359.723	19.348	820.980	619.202
360.738	19.203	820.187	618.027
361.752	19.222	820.011	617.909
362.767	19.425	819.924	618.515
363.781	19.419	819.136	617.845
364.796	19.524	818.608	617.769
365.810	19.604	818.218	617.706
366.825	19.654	817.964	617.638
367.840	19.671	817.464	617.267
368.854	19.454	817.282	616.300
369.869	19.455	816.644	615.766
370.883	19.610	815.746	615.589
371.898	19.590	815.854	615.543
372.913	19.757	815.237	615.618
373.927	19.574	814.337	614.234
374.942	19.712	814.211	614.575
375.956	19.773	813.779	614.411
376.971	20.035	812.914	614.632
377.986	19.942	813.018	614.328
379.000	19.973	812.765	614.190
380.015	19.795	811.673	612.683
381.029	19.722	811.560	612.285
382.044	19.953	810.623	612.339
383.059	19.890	810.153	611.707
384.073	19.885	809.356	611.035
385.088	19.679	808.730	609.782
386.102	19.740	808.184	609.529
387.117	19.672	807.504	608.726
388.132	19.806	806.898	608.684
389.146	19.704	806.626	608.065
390.161	19.918	806.471	608.647
391.175	19.792	806.232	607.973
392.190	19.840	805.505	607.538
393.205	19.725	805.006	606.704
394.219	19.755	804.556	606.418
395.234	19.794	804.209	606.237
396.248	19.510	803.912	604.965
397.263	19.643	803.198	604.839
398.278	19.678	802.688	604.525
399.292	19.540	802.183	603.609
400.307	19.624	801.454	603.301
401.321	19.607	801.501	603.223
402.336	19.684	801.065	603.110
403.350	19.842	800.294	603.027
404.365	19.921	800.085	603.091
405.380	19.834	799.912	602.604
406.394	20.082	799.375	603.012
407.409	20.066	798.840	602.497
408.423	20.106	798.715	602.488
409.438	20.294	798.575	602.982
410.453	20.295	797.589	602.188
411.467	20.378	797.479	602.341
412.482	20.481	797.013	602.293
413.496	20.422	796.802	601.875
414.511	20.383	796.070	601.134
415.526	20.494	795.606	601.114
416.540	20.342	795.371	600.356
417.555	20.328	794.866	599.877
418.569	20.403	794.436	599.757
419.584	20.359	793.963	599.193
420.599	20.463	793.635	599.253
421.613	162.479	1372.513	1797.817
422.628	140.857	1456.842	1797.907
