DTS Sentinel unit serial number:	SN413079Multiplexer serial number:	ORYXHardware model number:	OX4-SRSoftware version number:	ORYX F/W v4.00 Oryx Data Collector v3.7.2.0data status	okinstallation	princeton_trtdifferential loss correction	single-endedforward channel	channel 1reverse channel	N/Adate	2019/09/15time	09:54:35forward acquisition time	60.00reverse acquisition time	0.00gamma	496.2192k internal	0.2309k external	0.2309temperature offset calibration	0.9987default loss term (dB/km)	0.3790temperature slope calibration	1.0000multiplexer offset coefficient	1.0000multiplexer slope coefficient	1.0000fibre end	0.00T internal ref (°C)	34.06T ext. ref 1 (°C)	4.99T ext. ref 2 (°C)	29.85length (m)	temperature (°C)	Stokes	anti-Stokes-747.200	800.000	0.064	0.195
-746.185	-200.000	-0.017	0.338
-745.171	446.212	-0.090	-0.202
-744.156	-200.000	-0.278	0.001
-743.142	220.907	-0.120	-0.196
-742.127	-127.344	-0.120	-0.018
-741.112	-39.704	-0.275	-0.146
-740.098	-89.003	-0.422	0.127
-739.083	-141.452	-0.206	0.021
-738.069	-75.299	0.106	0.039
-737.054	15.316	0.488	0.389
-736.039	800.000	0.049	-0.185
-735.025	800.000	0.089	0.251
-734.010	14.980	0.031	0.025
-732.996	1.889	0.108	0.079
-731.981	800.000	-0.061	0.232
-730.966	0.280	0.173	0.125
-729.952	-9.956	-0.237	0.160
-728.937	-200.000	0.000	-0.018
-727.923	-159.378	0.025	0.001
-726.908	139.589	-0.106	-0.142
-725.894	83.951	-0.176	-0.195
-724.879	218.604	-0.066	-0.107
-723.864	-131.680	0.215	-0.029
-722.850	-132.267	0.141	0.019
-721.835	-200.000	-0.001	0.003
-720.821	-127.128	-0.337	-0.050
-719.806	-126.969	-0.214	-0.032
-718.791	211.876	0.055	-0.087
-717.777	-111.462	0.143	-0.030
-716.762	278.959	0.110	0.200
-715.748	167.655	-0.184	0.265
-714.733	252.570	-0.153	-0.264
-713.718	800.000	-0.080	-0.317
-712.704	63.848	-0.246	-0.251
-711.689	316.703	-0.045	0.086
-710.675	-100.994	-0.144	0.036
-709.660	285.627	-0.089	0.164
-708.645	30.945	-0.154	0.134
-707.631	800.000	-0.055	-0.174
-706.616	-121.085	0.017	-0.003
-705.602	800.000	0.094	-0.301
-704.587	-83.157	-0.048	0.016
-703.572	-5.676	-0.281	0.195
-702.558	800.000	-0.038	-0.118
-701.543	800.000	0.049	-0.161
-700.529	65.784	-0.071	0.073
-699.514	-160.874	0.121	-0.006
-698.499	800.000	0.075	0.262
-697.485	-84.872	0.246	-0.078
-696.470	-112.110	0.142	0.029
-695.456	-200.000	-0.012	-0.061
-694.441	263.840	0.111	-0.196
-693.426	-50.076	-0.196	-0.094
-692.412	800.000	-0.062	0.224
-691.397	21.313	0.098	-0.081
-690.383	-200.000	-0.039	-0.351
-689.368	-130.969	0.355	0.048
-688.354	-156.541	0.202	0.013
-687.339	-20.410	-0.311	0.194
-686.324	43.300	-0.249	-0.230
-685.310	-109.894	0.308	-0.065
-684.295	-200.000	-0.090	-0.407
-683.281	-43.167	-0.312	-0.160
-682.266	800.000	0.030	0.103
-681.251	78.562	-0.137	-0.148
-680.237	216.122	-0.018	0.030
-679.222	-193.500	-0.298	0.003
-678.208	-196.101	-0.171	-0.001
-677.193	615.919	0.065	-0.165
-676.178	-115.941	0.186	-0.035
-675.164	47.267	-0.135	-0.127
-674.149	-200.000	0.014	0.214
-673.135	82.387	0.148	-0.163
-672.120	-200.000	-0.016	-0.246
-671.105	-1.348	-0.032	-0.023
-670.091	800.000	0.087	0.264
-669.076	-22.577	-0.074	0.045
-668.062	-38.631	-0.213	0.114
-667.047	210.156	-0.147	0.234
-666.032	95.464	0.070	0.081
-665.018	-200.000	-0.011	-0.176
-664.003	120.098	0.040	-0.051
-662.989	20.179	-0.138	-0.113
-661.974	171.751	-0.081	0.118
-660.959	-80.078	0.232	-0.079
-659.945	-200.000	0.004	0.242
-658.930	-173.483	0.148	-0.005
-657.916	505.195	-0.063	-0.148
-656.901	49.502	0.066	-0.063
-655.886	800.000	-0.118	-0.415
-654.872	800.000	0.075	-0.245
-653.857	599.153	0.154	-0.387
-652.843	-102.851	-0.426	0.103
-651.828	-200.000	0.002	0.087
-650.814	-152.780	-0.142	0.010
-649.799	-200.000	-0.023	0.450
-648.784	800.000	0.108	0.384
-647.770	9.745	-0.295	0.226
-646.755	424.330	-0.090	-0.195
-645.741	-30.152	-0.097	0.056
-644.726	41.213	0.115	-0.105
-643.711	-138.667	0.148	-0.016
-642.697	236.977	-0.134	0.224
-641.682	70.754	-0.120	0.126
-640.668	-60.443	0.139	0.060
-639.653	-117.484	-0.438	-0.080
-638.638	-165.547	-0.052	-0.002
-637.624	226.231	-0.112	-0.185
-636.609	-12.781	0.192	-0.126
-635.595	-145.968	-0.456	0.041
-634.580	-111.799	0.058	-0.012
-633.565	-5.155	-0.094	0.066
-632.551	410.741	-0.037	0.079
-631.536	-94.933	-0.356	-0.098
-630.522	135.036	-0.135	0.177
-629.507	88.710	-0.059	-0.067
-628.492	-101.336	-0.417	0.103
-627.478	-86.544	0.289	-0.090
-626.463	800.000	0.155	0.479
-625.449	56.520	-0.249	0.245
-624.434	734.034	-0.079	0.214
-623.419	494.348	0.053	-0.123
-622.405	800.000	0.065	0.220
-621.390	-89.385	0.133	-0.040
-620.376	-110.936	-0.190	-0.039
-619.361	318.792	0.065	-0.124
-618.346	-200.000	-0.006	-0.134
-617.332	-200.000	0.040	0.306
-616.317	-200.000	0.016	-0.171
-615.303	800.000	-0.090	-0.283
-614.288	-200.000	0.002	-0.256
-613.273	-100.278	-0.148	0.037
-612.259	-5.307	0.006	0.004
-611.244	800.000	-0.034	-0.127
-610.230	-200.000	0.000	0.004
-609.215	-200.000	-0.011	-0.079
-608.201	-26.714	-0.104	-0.062
-607.186	266.191	0.229	-0.404
-606.171	-200.000	0.018	0.106
-605.157	181.000	0.081	0.121
-604.142	-4.140	0.012	0.009
-603.128	-200.000	-0.033	-0.170
-602.113	133.569	-0.044	-0.058
-601.098	197.812	-0.318	-0.490
-600.084	800.000	0.049	0.169
-599.069	-200.000	-0.024	0.202
-598.055	485.077	-0.030	-0.069
-597.040	-4.585	-0.318	0.222
-596.025	37.400	0.338	0.302
-595.011	-61.763	0.585	-0.247
-593.996	167.668	0.269	-0.386
-592.982	6.540	-0.060	0.045
-591.967	172.512	0.093	0.135
-590.952	800.000	0.014	0.049
-589.938	166.800	0.129	-0.185
-588.923	-46.278	-0.361	0.179
-587.909	-60.663	-0.462	-0.198
-586.894	86.356	0.119	0.132
-585.879	93.250	0.161	0.184
-584.865	-22.976	-0.319	0.194
-583.850	800.000	0.057	0.247
-582.836	-41.656	-0.071	-0.037
-581.821	189.647	0.249	0.376
-580.806	-134.568	-0.037	0.005
-579.792	23.231	0.234	-0.194
-578.777	-8.461	-0.170	-0.115
-577.763	46.513	0.254	-0.238
-576.748	-200.000	0.042	-0.222
-575.733	800.000	0.008	-0.024
-574.719	-200.000	0.006	-0.041
-573.704	-131.389	-0.153	-0.020
-572.690	120.399	0.295	0.370
-571.675	120.402	-0.220	0.276
-570.661	-26.071	0.202	-0.120
-569.646	-24.441	-0.119	-0.071
-568.631	800.000	-0.101	-0.397
-567.617	216.083	-0.110	-0.176
-566.602	-108.804	0.377	0.081
-565.588	-76.061	-0.072	-0.026
-564.573	-87.020	0.242	-0.074
-563.558	294.548	0.056	0.104
-562.544	75.819	0.211	0.225
-561.529	-112.044	-0.367	-0.075
-560.515	-54.993	0.365	0.166
-559.500	111.771	-0.105	0.128
-558.485	24.808	-0.182	0.152
-557.471	3.257	0.101	-0.074
-556.456	800.000	0.077	-0.282
-555.442	19.551	-0.181	-0.147
-554.427	-163.476	0.338	-0.016
-553.412	-200.000	-0.010	0.096
-552.398	678.336	-0.065	-0.170
-551.383	-200.000	-0.010	-0.246
-550.369	461.970	0.068	0.154
-549.354	227.335	-0.135	0.221
-548.339	149.243	-0.067	-0.092
-547.325	239.456	-0.104	-0.175
-546.310	5.026	0.327	0.243
-545.296	800.000	0.104	0.307
-544.281	-141.055	-0.394	-0.041
-543.266	-200.000	0.045	-0.212
-542.252	-200.000	-0.017	0.389
-541.237	-200.000	-0.032	0.189
-540.223	-200.000	-0.009	0.087
-539.208	800.000	-0.015	0.046
-538.193	399.787	0.046	-0.098
-537.179	208.412	-0.232	-0.366
-536.164	-133.232	-0.176	-0.022
-535.150	-70.134	0.181	-0.069
-534.135	178.988	0.171	-0.251
-533.121	76.266	0.222	-0.237
-532.106	354.656	-0.010	-0.019
-531.091	-106.491	0.387	0.087
-530.077	713.999	-0.052	0.138
-529.062	-75.240	0.226	0.081
-528.048	-1.939	0.176	-0.125
-527.033	150.050	-0.085	0.116
-526.018	37.247	0.148	0.132
-525.004	287.138	0.161	-0.293
-523.989	-45.370	0.249	-0.125
-522.975	-52.160	-0.172	-0.080
-521.960	79.582	0.100	-0.108
-520.945	-148.859	0.063	0.005
-519.931	-98.657	0.109	-0.028
-518.916	102.084	-0.152	-0.178
-517.902	-196.180	0.130	-0.001
-516.887	165.092	-0.141	0.201
-515.872	-71.455	-0.166	0.063
-514.858	-200.000	-0.005	0.375
-513.843	61.933	-0.061	0.062
-512.829	-200.000	-0.002	0.071
-511.814	-64.798	0.201	0.082
-510.799	185.466	-0.062	0.093
-509.785	233.211	-0.150	0.248
-508.770	-200.000	0.026	0.300
-507.756	49.687	-0.124	-0.118
-506.741	800.000	-0.142	-0.451
-505.726	-88.142	-0.647	-0.195
-504.712	252.985	0.182	-0.313
-503.697	800.000	0.058	-0.169
-502.683	-161.938	0.182	-0.009
-501.668	690.035	-0.191	-0.503
-500.653	-89.699	0.110	-0.033
-499.639	-200.000	0.003	-0.019
-498.624	381.498	-0.096	-0.199
-497.610	174.256	0.037	0.054
-496.595	-134.540	-0.233	0.029
-495.581	-139.238	0.313	0.034
-494.566	-91.443	-0.184	0.053
-493.551	-173.354	0.370	-0.011
-492.537	-200.000	0.007	-0.392
-491.522	-200.000	0.003	-0.399
-490.508	-200.000	-0.009	-0.341
-489.493	800.000	0.088	-0.280
-488.478	800.000	-0.032	-0.102
-487.464	-87.672	0.416	-0.126
-486.449	-101.883	0.078	-0.019
-485.435	57.700	-0.030	-0.029
-484.420	800.000	0.089	-0.342
-483.405	95.631	-0.175	-0.201
-482.391	210.017	0.090	-0.142
-481.376	67.111	0.147	-0.150
-480.362	222.761	0.065	-0.106
-479.347	-70.192	-0.069	0.026
-478.332	439.256	0.126	-0.277
-477.318	375.435	0.059	0.121
-476.303	24.356	-0.172	0.143
-475.289	-51.534	-0.498	0.234
-474.274	56.983	0.064	-0.063
-473.259	-14.243	0.228	0.148
-472.245	-200.000	-0.006	0.323
-471.230	101.951	-0.049	0.058
-470.216	272.619	-0.091	-0.162
-469.201	119.632	0.112	0.140
-468.186	-84.292	0.291	-0.093
-467.172	-109.749	-0.426	-0.090
-466.157	-82.448	-0.138	-0.045
-465.143	-200.000	-0.016	0.200
-464.128	-14.510	-0.218	-0.141
-463.113	-200.000	-0.009	0.359
-462.099	-79.958	-0.356	-0.120
-461.084	338.374	-0.127	0.249
-460.070	493.607	0.080	-0.184
-459.055	-70.324	0.292	0.111
-458.040	30.878	0.164	-0.141
-457.026	91.486	-0.348	-0.393
-456.011	-86.394	-0.333	0.103
-454.997	800.000	-0.049	-0.153
-453.982	458.855	0.145	0.324
-452.968	-200.000	-0.007	0.033
-451.953	83.530	0.212	-0.232
-450.938	-189.901	-0.155	0.002
-449.924	-85.405	0.092	0.029
-448.909	22.371	-0.114	-0.093
-447.895	-200.000	-0.046	-0.260
-446.880	-123.464	-0.188	-0.030
-445.865	800.000	-0.092	-0.259
-444.851	-171.752	-0.076	0.003
-443.836	33.542	-0.050	0.044
-442.822	-152.827	-0.315	-0.022
-441.807	-200.000	-0.012	0.201
-440.792	-200.000	-0.007	0.307
-439.778	800.000	-0.139	0.430
-438.763	-96.938	0.213	0.056
-437.749	-30.665	0.079	-0.045
-436.734	-74.612	0.207	0.075
-435.719	-52.378	-0.218	-0.101
-434.705	2.660	-0.152	0.111
-433.690	142.452	-0.157	0.210
-432.676	243.400	0.166	-0.279
-431.661	800.000	0.011	0.033
-430.646	102.944	-0.064	-0.075
-429.632	-148.171	-0.363	0.030
-428.617	-200.000	0.037	-0.279
-427.603	370.918	-0.085	0.174
-426.588	435.382	0.041	0.090
-425.573	-82.050	0.213	0.070
-424.559	-15.829	0.206	0.131
-423.544	269.473	0.062	-0.109
-422.530	147.945	0.110	-0.148
-421.515	13.655	0.161	0.126
-420.500	48.377	0.260	0.245
-419.486	238.481	0.252	0.420
-418.471	7.334	0.257	0.193
-417.457	800.000	0.059	0.184
-416.442	-200.000	0.037	0.291
-415.428	-200.000	0.026	0.117
-414.413	-116.140	-0.147	-0.027
-413.398	-71.701	-0.370	0.139
-412.384	82.738	0.147	-0.160
-411.369	-69.725	0.076	-0.029
-410.355	520.967	-0.019	-0.044
-409.340	13.412	0.173	-0.135
-408.325	-200.000	-0.070	0.487
-407.311	-5.181	-0.062	-0.043
-406.296	484.896	-0.064	-0.145
-405.282	-200.000	0.052	0.320
-404.267	-79.325	-0.057	0.019
-403.252	800.000	0.028	0.113
-402.238	-9.722	0.200	-0.134
-401.223	-200.000	-0.007	0.077
-400.209	367.017	0.052	-0.105
-399.194	94.363	0.292	0.333
-398.179	800.000	-0.069	-0.293
-397.165	365.455	0.148	-0.299
-396.150	-103.285	-0.328	0.078
-395.136	800.000	-0.065	-0.191
-394.121	-200.000	0.106	0.000
-393.106	-85.647	-0.192	-0.060
-392.092	85.950	-0.142	0.157
-391.077	-129.419	-0.342	-0.048
-390.063	-166.658	-0.143	-0.006
-389.048	-34.266	0.325	0.179
-388.033	51.167	0.077	0.073
-387.019	800.000	0.011	0.033
-386.004	-22.494	-0.166	0.100
-384.990	294.783	-0.074	-0.136
-383.975	-200.000	-0.003	0.095
-382.960	-80.699	0.182	-0.061
-381.946	-71.023	0.336	0.126
-380.931	-59.709	0.118	-0.051
-379.917	-181.153	-0.178	0.004
-378.902	-103.890	0.125	0.029
-377.888	733.864	-0.051	-0.136
-376.873	800.000	0.076	0.274
-375.858	-65.736	-0.366	0.147
-374.844	-200.000	-0.004	-0.040
-373.829	-200.000	0.012	-0.154
-372.815	236.543	0.166	-0.276
-371.800	-200.000	-0.010	-0.139
-370.785	-200.000	0.008	0.213
-369.771	-48.307	-0.130	-0.063
-368.756	-191.417	-0.155	0.002
-367.742	-41.230	-0.298	0.154
-366.727	-162.865	-0.148	-0.007
-365.712	-153.423	0.297	0.021
-364.698	-52.792	-0.063	-0.029
-363.683	-200.000	-0.002	0.442
-362.669	-151.961	0.158	0.012
-361.654	-80.113	-0.144	0.048
-360.639	3.468	0.081	-0.059
-359.625	143.033	0.178	-0.237
-358.610	-40.551	-0.020	0.011
-357.596	-200.000	0.005	-0.163
-356.581	226.688	-0.024	-0.039
-355.566	8.212	-0.167	0.126
-354.552	-106.879	0.333	0.074
-353.537	-119.350	0.152	-0.026
-352.523	-98.678	0.190	0.048
-351.508	-163.110	-0.210	-0.010
-350.493	-92.140	0.154	-0.044
-349.479	-54.060	-0.336	0.153
-348.464	-68.339	-0.218	-0.085
-347.450	179.737	-0.094	-0.138
-346.435	393.238	-0.080	0.167
-345.420	800.000	0.039	0.128
-344.406	800.000	-0.057	-0.216
-343.391	536.276	0.141	0.334
-342.377	-200.000	-0.066	0.413
-341.362	161.040	0.106	0.148
-340.348	-141.523	0.267	-0.027
-339.333	-90.910	0.162	-0.047
-338.318	385.829	-0.143	0.295
-337.304	-200.000	-0.056	0.320
-336.289	109.058	-0.132	0.158
-335.275	-89.599	0.292	0.086
-334.260	216.026	0.104	0.164
-333.245	-105.868	0.100	-0.023
-332.231	-113.949	0.171	0.033
-331.216	800.000	-0.082	-0.343
-330.202	30.784	0.121	-0.104
-329.187	-200.000	0.012	-0.067
-328.172	-87.537	-0.309	0.093
-327.158	-103.553	-0.230	-0.054
-326.143	-200.000	0.017	-0.225
-325.129	-200.000	0.028	0.223
-324.114	-47.319	-0.312	0.152
-323.099	-104.523	0.291	-0.067
-322.085	171.409	-0.064	-0.091
-321.070	339.880	-0.156	-0.304
-320.056	61.696	0.247	-0.245
-319.041	-200.000	0.012	0.088
-318.026	39.249	-0.202	0.181
-317.012	173.963	-0.077	-0.111
-315.997	-200.000	-0.004	0.059
-314.983	-84.369	0.368	-0.116
-313.968	-130.270	-0.027	0.004
-312.953	155.698	-0.098	-0.135
-311.939	94.633	0.200	0.227
-310.924	-25.231	0.277	0.164
-309.910	31.484	0.408	0.350
-308.895	-120.263	-0.233	-0.040
-307.880	-67.514	0.242	0.095
-306.866	800.000	0.031	-0.109
-305.851	557.929	-0.101	-0.244
-304.837	-66.751	-0.124	0.049
-303.822	216.826	0.149	0.237
-302.807	-200.000	-0.006	-0.205
-301.793	-200.000	0.016	0.135
-300.778	-200.000	-0.002	0.022
-299.764	800.000	0.028	-0.084
-298.749	-70.806	-0.031	-0.012
-297.735	-200.000	-0.060	0.277
-296.720	99.913	0.128	0.148
-295.705	211.751	-0.165	0.259
-294.691	-9.630	-0.129	0.086
-293.676	-151.504	0.181	-0.013
-292.662	214.799	-0.217	-0.343
-291.647	-200.000	0.005	-0.125
-290.632	125.658	0.127	0.161
-289.618	-200.000	-0.028	0.294
-288.603	-63.814	-0.153	0.063
-287.589	56.820	-0.118	0.114
-286.574	66.776	0.221	0.225
-285.559	247.616	-0.127	0.214
-284.545	-103.724	0.390	-0.091
-283.530	182.435	0.254	-0.373
-282.516	162.870	0.035	-0.050
-281.501	28.696	-0.325	-0.275
-280.486	-44.125	-0.117	0.059
-279.472	-32.937	-0.122	0.067
-278.457	-200.000	0.024	-0.372
-277.443	348.915	0.033	0.064
-276.428	-166.278	-0.243	0.010
-275.413	26.019	-0.167	-0.139
-274.399	319.952	0.033	-0.063
-273.384	-32.102	0.184	0.102
-272.370	800.000	-0.064	-0.188
-271.355	-192.782	0.368	0.003
-270.340	472.269	-0.110	0.247
-269.326	5.160	0.208	-0.153
-268.311	-103.938	0.209	0.049
-267.297	91.212	0.005	0.006
-266.282	-22.075	0.152	0.092
-265.267	415.080	-0.053	0.112
-264.253	-108.327	0.143	-0.031
-263.238	-200.000	0.046	0.210
-262.224	-39.314	0.172	-0.090
-261.209	-200.000	0.026	-0.158
-260.195	800.000	0.031	-0.104
-259.180	-51.921	0.149	0.069
-258.165	-36.300	-0.053	-0.029
-257.151	36.952	-0.304	-0.268
-256.136	-35.756	0.143	0.077
-255.122	292.925	-0.140	0.254
-254.107	284.224	0.066	-0.118
-253.092	151.206	0.088	-0.119
-252.078	129.612	0.072	-0.092
-251.063	252.247	-0.088	-0.149
-250.049	6.746	0.097	0.072
-249.034	4.237	0.203	0.148
-248.019	17.042	0.076	-0.060
-247.005	-39.693	-0.156	0.081
-245.990	420.843	0.069	0.147
-244.976	42.721	-0.113	-0.102
-243.961	169.115	0.054	-0.077
-242.946	-95.320	-0.072	-0.019
-241.932	36.803	-0.132	0.117
-240.917	-139.517	0.083	0.009
-239.903	652.348	-0.116	-0.295
-238.888	60.917	0.121	0.120
-237.873	-132.433	0.020	-0.003
-236.859	-58.485	-0.079	0.034
-235.844	-200.000	0.001	0.082
-234.830	248.250	-0.027	0.045
-233.815	4.646	0.069	-0.051
-232.800	-200.000	0.095	-0.536
-231.786	81.147	-0.120	-0.129
-230.771	-113.182	-0.089	-0.017
-229.757	-200.000	-0.001	0.034
-228.742	-68.890	-0.228	-0.088
-227.727	48.636	-0.266	-0.248
-226.713	229.505	-0.023	-0.038
-225.698	328.946	0.106	0.204
-224.684	800.000	0.123	-0.445
-223.669	-62.318	0.303	-0.126
-222.655	174.356	0.161	0.232
-221.640	64.641	0.024	-0.024
-220.625	-67.364	-0.067	0.026
-219.611	800.000	-0.081	-0.238
-218.596	-59.629	-0.154	0.066
-217.582	-109.546	0.122	-0.026
-216.567	-19.132	-0.116	0.072
-215.552	-0.098	0.214	0.152
-214.538	268.171	-0.087	-0.152
-213.523	-58.386	-0.051	-0.022
-212.509	-183.990	-0.254	0.004
-211.494	-42.997	0.268	0.135
-210.479	-14.095	-0.279	0.179
-209.465	-200.000	0.043	0.287
-208.450	-54.424	-0.142	0.064
-207.436	-66.152	-0.349	0.138
-206.421	89.572	0.088	-0.098
-205.406	23.875	0.150	-0.123
-204.392	319.871	0.119	-0.225
-203.377	-200.000	0.066	-0.423
-202.363	42.806	-0.157	-0.142
-201.348	-14.689	0.056	-0.036
-200.333	-61.180	-0.128	0.054
-199.319	-160.878	-0.263	0.014
-198.304	79.867	-0.132	0.141
-197.290	-108.732	0.168	0.036
-196.275	800.000	-0.052	0.185
-195.260	9.136	-0.126	0.095
-194.246	-38.482	0.324	-0.171
-193.231	-39.854	-0.357	-0.186
-192.217	-140.349	0.252	0.026
-191.202	-200.000	0.015	0.072
-190.187	-48.980	-0.037	-0.018
-189.173	217.061	-0.125	-0.198
-188.158	-44.682	-0.119	-0.059
-187.144	527.272	-0.077	0.180
-186.129	140.899	-0.103	0.135
-185.114	-65.047	0.053	0.021
-184.100	800.000	-0.037	-0.154
-183.085	57.099	-0.080	0.078
-182.071	-134.621	-0.060	0.007
-181.056	-94.737	0.028	0.008
-180.042	693.656	0.075	0.197
-179.027	-200.000	0.004	0.286
-178.012	-68.129	0.122	-0.047
-176.998	21.940	-0.080	0.065
-175.983	211.073	-0.097	-0.152
-174.969	-41.914	0.139	0.071
-173.954	313.502	-0.053	-0.099
-172.939	800.000	0.045	-0.153
-171.925	18.206	-0.126	-0.100
-170.910	59.523	0.106	0.103
-169.896	-78.379	-0.058	-0.020
-168.881	800.000	0.037	0.108
-167.866	-150.383	0.096	0.007
-166.852	-54.179	-0.203	0.091
-165.837	-200.000	-0.004	-0.045
-164.823	634.350	-0.027	-0.069
-163.808	116.843	0.142	0.173
-162.793	168.195	0.119	0.169
-161.779	76.764	0.202	-0.213
-160.764	-200.000	0.039	-0.242
-159.750	800.000	0.077	-0.255
-158.735	-200.000	-0.081	0.548
-157.720	194.252	-0.043	0.065
-156.706	-179.302	0.222	0.005
-155.691	13.232	-0.178	-0.137
-154.677	800.000	-0.047	-0.168
-153.662	147.400	-0.092	-0.124
-152.647	-97.186	0.156	-0.041
-151.633	756.589	0.102	-0.275
-150.618	800.000	-0.127	0.378
-149.604	537.957	0.019	0.046
-148.589	800.000	-0.103	-0.333
-147.574	-200.000	-0.030	0.271
-146.560	345.270	-0.128	-0.250
-145.545	-83.613	-0.172	0.055
-144.531	800.000	0.029	-0.093
-143.516	-21.122	0.068	0.041
-142.502	-180.215	0.084	0.002
-141.487	800.000	-0.053	-0.161
-140.472	-27.345	0.052	-0.030
-139.458	-91.671	0.089	-0.025
-138.443	750.256	-0.032	-0.085
-137.429	-15.558	0.219	-0.139
-136.414	0.944	-0.102	0.073
-135.399	-50.120	0.059	0.028
-134.385	-64.839	0.243	-0.098
-133.370	-43.568	-0.183	0.092
-132.356	-90.963	-0.364	-0.104
-131.341	-200.000	-0.024	-0.279
-130.326	-200.000	-0.001	-0.108
-129.312	290.153	-0.063	0.113
-128.297	-47.259	-0.119	-0.058
-127.283	-84.362	-0.250	0.078
-126.268	-200.000	0.016	0.115
-125.253	278.036	0.082	0.146
-124.239	-65.939	-0.340	-0.135
-123.224	63.138	-0.299	-0.297
-122.210	-200.000	0.035	-0.216
-121.195	-200.000	0.003	-0.114
-120.180	-35.752	-0.369	-0.198
-119.166	-200.000	-0.000	0.366
-118.151	245.218	0.179	-0.298
-117.137	-200.000	0.021	-0.150
-116.122	91.155	-0.236	0.262
-115.107	394.395	0.066	-0.136
-114.093	-24.974	0.309	0.182
-113.078	114.937	-0.096	-0.116
-112.064	37.856	-0.084	-0.074
-111.049	28.870	-0.127	0.107
-110.034	-75.144	0.265	0.094
-109.020	-62.120	-0.155	-0.064
-108.005	800.000	-0.089	-0.255
-106.991	-45.525	0.276	0.135
-105.976	-113.473	-0.016	0.003
-104.962	-21.347	-0.029	-0.018
-103.947	157.725	-0.050	-0.069
-102.932	576.426	-0.047	0.113
-101.918	241.187	0.143	0.237
-100.903	-38.592	0.171	0.090
-99.889	34.604	-0.416	0.360
-98.874	233.922	-0.096	-0.156
-97.859	-61.431	-0.414	0.172
-96.845	-200.000	-0.008	0.037
-95.830	800.000	0.118	0.375
-94.816	143.153	0.083	0.109
-93.801	51.177	0.226	0.212
-92.786	-87.529	0.099	-0.030
-91.772	800.000	-0.112	-0.362
-90.757	260.469	0.157	0.269
-89.743	25.330	-0.020	-0.017
-88.728	-200.000	-0.040	0.247
-87.713	121.639	0.026	-0.033
-86.699	-46.303	-0.133	0.065
-85.684	-188.161	0.401	-0.005
-84.670	-200.000	0.030	0.183
-83.655	800.000	-0.111	0.390
-82.640	82.592	-0.146	0.157
-81.626	25.368	0.138	0.114
-80.611	112.298	0.062	-0.074
-79.597	67.861	0.065	0.066
-78.582	275.152	-0.172	0.302
-77.567	-52.594	-0.032	-0.014
-76.553	-1.711	0.418	-0.291
-75.538	-200.000	-0.008	0.149
-74.524	442.823	-0.079	0.170
-73.509	673.489	0.126	-0.323
-72.494	-3.259	0.311	0.215
-71.480	78.400	-0.121	0.128
-70.465	-123.852	-0.190	0.030
-69.451	410.934	-0.136	0.286
-68.436	-149.076	-0.416	-0.033
-67.422	800.000	0.079	-0.282
-66.407	-61.007	0.137	-0.057
-65.392	-200.000	0.014	-0.251
-64.378	44.152	0.286	-0.260
-63.363	-200.000	-0.047	0.348
-62.349	-4.738	0.202	0.138
-61.334	15.828	-1.136	-0.884
-60.319	3.481	0.516	0.372
-59.305	800.000	-0.195	-0.744
-58.290	138.962	0.782	1.017
-57.276	578.395	0.541	1.310
-56.261	-200.000	97.906	573.995
-55.246	618.475	1407.826	3496.567
-54.232	185.025	2616.025	3837.615
-53.217	119.993	2187.113	2682.061
-52.203	45.847	1634.686	1494.873
-51.188	37.562	1368.519	1200.576
-50.173	34.277	1325.718	1143.302
-49.159	56.250	1374.446	1320.018
-48.144	59.922	1392.483	1359.686
-47.130	37.757	1347.750	1183.350
-46.115	34.176	1329.486	1145.760
-45.100	34.063	1324.262	1140.534
-44.086	33.863	1322.684	1137.934
-43.071	33.889	1319.865	1135.621
-42.057	33.755	1318.233	1133.367
-41.042	33.887	1316.596	1132.706
-40.027	33.944	1314.922	1131.557
-39.013	33.913	1312.810	1129.510
-37.998	34.061	1310.754	1128.576
-36.984	34.064	1309.106	1127.130
-35.969	34.044	1307.327	1125.439
-34.954	34.067	1305.924	1124.321
-33.940	34.143	1304.641	1123.621
-32.925	34.101	1303.278	1122.151
-31.911	34.160	1301.596	1121.009
-30.896	34.176	1300.634	1120.227
-29.881	34.094	1299.110	1118.388
-28.867	34.284	1297.317	1117.916
-27.852	34.213	1295.864	1116.206
-26.838	34.108	1294.721	1114.559
-25.823	34.095	1293.540	1113.425
-24.809	34.090	1291.620	1111.697
-23.794	34.106	1290.222	1110.544
-22.779	34.207	1288.960	1110.004
-21.765	34.240	1287.383	1108.795
-20.750	34.230	1286.252	1107.716
-19.736	33.993	1285.344	1105.513
-18.721	34.027	1284.326	1104.790
-17.706	34.096	1282.800	1103.836
-16.692	34.115	1281.051	1102.397
-15.677	34.028	1280.419	1101.304
-14.663	34.080	1279.305	1100.600
-13.648	33.985	1278.801	1099.578
-12.633	33.968	1277.842	1098.611
-11.619	33.968	1277.100	1097.927
-10.604	33.965	1276.049	1096.963
-9.590	34.021	1274.582	1095.982
-8.575	33.946	1273.892	1094.912
-7.560	33.929	1273.247	1094.215
-6.546	33.943	1271.990	1093.175
-5.531	33.888	1271.058	1092.015
-4.517	33.925	1270.714	1091.886
-3.502	34.122	1268.910	1091.426
-2.487	33.969	1268.463	1090.119
-1.473	33.970	1264.798	1086.930
-0.458	32.818	1249.435	1067.176
0.556	27.911	1231.378	1027.170
1.571	23.996	1236.308	1009.040
2.586	22.942	1251.363	1015.182
3.600	22.224	1241.412	1002.931
4.615	17.384	1168.720	918.062
5.629	9.136	1092.458	816.307
6.644	5.244	1071.737	781.314
7.659	4.986	1069.108	778.041
8.673	4.906	1067.659	776.522
9.688	4.815	1066.593	775.225
10.702	5.215	1064.671	775.744
11.717	10.276	1072.123	806.368
12.731	17.578	1082.630	850.803
13.746	19.435	1083.652	860.804
14.761	18.036	1081.551	852.087
15.775	16.986	1079.601	845.249
16.790	15.951	1077.127	838.090
17.804	15.306	1075.184	833.299
18.819	14.790	1074.587	830.199
19.834	14.512	1073.918	828.227
20.848	14.305	1072.623	826.130
21.863	14.156	1071.886	824.749
22.877	14.061	1070.565	823.188
23.892	13.897	1070.022	821.890
24.907	13.983	1069.412	821.770
25.921	13.946	1068.547	820.853
26.936	14.126	1067.259	820.677
27.950	14.142	1065.606	819.415
28.965	14.140	1064.383	818.391
29.980	14.291	1062.278	817.440
30.994	14.202	1061.623	816.427
32.009	14.231	1060.915	815.953
33.023	14.241	1059.327	814.710
34.038	14.038	1058.692	813.157
35.053	14.153	1057.556	812.772
36.067	14.179	1056.435	811.965
37.082	14.174	1055.829	811.405
38.096	14.161	1055.257	810.831
39.111	14.190	1054.649	810.432
40.126	13.999	1053.217	808.329
41.140	14.011	1051.717	807.168
42.155	13.852	1050.945	805.732
43.169	13.906	1049.530	804.834
44.184	13.973	1048.230	804.091
45.199	13.878	1047.903	803.310
46.213	13.911	1046.590	802.395
47.228	14.037	1045.432	802.040
48.242	14.028	1044.710	801.375
49.257	14.130	1043.356	800.757
50.271	14.070	1042.515	799.752
51.286	14.083	1041.929	799.292
52.301	14.145	1040.980	798.792
53.315	14.033	1039.507	797.052
54.330	13.929	1039.008	796.103
55.344	14.076	1038.007	795.969
56.359	13.965	1036.991	794.587
57.374	13.981	1035.993	793.830
58.388	13.828	1035.268	792.475
59.403	13.854	1034.004	791.558
60.417	13.926	1033.542	791.481
61.432	13.895	1032.990	790.837
62.447	13.799	1032.017	789.567
63.461	13.825	1031.059	788.886
64.476	13.729	1030.673	788.067
65.490	13.871	1029.311	787.628
66.505	13.831	1029.067	787.183
67.520	13.896	1028.453	786.950
68.534	13.838	1027.522	785.898
69.549	13.943	1026.575	785.596
70.563	13.753	1025.827	784.057
71.578	13.886	1025.196	784.133
72.593	13.740	1024.271	782.669
73.607	13.683	1023.743	781.929
74.622	13.669	1023.148	781.336
75.636	13.792	1022.205	781.128
76.651	13.698	1021.738	780.257
77.666	13.759	1020.946	779.873
78.680	13.788	1020.264	779.420
79.695	13.767	1019.691	778.815
80.709	13.879	1018.940	778.696
81.724	13.951	1018.494	778.623
82.739	14.033	1017.595	778.252
83.753	14.192	1016.771	778.299
84.768	14.183	1016.005	777.600
85.782	14.314	1014.710	777.150
86.797	14.194	1014.772	776.571
87.812	14.144	1013.488	775.284
88.826	14.169	1012.574	774.633
89.841	14.239	1011.666	774.196
90.855	14.191	1010.802	773.242
91.870	14.175	1010.339	772.745
92.884	14.211	1009.498	772.200
93.899	14.268	1008.431	771.580
94.914	14.276	1007.677	770.974
95.928	14.344	1006.538	770.347
96.943	14.342	1005.816	769.718
97.957	14.231	1005.114	768.599
98.972	14.171	1004.568	767.838
99.987	14.313	1003.407	767.539
101.001	14.197	1002.480	766.225
102.016	14.160	1001.903	765.547
103.030	14.194	1001.234	765.124
104.045	14.176	1000.171	764.162
105.060	14.141	999.178	763.176
106.074	14.015	998.318	761.872
107.089	13.945	997.386	760.772
108.103	13.837	995.901	759.080
109.118	13.898	995.350	758.873
110.133	13.929	994.436	758.250
111.147	13.930	993.751	757.663
112.162	13.960	992.774	756.987
113.176	13.965	992.127	756.452
114.191	14.062	991.221	756.134
115.206	14.090	990.456	755.611
116.220	13.988	989.850	754.619
117.235	14.103	988.647	754.157
118.249	14.062	988.152	753.528
119.264	13.960	987.253	752.311
120.279	14.007	986.658	752.004
121.293	14.135	985.159	751.373
122.308	13.983	984.261	749.937
123.322	13.971	983.844	749.499
124.337	13.938	982.629	748.357
125.352	14.018	981.390	747.711
126.366	13.866	980.946	746.620
127.381	13.956	979.673	745.992
128.395	13.855	979.178	745.095
129.410	13.948	978.271	744.753
130.424	14.159	976.640	744.392
131.439	14.142	976.041	743.795
132.454	14.133	975.541	743.307
133.468	14.202	974.987	743.128
134.483	14.138	973.811	741.878
135.497	14.130	973.064	741.207
136.512	14.033	972.352	740.168
137.527	14.267	971.035	740.140
138.541	14.205	970.446	739.350
139.556	14.077	970.240	738.559
140.570	14.286	969.508	738.866
141.585	14.387	968.239	738.282
142.600	14.308	967.580	737.364
143.614	14.353	966.846	736.935
144.629	14.468	965.945	736.694
145.643	14.417	965.171	735.815
146.658	14.338	964.039	734.534
147.673	14.263	963.097	733.425
148.687	14.113	962.454	732.208
149.702	14.101	961.484	731.352
150.716	14.118	960.477	730.596
151.731	14.187	959.759	730.289
152.746	14.076	959.838	729.799
153.760	14.337	958.750	730.048
154.775	14.380	957.705	729.377
155.789	14.254	957.956	728.953
156.804	14.312	956.597	728.109
157.819	14.367	956.226	728.001
158.833	14.459	955.770	727.989
159.848	14.511	954.633	727.289
160.862	14.490	953.479	726.253
161.877	14.268	952.819	724.721
162.892	14.234	951.776	723.712
163.906	14.287	950.727	723.082
164.921	14.262	949.977	722.340
165.935	14.456	948.909	722.303
166.950	14.331	948.415	721.322
167.964	14.338	947.157	720.331
168.979	14.196	946.516	719.167
169.994	14.466	945.149	719.232
171.008	14.295	945.072	718.369
172.023	14.319	944.291	717.817
173.037	14.454	943.532	717.760
174.052	14.355	943.070	716.917
175.067	14.300	942.584	716.248
176.081	14.360	941.717	715.782
177.096	14.280	941.216	714.996
178.110	14.368	940.415	714.702
179.125	14.368	939.386	713.857
180.140	14.359	939.426	713.785
181.154	14.503	938.549	713.670
182.169	14.492	938.634	713.626
183.183	14.687	937.672	713.663
184.198	14.774	936.568	713.133
185.213	14.679	935.841	712.109
186.227	14.678	935.676	711.918
187.242	14.715	934.986	711.489
188.256	14.794	934.166	711.138
189.271	14.687	933.689	710.257
190.286	14.562	932.506	708.763
191.300	14.345	932.072	707.450
192.315	14.280	931.361	706.569
193.329	14.338	930.820	706.342
194.344	14.526	929.798	706.301
195.359	14.493	929.520	705.887
196.373	14.665	928.811	706.016
197.388	14.746	928.517	706.069
198.402	14.747	928.284	705.834
199.417	14.826	927.561	705.555
200.432	14.959	927.011	705.638
201.446	14.979	926.392	705.186
202.461	14.999	925.983	704.899
203.475	14.987	925.096	704.109
204.490	14.817	924.406	702.806
205.504	14.758	923.597	701.882
206.519	14.892	922.815	701.789
207.534	14.794	921.833	700.568
208.548	14.732	921.348	699.879
209.563	14.982	920.450	700.181
210.577	14.967	919.927	699.657
211.592	15.041	919.231	699.376
212.607	15.052	918.521	698.821
213.621	15.035	917.719	698.079
214.636	15.052	916.714	697.322
215.650	15.031	916.361	696.905
216.665	15.148	915.979	697.038
217.680	15.106	915.392	696.356
218.694	15.248	914.465	696.180
219.709	15.085	914.151	695.200
220.723	15.040	913.567	694.511
221.738	15.109	912.471	693.902
222.753	15.051	912.061	693.287
223.767	15.056	911.588	692.888
224.782	15.194	910.957	692.918
225.796	15.312	910.574	693.054
226.811	15.337	909.353	692.164
227.826	15.280	908.717	691.384
228.840	15.010	908.303	689.897
229.855	15.208	907.002	689.660
230.869	15.127	906.711	689.044
231.884	14.993	906.191	688.037
232.899	15.124	905.274	687.821
233.913	15.059	904.378	686.812
234.928	15.067	903.846	686.378
235.942	15.024	903.598	685.952
236.957	15.075	902.569	685.320
237.972	15.208	902.027	685.394
238.986	15.142	901.473	684.642
240.001	15.170	900.704	684.111
241.015	15.196	900.396	683.921
242.030	15.269	899.417	683.414
243.045	15.239	898.992	682.910
244.059	15.267	898.483	682.578
245.074	15.328	897.778	682.230
246.088	15.304	897.031	681.505
247.103	15.359	896.666	681.390
248.117	15.517	896.003	681.467
249.132	15.480	895.504	680.877
250.147	15.750	894.767	681.348
251.161	15.648	894.192	680.439
252.176	15.766	893.388	680.246
253.190	15.802	892.736	679.834
254.205	15.694	892.135	678.881
255.220	15.881	891.388	679.006
256.234	15.805	891.055	678.384
257.249	15.902	889.793	677.755
258.263	15.833	889.482	677.179
259.278	15.746	888.975	676.386
260.293	15.698	888.808	676.003
261.307	15.949	887.934	676.288
262.322	16.022	887.259	676.006
263.336	15.987	886.500	675.230
264.351	15.980	885.552	674.419
265.366	16.043	884.876	674.095
266.380	16.032	884.592	673.776
267.395	15.948	884.108	673.013
268.409	15.907	883.162	672.070
269.424	15.792	882.133	670.768
270.439	15.931	881.431	670.729
271.453	15.917	880.782	670.120
272.468	15.917	880.536	669.875
273.482	16.011	879.958	669.749
274.497	15.944	878.996	668.691
275.512	15.875	878.689	668.125
276.526	16.023	878.366	668.405
277.541	15.961	877.995	667.817
278.555	15.939	877.557	667.338
279.570	16.261	876.314	667.609
280.585	16.233	875.527	666.839
281.599	16.050	875.069	665.708
282.614	16.068	874.299	665.135
283.628	16.102	873.598	664.677
284.643	16.216	872.864	664.509
285.657	16.025	872.692	663.567
286.672	16.081	871.583	662.885
287.687	16.236	870.983	662.978
288.701	16.183	870.645	662.457
289.716	16.165	870.150	661.948
290.730	16.442	869.320	662.345
291.745	16.188	868.970	661.023
292.760	16.320	868.240	660.928
293.774	16.325	867.938	660.659
294.789	16.313	867.066	659.889
295.803	16.279	866.098	658.962
296.818	16.311	865.413	658.507
297.833	16.199	864.965	657.673
298.847	16.135	864.569	657.063
299.862	16.337	863.777	657.188
300.876	16.297	863.369	656.666
301.891	16.379	862.786	656.483
302.906	16.503	861.797	656.152
303.920	16.586	861.489	656.184
304.935	16.550	861.118	655.704
305.949	16.443	860.626	654.856
306.964	16.476	859.816	654.308
307.979	16.516	859.395	654.085
308.993	16.484	858.889	653.519
310.008	16.656	857.689	653.210
311.022	16.528	857.425	652.458
312.037	16.618	856.765	652.247
313.052	16.381	856.504	651.075
314.066	16.409	855.523	650.379
315.081	16.395	855.211	650.032
316.095	16.630	854.444	650.293
317.110	16.396	854.000	649.001
318.125	16.393	853.791	648.772
319.139	16.499	853.497	648.898
320.154	16.657	852.180	648.444
321.168	16.559	852.094	647.946
322.183	16.717	851.138	647.768
323.197	16.563	851.074	647.072
324.212	16.673	850.446	646.959
325.227	16.413	850.073	645.624
326.241	16.576	849.282	645.588
327.256	16.559	848.736	645.052
328.270	16.636	848.362	645.001
329.285	16.511	847.782	644.026
330.300	16.576	846.821	643.490
331.314	16.520	846.678	643.110
332.329	16.670	846.254	643.301
333.343	16.676	845.342	642.572
334.358	16.857	844.922	642.884
335.373	16.893	844.884	642.936
336.387	16.833	844.295	642.202
337.402	16.686	844.574	641.802
338.416	16.857	844.185	642.095
339.431	17.036	843.392	642.114
340.446	17.071	843.133	641.991
341.460	17.054	842.604	641.468
342.475	17.214	842.280	641.768
343.489	17.065	842.201	641.089
344.504	17.113	841.410	640.611
345.519	17.076	841.291	640.327
346.533	17.153	840.499	639.955
347.548	17.053	839.646	638.873
348.562	16.907	839.465	638.128
349.577	17.000	838.730	637.864
350.592	17.039	838.035	637.425
351.606	16.950	837.539	636.657
352.621	16.957	836.888	636.133
353.635	17.014	836.302	635.843
354.650	17.042	835.853	635.552
355.665	17.069	835.093	635.017
356.679	17.078	834.225	634.336
357.694	17.233	833.495	634.302
358.708	17.105	833.087	633.458
359.723	17.203	832.316	633.183
360.738	17.190	831.633	632.557
361.752	17.157	831.468	632.254
362.767	17.276	830.982	632.271
363.781	17.308	830.682	632.107
364.796	17.393	829.910	631.776
365.810	17.294	829.843	631.304
366.825	17.362	829.124	630.954
367.840	17.456	828.664	630.896
368.854	17.471	828.098	630.464
369.869	17.522	827.367	630.041
370.883	17.493	827.386	629.892
371.898	17.411	827.090	629.309
372.913	17.544	826.683	629.435
373.927	17.593	825.845	628.920
374.942	17.521	825.692	628.482
375.956	17.618	825.498	628.638
376.971	17.624	824.394	627.764
377.986	17.699	824.151	627.798
379.000	17.808	823.742	627.833
380.015	17.769	823.216	627.233
381.029	17.759	822.639	626.703
382.044	17.715	821.836	625.872
383.059	17.772	821.389	625.685
384.073	17.520	821.066	624.462
385.088	17.647	820.354	624.328
386.102	17.604	819.612	623.551
387.117	17.517	819.150	622.828
388.132	17.507	818.829	622.489
389.146	17.752	817.935	622.652
390.161	17.676	817.815	622.228
391.175	17.803	817.232	622.193
392.190	17.820	816.405	621.570
393.205	17.671	815.970	620.641
394.219	17.636	815.987	620.471
395.234	17.552	815.704	619.894
396.248	17.381	815.297	618.908
397.263	17.531	814.454	618.758
398.278	17.590	814.112	618.658
399.292	17.542	813.931	618.292
400.307	17.656	813.133	618.043
401.321	17.677	812.594	617.658
402.336	17.672	811.986	617.122
403.350	17.699	812.000	617.176
404.365	17.750	811.374	616.831
405.380	17.937	810.600	616.861
406.394	17.933	810.279	616.548
407.409	18.061	810.217	616.909
408.423	18.115	809.728	616.679
409.438	18.108	809.518	616.438
410.453	18.040	808.986	615.732
411.467	18.151	808.481	615.693
412.482	18.168	808.030	615.356
413.496	18.312	807.637	615.522
414.511	18.220	807.644	615.140
415.526	18.165	806.779	614.230
416.540	18.131	806.542	613.875
417.555	18.044	806.213	613.255
418.569	18.259	805.510	613.436
419.584	18.200	805.027	612.804
420.599	18.268	804.392	612.512
421.613	153.721	1369.788	1790.265
422.628	133.350	1452.172	1790.378
