DTS Sentinel unit serial number:	SN413079Multiplexer serial number:	ORYXHardware model number:	OX4-SRSoftware version number:	ORYX F/W v4.00 Oryx Data Collector v3.7.2.0data status	okinstallation	princeton_trtdifferential loss correction	single-endedforward channel	channel 1reverse channel	N/Adate	2019/09/17time	18:26:35forward acquisition time	60.00reverse acquisition time	0.00gamma	496.2192k internal	0.2290k external	0.2290temperature offset calibration	0.9956default loss term (dB/km)	0.3790temperature slope calibration	1.0000multiplexer offset coefficient	1.0000multiplexer slope coefficient	1.0000fibre end	0.00T internal ref (°C)	43.12T ext. ref 1 (°C)	0.31T ext. ref 2 (°C)	36.28length (m)	temperature (°C)	Stokes	anti-Stokes-747.200	135.835	-0.154	0.205
-746.185	106.515	0.086	-0.104
-745.171	272.215	0.102	0.183
-744.156	401.748	0.148	0.318
-743.142	-200.000	0.034	0.200
-742.127	317.711	-0.083	0.160
-741.112	-0.278	0.256	0.187
-740.098	244.332	0.186	0.321
-739.083	32.099	-0.206	-0.182
-738.069	86.534	0.164	0.185
-737.054	-127.842	0.119	0.018
-736.039	115.369	-0.298	-0.373
-735.025	-122.507	0.209	0.035
-734.010	800.000	0.031	-0.123
-732.996	-200.000	0.022	0.117
-731.981	-200.000	-0.031	0.218
-730.966	-200.000	0.025	0.274
-729.952	500.983	-0.089	-0.211
-728.937	-76.519	-0.306	0.110
-727.923	-200.000	-0.043	-0.252
-726.908	496.524	0.099	-0.232
-725.894	96.013	-0.195	0.228
-724.879	800.000	-0.086	0.284
-723.864	-200.000	0.021	-0.157
-722.850	-200.000	0.026	-0.215
-721.835	-200.000	-0.003	-0.222
-720.821	-192.219	0.089	0.001
-719.806	111.546	0.152	-0.187
-718.791	32.442	-0.091	0.080
-717.777	-200.000	0.044	-0.232
-716.762	-114.001	0.029	-0.006
-715.748	-200.000	0.018	-0.250
-714.733	-172.056	0.140	-0.005
-713.718	-200.000	0.013	0.211
-712.704	-120.940	0.035	-0.006
-711.689	-178.739	-0.260	-0.006
-710.675	58.020	-0.044	-0.044
-709.660	506.711	0.013	0.030
-708.645	94.775	-0.187	-0.218
-707.631	26.016	-0.182	-0.156
-706.616	278.541	-0.150	-0.274
-705.602	-200.000	0.024	-0.142
-704.587	-85.961	0.073	0.023
-703.572	800.000	-0.073	-0.235
-702.558	-200.000	-0.022	0.109
-701.543	-37.554	0.041	-0.022
-700.529	-5.056	0.160	-0.113
-699.514	-79.415	0.249	0.086
-698.499	-154.994	0.038	-0.003
-697.485	152.770	-0.090	0.126
-696.470	-124.854	0.090	-0.014
-695.456	64.650	-0.155	-0.160
-694.441	800.000	-0.113	0.428
-693.426	-70.037	-0.072	0.028
-692.412	20.516	-0.103	0.085
-691.397	162.777	-0.269	0.386
-690.383	-16.249	0.080	-0.052
-689.368	800.000	-0.058	-0.204
-688.354	2.479	-0.326	0.241
-687.339	318.186	-0.107	-0.206
-686.324	207.966	-0.069	0.110
-685.310	9.654	0.258	-0.200
-684.295	0.488	-0.217	0.158
-683.281	22.593	-0.115	-0.097
-682.266	209.508	0.067	0.108
-681.251	-129.422	-0.135	-0.019
-680.237	-178.518	0.269	0.006
-679.222	535.440	0.178	-0.432
-678.208	-200.000	0.015	0.150
-677.193	-83.174	0.130	0.043
-676.178	74.279	-0.092	0.098
-675.164	800.000	-0.072	0.314
-674.149	-83.679	0.209	0.068
-673.135	-125.202	-0.210	0.033
-672.120	800.000	-0.078	0.244
-671.105	106.389	-0.093	-0.113
-670.091	197.908	-0.061	-0.096
-669.076	-74.544	-0.195	-0.072
-668.062	-31.606	-0.185	0.106
-667.047	-108.121	0.193	0.043
-666.032	-179.216	-0.123	0.003
-665.018	317.177	-0.044	0.085
-664.003	407.657	-0.175	-0.377
-662.989	-21.011	-0.088	-0.055
-661.974	39.245	0.104	0.095
-660.959	-91.596	-0.525	-0.153
-659.945	149.768	-0.106	-0.147
-658.930	-200.000	0.035	-0.234
-657.916	-59.755	-0.120	-0.052
-656.901	-49.484	-0.050	0.024
-655.886	800.000	0.072	-0.268
-654.872	422.440	0.152	0.333
-653.857	10.303	-0.218	0.169
-652.843	182.679	0.082	-0.124
-651.828	438.518	-0.108	-0.241
-650.814	193.127	-0.078	-0.120
-649.799	800.000	-0.128	0.471
-648.784	-55.951	0.052	0.024
-647.770	238.715	-0.192	0.325
-646.755	122.690	-0.114	-0.145
-645.741	39.893	-0.056	-0.051
-644.726	-200.000	0.008	-0.044
-643.711	-33.137	0.280	-0.158
-642.697	490.585	0.088	-0.206
-641.682	-200.000	0.047	0.271
-640.668	24.623	-0.088	0.074
-639.653	9.570	0.209	0.162
-638.638	-63.829	0.348	-0.146
-637.624	2.226	0.127	0.094
-636.609	-167.569	0.215	0.009
-635.595	522.661	-0.105	0.252
-634.580	-58.752	0.122	0.054
-633.565	-150.140	-0.252	-0.020
-632.551	36.214	0.277	-0.249
-631.536	2.904	-0.264	-0.195
-630.522	93.962	0.083	-0.096
-629.507	44.935	0.100	-0.094
-628.492	65.899	0.097	-0.100
-627.478	-39.793	0.064	0.034
-626.463	137.000	-0.226	-0.302
-625.449	697.814	-0.079	-0.212
-624.434	205.489	0.141	-0.224
-623.419	233.141	0.022	-0.037
-622.405	-41.015	0.282	-0.148
-621.390	800.000	0.048	-0.207
-620.376	-112.040	-0.069	-0.014
-619.361	17.938	0.119	-0.097
-618.346	584.625	-0.181	-0.454
-617.332	-149.559	-0.368	0.030
-616.317	-108.711	-0.114	0.025
-615.303	412.710	-0.071	0.154
-614.288	150.502	-0.204	0.282
-613.273	800.000	-0.010	-0.035
-612.259	-92.415	-0.183	-0.052
-611.244	3.239	-0.353	-0.262
-610.230	-107.891	0.327	0.073
-609.215	-200.000	-0.022	0.187
-608.201	99.511	-0.039	-0.047
-607.186	-166.727	-0.145	-0.006
-606.171	8.823	-0.077	-0.059
-605.157	800.000	-0.024	-0.070
-604.142	-200.000	-0.056	0.378
-603.128	104.350	0.123	-0.147
-602.113	-95.309	-0.194	0.053
-601.098	-200.000	0.002	-0.282
-600.084	18.463	-0.119	-0.097
-599.069	72.916	0.193	0.206
-598.055	-126.015	-0.377	0.058
-597.040	104.917	0.092	0.110
-596.025	173.370	-0.295	-0.434
-595.011	52.633	-0.119	0.116
-593.996	-200.000	-0.002	0.265
-592.982	-152.713	-0.361	-0.026
-591.967	-116.587	0.232	0.043
-590.952	-106.170	-0.349	-0.080
-589.938	120.486	0.040	-0.050
-588.923	-45.622	-0.204	-0.103
-587.909	-84.103	0.206	-0.066
-586.894	-170.281	-0.464	-0.017
-585.879	-6.565	-0.204	0.141
-584.865	2.343	-0.155	0.114
-583.850	286.974	-0.126	-0.232
-582.836	800.000	0.154	-0.446
-581.821	-200.000	0.009	0.093
-580.806	-81.342	-0.217	0.073
-579.792	196.971	-0.175	0.272
-578.777	-30.877	0.136	0.078
-577.763	90.099	0.250	-0.284
-576.748	-17.982	0.227	0.145
-575.733	-103.167	-0.449	-0.108
-574.719	-10.328	0.052	-0.035
-573.704	-64.692	0.163	0.067
-572.690	-16.526	0.180	-0.116
-571.675	-124.058	-0.232	0.037
-570.661	-12.372	0.154	-0.103
-569.646	-200.000	-0.048	-0.308
-568.631	-178.563	-0.235	-0.006
-567.617	32.839	0.343	-0.302
-566.602	-96.521	-0.079	0.021
-565.588	-89.560	0.336	-0.100
-564.573	272.398	-0.116	-0.208
-563.558	-29.263	0.274	-0.159
-562.544	751.004	-0.069	0.189
-561.529	434.303	0.021	0.046
-560.515	-147.781	0.108	0.009
-559.500	-88.065	-0.266	0.081
-558.485	-106.598	-0.206	0.047
-557.471	73.145	-0.339	0.361
-556.456	-79.911	0.259	-0.088
-555.442	-87.125	0.289	-0.089
-554.427	-200.000	0.005	0.158
-553.412	-13.652	0.111	-0.073
-552.398	-200.000	-0.005	0.041
-551.383	-41.717	0.125	-0.065
-550.369	-200.000	0.020	0.274
-549.354	126.094	-0.130	0.167
-548.339	558.973	0.079	0.194
-547.325	134.743	0.165	0.218
-546.310	6.944	-0.123	-0.093
-545.296	87.644	-0.102	0.115
-544.281	800.000	-0.087	-0.313
-543.266	-149.679	0.300	0.024
-542.252	-7.695	0.104	0.072
-541.237	97.574	0.071	-0.083
-540.223	800.000	0.097	-0.367
-539.208	20.655	-0.201	-0.165
-538.193	-200.000	0.008	-0.428
-537.179	-72.483	-0.060	0.022
-536.164	-42.081	-0.227	0.118
-535.150	-134.327	-0.349	-0.044
-534.135	-109.786	-0.141	-0.030
-533.121	800.000	-0.080	-0.234
-532.106	-200.000	0.026	-0.280
-531.091	-48.076	-0.075	0.037
-530.077	67.733	0.015	-0.015
-529.062	-118.220	0.329	0.059
-528.048	-179.062	0.188	0.004
-527.033	548.719	-0.039	-0.096
-526.018	98.231	0.169	-0.198
-525.004	-109.449	-0.095	-0.020
-523.989	-200.000	-0.021	0.204
-522.975	212.855	0.090	0.144
-521.960	51.044	-0.187	0.180
-520.945	-28.125	0.094	-0.055
-519.931	-61.175	-0.225	-0.096
-518.916	129.152	0.077	-0.100
-517.902	84.726	0.099	0.110
-516.887	24.270	0.141	0.119
-515.872	164.698	0.034	-0.049
-514.858	-200.000	-0.023	0.248
-513.843	-132.437	0.289	-0.038
-512.829	-152.266	-0.229	0.017
-511.814	36.674	0.328	0.294
-510.799	-126.741	0.329	0.049
-509.785	-77.357	-0.180	-0.064
-508.770	-200.000	0.052	0.330
-507.756	-83.909	-0.295	0.095
-506.741	34.450	-0.357	-0.317
-505.726	39.699	-0.090	-0.082
-504.712	800.000	0.016	0.047
-503.697	452.197	0.208	-0.468
-502.683	419.196	-0.128	0.277
-501.668	60.517	-0.196	-0.197
-500.653	129.798	0.120	-0.155
-499.639	123.826	-0.347	0.442
-498.624	-70.403	0.182	0.070
-497.610	-87.779	0.289	0.088
-496.595	34.067	0.140	-0.124
-495.581	10.811	0.194	0.151
-494.566	398.953	-0.063	0.133
-493.551	-200.000	-0.014	-0.293
-492.537	232.957	0.193	-0.321
-491.522	-200.000	-0.011	-0.067
-490.508	22.627	0.059	0.049
-489.493	-124.640	0.146	0.023
-488.478	-193.108	-0.215	0.002
-487.464	-11.749	-0.214	-0.142
-486.449	-113.090	0.118	0.024
-485.435	87.348	0.126	-0.142
-484.420	-71.343	-0.241	0.092
-483.405	-23.186	-0.090	0.055
-482.391	-200.000	-0.015	0.134
-481.376	-200.000	-0.001	0.025
-480.362	-76.597	0.286	-0.102
-479.347	199.026	-0.104	0.162
-478.332	254.085	-0.199	0.345
-477.318	-80.191	0.187	-0.064
-476.303	-110.640	0.074	-0.015
-475.289	-200.000	-0.012	0.211
-474.274	-123.557	0.322	0.052
-473.259	-121.482	0.262	-0.044
-472.245	14.109	0.334	-0.264
-471.230	-22.997	0.176	0.108
-470.216	-22.716	-0.185	0.113
-469.201	43.902	0.043	0.040
-468.186	800.000	0.015	0.068
-467.172	-200.000	0.110	-0.000
-466.157	-200.000	-0.041	-0.215
-465.143	6.059	-0.081	-0.061
-464.128	-62.771	-0.167	-0.070
-463.113	664.250	0.069	-0.179
-462.099	-200.000	0.018	0.109
-461.084	-200.000	-0.018	-0.359
-460.070	-45.464	0.154	0.077
-459.055	149.754	0.169	-0.232
-458.040	43.547	0.013	0.012
-457.026	687.397	-0.096	0.253
-456.011	454.548	0.069	0.155
-454.997	-51.446	-0.029	-0.014
-453.982	287.615	-0.245	-0.449
-452.968	696.078	-0.152	-0.405
-451.953	-16.995	-0.093	0.060
-450.938	-200.000	-0.016	-0.253
-449.924	-200.000	0.032	-0.233
-448.909	800.000	-0.060	0.182
-447.895	99.798	-0.193	0.226
-446.880	583.111	-0.131	-0.325
-445.865	-48.195	-0.213	-0.104
-444.851	-200.000	-0.010	0.439
-443.836	-12.856	-0.079	-0.052
-442.822	243.153	0.101	-0.171
-441.807	-142.156	-0.385	-0.039
-440.792	-66.273	-0.239	0.096
-439.778	-94.895	-0.222	-0.061
-438.763	-200.000	0.023	-0.240
-437.749	-83.849	-0.210	0.068
-436.734	115.882	-0.143	0.177
-435.719	-170.804	0.251	-0.009
-434.705	-200.000	-0.003	0.235
-433.690	-151.726	0.265	-0.020
-432.676	-43.474	0.319	-0.163
-431.661	33.053	-0.133	0.117
-430.646	215.855	-0.073	-0.117
-429.632	-38.383	0.052	-0.028
-428.617	-10.639	0.394	0.264
-427.603	-168.182	-0.401	0.016
-426.588	-105.053	-0.159	-0.037
-425.573	-200.000	-0.018	0.098
-424.559	-125.998	0.077	-0.012
-423.544	63.015	0.095	0.096
-422.530	-200.000	0.044	0.215
-421.515	-70.660	-0.093	-0.036
-420.500	63.423	-0.224	0.227
-419.486	-29.699	-0.131	0.076
-418.471	-200.000	-0.010	0.077
-417.457	-18.095	-0.054	0.034
-416.442	191.171	-0.171	0.260
-415.428	113.501	0.119	0.146
-414.413	-57.982	0.261	-0.115
-413.398	-92.349	-0.166	-0.047
-412.384	-71.304	0.161	-0.061
-411.369	65.566	-0.216	-0.221
-410.355	62.531	-0.022	-0.023
-409.340	137.662	-0.101	-0.134
-408.325	-45.252	0.463	0.233
-407.311	-200.000	0.033	0.160
-406.296	-200.000	-0.048	-0.217
-405.282	800.000	-0.053	-0.170
-404.267	-200.000	-0.009	-0.085
-403.252	800.000	0.034	-0.108
-402.238	262.674	0.097	0.170
-401.223	-200.000	0.038	-0.315
-400.209	-110.120	-0.199	-0.042
-399.194	-92.782	0.210	-0.059
-398.179	474.376	0.112	-0.255
-397.165	-119.988	-0.092	0.016
-396.150	121.976	-0.130	-0.164
-395.136	-45.805	-0.131	-0.065
-394.121	-7.465	0.316	0.216
-393.106	-111.589	0.054	0.011
-392.092	-200.000	-0.037	0.187
-391.077	-78.374	0.218	-0.075
-390.063	-10.453	-0.109	-0.073
-389.048	263.799	0.094	-0.165
-388.033	-200.000	0.012	-0.111
-387.019	66.797	-0.370	-0.381
-386.004	246.056	-0.072	0.122
-384.990	-142.022	-0.261	0.026
-383.975	-18.984	0.116	-0.073
-382.960	-77.038	0.079	0.028
-381.946	-37.183	0.241	-0.130
-380.931	4.840	-0.195	-0.145
-379.917	58.941	0.070	-0.070
-378.902	800.000	-0.098	0.276
-377.888	286.108	-0.041	-0.074
-376.873	-200.000	0.025	-0.120
-375.858	201.413	0.121	-0.189
-374.844	768.388	0.115	-0.317
-373.829	349.228	0.037	-0.073
-372.815	513.648	-0.057	0.134
-371.800	-200.000	0.029	0.137
-370.785	-124.663	-0.215	-0.034
-369.771	-102.665	-0.457	-0.110
-368.756	-81.392	0.373	0.124
-367.742	309.317	0.104	0.195
-366.727	305.282	-0.077	0.144
-365.712	78.908	-0.058	0.062
-364.698	-121.517	-0.378	-0.063
-363.683	-168.857	-0.219	-0.008
-362.669	42.933	-0.121	0.111
-361.654	424.269	-0.095	-0.207
-360.639	-85.794	-0.016	-0.005
-359.625	-199.968	0.113	0.001
-358.610	-78.000	-0.163	-0.057
-357.596	32.999	0.241	-0.211
-356.581	-125.151	0.283	-0.044
-355.566	800.000	-0.098	0.334
-354.552	-200.000	0.012	0.078
-353.537	154.400	-0.089	0.123
-352.523	-81.819	0.241	-0.080
-351.508	186.445	0.112	0.168
-350.493	426.561	-0.042	0.091
-349.479	-70.965	-0.319	-0.121
-348.464	800.000	-0.024	0.096
-347.450	121.968	-0.011	-0.014
-346.435	58.720	-0.084	0.083
-345.420	-115.826	-0.041	-0.008
-344.406	-32.756	-0.192	-0.108
-343.391	-115.564	0.237	0.045
-342.377	-200.000	-0.008	0.101
-341.362	32.918	0.140	-0.122
-340.348	-200.000	-0.004	-0.099
-339.333	72.271	-0.245	0.257
-338.318	-7.134	0.075	-0.051
-337.304	-92.438	0.166	-0.047
-336.289	-200.000	-0.010	0.272
-335.275	-62.490	0.064	-0.027
-334.260	1.823	-0.039	0.028
-333.245	-200.000	-0.006	0.000
-332.231	30.332	0.049	0.042
-331.216	-9.722	-0.075	0.050
-330.202	-54.149	-0.259	0.119
-329.187	-69.260	0.199	0.077
-328.172	278.065	-0.034	-0.062
-327.158	187.144	-0.182	-0.274
-326.143	-192.291	-0.154	-0.001
-325.129	-200.000	0.043	-0.230
-324.114	400.415	-0.080	0.170
-323.099	58.802	0.096	-0.095
-322.085	-123.453	-0.127	0.020
-321.070	800.000	0.059	0.184
-320.056	-34.171	-0.607	-0.336
-319.041	56.474	0.165	0.162
-318.026	-200.000	-0.012	0.162
-317.012	-17.110	-0.114	-0.073
-315.997	166.334	-0.016	-0.023
-314.983	-7.830	-0.155	0.106
-313.968	-9.406	0.107	0.072
-312.953	103.923	-0.023	0.027
-311.939	778.974	0.097	-0.268
-310.924	102.674	-0.124	-0.146
-309.910	88.994	0.064	0.072
-308.895	77.382	0.184	-0.198
-307.880	56.872	0.116	-0.114
-306.866	780.757	0.157	0.432
-305.851	-200.000	-0.007	-0.173
-304.837	-67.317	-0.173	-0.068
-303.822	-200.000	-0.028	0.219
-302.807	-57.338	0.239	-0.106
-301.793	-120.000	-0.370	-0.064
-300.778	-200.000	0.010	-0.071
-299.764	-200.000	-0.039	-0.224
-298.749	-62.881	0.428	-0.178
-297.735	-86.947	0.071	0.022
-296.720	28.636	0.409	0.349
-295.705	-72.873	0.190	0.070
-294.691	5.162	-0.093	-0.069
-293.676	-200.000	0.010	0.147
-292.662	-62.749	0.341	-0.142
-291.647	283.564	-0.117	0.212
-290.632	-156.988	-0.159	0.010
-289.618	800.000	0.013	0.036
-288.603	-200.000	0.046	0.244
-287.589	17.842	0.061	-0.049
-286.574	425.289	-0.068	-0.148
-285.559	516.414	0.047	-0.110
-284.545	-110.247	0.135	0.028
-283.530	384.304	-0.015	-0.031
-282.516	-200.000	0.050	0.334
-281.501	215.885	-0.119	0.190
-280.486	357.885	-0.106	0.212
-279.472	290.654	-0.063	-0.115
-278.457	116.675	0.291	0.359
-277.443	800.000	-0.025	0.109
-276.428	660.543	0.067	-0.173
-275.413	169.454	-0.155	0.222
-274.399	284.223	-0.038	0.068
-273.384	-34.557	-0.158	0.087
-272.370	-66.810	0.164	-0.065
-271.355	469.011	-0.081	-0.182
-270.340	-200.000	-0.020	0.156
-269.326	-112.995	0.154	-0.031
-268.311	-110.643	0.201	0.042
-267.297	-99.652	0.096	-0.024
-266.282	-200.000	0.006	-0.410
-265.267	221.667	-0.244	-0.394
-264.253	280.453	-0.171	-0.307
-263.238	-200.000	-0.000	-0.170
-262.224	-134.868	0.098	-0.012
-261.209	-133.049	0.280	-0.036
-260.195	-200.000	0.012	0.164
-259.180	-42.266	-0.165	0.085
-258.165	49.698	0.258	-0.245
-257.151	-153.130	0.473	0.033
-256.136	161.894	0.090	-0.126
-255.122	301.210	-0.104	-0.193
-254.107	464.960	-0.036	-0.081
-253.092	170.494	-0.080	-0.115
-252.078	-137.329	-0.117	-0.013
-251.063	-200.000	-0.019	0.117
-250.049	-195.455	0.217	0.002
-249.034	-21.243	0.150	0.092
-248.019	83.738	-0.300	0.329
-247.005	54.600	-0.261	0.253
-245.990	74.147	0.222	-0.234
-244.976	83.084	0.169	0.185
-243.961	6.322	0.304	0.227
-242.946	800.000	-0.053	0.210
-241.932	-86.995	-0.189	0.058
-240.917	-97.324	0.129	-0.034
-239.903	800.000	-0.054	0.167
-238.888	18.982	0.277	-0.223
-237.873	-71.493	0.055	-0.021
-236.859	699.126	-0.045	0.119
-235.844	800.000	-0.122	0.492
-234.830	-18.849	0.065	0.041
-233.815	-83.293	0.094	-0.030
-232.800	-81.975	0.019	-0.006
-231.786	136.585	-0.252	-0.330
-230.771	725.693	0.123	-0.329
-229.757	-45.418	0.173	-0.086
-228.742	-14.801	-0.199	0.128
-227.727	-200.000	-0.003	0.149
-226.713	-143.083	-0.125	-0.012
-225.698	-36.114	-0.165	-0.089
-224.684	255.198	0.114	-0.196
-223.669	439.920	-0.055	-0.121
-222.655	108.027	-0.195	0.234
-221.640	-189.817	-0.236	-0.003
-220.625	-124.788	0.245	0.038
-219.611	43.108	-0.179	0.164
-218.596	-200.000	0.012	0.273
-217.582	-200.000	-0.025	-0.239
-216.567	-47.806	0.358	0.174
-215.552	-99.197	0.211	0.054
-214.538	-6.161	0.055	0.037
-213.523	-200.000	-0.076	-0.387
-212.509	-200.000	-0.000	-0.218
-211.494	-8.258	-0.144	-0.097
-210.479	61.921	-0.123	0.123
-209.465	-113.651	-0.105	-0.021
-208.450	38.558	-0.203	-0.182
-207.436	800.000	-0.061	-0.258
-206.421	-135.628	0.139	-0.017
-205.406	-84.791	-0.135	0.043
-204.392	800.000	0.111	0.485
-203.377	-200.000	0.007	0.284
-202.363	-200.000	0.027	0.271
-201.348	-169.054	-0.206	0.008
-200.333	141.389	-0.154	-0.204
-199.319	-200.000	-0.010	0.202
-198.304	-132.248	-0.219	-0.028
-197.290	-84.851	0.200	-0.063
-196.275	-56.017	0.254	0.114
-195.260	800.000	-0.022	-0.093
-194.246	84.703	0.143	-0.157
-193.231	19.699	-0.084	0.067
-192.217	360.250	0.052	-0.105
-191.202	800.000	-0.086	0.246
-190.187	-68.746	0.183	0.071
-189.173	-200.000	0.030	-0.161
-188.158	-200.000	0.076	0.634
-187.144	-200.000	-0.003	0.134
-186.129	-126.583	-0.262	-0.039
-185.114	17.263	-0.316	0.251
-184.100	60.072	0.231	0.229
-183.085	-59.431	0.093	0.040
-182.071	-200.000	0.065	0.329
-181.056	-83.528	-0.047	-0.015
-180.042	-78.705	0.305	0.104
-179.027	382.681	0.139	-0.286
-178.012	-139.152	0.308	-0.033
-176.998	-61.213	0.218	-0.092
-175.983	-83.938	0.221	-0.070
-174.969	343.110	-0.051	-0.101
-173.954	123.398	-0.077	-0.097
-172.939	-200.000	0.009	-0.159
-171.925	-14.991	-0.078	-0.050
-170.910	800.000	-0.098	0.310
-169.896	-200.000	-0.008	0.231
-168.881	-61.452	-0.201	0.085
-167.866	-200.000	-0.006	0.287
-166.852	-200.000	0.011	0.100
-165.837	-92.830	0.193	0.054
-164.823	557.756	0.044	0.106
-163.808	182.761	0.068	-0.100
-162.793	-200.000	0.018	0.114
-161.779	-12.838	0.308	0.201
-160.764	-34.486	0.089	0.049
-159.750	225.043	0.224	0.363
-158.735	285.540	0.046	0.082
-157.720	-159.338	0.180	-0.010
-156.706	151.565	-0.310	0.423
-155.691	168.491	0.035	0.050
-154.677	-200.000	-0.005	-0.053
-153.662	-65.521	0.185	-0.074
-152.647	-9.676	0.094	-0.062
-151.633	294.819	0.093	-0.171
-150.618	-200.000	-0.014	-0.352
-149.604	-46.613	0.384	0.188
-148.589	9.478	0.103	-0.078
-147.574	128.868	0.119	0.152
-146.560	-53.107	0.084	0.039
-145.545	-27.264	-0.316	-0.184
-144.531	111.732	0.197	-0.239
-143.516	-102.127	0.289	-0.070
-142.502	800.000	0.140	-0.413
-141.487	96.765	0.131	-0.150
-140.472	311.779	-0.093	0.175
-139.458	-108.967	-0.147	-0.031
-138.443	-5.916	0.101	0.069
-137.429	-75.326	0.154	-0.055
-136.414	80.375	-0.105	-0.113
-135.399	800.000	0.047	-0.187
-134.385	135.934	0.160	-0.209
-133.370	-56.774	-0.282	-0.125
-132.356	-79.851	-0.224	-0.075
-131.341	720.707	-0.118	0.313
-130.326	107.095	-0.149	0.177
-129.312	227.990	-0.106	0.173
-128.297	26.410	-0.036	-0.030
-127.283	800.000	0.065	0.189
-126.268	800.000	0.061	0.235
-125.253	-116.680	-0.190	-0.035
-124.239	155.499	0.067	0.092
-123.224	199.208	-0.195	-0.299
-122.210	-107.201	-0.124	0.027
-121.195	-58.625	-0.119	0.052
-120.180	-200.000	-0.010	-0.098
-119.166	-40.358	0.152	0.079
-118.151	-25.105	0.215	-0.127
-117.137	-73.809	-0.045	-0.016
-116.122	-132.648	0.120	0.015
-115.107	311.932	0.047	-0.088
-114.093	-107.251	-0.250	-0.055
-113.078	45.310	-0.171	0.158
-112.064	-15.820	-0.247	0.157
-111.049	800.000	-0.077	0.241
-110.034	-126.854	0.402	-0.059
-109.020	-47.049	-0.334	0.163
-108.005	-10.994	-0.054	-0.035
-106.991	122.264	0.063	-0.079
-105.976	41.319	-0.087	-0.078
-104.962	327.198	-0.011	0.022
-103.947	-104.119	0.314	-0.073
-102.932	-97.298	-0.129	-0.034
-101.918	-200.000	-0.022	0.227
-100.903	134.580	0.239	0.310
-99.889	-138.945	0.289	-0.031
-98.874	267.697	-0.058	-0.101
-97.859	484.750	-0.061	0.140
-96.845	198.050	-0.103	-0.157
-95.830	-200.000	0.005	-0.080
-94.816	800.000	0.111	0.378
-93.801	8.559	0.280	-0.210
-92.786	-156.667	-0.031	-0.002
-91.772	-12.311	0.231	0.151
-90.757	-165.773	0.234	-0.010
-89.743	-139.730	-0.033	0.004
-88.728	800.000	-0.041	0.156
-87.713	-13.963	0.046	0.030
-86.699	-200.000	-0.069	-0.416
-85.684	-84.662	0.202	0.063
-84.670	294.994	-0.099	0.180
-83.655	-90.011	0.141	-0.041
-82.640	-111.606	0.303	0.061
-81.626	-165.593	0.328	0.014
-80.611	-80.781	-0.170	0.057
-79.597	421.936	-0.093	0.198
-78.582	195.712	-0.106	0.161
-77.567	-200.000	-0.026	-0.361
-76.553	800.000	0.046	0.197
-75.538	-200.000	-0.016	0.118
-74.524	416.037	-0.045	0.095
-73.509	-42.569	0.062	-0.031
-72.494	80.859	0.117	0.126
-71.480	126.077	-0.102	-0.128
-70.465	101.756	-0.197	-0.229
-69.451	-200.000	0.024	-0.107
-68.436	215.949	0.136	0.216
-67.422	135.920	0.075	0.097
-66.407	-74.031	0.222	0.080
-65.392	111.213	0.040	0.048
-64.378	-200.000	0.003	0.336
-63.363	-50.625	0.306	0.144
-62.349	-88.175	-0.285	-0.085
-61.334	91.006	-0.833	-0.931
-60.319	11.650	0.366	0.280
-59.305	-200.000	0.063	-0.737
-58.290	101.356	0.624	0.724
-57.276	756.954	0.789	2.130
-56.261	-200.000	75.575	571.939
-55.246	546.651	1339.735	3195.751
-54.232	138.567	2574.860	3370.819
-53.217	121.288	2246.700	2789.844
-52.203	56.143	1677.486	1624.009
-51.188	47.270	1395.250	1295.510
-50.173	43.483	1347.910	1228.536
-49.159	62.043	1381.746	1373.490
-48.144	70.407	1400.394	1443.052
-47.130	47.684	1363.445	1268.313
-46.115	43.358	1346.940	1226.702
-45.100	43.185	1342.062	1221.158
-44.086	43.024	1339.781	1218.064
-43.071	42.927	1337.282	1215.159
-42.057	42.963	1334.626	1212.911
-41.042	42.963	1333.474	1211.817
-40.027	43.020	1331.978	1210.755
-39.013	42.978	1329.880	1208.547
-37.998	43.084	1327.813	1207.253
-36.984	43.109	1326.077	1205.776
-35.969	43.107	1324.501	1204.286
-34.954	43.165	1322.823	1203.060
-33.940	43.139	1321.407	1201.568
-32.925	43.226	1319.959	1200.718
-31.911	43.235	1318.277	1199.198
-30.896	43.290	1316.594	1197.944
-29.881	43.188	1315.611	1196.397
-28.867	43.248	1313.713	1194.977
-27.852	43.216	1312.309	1193.466
-26.838	43.253	1310.572	1192.056
-25.823	43.194	1309.357	1190.558
-24.809	43.296	1307.721	1189.625
-23.794	43.241	1306.056	1187.735
-22.779	43.199	1305.005	1186.488
-21.765	43.191	1303.810	1185.307
-20.750	43.180	1302.432	1183.944
-19.736	43.117	1301.342	1182.532
-18.721	43.060	1299.984	1180.919
-17.706	43.059	1299.088	1180.054
-16.692	43.141	1297.595	1179.132
-15.677	43.007	1296.578	1177.376
-14.663	43.028	1295.942	1176.873
-13.648	43.044	1294.328	1175.453
-12.633	43.139	1293.447	1175.162
-11.619	43.004	1292.809	1173.750
-10.604	43.109	1291.397	1173.030
-9.590	43.111	1290.570	1172.245
-8.575	43.001	1289.391	1170.488
-7.560	43.080	1288.527	1170.115
-6.546	43.067	1287.337	1168.913
-5.531	43.002	1286.965	1168.151
-4.517	42.859	1286.835	1167.162
-3.502	43.063	1285.549	1167.127
-2.487	43.046	1284.424	1165.961
-1.473	43.091	1280.388	1162.511
-0.458	41.532	1264.542	1139.191
0.556	34.765	1241.749	1086.946
1.571	28.413	1242.402	1051.129
2.586	25.880	1254.450	1046.537
3.600	24.014	1244.001	1026.970
4.615	17.462	1167.689	928.276
5.629	6.505	1085.106	806.732
6.644	0.745	1060.876	759.758
7.659	0.274	1057.567	754.961
8.673	0.184	1056.776	753.882
9.688	0.030	1055.596	752.201
10.702	0.421	1053.955	752.917
11.717	5.783	1061.504	785.148
12.731	14.435	1073.204	837.373
13.746	17.945	1075.887	857.037
14.761	17.120	1074.775	851.936
15.775	16.129	1072.736	845.282
16.790	15.166	1070.712	838.792
17.804	14.271	1069.370	833.192
18.819	13.900	1068.134	830.300
19.834	13.738	1066.873	828.437
20.848	13.455	1065.855	826.162
21.863	13.176	1065.140	824.139
22.877	13.072	1064.498	823.051
23.892	12.929	1064.104	821.963
24.907	13.044	1062.827	821.474
25.921	13.186	1061.935	821.421
26.936	13.142	1061.359	820.686
27.950	13.258	1060.086	820.200
28.965	13.192	1059.239	819.149
29.980	13.275	1057.894	818.447
30.994	13.327	1056.829	817.804
32.009	13.338	1055.644	816.871
33.023	13.166	1055.090	815.522
34.038	13.251	1053.962	814.998
35.053	13.197	1053.419	814.240
36.067	13.212	1052.045	813.180
37.082	13.066	1051.698	812.120
38.096	13.247	1050.423	811.951
39.111	13.360	1049.499	811.719
40.126	13.174	1048.650	810.083
41.140	12.993	1047.347	808.115
42.155	12.915	1046.360	806.903
43.169	12.931	1045.152	805.977
44.184	12.991	1044.253	805.504
45.199	12.914	1043.591	804.549
46.213	12.963	1042.574	803.933
47.228	13.059	1041.116	803.204
48.242	13.092	1040.398	802.737
49.257	13.082	1038.839	801.416
50.271	13.145	1038.308	801.239
51.286	13.090	1037.684	800.421
52.301	13.153	1036.235	799.539
53.315	13.175	1035.061	798.669
54.330	13.114	1034.170	797.616
55.344	12.960	1033.509	796.292
56.359	13.116	1032.750	796.389
57.374	13.124	1031.550	795.432
58.388	12.986	1031.158	794.392
59.403	12.966	1030.583	793.787
60.417	12.971	1029.512	792.913
61.432	12.929	1029.077	792.306
62.447	12.946	1027.800	791.335
63.461	12.947	1026.686	790.413
64.476	12.913	1025.687	789.410
65.490	12.922	1025.276	789.067
66.505	12.985	1024.853	788.972
67.520	12.968	1024.002	788.166
68.534	13.021	1022.924	787.520
69.549	13.059	1022.736	787.489
70.563	12.882	1021.968	785.981
71.578	12.875	1020.961	785.108
72.593	12.961	1020.539	785.122
73.607	12.787	1019.955	783.776
74.622	12.841	1019.249	783.417
75.636	12.905	1018.324	782.945
76.651	12.865	1018.048	782.473
77.666	12.974	1016.754	781.922
78.680	12.865	1016.804	781.375
79.695	12.878	1015.847	780.634
80.709	12.908	1015.480	780.427
81.724	13.017	1014.710	780.282
82.739	13.042	1013.735	779.580
83.753	13.027	1012.973	778.855
84.768	13.161	1011.749	778.476
85.782	13.297	1010.804	778.320
86.797	13.252	1010.017	777.431
87.812	13.123	1009.032	775.998
88.826	12.988	1008.030	774.525
89.841	13.092	1007.199	774.307
90.855	13.179	1006.419	774.045
91.870	13.188	1005.465	773.284
92.884	13.253	1004.489	772.770
93.899	13.152	1004.021	771.871
94.914	13.267	1003.113	771.640
95.928	13.196	1002.823	771.019
96.943	13.241	1001.506	770.147
97.957	13.211	1000.637	769.271
98.972	13.343	999.714	769.106
99.987	13.347	998.582	768.186
101.001	13.294	997.626	767.138
102.016	13.248	997.212	766.538
103.030	13.292	996.708	766.287
104.045	13.204	996.164	765.394
105.060	13.262	994.825	764.564
106.074	13.126	994.030	763.258
107.089	13.112	992.976	762.315
108.103	13.031	992.332	761.381
109.118	12.976	991.258	760.237
110.133	12.973	990.128	759.289
111.147	13.003	989.329	758.745
112.162	13.157	988.435	758.699
113.176	13.165	987.753	758.147
114.191	13.226	986.882	757.693
115.206	13.099	986.388	756.663
116.220	13.112	985.421	755.915
117.235	13.154	984.216	755.115
118.249	13.073	983.609	754.212
119.264	13.253	982.474	754.097
120.279	13.134	982.207	753.282
121.293	13.225	981.153	752.823
122.308	13.083	980.277	751.439
123.322	13.147	979.287	750.901
124.337	13.202	978.726	750.658
125.352	13.136	977.726	749.521
126.366	13.119	976.326	748.304
127.381	13.189	975.410	747.855
128.395	13.164	974.725	747.151
129.410	13.125	974.019	746.365
130.424	13.243	972.975	746.031
131.439	13.418	972.001	746.012
132.454	13.229	971.634	744.811
133.468	13.226	970.926	744.190
134.483	13.208	969.537	742.977
135.497	13.303	968.934	742.874
136.512	13.265	968.215	742.086
137.527	13.349	967.363	741.746
138.541	13.326	966.469	740.891
139.556	13.383	965.704	740.497
140.570	13.257	965.479	739.692
141.585	13.347	964.365	739.177
142.600	13.510	963.186	738.936
143.614	13.413	962.593	737.981
144.629	13.392	961.918	737.305
145.643	13.475	960.809	736.760
146.658	13.423	960.030	735.865
147.673	13.314	959.076	734.586
148.687	13.431	958.223	734.388
149.702	13.349	957.423	733.346
150.716	13.292	956.648	732.436
151.731	13.325	955.809	731.873
152.746	13.295	955.159	731.178
153.760	13.349	954.427	730.791
154.775	13.352	954.216	730.577
155.789	13.462	953.034	730.096
156.804	13.420	952.638	729.541
157.819	13.502	951.647	729.079
158.833	13.668	950.913	729.183
159.848	13.511	950.205	727.886
160.862	13.381	949.293	726.551
161.877	13.537	948.203	726.336
162.892	13.460	947.513	725.405
163.906	13.357	946.549	724.153
164.921	13.455	945.692	723.862
165.935	13.471	945.084	723.402
166.950	13.591	943.604	722.729
167.964	13.432	943.264	721.711
168.979	13.377	942.250	720.633
169.994	13.472	941.689	720.552
171.008	13.489	940.711	719.814
172.023	13.572	939.624	719.278
173.037	13.586	939.371	719.084
174.052	13.576	938.539	718.340
175.067	13.406	938.408	717.440
176.081	13.522	937.366	717.080
177.096	13.432	937.313	716.589
178.110	13.568	936.545	716.525
179.125	13.585	935.810	715.974
180.140	13.702	935.199	715.948
181.154	13.669	934.774	715.417
182.169	13.642	934.281	714.856
183.183	13.640	933.774	714.398
184.198	13.710	932.740	713.844
185.213	13.678	932.152	713.193
186.227	13.771	931.587	713.097
187.242	13.857	930.496	712.571
188.256	13.749	930.313	711.906
189.271	13.911	928.989	711.519
190.286	13.675	928.840	710.331
191.300	13.560	928.319	709.380
192.315	13.589	927.410	708.747
193.329	13.629	926.720	708.325
194.344	13.663	926.261	708.061
195.359	13.871	925.274	708.129
196.373	13.737	924.917	707.223
197.388	13.916	924.378	707.508
198.402	13.883	924.029	707.038
199.417	13.998	923.203	706.833
200.432	14.024	922.621	706.436
201.446	14.001	921.998	705.799
202.461	13.989	921.922	705.628
203.475	13.994	921.314	705.119
204.490	14.012	920.495	704.507
205.504	13.813	919.838	703.098
206.519	13.944	918.964	702.926
207.534	13.869	918.163	701.935
208.548	13.977	917.524	701.836
209.563	13.998	916.845	701.344
210.577	14.108	916.201	701.253
211.592	14.093	915.684	700.733
212.607	14.212	914.643	700.378
213.621	14.086	914.344	699.555
214.636	14.015	913.579	698.609
215.650	14.240	912.729	698.841
216.665	14.234	912.036	698.224
217.680	14.239	911.347	697.657
218.694	14.126	910.933	696.803
219.709	14.263	909.877	696.509
220.723	14.270	909.003	695.808
221.738	14.246	908.679	695.395
222.753	14.289	907.895	694.914
223.767	14.308	907.383	694.539
224.782	14.410	906.648	694.340
225.796	14.354	906.234	693.730
226.811	14.337	905.623	693.129
227.826	14.394	904.447	692.403
228.840	14.337	903.936	691.717
229.855	14.283	903.526	691.115
230.869	14.358	902.470	690.557
231.884	14.381	901.886	690.146
232.899	14.301	901.386	689.370
233.913	14.275	900.523	688.542
234.928	14.224	900.010	687.881
235.942	14.164	899.851	687.449
236.957	14.332	898.995	687.429
237.972	14.369	898.341	687.019
238.986	14.365	897.728	686.473
240.001	14.445	896.771	686.011
241.015	14.382	896.024	685.120
242.030	14.377	895.584	684.699
243.045	14.462	894.944	684.500
244.059	14.554	894.452	684.443
245.074	14.613	893.599	683.969
246.088	14.512	893.069	683.090
247.103	14.626	892.512	683.069
248.117	14.570	891.931	682.336
249.132	14.652	891.533	682.307
250.147	14.629	890.505	681.366
251.161	14.665	890.069	681.118
252.176	14.649	889.449	680.516
253.190	14.705	888.541	679.992
254.205	14.723	888.173	679.722
255.220	14.750	887.576	679.315
256.234	14.797	886.982	678.992
257.249	14.756	886.399	678.317
258.263	14.852	885.139	677.685
259.278	14.740	884.675	676.815
260.293	14.909	884.411	677.239
261.307	14.923	883.846	676.802
262.322	14.920	882.985	676.069
263.336	14.922	882.233	675.443
264.351	15.004	881.267	674.972
265.366	15.150	880.439	674.868
266.380	14.953	880.328	673.928
267.395	15.007	879.143	673.181
268.409	14.944	878.873	672.660
269.424	15.030	877.921	672.218
270.439	15.052	877.205	671.698
271.453	15.117	876.390	671.275
272.468	15.154	876.008	671.072
273.482	14.983	875.657	670.059
274.497	15.136	874.781	669.943
275.512	15.071	874.135	669.127
276.526	15.155	874.042	669.333
277.541	15.279	873.302	669.200
278.555	15.233	872.926	668.673
279.570	15.273	871.794	667.905
280.585	15.389	870.696	667.465
281.599	15.191	870.427	666.414
282.614	15.186	869.966	665.979
283.628	15.272	869.337	665.782
284.643	15.149	868.906	664.904
285.657	15.254	868.253	664.762
286.672	15.285	867.261	664.068
287.687	15.298	866.740	663.661
288.701	15.207	866.745	663.244
289.716	15.293	865.858	662.850
290.730	15.449	864.943	662.705
291.745	15.467	864.518	662.393
292.760	15.363	863.925	661.470
293.774	15.327	863.684	661.083
294.789	15.472	862.620	660.781
295.803	15.532	861.500	660.100
296.818	15.420	860.790	659.058
297.833	15.468	860.513	658.976
298.847	15.471	859.573	658.209
299.862	15.442	859.040	657.631
300.876	15.411	858.886	657.335
301.891	15.516	857.913	656.939
302.906	15.540	857.612	656.748
303.920	15.465	857.564	656.359
304.935	15.636	856.423	656.095
305.949	15.678	855.683	655.632
306.964	15.673	855.219	655.200
307.979	15.539	854.959	654.420
308.993	15.717	854.291	654.545
310.008	15.641	853.786	653.804
311.022	15.623	853.345	653.337
312.037	15.664	852.319	652.656
313.052	15.619	851.734	651.975
314.066	15.523	851.695	651.516
315.081	15.638	850.923	651.314
316.095	15.675	850.036	650.718
317.110	15.608	849.498	649.988
318.125	15.628	849.195	649.779
319.139	15.747	848.495	649.643
320.154	15.809	848.177	649.583
321.168	15.835	847.644	649.215
322.183	15.824	846.717	648.407
323.197	15.811	846.161	647.874
324.212	15.795	845.712	647.413
325.227	15.874	845.156	647.233
326.241	15.861	844.659	646.746
327.256	15.817	844.056	646.056
328.270	15.841	843.499	645.666
329.285	15.863	842.860	645.205
330.300	15.846	842.472	644.783
331.314	15.781	842.120	644.208
332.329	15.974	841.214	644.198
333.343	16.000	840.744	643.879
334.358	16.016	840.389	643.614
335.373	15.925	840.302	643.139
336.387	15.978	839.973	643.034
337.402	16.031	839.772	643.025
338.416	16.110	839.249	642.871
339.431	16.143	838.969	642.722
340.446	16.216	838.332	642.459
341.460	16.140	838.222	642.025
342.475	15.995	838.029	641.269
343.489	16.055	837.433	640.986
344.504	16.156	836.735	640.776
345.519	16.337	836.088	640.913
346.533	16.284	835.856	640.478
347.548	16.233	835.318	639.814
348.562	16.376	834.523	639.691
349.577	16.197	834.005	638.560
350.592	16.152	833.792	638.169
351.606	16.139	833.171	637.587
352.621	16.134	832.301	636.850
353.635	16.199	831.550	636.463
354.650	16.280	831.184	636.432
355.665	16.277	830.164	635.582
356.679	16.410	829.654	635.636
357.694	16.360	829.210	635.053
358.708	16.242	828.395	633.930
359.723	16.458	827.704	634.155
360.738	16.437	827.445	633.822
361.752	16.406	826.406	632.852
362.767	16.511	825.843	632.757
363.781	16.426	825.407	632.052
364.796	16.498	824.881	631.862
365.810	16.559	824.612	631.826
366.825	16.714	824.542	632.298
367.840	16.705	823.817	631.652
368.854	16.703	823.096	631.033
369.869	16.531	822.956	630.231
370.883	16.602	822.439	630.044
371.898	16.587	822.294	629.821
372.913	16.698	821.881	629.862
373.927	16.689	821.137	629.201
374.942	16.695	820.889	628.977
375.956	16.887	820.464	629.309
376.971	16.700	820.071	628.257
377.986	16.847	819.537	628.340
379.000	16.884	819.209	628.168
380.015	17.027	818.061	627.761
381.029	16.962	817.836	627.294
382.044	16.870	817.269	626.465
383.059	16.997	816.582	626.351
384.073	16.849	816.354	625.574
385.088	16.892	815.789	625.246
386.102	16.951	814.955	624.766
387.117	16.841	814.557	624.002
388.132	16.865	814.375	623.896
389.146	16.943	813.569	623.508
390.161	16.930	812.921	622.912
391.175	16.990	812.652	622.870
392.190	16.958	811.987	622.186
393.205	16.827	811.868	621.560
394.219	16.938	811.441	621.585
395.234	16.888	811.336	621.264
396.248	16.827	810.753	620.541
397.263	16.775	810.093	619.791
398.278	17.040	809.452	620.215
399.292	17.102	808.799	619.885
400.307	16.984	808.748	619.359
401.321	16.859	808.441	618.615
402.336	16.972	807.927	618.580
403.350	17.012	807.541	618.373
404.365	16.991	806.843	617.708
405.380	17.180	806.442	618.036
406.394	17.182	805.835	617.521
407.409	17.271	805.399	617.459
408.423	17.351	805.142	617.496
409.438	17.268	804.900	616.953
410.453	17.222	804.481	616.410
411.467	17.325	803.760	616.179
412.482	17.228	803.750	615.764
413.496	17.426	803.115	615.938
414.511	17.486	802.570	615.683
415.526	17.407	802.228	615.082
416.540	17.498	801.586	614.865
417.555	17.370	801.638	614.387
418.569	17.394	800.953	613.894
419.584	17.497	800.310	613.719
420.599	17.530	799.975	613.527
421.613	84.925	1250.879	1322.734
422.628	72.209	1316.592	1322.852
