DTS Sentinel unit serial number:	SN413079Multiplexer serial number:	ORYXHardware model number:	OX4-SRSoftware version number:	ORYX F/W v4.00 Oryx Data Collector v3.7.2.0data status	okinstallation	princeton_trtdifferential loss correction	single-endedforward channel	channel 1reverse channel	N/Adate	2019/09/12time	03:44:11forward acquisition time	60.00reverse acquisition time	0.00gamma	496.2192k internal	0.2322k external	0.2322temperature offset calibration	1.0085default loss term (dB/km)	0.3790temperature slope calibration	1.0000multiplexer offset coefficient	1.0000multiplexer slope coefficient	1.0000fibre end	0.00T internal ref (°C)	32.16T ext. ref 1 (°C)	2.14T ext. ref 2 (°C)	27.33length (m)	temperature (°C)	Stokes	anti-Stokes-747.200	-117.094	0.076	-0.014
-746.185	-48.682	-0.243	-0.118
-745.171	16.543	-0.041	-0.033
-744.156	36.805	0.090	-0.080
-743.142	-25.364	0.181	0.108
-742.127	-200.000	-0.060	0.404
-741.112	800.000	-0.041	0.145
-740.098	360.844	-0.208	0.421
-739.083	-84.887	-0.173	0.055
-738.069	213.150	-0.124	-0.197
-737.054	-139.444	-0.188	-0.020
-736.039	309.016	-0.179	0.337
-735.025	-98.145	0.047	0.012
-734.010	-170.729	-0.148	0.005
-732.996	226.125	-0.259	-0.424
-731.981	800.000	-0.069	0.223
-730.966	-50.320	-0.052	0.025
-729.952	602.450	-0.103	0.259
-728.937	-200.000	0.001	-0.048
-727.923	309.158	0.103	0.194
-726.908	-158.958	-0.328	0.019
-725.894	-43.981	0.055	-0.028
-724.879	-200.000	0.013	-0.327
-723.864	352.672	-0.181	0.363
-722.850	253.573	-0.065	0.111
-721.835	223.301	0.018	-0.029
-720.821	70.101	0.136	-0.141
-719.806	-123.929	0.183	-0.029
-718.791	6.561	0.175	-0.131
-717.777	-28.853	-0.272	-0.158
-716.762	-153.252	0.248	0.017
-715.748	558.564	0.080	0.194
-714.733	800.000	0.051	-0.201
-713.718	371.577	-0.071	-0.145
-712.704	800.000	-0.031	-0.105
-711.689	800.000	0.067	-0.250
-710.675	-140.635	0.228	-0.024
-709.660	-56.775	0.256	-0.114
-708.645	2.624	0.259	-0.189
-707.631	377.246	-0.054	0.112
-706.616	-11.813	-0.172	-0.114
-705.602	-200.000	0.012	0.070
-704.587	-86.003	0.141	-0.044
-703.572	-27.538	0.154	0.090
-702.558	-200.000	0.001	0.126
-701.543	800.000	-0.038	-0.150
-700.529	311.571	0.132	-0.250
-699.514	-200.000	0.002	0.271
-698.499	22.503	-0.144	-0.119
-697.485	800.000	0.086	0.284
-696.470	-103.673	-0.111	-0.026
-695.456	-131.285	-0.072	-0.010
-694.441	-105.307	0.271	-0.062
-693.426	-125.374	0.105	-0.016
-692.412	-200.000	-0.007	0.372
-691.397	-147.295	-0.137	-0.012
-690.383	-200.000	0.022	-0.294
-689.368	-166.761	-0.172	-0.007
-688.354	13.649	0.331	0.259
-687.339	-149.959	-0.360	0.028
-686.324	94.279	0.149	0.170
-685.310	545.116	0.087	-0.210
-684.295	-64.274	-0.114	-0.047
-683.281	-55.895	-0.244	-0.110
-682.266	62.849	-0.196	0.197
-681.251	-126.622	0.204	-0.030
-680.237	-139.892	0.230	-0.025
-679.222	-200.000	-0.007	-0.032
-678.208	142.714	-0.172	-0.230
-677.193	78.451	0.050	0.054
-676.178	-189.682	0.446	0.005
-675.164	-2.270	-0.223	0.158
-674.149	800.000	0.025	-0.084
-673.135	386.360	-0.083	-0.173
-672.120	386.129	0.111	-0.231
-671.105	101.737	0.029	0.034
-670.091	-121.174	0.251	0.042
-669.076	209.413	0.066	0.104
-668.062	377.056	0.028	-0.057
-667.047	-200.000	-0.045	-0.218
-666.032	-38.416	-0.176	-0.094
-665.018	199.542	-0.035	-0.054
-664.003	-200.000	0.164	-0.000
-662.989	651.929	0.092	-0.238
-661.974	96.282	0.172	-0.199
-660.959	-200.000	-0.045	-0.235
-659.945	20.715	0.316	-0.257
-658.930	-43.898	-0.038	0.019
-657.916	206.762	-0.050	0.078
-656.901	111.502	-0.172	-0.209
-655.886	101.665	0.158	0.185
-654.872	800.000	-0.038	0.114
-653.857	306.747	0.126	0.235
-652.843	243.048	0.328	0.553
-651.828	66.334	-0.133	0.136
-650.814	-6.524	-0.107	0.074
-649.799	-62.021	-0.225	0.095
-648.784	377.207	0.035	-0.072
-647.770	-133.579	0.185	0.023
-646.755	800.000	0.103	-0.356
-645.741	-76.781	-0.256	0.090
-644.726	56.522	0.079	0.078
-643.711	243.861	-0.095	-0.161
-642.697	-113.517	0.183	-0.036
-641.682	-165.690	0.221	0.010
-640.668	-200.000	-0.002	0.036
-639.653	-200.000	-0.008	0.035
-638.638	90.482	-0.110	0.124
-637.624	-96.673	0.221	0.059
-636.609	131.718	0.006	-0.008
-635.595	800.000	-0.114	0.366
-634.580	800.000	0.135	-0.406
-633.565	-13.129	0.111	-0.072
-632.551	-1.002	0.069	-0.049
-631.536	-182.590	-0.422	-0.008
-630.522	203.337	-0.075	-0.116
-629.507	88.198	-0.096	-0.107
-628.492	11.478	0.184	0.142
-627.478	-200.000	-0.021	0.269
-626.463	-47.269	0.224	0.110
-625.449	-111.157	-0.176	0.036
-624.434	4.602	-0.281	-0.207
-623.419	-200.000	0.079	0.365
-622.405	-114.717	-0.067	0.013
-621.390	139.609	-0.149	0.197
-620.376	117.416	0.075	-0.093
-619.361	-200.000	-0.001	-0.052
-618.346	-141.988	0.213	0.021
-617.332	84.561	0.318	0.350
-616.317	-200.000	-0.019	0.119
-615.303	-200.000	0.009	-0.116
-614.288	-111.792	-0.167	-0.034
-613.273	-200.000	0.005	-0.075
-612.259	357.845	-0.026	-0.053
-611.244	-200.000	-0.027	0.143
-610.230	800.000	0.079	-0.255
-609.215	-5.082	-0.036	-0.025
-608.201	496.455	0.061	0.142
-607.186	-60.391	0.207	-0.089
-606.171	800.000	0.123	0.358
-605.157	800.000	-0.151	0.487
-604.142	-58.863	0.249	0.108
-603.128	-200.000	0.015	0.199
-602.113	-136.274	-0.190	-0.022
-601.098	-90.225	-0.286	-0.083
-600.084	-97.316	0.296	0.078
-599.069	54.438	-0.297	-0.288
-598.055	-24.876	0.159	0.095
-597.040	-140.741	0.148	0.015
-596.025	800.000	-0.053	0.211
-595.011	800.000	-0.071	0.230
-593.996	49.378	-0.156	-0.148
-592.982	-200.000	0.021	-0.228
-591.967	37.326	-0.412	-0.367
-590.952	-2.464	-0.071	0.050
-589.938	800.000	-0.072	0.260
-588.923	29.986	-0.145	0.124
-587.909	88.955	-0.161	0.180
-586.894	-71.628	0.212	0.079
-585.879	-102.232	-0.184	-0.044
-584.865	800.000	-0.051	-0.189
-583.850	-17.328	-0.071	-0.045
-582.836	80.482	-0.311	-0.337
-581.821	-158.221	-0.247	0.015
-580.806	214.943	-0.139	-0.221
-579.792	304.722	-0.031	0.058
-578.777	-51.020	-0.103	0.048
-577.763	214.316	0.116	0.184
-576.748	-200.000	-0.001	0.189
-575.733	-64.150	-0.233	-0.096
-574.719	-200.000	0.005	0.354
-573.704	-82.682	-0.321	-0.104
-572.690	800.000	-0.053	-0.233
-571.675	92.857	-0.150	-0.170
-570.661	554.838	-0.074	0.178
-569.646	267.380	-0.084	-0.147
-568.631	129.852	-0.080	0.102
-567.617	86.097	-0.180	-0.199
-566.602	141.309	0.125	0.167
-565.588	800.000	0.114	-0.458
-564.573	800.000	-0.028	0.095
-563.558	800.000	-0.043	-0.129
-562.544	45.953	-0.308	0.286
-561.529	-75.738	-0.195	0.069
-560.515	-20.986	-0.360	-0.221
-559.500	317.925	-0.130	-0.247
-558.485	139.126	-0.107	-0.141
-557.471	374.002	0.101	-0.206
-556.456	-159.600	-0.365	0.020
-555.442	800.000	-0.111	-0.369
-554.427	-134.502	0.131	-0.016
-553.412	239.916	0.147	-0.246
-552.398	22.534	0.104	0.085
-551.383	26.866	0.206	0.173
-550.369	110.483	-0.116	-0.140
-549.354	-25.093	0.118	0.070
-548.339	-128.034	0.024	-0.003
-547.325	-91.879	-0.068	0.019
-546.310	82.063	0.203	-0.221
-545.296	800.000	0.106	-0.296
-544.281	-10.264	0.278	-0.185
-543.266	259.431	0.090	-0.155
-542.252	-35.779	-0.290	0.157
-541.237	399.047	-0.227	-0.476
-540.223	800.000	0.055	-0.167
-539.208	-178.236	-0.077	-0.002
-538.193	-42.087	0.276	0.141
-537.179	-110.135	-0.255	0.053
-536.164	800.000	0.042	0.122
-535.150	-97.987	0.177	-0.046
-534.135	-39.651	-0.159	-0.083
-533.121	40.960	-0.030	0.027
-532.106	571.064	0.110	-0.269
-531.091	48.259	-0.197	-0.185
-530.077	-119.697	0.259	0.045
-529.062	214.051	-0.072	0.114
-528.048	-74.302	0.332	0.120
-527.033	-53.169	-0.101	-0.047
-526.018	-95.611	-0.464	0.124
-525.004	-200.000	-0.369	0.002
-523.989	-128.654	-0.285	0.040
-522.975	69.314	-0.167	0.172
-521.960	391.107	0.123	-0.256
-520.945	136.628	0.095	0.125
-519.931	90.749	-0.028	0.032
-518.916	131.975	-0.114	-0.148
-517.902	522.866	0.071	-0.166
-516.887	-200.000	-0.012	0.218
-515.872	97.205	0.128	0.148
-514.858	-155.091	0.415	-0.027
-513.843	-71.255	-0.439	0.165
-512.829	800.000	-0.083	-0.348
-511.814	-4.210	0.036	-0.025
-510.799	563.048	-0.139	0.338
-509.785	-200.000	-0.066	0.441
-508.770	-152.772	0.170	-0.012
-507.756	800.000	-0.086	-0.331
-506.741	610.922	0.109	0.272
-505.726	-120.239	0.313	0.054
-504.712	-200.000	-0.012	-0.151
-503.697	-200.000	0.049	-0.246
-502.683	800.000	-0.054	-0.155
-501.668	388.745	-0.203	0.421
-500.653	84.607	0.065	0.071
-499.639	-200.000	0.060	-0.342
-498.624	-3.945	-0.174	-0.121
-497.610	-200.000	0.004	-0.081
-496.595	-33.994	-0.134	0.074
-495.581	-200.000	0.016	0.112
-494.566	800.000	0.101	0.394
-493.551	-126.868	0.053	0.008
-492.537	81.696	-0.152	0.164
-491.522	-132.119	0.300	0.039
-490.508	-200.000	0.012	0.184
-489.493	800.000	0.055	-0.214
-488.478	-2.361	0.211	0.148
-487.464	-200.000	-0.016	0.249
-486.449	-11.073	-0.150	-0.099
-485.435	276.912	-0.080	0.142
-484.420	-79.818	0.202	0.068
-483.405	-3.407	-0.203	0.141
-482.391	-107.395	-0.210	0.046
-481.376	-200.000	-0.001	-0.044
-480.362	104.360	-0.315	0.371
-479.347	416.902	-0.083	-0.178
-478.332	55.027	-0.165	-0.160
-477.318	-200.000	0.034	0.192
-476.303	-57.153	0.300	-0.132
-475.289	-200.000	0.027	0.233
-474.274	84.619	-0.093	-0.102
-473.259	-25.636	0.237	0.140
-472.245	-39.872	-0.230	0.120
-471.230	40.873	0.217	0.196
-470.216	19.909	-0.216	0.174
-469.201	-200.000	-0.004	-0.135
-468.186	97.131	0.217	-0.249
-467.172	-200.000	-0.316	0.001
-466.157	-54.243	-0.299	-0.136
-465.143	800.000	-0.071	0.263
-464.128	800.000	-0.008	-0.025
-463.113	70.340	-0.326	-0.336
-462.099	-118.966	-0.410	0.072
-461.084	-111.876	0.253	0.051
-460.070	460.665	-0.094	0.209
-459.055	203.536	0.139	-0.215
-458.040	98.364	-0.075	0.087
-457.026	-36.731	-0.340	-0.182
-456.011	200.801	0.105	-0.161
-454.997	-166.204	-0.327	-0.014
-453.982	-200.000	-0.017	-0.389
-452.968	29.153	0.153	-0.129
-451.953	25.947	0.111	-0.092
-450.938	-100.208	0.174	-0.043
-449.924	-88.187	-0.111	-0.033
-448.909	-200.000	0.085	-0.383
-447.895	5.612	-0.193	-0.142
-446.880	800.000	0.091	-0.257
-445.865	29.176	-0.060	0.051
-444.851	-40.579	-0.070	0.036
-443.836	58.200	-0.065	0.064
-442.822	-50.944	0.075	-0.035
-441.807	-47.287	0.078	-0.038
-440.792	338.243	0.092	-0.179
-439.778	120.708	-0.217	-0.269
-438.763	67.085	0.148	-0.150
-437.749	47.742	-0.122	-0.113
-436.734	-45.113	-0.229	-0.114
-435.719	800.000	0.027	-0.110
-434.705	-61.641	0.324	0.136
-433.690	-141.346	-0.204	-0.021
-432.676	229.828	0.088	-0.144
-431.661	-29.179	-0.184	0.106
-430.646	-145.795	0.325	0.029
-429.632	451.196	0.079	-0.173
-428.617	800.000	0.067	-0.200
-427.603	11.599	0.037	-0.028
-426.588	164.422	-0.162	-0.227
-425.573	-79.784	-0.191	0.064
-424.559	800.000	-0.083	-0.286
-423.544	-62.281	-0.221	0.092
-422.530	16.985	0.148	0.117
-421.515	-192.354	0.264	0.002
-420.500	800.000	-0.076	-0.257
-419.486	44.310	0.213	-0.195
-418.471	35.678	-0.153	-0.134
-417.457	-91.999	0.248	0.070
-416.442	-60.950	0.226	0.095
-415.428	-35.448	0.321	0.174
-414.413	-41.414	0.212	-0.109
-413.398	35.151	0.241	0.210
-412.384	12.688	-0.118	-0.091
-411.369	29.818	0.100	-0.085
-410.355	-53.533	-0.195	-0.089
-409.340	266.844	-0.082	-0.142
-408.325	-24.897	0.264	0.156
-407.311	-27.132	0.221	-0.129
-406.296	-135.484	-0.152	0.018
-405.282	561.874	0.071	-0.171
-404.267	122.920	0.221	0.276
-403.252	-43.743	-0.174	-0.087
-402.238	-165.279	-0.192	0.008
-401.223	-137.693	-0.254	0.028
-400.209	-200.000	0.020	-0.265
-399.194	9.592	0.128	-0.097
-398.179	-200.000	-0.006	-0.042
-397.165	-200.000	0.010	0.201
-396.150	36.705	0.227	-0.200
-395.136	-81.429	-0.061	-0.020
-394.121	37.852	-0.062	0.055
-393.106	271.079	-0.005	-0.008
-392.092	-200.000	0.000	0.195
-391.077	800.000	-0.091	0.323
-390.063	89.562	0.061	-0.067
-389.048	178.265	0.022	-0.032
-388.033	-200.000	0.005	0.028
-387.019	-118.468	0.447	-0.079
-386.004	204.731	-0.168	0.260
-384.990	-200.000	-0.136	0.598
-383.975	-63.382	0.139	0.057
-382.960	27.449	-0.202	-0.169
-381.946	555.183	-0.079	0.191
-380.931	579.232	0.056	0.137
-379.917	748.543	0.028	0.075
-378.902	800.000	0.071	0.304
-377.888	-200.000	0.001	-0.025
-376.873	382.924	0.103	0.212
-375.858	-7.937	-0.364	-0.245
-374.844	-200.000	-0.025	0.117
-373.829	800.000	0.073	0.240
-372.815	800.000	-0.059	0.235
-371.800	98.500	0.147	0.169
-370.785	-200.000	0.012	-0.055
-369.771	-200.000	0.000	-0.123
-368.756	-200.000	-0.050	-0.239
-367.742	-57.520	-0.201	-0.088
-366.727	2.354	-0.226	0.163
-365.712	-200.000	0.002	-0.140
-364.698	-200.000	0.016	0.172
-363.683	-114.623	0.055	-0.011
-362.669	-200.000	0.037	0.189
-361.654	800.000	0.028	0.090
-360.639	268.445	0.062	0.109
-359.625	-122.714	0.397	0.064
-358.610	-200.000	-0.000	0.237
-357.596	20.308	-0.104	-0.083
-356.581	78.167	-0.173	-0.183
-355.566	-11.340	0.125	-0.082
-354.552	13.848	-0.034	0.026
-353.537	-64.991	0.181	0.073
-352.523	-200.000	0.065	-0.363
-351.508	-15.374	0.201	0.128
-350.493	8.224	0.116	0.087
-349.479	528.487	-0.082	0.194
-348.464	-128.774	-0.161	0.023
-347.450	-69.528	0.405	-0.154
-346.435	9.266	0.168	0.126
-345.420	302.959	0.137	-0.252
-344.406	-114.603	-0.156	0.030
-343.391	-143.005	0.303	0.029
-342.377	-54.656	0.242	0.109
-341.362	-112.634	0.052	-0.010
-340.348	-12.430	0.169	0.110
-339.333	-115.747	0.214	0.040
-338.318	-46.719	0.345	-0.168
-337.304	89.192	0.052	0.058
-336.289	115.979	0.109	0.133
-335.275	8.504	-0.200	-0.150
-334.260	-130.392	-0.218	-0.029
-333.245	103.112	-0.219	0.255
-332.231	-127.563	-0.046	-0.007
-331.216	117.250	0.166	0.203
-330.202	-0.954	-0.214	-0.151
-329.187	-20.479	0.329	0.201
-328.172	-200.000	0.030	-0.237
-327.158	-56.815	0.274	-0.120
-326.143	-200.000	0.001	-0.159
-325.129	103.816	0.079	0.092
-324.114	35.119	0.465	0.405
-323.099	-29.456	-0.129	0.073
-322.085	3.817	-0.038	0.027
-321.070	555.685	0.035	-0.083
-320.056	-21.668	-0.355	0.215
-319.041	800.000	0.097	0.298
-318.026	-34.071	0.156	-0.085
-317.012	-129.003	0.175	0.024
-315.997	-67.557	-0.068	-0.027
-314.983	133.786	-0.289	-0.372
-313.968	12.242	-0.102	0.078
-312.953	79.374	-0.074	0.078
-311.939	-200.000	0.006	0.407
-310.924	-118.921	0.083	-0.014
-309.910	-200.000	-0.037	0.230
-308.895	-34.609	-0.121	0.066
-307.880	-55.065	-0.411	0.184
-306.866	38.292	0.259	0.229
-305.851	-68.428	0.196	0.075
-304.837	-46.135	-0.210	-0.103
-303.822	321.298	-0.081	-0.153
-302.807	91.283	0.089	0.099
-301.793	800.000	0.051	0.217
-300.778	370.866	0.106	-0.214
-299.764	-200.000	-0.089	-0.567
-298.749	62.470	0.101	-0.100
-297.735	54.856	0.217	-0.208
-296.720	-80.634	-0.036	0.012
-295.705	228.444	0.122	0.197
-294.691	800.000	0.035	-0.131
-293.676	128.939	0.234	-0.297
-292.662	276.469	0.109	-0.193
-291.647	-200.000	0.065	0.436
-290.632	-119.374	0.237	-0.041
-289.618	-93.191	0.374	0.103
-288.603	517.667	-0.034	-0.079
-287.589	800.000	0.017	0.070
-286.574	-28.656	0.049	-0.028
-285.559	585.397	0.103	0.251
-284.545	357.508	0.153	0.303
-283.530	-184.895	-0.135	-0.002
-282.516	12.257	0.410	0.313
-281.501	44.110	-0.105	0.095
-280.486	-13.527	0.083	-0.053
-279.472	564.267	0.133	-0.320
-278.457	-22.494	-0.078	-0.047
-277.443	800.000	-0.053	-0.183
-276.428	-76.752	-0.271	-0.094
-275.413	31.029	0.103	-0.088
-274.399	-152.939	-0.061	0.004
-273.384	-200.000	0.014	0.171
-272.370	-24.683	-0.199	0.117
-271.355	-200.000	-0.005	-0.064
-270.340	800.000	0.099	-0.393
-269.326	-200.000	-0.012	-0.284
-268.311	800.000	0.081	-0.341
-267.297	-39.457	-0.307	0.160
-266.282	36.303	-0.191	-0.167
-265.267	-47.767	0.244	-0.117
-264.253	-200.000	0.044	0.193
-263.238	49.281	0.056	-0.053
-262.224	241.384	-0.139	-0.230
-261.209	-200.000	0.049	-0.268
-260.195	149.052	-0.347	0.465
-259.180	15.213	-0.147	-0.114
-258.165	-106.650	-0.273	0.060
-257.151	-200.000	-0.020	0.193
-256.136	52.118	-0.135	-0.127
-255.122	395.668	0.055	-0.114
-254.107	616.885	-0.001	0.002
-253.092	-26.436	-0.270	-0.157
-252.078	-64.352	0.078	-0.032
-251.063	-200.000	-0.009	0.109
-250.049	-86.284	-0.068	-0.021
-249.034	-24.520	0.279	0.165
-248.019	-149.310	-0.243	-0.019
-247.005	369.285	0.048	0.096
-245.990	-92.696	-0.126	-0.035
-244.976	68.338	0.110	-0.111
-243.961	-55.200	-0.302	0.135
-242.946	800.000	-0.127	-0.356
-241.932	3.954	0.146	-0.106
-240.917	-200.000	0.024	-0.183
-239.903	-200.000	-0.014	0.125
-238.888	-200.000	0.060	0.289
-237.873	-84.040	-0.168	0.053
-236.859	225.443	-0.065	-0.104
-235.844	745.219	-0.070	0.185
-234.830	-62.547	0.075	0.031
-233.815	-6.298	0.143	0.097
-232.800	800.000	-0.028	-0.122
-231.786	231.633	-0.036	-0.058
-230.771	800.000	-0.057	0.195
-229.757	-49.179	0.202	0.095
-228.742	-64.502	-0.083	0.034
-227.727	148.562	0.150	0.201
-226.713	800.000	0.047	0.168
-225.698	-76.008	-0.097	0.034
-224.684	-92.196	0.233	-0.065
-223.669	201.082	0.152	-0.231
-222.655	-53.717	0.317	0.143
-221.640	-74.175	0.168	0.060
-220.625	100.548	-0.189	0.217
-219.611	331.587	-0.090	0.172
-218.596	-105.374	0.372	-0.084
-217.582	-145.182	-0.425	-0.038
-216.567	-164.313	0.128	-0.006
-215.552	-42.148	0.191	0.096
-214.538	74.557	0.108	0.113
-213.523	10.137	-0.094	0.071
-212.509	-64.421	-0.260	-0.105
-211.494	-52.407	0.265	0.122
-210.479	800.000	0.080	-0.239
-209.465	800.000	-0.108	-0.313
-208.450	-200.000	-0.007	0.086
-207.436	800.000	-0.070	0.210
-206.421	-200.000	-0.062	0.269
-205.406	68.085	0.322	-0.326
-204.392	-78.871	0.292	0.099
-203.377	800.000	0.030	-0.100
-202.363	-3.539	-0.221	-0.152
-201.348	60.727	-0.284	-0.278
-200.333	-70.961	0.158	-0.059
-199.319	800.000	-0.019	-0.064
-198.304	58.550	-0.112	-0.108
-197.290	-200.000	-0.007	0.072
-196.275	800.000	0.045	-0.128
-195.260	21.112	-0.091	-0.073
-194.246	458.119	0.101	-0.223
-193.231	95.039	-0.201	0.226
-192.217	-200.000	-0.014	0.247
-191.202	800.000	-0.047	0.185
-190.187	800.000	0.074	0.224
-189.173	-78.304	0.090	-0.031
-188.158	241.321	-0.118	-0.195
-187.144	-200.000	0.013	-0.180
-186.129	-113.149	-0.160	0.031
-185.114	-30.258	-0.198	-0.111
-184.100	-4.339	0.145	0.099
-183.085	1.672	-0.139	-0.099
-182.071	800.000	-0.020	-0.069
-181.056	-3.028	0.219	0.151
-180.042	409.138	0.134	0.281
-179.027	-74.829	0.138	0.049
-178.012	-109.471	-0.209	0.044
-176.998	-92.435	0.197	-0.055
-175.983	-153.132	0.100	0.007
-174.969	44.291	0.066	-0.060
-173.954	-124.514	0.304	0.047
-172.939	250.075	0.275	0.461
-171.925	-69.361	0.571	0.217
-170.910	-58.096	-0.321	-0.138
-169.896	-109.028	0.210	-0.044
-168.881	-113.895	0.127	-0.024
-167.866	-52.613	0.169	-0.077
-166.852	33.429	0.032	0.028
-165.837	-170.513	-0.215	0.007
-164.823	-200.000	-0.012	-0.119
-163.808	-100.572	-0.170	-0.041
-162.793	-32.046	-0.189	0.104
-161.779	340.477	0.132	0.255
-160.764	-130.118	-0.285	-0.038
-159.750	14.665	0.269	0.208
-158.735	-173.874	0.238	0.007
-157.720	-200.000	0.001	-0.048
-156.706	-200.000	0.026	-0.332
-155.691	121.673	-0.227	0.280
-154.677	800.000	0.044	-0.134
-153.662	-95.424	0.166	-0.044
-152.647	-200.000	-0.026	-0.162
-151.633	-200.000	-0.068	-0.345
-150.618	462.852	-0.112	-0.248
-149.604	800.000	-0.151	-0.525
-148.589	243.662	0.099	0.163
-147.574	88.063	-0.235	0.258
-146.560	66.846	0.090	0.091
-145.545	131.395	0.165	0.209
-144.531	-118.807	-0.396	0.069
-143.516	-33.741	-0.155	0.084
-142.502	-200.000	0.005	-0.071
-141.487	606.434	-0.094	-0.232
-140.472	33.362	0.318	-0.272
-139.458	144.182	-0.073	-0.096
-138.443	-200.000	-0.026	-0.178
-137.429	24.523	-0.097	0.079
-136.414	543.448	-0.063	-0.149
-135.399	183.581	0.105	-0.153
-134.385	18.374	-0.115	-0.091
-133.370	-149.806	0.167	-0.013
-132.356	800.000	0.113	-0.344
-131.341	4.497	0.113	0.082
-130.326	-159.191	0.309	0.017
-129.312	113.529	-0.211	-0.253
-128.297	-127.124	0.244	-0.035
-127.283	-200.000	0.043	-0.400
-126.268	100.320	-0.149	-0.170
-125.253	127.051	0.264	-0.330
-124.239	-200.000	0.024	0.396
-123.224	-200.000	-0.021	-0.187
-122.210	-43.693	-0.275	-0.136
-121.195	-200.000	0.040	0.244
-120.180	800.000	-0.053	-0.193
-119.166	403.664	0.130	-0.271
-118.151	47.009	0.259	-0.237
-117.137	-200.000	-0.063	-0.303
-116.122	800.000	-0.146	-0.413
-115.107	104.314	0.288	0.334
-114.093	-200.000	0.032	0.174
-113.078	-48.129	-0.195	-0.093
-112.064	6.912	-0.150	0.110
-111.049	-200.000	0.079	0.379
-110.034	-54.417	-0.007	-0.003
-109.020	-200.000	-0.030	-0.217
-108.005	78.734	-0.282	-0.297
-106.991	-141.184	0.189	-0.019
-105.976	-98.460	-0.183	-0.046
-104.962	-187.993	0.148	0.002
-103.947	91.134	-0.198	0.219
-102.932	7.204	0.174	0.128
-101.918	800.000	0.055	0.184
-100.903	40.192	-0.107	0.095
-99.889	245.622	-0.104	0.173
-98.874	247.930	-0.202	0.336
-97.859	-200.000	0.047	0.267
-96.845	800.000	-0.027	0.075
-95.830	-27.257	-0.392	-0.225
-94.816	-118.424	-0.099	0.017
-93.801	34.946	0.103	0.089
-92.786	800.000	-0.025	-0.104
-91.772	128.150	0.183	-0.229
-90.757	800.000	0.051	-0.176
-89.743	-61.410	0.152	-0.063
-88.728	-73.471	0.302	-0.108
-87.713	23.230	-0.115	0.093
-86.699	249.357	0.188	0.314
-85.684	800.000	-0.047	0.139
-84.670	78.336	-0.157	0.165
-83.655	234.648	0.067	0.109
-82.640	359.577	-0.121	-0.238
-81.626	-200.000	0.026	-0.176
-80.611	-62.755	-0.274	0.112
-79.597	-18.794	-0.220	-0.135
-78.582	145.074	-0.023	-0.030
-77.567	-200.000	-0.022	-0.361
-76.553	-123.576	-0.102	0.016
-75.538	136.842	-0.135	-0.174
-74.524	428.503	0.066	-0.141
-73.509	800.000	-0.077	-0.299
-72.494	375.040	0.047	0.095
-71.480	-99.310	-0.188	-0.047
-70.465	800.000	-0.151	0.425
-69.451	-65.912	-0.114	-0.045
-68.436	238.981	-0.130	-0.213
-67.422	85.590	0.172	0.186
-66.407	26.511	-0.033	-0.028
-65.392	-181.270	-0.082	0.002
-64.378	-200.000	-0.031	0.157
-63.363	782.773	-0.140	0.378
-62.349	39.085	0.156	-0.138
-61.334	116.115	-0.858	-1.034
-60.319	613.444	0.270	0.666
-59.305	588.263	-0.321	-0.777
-58.290	800.000	0.445	1.294
-57.276	800.000	0.672	1.945
-56.261	-200.000	95.575	596.668
-55.246	574.510	1363.493	3272.625
-54.232	162.999	2538.401	3506.815
-53.217	114.080	2135.305	2554.902
-52.203	44.175	1599.935	1443.438
-51.188	35.778	1338.127	1156.957
-50.173	32.453	1296.959	1101.891
-49.159	54.707	1343.828	1274.687
-48.144	57.012	1360.532	1304.191
-47.130	35.948	1319.744	1141.890
-46.115	32.209	1302.381	1104.886
-45.100	32.231	1296.988	1100.395
-44.086	32.164	1294.653	1097.979
-43.071	32.000	1292.222	1094.916
-42.057	32.057	1290.288	1093.570
-41.042	32.137	1288.489	1092.463
-40.027	32.170	1287.043	1091.386
-39.013	32.075	1284.939	1089.009
-37.998	32.079	1283.148	1087.472
-36.984	32.105	1281.877	1086.502
-35.969	32.124	1280.124	1085.080
-34.954	32.192	1278.358	1083.934
-33.940	32.203	1277.093	1082.883
-32.925	32.318	1275.385	1082.051
-31.911	32.170	1274.300	1080.241
-30.896	32.225	1272.481	1078.972
-29.881	32.368	1270.882	1078.388
-28.867	32.300	1270.027	1077.235
-27.852	32.249	1268.708	1075.782
-26.838	32.278	1267.146	1074.577
-25.823	32.310	1265.399	1073.240
-24.809	32.260	1264.217	1071.905
-23.794	32.102	1263.689	1070.515
-22.779	32.233	1261.789	1069.607
-21.765	32.231	1260.877	1068.779
-20.750	32.193	1259.276	1067.170
-19.736	32.177	1257.620	1065.629
-18.721	32.174	1256.431	1064.563
-17.706	32.110	1255.212	1063.127
-16.692	32.046	1254.119	1061.799
-15.677	32.055	1253.467	1061.251
-14.663	32.198	1251.816	1060.621
-13.648	32.113	1250.891	1059.313
-12.633	32.060	1250.278	1058.456
-11.619	32.071	1249.711	1057.995
-10.604	32.279	1248.239	1057.875
-9.590	32.147	1247.468	1056.440
-8.575	32.047	1246.530	1055.043
-7.560	32.052	1245.950	1054.540
-6.546	31.892	1245.220	1052.981
-5.531	32.107	1243.717	1052.870
-4.517	32.087	1242.910	1052.034
-3.502	32.137	1242.516	1051.937
-2.487	32.125	1241.008	1050.553
-1.473	31.944	1237.364	1046.421
-0.458	30.615	1222.488	1026.469
0.556	27.965	1205.529	990.837
1.571	24.430	1211.447	976.315
2.586	23.641	1226.794	984.223
3.600	23.217	1215.947	973.104
4.615	17.193	1143.369	883.701
5.629	6.918	1066.996	774.481
6.644	2.543	1046.349	738.375
7.659	2.167	1043.616	734.570
8.673	2.007	1042.717	733.105
9.688	1.855	1041.395	731.383
10.702	2.503	1039.767	733.279
11.717	9.048	1049.033	771.287
12.731	19.206	1062.935	830.671
13.746	24.304	1069.363	860.283
14.761	25.439	1070.597	866.678
15.775	25.531	1070.384	866.872
16.790	25.207	1069.307	864.365
17.804	25.166	1068.779	863.664
18.819	25.279	1068.565	863.959
19.834	25.329	1067.821	863.519
20.848	25.408	1067.721	863.741
21.863	25.384	1067.336	863.241
22.877	25.335	1066.514	862.261
23.892	25.330	1065.504	861.344
24.907	25.479	1064.818	861.431
25.921	25.545	1063.970	860.983
26.936	25.395	1062.745	859.199
27.950	25.376	1061.117	857.715
28.965	25.188	1059.433	855.382
29.980	25.279	1057.967	854.556
30.994	25.530	1057.193	855.050
32.009	25.540	1055.642	853.768
33.023	25.263	1054.378	851.357
34.038	25.321	1053.778	851.070
35.053	25.507	1052.958	851.214
36.067	25.496	1052.569	850.771
37.082	25.494	1051.793	850.058
38.096	25.775	1050.808	850.516
39.111	25.881	1050.115	850.379
40.126	25.532	1049.152	847.879
41.140	25.219	1047.082	844.657
42.155	25.117	1045.702	842.991
43.169	25.122	1044.991	842.367
44.184	25.017	1044.400	841.324
45.199	25.018	1043.095	840.200
46.213	25.190	1042.152	840.174
47.228	25.211	1041.649	839.794
48.242	25.224	1041.130	839.360
49.257	25.364	1040.129	839.132
50.271	25.320	1039.561	838.394
51.286	25.517	1038.423	838.319
52.301	25.681	1037.228	838.046
53.315	25.406	1036.695	836.262
54.330	25.460	1035.539	835.507
55.344	25.478	1034.943	835.035
56.359	25.267	1034.311	833.469
57.374	25.159	1033.441	832.195
58.388	25.166	1032.529	831.421
59.403	25.053	1031.826	830.255
60.417	25.060	1030.570	829.206
61.432	24.997	1029.863	828.270
62.447	25.177	1029.855	829.023
63.461	25.173	1029.069	828.300
64.476	25.098	1027.722	826.796
65.490	25.037	1026.861	825.749
66.505	25.062	1026.346	825.379
67.520	25.098	1026.072	825.249
68.534	24.986	1024.530	823.423
69.549	24.724	1023.482	821.301
70.563	24.584	1022.833	820.066
71.578	24.647	1022.310	819.866
72.593	24.560	1021.081	818.406
73.607	24.623	1020.909	818.487
74.622	24.821	1020.770	819.211
75.636	24.929	1020.137	819.123
76.651	24.935	1018.688	817.913
77.666	24.846	1017.946	816.837
78.680	24.900	1017.653	816.779
79.695	24.947	1016.922	816.332
80.709	24.986	1016.040	815.730
81.724	25.050	1015.497	815.513
82.739	25.101	1014.759	815.082
83.753	25.446	1014.353	816.248
84.768	25.613	1013.534	816.279
85.782	25.807	1013.013	816.664
86.797	25.768	1011.687	815.347
87.812	25.642	1010.388	813.656
88.826	25.665	1009.655	813.101
89.841	25.736	1008.892	812.735
90.855	25.725	1007.934	811.842
91.870	25.684	1006.800	810.670
92.884	25.532	1005.968	809.243
93.899	25.504	1004.949	808.228
94.914	25.649	1004.576	808.510
95.928	25.492	1002.883	806.370
96.943	25.300	1001.821	804.583
97.957	25.050	1000.570	802.388
98.972	24.998	999.860	801.518
99.987	25.059	999.414	801.358
101.001	25.391	998.397	801.955
102.016	25.443	997.399	801.316
103.030	25.232	996.626	799.685
104.045	25.170	995.734	798.619
105.060	24.975	995.008	797.100
106.074	25.086	994.405	797.041
107.089	25.398	993.599	797.708
108.103	25.453	992.066	796.655
109.118	25.278	990.631	794.657
110.133	25.199	990.075	793.787
111.147	24.885	989.157	791.592
112.162	24.848	988.067	790.490
113.176	25.088	987.542	791.059
114.191	24.935	987.081	789.945
115.206	24.729	985.483	787.688
116.220	24.707	985.256	787.342
117.235	24.897	983.921	787.041
118.249	24.671	983.741	785.832
119.264	24.753	982.543	785.165
120.279	24.826	981.704	784.744
121.293	24.805	981.074	784.081
122.308	24.818	980.530	783.631
123.322	24.703	979.255	782.042
124.337	24.753	977.677	780.929
125.352	24.132	976.446	777.170
126.366	24.193	975.598	776.691
127.381	24.925	975.544	779.768
128.395	25.487	974.823	781.569
129.410	25.540	974.032	781.094
130.424	25.369	973.351	779.738
131.439	25.427	971.833	778.705
132.454	25.357	971.170	777.799
133.468	25.285	970.160	776.612
134.483	25.276	969.510	775.983
135.497	25.625	968.993	777.011
136.512	25.609	967.791	775.906
137.527	25.538	967.411	775.227
138.541	25.624	966.249	774.598
139.556	25.609	966.082	774.331
140.570	25.674	965.347	773.954
141.585	25.708	963.879	772.856
142.600	25.549	963.104	771.484
143.614	25.859	962.293	772.092
144.629	25.917	961.564	771.687
145.643	25.714	960.252	769.699
146.658	25.725	958.679	768.417
147.673	25.524	957.572	766.605
148.687	25.383	956.914	765.409
149.702	25.335	956.058	764.451
150.716	25.234	955.175	763.248
151.731	25.421	954.602	763.520
152.746	25.746	954.023	764.369
153.760	25.854	953.220	764.116
154.775	25.936	952.392	763.731
155.789	25.659	952.074	762.234
156.804	25.628	951.236	761.365
157.819	25.854	950.163	761.394
158.833	26.032	949.667	761.684
159.848	25.800	948.923	760.037
160.862	25.676	947.405	758.232
161.877	25.644	946.652	757.430
162.892	25.795	945.600	757.157
163.906	25.779	944.465	756.114
164.921	25.743	943.693	755.275
165.935	25.923	942.473	754.988
166.950	25.817	941.769	753.913
167.964	25.709	941.285	753.005
168.979	25.572	940.279	751.563
169.994	25.590	938.690	750.300
171.008	25.855	938.417	751.121
172.023	25.778	937.652	750.120
173.037	25.614	936.593	748.525
174.052	25.420	935.657	746.906
175.067	25.509	935.205	746.848
176.081	25.630	934.482	746.709
177.096	25.408	934.009	745.340
178.110	25.304	932.676	743.781
179.125	25.034	932.281	742.284
180.140	25.096	931.840	742.122
181.154	25.278	931.810	742.785
182.169	25.449	931.911	743.507
183.183	25.852	931.103	744.463
184.198	25.780	929.914	743.149
185.213	25.739	929.512	742.594
186.227	25.808	928.491	741.995
187.242	25.815	928.014	741.580
188.256	25.928	927.070	741.225
189.271	25.979	926.959	741.279
190.286	25.582	925.547	738.452
191.300	24.954	924.098	734.656
192.315	24.181	922.628	730.259
193.329	24.253	921.965	729.961
194.344	25.052	922.706	733.757
195.359	25.749	922.034	736.009
196.373	25.840	922.076	736.350
197.388	25.695	921.228	735.015
198.402	25.642	920.798	734.388
199.417	25.682	919.989	733.844
200.432	25.359	919.373	731.971
201.446	25.331	918.523	731.114
202.461	25.342	917.898	730.598
203.475	24.481	915.859	725.413
204.490	23.678	914.763	721.221
205.504	24.557	915.492	725.303
206.519	25.197	915.132	727.549
207.534	25.303	914.682	727.557
208.548	25.670	914.381	728.738
209.563	25.496	913.587	727.339
210.577	25.492	912.829	726.655
211.592	25.883	912.851	728.189
212.607	25.925	911.583	727.283
213.621	25.865	911.220	726.687
214.636	25.944	910.254	726.169
215.650	25.811	909.552	725.008
216.665	25.996	909.132	725.354
217.680	25.804	908.220	723.792
218.694	25.359	907.436	721.315
219.709	25.207	906.953	720.259
220.723	25.584	906.362	721.238
221.738	25.626	906.022	721.071
222.753	25.564	905.188	720.096
223.767	25.628	905.309	720.383
224.782	25.891	904.967	721.100
225.796	25.968	904.129	720.677
226.811	25.258	902.461	716.449
227.826	24.554	901.503	712.818
228.840	24.944	900.415	713.449
229.855	24.819	899.810	712.409
230.869	24.696	898.375	710.720
231.884	25.055	898.544	712.220
232.899	25.678	898.914	714.923
233.913	25.576	897.780	713.556
234.928	25.648	897.268	713.371
235.942	25.559	897.041	712.772
236.957	25.282	895.740	710.581
237.972	25.156	895.715	710.000
238.986	25.404	895.013	710.362
240.001	25.238	894.372	709.132
241.015	25.401	894.018	709.434
242.030	25.508	893.666	709.515
243.045	25.641	892.995	709.444
244.059	25.771	892.713	709.668
245.074	25.639	891.685	708.268
246.088	25.395	890.723	706.480
247.103	25.475	890.553	706.601
248.117	26.040	890.735	708.900
249.132	26.425	890.277	709.987
250.147	26.396	889.952	709.549
251.161	26.698	889.333	710.179
252.176	26.599	888.562	709.111
253.190	26.568	888.285	708.705
254.205	26.843	887.695	709.249
255.220	26.716	887.075	708.195
256.234	26.398	886.520	706.448
257.249	26.464	885.341	705.704
258.263	26.404	885.216	705.305
259.278	26.428	884.401	704.688
260.293	26.619	883.651	704.771
261.307	26.519	883.057	703.846
262.322	26.365	882.404	702.666
263.336	25.551	880.215	697.705
264.351	24.569	878.614	692.567
265.366	24.728	878.483	693.019
266.380	25.795	879.031	697.522
267.395	26.077	878.872	698.429
268.409	26.134	877.766	697.709
269.424	26.297	877.471	698.041
270.439	26.330	876.802	697.576
271.453	26.483	876.328	697.726
272.468	26.541	876.165	697.760
273.482	26.542	875.431	697.114
274.497	26.043	874.736	694.579
275.512	26.000	873.211	693.142
276.526	26.311	873.481	694.489
277.541	26.463	873.195	694.787
278.555	26.335	872.141	693.395
279.570	26.115	871.198	691.740
280.585	26.217	871.019	691.928
281.599	26.330	869.683	691.237
282.614	25.604	868.669	687.596
283.628	25.615	868.617	687.535
284.643	26.025	868.014	688.563
285.657	25.635	866.874	686.112
286.672	25.437	865.998	684.601
287.687	25.927	865.788	686.243
288.701	25.990	865.459	686.160
289.716	25.678	864.384	684.062
290.730	25.646	864.136	683.683
291.745	25.275	862.910	681.245
292.760	25.659	863.458	683.074
293.774	26.645	863.587	686.857
294.789	27.070	863.108	688.027
295.803	26.846	862.912	686.961
296.818	26.938	861.991	686.517
297.833	26.414	860.453	683.252
298.847	26.435	860.325	683.167
299.862	26.761	860.139	684.189
300.876	27.061	859.644	684.868
301.891	26.732	859.155	683.177
302.906	26.464	857.875	681.089
303.920	26.560	857.851	681.373
304.935	26.859	857.813	682.406
305.949	26.777	856.929	681.333
306.964	26.500	856.092	679.568
307.979	26.815	855.488	680.211
308.993	27.046	855.536	681.054
310.008	27.087	854.897	680.641
311.022	26.687	853.916	678.301
312.037	26.564	853.543	677.484
313.052	26.335	852.570	675.798
314.066	25.417	850.891	670.978
315.081	25.190	850.064	669.421
316.095	25.953	850.849	672.829
317.110	26.581	850.664	674.966
318.125	25.692	848.805	670.122
319.139	24.705	847.246	665.161
320.154	24.722	847.212	665.140
321.168	25.397	847.880	668.115
322.183	26.318	847.484	671.168
323.197	26.334	847.338	671.052
324.212	26.722	846.705	671.931
325.227	26.733	846.249	671.550
326.241	26.692	845.290	670.577
327.256	26.503	845.064	669.638
328.270	26.396	844.163	668.471
329.285	26.192	843.497	667.131
330.300	25.932	842.859	665.606
331.314	26.276	842.426	666.474
332.329	26.573	842.770	667.784
333.343	26.847	842.274	668.342
334.358	26.849	841.586	667.744
335.373	26.974	841.266	667.891
336.387	27.045	841.322	668.138
337.402	27.352	840.918	668.886
338.416	27.053	841.013	667.803
339.431	27.288	840.905	668.522
340.446	27.542	839.886	668.586
341.460	27.316	839.435	667.340
342.475	27.122	839.076	666.282
343.489	27.142	839.179	666.380
344.504	27.363	838.343	666.466
345.519	27.696	838.013	667.361
346.533	27.623	837.760	666.835
347.548	27.577	837.387	666.312
348.562	27.586	836.534	665.605
349.577	27.340	836.121	664.321
350.592	27.446	835.403	664.080
351.606	27.459	834.872	663.645
352.621	27.277	833.997	662.227
353.635	27.260	833.189	661.467
354.650	26.634	831.370	657.689
355.665	25.784	829.764	653.280
356.679	26.155	829.866	654.648
357.694	26.642	829.300	655.906
358.708	26.434	829.048	654.898
359.723	26.946	828.876	656.557
360.738	27.157	828.594	657.038
361.752	27.481	827.869	657.573
362.767	27.649	827.855	658.113
363.781	27.825	827.693	658.560
364.796	27.895	826.962	658.171
365.810	28.087	826.570	658.494
366.825	27.980	826.118	657.691
367.840	27.683	825.422	656.011
368.854	27.179	824.471	653.384
369.869	27.358	823.743	653.391
370.883	27.378	823.552	653.255
371.898	27.412	822.972	652.858
372.913	27.307	822.840	652.319
373.927	27.396	822.680	652.456
374.942	27.598	822.371	652.877
375.956	27.744	821.543	652.683
376.971	27.708	821.201	652.223
377.986	27.880	821.138	652.732
379.000	27.838	820.494	652.010
380.015	27.735	819.706	650.961
381.029	27.806	819.067	650.648
382.044	27.973	818.848	651.012
383.059	27.852	818.107	649.933
384.073	27.937	817.678	649.840
385.088	27.704	817.267	648.627
386.102	27.762	816.043	647.802
387.117	27.664	815.507	646.973
388.132	27.247	814.433	644.587
389.146	26.790	813.398	642.090
390.161	27.178	813.951	643.845
391.175	27.725	813.124	645.071
392.190	27.248	812.405	642.757
393.205	25.881	810.231	636.157
394.219	24.419	808.581	629.650
395.234	24.383	808.139	629.124
396.248	25.966	809.635	635.820
397.263	27.511	810.363	641.783
398.278	27.337	810.478	641.204
399.292	27.154	809.690	639.881
400.307	27.214	808.873	639.388
401.321	27.330	808.528	639.468
402.336	27.729	808.584	640.857
403.350	28.047	808.787	642.079
404.365	28.366	808.200	642.675
405.380	28.659	808.060	643.535
406.394	28.726	807.287	643.098
407.409	28.550	806.898	642.112
408.423	28.635	806.465	642.010
409.438	28.663	805.926	641.619
410.453	28.759	805.694	641.717
411.467	28.628	805.388	640.956
412.482	28.608	804.978	640.503
413.496	28.779	804.455	640.629
414.511	28.765	804.138	640.271
415.526	28.748	803.748	639.843
416.540	28.614	802.822	638.584
417.555	28.440	801.878	637.171
418.569	28.294	802.053	636.746
419.584	28.319	801.158	636.065
420.599	28.070	800.723	634.801
421.613	111.790	1286.119	1458.807
422.628	96.491	1356.832	1458.927
