DTS Sentinel unit serial number:	SN413079Multiplexer serial number:	ORYXHardware model number:	OX4-SRSoftware version number:	ORYX F/W v4.00 Oryx Data Collector v3.7.2.0data status	okinstallation	princeton_trtdifferential loss correction	single-endedforward channel	channel 1reverse channel	N/Adate	2019/09/14time	04:02:35forward acquisition time	60.00reverse acquisition time	0.00gamma	496.2192k internal	0.2335k external	0.2335temperature offset calibration	1.0075default loss term (dB/km)	0.3790temperature slope calibration	1.0000multiplexer offset coefficient	1.0000multiplexer slope coefficient	1.0000fibre end	0.00T internal ref (°C)	26.69T ext. ref 1 (°C)	3.32T ext. ref 2 (°C)	21.78length (m)	temperature (°C)	Stokes	anti-Stokes-747.200	800.000	0.110	0.416
-746.185	-63.704	0.149	-0.061
-745.171	-33.014	-0.278	0.155
-744.156	-92.986	-0.270	0.076
-743.142	-94.255	-0.081	-0.022
-742.127	-200.000	0.039	0.290
-741.112	136.822	-0.083	0.108
-740.098	-87.353	0.186	-0.057
-739.083	-15.881	0.062	0.040
-738.069	101.980	-0.166	0.195
-737.054	145.153	-0.147	0.198
-736.039	37.708	-0.180	-0.160
-735.025	-200.000	-0.001	0.508
-734.010	-136.916	-0.480	-0.055
-732.996	-58.777	0.117	0.051
-731.981	-78.010	0.129	0.045
-730.966	35.411	-0.191	0.168
-729.952	454.387	-0.070	0.156
-728.937	-108.446	-0.322	-0.070
-727.923	-31.109	0.507	0.287
-726.908	-22.155	0.113	0.069
-725.894	800.000	-0.050	0.212
-724.879	181.422	-0.108	-0.160
-723.864	147.391	0.134	-0.181
-722.850	522.079	-0.141	-0.332
-721.835	114.791	-0.119	-0.146
-720.821	28.315	-0.224	0.190
-719.806	-87.677	0.114	0.034
-718.791	-150.950	-0.179	-0.014
-717.777	800.000	0.019	-0.085
-716.762	-63.470	0.272	0.112
-715.748	59.971	-0.156	0.155
-714.733	58.396	-0.029	0.028
-713.718	156.238	-0.093	-0.128
-712.704	-200.000	-0.016	0.096
-711.689	709.892	0.149	-0.396
-710.675	-200.000	-0.040	-0.380
-709.660	-200.000	0.017	-0.124
-708.645	-36.226	-0.366	0.198
-707.631	-107.643	-0.456	0.100
-706.616	313.886	0.157	-0.296
-705.602	-46.409	-0.294	0.145
-704.587	-149.588	0.383	0.030
-703.572	-54.801	0.211	0.096
-702.558	800.000	0.008	-0.029
-701.543	52.883	-0.154	-0.147
-700.529	38.121	-0.138	-0.123
-699.514	-200.000	0.042	-0.208
-698.499	-107.171	0.095	0.021
-697.485	49.097	-0.336	0.317
-696.470	-112.475	-0.061	0.012
-695.456	28.805	-0.158	0.134
-694.441	-200.000	-0.010	0.055
-693.426	370.448	0.166	0.337
-692.412	800.000	0.035	0.144
-691.397	405.852	-0.086	0.182
-690.383	-200.000	-0.206	0.001
-689.368	559.558	-0.112	0.272
-688.354	461.192	-0.047	0.105
-687.339	-1.694	-0.045	-0.032
-686.324	-65.021	0.122	-0.049
-685.310	800.000	-0.064	-0.272
-684.295	-60.456	0.089	-0.038
-683.281	-173.390	-0.235	0.007
-682.266	-89.357	0.369	-0.109
-681.251	-65.765	0.189	0.076
-680.237	-149.326	-0.131	-0.010
-679.222	800.000	-0.054	-0.206
-678.208	58.404	-0.138	-0.136
-677.193	-107.856	0.018	-0.004
-676.178	64.519	-0.240	-0.243
-675.164	-116.396	0.219	-0.041
-674.149	-200.000	-0.015	-0.376
-673.135	-200.000	0.004	-0.042
-672.120	-91.143	-0.316	-0.091
-671.105	94.749	-0.089	-0.102
-670.091	800.000	-0.032	-0.092
-669.076	674.710	-0.110	0.286
-668.062	-98.869	-0.081	-0.021
-667.047	197.128	-0.079	-0.121
-666.032	4.318	0.237	0.174
-665.018	-200.000	-0.037	-0.293
-664.003	-200.000	0.015	-0.261
-662.989	69.570	-0.216	-0.223
-661.974	15.706	0.006	0.005
-660.959	183.478	-0.278	-0.412
-659.945	-88.356	-0.250	0.075
-658.930	290.359	-0.185	0.337
-657.916	-42.688	-0.210	-0.107
-656.901	-200.000	0.015	0.085
-655.886	21.173	0.108	0.088
-654.872	565.943	-0.096	0.232
-653.857	59.836	-0.090	0.089
-652.843	49.022	-0.075	-0.070
-651.828	-67.226	-0.496	-0.195
-650.814	-55.777	-0.320	-0.143
-649.799	-200.000	-0.007	0.073
-648.784	-54.772	0.299	0.135
-647.770	-25.306	0.161	0.095
-646.755	-200.000	-0.016	-0.159
-645.741	212.920	0.093	-0.147
-644.726	12.282	0.137	0.106
-643.711	-200.000	0.015	0.277
-642.697	-151.296	-0.095	0.007
-641.682	141.326	0.146	-0.194
-640.668	124.552	-0.155	0.195
-639.653	122.961	-0.116	0.145
-638.638	-34.035	0.200	-0.110
-637.624	87.460	-0.206	-0.228
-636.609	202.779	0.113	0.174
-635.595	800.000	0.097	-0.399
-634.580	392.281	0.117	-0.244
-633.565	578.664	-0.109	0.266
-632.551	-200.000	-0.026	-0.151
-631.536	218.861	0.109	-0.175
-630.522	-120.469	0.263	-0.045
-629.507	-45.240	-0.051	-0.025
-628.492	97.493	0.072	0.082
-627.478	-200.000	-0.006	0.176
-626.463	800.000	-0.011	-0.040
-625.449	2.328	-0.250	0.181
-624.434	-116.413	-0.417	0.077
-623.419	466.007	-0.158	-0.354
-622.405	28.399	-0.117	0.099
-621.390	-56.989	-0.199	0.088
-620.376	-2.107	-0.180	-0.127
-619.361	-130.882	-0.057	-0.008
-618.346	47.556	-0.062	-0.057
-617.332	-0.574	0.237	0.168
-616.317	-182.757	-0.222	0.004
-615.303	412.264	-0.111	-0.236
-614.288	-36.866	-0.147	0.079
-613.273	800.000	-0.061	-0.214
-612.259	-136.594	-0.106	-0.012
-611.244	13.571	-0.100	-0.078
-610.230	-27.672	0.263	-0.152
-609.215	-49.819	-0.112	-0.053
-608.201	374.109	0.078	-0.158
-607.186	328.017	-0.124	-0.237
-606.171	63.445	-0.289	-0.290
-605.157	-116.831	-0.173	0.032
-604.142	128.129	-0.166	-0.211
-603.128	-25.684	-0.299	0.176
-602.113	-130.665	-0.326	-0.044
-601.098	94.759	-0.079	0.090
-600.084	-186.611	0.294	0.004
-599.069	800.000	0.086	-0.298
-598.055	-119.627	-0.357	0.062
-597.040	140.240	-0.046	0.061
-596.025	84.392	-0.143	-0.156
-595.011	-3.025	-0.206	-0.143
-593.996	800.000	0.041	-0.127
-592.982	-89.976	-0.284	-0.083
-591.967	56.330	-0.136	-0.132
-590.952	-9.947	-0.262	-0.174
-589.938	-117.976	-0.254	0.045
-588.923	11.275	0.120	0.092
-587.909	-65.658	0.296	0.119
-586.894	800.000	0.073	0.264
-585.879	73.469	0.170	-0.178
-584.865	800.000	-0.011	0.045
-583.850	-52.655	0.040	0.018
-582.836	27.740	0.195	0.164
-581.821	62.086	-0.205	-0.204
-580.806	-173.118	0.157	0.005
-579.792	87.719	-0.069	-0.076
-578.777	-175.732	0.213	-0.006
-577.763	112.685	-0.200	-0.241
-576.748	-69.036	-0.125	0.048
-575.733	-200.000	0.034	0.375
-574.719	0.808	0.202	0.145
-573.704	330.452	-0.101	0.194
-572.690	800.000	0.015	-0.064
-571.675	-200.000	-0.078	-0.475
-570.661	93.104	0.202	-0.227
-569.646	-200.000	-0.007	-0.165
-568.631	-68.404	-0.237	-0.092
-567.617	-59.179	0.020	0.009
-566.602	43.509	-0.232	0.211
-565.588	800.000	-0.070	0.198
-564.573	508.247	-0.058	0.134
-563.558	-82.730	-0.313	0.101
-562.544	60.974	-0.100	-0.099
-561.529	71.051	0.310	-0.321
-560.515	-136.385	-0.255	0.030
-559.500	-200.000	0.004	-0.071
-558.485	42.085	0.316	-0.286
-557.471	-157.197	0.140	-0.008
-556.456	-200.000	0.023	-0.374
-555.442	17.856	0.213	0.169
-554.427	5.838	-0.315	0.233
-553.412	800.000	-0.073	0.200
-552.398	-165.890	-0.217	-0.009
-551.383	-200.000	0.017	0.087
-550.369	-90.123	-0.164	0.048
-549.354	229.716	-0.051	0.083
-548.339	-131.093	-0.480	0.064
-547.325	-200.000	0.064	-0.309
-546.310	-112.564	0.423	0.084
-545.296	284.835	0.067	-0.120
-544.281	-200.000	0.000	-0.191
-543.266	136.091	-0.093	0.120
-542.252	-79.845	0.344	0.115
-541.237	-151.488	-0.511	-0.038
-540.223	800.000	0.023	0.082
-539.208	60.519	0.264	-0.260
-538.193	-124.632	-0.176	0.027
-537.179	-193.977	-0.413	0.003
-536.164	-146.066	0.075	0.007
-535.150	-197.434	-0.192	0.001
-534.135	290.125	0.166	0.301
-533.121	-74.555	-0.246	0.088
-532.106	306.359	-0.035	0.065
-531.091	-200.000	0.035	-0.156
-530.077	800.000	-0.073	0.293
-529.062	-200.000	-0.039	-0.356
-528.048	-82.302	0.297	-0.096
-527.033	-200.000	0.037	-0.457
-526.018	294.230	-0.078	-0.142
-525.004	-187.590	-0.202	0.003
-523.989	-120.237	-0.356	0.061
-522.975	76.095	0.258	-0.272
-521.960	-56.696	0.335	0.148
-520.945	213.203	-0.082	0.129
-519.931	-87.401	-0.441	-0.133
-518.916	-108.154	0.144	-0.031
-517.902	75.769	0.070	0.074
-516.887	-19.770	-0.260	-0.160
-515.872	800.000	-0.042	0.129
-514.858	-86.918	-0.316	0.096
-513.843	5.081	0.184	-0.135
-512.829	-17.449	-0.173	-0.108
-511.814	69.128	0.082	-0.084
-510.799	800.000	-0.049	0.186
-509.785	238.994	-0.076	-0.126
-508.770	-142.862	-0.112	0.011
-507.756	800.000	-0.097	-0.285
-506.741	-153.626	-0.086	-0.006
-505.726	-180.548	0.436	0.009
-504.712	15.925	-0.195	-0.153
-503.697	800.000	-0.067	0.186
-502.683	-111.815	0.189	0.038
-501.668	103.502	0.182	0.212
-500.653	-200.000	-0.112	-0.575
-499.639	52.152	0.144	-0.137
-498.624	800.000	0.051	0.214
-497.610	10.972	0.049	-0.037
-496.595	-42.989	0.030	-0.015
-495.581	-200.000	-0.009	-0.113
-494.566	60.710	-0.193	0.190
-493.551	799.916	0.097	-0.267
-492.537	-98.502	0.457	-0.116
-491.522	138.434	0.048	0.063
-490.508	-200.000	0.028	-0.213
-489.493	525.698	0.068	0.160
-488.478	125.254	-0.068	0.086
-487.464	86.720	0.120	-0.132
-486.449	-86.925	-0.230	0.070
-485.435	-200.000	0.026	-0.130
-484.420	-71.897	0.165	0.061
-483.405	-109.177	-0.219	0.046
-482.391	-61.519	0.175	-0.073
-481.376	6.160	0.194	-0.143
-480.362	-200.000	0.047	0.231
-479.347	-123.630	0.188	0.030
-478.332	96.875	-0.056	-0.064
-477.318	-59.576	-0.191	-0.082
-476.303	-114.614	0.326	0.062
-475.289	-49.723	0.093	-0.044
-474.274	467.021	-0.124	0.277
-473.259	-200.000	-0.003	-0.056
-472.245	-73.340	-0.067	-0.024
-471.230	102.840	0.265	-0.309
-470.216	45.637	-0.225	-0.207
-469.201	-135.903	-0.294	0.034
-468.186	1.509	0.115	0.082
-467.172	-71.826	-0.183	-0.068
-466.157	-130.692	-0.286	-0.038
-465.143	-35.802	-0.400	0.215
-464.128	146.956	0.162	0.217
-463.113	1.283	-0.043	-0.031
-462.099	800.000	-0.061	0.208
-461.084	800.000	-0.024	0.099
-460.070	-24.047	-0.200	0.119
-459.055	-127.496	-0.320	-0.046
-458.040	210.951	0.059	0.092
-457.026	-118.987	0.019	0.003
-456.011	74.623	-0.102	0.107
-454.997	-200.000	0.062	0.288
-453.982	12.647	-0.099	0.076
-452.968	-77.138	-0.321	-0.111
-451.953	550.408	-0.076	-0.181
-450.938	676.535	0.070	-0.180
-449.924	-200.000	0.018	0.236
-448.909	-137.011	0.320	0.036
-447.895	47.451	0.188	0.174
-446.880	-200.000	-0.002	-0.164
-445.865	93.853	-0.137	0.154
-444.851	-200.000	-0.009	-0.134
-443.836	171.196	-0.028	-0.039
-442.822	-106.597	0.283	0.063
-441.807	-200.000	-0.022	-0.349
-440.792	-200.000	-0.008	-0.062
-439.778	-108.235	0.245	0.053
-438.763	3.722	-0.361	-0.262
-437.749	253.992	0.126	-0.213
-436.734	800.000	-0.066	-0.218
-435.719	-31.137	0.188	0.105
-434.705	-200.000	-0.047	0.280
-433.690	-200.000	-0.007	-0.112
-432.676	-72.115	0.162	-0.060
-431.661	-78.233	-0.096	-0.033
-430.646	-107.333	-0.166	-0.036
-429.632	-34.972	-0.059	0.032
-428.617	285.964	-0.149	-0.267
-427.603	122.594	0.175	0.217
-426.588	254.700	-0.169	0.287
-425.573	-13.071	-0.140	0.090
-424.559	72.714	0.042	-0.043
-423.544	800.000	-0.087	-0.301
-422.530	-189.424	-0.133	0.002
-421.515	-39.430	0.343	0.178
-420.500	-77.384	0.252	0.087
-419.486	309.712	-0.134	0.249
-418.471	-17.997	-0.178	-0.111
-417.457	-19.020	-0.330	-0.204
-416.442	800.000	0.097	-0.384
-415.428	800.000	0.043	0.126
-414.413	364.036	0.050	0.100
-413.398	-200.000	-0.042	-0.188
-412.384	-51.415	-0.080	-0.037
-411.369	26.693	-0.144	0.120
-410.355	22.646	-0.252	-0.205
-409.340	-133.454	0.218	-0.027
-408.325	35.574	-0.194	0.169
-407.311	-54.460	0.091	-0.041
-406.296	-200.000	-0.038	0.217
-405.282	-200.000	0.104	0.000
-404.267	248.149	0.120	-0.201
-403.252	-200.000	0.023	-0.445
-402.238	651.534	0.096	0.244
-401.223	800.000	-0.065	-0.282
-400.209	540.949	-0.056	0.131
-399.194	29.866	-0.177	0.149
-398.179	-29.859	0.143	0.081
-397.165	800.000	-0.030	0.107
-396.150	197.979	-0.153	0.232
-395.136	263.724	0.064	-0.110
-394.121	-200.000	0.013	0.131
-393.106	800.000	0.096	0.339
-392.092	-153.779	-0.064	0.004
-391.077	-136.297	-0.281	-0.032
-390.063	-200.000	0.003	-0.257
-389.048	-139.924	0.143	-0.015
-388.033	-127.388	0.040	-0.006
-387.019	423.683	0.090	0.192
-386.004	-200.000	0.011	0.230
-384.990	-200.000	0.020	0.147
-383.975	-200.000	-0.059	-0.000
-382.960	-23.623	0.244	-0.145
-381.946	-157.688	0.132	0.008
-380.931	-200.000	-0.021	0.147
-379.917	-200.000	0.004	-0.202
-378.902	111.456	0.024	0.029
-377.888	-200.000	0.003	-0.013
-376.873	45.047	-0.312	-0.284
-375.858	-54.624	-0.065	0.029
-374.844	113.825	0.304	-0.366
-373.829	-200.000	0.025	-0.192
-372.815	-83.622	0.120	-0.038
-371.800	-98.058	-0.074	-0.019
-370.785	-10.398	-0.130	0.085
-369.771	63.642	0.081	0.081
-368.756	800.000	0.077	-0.281
-367.742	-200.000	-0.000	-0.245
-366.727	-200.000	-0.001	-0.154
-365.712	392.244	-0.097	0.199
-364.698	800.000	0.088	-0.272
-363.683	212.255	0.058	0.090
-362.669	-200.000	0.038	-0.225
-361.654	800.000	-0.040	0.117
-360.639	-41.051	0.157	-0.080
-359.625	-200.000	0.020	0.124
-358.610	372.857	-0.063	-0.126
-357.596	100.618	0.067	-0.078
-356.581	108.763	-0.093	-0.109
-355.566	-88.818	-0.314	0.092
-354.552	-103.434	0.097	0.023
-353.537	159.850	-0.148	-0.203
-352.523	-32.925	-0.337	0.185
-351.508	-24.258	0.167	0.098
-350.493	-14.291	-0.217	0.138
-349.479	-23.954	0.104	0.062
-348.464	352.352	0.076	-0.148
-347.450	800.000	0.019	0.063
-346.435	53.577	0.137	-0.130
-345.420	258.708	-0.078	0.132
-344.406	-181.151	-0.234	0.005
-343.391	23.341	0.135	0.110
-342.377	-33.480	0.285	0.156
-341.362	-7.433	-0.175	0.117
-340.348	-200.000	-0.024	0.426
-339.333	160.559	0.023	-0.031
-338.318	496.325	-0.098	-0.223
-337.304	72.575	-0.143	-0.147
-336.289	715.982	0.152	0.399
-335.275	-130.057	-0.269	-0.036
-334.260	-200.000	0.064	0.295
-333.245	-66.662	0.199	-0.078
-332.231	800.000	-0.077	0.217
-331.216	-187.344	0.263	-0.004
-330.202	108.794	0.161	0.190
-329.187	-127.462	0.042	-0.006
-328.172	-8.630	0.326	-0.216
-327.158	-158.234	0.101	0.006
-326.143	271.490	-0.036	-0.063
-325.129	240.456	-0.133	0.218
-324.114	33.796	0.075	-0.065
-323.099	646.977	0.140	0.353
-322.085	-200.000	-0.050	0.304
-321.070	-200.000	0.053	0.242
-320.056	-200.000	-0.018	0.117
-319.041	63.514	0.305	0.302
-318.026	83.573	0.290	-0.312
-317.012	800.000	-0.060	0.191
-315.997	-139.211	0.210	0.022
-314.983	11.383	0.107	0.081
-313.968	800.000	0.009	-0.035
-312.953	-138.052	-0.168	0.018
-311.939	798.448	-0.120	-0.327
-310.924	210.610	0.106	0.164
-309.910	-87.409	-0.318	0.095
-308.895	-80.147	0.118	-0.039
-307.880	-10.080	0.223	0.146
-306.866	-200.000	0.019	-0.120
-305.851	226.427	-0.200	-0.320
-304.837	113.946	-0.255	-0.306
-303.822	13.718	0.031	0.023
-302.807	101.971	0.077	-0.089
-301.793	540.826	-0.061	0.144
-300.778	800.000	0.044	-0.176
-299.764	800.000	0.029	-0.118
-298.749	-200.000	-0.022	-0.122
-297.735	324.121	0.086	-0.163
-296.720	320.987	0.116	-0.218
-295.705	279.270	0.135	-0.238
-294.691	108.905	-0.049	-0.057
-293.676	-118.130	0.255	-0.045
-292.662	52.212	-0.070	-0.066
-291.647	-111.348	0.247	-0.050
-290.632	-54.010	-0.098	0.044
-289.618	243.293	-0.087	-0.144
-288.603	-200.000	-0.021	0.106
-287.589	107.813	0.199	0.233
-286.574	800.000	0.091	0.280
-285.559	-200.000	0.005	-0.142
-284.545	-158.890	-0.120	-0.007
-283.530	-147.536	-0.178	-0.015
-282.516	59.851	0.065	0.063
-281.501	89.769	-0.142	0.156
-280.486	-200.000	-0.020	0.154
-279.472	800.000	-0.046	-0.195
-278.457	-78.388	0.192	-0.065
-277.443	-200.000	0.009	0.186
-276.428	49.170	0.169	0.157
-275.413	800.000	-0.022	0.066
-274.399	631.644	-0.118	-0.295
-273.384	-200.000	-0.004	0.092
-272.370	761.781	0.104	-0.278
-271.355	-178.861	-0.391	-0.009
-270.340	-73.351	0.094	0.034
-269.326	-67.520	-0.306	-0.119
-268.311	219.720	0.100	0.157
-267.297	30.657	-0.168	0.142
-266.282	204.538	-0.045	0.069
-265.267	-160.631	0.514	-0.027
-264.253	-194.031	-0.280	0.002
-263.238	-200.000	0.023	0.497
-262.224	46.318	0.081	0.074
-261.209	-34.810	0.530	0.286
-260.195	800.000	0.043	-0.140
-259.180	-194.782	-0.231	-0.002
-258.165	-38.125	0.357	-0.187
-257.151	800.000	0.053	-0.154
-256.136	-127.241	0.240	0.035
-255.122	-51.532	-0.084	-0.039
-254.107	-200.000	0.003	-0.398
-253.092	-62.202	0.335	0.138
-252.078	-83.043	0.183	-0.058
-251.063	-200.000	-0.033	0.280
-250.049	800.000	0.054	-0.191
-249.034	178.491	0.355	0.510
-248.019	36.487	-0.182	-0.158
-247.005	114.494	0.294	0.353
-245.990	124.647	0.172	-0.213
-244.976	-109.572	-0.222	-0.046
-243.961	-136.407	0.486	0.056
-242.946	-200.000	0.015	-0.148
-241.932	800.000	0.060	-0.248
-240.917	-98.624	-0.263	-0.066
-239.903	-157.005	-0.311	0.019
-238.888	108.492	-0.161	0.189
-237.873	-200.000	0.054	0.274
-236.859	-137.061	-0.329	-0.037
-235.844	-51.731	0.060	-0.028
-234.830	204.152	0.115	-0.175
-233.815	94.267	0.098	-0.110
-232.800	-167.242	0.097	0.004
-231.786	-70.844	-0.231	0.086
-230.771	-30.339	0.117	0.065
-229.757	-21.699	0.066	-0.040
-228.742	77.245	0.108	-0.113
-227.727	800.000	0.068	0.200
-226.713	800.000	0.067	0.222
-225.698	-200.000	0.000	0.104
-224.684	197.159	0.085	0.127
-223.669	-17.533	0.185	0.115
-222.655	0.322	0.161	0.113
-221.640	-200.000	-0.009	-0.235
-220.625	-200.000	-0.018	-0.084
-219.611	-78.982	-0.313	0.105
-218.596	-43.940	-0.102	0.050
-217.582	750.590	-0.163	0.433
-216.567	-200.000	-0.023	0.195
-215.552	-157.922	0.049	0.003
-214.538	-13.299	0.216	-0.138
-213.523	-188.409	0.473	0.006
-212.509	28.937	0.241	0.201
-211.494	100.505	0.080	0.091
-210.479	-64.262	0.375	0.150
-209.465	-200.000	0.023	-0.104
-208.450	274.862	0.157	-0.274
-207.436	-71.130	-0.129	0.048
-206.421	530.732	-0.031	0.072
-205.406	-35.843	0.227	-0.121
-204.392	-26.199	0.178	0.103
-203.377	102.428	0.206	-0.237
-202.363	-54.066	0.191	-0.085
-201.348	-44.329	0.121	0.060
-200.333	-64.680	0.242	-0.096
-199.319	800.000	0.103	0.283
-198.304	-200.000	-0.003	-0.391
-197.290	-134.367	-0.169	-0.020
-196.275	-39.254	0.262	-0.135
-195.260	-123.677	-0.332	-0.052
-194.246	-200.000	0.038	-0.231
-193.231	10.738	-0.178	-0.134
-192.217	2.466	0.357	0.254
-191.202	257.420	0.137	0.232
-190.187	43.699	0.200	0.180
-189.173	800.000	0.080	-0.300
-188.158	550.582	0.080	0.188
-187.144	-198.958	0.149	0.001
-186.129	-67.842	-0.046	-0.017
-185.114	-13.106	-0.363	0.232
-184.100	571.017	-0.035	-0.083
-183.085	-6.050	0.090	-0.061
-182.071	-149.798	-0.227	0.018
-181.056	244.404	0.155	-0.255
-180.042	50.339	-0.269	0.250
-179.027	127.054	-0.063	0.079
-178.012	-47.211	0.225	0.108
-176.998	81.137	0.169	0.180
-175.983	-124.158	-0.461	0.071
-174.969	238.140	0.149	0.243
-173.954	800.000	0.149	0.403
-172.939	6.902	-0.114	-0.084
-171.925	207.270	-0.192	0.294
-170.910	-26.589	0.286	0.164
-169.896	239.026	-0.075	-0.123
-168.881	111.607	-0.049	-0.058
-167.866	102.412	-0.160	-0.184
-166.852	199.146	0.086	0.129
-165.837	404.024	-0.124	0.256
-164.823	-58.581	-0.207	0.088
-163.808	-200.000	0.004	-0.106
-162.793	33.280	-0.184	-0.157
-161.779	800.000	0.036	0.112
-160.764	59.513	0.187	0.181
-159.750	-200.000	-0.052	0.313
-158.735	800.000	-0.086	0.364
-157.720	800.000	0.048	0.142
-156.706	58.669	0.063	0.061
-155.691	-200.000	0.019	-0.324
-154.677	-200.000	-0.017	0.208
-153.662	800.000	-0.098	0.270
-152.647	-117.675	0.263	-0.047
-151.633	24.965	0.028	0.023
-150.618	-111.045	0.232	-0.047
-149.604	-136.229	0.239	0.027
-148.589	13.844	0.215	0.164
-147.574	-155.684	0.142	0.009
-146.560	-149.960	0.187	0.014
-145.545	795.484	0.006	0.016
-144.531	-181.092	0.209	-0.004
-143.516	185.210	0.150	-0.219
-142.502	339.762	0.063	-0.120
-141.487	-100.358	0.463	0.113
-140.472	-51.763	-0.357	0.163
-139.458	-200.000	0.031	-0.240
-138.443	395.104	-0.179	0.367
-137.429	-200.000	-0.051	-0.506
-136.414	-76.967	0.372	-0.128
-135.399	123.413	0.166	0.205
-134.385	-200.000	0.053	0.231
-133.370	6.963	-0.044	-0.032
-132.356	237.141	-0.066	-0.108
-131.341	89.698	0.109	-0.120
-130.326	-189.390	0.160	0.002
-129.312	11.623	0.261	0.197
-128.297	31.756	0.060	0.051
-127.283	-189.372	-0.335	-0.004
-126.268	-61.034	0.169	-0.070
-125.253	-200.000	-0.011	0.274
-124.239	-20.613	0.276	0.166
-123.224	-6.535	0.076	0.051
-122.210	86.766	-0.072	-0.078
-121.195	-153.939	-0.237	-0.016
-120.180	-200.000	-0.034	-0.164
-119.166	-72.403	0.179	0.065
-118.151	800.000	-0.035	-0.096
-117.137	-200.000	0.033	-0.339
-116.122	417.664	-0.012	0.025
-115.107	348.291	0.110	0.213
-114.093	723.554	-0.041	0.106
-113.078	-168.570	-0.179	0.007
-112.064	-92.678	-0.349	-0.096
-111.049	157.618	-0.012	0.017
-110.034	-96.976	0.227	-0.058
-109.020	83.305	0.053	-0.056
-108.005	-200.000	0.001	-0.164
-106.991	377.960	0.114	-0.229
-105.976	-200.000	-0.013	0.116
-104.962	-27.113	-0.169	-0.097
-103.947	-200.000	-0.063	0.311
-102.932	-39.086	-0.078	0.040
-101.918	-5.588	-0.141	-0.094
-100.903	-114.302	-0.199	0.038
-99.889	-76.393	0.198	0.068
-98.874	23.978	-0.172	-0.139
-97.859	-139.371	-0.226	0.024
-96.845	-112.605	0.227	-0.044
-95.830	48.283	0.109	0.100
-94.816	-139.052	0.080	-0.008
-93.801	-76.418	-0.303	-0.104
-92.786	20.170	0.132	-0.104
-91.772	-46.261	0.072	0.035
-90.757	7.853	-0.079	-0.058
-89.743	-38.816	0.230	-0.119
-88.728	-31.689	-0.151	-0.083
-87.713	-200.000	0.012	-0.292
-86.699	328.391	0.139	0.261
-85.684	172.000	0.403	-0.567
-84.670	-120.154	0.289	0.048
-83.655	61.497	0.329	-0.320
-82.640	2.318	-0.150	-0.106
-81.626	-200.000	-0.019	-0.263
-80.611	93.616	0.161	-0.178
-79.597	-200.000	-0.017	-0.260
-78.582	-200.000	0.015	-0.103
-77.567	130.330	-0.091	-0.114
-76.553	-133.057	0.301	-0.037
-75.538	168.595	0.051	-0.071
-74.524	240.410	0.051	0.083
-73.509	-113.838	0.159	-0.030
-72.494	161.409	0.064	0.088
-71.480	-200.000	0.105	-0.455
-70.465	-200.000	-0.058	-0.318
-69.451	-200.000	-0.007	0.073
-68.436	-65.170	0.074	0.029
-67.422	132.832	0.140	0.177
-66.407	-193.887	0.309	0.003
-65.392	260.958	-0.093	-0.158
-64.378	375.889	0.104	-0.207
-63.363	-70.950	-0.118	0.044
-62.349	-0.229	-0.122	0.085
-61.334	91.178	-0.980	-1.076
-60.319	89.787	0.634	0.693
-59.305	363.123	-0.382	-0.750
-58.290	65.755	0.654	0.648
-57.276	161.597	0.922	1.262
-56.261	-200.000	116.705	654.236
-55.246	515.369	1540.370	3518.055
-54.232	175.328	2711.461	3842.751
-53.217	107.401	2159.365	2511.742
-52.203	38.532	1594.014	1389.936
-51.188	29.875	1337.208	1114.119
-50.173	27.100	1298.524	1065.598
-49.159	54.210	1356.353	1276.257
-48.144	52.238	1370.412	1277.644
-47.130	30.186	1324.414	1105.138
-46.115	26.756	1306.367	1069.833
-45.100	26.592	1300.940	1064.382
-44.086	26.514	1298.285	1061.707
-43.071	26.439	1296.487	1059.755
-42.057	26.402	1294.461	1057.843
-41.042	26.517	1292.454	1056.830
-40.027	26.577	1290.826	1055.810
-39.013	26.565	1289.027	1054.226
-37.998	26.571	1287.192	1052.721
-36.984	26.644	1285.383	1051.622
-35.969	26.670	1283.549	1050.231
-34.954	26.663	1281.887	1048.785
-33.940	26.602	1281.198	1047.827
-32.925	26.780	1279.403	1047.345
-31.911	26.786	1277.803	1046.034
-30.896	26.706	1276.433	1044.409
-29.881	26.793	1275.306	1043.943
-28.867	26.783	1273.991	1042.767
-27.852	26.768	1272.036	1041.044
-26.838	26.827	1270.917	1040.423
-25.823	26.788	1269.640	1039.113
-24.809	26.652	1268.713	1037.535
-23.794	26.839	1266.515	1036.762
-22.779	26.852	1265.075	1035.618
-21.765	26.812	1264.359	1034.762
-20.750	26.776	1263.001	1033.405
-19.736	26.751	1261.885	1032.307
-18.721	26.733	1260.948	1031.398
-17.706	26.750	1259.597	1030.352
-16.692	26.682	1258.882	1029.339
-15.677	26.651	1257.897	1028.316
-14.663	26.593	1256.436	1026.750
-13.648	26.591	1254.967	1025.498
-12.633	26.707	1254.162	1025.458
-11.619	26.625	1253.374	1024.308
-10.604	26.627	1252.728	1023.752
-9.590	26.570	1252.000	1022.790
-8.575	26.577	1250.936	1021.921
-7.560	26.528	1250.646	1021.368
-6.546	26.593	1249.071	1020.411
-5.531	26.739	1247.719	1020.085
-4.517	26.741	1247.260	1019.679
-3.502	26.736	1246.013	1018.594
-2.487	26.627	1245.346	1017.397
-1.473	26.628	1240.920	1013.744
-0.458	25.226	1226.357	994.046
0.556	22.090	1209.964	957.831
1.571	18.466	1216.525	943.037
2.586	17.661	1231.582	950.137
3.600	17.433	1219.610	939.560
4.615	12.979	1148.812	861.728
5.629	6.195	1077.131	774.565
6.644	3.517	1059.813	749.056
7.659	3.217	1057.276	745.742
8.673	3.254	1056.268	745.143
9.688	3.283	1055.170	744.446
10.702	3.437	1053.212	743.742
11.717	7.247	1058.219	765.651
12.731	14.567	1068.700	808.772
13.746	19.026	1073.423	833.938
14.761	19.570	1073.931	836.896
15.775	18.747	1072.247	831.524
16.790	17.775	1070.412	825.325
17.804	16.962	1069.164	820.363
18.819	16.850	1067.402	818.396
19.834	16.577	1067.132	816.799
20.848	16.338	1066.385	815.003
21.863	16.222	1065.431	813.640
22.877	16.108	1065.072	812.744
23.892	16.104	1063.659	811.578
24.907	15.946	1063.507	810.629
25.921	16.090	1061.856	809.991
26.936	16.084	1060.803	809.085
27.950	16.176	1059.426	808.404
28.965	16.187	1057.534	806.942
29.980	16.275	1056.756	806.699
30.994	16.401	1055.280	806.103
32.009	16.459	1054.156	805.447
33.023	16.297	1053.837	804.360
34.038	16.272	1052.148	802.880
35.053	16.166	1051.227	801.606
36.067	16.080	1050.860	800.847
37.082	16.208	1049.901	800.649
38.096	16.366	1048.933	800.588
39.111	16.416	1048.024	800.063
40.126	16.102	1046.990	797.716
41.140	15.991	1045.414	795.923
42.155	15.850	1044.122	794.202
43.169	15.683	1043.583	792.935
44.184	15.821	1042.388	792.607
45.199	15.922	1041.121	792.048
46.213	15.998	1039.867	791.380
47.228	16.066	1039.960	791.703
48.242	16.194	1038.337	790.994
49.257	16.102	1037.526	789.877
50.271	16.181	1036.262	789.216
51.286	16.222	1035.949	789.097
52.301	16.154	1034.814	787.844
53.315	16.103	1033.873	786.822
54.330	15.979	1032.819	785.372
55.344	16.087	1031.902	785.107
56.359	16.002	1031.060	784.005
57.374	16.002	1030.081	783.188
58.388	15.862	1029.603	782.104
59.403	15.761	1028.700	780.882
60.417	15.810	1027.386	780.042
61.432	15.724	1026.655	779.021
62.447	15.851	1025.772	778.869
63.461	15.791	1024.642	777.666
64.476	15.820	1023.850	777.130
65.490	15.769	1022.945	776.139
66.505	15.733	1022.528	775.587
67.520	15.702	1022.026	774.995
68.534	15.844	1020.773	774.627
69.549	15.758	1020.131	773.678
70.563	15.769	1019.075	772.858
71.578	15.672	1018.416	771.845
72.593	15.420	1018.118	770.396
73.607	15.612	1017.114	770.447
74.622	15.626	1016.968	770.333
75.636	15.605	1016.253	769.625
76.651	15.661	1014.747	768.673
77.666	15.787	1014.530	769.016
78.680	15.660	1014.160	768.091
79.695	15.709	1013.307	767.601
80.709	15.817	1012.372	767.314
81.724	15.865	1012.128	767.282
82.739	15.916	1011.029	766.613
83.753	16.022	1010.433	766.577
84.768	16.193	1009.819	766.818
85.782	16.327	1009.211	766.898
86.797	16.170	1008.337	765.453
87.812	16.166	1007.105	764.430
88.826	16.186	1006.112	763.700
89.841	16.231	1005.580	763.433
90.855	16.314	1004.888	763.216
91.870	16.307	1003.491	762.056
92.884	16.347	1002.891	761.711
93.899	16.404	1001.841	761.105
94.914	16.337	1001.269	760.302
95.928	16.395	1000.509	759.919
96.943	16.301	999.380	758.568
97.957	16.297	997.994	757.432
98.972	16.249	997.527	756.796
99.987	16.150	997.283	756.099
101.001	16.278	995.779	755.468
102.016	16.412	994.763	755.228
103.030	16.363	994.441	754.699
104.045	16.280	993.632	753.644
105.060	16.281	992.533	752.750
106.074	16.022	991.334	750.622
107.089	15.823	990.557	749.083
108.103	15.723	989.928	748.095
109.118	15.867	988.839	747.847
110.133	15.705	987.935	746.378
111.147	15.764	986.891	745.784
112.162	15.912	986.064	745.749
113.176	16.097	985.173	745.823
114.191	15.958	984.792	744.858
115.206	16.018	983.738	744.260
116.220	15.862	983.024	742.963
117.235	16.071	981.663	742.793
118.249	15.779	981.757	741.510
119.264	15.900	980.899	741.327
120.279	15.855	979.510	740.015
121.293	15.858	978.719	739.367
122.308	15.738	978.090	738.297
123.322	15.769	976.928	737.493
124.337	15.843	975.501	736.674
125.352	15.735	974.767	735.582
126.366	15.746	973.724	734.775
127.381	15.745	973.004	734.165
128.395	15.810	971.763	733.447
129.410	15.814	971.111	732.907
130.424	15.964	969.691	732.422
131.439	15.833	969.377	731.551
132.454	15.995	968.342	731.410
133.468	16.006	967.868	731.033
134.483	15.949	967.253	730.256
135.497	16.099	966.017	729.910
136.512	15.973	965.148	728.641
137.527	15.989	965.079	728.594
138.541	16.080	964.063	728.159
139.556	15.989	963.496	727.272
140.570	16.310	962.985	728.207
141.585	16.343	961.943	727.496
142.600	16.455	960.776	727.030
143.614	16.452	960.149	726.480
144.629	16.398	959.759	725.890
145.643	16.306	959.174	724.987
146.658	16.349	957.126	723.557
147.673	16.265	956.501	722.662
148.687	16.023	955.719	720.972
149.702	16.125	954.581	720.486
150.716	16.097	953.812	719.724
151.731	16.071	953.348	719.196
152.746	16.163	952.507	718.889
153.760	16.048	952.170	718.085
154.775	16.284	951.285	718.358
155.789	16.385	950.746	718.315
156.804	16.362	949.933	717.542
157.819	16.293	949.720	717.025
158.833	16.477	949.324	717.440
159.848	16.398	948.399	716.344
160.862	16.352	947.079	715.088
161.877	16.174	946.260	713.655
162.892	16.010	945.206	712.105
163.906	16.172	943.912	711.750
164.921	16.168	943.379	711.267
165.935	16.208	942.418	710.647
166.950	16.362	941.437	710.492
167.964	16.314	940.674	709.652
168.979	16.275	939.699	708.691
169.994	16.205	938.826	707.678
171.008	16.241	938.523	707.534
172.023	16.406	937.986	707.760
173.037	16.536	937.181	707.635
174.052	16.485	936.113	706.550
175.067	16.197	935.745	705.008
176.081	16.074	935.353	704.136
177.096	16.220	933.863	703.561
178.110	16.207	933.717	703.337
179.125	16.309	932.863	703.055
180.140	16.202	932.847	702.537
181.154	16.344	932.588	702.867
182.169	16.523	931.834	702.982
183.183	16.610	931.206	702.808
184.198	16.619	930.412	702.182
185.213	16.601	929.843	701.618
186.227	16.629	928.805	700.887
187.242	16.761	928.631	701.242
188.256	16.725	928.058	700.597
189.271	16.694	927.412	699.921
190.286	16.431	925.997	697.703
191.300	16.160	925.389	696.067
192.315	16.125	924.794	695.414
193.329	16.184	924.395	695.294
194.344	16.194	923.972	694.955
195.359	16.450	922.976	695.196
196.373	16.465	922.685	694.979
197.388	16.746	921.866	695.455
198.402	16.655	921.875	695.026
199.417	16.725	921.335	694.847
200.432	16.854	920.569	694.736
201.446	17.041	919.722	694.800
202.461	17.092	919.281	694.616
203.475	17.013	918.563	693.687
204.490	16.693	917.987	691.881
205.504	16.795	916.948	691.456
206.519	16.758	916.211	690.689
207.534	16.739	915.560	690.058
208.548	16.667	915.226	689.454
209.563	16.700	914.748	689.167
210.577	16.919	913.623	689.146
211.592	16.911	913.305	688.813
212.607	17.018	912.118	688.292
213.621	17.046	911.561	687.924
214.636	16.832	911.396	686.869
215.650	16.944	910.736	686.765
216.665	17.063	909.783	686.468
217.680	17.180	909.361	686.561
218.694	17.151	908.633	685.836
219.709	17.095	907.953	685.033
220.723	17.161	907.355	684.789
221.738	17.174	906.481	684.121
222.753	17.114	905.767	683.280
223.767	17.126	905.570	683.122
224.782	17.242	905.073	683.148
225.796	17.331	904.190	682.781
226.811	17.178	903.527	681.605
227.826	16.993	902.721	680.195
228.840	16.980	902.321	679.784
229.855	17.071	901.207	679.248
230.869	17.188	900.214	678.905
231.884	17.042	899.962	678.073
232.899	17.010	899.040	677.189
233.913	16.917	898.333	676.228
234.928	16.953	897.529	675.707
235.942	16.921	897.048	675.156
236.957	17.064	896.525	675.271
237.972	17.089	895.886	674.830
238.986	17.047	895.043	673.967
240.001	16.903	895.199	673.453
241.015	17.128	893.629	673.107
242.030	17.091	893.433	672.751
243.045	17.201	893.277	673.012
244.059	17.212	892.604	672.487
245.074	17.190	891.763	671.706
246.088	17.216	891.265	671.377
247.103	17.319	890.316	671.008
248.117	17.413	890.256	671.276
249.132	17.685	889.894	672.014
250.147	17.638	889.580	671.533
251.161	17.815	888.476	671.335
252.176	17.884	887.740	670.993
253.190	17.848	886.989	670.222
254.205	17.775	886.636	669.610
255.220	17.833	886.008	669.304
256.234	17.717	885.768	668.607
257.249	17.744	884.476	667.681
258.263	17.807	883.839	667.389
259.278	17.977	882.551	667.020
260.293	17.895	882.512	666.611
261.307	17.936	881.893	666.246
262.322	17.972	881.608	666.112
263.336	18.047	880.699	665.657
264.351	17.935	880.462	664.981
265.366	18.028	879.239	664.361
266.380	17.965	878.811	663.736
267.395	17.990	878.334	663.411
268.409	17.874	877.410	662.207
269.424	18.041	876.420	662.047
270.439	17.903	875.915	661.073
271.453	17.948	875.163	660.622
272.468	17.826	875.289	660.186
273.482	17.963	874.149	659.796
274.497	17.795	873.420	658.541
275.512	17.778	873.124	658.192
276.526	17.801	873.057	658.171
277.541	17.905	872.387	658.010
278.555	18.172	871.391	658.228
279.570	18.073	871.138	657.597
280.585	18.203	870.192	657.325
281.599	17.944	869.733	655.925
282.614	18.042	868.983	655.678
283.628	18.143	867.712	655.049
284.643	18.065	867.711	654.692
285.657	18.026	867.187	654.088
286.672	18.046	866.183	653.349
287.687	18.143	865.712	653.307
288.701	18.016	865.271	652.433
289.716	18.088	864.679	652.203
290.730	18.170	863.786	651.782
291.745	18.178	863.498	651.537
292.760	18.190	862.790	650.991
293.774	18.287	862.432	651.036
294.789	18.380	861.218	650.412
295.803	18.311	860.500	649.550
296.818	18.112	860.196	648.509
297.833	18.008	859.564	647.584
298.847	18.080	859.129	647.472
299.862	18.265	858.700	647.789
300.876	18.255	858.093	647.234
301.891	18.249	857.845	646.970
302.906	18.499	857.005	647.222
303.920	18.569	856.503	647.050
304.935	18.678	855.853	646.913
305.949	18.553	855.129	645.837
306.964	18.530	854.603	645.295
307.979	18.427	854.162	644.519
308.993	18.593	853.802	644.816
310.008	18.590	852.804	643.994
311.022	18.610	852.257	643.597
312.037	18.278	851.725	641.895
313.052	18.376	851.256	641.852
314.066	18.380	850.277	641.071
315.081	18.266	850.298	640.605
316.095	18.194	849.415	639.612
317.110	18.212	849.074	639.366
318.125	18.301	848.219	638.999
319.139	18.276	848.021	638.700
320.154	18.315	847.527	638.414
321.168	18.316	846.783	637.802
322.183	18.435	846.332	637.851
323.197	18.372	845.990	637.303
324.212	18.615	845.114	637.486
325.227	18.637	844.322	636.917
326.241	18.313	844.286	635.630
327.256	18.510	843.196	635.481
328.270	18.483	842.915	635.116
329.285	18.430	842.167	634.299
330.300	18.376	841.646	633.652
331.314	18.534	841.187	633.834
332.329	18.505	840.938	633.482
333.343	18.537	840.506	633.220
334.358	18.666	839.951	633.220
335.373	18.666	839.908	633.131
336.387	18.762	839.352	633.009
337.402	18.758	839.221	632.841
338.416	18.848	838.931	632.897
339.431	18.902	838.712	632.874
340.446	19.050	837.847	632.712
341.460	18.985	837.765	632.354
342.475	18.954	837.439	631.938
343.489	19.021	836.955	631.763
344.504	19.037	836.562	631.470
345.519	19.095	835.823	631.070
346.533	19.074	835.530	630.713
347.548	19.133	834.571	630.150
348.562	18.979	833.962	629.071
349.577	18.846	833.341	628.061
350.592	18.678	833.007	627.141
351.606	18.828	831.888	626.791
352.621	18.924	831.166	626.542
353.635	18.790	831.010	625.877
354.650	18.856	830.201	625.456
355.665	18.896	829.851	625.281
356.679	19.051	829.089	625.213
357.694	19.035	828.212	624.440
358.708	18.979	827.866	623.921
359.723	19.056	827.142	623.599
360.738	18.984	826.323	622.666
361.752	18.962	826.012	622.298
362.767	19.174	825.700	622.774
363.781	19.255	825.216	622.646
364.796	19.290	824.993	622.550
365.810	19.450	824.482	622.687
366.825	19.439	824.292	622.447
367.840	19.438	823.204	621.568
368.854	19.512	822.732	621.424
369.869	19.368	822.772	620.878
370.883	19.433	822.236	620.654
371.898	19.457	822.091	620.577
372.913	19.443	821.624	620.118
373.927	19.407	820.825	619.332
374.942	19.383	820.072	618.620
375.956	19.502	820.009	618.947
376.971	19.679	819.724	619.308
377.986	19.520	819.438	618.469
379.000	19.851	818.374	618.795
380.015	19.631	818.056	617.714
381.029	19.800	817.285	617.683
382.044	19.672	816.856	616.847
383.059	19.778	816.313	616.757
384.073	19.658	815.520	615.676
385.088	19.531	815.376	615.061
386.102	19.565	814.614	614.555
387.117	19.523	813.892	613.807
388.132	19.532	813.515	613.501
389.146	19.523	813.065	613.073
390.161	19.648	812.271	612.866
391.175	19.640	812.226	612.746
392.190	19.572	811.611	611.988
393.205	19.478	811.068	611.192
394.219	19.630	810.493	611.241
395.234	19.324	810.540	610.139
396.248	19.407	809.992	609.968
397.263	19.434	809.237	609.442
398.278	19.563	808.632	609.386
399.292	19.376	808.592	608.642
400.307	19.493	807.787	608.394
401.321	19.429	807.373	607.806
402.336	19.518	806.944	607.739
403.350	19.499	806.807	607.516
404.365	19.772	806.086	607.880
405.380	19.964	805.437	608.010
406.394	20.048	805.215	608.084
407.409	19.976	804.926	607.560
408.423	19.957	804.885	607.409
409.438	20.061	804.022	607.067
410.453	20.018	803.692	606.615
411.467	20.081	803.392	606.554
412.482	20.111	803.234	606.486
413.496	20.138	802.877	606.258
414.511	20.204	802.182	605.909
415.526	20.123	801.906	605.365
416.540	19.967	801.331	604.334
417.555	20.018	800.807	604.063
418.569	20.123	800.532	604.168
419.584	20.131	799.832	603.613
420.599	20.187	799.560	603.551
421.613	162.030	1371.844	1797.160
422.628	140.674	1455.203	1797.259
