DTS Sentinel unit serial number:	SN413079Multiplexer serial number:	ORYXHardware model number:	OX4-SRSoftware version number:	ORYX F/W v4.00 Oryx Data Collector v3.7.2.0data status	okinstallation	princeton_trtdifferential loss correction	single-endedforward channel	channel 1reverse channel	N/Adate	2019/09/19time	03:14:35forward acquisition time	60.00reverse acquisition time	0.00gamma	496.2192k internal	0.2343k external	0.2343temperature offset calibration	1.0019default loss term (dB/km)	0.3790temperature slope calibration	1.0000multiplexer offset coefficient	1.0000multiplexer slope coefficient	1.0000fibre end	0.00T internal ref (°C)	20.75T ext. ref 1 (°C)	0.65T ext. ref 2 (°C)	14.27length (m)	temperature (°C)	Stokes	anti-Stokes-747.200	109.326	-0.202	-0.242
-746.185	29.302	-0.427	-0.363
-745.171	-200.000	-0.049	0.318
-744.156	-3.919	0.144	0.100
-743.142	-86.443	-0.151	0.046
-742.127	214.757	-0.012	0.018
-741.112	201.899	-0.044	-0.068
-740.098	-92.494	0.330	-0.093
-739.083	87.015	0.071	0.079
-738.069	-49.595	-0.178	-0.085
-737.054	-47.668	-0.168	0.082
-736.039	287.022	-0.106	-0.192
-735.025	-200.000	0.005	0.232
-734.010	-200.000	-0.008	0.292
-732.996	-51.384	0.292	0.137
-731.981	-19.934	-0.091	-0.056
-730.966	-91.702	-0.171	0.049
-729.952	-200.000	-0.007	0.079
-728.937	-176.079	-0.321	0.008
-727.923	14.975	0.088	-0.069
-726.908	-200.000	-0.014	-0.438
-725.894	-200.000	0.046	-0.337
-724.879	-7.560	0.171	0.116
-723.864	312.074	0.142	-0.266
-722.850	173.360	-0.140	-0.202
-721.835	-8.332	-0.263	0.177
-720.821	-75.290	0.245	0.088
-719.806	800.000	-0.093	-0.289
-718.791	-49.628	0.224	-0.106
-717.777	76.470	-0.113	0.120
-716.762	-200.000	-0.006	0.276
-715.748	553.446	0.074	-0.177
-714.733	-200.000	-0.012	-0.170
-713.718	35.595	0.099	0.087
-712.704	800.000	0.032	0.100
-711.689	-156.004	0.316	-0.020
-710.675	-200.000	-0.002	-0.098
-709.660	88.619	0.113	0.126
-708.645	-86.149	0.035	-0.011
-707.631	7.586	0.177	0.132
-706.616	-56.019	0.170	-0.076
-705.602	557.164	-0.018	0.044
-704.587	131.970	-0.142	-0.183
-703.572	-145.220	-0.471	0.043
-702.558	-200.000	0.032	-0.187
-701.543	-200.000	0.013	-0.081
-700.529	-103.915	-0.181	-0.042
-699.514	25.320	-0.401	-0.333
-698.499	139.959	-0.100	-0.132
-697.485	-54.452	-0.066	0.030
-696.470	138.388	-0.148	0.193
-695.456	-112.583	-0.077	-0.015
-694.441	204.228	-0.065	-0.101
-693.426	694.743	-0.023	0.061
-692.412	-200.000	0.005	0.356
-691.397	67.312	-0.251	0.256
-690.383	301.308	-0.084	-0.155
-689.368	-71.498	-0.320	-0.120
-688.354	-200.000	0.005	-0.132
-687.339	390.289	0.100	-0.206
-686.324	800.000	0.030	-0.099
-685.310	126.373	-0.067	-0.085
-684.295	-18.881	-0.092	0.057
-683.281	338.566	0.069	-0.135
-682.266	338.799	-0.147	0.286
-681.251	10.059	0.191	0.145
-680.237	800.000	-0.084	-0.347
-679.222	-71.871	0.291	0.108
-678.208	-200.000	-0.007	0.037
-677.193	168.401	0.062	-0.089
-676.178	159.168	-0.091	-0.127
-675.164	163.295	-0.107	0.150
-674.149	-34.003	0.065	0.035
-673.135	-69.896	0.358	0.136
-672.120	-104.026	-0.225	-0.052
-671.105	55.432	-0.265	0.256
-670.091	800.000	-0.098	0.378
-669.076	-124.214	0.612	-0.096
-668.062	-25.148	0.100	-0.059
-667.047	337.583	-0.170	-0.330
-666.032	-97.072	0.178	-0.046
-665.018	593.576	0.071	0.176
-664.003	-107.957	-0.485	-0.105
-662.989	166.000	-0.222	-0.313
-661.974	241.801	0.130	0.217
-660.959	96.280	0.259	-0.296
-659.945	-64.578	0.414	0.167
-658.930	-58.785	-0.094	-0.041
-657.916	170.870	0.168	-0.241
-656.901	70.325	0.216	0.223
-655.886	32.808	0.203	0.175
-654.872	425.311	0.125	0.268
-653.857	-99.155	0.142	0.036
-652.843	-154.217	0.140	-0.009
-651.828	431.812	0.078	-0.169
-650.814	174.336	0.193	-0.278
-649.799	65.049	0.033	-0.033
-648.784	71.524	-0.091	-0.094
-647.770	253.100	-0.148	0.252
-646.755	-122.040	0.079	-0.013
-645.741	79.967	0.229	0.245
-644.726	557.244	0.023	0.055
-643.711	104.524	0.143	0.168
-642.697	-1.396	-0.063	0.045
-641.682	800.000	0.113	-0.339
-640.668	620.558	0.098	-0.246
-639.653	-200.000	-0.047	-0.356
-638.638	-20.842	0.194	0.119
-637.624	56.986	-0.278	-0.270
-636.609	87.676	-0.119	0.131
-635.595	-71.965	0.181	0.067
-634.580	-200.000	0.008	0.100
-633.565	191.602	-0.113	-0.170
-632.551	-200.000	-0.072	-0.548
-631.536	-200.000	-0.046	-0.335
-630.522	-200.000	0.004	-0.222
-629.507	59.347	-0.047	0.046
-628.492	-200.000	-0.008	-0.122
-627.478	282.679	-0.148	-0.265
-626.463	50.812	0.110	-0.104
-625.449	208.345	-0.074	0.115
-624.434	244.384	-0.085	0.143
-623.419	-50.547	-0.061	0.029
-622.405	166.422	0.063	0.090
-621.390	-87.430	-0.133	-0.040
-620.376	642.127	-0.104	0.264
-619.361	-45.136	-0.173	-0.086
-618.346	800.000	-0.049	0.162
-617.332	-148.944	-0.198	0.016
-616.317	43.555	-0.082	-0.074
-615.303	-93.997	0.132	0.036
-614.288	3.737	0.176	-0.128
-613.273	44.611	-0.186	-0.171
-612.259	52.393	0.065	-0.061
-611.244	-25.924	0.107	-0.063
-610.230	-108.728	-0.203	0.043
-609.215	-200.000	0.016	-0.134
-608.201	-200.000	-0.058	-0.256
-607.186	-28.055	0.298	0.172
-606.171	-85.846	-0.119	-0.037
-605.157	178.307	-0.017	-0.024
-604.142	-3.710	-0.228	-0.158
-603.128	-200.000	0.028	0.138
-602.113	-128.379	0.282	-0.040
-601.098	180.776	0.130	0.190
-600.084	-111.211	-0.379	0.077
-599.069	307.644	0.124	0.231
-598.055	-200.000	0.007	0.145
-597.040	-200.000	-0.017	-0.122
-596.025	-109.398	0.129	-0.027
-595.011	-200.000	0.009	-0.169
-593.996	323.587	-0.031	0.059
-592.982	-89.051	0.212	-0.062
-591.967	175.024	-0.034	0.048
-590.952	103.757	-0.201	0.235
-589.938	-40.697	-0.179	0.092
-588.923	729.514	0.067	0.178
-587.909	-50.890	0.288	0.135
-586.894	72.483	-0.136	0.141
-585.879	-136.072	0.491	0.057
-584.865	-88.662	-0.181	0.054
-583.850	-200.000	0.033	-0.168
-582.836	92.997	-0.191	-0.215
-581.821	36.832	0.279	-0.245
-580.806	199.458	-0.168	-0.257
-579.792	-138.264	-0.223	0.025
-578.777	435.304	0.110	-0.239
-577.763	-86.542	0.204	-0.062
-576.748	-117.136	-0.436	-0.079
-575.733	344.867	-0.118	-0.230
-574.719	-53.155	0.056	-0.025
-573.704	-63.243	0.103	-0.042
-572.690	-38.800	-0.098	-0.051
-571.675	-21.817	-0.109	-0.066
-570.661	800.000	0.070	-0.216
-569.646	-123.516	-0.363	-0.057
-568.631	800.000	-0.090	-0.341
-567.617	311.490	0.045	0.084
-566.602	221.726	-0.067	0.107
-565.588	-144.019	0.400	0.037
-564.573	40.789	-0.301	0.270
-563.558	-200.000	0.014	-0.249
-562.544	203.528	0.040	0.061
-561.529	-200.000	0.012	-0.296
-560.515	-79.164	-0.042	0.014
-559.500	-6.664	-0.138	-0.093
-558.485	-71.355	-0.216	-0.081
-557.471	61.854	-0.210	-0.208
-556.456	-200.000	-0.017	-0.221
-555.442	-8.814	0.333	-0.222
-554.427	312.746	0.106	-0.199
-553.412	-5.679	0.260	-0.177
-552.398	26.904	-0.284	-0.237
-551.383	-10.786	-0.139	0.091
-550.369	-47.962	0.177	0.085
-549.354	-126.198	-0.167	-0.025
-548.339	-172.021	-0.083	-0.003
-547.325	242.699	0.072	0.119
-546.310	-200.000	0.044	-0.357
-545.296	-116.588	-0.392	-0.072
-544.281	107.484	0.055	-0.065
-543.266	800.000	0.086	0.309
-542.252	145.545	0.089	-0.118
-541.237	-200.000	0.083	-0.470
-540.223	-133.774	0.202	-0.025
-539.208	800.000	-0.032	0.106
-538.193	-7.287	-0.144	0.097
-537.179	712.845	0.097	0.254
-536.164	-141.942	0.033	-0.003
-535.150	41.239	0.163	-0.147
-534.135	-137.867	0.203	0.023
-533.121	-175.099	0.192	-0.005
-532.106	-33.478	-0.060	-0.033
-531.091	-178.011	-0.272	0.006
-530.077	-200.000	-0.003	0.128
-529.062	800.000	0.111	-0.348
-528.048	-97.316	0.270	-0.070
-527.033	-200.000	-0.009	0.326
-526.018	-200.000	0.002	0.093
-525.004	-80.475	-0.238	0.079
-523.989	-64.358	0.292	-0.118
-522.975	398.897	0.068	-0.142
-521.960	-154.255	0.098	0.007
-520.945	35.701	-0.108	0.095
-519.931	202.343	-0.224	0.342
-518.916	-200.000	0.003	0.075
-517.902	-9.725	0.304	-0.201
-516.887	38.477	-0.193	-0.171
-515.872	185.501	-0.086	-0.127
-514.858	-30.904	-0.262	-0.147
-513.843	-75.971	0.135	0.047
-512.829	397.758	0.157	-0.325
-511.814	-100.187	0.193	0.048
-510.799	150.049	-0.129	-0.173
-509.785	-58.104	0.261	0.113
-508.770	-18.011	-0.119	-0.074
-507.756	-200.000	0.017	-0.088
-506.741	-24.294	0.113	0.067
-505.726	-109.936	-0.254	-0.053
-504.712	120.516	-0.131	0.162
-503.697	-126.128	0.125	-0.019
-502.683	-149.667	0.223	0.017
-501.668	-200.000	-0.043	0.293
-500.653	-70.963	-0.293	0.109
-499.639	800.000	-0.047	0.132
-498.624	-84.482	-0.134	0.042
-497.610	-32.483	-0.207	-0.114
-496.595	-71.513	-0.353	-0.131
-495.581	52.185	-0.130	-0.122
-494.566	7.582	-0.323	0.240
-493.551	553.371	0.156	0.371
-492.537	-4.327	-0.244	0.167
-491.522	800.000	0.010	0.034
-490.508	194.619	0.094	-0.142
-489.493	-45.805	0.204	-0.100
-488.478	-200.000	0.001	0.097
-487.464	572.975	0.063	0.151
-486.449	103.412	-0.074	-0.086
-485.435	222.425	-0.129	-0.205
-484.420	160.838	0.113	0.156
-483.405	-178.654	0.384	-0.009
-482.391	124.999	-0.173	0.216
-481.376	16.412	-0.153	-0.120
-480.362	-28.910	-0.146	-0.083
-479.347	-200.000	-0.043	-0.189
-478.332	33.634	-0.207	0.178
-477.318	-84.423	-0.132	-0.041
-476.303	98.148	-0.157	0.179
-475.289	73.311	-0.164	0.170
-474.274	203.499	0.124	-0.190
-473.259	-172.884	-0.073	0.002
-472.245	170.204	0.120	-0.170
-471.230	-176.598	0.158	0.004
-470.216	100.300	-0.120	0.138
-469.201	-200.000	-0.035	0.222
-468.186	800.000	-0.052	0.165
-467.172	-43.237	0.166	0.083
-466.157	-67.352	-0.113	0.044
-465.143	-200.000	0.027	-0.264
-464.128	208.031	0.061	0.094
-463.113	800.000	-0.017	-0.057
-462.099	-87.173	0.105	0.032
-461.084	-52.903	-0.329	0.150
-460.070	389.983	-0.033	0.068
-459.055	-0.932	-0.227	0.159
-458.040	-135.379	-0.020	-0.002
-457.026	130.186	-0.366	-0.464
-456.011	-173.727	-0.341	-0.010
-454.997	800.000	-0.032	0.135
-453.982	800.000	0.067	0.256
-452.968	-51.883	0.303	-0.140
-451.953	156.058	-0.212	-0.290
-450.938	-11.519	-0.193	-0.126
-449.924	4.826	0.175	0.127
-448.909	40.796	0.292	0.261
-447.895	100.779	-0.144	-0.166
-446.880	800.000	0.048	-0.147
-445.865	-31.411	0.206	-0.115
-444.851	132.200	-0.321	0.409
-443.836	-161.915	-0.208	0.010
-442.822	-200.000	-0.035	-0.178
-441.807	-77.146	0.108	-0.037
-440.792	-147.420	-0.424	0.035
-439.778	-75.438	0.309	-0.109
-438.763	-200.000	0.027	-0.261
-437.749	-105.996	0.076	0.017
-436.734	-97.838	-0.236	-0.060
-435.719	35.499	0.023	-0.020
-434.705	58.379	0.085	0.083
-433.690	-200.000	-0.058	0.329
-432.676	-200.000	-0.011	0.054
-431.661	-100.231	0.427	-0.105
-430.646	25.619	-0.084	-0.069
-429.632	-72.638	-0.147	0.053
-428.617	-70.937	0.196	0.073
-427.603	800.000	-0.044	0.122
-426.588	-91.197	-0.453	-0.128
-425.573	298.141	-0.167	-0.303
-424.559	-200.000	-0.010	0.064
-423.544	-52.501	0.181	-0.083
-422.530	-82.254	-0.263	0.085
-421.515	72.081	0.253	-0.260
-420.500	800.000	-0.032	-0.088
-419.486	-200.000	-0.008	0.091
-418.471	-81.438	-0.119	-0.039
-417.457	800.000	0.053	0.182
-416.442	-200.000	-0.064	0.339
-415.428	800.000	0.049	-0.172
-414.413	-140.311	0.158	0.016
-413.398	-200.000	-0.005	-0.043
-412.384	60.763	0.185	-0.182
-411.369	-126.644	0.142	-0.021
-410.355	12.010	0.188	-0.143
-409.340	166.000	-0.080	-0.112
-408.325	-44.780	-0.272	-0.134
-407.311	-200.000	-0.006	0.555
-406.296	91.814	-0.152	0.169
-405.282	-200.000	0.058	0.322
-404.267	-32.759	-0.401	-0.220
-403.252	-28.862	-0.284	-0.161
-402.238	201.121	-0.181	-0.275
-401.223	-200.000	0.002	0.051
-400.209	-65.205	-0.274	-0.109
-399.194	-200.000	-0.006	-0.235
-398.179	-194.287	0.113	0.001
-397.165	-54.538	0.028	0.012
-396.150	-200.000	-0.032	-0.175
-395.136	-176.925	0.359	0.009
-394.121	-21.249	-0.155	-0.094
-393.106	196.702	0.039	-0.058
-392.092	365.915	0.086	-0.170
-391.077	680.899	-0.005	0.013
-390.063	196.975	0.347	0.522
-389.048	451.995	0.168	0.366
-388.033	-200.000	0.054	0.250
-387.019	-200.000	0.015	0.113
-386.004	0.941	-0.250	0.177
-384.990	-114.851	-0.195	-0.037
-383.975	-106.098	0.484	-0.107
-382.960	-200.000	0.011	-0.185
-381.946	214.032	0.097	-0.152
-380.931	-100.411	-0.229	0.056
-379.917	800.000	-0.122	-0.336
-378.902	-62.257	-0.048	0.020
-377.888	800.000	-0.067	0.245
-376.873	-200.000	0.064	0.295
-375.858	-67.744	0.235	-0.091
-374.844	60.579	-0.128	0.125
-373.829	329.921	0.062	0.118
-372.815	345.051	0.159	-0.308
-371.800	-200.000	-0.009	0.333
-370.785	-85.181	0.348	0.107
-369.771	144.232	0.142	-0.188
-368.756	-141.382	-0.291	0.029
-367.742	-99.044	0.145	0.036
-366.727	94.592	-0.090	0.101
-365.712	344.425	-0.169	0.327
-364.698	469.231	0.124	0.275
-363.683	800.000	-0.013	0.057
-362.669	-124.571	-0.074	-0.011
-361.654	736.862	-0.045	-0.118
-360.639	249.714	0.221	-0.369
-359.625	-60.486	0.401	0.168
-358.610	800.000	0.021	0.087
-357.596	678.988	-0.075	0.192
-356.581	16.995	0.064	0.050
-355.566	-141.132	-0.040	0.004
-354.552	-97.600	0.367	-0.094
-353.537	44.269	-0.129	-0.117
-352.523	-31.332	0.216	-0.120
-351.508	162.000	0.173	0.239
-350.493	440.471	0.072	0.156
-349.479	137.656	-0.178	-0.230
-348.464	251.254	0.262	0.440
-347.450	-52.858	0.214	0.097
-346.435	240.208	0.124	0.203
-345.420	-200.000	-0.064	0.308
-344.406	800.000	0.059	-0.184
-343.391	164.953	0.333	0.463
-342.377	-200.000	-0.037	-0.238
-341.362	287.907	-0.111	0.197
-340.348	187.073	0.099	0.145
-339.333	-200.000	0.006	0.475
-338.318	800.000	-0.066	0.277
-337.304	-200.000	0.032	0.340
-336.289	-200.000	-0.010	-0.103
-335.275	3.036	0.067	0.048
-334.260	800.000	-0.073	0.247
-333.245	154.726	-0.163	-0.220
-332.231	800.000	-0.054	0.195
-331.216	-76.226	-0.176	-0.061
-330.202	-56.172	-0.157	0.069
-329.187	-96.495	-0.106	-0.028
-328.172	-97.372	0.220	-0.057
-327.158	800.000	0.100	0.296
-326.143	800.000	0.053	-0.185
-325.129	224.483	0.125	0.200
-324.114	-77.345	0.241	0.082
-323.099	-200.000	0.027	0.196
-322.085	-147.225	0.238	0.020
-321.070	93.302	-0.090	-0.100
-320.056	-200.000	0.211	-0.000
-319.041	-98.639	-0.464	-0.117
-318.026	118.543	0.071	0.086
-317.012	-57.593	-0.215	-0.093
-315.997	167.279	-0.237	-0.331
-314.983	112.445	0.191	0.227
-313.968	657.380	0.087	0.221
-312.953	44.836	0.152	0.137
-311.939	800.000	0.048	-0.196
-310.924	-36.690	0.179	0.095
-309.910	97.333	-0.178	0.201
-308.895	-35.905	0.364	0.194
-307.880	-175.204	-0.222	-0.006
-306.866	82.991	0.195	0.209
-305.851	796.621	0.028	-0.077
-304.837	-66.206	0.092	-0.036
-303.822	-39.814	0.164	0.085
-302.807	800.000	-0.048	-0.147
-301.793	-70.712	0.340	-0.126
-300.778	-55.368	0.095	0.042
-299.764	-44.254	-0.191	-0.094
-298.749	-8.172	-0.330	-0.218
-297.735	478.648	-0.100	-0.224
-296.720	280.268	0.113	0.198
-295.705	-25.813	0.266	0.154
-294.691	619.238	0.063	0.156
-293.676	72.309	-0.302	0.309
-292.662	-140.660	-0.048	0.005
-291.647	167.592	0.109	-0.152
-290.632	-138.606	0.293	0.032
-289.618	-37.597	-0.063	-0.033
-288.603	-200.000	-0.034	-0.165
-287.589	-144.613	0.122	-0.011
-286.574	-72.934	0.201	0.073
-285.559	445.014	-0.117	0.252
-284.545	-200.000	0.037	-0.458
-283.530	-116.744	-0.221	-0.040
-282.516	263.535	-0.108	-0.185
-281.501	-8.250	0.066	-0.044
-280.486	-104.237	0.181	0.041
-279.472	709.603	0.059	-0.153
-278.457	-200.000	0.052	-0.436
-277.443	-200.000	0.003	-0.311
-276.428	800.000	0.110	0.376
-275.413	-159.531	-0.351	0.019
-274.399	490.886	0.153	0.343
-273.384	219.412	0.141	0.221
-272.370	-115.480	-0.176	0.033
-271.355	-200.000	0.001	-0.108
-270.340	-200.000	0.021	-0.182
-269.326	12.984	-0.226	0.172
-268.311	-200.000	0.044	0.209
-267.297	-200.000	-0.032	0.236
-266.282	611.305	0.104	-0.254
-265.267	157.575	-0.137	0.186
-264.253	25.555	0.138	0.113
-263.238	111.382	0.349	0.414
-262.224	-105.176	0.246	0.055
-261.209	386.433	0.172	-0.348
-260.195	48.095	-0.273	0.250
-259.180	-200.000	0.001	-0.035
-258.165	-3.053	-0.476	-0.326
-257.151	255.356	-0.100	0.169
-256.136	625.419	0.073	0.180
-255.122	-19.771	-0.213	0.129
-254.107	77.625	0.145	0.152
-253.092	-47.479	-0.109	0.052
-252.078	-138.090	0.313	0.034
-251.063	-141.641	-0.325	0.032
-250.049	-31.301	0.205	0.113
-249.034	-200.000	-0.360	0.002
-248.019	119.594	0.275	0.335
-247.005	99.397	0.068	0.077
-245.990	446.861	-0.114	-0.246
-244.976	394.049	0.012	0.025
-243.961	-5.886	-0.186	0.125
-242.946	-45.272	-0.256	-0.125
-241.932	800.000	-0.099	-0.315
-240.917	-141.636	-0.100	0.010
-239.903	116.743	-0.032	-0.039
-238.888	-29.404	0.222	0.125
-237.873	39.282	0.083	0.073
-236.859	800.000	0.110	0.401
-235.844	260.012	0.163	0.276
-234.830	122.961	-0.188	-0.231
-233.815	147.739	0.063	0.084
-232.800	314.527	0.084	0.156
-231.786	443.926	-0.087	-0.188
-230.771	800.000	-0.075	0.224
-229.757	173.997	-0.203	0.288
-228.742	81.742	0.073	-0.077
-227.727	322.565	-0.174	-0.325
-226.713	-142.719	0.207	0.020
-225.698	135.912	-0.078	0.099
-224.684	-40.131	-0.293	-0.150
-223.669	-89.836	-0.510	-0.146
-222.655	269.321	0.068	0.118
-221.640	173.668	-0.089	0.126
-220.625	-28.819	-0.294	0.166
-219.611	-200.000	0.026	-0.140
-218.596	206.483	-0.091	-0.138
-217.582	800.000	-0.120	-0.342
-216.567	102.661	-0.236	-0.270
-215.552	-85.989	0.340	0.103
-214.538	-200.000	-0.011	0.189
-213.523	-200.000	0.011	0.151
-212.509	-200.000	-0.069	-0.348
-211.494	788.515	-0.112	-0.300
-210.479	278.952	0.222	-0.387
-209.465	-103.745	-0.377	0.087
-208.450	-42.124	0.376	0.188
-207.436	-131.535	0.068	0.009
-206.421	-26.470	0.251	-0.144
-205.406	-42.749	0.358	-0.179
-204.392	-114.778	0.400	-0.075
-203.377	442.577	-0.059	-0.126
-202.363	800.000	-0.020	0.063
-201.348	-53.753	-0.229	0.103
-200.333	203.026	-0.053	0.080
-199.319	800.000	-0.062	-0.216
-198.304	410.782	0.234	-0.487
-197.290	-68.348	0.094	0.036
-196.275	-116.587	0.279	0.050
-195.260	-87.347	-0.221	0.066
-194.246	-25.723	0.148	-0.085
-193.231	-79.669	-0.240	0.079
-192.217	800.000	0.072	0.194
-191.202	-39.403	0.236	0.121
-190.187	366.736	0.142	0.281
-189.173	207.551	0.121	-0.185
-188.158	800.000	-0.102	0.335
-187.144	-11.128	0.494	-0.319
-186.129	174.406	-0.116	0.164
-185.114	39.316	-0.070	0.061
-184.100	-8.978	0.048	-0.032
-183.085	-168.726	-0.348	-0.013
-182.071	-115.157	-0.058	-0.011
-181.056	-92.809	0.255	0.070
-180.042	109.923	0.146	-0.171
-179.027	-200.000	-0.004	0.138
-178.012	-117.827	-0.095	0.017
-176.998	-200.000	-0.012	-0.141
-175.983	200.151	-0.069	0.103
-174.969	54.200	-0.277	-0.261
-173.954	800.000	0.124	-0.384
-172.939	46.303	0.050	-0.046
-171.925	-47.039	-0.088	0.042
-170.910	-200.000	0.010	0.158
-169.896	34.100	-0.106	0.090
-168.881	155.472	0.301	0.406
-167.866	72.909	0.179	0.183
-166.852	117.922	0.082	0.099
-165.837	192.973	-0.088	-0.130
-164.823	-132.256	0.309	-0.039
-163.808	-43.608	-0.191	-0.094
-162.793	-18.054	0.205	-0.126
-161.779	-200.000	-0.027	-0.333
-160.764	800.000	0.089	-0.278
-159.750	710.893	-0.155	-0.401
-158.735	-200.000	-0.020	0.125
-157.720	800.000	0.075	0.237
-156.706	-56.579	0.189	-0.082
-155.691	-97.575	-0.142	-0.036
-154.677	24.258	0.050	-0.040
-153.662	158.349	0.121	0.165
-152.647	-114.601	0.276	-0.052
-151.633	-200.000	-0.011	-0.055
-150.618	-200.000	-0.013	0.416
-149.604	156.717	0.255	0.344
-148.589	-174.451	-0.143	0.004
-147.574	-108.244	-0.197	0.042
-146.560	-109.093	-0.127	-0.026
-145.545	-28.412	0.261	0.147
-144.531	416.000	0.072	-0.150
-143.516	-113.866	0.419	-0.080
-142.502	-23.946	0.167	0.098
-141.487	182.599	0.274	-0.396
-140.472	-115.367	0.283	-0.052
-139.458	232.510	0.032	0.052
-138.443	-137.331	0.165	0.018
-137.429	-7.304	0.399	-0.264
-136.414	800.000	0.083	0.287
-135.399	-25.927	0.154	0.088
-134.385	-200.000	0.011	0.096
-133.370	-126.785	0.412	0.059
-132.356	579.572	0.119	0.285
-131.341	-73.862	-0.096	0.034
-130.326	274.353	-0.133	0.231
-129.312	-30.658	-0.229	0.127
-128.297	438.987	-0.145	0.310
-127.283	-39.454	0.539	-0.276
-126.268	-173.955	0.088	0.003
-125.253	-159.669	0.479	0.026
-124.239	-87.652	-0.130	0.038
-123.224	435.140	-0.086	-0.183
-122.210	145.084	0.070	-0.091
-121.195	-200.000	0.077	0.337
-120.180	2.504	0.263	0.186
-119.166	-98.599	-0.033	0.008
-118.151	-14.813	0.194	0.122
-117.137	-131.052	0.344	0.045
-116.122	78.080	-0.255	-0.265
-115.107	-106.132	0.327	0.072
-114.093	51.009	-0.134	0.124
-113.078	-77.271	0.104	0.035
-112.064	627.000	-0.054	0.133
-111.049	800.000	0.042	0.142
-110.034	22.511	0.303	0.242
-109.020	467.134	-0.155	0.339
-108.005	-36.856	-0.295	0.155
-106.991	-15.113	0.290	0.181
-105.976	-95.589	-0.300	0.078
-104.962	44.091	0.122	0.109
-103.947	117.356	-0.179	0.214
-102.932	-144.230	0.313	0.029
-101.918	-200.000	0.034	0.215
-100.903	-41.214	-0.039	0.020
-99.889	290.360	-0.032	0.056
-98.874	-146.268	-0.293	0.025
-97.859	-101.900	0.270	-0.064
-96.845	-157.903	-0.068	0.004
-95.830	222.959	-0.066	-0.103
-94.816	-200.000	-0.011	-0.408
-93.801	-200.000	0.064	0.291
-92.786	-152.172	-0.201	-0.014
-91.772	69.609	0.019	-0.020
-90.757	-52.954	-0.193	-0.087
-89.743	800.000	-0.047	0.171
-88.728	288.587	-0.165	0.293
-87.713	15.760	-0.122	-0.094
-86.699	-106.385	-0.152	0.033
-85.684	375.116	0.095	0.189
-84.670	-177.153	-0.246	0.006
-83.655	-200.000	0.028	0.176
-82.640	225.029	-0.052	-0.082
-81.626	50.338	0.204	-0.188
-80.611	460.174	0.171	-0.372
-79.597	-115.153	-0.242	-0.045
-78.582	-51.288	-0.028	-0.013
-77.567	-200.000	-0.007	0.245
-76.553	800.000	0.136	0.451
-75.538	-155.899	-0.390	0.024
-74.524	28.770	0.441	0.364
-73.509	800.000	0.077	0.317
-72.494	800.000	0.035	-0.122
-71.480	223.231	-0.131	-0.206
-70.465	-16.355	0.236	0.146
-69.451	622.305	-0.069	-0.169
-68.436	-200.000	-0.045	0.290
-67.422	383.471	0.128	0.257
-66.407	-95.177	-0.306	-0.080
-65.392	166.972	0.272	-0.377
-64.378	124.158	-0.179	-0.219
-63.363	-200.000	-0.026	-0.313
-62.349	-200.000	-0.035	0.236
-61.334	127.430	-1.085	-1.342
-60.319	71.093	0.799	0.807
-59.305	187.121	-0.857	-1.245
-58.290	401.365	0.684	1.399
-57.276	800.000	0.524	1.550
-56.261	-200.000	136.621	675.726
-55.246	336.113	1678.197	3173.702
-54.232	134.120	2803.019	3539.164
-53.217	87.111	2171.901	2339.110
-52.203	31.924	1602.715	1345.363
-51.188	24.011	1352.185	1086.905
-50.173	21.725	1316.576	1044.630
-49.159	49.321	1390.501	1274.123
-48.144	45.551	1399.111	1258.839
-47.130	24.072	1346.719	1082.709
-46.115	20.878	1327.709	1048.200
-45.100	20.682	1322.603	1042.953
-44.086	20.650	1319.641	1040.381
-43.071	20.693	1317.061	1038.567
-42.057	20.536	1315.397	1036.280
-41.042	20.540	1313.735	1034.948
-40.027	20.792	1312.000	1035.040
-39.013	20.628	1310.414	1032.774
-37.998	20.707	1308.585	1031.760
-36.984	20.806	1306.894	1030.970
-35.969	20.628	1305.568	1028.830
-34.954	20.770	1303.617	1028.091
-33.940	20.755	1302.134	1026.795
-32.925	20.830	1300.800	1026.145
-31.911	20.789	1299.348	1024.718
-30.896	20.858	1297.975	1023.999
-29.881	20.861	1296.822	1023.064
-28.867	20.837	1295.193	1021.599
-27.852	20.874	1293.564	1020.491
-26.838	20.814	1292.412	1019.189
-25.823	20.872	1291.138	1018.483
-24.809	20.882	1289.514	1017.219
-23.794	20.844	1288.511	1016.165
-22.779	20.805	1287.737	1015.287
-21.765	20.808	1286.248	1014.093
-20.750	20.813	1285.014	1013.109
-19.736	20.722	1283.580	1011.411
-18.721	20.722	1282.598	1010.596
-17.706	20.725	1281.765	1009.913
-16.692	20.739	1280.125	1008.666
-15.677	20.720	1279.413	1007.951
-14.663	20.765	1277.741	1006.857
-13.648	20.615	1277.192	1005.517
-12.633	20.626	1276.455	1004.957
-11.619	20.665	1275.515	1004.406
-10.604	20.744	1274.796	1004.255
-9.590	20.808	1273.473	1003.540
-8.575	20.686	1272.453	1001.996
-7.560	20.628	1271.647	1000.987
-6.546	20.766	1270.937	1001.180
-5.531	20.614	1269.980	999.517
-4.517	20.788	1269.247	999.898
-3.502	20.728	1268.472	998.907
-2.487	20.748	1267.304	998.058
-1.473	20.713	1262.925	994.372
-0.458	19.068	1247.626	972.995
0.556	14.512	1232.423	935.293
1.571	10.937	1240.706	921.275
2.586	10.321	1256.275	929.222
3.600	10.533	1243.935	921.218
4.615	8.031	1171.849	854.353
5.629	3.072	1102.670	778.775
6.644	0.790	1086.986	756.229
7.659	0.642	1085.225	754.199
8.673	0.566	1084.130	752.994
9.688	0.602	1082.964	752.297
10.702	0.721	1080.710	751.253
11.717	3.670	1083.699	767.949
12.731	10.196	1091.809	806.235
13.746	15.344	1098.871	837.132
14.761	17.177	1101.208	847.998
15.775	16.416	1099.924	843.141
16.790	15.684	1097.258	837.375
17.804	14.855	1095.767	832.040
18.819	14.487	1094.882	829.464
19.834	14.295	1093.883	827.682
20.848	14.083	1092.570	825.560
21.863	13.794	1092.042	823.652
22.877	13.693	1091.402	822.599
23.892	13.664	1090.444	821.658
24.907	13.618	1089.771	820.852
25.921	13.616	1089.319	820.430
26.936	13.702	1087.853	819.677
27.950	13.726	1087.096	819.151
28.965	13.896	1085.539	818.746
29.980	13.847	1084.446	817.605
30.994	13.979	1083.577	817.528
32.009	13.904	1082.427	816.219
33.023	13.865	1081.608	815.337
34.038	13.891	1080.614	814.645
35.053	13.764	1079.989	813.480
36.067	13.822	1078.723	812.735
37.082	13.906	1078.173	812.661
38.096	13.794	1077.029	811.181
39.111	13.836	1076.629	811.011
40.126	13.817	1075.071	809.674
41.140	13.649	1074.067	808.028
42.155	13.601	1073.139	807.024
43.169	13.601	1072.218	806.259
44.184	13.642	1071.099	805.545
45.199	13.623	1069.836	804.434
46.213	13.697	1068.908	804.021
47.228	13.743	1067.537	803.146
48.242	13.778	1066.675	802.593
49.257	13.804	1065.258	801.581
50.271	13.834	1064.674	801.216
51.286	13.794	1063.761	800.263
52.301	13.879	1062.397	799.579
53.315	13.748	1062.073	798.635
54.330	13.733	1061.112	797.768
55.344	13.637	1059.916	796.335
56.359	13.659	1059.310	795.916
57.374	13.697	1058.192	795.187
58.388	13.641	1057.795	794.552
59.403	13.688	1056.506	793.736
60.417	13.602	1056.199	793.025
61.432	13.651	1054.928	792.232
62.447	13.644	1054.225	791.602
63.461	13.562	1053.369	790.498
64.476	13.578	1052.063	789.527
65.490	13.543	1051.956	789.208
66.505	13.582	1051.089	788.673
67.520	13.619	1050.071	788.017
68.534	13.683	1049.339	787.700
69.549	13.678	1048.425	786.922
70.563	13.648	1047.667	786.140
71.578	13.657	1046.801	785.464
72.593	13.541	1046.285	784.457
73.607	13.495	1045.781	783.795
74.622	13.482	1044.937	783.029
75.636	13.640	1044.048	783.043
76.651	13.563	1043.428	782.144
77.666	13.544	1042.799	781.512
78.680	13.586	1041.964	781.015
79.695	13.582	1041.430	780.528
80.709	13.591	1040.842	780.061
81.724	13.665	1039.976	779.689
82.739	13.733	1039.719	779.749
83.753	13.728	1038.783	778.953
84.768	13.833	1037.630	778.511
85.782	13.876	1036.385	777.713
86.797	13.833	1036.217	777.316
87.812	13.839	1034.982	776.347
88.826	13.789	1033.830	775.183
89.841	13.746	1032.424	773.858
90.855	13.819	1031.961	773.781
91.870	13.799	1031.125	772.997
92.884	13.944	1030.239	772.938
93.899	13.819	1029.842	771.988
94.914	13.847	1028.895	771.340
95.928	13.829	1028.363	770.791
96.943	13.878	1026.968	769.902
97.957	13.859	1026.169	769.147
98.972	13.852	1025.424	768.490
99.987	13.906	1024.271	767.807
101.001	13.883	1023.380	766.965
102.016	13.909	1022.492	766.350
103.030	13.778	1022.171	765.440
104.045	13.819	1020.825	764.551
105.060	13.852	1020.083	764.079
106.074	13.682	1019.474	762.776
107.089	13.847	1017.905	762.291
108.103	13.730	1017.240	761.190
109.118	13.682	1016.487	760.338
110.133	13.776	1015.527	759.985
111.147	13.723	1014.386	758.820
112.162	13.869	1013.316	758.620
113.176	13.885	1012.786	758.228
114.191	13.801	1012.593	757.632
115.206	13.686	1011.897	756.519
116.220	13.861	1010.658	756.323
117.235	13.860	1009.668	755.512
118.249	13.805	1008.829	754.570
119.264	13.848	1008.066	754.126
120.279	13.786	1007.235	753.156
121.293	13.749	1006.534	752.398
122.308	13.817	1005.548	751.900
123.322	13.745	1004.373	750.631
124.337	13.803	1002.960	749.773
125.352	13.784	1002.355	749.169
126.366	13.701	1001.369	747.990
127.381	13.720	1000.261	747.181
128.395	13.842	999.478	747.077
129.410	13.711	998.293	745.538
130.424	13.792	997.739	745.421
131.439	13.783	997.027	744.786
132.454	13.875	996.049	744.401
133.468	13.709	995.182	742.945
134.483	13.827	994.476	742.879
135.497	13.773	993.328	741.714
136.512	13.885	992.567	741.582
137.527	13.794	991.580	740.370
138.541	13.780	991.002	739.810
139.556	13.777	990.639	739.461
140.570	13.935	989.205	739.029
141.585	13.847	988.750	738.232
142.600	13.948	987.754	737.872
143.614	13.973	986.827	737.223
144.629	13.949	986.343	736.690
145.643	14.029	985.006	735.983
146.658	14.007	984.012	735.075
147.673	14.045	983.109	734.507
148.687	13.942	982.308	733.386
149.702	13.939	981.492	732.700
150.716	13.883	980.872	731.924
151.731	13.844	980.411	731.345
152.746	13.963	979.278	730.957
153.760	14.078	978.765	731.015
154.775	14.036	978.422	730.513
155.789	14.031	977.258	729.556
156.804	14.025	976.763	729.097
157.819	14.113	975.906	728.777
158.833	14.061	975.796	728.401
159.848	14.198	974.345	727.852
160.862	14.201	973.462	727.142
161.877	14.096	972.677	726.034
162.892	14.140	971.458	725.254
163.906	14.105	970.684	724.459
164.921	14.050	970.295	723.862
165.935	14.157	969.275	723.504
166.950	14.056	968.515	722.434
167.964	14.147	967.899	722.306
168.979	14.169	966.265	721.117
169.994	14.087	965.713	720.288
171.008	14.187	964.909	720.056
172.023	14.258	964.108	719.703
173.037	14.310	963.288	719.248
174.052	14.197	963.118	718.572
175.067	14.214	962.077	717.806
176.081	14.062	961.746	716.839
177.096	14.221	961.068	716.954
178.110	14.218	960.613	716.538
179.125	14.123	960.170	715.736
180.140	14.115	959.705	715.293
181.154	14.202	959.252	715.267
182.169	14.159	958.262	714.278
183.183	14.450	957.525	714.913
184.198	14.479	956.450	714.172
185.213	14.427	955.566	713.227
186.227	14.490	954.862	712.908
187.242	14.426	954.788	712.518
188.256	14.417	953.841	711.708
189.271	14.431	952.909	711.010
190.286	14.315	952.411	710.080
191.300	14.328	951.577	709.452
192.315	14.270	951.318	708.948
193.329	14.417	950.540	708.930
194.344	14.351	949.971	708.162
195.359	14.411	948.884	707.544
196.373	14.420	948.262	707.057
197.388	14.538	947.913	707.234
198.402	14.678	947.211	707.243
199.417	14.685	946.913	706.988
200.432	14.631	946.044	706.046
201.446	14.751	945.923	706.402
202.461	14.707	945.143	705.571
203.475	14.652	944.690	704.935
204.490	14.757	943.581	704.490
205.504	14.640	943.147	703.609
206.519	14.690	942.216	703.064
207.534	14.721	941.684	702.734
208.548	14.645	941.073	701.896
209.563	14.752	940.463	701.829
210.577	14.708	939.745	701.046
211.592	14.730	939.155	700.639
212.607	14.846	938.063	700.247
213.621	14.828	937.388	699.607
214.636	14.795	936.794	698.963
215.650	14.930	935.981	698.859
216.665	14.851	935.501	698.110
217.680	14.837	934.801	697.467
218.694	14.945	933.871	697.161
219.709	14.928	933.587	696.814
220.723	14.941	932.577	696.053
221.738	14.899	931.976	695.371
222.753	14.966	931.180	694.993
223.767	14.962	930.397	694.332
224.782	15.018	929.959	694.176
225.796	15.039	929.620	693.945
226.811	15.010	928.909	693.234
227.826	14.987	928.154	692.513
228.840	15.015	927.540	692.110
229.855	14.884	926.897	691.030
230.869	15.041	925.808	690.804
231.884	15.148	924.849	690.467
232.899	14.976	924.279	689.273
233.913	15.021	923.364	688.714
234.928	15.022	923.040	688.415
235.942	15.057	922.461	688.066
236.957	15.076	921.843	687.622
237.972	15.042	921.331	687.041
238.986	15.043	920.414	686.300
240.001	15.017	920.312	686.057
241.015	14.917	919.393	684.900
242.030	15.098	918.488	684.906
243.045	15.084	917.970	684.405
244.059	15.202	917.238	684.280
245.074	15.175	916.597	683.631
246.088	15.302	915.929	683.590
247.103	15.235	915.175	682.691
248.117	15.214	915.005	682.420
249.132	15.301	914.510	682.346
250.147	15.428	913.519	682.063
251.161	15.406	912.596	681.223
252.176	15.426	911.971	680.777
253.190	15.582	911.481	680.985
254.205	15.466	911.020	680.107
255.220	15.418	910.509	679.472
256.234	15.388	909.859	678.806
257.249	15.560	909.062	678.845
258.263	15.521	908.520	678.226
259.278	15.556	907.448	677.504
260.293	15.557	907.139	677.217
261.307	15.701	906.389	677.178
262.322	15.681	905.954	676.712
263.336	15.721	905.090	676.169
264.351	15.615	904.517	675.253
265.366	15.723	903.598	674.944
266.380	15.841	903.217	675.070
267.395	15.798	902.221	674.097
268.409	15.757	901.665	673.458
269.424	15.622	901.026	672.378
270.439	15.627	900.203	671.726
271.453	15.723	899.274	671.357
272.468	15.695	899.138	671.084
273.482	15.801	898.571	671.022
274.497	15.843	897.829	670.577
275.512	15.810	897.075	669.823
276.526	15.954	896.620	669.998
277.541	15.912	896.201	669.458
278.555	15.874	895.460	668.696
279.570	15.810	894.602	667.740
280.585	15.928	893.823	667.566
281.599	15.870	893.039	666.693
282.614	15.973	892.192	666.411
283.628	15.933	891.738	665.853
284.643	15.851	891.481	665.278
285.657	16.151	890.881	665.956
286.672	16.025	889.841	664.624
287.687	16.139	889.488	664.751
288.701	16.047	889.357	664.230
289.716	16.057	888.474	663.551
290.730	16.109	887.807	663.201
291.745	16.082	887.138	662.536
292.760	16.063	886.732	662.098
293.774	16.167	886.046	661.937
294.789	16.169	885.062	661.149
295.803	16.199	884.691	660.931
296.818	16.187	883.827	660.183
297.833	16.188	882.791	659.354
298.847	16.235	882.306	659.115
299.862	16.119	882.072	658.428
300.876	16.222	881.552	658.384
301.891	16.207	881.120	657.944
302.906	16.266	880.651	657.768
303.920	16.326	879.655	657.197
304.935	16.357	878.975	656.751
305.949	16.337	878.489	656.253
306.964	16.343	877.749	655.666
307.979	16.426	877.407	655.674
308.993	16.450	876.694	655.176
310.008	16.451	876.123	654.695
311.022	16.541	875.210	654.306
312.037	16.318	875.214	653.388
313.052	16.364	874.702	653.125
314.066	16.434	873.934	652.763
315.081	16.317	873.738	652.108
316.095	16.317	873.014	651.512
317.110	16.343	872.383	651.081
318.125	16.428	871.884	650.977
319.139	16.287	871.742	650.274
320.154	16.412	871.001	650.145
321.168	16.538	870.096	649.895
322.183	16.484	869.576	649.241
323.197	16.509	869.303	649.077
324.212	16.544	868.398	648.476
325.227	16.646	867.844	648.398
326.241	16.562	867.116	647.473
327.256	16.517	866.702	646.937
328.270	16.517	866.144	646.460
329.285	16.470	865.786	645.958
330.300	16.499	865.165	645.548
331.314	16.452	864.851	645.076
332.329	16.575	864.071	644.905
333.343	16.755	863.745	645.291
334.358	16.665	863.408	644.640
335.373	16.699	863.036	644.434
336.387	16.681	862.261	643.731
337.402	16.768	862.215	643.969
338.416	16.734	861.767	643.451
339.431	16.666	861.806	643.163
340.446	16.781	860.969	642.918
341.460	16.817	860.502	642.649
342.475	16.892	860.405	642.804
343.489	16.792	859.721	641.857
344.504	17.060	859.116	642.363
345.519	17.055	858.707	641.982
346.533	16.934	858.364	641.212
347.548	16.923	857.452	640.431
348.562	16.920	856.766	639.853
349.577	17.149	855.935	640.038
350.592	16.914	855.691	638.913
351.606	16.859	855.374	638.411
352.621	16.940	854.157	637.752
353.635	16.981	853.333	637.233
354.650	16.973	852.908	636.832
355.665	16.963	852.477	636.416
356.679	17.141	851.497	636.296
357.694	17.132	851.117	635.920
358.708	17.056	850.279	634.953
359.723	16.980	850.200	634.555
360.738	17.265	849.425	634.984
361.752	17.089	848.892	633.874
362.767	17.187	848.200	633.667
363.781	17.157	847.571	633.028
364.796	17.211	847.144	632.856
365.810	17.223	846.866	632.635
366.825	17.330	846.261	632.525
367.840	17.341	846.112	632.400
368.854	17.363	845.173	631.723
369.869	17.323	844.819	631.253
370.883	17.256	844.317	630.575
371.898	17.431	844.223	631.097
372.913	17.475	843.800	630.890
373.927	17.288	843.371	629.821
374.942	17.370	843.081	629.850
375.956	17.555	842.260	629.865
376.971	17.456	841.876	629.158
377.986	17.386	841.323	628.429
379.000	17.628	840.787	628.865
380.015	17.657	840.206	628.484
381.029	17.576	839.815	627.835
382.044	17.699	838.726	627.420
383.059	17.658	838.750	627.233
384.073	17.484	838.250	626.162
385.088	17.453	837.555	625.473
386.102	17.577	836.788	625.299
387.117	17.713	836.444	625.489
388.132	17.609	835.612	624.430
389.146	17.610	835.332	624.166
390.161	17.588	834.725	623.578
391.175	17.745	834.219	623.720
392.190	17.528	833.940	622.662
393.205	17.714	833.270	622.788
394.219	17.812	832.397	622.435
395.234	17.640	832.614	621.917
396.248	17.485	831.892	620.757
397.263	17.642	831.691	621.124
398.278	17.599	831.600	620.842
399.292	17.760	830.735	620.730
400.307	17.611	830.477	619.939
401.321	17.631	829.711	619.385
402.336	17.734	829.315	619.410
403.350	17.802	829.021	619.381
404.365	17.905	828.192	619.082
405.380	17.741	827.750	618.102
406.394	17.890	827.399	618.324
407.409	17.793	827.050	617.656
408.423	17.871	826.980	617.834
409.438	17.953	826.364	617.615
410.453	17.967	826.010	617.345
411.467	17.960	825.281	616.720
412.482	17.799	825.112	615.960
413.496	18.011	824.664	616.335
414.511	18.095	824.236	616.263
415.526	18.149	823.757	616.045
416.540	18.204	823.376	615.904
417.555	18.103	822.803	615.056
418.569	18.138	822.246	614.713
419.584	18.198	821.817	614.553
420.599	18.190	821.270	614.061
421.613	116.111	1301.424	1493.424
422.628	100.802	1371.331	1493.493
