DTS Sentinel unit serial number:	SN413079Multiplexer serial number:	ORYXHardware model number:	OX4-SRSoftware version number:	ORYX F/W v4.00 Oryx Data Collector v3.7.2.0data status	okinstallation	princeton_trtdifferential loss correction	single-endedforward channel	channel 1reverse channel	N/Adate	2019/09/15time	08:02:35forward acquisition time	60.00reverse acquisition time	0.00gamma	496.2192k internal	0.2324k external	0.2324temperature offset calibration	0.9997default loss term (dB/km)	0.3790temperature slope calibration	1.0000multiplexer offset coefficient	1.0000multiplexer slope coefficient	1.0000fibre end	0.00T internal ref (°C)	30.80T ext. ref 1 (°C)	4.97T ext. ref 2 (°C)	26.68length (m)	temperature (°C)	Stokes	anti-Stokes-747.200	-87.891	0.208	-0.063
-746.185	800.000	-0.025	-0.082
-745.171	-32.172	0.087	-0.049
-744.156	159.036	-0.217	0.305
-743.142	612.118	0.058	-0.146
-742.127	-174.552	0.188	0.005
-741.112	-104.606	-0.078	0.018
-740.098	-35.598	0.189	0.104
-739.083	-16.620	0.224	0.143
-738.069	-14.601	0.310	0.201
-737.054	-69.218	0.294	0.114
-736.039	-61.890	-0.094	0.040
-735.025	96.610	0.056	0.065
-734.010	-29.767	-0.274	0.158
-732.996	164.600	-0.110	0.156
-731.981	1.494	0.176	-0.127
-730.966	-200.000	-0.022	-0.214
-729.952	636.756	0.081	0.208
-728.937	185.218	-0.029	-0.043
-727.923	-103.208	-0.158	0.038
-726.908	-68.907	0.455	0.177
-725.894	261.857	-0.255	-0.446
-724.879	-20.110	0.073	0.045
-723.864	-89.654	0.116	0.034
-722.850	42.699	-0.227	-0.209
-721.835	192.436	-0.098	0.149
-720.821	-181.589	0.323	0.006
-719.806	2.691	-0.049	-0.036
-718.791	107.399	0.047	-0.057
-717.777	-23.386	-0.083	-0.050
-716.762	-84.769	0.077	-0.025
-715.748	47.244	-0.199	-0.187
-714.733	800.000	-0.026	-0.108
-713.718	-22.519	0.163	-0.100
-712.704	231.743	-0.159	0.264
-711.689	140.349	0.025	-0.033
-710.675	76.889	-0.288	0.308
-709.660	148.019	0.061	-0.083
-708.645	60.604	-0.208	-0.208
-707.631	20.248	0.016	0.013
-706.616	-98.343	0.306	-0.079
-705.602	349.771	-0.051	0.102
-704.587	-7.565	-0.400	-0.273
-703.572	800.000	-0.028	0.107
-702.558	-14.366	-0.121	-0.079
-701.543	800.000	-0.125	-0.380
-700.529	800.000	0.068	-0.193
-699.514	-200.000	-0.030	-0.210
-698.499	-51.253	-0.164	0.077
-697.485	615.384	0.154	0.388
-696.470	-17.407	-0.440	0.279
-695.456	289.551	-0.115	0.210
-694.441	-200.000	-0.046	-0.363
-693.426	800.000	-0.049	-0.169
-692.412	-7.349	0.147	-0.101
-691.397	7.298	0.109	0.082
-690.383	-105.697	-0.260	0.059
-689.368	293.192	-0.125	0.230
-688.354	158.401	0.179	0.250
-687.339	-72.767	-0.419	0.155
-686.324	-132.568	0.135	0.017
-685.310	-122.035	-0.065	0.011
-684.295	26.915	0.167	-0.141
-683.281	-111.466	0.134	-0.028
-682.266	-200.000	0.022	-0.195
-681.251	-92.873	-0.214	-0.060
-680.237	73.556	-0.112	-0.118
-679.222	771.551	0.048	-0.131
-678.208	34.700	-0.302	-0.266
-677.193	800.000	0.060	-0.264
-676.178	-149.780	0.170	-0.013
-675.164	61.421	-0.186	0.186
-674.149	-200.000	-0.043	-0.239
-673.135	-67.949	-0.084	-0.033
-672.120	67.893	-0.203	0.209
-671.105	-0.505	-0.283	-0.202
-670.091	-25.491	-0.071	-0.042
-669.076	800.000	-0.028	-0.108
-668.062	-59.511	-0.017	0.007
-667.047	-200.000	0.026	-0.274
-666.032	-103.216	0.172	0.041
-665.018	-200.000	-0.012	0.250
-664.003	222.251	-0.118	-0.190
-662.989	32.146	0.154	-0.134
-661.974	58.317	0.068	0.068
-660.959	120.502	-0.081	0.101
-659.945	-179.064	-0.102	0.002
-658.930	-137.285	-0.228	0.026
-657.916	167.406	-0.155	0.222
-656.901	-14.994	-0.424	0.274
-655.886	-200.000	-0.003	0.134
-654.872	80.238	0.073	-0.080
-653.857	800.000	-0.092	0.304
-652.843	99.069	0.270	0.314
-651.828	189.285	0.198	-0.298
-650.814	115.852	0.161	0.198
-649.799	800.000	0.085	-0.303
-648.784	800.000	0.080	-0.257
-647.770	-29.984	0.284	-0.162
-646.755	89.371	-0.053	-0.059
-645.741	115.016	-0.114	0.140
-644.726	-200.000	-0.012	0.315
-643.711	182.061	0.027	0.041
-642.697	-137.949	-0.214	0.024
-641.682	-37.722	0.127	-0.068
-640.668	36.846	0.043	0.038
-639.653	-200.000	0.087	0.415
-638.638	763.196	-0.054	-0.148
-637.624	-200.000	0.019	0.100
-636.609	-58.289	0.010	0.005
-635.595	-107.696	-0.388	0.085
-634.580	22.411	0.144	-0.119
-633.565	-33.776	0.158	-0.088
-632.551	483.470	-0.168	-0.385
-631.536	-79.146	0.307	-0.105
-630.522	179.565	-0.205	0.302
-629.507	5.972	-0.178	0.133
-628.492	54.109	-0.110	0.106
-627.478	150.855	-0.198	0.271
-626.463	800.000	0.029	-0.091
-625.449	-200.000	-0.012	-0.284
-624.434	-146.427	-0.084	-0.007
-623.419	-140.792	-0.226	0.023
-622.405	-152.849	0.068	0.005
-621.390	-17.706	0.109	0.069
-620.376	-129.908	0.072	0.010
-619.361	800.000	0.037	-0.112
-618.346	206.535	0.085	0.133
-617.332	-120.529	-0.233	-0.040
-616.317	-31.917	0.114	-0.064
-615.303	800.000	-0.082	-0.298
-614.288	-68.111	0.180	0.070
-613.273	-92.294	-0.047	0.013
-612.259	195.575	-0.029	0.044
-611.244	47.450	-0.083	-0.078
-610.230	-200.000	-0.001	-0.249
-609.215	-15.609	-0.183	0.117
-608.201	-57.434	-0.296	-0.130
-607.186	424.535	0.096	0.206
-606.171	-74.496	-0.325	0.118
-605.157	201.635	0.041	-0.063
-604.142	-200.000	-0.020	-0.200
-603.128	-94.292	-0.214	0.059
-602.113	-43.962	0.338	0.170
-601.098	39.726	-0.154	-0.138
-600.084	-200.000	0.009	-0.272
-599.069	-91.685	-0.103	0.029
-598.055	-86.137	0.258	-0.080
-597.040	117.719	0.171	0.211
-596.025	-52.651	0.078	-0.036
-595.011	-28.584	-0.293	0.170
-593.996	22.952	-0.048	-0.040
-592.982	-200.000	0.056	-0.269
-591.967	-200.000	0.020	-0.179
-590.952	245.769	-0.058	0.098
-589.938	-200.000	0.022	-0.130
-588.923	204.277	-0.261	0.406
-587.909	92.928	-0.147	0.167
-586.894	517.262	0.121	0.283
-585.879	46.253	0.248	-0.230
-584.865	-200.000	0.047	0.206
-583.850	104.885	-0.066	0.078
-582.836	-140.916	0.071	-0.007
-581.821	-123.435	0.233	-0.037
-580.806	-57.533	0.387	0.170
-579.792	-102.044	-0.132	0.032
-578.777	55.764	-0.302	0.294
-577.763	-17.016	0.180	0.114
-576.748	-200.000	-0.017	-0.211
-575.733	-65.978	0.500	-0.200
-574.719	225.575	0.189	0.307
-573.704	-120.399	0.341	0.058
-572.690	-200.000	-0.010	-0.049
-571.675	-19.572	0.183	-0.114
-570.661	800.000	0.028	0.123
-569.646	312.023	0.130	0.245
-568.631	172.792	-0.166	0.240
-567.617	-115.442	-0.305	-0.058
-566.602	73.471	0.221	-0.232
-565.588	611.282	0.099	-0.247
-564.573	-200.000	-0.034	-0.195
-563.558	-94.243	0.148	-0.040
-562.544	-77.488	-0.176	-0.061
-561.529	298.940	0.135	-0.249
-560.515	-200.000	-0.007	-0.211
-559.500	58.542	-0.071	-0.070
-558.485	-200.000	0.029	-0.371
-557.471	314.724	0.193	-0.365
-556.456	203.870	-0.112	-0.174
-555.442	-36.944	0.284	-0.152
-554.427	30.267	0.176	0.151
-553.412	486.269	0.081	-0.185
-552.398	-15.786	0.028	0.018
-551.383	28.963	-0.110	-0.094
-550.369	-66.820	0.238	-0.094
-549.354	-87.938	-0.138	-0.042
-548.339	-155.065	-0.085	-0.006
-547.325	-83.776	0.154	-0.049
-546.310	15.481	-0.245	-0.193
-545.296	261.242	-0.112	0.194
-544.281	246.084	0.049	-0.083
-543.266	99.994	-0.259	-0.300
-542.252	37.955	0.157	0.140
-541.237	800.000	-0.063	-0.200
-540.223	-109.710	-0.222	-0.047
-539.208	38.562	0.173	0.154
-538.193	-200.000	0.041	-0.393
-537.179	-200.000	-0.021	-0.140
-536.164	66.183	-0.128	0.130
-535.150	-120.388	0.201	-0.034
-534.135	-62.493	-0.300	0.125
-533.121	136.656	0.177	-0.232
-532.106	-46.989	-0.343	0.168
-531.091	41.982	-0.145	0.132
-530.077	113.240	0.140	0.170
-529.062	-200.000	-0.004	-0.184
-528.048	-84.411	0.211	-0.067
-527.033	-200.000	0.002	-0.249
-526.018	5.493	-0.130	0.096
-525.004	-200.000	-0.028	0.291
-523.989	-60.100	-0.112	0.048
-522.975	98.719	-0.193	-0.223
-521.960	-200.000	0.013	-0.293
-520.945	-200.000	0.046	-0.365
-519.931	800.000	0.059	-0.187
-518.916	-110.254	0.232	-0.048
-517.902	698.243	0.093	-0.245
-516.887	-200.000	-0.020	-0.174
-515.872	-58.035	-0.312	-0.136
-514.858	-167.518	-0.459	0.018
-513.843	-200.000	-0.012	0.106
-512.829	800.000	-0.084	0.276
-511.814	-200.000	-0.027	0.170
-510.799	-138.678	-0.204	0.022
-509.785	410.354	0.121	-0.256
-508.770	-200.000	0.010	0.253
-507.756	52.159	-0.076	-0.072
-506.741	-200.000	0.021	-0.404
-505.726	-86.633	-0.185	-0.057
-504.712	134.957	-0.263	0.341
-503.697	32.280	0.188	0.162
-502.683	-2.347	-0.205	-0.144
-501.668	89.226	-0.061	-0.068
-500.653	800.000	0.026	0.082
-499.639	-200.000	-0.298	0.000
-498.624	-200.000	-0.014	0.174
-497.610	155.915	0.072	0.099
-496.595	-106.555	0.199	0.044
-495.581	-200.000	-0.030	-0.163
-494.566	1.586	-0.141	0.102
-493.551	-38.754	-0.162	-0.085
-492.537	-7.600	0.107	-0.072
-491.522	96.075	-0.154	-0.175
-490.508	-84.694	0.192	-0.060
-489.493	-57.842	0.113	0.049
-488.478	181.516	-0.192	-0.282
-487.464	-137.428	-0.062	0.007
-486.449	800.000	-0.021	0.079
-485.435	173.339	-0.268	-0.386
-484.420	165.948	-0.195	0.276
-483.405	800.000	0.028	0.085
-482.391	365.442	0.162	-0.327
-481.376	-200.000	-0.074	0.366
-480.362	123.701	0.063	0.079
-479.347	451.411	0.033	-0.073
-478.332	45.858	-0.132	0.122
-477.318	800.000	0.028	-0.085
-476.303	-95.973	-0.222	0.059
-475.289	11.291	0.106	0.081
-474.274	-183.992	0.297	-0.005
-473.259	-22.139	0.129	0.078
-472.245	-53.006	0.212	0.097
-471.230	-200.000	-0.005	-0.193
-470.216	195.128	-0.122	0.185
-469.201	-78.344	0.073	-0.025
-468.186	-200.000	-0.025	-0.141
-467.172	260.803	0.252	-0.436
-466.157	800.000	-0.083	-0.246
-465.143	-158.304	-0.433	-0.025
-464.128	165.587	-0.326	0.461
-463.113	-133.172	0.554	0.070
-462.099	800.000	-0.098	0.286
-461.084	-200.000	0.013	0.342
-460.070	800.000	-0.071	0.286
-459.055	-77.284	0.419	-0.146
-458.040	-200.000	0.004	-0.232
-457.026	134.972	-0.195	0.253
-456.011	11.851	0.126	-0.096
-454.997	-200.000	0.048	-0.348
-453.982	-200.000	-0.009	0.126
-452.968	-200.000	0.076	0.378
-451.953	-130.087	0.223	0.030
-450.938	-99.387	-0.196	0.049
-449.924	-200.000	-0.012	-0.099
-448.909	-13.144	-0.104	-0.067
-447.895	-120.533	0.286	-0.048
-446.880	-97.129	0.403	0.105
-445.865	-79.629	0.058	0.020
-444.851	-24.575	0.161	0.096
-443.836	-200.000	0.007	0.045
-442.822	469.493	-0.086	-0.192
-441.807	706.770	-0.041	-0.107
-440.792	84.216	0.235	0.256
-439.778	-78.303	0.124	-0.043
-438.763	-136.458	0.234	-0.027
-437.749	-200.000	0.009	-0.145
-436.734	44.061	-0.217	-0.198
-435.719	78.575	0.116	-0.124
-434.705	36.010	0.004	0.003
-433.690	308.398	0.072	0.134
-432.676	-165.765	-0.178	-0.008
-431.661	-102.234	-0.584	0.140
-430.646	-146.132	0.188	-0.017
-429.632	-53.910	0.177	-0.080
-428.617	83.611	0.070	0.076
-427.603	-25.228	0.230	0.136
-426.588	3.455	0.160	-0.116
-425.573	150.060	-0.069	0.093
-424.559	800.000	0.109	0.317
-423.544	-19.067	-0.131	0.081
-422.530	39.816	-0.158	0.141
-421.515	474.144	0.036	0.081
-420.500	800.000	-0.075	0.216
-419.486	-200.000	0.094	0.415
-418.471	36.465	0.144	0.127
-417.457	115.001	0.074	0.090
-416.442	-21.395	-0.197	-0.120
-415.428	71.334	-0.154	0.159
-414.413	-200.000	0.019	-0.268
-413.398	456.366	0.073	-0.161
-412.384	800.000	-0.094	-0.288
-411.369	-200.000	0.005	-0.128
-410.355	153.978	-0.166	-0.227
-409.340	-116.310	-0.247	-0.046
-408.325	-52.600	0.327	0.151
-407.311	-200.000	-0.026	0.199
-406.296	274.898	-0.091	0.161
-405.282	202.478	-0.162	-0.249
-404.267	-200.000	-0.088	0.429
-403.252	-200.000	0.051	-0.223
-402.238	565.813	-0.111	0.269
-401.223	-56.536	0.245	0.108
-400.209	-100.084	0.286	0.071
-399.194	-73.438	-0.069	0.025
-398.179	-200.000	0.057	-0.323
-397.165	-112.228	0.200	0.040
-396.150	-134.455	0.224	0.027
-395.136	164.344	-0.100	0.140
-394.121	172.725	-0.229	-0.329
-393.106	108.204	0.014	0.017
-392.092	800.000	-0.057	0.199
-391.077	242.161	0.085	0.142
-390.063	-110.980	-0.270	0.055
-389.048	-200.000	0.037	0.249
-388.033	-67.345	0.100	-0.039
-387.019	-105.095	0.261	0.059
-386.004	-176.775	0.155	-0.004
-384.990	4.083	-0.116	-0.084
-383.975	407.201	-0.058	0.121
-382.960	-148.432	-0.343	-0.028
-381.946	64.222	0.144	-0.144
-380.931	-102.221	0.370	0.089
-379.917	-194.087	0.336	0.003
-378.902	-138.626	0.239	0.026
-377.888	-200.000	0.015	-0.091
-376.873	357.110	-0.056	-0.111
-375.858	-11.643	0.069	-0.045
-374.844	-200.000	0.051	-0.255
-373.829	89.518	0.058	0.064
-372.815	50.542	-0.254	-0.239
-371.800	-64.704	-0.158	0.064
-370.785	19.364	-0.092	0.074
-369.771	319.504	0.151	0.284
-368.756	-62.156	-0.066	0.027
-367.742	-83.887	0.114	-0.036
-366.727	-200.000	0.008	0.062
-365.712	-200.000	-0.042	-0.253
-364.698	-3.836	0.036	0.025
-363.683	-70.699	-0.308	-0.116
-362.669	-200.000	0.013	-0.062
-361.654	414.920	0.065	-0.138
-360.639	2.610	-0.241	-0.174
-359.625	-129.107	0.252	-0.035
-358.610	-130.936	0.289	-0.038
-357.596	21.849	0.085	-0.069
-356.581	102.059	0.222	-0.258
-355.566	800.000	-0.030	0.125
-354.552	-143.604	0.328	0.031
-353.537	408.908	-0.115	-0.242
-352.523	46.425	0.098	-0.090
-351.508	800.000	-0.110	0.411
-350.493	133.073	0.129	0.165
-349.479	-137.419	0.200	0.023
-348.464	-65.755	-0.090	0.036
-347.450	-36.812	-0.263	-0.140
-346.435	246.452	-0.039	-0.065
-345.420	-200.000	0.012	0.290
-344.406	-200.000	0.011	-0.096
-343.391	623.615	-0.146	0.367
-342.377	800.000	-0.067	-0.278
-341.362	-93.763	-0.155	-0.042
-340.348	99.878	-0.182	0.209
-339.333	-200.000	0.061	-0.413
-338.318	132.348	-0.113	-0.145
-337.304	45.483	0.115	0.106
-336.289	-179.666	-0.251	-0.005
-335.275	800.000	0.060	-0.182
-334.260	-131.100	0.029	0.004
-333.245	36.126	-0.202	-0.176
-332.231	-80.999	-0.316	0.104
-331.216	118.986	-0.089	0.110
-330.202	65.786	-0.163	0.164
-329.187	62.902	-0.071	-0.070
-328.172	309.707	0.277	0.515
-327.158	-200.000	-0.002	-0.058
-326.143	-200.000	0.018	-0.156
-325.129	-149.352	-0.193	-0.015
-324.114	-200.000	0.005	-0.085
-323.099	-28.167	0.162	-0.093
-322.085	49.821	-0.234	0.219
-321.070	800.000	-0.060	-0.259
-320.056	-200.000	-0.044	0.438
-319.041	115.015	-0.244	-0.296
-318.026	211.186	0.129	0.201
-317.012	186.304	-0.111	-0.163
-315.997	86.474	-0.024	-0.026
-314.983	-153.188	-0.317	0.022
-313.968	642.207	0.125	-0.317
-312.953	-200.000	-0.073	-0.431
-311.939	-91.718	-0.103	-0.029
-310.924	4.389	0.069	0.050
-309.910	-200.000	0.029	0.238
-308.895	-193.148	-0.077	0.001
-307.880	-167.539	-0.088	-0.003
-306.866	43.946	0.118	-0.107
-305.851	-25.590	-0.195	-0.114
-304.837	83.968	0.203	0.220
-303.822	-95.264	0.094	0.025
-302.807	76.873	0.261	-0.275
-301.793	800.000	0.003	-0.008
-300.778	-11.526	0.092	0.060
-299.764	-77.895	-0.078	0.027
-298.749	800.000	-0.079	-0.289
-297.735	-61.886	-0.332	-0.138
-296.720	27.407	0.060	-0.050
-295.705	-99.983	-0.213	0.053
-294.691	800.000	-0.067	0.191
-293.676	-156.431	-0.236	0.015
-292.662	-108.813	0.194	-0.041
-291.647	270.910	-0.173	0.303
-290.632	-200.000	0.040	0.255
-289.618	-200.000	0.030	0.487
-288.603	-149.875	-0.252	0.020
-287.589	150.907	-0.177	0.239
-286.574	227.212	-0.089	-0.144
-285.559	800.000	-0.120	0.422
-284.545	-162.977	0.156	-0.007
-283.530	-200.000	-0.017	-0.272
-282.516	-200.000	-0.044	-0.197
-281.501	-88.063	0.444	0.132
-280.486	-70.706	-0.049	0.018
-279.472	-17.809	-0.059	0.037
-278.457	800.000	0.014	0.041
-277.443	-200.000	-0.014	0.364
-276.428	-177.102	0.224	-0.006
-275.413	-200.000	0.030	-0.295
-274.399	-95.536	0.233	0.062
-273.384	370.403	-0.088	0.176
-272.370	62.049	-0.308	0.305
-271.355	800.000	-0.052	-0.170
-270.340	-16.843	0.065	0.041
-269.326	-200.000	0.054	0.343
-268.311	800.000	-0.060	0.179
-267.297	-200.000	0.001	0.080
-266.282	-200.000	0.020	-0.220
-265.267	254.476	-0.092	0.155
-264.253	27.752	-0.226	0.188
-263.238	-162.807	-0.097	-0.005
-262.224	47.036	-0.090	-0.083
-261.209	-73.222	0.235	-0.085
-260.195	7.644	0.331	-0.245
-259.180	800.000	-0.006	-0.020
-258.165	-29.958	0.112	0.063
-257.151	-128.281	0.132	-0.019
-256.136	4.465	0.111	0.081
-255.122	58.223	-0.206	-0.200
-254.107	132.385	0.167	0.213
-253.092	13.522	0.118	0.091
-252.078	800.000	-0.056	0.157
-251.063	-84.357	0.259	-0.081
-250.049	23.061	0.221	-0.180
-249.034	6.783	-0.188	-0.138
-248.019	-100.339	0.114	0.028
-247.005	37.268	-0.154	0.135
-245.990	-200.000	-0.015	-0.136
-244.976	-200.000	-0.038	-0.393
-243.961	800.000	-0.098	0.331
-242.946	-200.000	0.016	-0.149
-241.932	73.489	-0.103	-0.107
-240.917	-84.342	-0.512	0.160
-239.903	654.547	-0.101	0.256
-238.888	-20.472	0.155	-0.094
-237.873	85.717	-0.195	0.212
-236.859	-74.088	0.391	0.140
-235.844	302.937	0.128	0.235
-234.830	-132.191	0.069	-0.009
-233.815	-200.000	-0.019	0.358
-232.800	-23.717	-0.235	0.139
-231.786	800.000	0.126	0.390
-230.771	182.684	0.085	-0.124
-229.757	16.861	0.345	0.271
-228.742	251.163	-0.186	0.312
-227.727	-200.000	0.024	0.143
-226.713	671.087	-0.186	-0.475
-225.698	-103.522	-0.052	-0.012
-224.684	20.942	-0.054	-0.043
-223.669	142.602	-0.022	0.029
-222.655	-200.000	-0.009	-0.204
-221.640	689.369	-0.032	-0.082
-220.625	131.355	0.178	-0.226
-219.611	-200.000	0.023	0.216
-218.596	205.314	-0.100	0.153
-217.582	192.628	0.120	-0.180
-216.567	-34.185	0.324	-0.176
-215.552	-43.594	0.418	0.208
-214.538	133.759	0.103	-0.132
-213.523	12.622	-0.184	-0.140
-212.509	79.900	0.118	-0.126
-211.494	-200.000	0.035	0.197
-210.479	800.000	0.084	0.350
-209.465	-35.113	0.218	0.117
-208.450	800.000	-0.078	-0.294
-207.436	-25.806	-0.231	-0.134
-206.421	369.067	-0.092	0.184
-205.406	-200.000	0.010	-0.113
-204.392	-131.605	-0.114	0.015
-203.377	42.894	0.095	-0.085
-202.363	493.722	0.007	-0.016
-201.348	-200.000	-0.016	-0.284
-200.333	-36.953	0.220	0.117
-199.319	-80.334	0.211	-0.070
-198.304	-200.000	-0.011	0.099
-197.290	157.218	0.099	0.136
-196.275	5.441	-0.085	-0.062
-195.260	7.755	-0.100	-0.074
-194.246	-200.000	0.031	-0.189
-193.231	-101.644	-0.122	-0.029
-192.217	42.376	-0.019	0.017
-191.202	19.621	0.122	-0.097
-190.187	-99.911	-0.084	0.021
-189.173	-86.315	0.300	0.091
-188.158	-200.000	-0.008	0.166
-187.144	76.114	-0.315	-0.330
-186.129	-47.682	0.333	0.160
-185.114	-86.575	-0.283	0.086
-184.100	-200.000	0.065	0.308
-183.085	278.543	0.153	-0.269
-182.071	-91.213	-0.137	-0.039
-181.056	-31.236	0.250	0.139
-180.042	167.991	0.175	0.246
-179.027	800.000	-0.014	0.049
-178.012	107.060	-0.138	0.161
-176.998	-139.758	-0.292	-0.031
-175.983	215.537	-0.142	0.223
-174.969	369.141	-0.203	-0.406
-173.954	-80.557	0.249	-0.082
-172.939	800.000	-0.028	0.079
-171.925	-80.792	0.191	0.063
-170.910	800.000	-0.062	0.179
-169.896	-200.000	0.021	-0.148
-168.881	-46.719	0.296	0.143
-167.866	15.322	-0.150	0.117
-166.852	-172.914	0.148	0.005
-165.837	-68.922	-0.107	0.041
-164.823	-125.515	-0.268	0.040
-163.808	-80.543	-0.152	-0.050
-162.793	34.495	-0.179	-0.154
-161.779	183.724	-0.158	-0.231
-160.764	-149.661	-0.163	0.013
-159.750	-87.492	0.116	-0.035
-158.735	11.635	0.095	-0.072
-157.720	-76.219	0.156	-0.054
-156.706	609.969	0.068	-0.167
-155.691	-148.880	0.338	-0.027
-154.677	-18.286	0.142	-0.088
-153.662	19.123	-0.258	0.204
-152.647	-200.000	-0.031	0.158
-151.633	-93.331	-0.083	-0.023
-150.618	37.535	0.229	0.201
-149.604	-167.211	-0.459	-0.018
-148.589	800.000	0.021	-0.063
-147.574	800.000	-0.083	-0.235
-146.560	-114.306	0.203	0.039
-145.545	55.653	0.303	0.289
-144.531	-100.829	0.150	-0.036
-143.516	-90.923	-0.267	-0.076
-142.502	48.180	0.216	-0.199
-141.487	176.655	-0.201	-0.287
-140.472	-200.000	-0.049	-0.280
-139.458	310.992	0.094	0.174
-138.443	-92.449	0.216	0.060
-137.429	441.238	0.026	0.055
-136.414	-28.944	0.291	-0.165
-135.399	120.449	-0.172	0.210
-134.385	-68.846	-0.195	0.074
-133.370	-200.000	0.023	-0.229
-132.356	-167.801	0.254	0.010
-131.341	-200.000	0.023	0.228
-130.326	105.209	0.210	-0.244
-129.312	-99.843	-0.035	-0.009
-128.297	-200.000	0.026	-0.200
-127.283	800.000	-0.138	0.417
-126.268	652.437	-0.111	0.280
-125.253	800.000	0.022	-0.081
-124.239	-200.000	0.073	0.333
-123.224	800.000	0.019	-0.058
-122.210	16.504	0.259	0.201
-121.195	-93.556	-0.283	0.077
-120.180	-98.720	0.346	-0.087
-119.166	14.220	-0.318	0.244
-118.151	-200.000	0.042	0.243
-117.137	117.060	-0.098	0.118
-116.122	115.879	0.160	0.193
-115.107	12.666	-0.301	0.229
-114.093	-200.000	-0.029	0.171
-113.078	-24.638	-0.078	0.046
-112.064	-9.280	-0.150	0.099
-111.049	-200.000	0.009	-0.159
-110.034	-200.000	0.014	-0.310
-109.020	-57.128	0.421	0.182
-108.005	-198.176	0.630	-0.004
-106.991	-27.406	-0.139	0.079
-105.976	-190.894	0.381	0.004
-104.962	-200.000	0.015	0.307
-103.947	800.000	-0.039	0.152
-102.932	-72.336	0.249	-0.091
-101.918	-200.000	-0.028	-0.173
-100.903	-65.590	-0.269	-0.106
-99.889	-77.089	0.284	0.098
-98.874	-128.041	-0.330	-0.047
-97.859	-200.000	-0.043	-0.414
-96.845	-78.971	0.343	-0.115
-95.830	-49.110	0.114	-0.054
-94.816	-200.000	-0.004	0.048
-93.801	-53.044	0.054	-0.025
-92.786	-200.000	0.007	0.057
-91.772	-102.617	-0.223	-0.052
-90.757	537.046	0.104	0.243
-89.743	-18.177	0.150	0.093
-88.728	800.000	-0.022	0.081
-87.713	8.544	0.367	0.272
-86.699	-28.613	0.042	-0.024
-85.684	536.076	0.069	0.162
-84.670	-62.440	-0.033	0.013
-83.655	-16.536	-0.076	-0.047
-82.640	-200.000	0.015	0.070
-81.626	135.459	0.029	0.037
-80.611	800.000	-0.045	0.187
-79.597	-200.000	0.010	0.076
-78.582	-79.727	0.178	-0.059
-77.567	230.688	-0.070	0.113
-76.553	146.857	0.214	0.283
-75.538	800.000	0.072	0.242
-74.524	-52.119	0.202	-0.092
-73.509	19.102	0.238	-0.188
-72.494	170.234	0.101	0.142
-71.480	68.779	-0.146	-0.147
-70.465	547.281	-0.191	-0.450
-69.451	568.027	0.051	0.123
-68.436	-59.174	-0.098	0.041
-67.422	318.370	-0.041	0.076
-66.407	-200.000	-0.035	0.257
-65.392	165.011	0.140	0.194
-64.378	-200.000	-0.015	0.089
-63.363	-40.752	0.091	-0.046
-62.349	-54.997	-0.277	0.123
-61.334	-16.401	-1.105	-0.689
-60.319	528.888	0.189	0.439
-59.305	558.320	-0.353	-0.836
-58.290	98.815	0.748	0.848
-57.276	507.162	0.657	1.498
-56.261	-200.000	101.493	595.893
-55.246	569.402	1419.400	3391.128
-54.232	189.816	2606.714	3842.414
-53.217	117.289	2147.103	2593.449
-52.203	42.936	1595.014	1428.686
-51.188	34.346	1329.707	1139.891
-50.173	31.079	1288.088	1085.198
-49.159	54.491	1338.445	1266.965
-48.144	56.031	1354.272	1291.008
-47.130	34.451	1311.923	1125.088
-46.115	30.921	1294.451	1089.464
-45.100	30.689	1289.409	1083.828
-44.086	30.676	1287.070	1081.742
-43.071	30.670	1284.753	1079.718
-42.057	30.687	1282.022	1077.479
-41.042	30.736	1280.554	1076.482
-40.027	30.742	1279.258	1075.389
-39.013	30.738	1277.633	1073.954
-37.998	30.718	1275.949	1072.383
-36.984	30.804	1273.675	1070.919
-35.969	30.856	1271.785	1069.589
-34.954	30.765	1270.881	1068.263
-33.940	30.819	1269.418	1067.303
-32.925	30.847	1267.997	1066.227
-31.911	30.905	1267.010	1065.682
-30.896	30.986	1265.026	1064.434
-29.881	30.827	1264.023	1062.640
-28.867	30.811	1262.761	1061.446
-27.852	30.930	1261.223	1060.789
-26.838	30.914	1259.668	1059.348
-25.823	30.812	1258.225	1057.513
-24.809	30.903	1257.123	1057.064
-23.794	30.907	1255.485	1055.668
-22.779	30.856	1254.620	1054.609
-21.765	30.999	1253.063	1054.067
-20.750	30.921	1252.017	1052.707
-19.736	30.789	1250.696	1050.809
-18.721	30.745	1249.475	1049.493
-17.706	30.794	1248.442	1048.861
-16.692	30.800	1247.770	1048.285
-15.677	30.729	1245.828	1046.214
-14.663	30.848	1244.606	1045.814
-13.648	30.611	1244.350	1044.225
-12.633	30.673	1243.150	1043.525
-11.619	30.635	1242.924	1043.080
-10.604	30.778	1241.567	1042.703
-9.590	30.744	1240.475	1041.554
-8.575	30.784	1239.032	1040.525
-7.560	30.713	1238.548	1039.680
-6.546	30.675	1237.954	1038.927
-5.531	30.682	1236.832	1037.983
-4.517	30.731	1236.018	1037.535
-3.502	30.592	1236.117	1036.801
-2.487	30.618	1234.397	1035.458
-1.473	30.787	1230.289	1032.912
-0.458	29.437	1216.009	1013.471
0.556	25.065	1199.114	977.380
1.571	21.707	1204.651	963.376
2.586	20.857	1219.586	970.502
3.600	20.338	1208.611	958.815
4.615	15.785	1138.033	879.010
5.629	8.344	1066.385	787.046
6.644	5.202	1047.209	757.596
7.659	4.908	1044.809	754.373
8.673	4.921	1043.547	753.458
9.688	4.869	1042.125	752.111
10.702	4.900	1040.951	751.347
11.717	9.318	1047.071	777.089
12.731	16.400	1056.115	818.141
13.746	18.734	1058.506	831.233
14.761	18.091	1057.236	827.052
15.775	17.144	1055.112	820.742
16.790	16.106	1052.508	813.640
17.804	15.389	1051.059	808.990
18.819	14.912	1050.650	806.306
19.834	14.776	1049.099	804.390
20.848	14.547	1048.443	802.712
21.863	14.243	1047.365	800.357
22.877	14.203	1046.861	799.705
23.892	14.065	1046.153	798.431
24.907	14.155	1045.306	798.147
25.921	14.132	1044.420	797.289
26.936	14.169	1043.082	796.372
27.950	14.256	1041.743	795.697
28.965	14.212	1040.368	794.366
29.980	14.351	1038.707	793.693
30.994	14.363	1037.945	793.097
32.009	14.500	1036.432	792.518
33.023	14.489	1035.762	791.886
34.038	14.367	1034.605	790.350
35.053	14.221	1033.916	789.064
36.067	14.186	1033.183	788.269
37.082	14.303	1031.860	787.742
38.096	14.431	1031.385	787.916
39.111	14.421	1030.474	787.102
40.126	14.304	1029.194	785.502
41.140	14.016	1028.027	783.189
42.155	14.000	1027.216	782.422
43.169	13.978	1026.152	781.440
44.184	14.026	1025.271	780.928
45.199	13.884	1024.440	779.560
46.213	14.084	1022.989	779.321
47.228	14.143	1022.366	779.054
48.242	14.222	1021.141	778.422
49.257	14.183	1020.004	777.303
50.271	14.264	1019.200	777.003
51.286	14.255	1018.355	776.244
52.301	14.211	1017.491	775.316
53.315	14.205	1016.580	774.523
54.330	14.193	1015.402	773.501
55.344	14.095	1014.853	772.557
56.359	14.103	1013.619	771.587
57.374	14.063	1012.850	770.748
58.388	14.043	1012.087	770.010
59.403	13.862	1011.149	768.388
60.417	13.894	1010.121	767.688
61.432	14.026	1009.387	767.672
62.447	13.836	1008.743	766.236
63.461	13.879	1007.815	765.663
64.476	13.852	1007.143	764.959
65.490	13.829	1006.341	764.178
66.505	13.972	1005.350	764.014
67.520	13.987	1004.745	763.558
68.534	14.012	1003.838	762.912
69.549	14.030	1003.430	762.619
70.563	13.976	1002.413	761.530
71.578	13.707	1002.064	759.968
72.593	13.795	1001.024	759.515
73.607	13.799	1000.090	758.754
74.622	13.951	999.264	758.756
75.636	13.848	999.399	758.321
76.651	13.803	998.418	757.303
77.666	13.807	998.104	757.018
78.680	13.900	997.102	756.615
79.695	13.885	996.570	756.076
80.709	14.032	995.897	756.168
81.724	13.993	995.513	755.629
82.739	14.061	994.573	755.160
83.753	14.197	994.070	755.329
84.768	14.326	993.004	755.037
85.782	14.347	991.976	754.285
86.797	14.324	991.089	753.439
87.812	14.188	990.399	752.231
88.826	14.177	989.637	751.536
89.841	14.224	988.608	750.901
90.855	14.246	987.645	750.203
91.870	14.331	986.596	749.719
92.884	14.299	986.007	749.063
93.899	14.207	985.369	748.099
94.914	14.485	984.289	748.459
95.928	14.435	983.534	747.595
96.943	14.371	982.591	746.528
97.957	14.404	981.632	745.881
98.972	14.206	981.278	744.659
99.987	14.472	980.206	744.969
101.001	14.222	979.364	743.146
102.016	14.277	978.662	742.794
103.030	14.336	977.511	742.118
104.045	14.298	976.906	741.424
105.060	14.239	975.928	740.350
106.074	14.064	974.904	738.732
107.089	13.911	974.423	737.622
108.103	14.054	973.318	737.355
109.118	14.021	972.184	736.284
110.133	14.101	970.872	735.582
111.147	14.055	970.589	735.100
112.162	14.003	969.885	734.270
113.176	14.057	969.318	734.012
114.191	14.089	968.538	733.498
115.206	14.139	967.790	733.090
116.220	14.125	966.855	732.253
117.235	14.210	965.715	731.701
118.249	14.120	964.799	730.547
119.264	13.980	964.866	729.915
120.279	13.937	963.606	728.710
121.293	14.051	962.284	728.143
122.308	14.008	961.670	727.427
123.322	13.993	960.765	726.613
124.337	13.891	959.888	725.439
125.352	13.961	958.712	724.794
126.366	13.995	957.612	724.046
127.381	13.945	956.763	723.120
128.395	13.951	955.526	722.150
129.410	14.102	954.854	722.234
130.424	14.074	953.978	721.386
131.439	14.167	953.447	721.322
132.454	14.157	952.606	720.581
133.468	14.200	952.165	720.367
134.483	14.156	951.281	719.446
135.497	14.210	950.026	718.667
136.512	14.125	949.098	717.534
137.527	14.237	948.386	717.413
138.541	14.119	947.845	716.435
139.556	14.223	947.154	716.294
140.570	14.419	946.393	716.497
141.585	14.442	945.465	715.830
142.600	14.399	945.139	715.336
143.614	14.431	944.100	714.625
144.629	14.575	942.905	714.272
145.643	14.405	942.623	713.268
146.658	14.389	941.039	711.941
147.673	14.311	940.304	710.985
148.687	14.172	939.795	709.948
149.702	14.312	938.780	709.715
150.716	14.223	937.933	708.629
151.731	14.229	937.426	708.212
152.746	14.203	936.756	707.531
153.760	14.341	935.936	707.436
154.775	14.310	935.538	706.941
155.789	14.408	934.727	706.683
156.804	14.536	933.757	706.428
157.819	14.616	933.140	706.236
158.833	14.493	932.610	705.252
159.848	14.530	931.900	704.810
160.862	14.560	931.036	704.220
161.877	14.391	929.947	702.624
162.892	14.424	928.936	701.936
163.906	14.366	927.760	700.740
164.921	14.245	927.468	699.949
165.935	14.494	925.982	699.809
166.950	14.354	925.688	698.938
167.964	14.369	924.683	698.181
168.979	14.362	923.841	697.456
169.994	14.400	923.064	696.967
171.008	14.553	922.045	696.773
172.023	14.541	921.599	696.326
173.037	14.633	921.119	696.286
174.052	14.471	920.664	695.205
175.067	14.498	919.622	694.469
176.081	14.414	919.378	693.872
177.096	14.386	918.833	693.285
178.110	14.327	918.049	692.385
179.125	14.514	917.542	692.719
180.140	14.643	916.885	692.695
181.154	14.616	916.518	692.247
182.169	14.590	916.282	691.897
183.183	14.559	916.073	691.548
184.198	14.725	914.554	691.030
185.213	14.589	914.142	690.093
186.227	14.669	913.517	689.893
187.242	14.818	912.828	689.925
188.256	14.937	912.248	689.919
189.271	14.840	911.495	688.887
190.286	14.646	910.626	687.369
191.300	14.465	909.714	685.878
192.315	14.490	909.269	685.584
193.329	14.425	908.973	685.033
194.344	14.562	908.133	684.900
195.359	14.711	907.577	685.035
196.373	14.691	907.468	684.808
197.388	14.785	906.853	684.667
198.402	14.766	906.335	684.139
199.417	15.050	905.786	684.824
200.432	14.960	905.579	684.242
201.446	15.003	904.569	683.592
202.461	15.092	903.638	683.194
203.475	15.110	903.267	682.926
204.490	15.090	902.196	681.973
205.504	14.978	901.677	681.064
206.519	14.957	901.230	680.581
207.534	14.918	900.511	679.818
208.548	14.912	899.915	679.286
209.563	14.998	899.021	678.897
210.577	14.998	898.657	678.565
211.592	15.028	898.012	678.137
212.607	15.173	897.016	677.914
213.621	15.062	896.174	676.767
214.636	15.196	895.659	676.861
215.650	15.332	894.668	676.601
216.665	15.117	894.783	675.759
217.680	15.211	893.753	675.303
218.694	15.378	892.628	675.064
219.709	15.267	892.573	674.515
220.723	15.284	891.841	673.969
221.738	15.244	891.352	673.382
222.753	15.264	890.793	672.981
223.767	15.365	889.981	672.711
224.782	15.396	889.190	672.179
225.796	15.336	888.944	671.692
226.811	15.358	887.857	670.898
227.826	15.255	887.880	670.444
228.840	15.221	887.218	669.753
229.855	15.369	885.974	669.344
230.869	15.238	885.309	668.258
231.884	15.274	884.523	667.751
232.899	15.290	883.761	667.179
233.913	15.215	883.664	666.748
234.928	15.164	882.888	665.903
235.942	15.015	882.383	664.868
236.957	15.192	881.920	665.164
237.972	15.259	880.883	664.589
238.986	15.190	880.423	663.910
240.001	15.170	879.827	663.325
241.015	15.174	879.352	662.921
242.030	15.388	878.460	663.036
243.045	15.382	877.878	662.515
244.059	15.389	877.431	662.149
245.074	15.385	877.166	661.873
246.088	15.413	876.162	661.167
247.103	15.515	875.425	660.955
248.117	15.564	875.108	660.850
249.132	15.646	874.774	660.860
250.147	15.792	873.933	660.738
251.161	15.704	873.661	660.129
252.176	15.803	873.126	660.054
253.190	15.869	872.301	659.631
254.205	15.813	871.640	658.854
255.220	15.943	870.815	658.680
256.234	15.925	870.359	658.208
257.249	15.797	869.868	657.278
258.263	15.804	869.239	656.772
259.278	15.870	868.221	656.204
260.293	15.903	867.588	655.796
261.307	15.927	867.500	655.765
262.322	15.938	866.855	655.259
263.336	16.088	865.763	654.961
264.351	16.040	865.078	654.196
265.366	16.028	864.569	653.706
266.380	16.165	863.696	653.521
267.395	16.000	863.472	652.657
268.409	16.018	862.724	652.102
269.424	16.113	861.214	651.270
270.439	15.875	861.181	650.265
271.453	15.854	860.839	649.869
272.468	16.027	859.583	649.530
273.482	15.940	859.456	649.043
274.497	16.018	858.842	648.823
275.512	16.017	858.294	648.344
276.526	16.093	857.873	648.262
277.541	16.112	857.365	647.897
278.555	16.144	856.465	647.281
279.570	16.255	855.924	647.239
280.585	16.388	855.117	647.080
281.599	16.158	854.696	645.825
282.614	16.120	854.173	645.229
283.628	16.134	853.537	644.744
284.643	16.144	852.872	644.225
285.657	16.222	852.144	643.915
286.672	16.283	851.706	643.758
287.687	16.280	850.828	643.027
288.701	16.302	850.290	642.647
289.716	16.296	849.975	642.330
290.730	16.235	849.584	641.745
291.745	16.210	849.060	641.197
292.760	16.368	848.121	641.029
293.774	16.360	848.150	640.966
294.789	16.428	846.991	640.290
295.803	16.225	846.352	638.983
296.818	16.337	845.747	638.894
297.833	16.391	844.989	638.467
298.847	16.402	844.508	638.088
299.862	16.331	844.074	637.439
300.876	16.360	843.646	637.166
301.891	16.453	842.868	636.875
302.906	16.548	842.106	636.600
303.920	16.598	841.813	636.509
304.935	16.732	841.278	636.550
305.949	16.706	840.660	635.932
306.964	16.632	839.882	635.009
307.979	16.697	839.240	634.711
308.993	16.672	838.654	634.116
310.008	16.563	838.208	633.315
311.022	16.839	837.124	633.472
312.037	16.565	836.973	632.279
313.052	16.388	836.662	631.327
314.066	16.577	835.691	631.242
315.081	16.486	835.702	630.856
316.095	16.486	834.845	630.151
317.110	16.485	834.307	629.686
318.125	16.604	833.647	629.575
319.139	16.528	833.514	629.138
320.154	16.486	833.217	628.700
321.168	16.496	832.683	628.280
322.183	16.646	831.744	628.070
323.197	16.635	831.234	627.590
324.212	16.706	830.913	627.555
325.227	16.691	829.812	626.614
326.241	16.624	829.341	625.953
327.256	16.624	828.882	625.554
328.270	16.727	828.405	625.516
329.285	16.596	827.952	624.639
330.300	16.759	827.036	624.492
331.314	16.672	826.781	623.921
332.329	16.761	826.627	624.081
333.343	16.782	826.164	623.751
334.358	16.855	825.764	623.665
335.373	16.865	825.344	623.330
336.387	16.874	824.976	623.026
337.402	16.927	824.960	623.154
338.416	16.962	824.473	622.859
339.431	17.004	824.028	622.624
340.446	16.994	823.633	622.233
341.460	16.980	823.612	622.112
342.475	17.188	822.868	622.256
343.489	17.194	822.335	621.819
344.504	17.156	821.984	621.362
345.519	17.211	821.323	621.008
346.533	17.287	820.572	620.662
347.548	17.156	820.436	620.026
348.562	17.030	819.950	619.144
349.577	16.960	819.186	618.256
350.592	17.028	818.702	618.083
351.606	16.971	817.804	617.143
352.621	17.082	817.144	616.996
353.635	17.221	816.341	616.839
354.650	17.252	816.384	616.932
355.665	17.119	815.472	615.703
356.679	17.248	814.913	615.696
357.694	17.265	814.388	615.306
358.708	17.140	813.615	614.217
359.723	17.200	813.162	614.034
360.738	17.241	812.682	613.765
361.752	17.299	812.176	613.541
362.767	17.355	811.446	613.134
363.781	17.347	810.972	612.694
364.796	17.490	810.752	612.987
365.810	17.522	810.298	612.705
366.825	17.468	810.080	612.293
367.840	17.502	809.523	611.941
368.854	17.636	809.029	611.995
369.869	17.405	808.734	610.889
370.883	17.481	807.952	610.513
371.898	17.583	807.859	610.756
372.913	17.562	807.185	610.117
373.927	17.659	806.818	610.132
374.942	17.648	806.508	609.807
375.956	17.608	806.106	609.306
376.971	17.712	805.331	609.035
377.986	17.817	804.957	609.073
379.000	17.773	804.957	608.865
380.015	17.764	804.220	608.220
381.029	17.744	803.617	607.638
382.044	17.825	802.782	607.244
383.059	17.928	802.366	607.241
384.073	17.928	801.841	606.787
385.088	17.711	801.179	605.465
386.102	17.688	800.720	604.983
387.117	17.730	800.308	604.764
388.132	17.598	799.828	603.881
389.146	17.742	799.152	603.829
390.161	17.891	798.612	603.893
391.175	17.930	798.206	603.670
392.190	17.756	797.633	602.569
393.205	17.865	797.506	602.807
394.219	17.759	797.243	602.179
395.234	17.661	796.945	601.556
396.248	17.830	795.882	601.293
397.263	17.706	795.546	600.551
398.278	17.572	795.458	599.961
399.292	17.759	794.408	599.772
400.307	17.677	794.374	599.405
401.321	17.670	794.004	599.047
402.336	17.810	793.299	598.956
403.350	17.831	792.921	598.689
404.365	17.952	792.672	598.873
405.380	18.078	791.978	598.737
406.394	18.166	791.312	598.490
407.409	18.193	791.096	598.367
408.423	18.125	790.828	597.874
409.438	18.121	790.550	597.595
410.453	18.134	790.014	597.183
411.467	18.292	789.767	597.497
412.482	18.218	789.478	596.965
413.496	18.282	789.108	596.857
414.511	18.277	788.608	596.410
415.526	18.395	788.058	596.350
416.540	18.184	787.940	595.472
417.555	18.170	787.257	594.855
418.569	18.348	786.677	594.984
419.584	18.412	786.328	594.889
420.599	18.352	786.091	594.451
421.613	157.571	1369.576	1795.336
422.628	136.230	1454.555	1795.435
