DTS Sentinel unit serial number:	SN413079Multiplexer serial number:	ORYXHardware model number:	OX4-SRSoftware version number:	ORYX F/W v4.00 Oryx Data Collector v3.7.2.0data status	okinstallation	princeton_trtdifferential loss correction	single-endedforward channel	channel 1reverse channel	N/Adate	2019/09/10time	21:48:11forward acquisition time	60.00reverse acquisition time	0.00gamma	496.2192k internal	0.2331k external	0.2331temperature offset calibration	0.9939default loss term (dB/km)	0.3790temperature slope calibration	1.0000multiplexer offset coefficient	1.0000multiplexer slope coefficient	1.0000fibre end	0.00T internal ref (°C)	30.87T ext. ref 1 (°C)	-0.31T ext. ref 2 (°C)	23.99length (m)	temperature (°C)	Stokes	anti-Stokes-747.200	-200.000	-0.009	0.154
-746.185	-200.000	0.005	-0.404
-745.171	59.525	0.022	-0.022
-744.156	800.000	0.024	0.071
-743.142	-36.372	0.069	0.037
-742.127	230.462	-0.072	0.118
-741.112	-200.000	0.023	-0.124
-740.098	-76.948	-0.479	0.169
-739.083	-148.933	-0.226	0.018
-738.069	-40.213	-0.308	-0.161
-737.054	-109.351	-0.195	-0.042
-736.039	10.612	-0.267	-0.205
-735.025	-116.549	0.221	0.041
-734.010	15.860	-0.245	-0.194
-732.996	37.730	-0.167	0.149
-731.981	800.000	-0.086	-0.269
-730.966	-61.466	0.105	0.044
-729.952	35.281	0.136	0.120
-728.937	-59.696	-0.299	-0.129
-727.923	567.816	0.170	-0.415
-726.908	-0.536	-0.228	-0.163
-725.894	-200.000	0.048	0.236
-724.879	342.664	-0.076	-0.150
-723.864	-200.000	-0.038	-0.234
-722.850	-200.000	-0.035	-0.156
-721.835	104.211	-0.158	0.187
-720.821	209.480	-0.114	0.180
-719.806	-92.707	-0.336	0.095
-718.791	-51.454	-0.153	-0.072
-717.777	208.561	0.109	-0.172
-716.762	-127.664	-0.144	-0.021
-715.748	28.722	0.316	0.269
-714.733	800.000	-0.029	-0.088
-713.718	-4.171	0.046	-0.032
-712.704	-111.793	-0.405	-0.082
-711.689	193.600	0.072	0.110
-710.675	-81.399	0.114	-0.038
-709.660	-178.888	0.191	0.004
-708.645	-96.236	-0.199	0.053
-707.631	-61.560	-0.108	0.046
-706.616	-16.225	0.324	0.207
-705.602	-101.569	0.085	0.021
-704.587	-195.984	0.242	-0.002
-703.572	572.418	-0.099	-0.242
-702.558	31.527	0.141	-0.122
-701.543	-69.908	0.414	-0.159
-700.529	-98.175	-0.219	-0.057
-699.514	-54.231	-0.174	0.080
-698.499	-116.764	-0.120	-0.022
-697.485	-158.064	-0.212	0.013
-696.470	340.009	-0.022	-0.043
-695.456	48.259	0.097	-0.091
-694.441	-7.736	-0.295	0.200
-693.426	-200.000	0.029	0.506
-692.412	-51.566	-0.187	0.088
-691.397	-30.319	0.046	-0.026
-690.383	-200.000	-0.052	0.326
-689.368	112.203	0.031	0.038
-688.354	49.509	0.088	0.083
-687.339	44.402	0.134	0.124
-686.324	-200.000	-0.009	0.218
-685.310	-105.710	0.202	-0.046
-684.295	0.139	-0.157	-0.112
-683.281	-12.802	-0.391	-0.256
-682.266	63.549	-0.138	-0.139
-681.251	88.720	0.075	0.083
-680.237	-184.975	-0.202	-0.003
-679.222	-66.001	-0.243	-0.097
-678.208	-100.837	0.173	0.043
-677.193	-200.000	0.040	-0.219
-676.178	643.452	-0.165	0.423
-675.164	800.000	-0.058	0.169
-674.149	-35.074	-0.316	-0.173
-673.135	-100.558	-0.252	-0.063
-672.120	-78.889	0.344	0.118
-671.105	-58.203	-0.376	-0.164
-670.091	29.751	-0.139	-0.118
-669.076	107.978	-0.221	0.264
-668.062	-42.801	0.134	0.068
-667.047	547.560	-0.073	-0.176
-666.032	130.080	0.221	-0.283
-665.018	-109.650	0.170	0.036
-664.003	-82.295	0.066	-0.021
-662.989	79.630	0.056	-0.060
-661.974	212.434	0.110	0.174
-660.959	-35.201	-0.140	0.077
-659.945	489.420	-0.080	0.183
-658.930	-200.000	-0.017	0.079
-657.916	41.038	-0.080	-0.073
-656.901	-127.983	-0.151	0.022
-655.886	-25.019	0.223	0.133
-654.872	24.885	0.106	-0.088
-653.857	-63.390	-0.163	0.067
-652.843	-78.026	0.245	0.085
-651.828	365.241	0.068	-0.138
-650.814	-200.000	-0.031	0.306
-649.799	-114.204	0.082	0.016
-648.784	800.000	-0.044	0.152
-647.770	-94.588	0.149	0.041
-646.755	74.989	0.239	0.252
-645.741	-135.758	0.094	0.011
-644.726	237.347	-0.070	0.116
-643.711	66.194	-0.183	0.187
-642.697	17.439	-0.110	-0.088
-641.682	-29.625	0.041	0.024
-640.668	94.478	-0.334	0.381
-639.653	169.180	-0.065	0.093
-638.638	429.118	-0.076	-0.166
-637.624	481.578	-0.036	-0.081
-636.609	-49.447	0.183	-0.087
-635.595	214.289	-0.259	0.411
-634.580	-200.000	0.000	-0.177
-633.565	740.965	0.033	-0.089
-632.551	-13.599	-0.230	-0.149
-631.536	312.041	0.138	-0.259
-630.522	259.629	0.092	-0.159
-629.507	78.894	0.116	-0.125
-628.492	142.306	0.097	-0.129
-627.478	293.360	-0.085	0.155
-626.463	142.396	-0.154	0.205
-625.449	214.348	0.215	0.340
-624.434	285.192	-0.215	-0.388
-623.419	-172.559	-0.087	-0.003
-622.405	-200.000	-0.012	-0.206
-621.390	241.525	-0.175	0.292
-620.376	-13.937	-0.093	-0.060
-619.361	385.978	0.053	-0.110
-618.346	-200.000	-0.007	0.282
-617.332	67.622	-0.059	0.060
-616.317	-120.299	-0.253	0.043
-615.303	-147.669	0.162	-0.014
-614.288	-81.880	0.245	0.080
-613.273	446.571	0.090	0.199
-612.259	-77.596	0.391	-0.135
-611.244	186.854	-0.165	0.246
-610.230	139.422	-0.138	0.182
-609.215	-132.824	0.073	-0.009
-608.201	258.899	-0.064	-0.111
-607.186	547.768	0.091	-0.218
-606.171	-57.539	-0.109	-0.048
-605.157	-169.459	-0.184	0.007
-604.142	800.000	-0.045	-0.146
-603.128	20.399	-0.217	-0.175
-602.113	-97.978	0.141	-0.036
-601.098	-149.348	-0.428	-0.034
-600.084	42.799	-0.130	0.118
-599.069	-200.000	0.005	-0.158
-598.055	555.295	-0.094	0.226
-597.040	-165.726	-0.228	0.010
-596.025	361.717	-0.215	-0.432
-595.011	160.185	0.149	-0.207
-593.996	42.113	-0.287	0.261
-592.982	100.832	0.221	-0.257
-591.967	141.976	-0.100	-0.133
-590.952	-100.003	0.316	-0.079
-589.938	-188.248	0.098	0.001
-588.923	-133.673	0.446	-0.056
-587.909	178.903	0.083	-0.121
-586.894	-200.000	0.002	-0.164
-585.879	-200.000	0.019	0.268
-584.865	158.731	0.034	-0.047
-583.850	132.799	0.050	-0.065
-582.836	10.666	0.247	0.189
-581.821	-200.000	0.007	-0.126
-580.806	-95.079	-0.405	-0.109
-579.792	800.000	0.011	-0.046
-578.777	-200.000	-0.000	-0.077
-577.763	149.267	0.177	0.240
-576.748	800.000	0.023	0.067
-575.733	800.000	-0.003	-0.015
-574.719	43.572	-0.034	0.032
-573.704	-91.336	-0.282	0.081
-572.690	-122.816	0.234	-0.038
-571.675	177.679	-0.078	-0.113
-570.661	800.000	-0.091	0.270
-569.646	-67.879	0.136	0.053
-568.631	800.000	-0.035	-0.100
-567.617	475.994	-0.107	-0.242
-566.602	246.089	0.156	0.263
-565.588	-200.000	0.189	-0.001
-564.573	264.982	-0.024	0.041
-563.558	229.007	-0.176	0.287
-562.544	800.000	-0.080	-0.241
-561.529	-79.918	-0.249	-0.084
-560.515	-200.000	0.000	0.161
-559.500	800.000	-0.064	-0.188
-558.485	-136.821	-0.162	-0.019
-557.471	649.989	-0.089	0.227
-556.456	-200.000	-0.021	0.355
-555.442	-200.000	0.017	0.103
-554.427	162.780	-0.200	-0.280
-553.412	-103.732	0.177	-0.041
-552.398	-20.503	-0.202	-0.124
-551.383	800.000	-0.057	-0.160
-550.369	-28.130	0.165	0.095
-549.354	-88.327	-0.354	0.106
-548.339	-134.592	0.420	0.051
-547.325	120.031	0.050	0.061
-546.310	30.051	0.265	0.226
-545.296	-200.000	-0.038	-0.172
-544.281	285.802	0.176	-0.317
-543.266	-65.931	0.373	-0.149
-542.252	61.411	0.194	0.193
-541.237	146.639	-0.068	-0.091
-540.223	-61.436	0.215	0.090
-539.208	-164.328	0.206	0.009
-538.193	-200.000	-0.006	0.073
-537.179	367.668	-0.042	0.084
-536.164	-49.187	0.179	0.085
-535.150	753.955	-0.066	0.179
-534.135	-21.097	0.288	0.176
-533.121	-106.889	-0.298	0.066
-532.106	197.728	0.215	-0.329
-531.091	-81.480	-0.104	0.034
-530.077	59.293	-0.050	-0.049
-529.062	-126.505	0.395	0.059
-528.048	-200.000	0.006	-0.032
-527.033	204.446	-0.084	-0.129
-526.018	-6.391	0.274	-0.186
-525.004	-116.959	0.080	-0.015
-523.989	-82.681	0.376	-0.122
-522.975	-175.335	0.387	0.011
-521.960	192.621	-0.036	-0.055
-520.945	236.486	-0.124	0.205
-519.931	-200.000	-0.005	0.283
-518.916	242.013	-0.041	0.068
-517.902	156.357	-0.092	0.127
-516.887	69.746	-0.220	0.227
-515.872	667.037	-0.105	-0.272
-514.858	-28.272	-0.081	-0.047
-513.843	-26.230	-0.260	0.152
-512.829	580.443	0.133	-0.324
-511.814	-20.497	0.226	0.138
-510.799	-200.000	0.027	-0.287
-509.785	37.460	-0.240	-0.212
-508.770	289.414	0.127	-0.230
-507.756	-53.720	0.179	-0.081
-506.741	-89.170	-0.265	0.078
-505.726	-20.403	0.373	0.229
-504.712	-14.425	0.018	0.012
-503.697	137.113	0.146	-0.191
-502.683	-200.000	-0.030	-0.236
-501.668	800.000	0.064	-0.272
-500.653	-200.000	-0.001	-0.054
-499.639	800.000	0.051	0.219
-498.624	-104.465	0.357	-0.082
-497.610	65.413	-0.158	-0.160
-496.595	-11.061	0.234	-0.154
-495.581	-67.957	0.069	-0.027
-494.566	800.000	0.012	-0.034
-493.551	-151.910	0.088	0.006
-492.537	107.159	-0.179	0.212
-491.522	77.697	0.122	0.130
-490.508	-61.696	0.171	0.071
-489.493	181.802	0.020	-0.030
-488.478	800.000	0.032	-0.129
-487.464	22.428	-0.076	-0.062
-486.449	110.289	0.058	-0.069
-485.435	38.396	-0.068	-0.061
-484.420	96.136	0.044	-0.050
-483.405	-89.455	0.121	0.035
-482.391	-29.098	0.359	0.205
-481.376	54.732	-0.113	-0.109
-480.362	16.010	0.170	-0.134
-479.347	-71.075	-0.391	-0.146
-478.332	-128.032	0.072	0.010
-477.318	-79.056	-0.137	-0.046
-476.303	-49.965	-0.245	-0.116
-475.289	-200.000	0.024	-0.210
-474.274	-200.000	-0.011	-0.203
-473.259	-200.000	-0.000	-0.027
-472.245	-12.433	-0.165	-0.107
-471.230	-56.670	0.167	-0.073
-470.216	-64.987	0.241	-0.097
-469.201	406.302	-0.105	0.220
-468.186	31.399	-0.142	-0.122
-467.172	543.665	0.097	0.230
-466.157	-200.000	-0.011	0.099
-465.143	-200.000	-0.025	0.302
-464.128	-200.000	0.019	0.250
-463.113	159.416	0.198	0.274
-462.099	146.942	0.093	-0.124
-461.084	800.000	0.044	0.184
-460.070	310.915	0.004	-0.008
-459.055	-59.863	-0.162	0.069
-458.040	398.730	-0.125	0.261
-457.026	-171.271	-0.068	0.002
-456.011	214.874	-0.072	0.114
-454.997	53.651	0.153	-0.146
-453.982	-113.999	0.446	0.086
-452.968	-195.083	0.168	-0.001
-451.953	-110.766	-0.408	-0.084
-450.938	49.134	-0.114	0.106
-449.924	-68.423	-0.109	0.042
-448.909	76.548	0.089	-0.094
-447.895	-200.000	-0.003	-0.133
-446.880	-21.615	-0.195	0.118
-445.865	619.424	-0.058	0.146
-444.851	-61.498	0.143	0.060
-443.836	126.140	0.239	-0.300
-442.822	73.227	0.142	0.148
-441.807	-108.238	-0.419	-0.090
-440.792	123.274	-0.077	-0.096
-439.778	280.974	-0.080	-0.142
-438.763	-200.000	0.047	-0.286
-437.749	-47.746	-0.213	-0.103
-436.734	375.538	-0.052	0.106
-435.719	800.000	0.044	-0.126
-434.705	455.588	-0.118	-0.260
-433.690	-183.502	-0.098	0.002
-432.676	-184.799	-0.229	0.004
-431.661	-67.901	-0.256	0.100
-430.646	-34.051	-0.259	0.142
-429.632	-200.000	-0.012	-0.140
-428.617	48.176	-0.222	-0.206
-427.603	-109.506	0.260	-0.055
-426.588	-157.042	-0.280	-0.017
-425.573	800.000	0.034	0.109
-424.559	177.511	-0.138	0.200
-423.544	219.959	-0.166	-0.264
-422.530	800.000	-0.078	-0.285
-421.515	-50.642	0.226	0.106
-420.500	-67.157	-0.054	0.021
-419.486	485.692	-0.114	-0.258
-418.471	372.639	-0.129	-0.261
-417.457	711.476	0.150	-0.396
-416.442	-84.020	0.329	0.104
-415.428	520.824	-0.093	0.217
-414.413	-200.000	0.023	0.290
-413.398	-134.853	-0.271	0.033
-412.384	-200.000	-0.030	-0.205
-411.369	354.244	0.165	0.326
-410.355	-41.658	-0.429	-0.219
-409.340	237.170	-0.128	-0.211
-408.325	-116.492	0.177	0.032
-407.311	-200.000	0.001	-0.127
-406.296	-139.624	-0.337	-0.036
-405.282	77.628	-0.134	0.142
-404.267	153.607	0.289	-0.393
-403.252	-9.525	0.211	-0.140
-402.238	338.607	0.047	-0.090
-401.223	-200.000	0.095	0.449
-400.209	-126.218	-0.303	0.045
-399.194	800.000	0.059	-0.174
-398.179	-148.922	0.081	-0.006
-397.165	180.300	0.117	0.170
-396.150	358.299	-0.114	0.225
-395.136	-102.074	-0.352	-0.084
-394.121	-75.134	0.126	-0.045
-393.106	800.000	0.102	0.345
-392.092	-200.000	0.005	0.245
-391.077	77.783	0.031	-0.032
-390.063	58.729	-0.112	-0.109
-389.048	41.683	0.118	-0.106
-388.033	-126.508	0.202	0.030
-387.019	130.751	-0.182	0.231
-386.004	-194.119	-0.229	-0.002
-384.990	-200.000	0.016	0.110
-383.975	-53.665	-0.224	0.101
-382.960	82.444	-0.175	0.189
-381.946	391.366	-0.146	0.301
-380.931	185.826	-0.109	-0.161
-379.917	-47.038	-0.177	-0.086
-378.902	232.907	-0.027	-0.045
-377.888	-92.279	-0.233	-0.065
-376.873	-120.620	-0.189	-0.032
-375.858	25.286	0.110	0.091
-374.844	800.000	0.069	0.253
-373.829	-200.000	-0.049	0.263
-372.815	-200.000	0.023	0.164
-371.800	800.000	-0.042	0.127
-370.785	322.586	-0.142	0.268
-369.771	-168.348	-0.266	0.010
-368.756	-43.189	-0.143	0.072
-367.742	125.730	0.139	-0.174
-366.727	29.769	0.192	-0.162
-365.712	800.000	0.066	0.269
-364.698	-98.612	-0.289	0.073
-363.683	800.000	-0.079	0.238
-362.669	-95.161	0.091	0.024
-361.654	83.293	0.113	-0.122
-360.639	-185.587	-0.211	0.003
-359.625	800.000	-0.049	0.145
-358.610	75.962	0.271	-0.285
-357.596	-127.319	-0.155	0.022
-356.581	-200.000	0.001	-0.182
-355.566	15.880	0.025	0.020
-354.552	-5.038	0.184	0.126
-353.537	-52.712	-0.315	-0.144
-352.523	103.187	-0.204	0.238
-351.508	-200.000	0.034	-0.147
-350.493	115.387	-0.265	-0.321
-349.479	206.724	-0.188	0.291
-348.464	-144.987	0.164	-0.015
-347.450	-41.823	0.057	-0.029
-346.435	-161.080	0.111	-0.006
-345.420	-123.469	-0.152	-0.024
-344.406	-38.437	0.192	-0.100
-343.391	78.180	0.059	-0.062
-342.377	200.107	-0.225	-0.342
-341.362	-54.979	-0.139	0.062
-340.348	-89.332	0.079	-0.023
-339.333	233.754	-0.159	-0.260
-338.318	-62.721	-0.076	-0.031
-337.304	-72.299	0.128	-0.047
-336.289	-137.598	0.323	-0.036
-335.275	348.668	0.142	-0.278
-334.260	184.299	-0.093	0.136
-333.245	96.600	0.092	0.104
-332.231	-59.690	0.117	0.050
-331.216	612.443	-0.011	-0.028
-330.202	-49.477	-0.072	-0.034
-329.187	800.000	-0.047	-0.171
-328.172	-11.424	-0.196	0.128
-327.158	-89.687	-0.044	-0.013
-326.143	477.820	0.091	0.204
-325.129	92.469	0.127	-0.142
-324.114	-46.829	0.146	0.071
-323.099	54.657	-0.094	-0.090
-322.085	267.285	-0.146	0.253
-321.070	78.225	0.146	0.154
-320.056	-2.976	-0.456	-0.315
-319.041	800.000	-0.051	-0.177
-318.026	-100.193	-0.105	-0.026
-317.012	-200.000	-0.026	0.119
-315.997	93.134	0.303	0.339
-314.983	77.319	-0.141	0.149
-313.968	409.287	-0.054	-0.113
-312.953	67.595	0.053	-0.053
-311.939	-19.273	-0.415	-0.255
-310.924	-162.616	-0.163	0.008
-309.910	48.956	0.080	-0.074
-308.895	-119.730	0.529	-0.090
-307.880	-168.950	-0.319	-0.012
-306.866	80.074	-0.160	0.171
-305.851	-105.204	-0.135	0.030
-304.837	-200.000	0.021	-0.155
-303.822	-200.000	0.043	0.304
-302.807	-11.041	-0.137	0.089
-301.793	-110.289	-0.078	0.016
-300.778	60.894	-0.220	-0.216
-299.764	-41.593	-0.250	0.127
-298.749	-36.399	0.262	0.140
-297.735	-200.000	0.010	0.081
-296.720	42.862	0.035	-0.031
-295.705	753.853	0.052	0.138
-294.691	410.778	0.056	0.118
-293.676	800.000	0.099	0.424
-292.662	-200.000	0.007	-0.128
-291.647	7.583	0.141	-0.104
-290.632	-136.614	-0.195	-0.022
-289.618	4.947	0.233	0.170
-288.603	-29.002	0.099	-0.056
-287.589	-57.621	-0.172	0.075
-286.574	800.000	-0.013	0.040
-285.559	-200.000	-0.006	-0.087
-284.545	-81.991	0.140	-0.045
-283.530	-146.399	0.332	0.029
-282.516	141.927	-0.128	0.167
-281.501	-117.908	0.201	0.036
-280.486	-200.000	0.017	0.230
-279.472	800.000	0.058	0.210
-278.457	-0.767	0.282	-0.197
-277.443	254.473	-0.095	0.161
-276.428	800.000	0.085	0.319
-275.413	180.253	-0.066	0.096
-274.399	-54.770	0.261	0.117
-273.384	-142.167	0.346	0.034
-272.370	800.000	0.024	0.070
-271.355	222.361	0.133	0.211
-270.340	-200.000	0.007	-0.422
-269.326	134.541	0.137	0.175
-268.311	-66.687	0.208	0.081
-267.297	800.000	0.072	-0.198
-266.282	59.748	-0.129	-0.126
-265.267	64.901	-0.334	0.333
-264.253	697.764	0.118	-0.305
-263.238	-200.000	0.031	-0.163
-262.224	-200.000	-0.003	0.137
-261.209	296.881	-0.131	-0.238
-260.195	-65.070	0.202	0.081
-259.180	-27.191	-0.064	0.037
-258.165	-200.000	0.016	-0.131
-257.151	-156.483	-0.298	-0.018
-256.136	800.000	0.009	-0.027
-255.122	659.910	-0.090	0.229
-254.107	585.062	-0.086	0.208
-253.092	-89.262	0.716	0.208
-252.078	242.808	0.129	-0.213
-251.063	-152.167	-0.223	-0.016
-250.049	800.000	0.095	0.288
-249.034	98.086	0.216	-0.246
-248.019	629.774	-0.053	-0.131
-247.005	47.022	0.066	0.060
-245.990	21.889	-0.165	-0.133
-244.976	68.872	0.227	-0.230
-243.961	16.332	-0.084	-0.065
-242.946	54.448	0.046	-0.043
-241.932	94.739	0.036	0.040
-240.917	113.884	-0.174	0.209
-239.903	74.245	-0.167	0.173
-238.888	-145.940	-0.276	-0.024
-237.873	800.000	-0.072	-0.281
-236.859	215.454	0.087	-0.136
-235.844	63.141	-0.089	0.088
-234.830	-85.924	0.217	-0.066
-233.815	515.151	-0.046	0.107
-232.800	-200.000	0.060	0.345
-231.786	26.498	0.285	-0.235
-230.771	161.536	0.089	-0.122
-229.757	482.979	-0.115	-0.258
-228.742	800.000	0.180	-0.493
-227.727	-200.000	0.036	0.232
-226.713	-94.899	0.123	-0.033
-225.698	-110.055	-0.189	-0.039
-224.684	25.918	0.149	0.123
-223.669	470.039	0.159	0.353
-222.655	45.999	0.102	-0.093
-221.640	-81.144	-0.202	0.066
-220.625	800.000	-0.015	0.044
-219.611	565.376	-0.110	-0.262
-218.596	-24.539	0.110	-0.065
-217.582	673.661	-0.110	0.282
-216.567	-50.779	0.240	0.111
-215.552	5.697	-0.373	0.272
-214.538	43.870	-0.211	0.191
-213.523	-72.162	0.316	-0.115
-212.509	-200.000	-0.021	0.118
-211.494	45.210	0.243	-0.221
-210.479	337.266	0.158	-0.303
-209.465	286.408	0.141	0.251
-208.450	48.218	0.145	0.134
-207.436	58.532	-0.063	-0.061
-206.421	-120.576	0.228	0.038
-205.406	-21.719	-0.095	0.057
-204.392	-7.258	0.136	0.091
-203.377	800.000	0.072	-0.263
-202.363	-48.866	0.023	-0.011
-201.348	57.387	-0.250	-0.241
-200.333	132.973	-0.113	0.144
-199.319	384.503	0.065	-0.131
-198.304	800.000	0.081	-0.319
-197.290	-200.000	-0.078	-0.420
-196.275	800.000	0.112	-0.306
-195.260	-200.000	0.032	0.164
-194.246	-96.023	-0.022	-0.006
-193.231	-65.498	-0.304	-0.120
-192.217	-200.000	0.024	-0.255
-191.202	-85.038	-0.075	-0.023
-190.187	-93.759	0.210	-0.057
-189.173	800.000	-0.078	0.239
-188.158	-60.687	-0.070	0.029
-187.144	-5.040	-0.132	-0.089
-186.129	800.000	-0.100	-0.368
-185.114	800.000	-0.027	-0.097
-184.100	-43.631	0.173	0.086
-183.085	57.776	0.021	0.021
-182.071	-173.430	-0.311	0.009
-181.056	-44.484	0.215	-0.106
-180.042	26.604	-0.017	0.014
-179.027	-200.000	0.031	-0.192
-178.012	-90.880	0.148	0.042
-176.998	-178.722	0.148	0.003
-175.983	121.007	-0.075	-0.092
-174.969	65.543	0.188	0.187
-173.954	137.081	0.072	-0.093
-172.939	-200.000	0.010	-0.105
-171.925	-22.325	0.175	-0.104
-170.910	-200.000	0.018	-0.167
-169.896	-200.000	-0.003	0.042
-168.881	-26.338	0.074	0.043
-167.866	57.049	0.063	0.061
-166.852	-159.291	0.163	0.009
-165.837	-136.542	-0.253	0.029
-164.823	-200.000	-0.009	0.152
-163.808	18.488	0.072	0.056
-162.793	-12.321	-0.151	0.097
-161.779	19.138	0.136	0.108
-160.764	84.194	-0.190	0.204
-159.750	-200.000	0.015	0.151
-158.735	621.536	0.172	0.425
-157.720	-200.000	-0.006	-0.031
-156.706	388.984	-0.024	-0.049
-155.691	800.000	0.048	0.180
-154.677	316.729	0.066	0.123
-153.662	0.811	-0.073	0.051
-152.647	-200.000	-0.035	-0.274
-151.633	378.531	0.048	0.097
-150.618	-25.837	0.159	-0.092
-149.604	-94.271	-0.153	-0.041
-148.589	-137.682	-0.237	-0.026
-147.574	532.028	0.114	-0.266
-146.560	26.816	0.103	-0.085
-145.545	-146.002	-0.079	0.007
-144.531	90.416	-0.166	0.182
-143.516	751.426	0.037	0.098
-142.502	-122.519	-0.201	-0.032
-141.487	19.780	-0.190	-0.150
-140.472	721.774	-0.038	-0.098
-139.458	800.000	-0.076	0.296
-138.443	690.400	0.112	0.289
-137.429	-200.000	0.017	0.138
-136.414	778.777	-0.006	-0.016
-135.399	-58.366	0.092	0.039
-134.385	96.866	-0.155	0.175
-133.370	462.469	-0.053	0.117
-132.356	-200.000	-0.004	-0.104
-131.341	-180.460	-0.194	-0.004
-130.326	-161.260	0.133	-0.007
-129.312	89.942	0.215	0.236
-128.297	208.978	0.203	0.313
-127.283	-4.210	-0.067	0.046
-126.268	-89.299	0.188	0.055
-125.253	-54.309	-0.326	-0.146
-124.239	221.323	-0.041	-0.065
-123.224	800.000	0.084	-0.282
-122.210	-172.734	0.258	0.008
-121.195	-114.236	0.327	0.062
-120.180	640.506	0.057	0.143
-119.166	-200.000	-0.186	0.001
-118.151	-50.185	0.160	0.074
-117.137	800.000	-0.034	0.098
-116.122	29.909	0.204	0.171
-115.107	4.763	0.243	-0.176
-114.093	170.487	0.239	-0.337
-113.078	-79.420	0.205	-0.068
-112.064	25.786	-0.129	-0.105
-111.049	-69.707	-0.220	0.083
-110.034	-137.311	-0.155	0.017
-109.020	60.736	-0.076	-0.074
-108.005	-200.000	0.025	0.381
-106.991	-100.033	0.030	-0.007
-105.976	289.575	0.099	0.176
-104.962	26.704	0.310	-0.255
-103.947	513.392	-0.044	-0.100
-102.932	-200.000	0.033	0.247
-101.918	-37.509	-0.237	0.124
-100.903	800.000	0.075	0.280
-99.889	64.687	0.257	0.254
-98.874	-46.267	-0.258	-0.124
-97.859	-71.052	-0.225	-0.083
-96.845	-118.451	0.386	0.067
-95.830	1.374	-0.272	0.192
-94.816	194.933	0.037	0.055
-93.801	-200.000	-0.017	-0.152
-92.786	-52.856	-0.367	-0.166
-91.772	-79.291	0.281	-0.093
-90.757	-30.733	0.265	-0.147
-89.743	143.397	0.035	-0.046
-88.728	269.444	-0.158	-0.272
-87.713	-92.637	0.214	0.059
-86.699	-124.972	0.137	-0.021
-85.684	-200.000	0.004	0.061
-84.670	130.760	0.256	0.322
-83.655	-22.276	-0.214	0.127
-82.640	-0.691	0.202	0.141
-81.626	-28.289	-0.261	0.148
-80.611	-59.375	-0.132	0.056
-79.597	-113.682	0.109	-0.021
-78.582	240.958	0.235	0.385
-77.567	242.242	0.170	0.279
-76.553	800.000	0.091	-0.255
-75.538	441.089	0.144	-0.308
-74.524	-117.017	0.043	0.008
-73.509	-200.000	0.006	-0.107
-72.494	-200.000	-0.057	0.253
-71.480	-108.155	0.170	0.036
-70.465	-159.098	0.294	-0.016
-69.451	800.000	-0.055	0.215
-68.436	800.000	-0.040	0.153
-67.422	-90.741	0.047	0.013
-66.407	3.488	-0.111	-0.079
-65.392	86.673	0.041	0.045
-64.378	-185.666	-0.185	0.003
-63.363	-40.265	-0.406	0.207
-62.349	-200.000	-0.055	0.353
-61.334	8.295	-1.312	-0.966
-60.319	-200.000	0.035	0.780
-59.305	558.190	-0.465	-1.099
-58.290	194.695	0.754	1.121
-57.276	297.059	0.943	1.696
-56.261	-200.000	99.910	615.294
-55.246	557.172	1433.717	3386.051
-54.232	187.884	2627.882	3845.247
-53.217	117.473	2144.243	2584.147
-52.203	43.241	1590.386	1422.618
-51.188	34.532	1325.523	1134.168
-50.173	31.226	1283.976	1079.496
-49.159	55.138	1335.289	1264.138
-48.144	56.306	1350.829	1285.667
-47.130	34.614	1307.774	1119.281
-46.115	31.079	1290.216	1083.718
-45.100	30.800	1285.214	1077.859
-44.086	30.936	1282.641	1076.442
-43.071	30.759	1280.546	1073.623
-42.057	30.625	1279.146	1071.632
-41.042	30.743	1277.147	1070.593
-40.027	30.758	1275.867	1069.565
-39.013	30.747	1273.779	1067.709
-37.998	30.847	1271.708	1066.503
-36.984	30.864	1269.937	1065.075
-35.969	30.894	1268.491	1063.990
-34.954	30.966	1266.375	1062.586
-33.940	30.867	1265.967	1061.633
-32.925	31.018	1264.375	1061.119
-31.911	30.833	1263.441	1059.237
-30.896	31.007	1261.532	1058.582
-29.881	30.974	1260.624	1057.595
-28.867	31.044	1258.707	1056.338
-27.852	30.971	1257.428	1054.813
-26.838	31.001	1255.835	1053.601
-25.823	31.028	1254.657	1052.727
-24.809	30.923	1253.494	1051.115
-23.794	31.008	1251.903	1050.219
-22.779	31.027	1250.820	1049.373
-21.765	31.032	1249.678	1048.402
-20.750	31.033	1248.108	1047.048
-19.736	30.948	1246.849	1045.476
-18.721	30.788	1245.986	1043.813
-17.706	30.862	1244.547	1042.979
-16.692	30.865	1243.318	1041.927
-15.677	30.696	1242.353	1040.131
-14.663	30.851	1241.609	1040.336
-13.648	30.844	1240.409	1039.246
-12.633	30.847	1239.386	1038.366
-11.619	30.779	1238.712	1037.381
-10.604	30.768	1237.626	1036.369
-9.590	30.654	1236.641	1034.867
-8.575	30.752	1235.648	1034.542
-7.560	30.736	1235.029	1033.895
-6.546	30.781	1233.767	1033.045
-5.531	30.729	1233.250	1032.284
-4.517	30.849	1231.834	1031.724
-3.502	30.902	1230.860	1031.158
-2.487	30.850	1230.004	1030.112
-1.473	30.741	1226.176	1026.263
-0.458	29.195	1211.499	1005.512
0.556	23.355	1194.579	967.270
1.571	19.736	1198.976	950.878
2.586	18.817	1213.226	956.981
3.600	18.733	1202.576	948.030
4.615	13.573	1132.293	865.650
5.629	4.255	1058.189	763.243
6.644	0.019	1037.793	727.989
7.659	-0.337	1035.266	724.432
8.673	-0.465	1034.025	722.882
9.688	-0.446	1032.247	721.666
10.702	-0.109	1030.983	722.338
11.717	5.748	1039.089	756.273
12.731	14.874	1051.898	809.924
13.746	18.897	1056.241	832.728
14.761	19.363	1056.782	835.336
15.775	19.196	1056.191	833.990
16.790	19.075	1055.112	832.479
17.804	19.017	1054.822	831.895
18.819	18.991	1054.141	831.157
19.834	19.039	1053.987	831.197
20.848	19.026	1053.516	830.684
21.863	19.062	1052.473	829.963
22.877	18.887	1052.283	828.897
23.892	18.995	1051.284	828.559
24.907	19.041	1050.655	828.211
25.921	19.092	1049.442	827.427
26.936	19.050	1048.063	826.061
27.950	18.973	1046.533	824.414
28.965	19.000	1044.144	822.588
29.980	18.950	1042.526	821.004
30.994	19.075	1042.495	821.505
32.009	19.097	1040.609	820.050
33.023	18.847	1039.493	817.905
34.038	18.902	1038.830	817.573
35.053	19.153	1038.182	818.184
36.067	19.176	1037.294	817.521
37.082	19.180	1036.474	816.823
38.096	19.372	1035.239	816.687
39.111	19.413	1034.702	816.387
40.126	19.285	1033.592	814.833
41.140	18.873	1031.848	811.439
42.155	18.735	1030.446	809.615
43.169	18.813	1029.383	809.074
44.184	18.789	1028.185	807.951
45.199	18.703	1027.346	806.816
46.213	18.827	1025.915	806.203
47.228	18.936	1025.033	805.948
48.242	19.033	1023.869	805.414
49.257	19.030	1023.401	804.963
50.271	18.977	1022.952	804.292
51.286	19.146	1021.844	804.138
52.301	18.997	1020.883	802.613
53.315	19.148	1019.406	802.084
54.330	19.100	1018.252	800.885
55.344	19.218	1017.668	800.902
56.359	19.046	1016.938	799.459
57.374	18.909	1015.958	797.981
58.388	18.965	1015.122	797.511
59.403	18.820	1014.449	796.240
60.417	18.816	1013.125	795.112
61.432	18.893	1012.833	795.170
62.447	18.981	1012.301	795.088
63.461	18.978	1011.576	794.437
64.476	18.966	1009.997	793.069
65.490	18.817	1009.434	791.870
66.505	18.948	1008.699	791.827
67.520	18.977	1008.012	791.351
68.534	18.832	1006.966	789.795
69.549	18.482	1005.426	786.908
70.563	18.601	1004.812	786.904
71.578	18.585	1004.103	786.206
72.593	18.433	1003.365	784.861
73.607	18.558	1002.491	784.684
74.622	18.787	1002.280	785.493
75.636	18.760	1001.790	784.917
76.651	18.648	1000.321	783.185
77.666	18.617	999.595	782.406
78.680	18.760	998.743	782.323
79.695	18.915	998.341	782.644
80.709	18.770	998.035	781.673
81.724	18.754	997.003	780.726
82.739	18.945	995.929	780.681
83.753	19.124	995.754	781.289
84.768	19.251	994.621	780.905
85.782	19.192	993.897	780.001
86.797	19.222	992.827	779.229
87.812	19.229	991.149	777.875
88.826	19.363	990.513	777.912
89.841	19.287	989.574	776.761
90.855	19.311	988.978	776.332
91.870	19.198	987.915	774.923
92.884	19.113	986.677	773.500
93.899	19.029	985.785	772.354
94.914	19.229	984.995	772.565
95.928	19.029	984.204	770.978
96.943	18.944	982.603	769.280
97.957	18.659	981.117	766.774
98.972	18.501	980.547	765.553
99.987	18.805	979.346	765.906
101.001	19.008	978.766	766.287
102.016	19.101	977.436	765.593
103.030	19.160	975.984	764.649
104.045	18.802	975.719	762.785
105.060	18.603	974.739	761.067
106.074	18.841	974.216	761.647
107.089	19.305	973.588	763.144
108.103	19.145	972.349	761.400
109.118	19.095	970.770	759.874
110.133	18.913	970.493	758.786
111.147	18.821	968.793	756.986
112.162	18.677	967.573	755.330
113.176	19.013	966.753	756.100
114.191	18.811	966.178	754.698
115.206	18.324	965.571	752.017
116.220	18.518	964.520	751.982
117.235	18.695	963.172	751.642
118.249	18.712	962.513	751.135
119.264	18.657	961.738	750.225
120.279	18.662	961.216	749.773
121.293	18.794	960.260	749.533
122.308	18.720	959.527	748.574
123.322	18.764	958.284	747.730
124.337	18.744	956.351	746.069
125.352	18.207	955.172	742.750
126.366	18.112	954.258	741.563
127.381	18.844	953.896	744.390
128.395	19.172	953.593	745.508
129.410	19.272	952.384	744.927
130.424	19.187	951.239	743.600
131.439	19.091	950.597	742.615
132.454	19.130	949.445	741.822
133.468	19.137	948.569	741.101
134.483	19.231	948.047	741.031
135.497	19.380	947.145	740.900
136.512	19.352	946.585	740.275
137.527	19.465	945.195	739.608
138.541	19.271	944.959	738.527
139.556	19.350	943.964	738.023
140.570	19.388	943.174	737.500
141.585	19.273	941.912	735.958
142.600	19.308	940.671	735.071
143.614	19.454	940.222	735.279
144.629	19.504	939.678	735.004
145.643	19.384	938.577	733.567
146.658	19.314	937.228	732.148
147.673	19.210	936.160	730.809
148.687	19.253	935.206	730.182
149.702	19.173	934.102	728.916
150.716	19.268	933.190	728.543
151.731	19.347	932.631	728.375
152.746	19.534	932.369	728.896
153.760	19.545	931.493	728.193
154.775	19.526	930.822	727.523
155.789	19.583	929.554	726.708
156.804	19.637	928.759	726.247
157.819	19.569	927.833	725.178
158.833	19.625	927.512	725.094
159.848	19.546	926.162	723.647
160.862	19.466	925.113	722.427
161.877	19.506	924.800	722.286
162.892	19.554	923.795	721.638
163.906	19.523	922.424	720.374
164.921	19.676	921.408	720.154
165.935	19.634	920.703	719.365
166.950	19.475	919.699	717.855
167.964	19.497	919.127	717.438
168.979	19.335	918.294	716.047
169.994	19.383	917.020	715.193
171.008	19.526	917.031	715.729
172.023	19.531	915.520	714.507
173.037	19.269	914.316	712.423
174.052	19.166	913.361	711.188
175.067	19.308	912.927	711.374
176.081	19.516	912.440	711.791
177.096	19.321	912.154	710.702
178.110	19.169	910.637	708.828
179.125	19.028	910.207	707.852
180.140	19.088	909.786	707.709
181.154	19.155	909.434	707.646
182.169	19.384	909.156	708.311
183.183	19.674	908.414	708.857
184.198	19.421	907.787	707.268
185.213	19.428	907.169	706.753
186.227	19.571	906.198	706.522
187.242	19.582	905.269	705.776
188.256	19.700	904.821	705.850
189.271	19.716	903.655	704.941
190.286	19.327	903.272	702.997
191.300	18.985	901.665	700.292
192.315	18.259	900.047	696.021
193.329	18.146	899.732	695.257
194.344	18.911	900.097	698.585
195.359	19.609	899.622	700.988
196.373	19.561	899.140	700.358
197.388	19.424	898.353	699.126
198.402	19.239	898.126	698.137
199.417	19.264	897.210	697.465
200.432	19.104	896.052	695.857
201.446	18.922	895.680	694.772
202.461	18.991	895.145	694.573
203.475	18.040	893.067	689.065
204.490	17.476	891.951	685.871
205.504	18.396	892.475	689.924
206.519	19.119	891.806	692.251
207.534	19.095	891.933	692.192
208.548	19.566	891.531	693.713
209.563	19.228	890.707	691.652
210.577	19.274	889.725	691.015
211.592	19.610	889.373	692.025
212.607	19.461	888.548	690.725
213.621	19.558	887.973	690.606
214.636	19.640	886.889	690.031
215.650	19.531	886.034	688.869
216.665	19.752	885.531	689.297
217.680	19.484	884.826	687.619
218.694	19.100	883.954	685.354
219.709	18.909	883.429	684.124
220.723	19.333	882.529	685.053
221.738	19.463	881.890	685.013
222.753	19.322	881.480	684.072
223.767	19.500	881.029	684.368
224.782	19.756	880.381	684.821
225.796	19.604	880.373	684.150
226.811	19.109	878.160	680.413
227.826	18.441	877.184	676.959
228.840	18.693	877.037	677.782
229.855	18.729	875.986	677.052
230.869	18.547	874.732	675.304
231.884	18.816	874.960	676.483
232.899	19.615	875.148	679.712
233.913	19.395	874.394	678.200
234.928	19.339	873.871	677.516
235.942	19.399	873.092	677.087
236.957	19.238	872.095	675.622
237.972	19.269	871.613	675.311
238.986	19.363	870.714	674.921
240.001	19.330	870.188	674.324
241.015	19.434	869.596	674.213
242.030	19.277	869.476	673.449
243.045	19.597	868.567	673.934
244.059	19.755	867.838	673.923
245.074	19.425	867.185	672.071
246.088	19.061	866.528	670.084
247.103	19.380	865.769	670.680
248.117	19.902	865.432	672.389
249.132	19.840	865.047	671.789
250.147	19.964	864.370	671.684
251.161	20.179	863.994	672.165
252.176	20.236	862.930	671.500
253.190	20.277	862.594	671.337
254.205	20.349	862.475	671.466
255.220	20.308	861.698	670.642
256.234	20.227	860.807	669.576
257.249	20.187	859.771	668.558
258.263	19.984	859.545	667.541
259.278	20.296	858.677	668.007
260.293	20.135	857.987	666.792
261.307	20.185	857.020	666.176
262.322	19.879	856.617	664.627
263.336	19.138	854.435	660.037
264.351	18.183	852.773	655.040
265.366	18.286	852.443	655.120
266.380	19.331	853.157	659.611
267.395	19.885	852.779	661.381
268.409	19.808	851.898	660.343
269.424	20.001	851.277	660.540
270.439	20.141	850.611	660.498
271.453	20.244	850.049	660.395
272.468	20.259	850.059	660.403
273.482	20.272	849.515	659.969
274.497	19.854	848.536	657.564
275.512	19.686	847.434	656.014
276.526	20.168	846.995	657.444
277.541	20.179	846.944	657.386
278.555	19.790	845.839	654.997
279.570	19.770	844.875	654.117
280.585	19.936	844.458	654.364
281.599	19.823	843.984	653.514
282.614	19.220	842.481	650.018
283.628	19.368	841.986	650.136
284.643	19.741	841.618	651.200
285.657	19.333	840.721	648.914
286.672	19.127	839.658	647.260
287.687	19.813	839.834	649.915
288.701	19.661	839.313	648.884
289.716	19.586	838.001	647.533
290.730	19.292	837.736	646.169
291.745	19.104	836.692	644.603
292.760	19.415	836.520	645.578
293.774	20.354	836.691	649.166
294.789	20.634	836.606	650.087
295.803	20.588	836.000	649.387
296.818	20.687	835.284	649.144
297.833	20.300	834.004	646.649
298.847	20.057	833.546	645.333
299.862	20.471	832.950	646.354
300.876	20.610	833.206	647.013
301.891	20.544	831.834	645.647
302.906	20.019	830.703	642.761
303.920	20.316	830.439	643.601
304.935	20.654	830.274	644.670
305.949	20.570	829.525	643.722
306.964	20.227	828.952	641.950
307.979	20.405	828.676	642.336
308.993	20.642	828.849	643.292
310.008	20.654	827.680	642.372
311.022	20.509	826.829	641.119
312.037	20.414	826.655	640.576
313.052	20.208	825.358	638.756
314.066	19.393	824.582	635.101
315.081	19.086	823.663	633.208
316.095	19.893	824.036	636.406
317.110	20.417	823.447	637.820
318.125	19.660	821.788	633.702
319.139	18.749	820.318	629.176
320.154	18.812	820.362	629.385
321.168	19.527	820.898	632.361
322.183	20.150	820.590	634.349
323.197	20.284	820.014	634.338
324.212	20.460	819.970	634.892
325.227	20.580	819.327	634.775
326.241	20.427	818.662	633.644
327.256	20.261	818.019	632.488
328.270	20.280	817.133	631.815
329.285	20.073	816.770	630.723
330.300	19.947	815.603	629.310
331.314	20.257	815.212	630.078
332.329	20.373	815.109	630.365
333.343	20.644	814.592	630.891
334.358	20.537	814.419	630.314
335.373	20.536	814.054	629.972
336.387	20.879	813.720	630.900
337.402	20.943	813.545	630.940
338.416	20.765	812.971	629.796
339.431	20.947	813.004	630.423
340.446	20.951	812.535	630.017
341.460	21.000	811.784	629.556
342.475	20.753	811.128	628.102
343.489	20.851	811.270	628.509
344.504	21.060	810.781	628.829
345.519	21.120	810.724	628.944
346.533	21.177	809.906	628.460
347.548	21.343	809.602	628.767
348.562	21.217	808.919	627.727
349.577	21.333	808.121	627.468
350.592	21.335	807.353	626.825
351.606	21.295	807.208	626.511
352.621	21.204	806.366	625.478
353.635	21.016	805.387	623.989
354.650	20.386	803.984	620.599
355.665	19.610	802.664	616.753
356.679	19.983	802.463	617.877
357.694	20.255	802.308	618.673
358.708	20.207	801.393	617.741
359.723	20.692	801.248	619.302
360.738	21.172	800.784	620.594
361.752	21.214	800.383	620.378
362.767	21.378	799.955	620.572
363.781	21.570	799.743	621.036
364.796	21.407	799.519	620.227
365.810	21.496	799.361	620.366
366.825	21.567	798.269	619.716
367.840	21.200	797.768	617.974
368.854	20.971	797.287	616.736
369.869	20.972	796.865	616.359
370.883	21.012	796.226	615.951
371.898	20.907	795.456	614.932
372.913	21.035	795.044	615.009
373.927	21.279	794.315	615.248
374.942	21.184	794.335	614.875
375.956	21.234	794.186	614.882
376.971	21.336	793.830	614.911
377.986	21.437	793.583	615.022
379.000	21.592	792.451	614.632
380.015	21.330	792.219	613.481
381.029	21.381	791.501	613.047
382.044	21.644	790.785	613.360
383.059	21.565	790.389	612.722
384.073	21.477	790.514	612.456
385.088	21.696	789.342	612.261
386.102	21.507	789.072	611.337
387.117	21.483	788.262	610.570
388.132	21.088	787.408	608.479
389.146	20.617	786.363	605.976
390.161	21.106	786.127	607.441
391.175	21.340	786.222	608.276
392.190	20.987	785.337	606.311
393.205	19.738	783.580	600.567
394.219	18.607	781.594	595.071
395.234	18.608	781.550	594.987
396.248	19.969	783.312	601.001
397.263	21.417	783.224	605.902
398.278	21.310	783.115	605.394
399.292	21.143	782.485	604.276
400.307	21.019	782.396	603.725
401.321	21.241	781.673	603.881
402.336	21.399	781.978	604.608
403.350	21.822	781.354	605.534
404.365	21.977	781.070	605.796
405.380	22.346	780.723	606.746
406.394	22.371	780.076	606.273
407.409	22.212	779.727	605.403
408.423	22.180	779.020	604.688
409.438	22.206	778.983	604.698
410.453	22.290	778.607	604.641
411.467	22.091	778.030	603.456
412.482	22.191	777.411	603.264
413.496	22.331	777.092	603.444
414.511	22.419	776.842	603.497
415.526	22.314	776.204	602.590
416.540	22.020	775.559	601.028
417.555	21.913	775.092	600.250
418.569	21.817	775.003	599.799
419.584	21.956	774.230	599.621
420.599	21.726	773.534	598.243
421.613	159.468	1360.934	1798.412
422.628	137.668	1446.537	1798.496
