DTS Sentinel unit serial number:	SN413079Multiplexer serial number:	ORYXHardware model number:	OX4-SRSoftware version number:	ORYX F/W v4.00 Oryx Data Collector v3.7.2.0data status	okinstallation	princeton_trtdifferential loss correction	single-endedforward channel	channel 1reverse channel	N/Adate	2019/09/13time	05:30:35forward acquisition time	60.00reverse acquisition time	0.00gamma	496.2192k internal	0.2335k external	0.2335temperature offset calibration	1.0160default loss term (dB/km)	0.3790temperature slope calibration	1.0000multiplexer offset coefficient	1.0000multiplexer slope coefficient	1.0000fibre end	0.00T internal ref (°C)	26.27T ext. ref 1 (°C)	4.04T ext. ref 2 (°C)	20.86length (m)	temperature (°C)	Stokes	anti-Stokes-747.200	-64.503	-0.093	-0.038
-746.185	299.838	-0.205	-0.380
-745.171	-65.248	0.115	-0.046
-744.156	-140.994	-0.231	0.024
-743.142	174.341	0.097	0.141
-742.127	248.800	-0.185	0.315
-741.112	-164.564	-0.114	-0.005
-740.098	-64.171	-0.244	0.100
-739.083	800.000	0.047	0.171
-738.069	261.052	0.213	0.370
-737.054	-149.960	0.334	0.026
-736.039	-125.487	-0.485	0.074
-735.025	55.199	0.061	0.060
-734.010	-106.204	-0.328	-0.074
-732.996	521.720	-0.131	-0.308
-731.981	46.799	-0.083	0.078
-730.966	-80.037	0.063	-0.021
-729.952	238.880	0.070	-0.116
-728.937	104.179	-0.185	0.218
-727.923	-8.437	-0.171	0.115
-726.908	-200.000	0.007	0.119
-725.894	-72.186	-0.358	0.133
-724.879	-200.000	-0.008	0.251
-723.864	-33.746	-0.193	-0.107
-722.850	172.663	-0.084	-0.121
-721.835	-28.647	-0.282	-0.163
-720.821	-31.755	-0.215	-0.121
-719.806	-133.882	0.225	0.028
-718.791	-200.000	-0.104	-0.000
-717.777	-200.000	-0.024	0.191
-716.762	78.805	0.091	0.097
-715.748	65.051	-0.291	-0.295
-714.733	3.687	-0.135	-0.099
-713.718	274.121	-0.065	-0.116
-712.704	21.493	-0.270	-0.220
-711.689	114.475	-0.130	0.159
-710.675	183.671	-0.148	0.219
-709.660	-128.553	-0.314	-0.045
-708.645	-51.127	0.266	-0.125
-707.631	294.429	0.084	-0.155
-706.616	9.778	-0.261	0.199
-705.602	800.000	-0.072	-0.202
-704.587	29.561	0.217	-0.185
-703.572	-103.278	-0.196	-0.046
-702.558	-82.285	-0.421	-0.137
-701.543	-78.969	-0.099	-0.034
-700.529	-125.450	-0.082	0.012
-699.514	15.775	-0.207	0.163
-698.499	359.831	0.060	-0.120
-697.485	-65.040	0.118	0.048
-696.470	-20.155	-0.146	-0.090
-695.456	-200.000	0.012	0.137
-694.441	-27.105	-0.163	0.095
-693.426	-200.000	0.142	-0.644
-692.412	-18.126	0.099	-0.062
-691.397	-200.000	-0.004	0.203
-690.383	-152.122	-0.212	-0.015
-689.368	50.393	-0.089	0.085
-688.354	-20.155	0.117	0.072
-687.339	800.000	-0.102	-0.324
-686.324	-200.000	0.045	-0.359
-685.310	-200.000	-0.007	-0.153
-684.295	21.329	0.202	-0.164
-683.281	32.508	-0.178	-0.154
-682.266	-145.309	0.282	-0.026
-681.251	-200.000	-0.013	-0.148
-680.237	-44.087	-0.123	0.062
-679.222	-37.134	0.201	0.108
-678.208	-97.063	0.071	0.019
-677.193	-122.314	-0.323	-0.053
-676.178	227.707	-0.084	0.137
-675.164	524.433	-0.140	-0.330
-674.149	-109.542	0.211	0.045
-673.135	95.102	-0.172	-0.196
-672.120	-200.000	0.035	0.173
-671.105	-147.775	-0.061	0.005
-670.091	-115.864	0.277	0.052
-669.076	-85.571	-0.305	0.095
-668.062	800.000	0.110	0.322
-667.047	-60.582	-0.136	-0.058
-666.032	454.048	0.124	0.276
-665.018	-38.782	-0.338	-0.179
-664.003	259.903	0.106	0.184
-662.989	800.000	0.065	0.187
-661.974	-200.000	-0.053	-0.241
-660.959	-31.159	-0.096	-0.054
-659.945	64.253	0.054	0.055
-658.930	-23.814	-0.107	0.064
-657.916	-53.227	0.260	0.119
-656.901	-134.053	0.081	-0.010
-655.886	-81.003	0.328	-0.109
-654.872	9.390	0.132	-0.100
-653.857	37.520	-0.143	0.127
-652.843	-83.855	0.096	0.031
-651.828	-2.847	-0.169	0.118
-650.814	524.538	0.081	0.191
-649.799	-120.664	-0.160	-0.027
-648.784	800.000	-0.053	-0.182
-647.770	-56.160	-0.279	-0.125
-646.755	-20.429	-0.267	-0.165
-645.741	112.849	-0.088	-0.107
-644.726	800.000	-0.056	0.233
-643.711	-37.673	0.219	-0.117
-642.697	611.911	0.061	-0.152
-641.682	-200.000	0.003	-0.105
-640.668	527.438	0.021	-0.050
-639.653	516.700	0.038	0.089
-638.638	-18.250	0.223	-0.140
-637.624	-200.000	0.058	0.256
-636.609	-152.013	-0.212	-0.015
-635.595	-99.463	0.111	-0.028
-634.580	-70.134	0.202	-0.077
-633.565	800.000	0.024	0.088
-632.551	27.858	-0.164	0.138
-631.536	-18.708	-0.205	-0.128
-630.522	-200.000	0.030	0.305
-629.507	800.000	0.045	0.152
-628.492	50.518	-0.085	-0.080
-627.478	-200.000	-0.007	-0.480
-626.463	800.000	-0.086	-0.252
-625.449	-186.414	0.040	-0.001
-624.434	-200.000	-0.013	0.126
-623.419	-88.314	-0.194	-0.058
-622.405	289.919	-0.013	-0.023
-621.390	-81.050	-0.362	0.120
-620.376	800.000	0.024	-0.100
-619.361	-123.992	0.107	0.017
-618.346	-200.000	-0.030	-0.157
-617.332	499.112	-0.083	-0.191
-616.317	-200.000	0.022	-0.276
-615.303	-200.000	-0.015	-0.129
-614.288	220.930	0.065	0.104
-613.273	-66.969	0.188	-0.074
-612.259	89.528	0.130	-0.145
-611.244	-107.791	-0.063	0.014
-610.230	800.000	-0.076	0.220
-609.215	-200.000	-0.076	-0.405
-608.201	-93.816	-0.145	0.040
-607.186	-200.000	0.001	-0.099
-606.171	-41.722	-0.191	-0.098
-605.157	202.535	-0.261	-0.403
-604.142	-200.000	-0.028	0.239
-603.128	314.681	-0.227	-0.427
-602.113	177.406	-0.046	-0.067
-601.098	20.440	-0.324	0.262
-600.084	-88.924	0.312	-0.092
-599.069	78.177	0.364	0.388
-598.055	730.620	0.093	0.250
-597.040	-61.453	0.215	0.090
-596.025	-200.000	0.001	0.286
-595.011	-83.403	0.341	0.109
-593.996	-200.000	0.009	-0.270
-592.982	-89.934	-0.009	-0.003
-591.967	-52.890	0.286	0.132
-590.952	800.000	0.021	0.089
-589.938	800.000	-0.018	-0.062
-588.923	119.004	-0.124	0.153
-587.909	392.276	-0.167	-0.346
-586.894	207.384	0.050	-0.079
-585.879	574.699	-0.099	0.241
-584.865	-200.000	-0.018	0.355
-583.850	115.446	0.373	-0.455
-582.836	-110.146	-0.229	0.048
-581.821	800.000	0.047	-0.129
-580.806	-82.489	-0.178	0.058
-579.792	747.706	-0.130	-0.351
-578.777	131.437	0.171	0.219
-577.763	-200.000	-0.018	0.185
-576.748	364.978	-0.156	-0.314
-575.733	173.349	0.077	-0.111
-574.719	418.522	-0.065	-0.140
-573.704	584.072	0.170	-0.416
-572.690	-200.000	0.047	-0.214
-571.675	8.930	0.152	0.115
-570.661	243.008	0.168	0.281
-569.646	-200.000	0.021	0.138
-568.631	-151.752	-0.229	0.017
-567.617	64.053	0.032	0.032
-566.602	-114.949	-0.194	0.037
-565.588	369.793	0.084	-0.171
-564.573	258.092	-0.188	-0.323
-563.558	-57.985	-0.192	0.084
-562.544	-200.000	-0.007	-0.288
-561.529	277.856	0.033	-0.059
-560.515	38.780	0.429	0.382
-559.500	-147.716	-0.043	-0.004
-558.485	271.051	0.010	0.017
-557.471	-130.488	0.062	-0.008
-556.456	-92.558	-0.155	0.044
-555.442	800.000	0.058	-0.168
-554.427	66.843	0.223	0.226
-553.412	-200.000	-0.030	0.153
-552.398	277.553	0.042	-0.074
-551.383	-48.473	-0.140	0.067
-550.369	-67.322	0.216	0.085
-549.354	-182.374	0.139	-0.003
-548.339	483.223	0.135	-0.306
-547.325	800.000	0.061	0.209
-546.310	-37.518	-0.100	-0.053
-545.296	22.949	0.131	-0.107
-544.281	800.000	0.077	-0.324
-543.266	130.555	0.054	-0.069
-542.252	800.000	0.057	0.243
-541.237	146.955	-0.058	0.078
-540.223	-200.000	0.038	-0.294
-539.208	41.895	0.040	0.037
-538.193	426.930	-0.077	-0.165
-537.179	51.463	-0.086	-0.081
-536.164	-200.000	-0.004	-0.083
-535.150	353.533	0.070	-0.139
-534.135	195.639	0.143	0.217
-533.121	57.979	-0.060	-0.058
-532.106	284.664	-0.160	-0.287
-531.091	-200.000	-0.019	0.134
-530.077	800.000	-0.125	0.498
-529.062	196.028	-0.187	-0.284
-528.048	-71.392	0.074	0.027
-527.033	-46.132	0.162	0.079
-526.018	262.755	-0.070	0.122
-525.004	543.284	-0.191	0.454
-523.989	121.257	0.272	-0.338
-522.975	486.128	0.119	0.269
-521.960	5.696	0.135	0.099
-520.945	-88.244	-0.245	0.073
-519.931	-197.415	-0.355	-0.002
-518.916	800.000	-0.094	0.390
-517.902	-4.196	-0.249	-0.171
-516.887	-38.789	0.317	0.167
-515.872	436.801	0.055	0.120
-514.858	96.960	-0.291	0.332
-513.843	-200.000	-0.015	0.126
-512.829	171.586	-0.167	-0.239
-511.814	-95.974	0.148	0.039
-510.799	-14.585	-0.055	0.035
-509.785	-13.446	-0.136	-0.088
-508.770	-35.391	0.254	0.137
-507.756	83.753	-0.102	0.111
-506.741	-77.859	-0.282	-0.097
-505.726	451.538	-0.032	0.069
-504.712	-200.000	0.016	0.167
-503.697	226.577	-0.149	-0.241
-502.683	89.280	-0.142	0.158
-501.668	-76.862	0.173	-0.060
-500.653	-200.000	-0.005	-0.085
-499.639	115.497	0.188	0.229
-498.624	-95.450	0.161	-0.043
-497.610	67.894	0.301	-0.306
-496.595	-21.796	-0.295	-0.179
-495.581	800.000	-0.052	-0.166
-494.566	-66.203	-0.061	-0.024
-493.551	-92.116	0.240	-0.067
-492.537	-200.000	0.019	-0.146
-491.522	21.874	0.151	0.123
-490.508	361.483	0.080	0.159
-489.493	-36.142	-0.108	-0.058
-488.478	786.009	0.234	-0.638
-487.464	-42.569	0.119	-0.060
-486.449	-151.167	0.444	-0.033
-485.435	-87.425	0.183	-0.055
-484.420	131.174	0.127	0.163
-483.405	-200.000	-0.020	-0.259
-482.391	-88.381	0.117	-0.035
-481.376	310.627	0.120	0.223
-480.362	-129.214	-0.210	0.029
-479.347	69.269	-0.097	-0.100
-478.332	80.616	-0.198	0.212
-477.318	800.000	-0.096	0.297
-476.303	116.048	0.187	0.228
-475.289	-64.973	0.426	0.171
-474.274	374.485	-0.164	-0.331
-473.259	54.305	-0.227	0.218
-472.245	-23.905	0.222	0.132
-471.230	-175.358	-0.375	-0.010
-470.216	123.449	-0.104	-0.130
-469.201	-200.000	0.008	0.094
-468.186	-200.000	-0.003	-0.121
-467.172	-200.000	-0.013	0.085
-466.157	-200.000	0.037	-0.204
-465.143	-133.844	0.250	0.031
-464.128	70.622	0.142	0.146
-463.113	800.000	-0.045	-0.150
-462.099	-114.589	-0.174	0.033
-461.084	38.221	-0.054	-0.048
-460.070	-200.000	0.015	-0.110
-459.055	-200.000	0.016	0.227
-458.040	-115.689	-0.238	0.044
-457.026	-116.756	0.164	0.030
-456.011	534.465	0.109	0.256
-454.997	-27.647	-0.199	0.115
-453.982	757.579	0.124	-0.334
-452.968	59.179	0.075	-0.074
-451.953	-109.448	0.195	-0.041
-450.938	-97.986	0.124	0.032
-449.924	-2.338	-0.107	0.075
-448.909	431.161	-0.115	-0.247
-447.895	329.738	-0.121	0.231
-446.880	63.896	0.084	0.084
-445.865	-33.932	0.088	0.048
-444.851	49.552	0.125	0.117
-443.836	346.471	-0.097	0.190
-442.822	-150.520	-0.230	0.018
-441.807	50.606	0.143	-0.135
-440.792	-129.465	-0.210	0.029
-439.778	350.300	0.136	-0.268
-438.763	-177.493	0.085	-0.002
-437.749	-200.000	-0.004	-0.115
-436.734	6.435	0.201	-0.148
-435.719	800.000	0.051	0.186
-434.705	-152.165	-0.086	-0.006
-433.690	-200.000	0.028	-0.133
-432.676	-13.001	-0.095	0.061
-431.661	390.656	-0.098	-0.201
-430.646	-52.914	-0.110	-0.050
-429.632	-104.561	-0.349	-0.080
-428.617	556.682	0.051	-0.122
-427.603	-200.000	0.000	-0.253
-426.588	346.413	0.087	0.169
-425.573	69.606	0.017	-0.017
-424.559	40.412	0.046	0.041
-423.544	-200.000	-0.036	0.287
-422.530	148.469	-0.059	0.080
-421.515	-55.940	-0.285	-0.126
-420.500	-200.000	-0.036	-0.466
-419.486	154.511	0.083	-0.114
-418.471	-200.000	0.059	0.277
-417.457	41.505	-0.154	-0.138
-416.442	-166.562	0.424	0.018
-415.428	-181.179	0.213	-0.004
-414.413	-62.475	0.115	0.047
-413.398	64.814	-0.082	0.082
-412.384	-200.000	0.011	-0.076
-411.369	-36.721	-0.065	-0.034
-410.355	-200.000	-0.048	-0.419
-409.340	116.926	-0.132	0.161
-408.325	800.000	0.049	-0.172
-407.311	-77.539	-0.146	0.050
-406.296	87.296	0.190	-0.209
-405.282	-136.793	-0.150	0.017
-404.267	710.075	-0.083	-0.218
-403.252	207.586	0.143	-0.221
-402.238	429.574	-0.024	-0.051
-401.223	-200.000	-0.042	0.277
-400.209	800.000	0.079	-0.332
-399.194	-200.000	0.076	-0.612
-398.179	-200.000	-0.010	0.155
-397.165	64.405	0.217	0.217
-396.150	177.263	-0.152	-0.220
-395.136	-33.475	-0.246	-0.135
-394.121	-36.242	-0.172	0.092
-393.106	50.705	0.180	0.169
-392.092	47.700	-0.158	-0.146
-391.077	-143.269	0.093	0.009
-390.063	575.101	0.063	-0.152
-389.048	-55.652	-0.282	0.125
-388.033	425.835	0.097	-0.206
-387.019	-79.105	-0.340	-0.114
-386.004	-44.453	-0.168	0.083
-384.990	393.022	-0.130	0.268
-383.975	-95.451	0.119	0.032
-382.960	-117.639	-0.133	0.024
-381.946	-200.000	0.011	-0.048
-380.931	15.802	0.076	0.059
-379.917	800.000	-0.029	0.092
-378.902	-200.000	-0.034	-0.193
-377.888	-34.448	-0.387	-0.210
-376.873	271.591	-0.012	-0.021
-375.858	677.034	0.062	0.159
-374.844	-33.476	-0.234	0.128
-373.829	-39.157	0.158	-0.082
-372.815	-85.220	0.244	-0.076
-371.800	28.415	0.126	-0.105
-370.785	-83.526	-0.100	0.032
-369.771	545.322	0.112	-0.264
-368.756	-36.455	-0.155	0.083
-367.742	113.857	0.154	0.185
-366.727	800.000	0.031	0.085
-365.712	800.000	0.076	0.235
-364.698	-87.571	-0.203	-0.061
-363.683	-200.000	-0.036	0.317
-362.669	15.115	0.294	0.228
-361.654	5.970	0.196	-0.144
-360.639	800.000	0.080	-0.269
-359.625	-200.000	-0.000	-0.010
-358.610	-194.739	-0.070	0.001
-357.596	-200.000	-0.016	-0.077
-356.581	800.000	0.042	-0.122
-355.566	35.609	0.012	0.011
-354.552	271.321	0.151	0.264
-353.537	88.350	0.096	0.106
-352.523	-81.732	-0.247	0.080
-351.508	-200.000	-0.264	0.000
-350.493	-200.000	-0.038	0.363
-349.479	207.582	-0.045	0.069
-348.464	267.233	0.103	0.178
-347.450	-137.373	0.274	0.031
-346.435	-171.356	-0.102	0.003
-345.420	-200.000	-0.026	0.182
-344.406	-159.115	0.261	-0.015
-343.391	-91.644	-0.338	-0.095
-342.377	24.636	-0.132	-0.108
-341.362	-130.215	-0.178	0.024
-340.348	-82.465	0.368	0.118
-339.333	25.927	-0.141	-0.116
-338.318	-200.000	0.006	0.080
-337.304	800.000	0.037	-0.118
-336.289	-66.146	0.320	-0.126
-335.275	612.251	-0.086	-0.213
-334.260	477.124	0.069	0.155
-333.245	-78.522	-0.142	0.048
-332.231	800.000	0.045	0.153
-331.216	226.917	-0.043	-0.069
-330.202	-29.454	0.390	-0.221
-329.187	-74.482	-0.253	-0.090
-328.172	800.000	-0.054	-0.171
-327.158	-200.000	-0.006	-0.117
-326.143	235.734	-0.038	0.063
-325.129	800.000	0.048	0.157
-324.114	43.652	-0.288	-0.260
-323.099	189.790	0.156	-0.231
-322.085	-137.388	0.057	0.006
-321.070	-200.000	0.014	0.232
-320.056	-88.644	0.230	-0.068
-319.041	52.755	0.193	0.182
-318.026	-41.425	-0.173	0.088
-317.012	-34.262	0.171	-0.093
-315.997	800.000	0.016	0.058
-314.983	-200.000	0.008	-0.289
-313.968	252.586	0.150	0.252
-312.953	-124.979	0.092	0.014
-311.939	800.000	-0.045	-0.130
-310.924	-200.000	-0.069	0.541
-309.910	418.076	-0.014	0.029
-308.895	-200.000	-0.033	0.213
-307.880	-3.497	0.245	-0.168
-306.866	-38.611	-0.116	-0.061
-305.851	240.433	-0.121	0.199
-304.837	-182.768	0.124	-0.002
-303.822	33.245	-0.066	0.056
-302.807	-51.229	-0.162	-0.075
-301.793	-89.847	0.259	-0.075
-300.778	-25.202	0.212	0.124
-299.764	126.539	0.146	0.183
-298.749	225.649	-0.043	0.069
-297.735	-200.000	-0.031	0.475
-296.720	-163.043	-0.535	0.026
-295.705	348.653	0.136	0.264
-294.691	-200.000	-0.027	0.266
-293.676	-126.467	-0.381	0.056
-292.662	-78.220	0.281	0.095
-291.647	453.211	0.076	-0.167
-290.632	800.000	-0.081	0.271
-289.618	129.220	-0.044	-0.055
-288.603	-52.692	-0.157	0.072
-287.589	152.335	-0.055	0.074
-286.574	-153.334	-0.054	-0.004
-285.559	70.034	0.093	-0.094
-284.545	153.686	-0.146	-0.198
-283.530	-2.466	0.193	0.133
-282.516	-90.140	0.352	0.101
-281.501	5.640	-0.295	-0.215
-280.486	-27.240	0.158	0.091
-279.472	800.000	0.177	0.509
-278.457	18.754	-0.214	0.169
-277.443	800.000	0.033	-0.136
-276.428	18.077	-0.077	0.061
-275.413	800.000	0.012	-0.035
-274.399	-136.757	-0.123	-0.014
-273.384	82.308	0.181	-0.194
-272.370	800.000	0.125	0.454
-271.355	-24.149	0.207	0.122
-270.340	6.651	-0.122	0.089
-269.326	34.602	0.067	-0.058
-268.311	-200.000	-0.016	-0.262
-267.297	-18.870	-0.026	-0.016
-266.282	-79.270	-0.142	0.047
-265.267	-72.694	0.177	0.065
-264.253	568.388	0.069	0.164
-263.238	-200.000	0.021	-0.173
-262.224	-77.963	-0.036	-0.012
-261.209	569.880	-0.113	-0.272
-260.195	77.304	-0.341	0.358
-259.180	-144.741	0.176	-0.016
-258.165	-60.671	0.083	-0.035
-257.151	-98.572	0.267	-0.067
-256.136	-106.936	0.140	0.030
-255.122	-200.000	-0.031	0.286
-254.107	62.402	-0.151	-0.148
-253.092	800.000	-0.040	-0.156
-252.078	444.523	-0.052	-0.113
-251.063	-91.281	0.123	-0.035
-250.049	800.000	0.099	-0.327
-249.034	-143.509	-0.331	-0.031
-248.019	-82.292	0.195	0.063
-247.005	-46.993	-0.201	0.097
-245.990	-43.315	-0.165	0.082
-244.976	216.323	-0.030	0.047
-243.961	-55.168	-0.105	0.047
-242.946	-25.691	-0.227	0.132
-241.932	75.447	0.175	0.182
-240.917	-200.000	0.010	0.200
-239.903	-113.842	-0.212	0.041
-238.888	8.422	0.081	0.060
-237.873	64.861	-0.252	0.251
-236.859	-147.481	0.165	-0.014
-235.844	-184.280	-0.148	0.002
-234.830	-106.684	0.181	-0.040
-233.815	3.639	0.048	-0.035
-232.800	2.177	-0.298	-0.212
-231.786	171.520	0.123	-0.174
-230.771	-95.386	-0.184	0.049
-229.757	74.364	0.107	0.111
-228.742	800.000	-0.060	-0.209
-227.727	57.515	-0.211	-0.203
-226.713	-200.000	-0.036	0.228
-225.698	-163.178	0.267	0.013
-224.684	-153.031	0.069	-0.005
-223.669	-124.699	0.261	-0.040
-222.655	-33.456	-0.029	0.016
-221.640	-81.800	-0.149	0.048
-220.625	800.000	-0.067	0.232
-219.611	557.830	-0.049	-0.115
-218.596	-200.000	0.020	0.221
-217.582	-143.712	0.191	-0.018
-216.567	800.000	-0.060	0.224
-215.552	-7.090	-0.147	0.098
-214.538	186.354	0.060	-0.088
-213.523	-38.657	0.285	0.148
-212.509	-7.596	-0.135	0.090
-211.494	-120.838	0.317	0.053
-210.479	-200.000	-0.007	0.042
-209.465	-37.112	0.375	0.198
-208.450	4.863	-0.131	-0.095
-207.436	212.614	-0.128	0.198
-206.421	800.000	-0.059	-0.171
-205.406	800.000	-0.044	0.156
-204.392	67.765	0.158	0.159
-203.377	282.070	0.166	0.292
-202.363	368.850	-0.028	-0.056
-201.348	100.799	0.106	-0.122
-200.333	30.760	-0.092	0.077
-199.319	188.755	0.147	-0.216
-198.304	210.215	0.056	0.086
-197.290	-200.000	0.020	-0.363
-196.275	-90.750	-0.177	0.050
-195.260	189.460	0.192	0.282
-194.246	554.990	0.046	-0.110
-193.231	497.850	-0.092	0.208
-192.217	648.785	0.096	-0.242
-191.202	-200.000	-0.006	0.104
-190.187	138.907	-0.095	-0.123
-189.173	-37.853	-0.094	-0.049
-188.158	-114.434	0.095	-0.018
-187.144	172.215	0.067	0.095
-186.129	-200.000	0.052	0.379
-185.114	-27.246	0.103	0.059
-184.100	-37.230	-0.197	0.104
-183.085	-106.924	0.223	-0.049
-182.071	-6.294	0.150	-0.101
-181.056	198.704	-0.160	0.241
-180.042	-149.699	-0.416	0.032
-179.027	-29.621	-0.240	-0.135
-178.012	-200.000	-0.000	0.035
-176.998	115.339	-0.205	0.247
-175.983	493.305	0.127	-0.286
-174.969	-65.246	0.146	-0.058
-173.954	486.548	-0.126	-0.282
-172.939	-200.000	-0.000	-0.155
-171.925	82.406	0.253	0.270
-170.910	-112.078	-0.324	0.064
-169.896	-122.316	-0.009	0.001
-168.881	-71.683	-0.203	0.074
-167.866	800.000	-0.085	-0.364
-166.852	505.666	0.155	-0.353
-165.837	92.812	0.175	-0.194
-164.823	-86.944	0.421	-0.126
-163.808	-104.912	-0.147	-0.033
-162.793	-158.660	-0.255	-0.014
-161.779	-200.000	0.018	0.342
-160.764	-200.000	0.031	-0.193
-159.750	104.847	0.058	-0.067
-158.735	409.130	-0.162	-0.336
-157.720	800.000	-0.081	-0.253
-156.706	307.555	0.103	0.189
-155.691	184.318	-0.071	-0.103
-154.677	188.206	0.210	0.308
-153.662	-200.000	-0.016	-0.083
-152.647	-6.452	-0.206	0.138
-151.633	-23.219	0.135	0.079
-150.618	-200.000	0.020	0.155
-149.604	-18.067	0.251	-0.155
-148.589	786.329	0.086	-0.231
-147.574	-200.000	0.017	-0.132
-146.560	-35.449	-0.214	-0.114
-145.545	-200.000	-0.053	-0.369
-144.531	-196.081	-0.300	-0.002
-143.516	-50.144	0.016	0.007
-142.502	198.719	-0.137	-0.206
-141.487	-200.000	-0.037	-0.305
-140.472	204.845	-0.121	0.184
-139.458	-21.456	-0.081	-0.048
-138.443	-12.702	0.085	-0.055
-137.429	-200.000	-0.034	-0.161
-136.414	41.553	-0.084	-0.074
-135.399	213.464	0.158	-0.244
-134.385	-200.000	-0.011	0.203
-133.370	-137.419	-0.102	0.011
-132.356	800.000	0.047	0.172
-131.341	121.111	0.049	-0.060
-130.326	57.354	0.112	0.107
-129.312	-200.000	0.024	0.271
-128.297	305.801	0.068	-0.123
-127.283	66.486	-0.038	-0.038
-126.268	22.280	0.309	-0.248
-125.253	60.168	0.340	-0.329
-124.239	-64.168	-0.080	-0.032
-123.224	-84.013	0.502	-0.156
-122.210	93.132	0.206	-0.229
-121.195	800.000	0.074	-0.263
-120.180	-83.926	-0.238	0.074
-119.166	-68.007	0.062	0.024
-118.151	-118.434	0.133	0.023
-117.137	-79.932	-0.225	-0.074
-116.122	-200.000	-0.014	0.102
-115.107	-97.731	-0.091	-0.023
-114.093	-200.000	0.041	-0.200
-113.078	67.397	-0.106	-0.106
-112.064	102.870	-0.112	-0.128
-111.049	403.514	0.118	0.244
-110.034	-200.000	0.002	-0.045
-109.020	-200.000	0.028	-0.426
-108.005	45.064	0.194	-0.176
-106.991	-200.000	0.275	0.000
-105.976	80.704	0.092	0.097
-104.962	-200.000	0.020	0.110
-103.947	-41.482	-0.320	-0.161
-102.932	-30.700	0.269	-0.149
-101.918	-200.000	-0.017	-0.355
-100.903	400.014	-0.085	-0.175
-99.889	-24.488	0.168	-0.098
-98.874	-32.151	-0.130	-0.071
-97.859	30.709	0.059	0.049
-96.845	547.399	0.197	-0.461
-95.830	-200.000	0.079	-0.388
-94.816	-75.889	-0.208	0.072
-93.801	-134.130	0.155	-0.019
-92.786	15.834	-0.215	-0.166
-91.772	35.341	-0.044	-0.038
-90.757	-93.034	0.140	-0.038
-89.743	685.639	-0.160	-0.409
-88.728	-31.021	-0.136	-0.075
-87.713	-73.985	0.171	-0.061
-86.699	-56.118	0.085	-0.037
-85.684	800.000	0.046	0.190
-84.670	273.520	-0.032	0.055
-83.655	800.000	0.043	0.131
-82.640	-124.044	-0.130	0.020
-81.626	-73.247	0.297	0.106
-80.611	23.011	-0.281	0.225
-79.597	-139.709	0.282	-0.029
-78.582	197.782	-0.060	-0.089
-77.567	800.000	0.096	-0.273
-76.553	80.555	0.285	0.301
-75.538	-54.454	-0.252	0.112
-74.524	-123.454	0.130	0.020
-73.509	-200.000	-0.046	0.238
-72.494	49.348	0.127	0.117
-71.480	-51.721	-0.240	-0.109
-70.465	-28.025	-0.208	-0.118
-69.451	-68.720	-0.195	0.074
-68.436	-21.683	0.181	-0.108
-67.422	800.000	-0.059	0.202
-66.407	-91.803	0.275	-0.076
-65.392	-200.000	-0.011	0.116
-64.378	-200.000	0.025	-0.200
-63.363	-200.000	-0.013	0.099
-62.349	-133.143	0.255	-0.032
-61.334	197.524	-0.887	-1.325
-60.319	356.475	0.351	0.684
-59.305	-200.000	-0.173	-1.022
-58.290	127.834	0.607	0.755
-57.276	-200.000	0.321	1.486
-56.261	-200.000	117.571	647.418
-55.246	490.728	1548.110	3464.534
-54.232	174.576	2715.501	3841.164
-53.217	104.462	2151.242	2476.926
-52.203	37.760	1585.246	1376.783
-51.188	29.640	1328.022	1105.012
-50.173	26.874	1289.210	1056.591
-49.159	52.389	1348.604	1258.198
-48.144	50.796	1362.485	1261.606
-47.130	29.692	1315.740	1094.929
-46.115	26.395	1297.865	1060.708
-45.100	26.210	1292.345	1055.070
-44.086	26.177	1289.980	1052.909
-43.071	26.004	1287.696	1049.997
-42.057	26.051	1286.123	1048.942
-41.042	26.093	1284.266	1047.629
-40.027	26.186	1282.479	1046.670
-39.013	26.088	1280.597	1044.527
-37.998	26.011	1279.099	1042.815
-36.984	26.252	1276.866	1042.348
-35.969	26.302	1275.123	1041.169
-34.954	26.219	1273.447	1039.282
-33.940	26.262	1272.530	1038.743
-32.925	26.227	1271.021	1037.266
-31.911	26.337	1269.476	1036.595
-30.896	26.433	1267.809	1035.743
-29.881	26.373	1266.886	1034.606
-28.867	26.433	1265.283	1033.598
-27.852	26.409	1263.742	1032.162
-26.838	26.366	1262.364	1030.749
-25.823	26.302	1261.280	1029.459
-24.809	26.396	1259.811	1028.751
-23.794	26.342	1258.689	1027.488
-22.779	26.482	1256.738	1026.650
-21.765	26.448	1255.635	1025.515
-20.750	26.414	1254.496	1024.351
-19.736	26.285	1253.283	1022.590
-18.721	26.374	1252.255	1022.217
-17.706	26.166	1251.322	1020.236
-16.692	26.072	1250.458	1018.961
-15.677	26.231	1249.341	1018.911
-14.663	26.130	1248.196	1017.367
-13.648	26.221	1246.517	1016.466
-12.633	26.206	1245.904	1015.846
-11.619	26.224	1245.015	1015.178
-10.604	26.225	1244.514	1014.736
-9.590	26.233	1242.994	1013.504
-8.575	26.288	1242.211	1013.135
-7.560	26.160	1241.521	1011.813
-6.546	26.181	1240.604	1011.143
-5.531	26.172	1239.723	1010.333
-4.517	26.147	1239.146	1009.683
-3.502	26.170	1237.939	1008.788
-2.487	26.196	1237.021	1008.146
-1.473	26.201	1232.723	1004.630
-0.458	24.625	1218.138	984.035
0.556	22.764	1201.663	946.916
1.571	19.147	1207.373	931.795
2.586	18.122	1221.973	937.364
3.600	18.023	1210.502	927.942
4.615	14.086	1140.035	853.674
5.629	7.178	1069.412	767.346
6.644	4.332	1051.649	740.957
7.659	4.076	1049.506	738.165
8.673	3.853	1048.188	736.106
9.688	3.900	1046.678	735.209
10.702	4.301	1044.853	735.760
11.717	8.600	1050.898	760.426
12.731	16.289	1061.280	804.647
13.746	21.252	1067.574	833.083
14.761	22.238	1068.735	838.619
15.775	21.575	1066.572	833.690
16.790	20.470	1064.941	827.083
17.804	19.995	1063.765	823.839
18.819	19.841	1062.227	821.844
19.834	19.735	1062.013	821.103
20.848	19.803	1061.052	820.610
21.863	19.446	1060.484	818.406
22.877	19.367	1059.738	817.381
23.892	19.293	1058.940	816.342
24.907	19.169	1058.663	815.468
25.921	19.187	1057.365	814.484
26.936	19.330	1055.735	813.830
27.950	19.283	1054.727	812.762
28.965	19.435	1052.838	811.946
29.980	19.445	1052.054	811.320
30.994	19.683	1050.901	811.474
32.009	19.659	1050.190	810.744
33.023	19.585	1049.176	809.542
34.038	19.457	1048.257	808.160
35.053	19.380	1046.908	806.689
36.067	19.306	1046.522	805.975
37.082	19.480	1045.639	806.033
38.096	19.585	1044.920	805.900
39.111	19.609	1044.388	805.528
40.126	19.469	1042.865	803.633
41.140	19.010	1041.474	800.355
42.155	18.823	1040.574	798.723
43.169	18.838	1039.135	797.619
44.184	18.858	1038.173	796.900
45.199	19.028	1036.927	796.661
46.213	19.034	1036.866	796.573
47.228	19.367	1035.798	797.219
48.242	19.403	1035.124	796.798
49.257	19.357	1034.144	795.762
50.271	19.516	1032.651	795.276
51.286	19.573	1032.351	795.233
52.301	19.499	1031.396	794.088
53.315	19.381	1030.012	792.410
54.330	19.219	1028.948	790.779
55.344	19.166	1027.915	789.672
56.359	19.064	1027.252	788.626
57.374	19.045	1026.211	787.669
58.388	18.917	1025.058	786.128
59.403	18.878	1024.462	785.425
60.417	18.850	1024.069	784.926
61.432	18.743	1023.086	783.615
62.447	18.889	1021.900	783.303
63.461	18.765	1021.391	782.279
64.476	18.553	1020.572	780.615
65.490	18.622	1019.725	780.213
66.505	18.656	1019.351	780.013
67.520	18.684	1018.562	779.465
68.534	18.700	1017.700	778.809
69.549	18.672	1017.012	778.090
70.563	18.501	1016.440	776.807
71.578	18.473	1015.016	775.523
72.593	18.455	1014.250	774.789
73.607	18.236	1013.792	773.380
74.622	18.491	1012.788	773.695
75.636	18.457	1012.820	773.501
76.651	18.579	1011.745	773.160
77.666	18.530	1011.167	772.430
78.680	18.465	1011.012	771.950
79.695	18.573	1010.206	771.750
80.709	18.935	1009.594	772.842
81.724	18.988	1008.942	772.516
82.739	19.005	1008.606	772.266
83.753	19.287	1008.083	773.059
84.768	19.634	1007.555	774.144
85.782	19.819	1006.675	774.227
86.797	19.641	1005.605	772.540
87.812	19.507	1004.422	770.965
88.826	19.635	1003.554	770.800
89.841	19.538	1002.987	769.864
90.855	19.751	1002.089	770.055
91.870	19.739	1001.492	769.474
92.884	19.737	999.960	768.221
93.899	19.690	999.437	767.541
94.914	19.767	998.806	767.331
95.928	19.767	997.832	766.518
96.943	19.534	996.941	764.730
97.957	19.604	995.669	763.998
98.972	19.606	995.112	763.510
99.987	19.678	994.285	763.126
101.001	19.589	993.175	761.815
102.016	19.636	991.825	760.921
103.030	19.572	991.565	760.369
104.045	19.651	990.683	759.975
105.060	19.570	988.995	758.256
106.074	19.059	988.469	755.546
107.089	18.968	986.886	753.869
108.103	18.650	986.374	752.017
109.118	18.782	984.793	751.323
110.133	18.748	983.920	750.439
111.147	18.716	983.441	749.870
112.162	18.823	982.681	749.693
113.176	18.916	982.162	749.632
114.191	18.965	981.711	749.437
115.206	18.924	980.863	748.547
116.220	18.840	979.896	747.376
117.235	18.800	978.829	746.323
118.249	18.785	978.046	745.592
119.264	18.689	977.149	744.426
120.279	18.725	976.481	744.007
121.293	18.628	975.438	742.730
122.308	18.468	974.611	741.340
123.322	18.494	973.334	740.417
124.337	18.382	972.502	739.237
125.352	18.530	971.605	739.125
126.366	18.429	970.636	737.886
127.381	18.601	969.364	737.593
128.395	18.540	968.476	736.591
129.410	18.648	967.893	736.545
130.424	18.738	966.903	736.113
131.439	18.952	966.179	736.414
132.454	18.907	965.848	735.906
133.468	18.958	965.002	735.414
134.483	18.874	964.346	734.489
135.497	18.863	963.754	733.929
136.512	18.963	962.541	733.363
137.527	18.958	961.806	732.719
138.541	18.995	961.325	732.446
139.556	18.959	960.759	731.795
140.570	19.219	960.511	732.646
141.585	19.503	959.305	732.871
142.600	19.549	958.176	732.136
143.614	19.627	958.009	732.275
144.629	19.690	957.046	731.742
145.643	19.601	956.109	730.583
146.658	19.441	954.774	728.822
147.673	19.133	953.607	726.569
148.687	19.026	952.460	725.180
149.702	18.922	951.726	724.119
150.716	18.947	950.962	723.576
151.731	19.064	950.613	723.738
152.746	19.169	949.376	723.174
153.760	19.071	949.355	722.685
154.775	19.107	948.873	722.404
155.789	19.293	947.801	722.304
156.804	19.425	946.926	722.124
157.819	19.376	946.896	721.835
158.833	19.611	946.198	722.218
159.848	19.802	945.345	722.302
160.862	19.550	944.007	720.165
161.877	19.208	942.636	717.630
162.892	18.956	941.543	715.685
163.906	18.918	940.842	714.934
164.921	19.018	940.032	714.670
165.935	19.195	939.177	714.690
166.950	19.202	938.421	714.081
167.964	19.199	937.643	713.415
168.979	19.065	936.747	712.115
169.994	19.070	935.903	711.432
171.008	19.238	935.390	711.672
172.023	19.480	934.998	712.309
173.037	19.748	933.996	712.587
174.052	19.441	933.401	710.808
175.067	19.110	932.302	708.546
176.081	18.957	931.507	707.246
177.096	18.932	930.993	706.695
178.110	19.152	930.521	707.174
179.125	19.144	929.843	706.566
180.140	19.202	929.715	706.644
181.154	19.349	929.757	707.216
182.169	19.708	928.587	707.734
183.183	19.520	928.490	706.826
184.198	19.475	927.561	705.872
185.213	19.557	926.762	705.537
186.227	19.526	926.285	704.984
187.242	19.661	926.024	705.274
188.256	20.000	925.108	705.899
189.271	19.867	924.548	704.866
190.286	19.479	923.155	702.163
191.300	19.052	921.860	699.381
192.315	18.888	921.352	698.267
193.329	18.879	921.084	697.966
194.344	19.156	920.482	698.572
195.359	19.169	920.248	698.387
196.373	19.447	919.358	698.773
197.388	19.472	919.374	698.824
198.402	19.700	918.873	699.307
199.417	20.002	918.404	700.108
200.432	20.072	917.904	699.947
201.446	20.024	917.705	699.539
202.461	20.253	916.918	699.801
203.475	20.049	916.143	698.329
204.490	19.729	915.102	696.184
205.504	19.602	914.230	694.948
206.519	19.568	913.672	694.325
207.534	19.512	913.222	693.696
208.548	19.592	912.468	693.382
209.563	19.714	911.460	693.047
210.577	19.752	910.776	692.615
211.592	20.182	910.239	693.868
212.607	19.992	909.817	692.725
213.621	19.841	909.211	691.599
214.636	20.057	908.204	691.632
215.650	19.999	907.449	690.767
216.665	19.912	907.514	690.405
217.680	20.142	906.612	690.578
218.694	20.097	906.060	689.917
219.709	20.150	905.690	689.784
220.723	20.090	904.386	688.492
221.738	19.978	904.018	687.706
222.753	20.054	903.071	687.226
223.767	20.139	903.031	687.472
224.782	20.320	902.452	687.687
225.796	20.379	902.027	687.534
226.811	20.273	900.999	686.272
227.826	19.953	900.613	684.651
228.840	19.922	899.947	683.965
229.855	19.968	898.587	683.049
230.869	19.780	898.211	681.961
231.884	19.813	897.419	681.433
232.899	19.799	896.528	680.638
233.913	19.610	895.796	679.281
234.928	19.557	895.324	678.652
235.942	19.602	894.715	678.307
236.957	19.695	893.754	677.883
237.972	19.739	893.309	677.660
238.986	19.615	892.628	676.597
240.001	19.678	892.333	676.563
241.015	19.740	891.565	676.161
242.030	19.872	891.122	676.281
243.045	19.927	890.728	676.136
244.059	19.999	890.086	675.870
245.074	20.135	889.239	675.699
246.088	20.105	889.119	675.432
247.103	20.303	888.395	675.593
248.117	20.419	888.399	675.987
249.132	20.792	888.319	677.318
250.147	20.855	888.033	677.283
251.161	20.994	887.424	677.300
252.176	20.869	886.808	676.283
253.190	21.013	885.986	676.154
254.205	21.036	885.475	675.794
255.220	21.002	884.608	674.941
256.234	21.022	884.312	674.735
257.249	21.113	882.988	674.014
258.263	20.950	882.494	672.949
259.278	20.951	881.916	672.455
260.293	21.131	881.312	672.628
261.307	21.081	881.243	672.321
262.322	21.152	880.441	671.924
263.336	21.181	879.582	671.319
264.351	21.149	879.099	670.768
265.366	21.372	878.116	670.816
266.380	21.150	877.602	669.510
267.395	20.953	876.688	668.001
268.409	20.927	876.117	667.408
269.424	21.010	875.285	667.033
270.439	20.992	874.715	666.468
271.453	20.725	874.070	664.898
272.468	20.703	873.464	664.296
273.482	20.712	872.637	663.644
274.497	20.880	871.939	663.694
275.512	20.836	871.428	663.076
276.526	20.792	871.399	662.828
277.541	20.888	871.011	662.839
278.555	21.188	870.291	663.373
279.570	21.253	870.192	663.485
280.585	21.252	869.062	662.565
281.599	20.929	868.468	660.826
282.614	20.810	867.682	659.720
283.628	20.806	866.834	659.000
284.643	20.835	866.504	658.803
285.657	20.777	865.786	657.980
286.672	20.906	865.115	657.897
287.687	20.886	864.804	657.528
288.701	20.917	864.209	657.134
289.716	21.054	863.230	656.848
290.730	21.156	862.707	656.775
291.745	21.069	862.493	656.227
292.760	21.164	861.878	656.057
293.774	21.325	861.639	656.423
294.789	21.234	860.741	655.340
295.803	21.060	859.857	653.955
296.818	20.929	858.906	652.683
297.833	21.073	858.109	652.560
298.847	21.042	858.107	652.384
299.862	21.151	857.702	652.424
300.876	21.254	857.059	652.264
301.891	21.470	856.934	652.918
302.906	21.569	856.038	652.543
303.920	21.673	855.844	652.727
304.935	21.790	855.210	652.621
305.949	21.591	854.371	651.184
306.964	21.408	853.920	650.104
307.979	21.348	853.690	649.645
308.993	21.559	852.714	649.630
310.008	21.548	852.315	649.226
311.022	21.294	851.773	647.817
312.037	21.223	851.148	647.020
313.052	20.987	850.160	645.339
314.066	20.910	849.697	644.644
315.081	21.062	848.761	644.437
316.095	20.827	848.775	643.525
317.110	21.007	847.997	643.541
318.125	21.001	847.369	642.986
319.139	21.053	846.997	642.840
320.154	20.987	846.339	642.040
321.168	21.096	845.996	642.125
322.183	21.052	845.755	641.720
323.197	20.979	845.328	641.071
324.212	21.224	844.565	641.338
325.227	21.154	843.717	640.377
326.241	21.166	842.958	639.789
327.256	21.055	842.317	638.842
328.270	21.004	842.154	638.475
329.285	21.033	841.325	637.896
330.300	21.150	840.219	637.427
331.314	21.089	840.190	637.126
332.329	21.324	840.085	637.848
333.343	21.408	839.938	637.988
334.358	21.483	839.142	637.601
335.373	21.532	838.503	637.234
336.387	21.575	838.532	637.358
337.402	21.600	838.371	637.270
338.416	21.840	838.084	637.869
339.431	21.985	837.692	638.042
340.446	21.987	837.403	637.772
341.460	22.094	836.875	637.700
342.475	22.189	836.776	637.915
343.489	22.223	836.073	637.446
344.504	22.223	836.028	637.352
345.519	22.368	835.167	637.167
346.533	22.130	834.728	635.914
347.548	21.824	833.939	634.151
348.562	21.685	833.121	632.970
349.577	21.591	832.469	632.078
350.592	21.364	831.748	630.657
351.606	21.505	831.103	630.620
352.621	21.412	830.563	629.820
353.635	21.583	829.792	629.793
354.650	21.577	829.575	629.553
355.665	21.730	828.714	629.393
356.679	21.877	828.168	629.449
357.694	21.820	827.825	628.930
358.708	21.685	827.161	627.886
359.723	21.681	826.536	627.343
360.738	21.785	825.639	626.975
361.752	21.833	825.660	627.110
362.767	22.154	824.807	627.551
363.781	22.180	824.272	627.182
364.796	22.226	824.332	627.335
365.810	22.489	823.949	627.927
366.825	22.566	823.627	627.902
367.840	22.409	822.883	626.718
368.854	22.158	822.290	625.317
369.869	22.188	822.147	625.262
370.883	22.083	821.673	624.473
371.898	22.388	821.504	625.372
372.913	22.443	820.939	625.084
373.927	22.274	820.409	624.024
374.942	22.295	819.987	623.721
375.956	22.422	819.846	624.009
376.971	22.540	819.575	624.168
377.986	22.748	818.577	624.087
379.000	22.681	818.087	623.421
380.015	22.620	817.854	622.972
381.029	22.563	817.143	622.174
382.044	22.632	816.201	621.646
383.059	22.678	815.580	621.279
384.073	22.578	814.891	620.349
385.088	22.263	814.306	618.739
386.102	22.191	813.289	617.662
387.117	22.257	812.735	617.418
388.132	22.177	812.522	616.921
389.146	22.128	812.436	616.627
390.161	22.500	811.902	617.471
391.175	22.634	811.234	617.379
392.190	22.369	810.815	616.079
393.205	22.353	810.197	615.495
394.219	22.109	809.744	614.245
395.234	22.081	809.074	613.586
396.248	22.032	808.556	612.967
397.263	22.064	807.912	612.538
398.278	22.029	807.678	612.183
399.292	22.010	807.224	611.720
400.307	21.970	806.750	611.165
401.321	21.959	806.097	610.579
402.336	22.176	805.856	611.096
403.350	22.291	805.840	611.429
404.365	22.400	805.714	611.660
405.380	22.562	804.931	611.574
406.394	22.973	804.303	612.468
407.409	22.819	804.296	611.871
408.423	22.891	803.865	611.739
409.438	22.979	803.686	611.855
410.453	22.780	803.398	610.891
411.467	22.928	802.706	610.825
412.482	23.139	802.583	611.404
413.496	23.242	802.078	611.322
414.511	23.163	801.756	610.750
415.526	23.166	800.899	610.052
416.540	22.823	800.808	608.747
417.555	23.055	799.965	608.851
418.569	23.163	799.449	608.777
419.584	23.016	799.418	608.194
420.599	23.082	798.611	607.754
421.613	165.323	1371.239	1796.653
422.628	143.624	1454.648	1796.725
