DTS Sentinel unit serial number:	SN413079Multiplexer serial number:	ORYXHardware model number:	OX4-SRSoftware version number:	ORYX F/W v4.00 Oryx Data Collector v3.7.2.0data status	okinstallation	princeton_trtdifferential loss correction	single-endedforward channel	channel 1reverse channel	N/Adate	2019/09/12time	19:24:34forward acquisition time	15.00reverse acquisition time	0.00gamma	496.2192k internal	0.2321k external	0.2321temperature offset calibration	1.0126default loss term (dB/km)	0.3790temperature slope calibration	1.0000multiplexer offset coefficient	1.0000multiplexer slope coefficient	1.0000fibre end	0.00T internal ref (°C)	32.37T ext. ref 1 (°C)	3.30T ext. ref 2 (°C)	26.91length (m)	temperature (°C)	Stokes	anti-Stokes-747.200	-200.000	-0.012	0.273
-746.185	110.434	-0.252	0.307
-745.171	171.346	0.243	-0.353
-744.156	21.362	-0.224	-0.184
-743.142	73.246	0.545	0.576
-742.127	-41.741	0.898	-0.466
-741.112	601.822	-0.162	-0.407
-740.098	51.461	0.484	0.464
-739.083	138.118	0.117	-0.154
-738.069	85.480	1.058	1.174
-737.054	339.642	0.462	-0.910
-736.039	662.268	-0.291	-0.758
-735.025	348.448	0.110	-0.220
-734.010	-110.888	-0.929	-0.193
-732.996	64.657	-0.043	0.043
-731.981	-93.371	0.624	-0.175
-730.966	800.000	0.172	0.486
-729.952	451.996	-0.131	-0.293
-728.937	63.357	0.435	-0.440
-727.923	-148.040	-0.705	0.059
-726.908	800.000	-0.347	-0.970
-725.894	501.053	0.359	-0.838
-724.879	6.380	0.124	0.093
-723.864	800.000	-0.227	0.838
-722.850	41.982	-0.495	-0.454
-721.835	-200.000	-0.034	-0.374
-720.821	-200.000	-0.135	-0.948
-719.806	-104.726	0.813	0.189
-718.791	-187.218	0.724	0.010
-717.777	775.999	-0.122	-0.337
-716.762	-0.001	-0.254	0.182
-715.748	-158.422	-0.740	-0.043
-714.733	-169.590	0.333	-0.012
-713.718	10.905	-0.470	0.362
-712.704	204.805	0.061	-0.095
-711.689	800.000	0.049	-0.212
-710.675	-48.189	-0.380	0.185
-709.660	-67.913	1.044	0.411
-708.645	-200.000	-0.084	1.236
-707.631	800.000	0.140	0.514
-706.616	-65.617	1.203	0.487
-705.602	-67.362	-0.460	-0.182
-704.587	-10.293	0.149	-0.100
-703.572	-99.787	0.139	-0.035
-702.558	629.796	-0.088	0.225
-701.543	800.000	-0.215	0.656
-700.529	-77.585	-0.444	-0.155
-699.514	800.000	0.116	-0.340
-698.499	800.000	-0.045	0.152
-697.485	746.475	-0.434	1.178
-696.470	390.010	0.293	-0.614
-695.456	-200.000	-0.061	0.325
-694.441	328.927	-0.076	-0.148
-693.426	-72.459	-0.830	-0.310
-692.412	-161.115	-0.579	-0.030
-691.397	649.500	0.151	0.390
-690.383	-56.912	0.808	-0.360
-689.368	-96.945	-1.082	0.286
-688.354	-200.000	-0.061	-0.734
-687.339	-200.000	-0.035	-0.381
-686.324	800.000	0.125	0.420
-685.310	-131.178	0.649	0.087
-684.295	-169.033	-0.872	0.033
-683.281	280.105	0.107	-0.193
-682.266	9.603	-0.316	-0.241
-681.251	653.544	-0.450	1.164
-680.237	67.428	-0.370	-0.381
-679.222	-200.000	0.063	-0.340
-678.208	-91.931	-0.671	-0.192
-677.193	195.329	0.117	0.179
-676.178	514.955	-0.194	-0.457
-675.164	204.036	-0.637	-0.994
-674.149	10.554	0.144	-0.110
-673.135	-107.436	0.594	-0.131
-672.120	12.412	-0.360	0.280
-671.105	-200.000	-0.062	0.417
-670.091	800.000	0.118	0.328
-669.076	-140.062	1.044	0.111
-668.062	0.044	-0.417	-0.299
-667.047	42.274	-0.085	0.078
-666.032	-200.000	-0.053	-0.240
-665.018	240.060	-0.369	0.620
-664.003	24.492	0.591	0.493
-662.989	289.678	0.045	-0.082
-661.974	75.482	-0.365	-0.388
-660.959	-173.975	0.240	0.007
-659.945	-88.202	0.093	-0.028
-658.930	-194.505	-0.188	0.002
-657.916	-67.248	-0.162	-0.064
-656.901	48.625	0.574	0.542
-655.886	-200.000	-0.021	0.114
-654.872	-5.847	-0.343	-0.237
-653.857	800.000	-0.139	-0.538
-652.843	-66.765	0.828	-0.330
-651.828	-9.651	-0.348	-0.233
-650.814	-73.800	-0.434	-0.159
-649.799	-105.288	0.108	0.025
-648.784	-94.783	0.573	0.157
-647.770	-200.000	0.010	0.284
-646.755	-41.382	-0.283	-0.147
-645.741	-145.900	-0.272	-0.024
-644.726	-200.000	0.006	0.296
-643.711	-200.000	0.080	0.719
-642.697	-132.232	-0.325	0.042
-641.682	-58.122	0.763	-0.335
-640.668	-24.057	0.493	-0.296
-639.653	11.659	0.330	-0.255
-638.638	-200.000	-0.030	-0.176
-637.624	-53.263	-0.405	0.187
-636.609	611.725	0.293	-0.738
-635.595	-200.000	-0.140	-0.809
-634.580	139.489	-0.513	-0.680
-633.565	-63.558	0.102	0.042
-632.551	-42.090	0.351	-0.181
-631.536	800.000	0.176	-0.573
-630.522	-200.000	0.102	0.966
-629.507	2.136	-0.489	0.355
-628.492	-200.000	0.018	0.092
-627.478	290.242	-0.024	0.044
-626.463	-200.000	-0.026	-0.182
-625.449	-142.944	-0.856	-0.083
-624.434	530.000	-0.252	-0.598
-623.419	145.455	-0.466	0.627
-622.405	699.531	-0.067	0.177
-621.390	-45.092	-0.454	0.227
-620.376	-86.826	0.574	0.176
-619.361	-43.224	1.266	0.645
-618.346	-103.597	-0.541	0.128
-617.332	-200.000	0.029	0.605
-616.317	100.421	-0.290	0.338
-615.303	-200.000	-0.018	0.501
-614.288	105.781	-0.462	0.549
-613.273	-84.565	-0.237	-0.075
-612.259	201.210	-0.491	-0.760
-611.244	249.546	-0.165	-0.281
-610.230	115.144	-0.092	0.114
-609.215	-200.000	-0.768	0.003
-608.201	-168.908	0.738	0.028
-607.186	-123.125	-1.204	0.194
-606.171	-65.780	0.271	0.109
-605.157	-72.840	0.488	-0.181
-604.142	-86.737	-0.361	-0.111
-603.128	-200.000	-0.038	0.179
-602.113	-68.954	0.651	0.252
-601.098	108.814	0.536	0.644
-600.084	-17.976	-0.769	0.484
-599.069	-200.000	0.184	0.904
-598.055	13.655	0.451	-0.352
-597.040	199.737	-0.272	-0.419
-596.025	166.846	0.148	0.210
-595.011	-28.662	-0.594	-0.344
-593.996	-6.702	-1.002	0.685
-592.982	72.041	0.341	-0.357
-591.967	130.248	-0.424	-0.545
-590.952	-95.918	-0.673	0.180
-589.938	-96.754	1.096	0.289
-588.923	173.532	0.308	0.446
-587.909	-83.691	-0.603	-0.193
-586.894	-200.000	-0.003	-0.556
-585.879	640.990	-0.277	0.707
-584.865	369.566	0.418	-0.850
-583.850	503.162	-0.167	-0.387
-582.836	40.863	-0.123	-0.112
-581.821	81.401	-0.459	-0.499
-580.806	36.202	0.658	-0.582
-579.792	-132.456	0.621	-0.080
-578.777	156.621	-0.164	0.227
-577.763	-99.851	-0.391	-0.098
-576.748	385.363	-0.417	-0.863
-575.733	293.808	0.198	0.364
-574.719	-200.000	-0.108	-0.845
-573.704	400.224	-0.508	1.069
-572.690	-200.000	-0.027	-0.480
-571.675	-166.052	0.596	0.025
-570.661	-14.029	-0.396	0.257
-569.646	-25.663	-0.774	0.459
-568.631	2.823	-1.064	-0.775
-567.617	-114.005	0.072	-0.014
-566.602	-80.762	-0.593	-0.198
-565.588	-89.131	-0.401	-0.119
-564.573	-145.765	-0.491	0.044
-563.558	800.000	0.083	0.299
-562.544	110.482	-0.217	0.262
-561.529	14.954	0.243	-0.191
-560.515	800.000	0.216	-0.639
-559.500	-109.855	0.729	0.153
-558.485	217.216	0.363	-0.580
-557.471	-115.141	-0.663	0.126
-556.456	-158.960	0.763	-0.043
-555.442	-38.856	-0.330	-0.175
-554.427	-200.000	0.007	-0.284
-553.412	83.458	-0.240	0.263
-552.398	20.673	-0.033	0.027
-551.383	13.220	-0.224	-0.174
-550.369	-200.000	-0.129	-0.589
-549.354	8.255	0.169	0.127
-548.339	-137.512	0.815	-0.092
-547.325	-200.000	-0.101	0.568
-546.310	-200.000	-0.020	-0.189
-545.296	-188.437	0.754	-0.009
-544.281	-200.000	0.075	0.000
-543.266	-200.000	0.061	-0.595
-542.252	-9.737	-0.398	-0.266
-541.237	-30.453	-0.229	-0.130
-540.223	-175.364	-0.274	-0.008
-539.208	-200.000	0.043	-0.561
-538.193	-53.725	0.486	-0.222
-537.179	-117.971	-0.269	-0.048
-536.164	-110.580	0.133	0.028
-535.150	-62.841	0.179	-0.074
-534.135	-200.000	-0.078	-0.346
-533.121	-92.692	0.269	0.075
-532.106	-200.000	0.044	0.786
-531.091	-14.005	0.478	-0.309
-530.077	6.492	0.359	0.267
-529.062	800.000	0.176	-0.551
-528.048	-200.000	0.014	-0.481
-527.033	201.512	-0.086	0.132
-526.018	-200.000	0.069	0.534
-525.004	523.055	-0.293	-0.689
-523.989	-77.463	-0.420	0.146
-522.975	-19.397	-0.416	-0.258
-521.960	102.635	-0.547	0.642
-520.945	-32.029	-0.281	0.158
-519.931	10.816	-0.346	-0.265
-518.916	529.177	0.190	0.449
-517.902	-200.000	-0.046	0.502
-516.887	-59.583	0.800	-0.344
-515.872	-61.936	-0.071	-0.030
-514.858	-101.583	-0.722	-0.176
-513.843	635.142	0.237	-0.603
-512.829	16.541	-0.549	0.435
-511.814	315.804	0.110	0.209
-510.799	451.556	-0.139	0.308
-509.785	324.767	0.195	-0.373
-508.770	-38.356	0.204	0.108
-507.756	-200.000	0.057	0.928
-506.741	9.286	0.093	-0.070
-505.726	-200.000	-0.251	-1.577
-504.712	-200.000	-0.191	1.338
-503.697	-57.905	0.500	0.219
-502.683	-80.440	-0.748	0.250
-501.668	-200.000	0.017	0.290
-500.653	184.401	-0.132	0.195
-499.639	-200.000	0.131	-0.884
-498.624	-64.848	-0.609	-0.247
-497.610	-45.385	-0.314	0.156
-496.595	800.000	-0.143	0.438
-495.581	346.193	0.282	-0.556
-494.566	175.618	0.346	-0.502
-493.551	178.908	-0.624	0.913
-492.537	-200.000	0.198	1.187
-491.522	-193.844	0.623	0.005
-490.508	244.238	0.350	-0.587
-489.493	644.212	0.183	0.467
-488.478	566.746	-0.145	0.352
-487.464	-107.300	0.800	0.176
-486.449	380.157	0.332	-0.680
-485.435	-12.296	0.328	-0.215
-484.420	-48.887	-0.567	0.272
-483.405	-153.365	-0.523	0.036
-482.391	-100.559	-0.422	-0.104
-481.376	-200.000	0.004	0.500
-480.362	101.756	-0.444	-0.518
-479.347	800.000	-0.188	-0.710
-478.332	-102.458	-0.568	-0.136
-477.318	-101.607	1.330	-0.323
-476.303	-200.000	0.064	-1.097
-475.289	181.911	-0.111	0.163
-474.274	-20.741	-0.281	0.173
-473.259	-133.078	0.978	0.124
-472.245	-200.000	-0.105	0.527
-471.230	58.906	-0.098	0.097
-470.216	-200.000	-0.074	-0.997
-469.201	170.498	0.065	-0.093
-468.186	-88.805	0.751	0.223
-467.172	-57.404	-0.294	-0.129
-466.157	-162.111	-0.369	-0.019
-465.143	7.467	0.191	-0.142
-464.128	-200.000	-0.042	-0.668
-463.113	-123.316	0.277	-0.044
-462.099	140.639	-0.465	-0.614
-461.084	-200.000	0.059	0.331
-460.070	305.067	-0.374	0.694
-459.055	305.611	-0.113	-0.209
-458.040	800.000	0.178	0.546
-457.026	-37.094	-0.373	-0.200
-456.011	-200.000	-0.045	0.820
-454.997	178.143	-0.568	0.828
-453.982	34.064	0.189	0.165
-452.968	59.723	0.320	-0.316
-451.953	-12.078	-0.741	-0.485
-450.938	-79.021	0.234	0.079
-449.924	92.359	-0.415	0.467
-448.909	154.069	0.441	-0.605
-447.895	-14.178	0.257	-0.166
-446.880	800.000	-0.106	0.425
-445.865	-42.598	-0.339	-0.172
-444.851	348.142	0.235	0.463
-443.836	145.126	0.315	-0.421
-442.822	-100.970	-0.758	-0.186
-441.807	-74.034	-0.540	0.196
-440.792	178.277	-0.477	0.696
-439.778	-200.000	0.611	0.000
-438.763	-37.903	-0.031	0.016
-437.749	800.000	-0.256	-0.735
-436.734	800.000	-0.053	0.171
-435.719	-43.055	0.399	0.202
-434.705	187.929	-0.086	0.128
-433.690	-200.000	0.123	-0.739
-432.676	344.686	0.294	-0.576
-431.661	28.544	0.322	-0.272
-430.646	-200.000	0.032	-0.279
-429.632	80.502	0.434	0.466
-428.617	-90.911	0.538	0.154
-427.603	-200.000	-0.076	0.544
-426.588	-167.261	-0.516	0.021
-425.573	-200.000	0.167	-0.844
-424.559	-41.395	-0.433	-0.223
-423.544	-104.036	-0.403	-0.094
-422.530	-149.422	1.117	-0.089
-421.515	-26.471	-0.960	-0.562
-420.500	82.538	-0.214	-0.232
-419.486	-37.873	0.599	0.318
-418.471	-63.730	0.639	0.261
-417.457	315.224	-0.203	-0.383
-416.442	260.630	-0.135	0.233
-415.428	131.696	-0.058	0.074
-414.413	-200.000	0.047	-1.271
-413.398	127.381	0.276	0.349
-412.384	1.432	-0.455	-0.327
-411.369	-200.000	-0.003	0.077
-410.355	-7.493	-0.376	-0.254
-409.340	-48.056	0.742	-0.357
-408.325	-200.000	0.038	1.291
-407.311	-18.358	-0.511	-0.319
-406.296	-95.016	1.014	0.273
-405.282	557.672	-0.075	0.180
-404.267	108.176	0.485	0.577
-403.252	-156.618	-0.155	-0.010
-402.238	58.906	0.441	-0.432
-401.223	489.977	-0.185	0.421
-400.209	688.410	-0.475	1.237
-399.194	-128.775	0.503	0.071
-398.179	-37.611	-0.710	-0.377
-397.165	68.676	-0.442	-0.452
-396.150	-93.562	0.869	0.239
-395.136	800.000	0.065	0.190
-394.121	800.000	-0.074	0.289
-393.106	-139.540	0.121	0.013
-392.092	-191.457	-0.259	-0.003
-391.077	-153.763	0.325	-0.022
-390.063	-11.551	-0.036	0.023
-389.048	-53.689	0.553	0.252
-388.033	14.960	0.208	-0.162
-387.019	-200.000	0.070	-0.414
-386.004	-115.663	0.670	0.125
-384.990	221.369	0.204	-0.327
-383.975	-105.494	0.272	0.062
-382.960	133.859	-0.531	-0.684
-381.946	-118.485	1.058	0.187
-380.931	137.054	0.110	0.143
-379.917	-36.331	-0.772	-0.414
-378.902	-200.000	-0.007	-0.302
-377.888	608.142	-0.105	0.261
-376.873	-200.000	-0.002	0.448
-375.858	-14.900	-0.306	0.195
-374.844	117.616	-0.161	0.198
-373.829	-100.911	-0.878	0.215
-372.815	-44.592	-0.422	0.210
-371.800	-118.752	0.697	0.122
-370.785	-200.000	0.017	-0.416
-369.771	658.843	-0.271	0.694
-368.756	-41.492	0.099	-0.051
-367.742	465.350	0.155	0.345
-366.727	27.034	0.946	0.790
-365.712	130.584	-0.358	-0.457
-364.698	-110.311	0.473	-0.098
-363.683	1.089	0.914	0.653
-362.669	8.731	0.130	0.097
-361.654	-82.238	0.482	0.156
-360.639	29.869	0.834	0.707
-359.625	20.653	0.366	0.295
-358.610	54.007	-0.405	-0.388
-357.596	541.460	0.062	0.146
-356.581	27.148	0.389	-0.325
-355.566	-68.223	-0.176	0.068
-354.552	5.639	-0.411	0.302
-353.537	744.338	0.216	0.578
-352.523	35.685	0.460	-0.402
-351.508	302.612	-0.443	0.816
-350.493	-83.841	-0.021	-0.007
-349.479	-9.017	-0.576	0.384
-348.464	-200.000	0.072	-0.326
-347.450	-176.190	-0.316	0.008
-346.435	667.117	0.268	-0.689
-345.420	-200.000	-0.011	0.227
-344.406	32.158	-0.531	0.456
-343.391	-200.000	-0.032	0.734
-342.377	-115.070	-0.716	-0.135
-341.362	195.569	-0.062	-0.094
-340.348	-108.044	-0.391	-0.084
-339.333	376.364	-0.176	0.357
-338.318	-138.933	-0.277	-0.030
-337.304	112.648	0.269	0.324
-336.289	800.000	0.290	0.847
-335.275	-132.656	-0.719	-0.092
-334.260	-161.837	-0.365	-0.018
-333.245	185.114	-0.435	-0.642
-332.231	4.414	-0.466	0.340
-331.216	-20.246	-0.496	-0.304
-330.202	-200.000	0.040	-1.008
-329.187	697.819	0.190	0.496
-328.172	152.206	0.658	-0.893
-327.158	-2.795	-0.139	-0.096
-326.143	800.000	-0.142	0.598
-325.129	243.133	0.374	0.623
-324.114	800.000	-0.135	0.498
-323.099	-200.000	0.086	0.976
-322.085	-14.784	0.194	-0.124
-321.070	156.379	0.294	-0.403
-320.056	800.000	0.079	-0.297
-319.041	800.000	-0.075	-0.259
-318.026	-120.279	0.501	-0.085
-317.012	34.394	0.239	0.207
-315.997	-121.331	0.275	0.046
-314.983	-200.000	0.101	-0.603
-313.968	76.029	-0.170	0.178
-312.953	364.341	0.319	-0.638
-311.939	497.882	0.072	-0.166
-310.924	85.653	-0.225	-0.245
-309.910	77.411	0.375	0.397
-308.895	-58.132	0.535	-0.232
-307.880	177.999	0.439	0.637
-306.866	-88.891	-1.090	0.321
-305.851	320.100	-0.669	1.262
-304.837	800.000	0.084	0.322
-303.822	-200.000	-0.010	0.126
-302.807	-143.682	-0.015	-0.001
-301.793	166.275	-0.127	-0.178
-300.778	-200.000	0.006	0.094
-299.764	131.676	-0.259	0.331
-298.749	-67.447	0.336	0.131
-297.735	-200.000	-0.069	-0.310
-296.720	-24.231	-0.354	0.210
-295.705	136.160	1.157	1.497
-294.691	-200.000	0.060	-0.489
-293.676	-167.418	1.154	-0.046
-292.662	14.624	-0.392	0.304
-291.647	-62.446	0.180	0.074
-290.632	36.739	0.772	0.677
-289.618	110.406	0.702	0.837
-288.603	571.081	0.195	-0.471
-287.589	100.055	0.614	-0.706
-286.574	144.073	0.157	-0.208
-285.559	90.749	-0.054	-0.060
-284.545	-132.970	0.436	-0.055
-283.530	478.466	-0.115	-0.257
-282.516	-34.688	-0.751	-0.408
-281.501	-200.000	0.074	-0.714
-280.486	-32.146	-0.830	0.460
-279.472	61.491	-0.382	-0.377
-278.457	-116.324	-0.474	-0.087
-277.443	374.414	-0.125	-0.252
-276.428	-116.808	-0.591	-0.108
-275.413	191.919	-0.271	0.406
-274.399	18.105	-0.276	0.218
-273.384	158.866	-0.344	0.474
-272.370	191.887	0.093	0.140
-271.355	685.006	0.108	-0.279
-270.340	-200.000	0.067	0.863
-269.326	131.686	0.626	-0.798
-268.311	32.208	0.605	0.518
-267.297	-57.993	0.466	-0.202
-266.282	4.960	-0.496	-0.362
-265.267	74.027	0.540	-0.562
-264.253	389.004	-0.232	-0.477
-263.238	6.307	-0.368	0.271
-262.224	117.367	0.083	-0.101
-261.209	66.989	0.330	0.334
-260.195	-42.526	0.710	0.359
-259.180	800.000	0.194	0.578
-258.165	14.167	-0.610	-0.471
-257.151	143.422	0.173	-0.228
-256.136	213.861	0.169	-0.265
-255.122	800.000	0.151	-0.552
-254.107	800.000	0.077	0.219
-253.092	-177.237	0.380	0.009
-252.078	-100.116	0.279	-0.069
-251.063	240.083	0.466	-0.770
-250.049	800.000	-0.144	-0.543
-249.034	-190.022	-1.145	0.013
-248.019	437.741	0.349	-0.754
-247.005	167.730	0.213	-0.300
-245.990	602.441	-0.276	-0.680
-244.976	182.942	-0.061	0.089
-243.961	-200.000	-0.030	-0.262
-242.946	-126.649	-0.200	-0.029
-241.932	-48.027	-0.554	0.266
-240.917	6.197	0.320	0.235
-239.903	370.446	-0.465	-0.933
-238.888	115.336	-0.367	-0.444
-237.873	-200.000	0.141	0.737
-236.859	-53.868	-0.113	-0.051
-235.844	52.889	0.751	0.711
-234.830	-6.788	0.422	0.284
-233.815	71.874	-0.336	-0.346
-232.800	-200.000	-0.050	-0.357
-231.786	-120.052	0.114	-0.019
-230.771	20.386	-0.478	0.383
-229.757	126.855	0.419	-0.525
-228.742	-200.000	0.073	0.514
-227.727	-32.907	0.348	0.192
-226.713	-200.000	0.076	-0.331
-225.698	229.431	0.247	0.399
-224.684	-86.020	-0.197	-0.060
-223.669	67.665	-0.250	0.253
-222.655	145.735	-0.443	0.588
-221.640	509.400	0.312	-0.718
-220.625	-163.662	1.341	-0.063
-219.611	800.000	0.189	-0.568
-218.596	-74.878	0.405	0.144
-217.582	164.180	0.317	-0.443
-216.567	800.000	0.081	-0.337
-215.552	45.380	-0.889	0.812
-214.538	-200.000	0.059	1.017
-213.523	-172.187	-0.788	0.025
-212.509	79.820	0.353	0.375
-211.494	-149.338	0.509	-0.040
-210.479	-112.039	0.666	-0.133
-209.465	-45.367	0.346	-0.170
-208.450	800.000	0.183	0.770
-207.436	25.576	0.746	-0.614
-206.421	-28.732	0.219	0.125
-205.406	-200.000	-0.021	0.291
-204.392	800.000	-0.116	0.436
-203.377	-74.617	0.800	-0.285
-202.363	565.617	-0.238	-0.571
-201.348	-138.507	-0.509	0.055
-200.333	-200.000	-0.013	-0.729
-199.319	335.601	0.117	0.224
-198.304	139.133	0.311	0.405
-197.290	-200.000	0.003	-0.119
-196.275	52.171	-0.275	0.260
-195.260	-17.176	-0.289	-0.180
-194.246	-200.000	-0.159	-0.727
-193.231	119.044	-0.099	-0.121
-192.217	44.235	-0.661	-0.600
-191.202	-200.000	0.018	0.651
-190.187	311.051	-0.568	1.052
-189.173	-28.985	0.527	0.299
-188.158	-168.981	-0.014	-0.001
-187.144	41.695	-0.214	0.192
-186.129	-200.000	-0.159	-1.119
-185.114	-200.000	-0.026	-0.375
-184.100	-13.827	-0.711	-0.454
-183.085	800.000	-0.145	0.415
-182.071	12.867	-0.314	-0.240
-181.056	9.323	-0.742	-0.555
-180.042	-198.801	0.646	-0.004
-179.027	8.109	-0.276	-0.205
-178.012	73.776	-0.539	-0.558
-176.998	-110.661	0.097	-0.020
-175.983	455.495	0.180	0.396
-174.969	-200.000	-0.060	-0.319
-173.954	-133.776	0.243	-0.030
-172.939	52.284	1.186	-1.117
-171.925	-96.745	-1.462	0.380
-170.910	-23.622	-0.345	-0.205
-169.896	-133.077	0.449	0.056
-168.881	-161.427	-0.276	0.014
-167.866	66.157	-0.104	-0.104
-166.852	-121.342	-0.961	0.158
-165.837	234.927	-0.187	-0.306
-164.823	-83.371	0.656	0.208
-163.808	349.151	0.204	0.398
-162.793	234.527	-0.115	-0.187
-161.779	181.831	0.399	0.581
-160.764	193.387	0.158	-0.236
-159.750	158.118	0.126	-0.173
-158.735	-83.112	0.311	-0.099
-157.720	-0.538	0.428	0.300
-156.706	-133.868	-0.340	-0.042
-155.691	-56.107	0.760	0.334
-154.677	119.546	0.518	0.633
-153.662	-144.502	-0.667	0.061
-152.647	-162.008	-0.545	-0.027
-151.633	586.522	-0.086	-0.209
-150.618	12.493	0.474	-0.361
-149.604	-128.384	0.287	-0.040
-148.589	-92.729	-0.454	0.126
-147.574	45.238	0.543	0.495
-146.560	-41.151	0.783	-0.399
-145.545	-67.172	-0.240	0.093
-144.531	-32.425	-0.617	-0.340
-143.516	292.793	0.129	-0.231
-142.502	49.259	0.256	0.238
-141.487	-147.550	-0.398	-0.033
-140.472	-28.935	0.844	0.478
-139.458	-62.586	-0.765	0.314
-138.443	212.640	0.330	0.514
-137.429	-200.000	0.078	0.415
-136.414	-200.000	0.045	-0.441
-135.399	284.188	0.183	-0.325
-134.385	-96.344	-0.985	-0.257
-133.370	-110.594	-0.719	0.147
-132.356	-200.000	-0.044	0.441
-131.341	363.606	0.286	-0.566
-130.326	72.022	0.436	-0.447
-129.312	275.612	0.121	0.211
-128.297	800.000	0.217	0.596
-127.283	-105.192	-0.663	0.149
-126.268	352.375	-0.358	-0.700
-125.253	720.179	0.181	0.475
-124.239	74.469	0.188	-0.195
-123.224	-200.000	-0.001	0.830
-122.210	188.324	0.144	0.212
-121.195	-55.141	0.464	0.206
-120.180	-18.876	-0.683	-0.419
-119.166	-200.000	-0.047	0.707
-118.151	34.973	0.704	0.608
-117.137	800.000	0.169	0.463
-116.122	-50.394	0.372	0.173
-115.107	-0.079	-0.341	-0.240
-114.093	708.682	0.065	0.170
-113.078	-200.000	-0.125	-0.586
-112.064	645.805	0.156	0.393
-111.049	223.553	0.301	-0.479
-110.034	-148.232	0.904	0.074
-109.020	-200.000	0.101	-0.466
-108.005	76.029	0.500	0.522
-106.991	-156.485	-0.767	0.047
-105.976	95.397	-0.186	-0.209
-104.962	89.895	0.223	-0.246
-103.947	-63.874	0.678	0.273
-102.932	-67.746	-0.565	0.218
-101.918	100.708	-0.259	0.297
-100.903	-47.979	-0.688	0.328
-99.889	-142.093	0.525	-0.051
-98.874	125.030	0.387	0.480
-97.859	-36.473	0.287	-0.152
-96.845	-47.601	-0.429	-0.205
-95.830	-106.830	0.857	0.187
-94.816	16.117	0.619	0.481
-93.801	-74.111	-0.316	-0.113
-92.786	66.081	-0.124	0.124
-91.772	800.000	-0.071	-0.282
-90.757	546.344	0.123	-0.290
-89.743	-75.769	0.413	-0.144
-88.728	-13.890	1.090	-0.694
-87.713	-47.079	-0.546	0.263
-86.699	75.482	-0.434	0.451
-85.684	91.518	0.586	0.648
-84.670	-65.754	0.485	-0.191
-83.655	69.037	-0.321	-0.325
-82.640	-99.074	0.206	-0.051
-81.626	-200.000	-0.090	-0.586
-80.611	-61.830	-0.219	0.090
-79.597	211.180	0.255	-0.394
-78.582	-56.346	0.097	0.042
-77.567	747.309	0.092	-0.245
-76.553	-60.196	-0.930	-0.390
-75.538	603.984	-0.405	0.992
-74.524	-32.463	-0.210	-0.115
-73.509	-12.221	0.368	-0.237
-72.494	-15.898	-0.491	0.308
-71.480	243.030	-0.613	1.010
-70.465	-200.000	-0.064	0.501
-69.451	-52.340	-0.442	0.202
-68.436	-22.291	-0.432	0.258
-67.422	92.298	0.214	0.237
-66.407	-110.063	-0.526	0.108
-65.392	-79.129	0.737	-0.246
-64.378	356.184	0.360	-0.705
-63.363	9.984	0.524	-0.392
-62.349	-200.000	-0.057	-0.389
-61.334	1.391	-0.629	-0.445
-60.319	-26.474	0.331	0.191
-59.305	800.000	0.186	-0.802
-58.290	-200.000	0.113	1.435
-57.276	800.000	0.348	0.958
-56.261	-200.000	96.034	600.119
-55.246	682.996	1351.337	3466.444
-54.232	205.270	2513.247	3839.509
-53.217	121.704	2118.256	2598.176
-52.203	44.485	1591.165	1437.822
-51.188	35.731	1331.748	1151.243
-50.173	32.636	1290.849	1097.842
-49.159	56.057	1339.430	1278.517
-48.144	56.953	1356.517	1300.086
-47.130	36.167	1314.180	1138.446
-46.115	32.666	1297.657	1103.637
-45.100	32.427	1292.866	1098.119
-44.086	32.382	1289.151	1094.659
-43.071	32.355	1286.298	1092.040
-42.057	32.251	1284.778	1090.101
-41.042	32.378	1283.525	1089.731
-40.027	32.303	1281.978	1087.943
-39.013	32.317	1281.090	1087.223
-37.998	32.389	1278.838	1085.687
-36.984	32.299	1276.586	1083.209
-35.969	32.180	1276.081	1082.054
-34.954	32.221	1273.694	1080.224
-33.940	32.314	1272.448	1079.658
-32.925	32.455	1270.654	1078.901
-31.911	32.491	1268.698	1077.406
-30.896	32.375	1268.271	1076.335
-29.881	32.567	1266.506	1075.892
-28.867	32.414	1264.966	1073.666
-27.852	32.605	1263.355	1073.347
-26.838	32.598	1262.155	1072.241
-25.823	32.204	1261.865	1069.711
-24.809	32.625	1259.527	1070.079
-23.794	32.469	1258.627	1068.386
-22.779	32.334	1257.120	1066.302
-21.765	32.465	1255.787	1065.871
-20.750	32.638	1253.840	1065.154
-19.736	32.448	1253.030	1063.348
-18.721	32.276	1251.998	1061.458
-17.706	32.492	1250.527	1061.388
-16.692	32.454	1250.151	1060.810
-15.677	32.592	1247.248	1059.083
-14.663	32.393	1248.391	1058.890
-13.648	32.319	1246.397	1056.740
-12.633	32.230	1245.136	1055.130
-11.619	32.307	1244.594	1055.063
-10.604	31.977	1244.484	1053.074
-9.590	32.270	1243.658	1053.979
-8.575	32.274	1241.878	1052.450
-7.560	32.299	1241.435	1052.175
-6.546	32.372	1239.566	1050.954
-5.531	32.336	1239.018	1050.245
-4.517	32.275	1238.320	1049.275
-3.502	32.329	1237.055	1048.464
-2.487	32.113	1237.097	1047.250
-1.473	32.155	1232.633	1043.665
-0.458	30.761	1217.737	1023.350
0.556	28.299	1200.886	984.897
1.571	24.385	1204.878	966.913
2.586	23.569	1219.859	974.369
3.600	22.677	1208.255	960.165
4.615	17.332	1137.717	876.551
5.629	7.452	1063.519	771.487
6.644	3.814	1043.222	739.320
7.659	3.179	1040.677	734.422
8.673	3.230	1038.440	733.023
9.688	2.980	1037.788	731.308
10.702	3.608	1036.107	733.042
11.717	9.180	1045.013	765.904
12.731	18.923	1057.528	821.805
13.746	23.981	1062.128	849.523
14.761	24.477	1063.784	853.144
15.775	24.339	1062.337	851.251
16.790	23.902	1061.383	848.325
17.804	23.109	1061.817	844.814
18.819	23.412	1060.943	845.488
19.834	23.616	1060.093	845.707
20.848	23.780	1059.276	845.760
21.863	23.950	1058.173	845.616
22.877	23.741	1056.706	843.374
23.892	23.407	1057.699	842.504
24.907	23.477	1056.244	841.603
25.921	23.344	1055.262	840.119
26.936	23.392	1053.288	838.699
27.950	22.974	1052.721	836.197
28.965	23.673	1050.440	837.610
29.980	23.220	1050.606	835.530
30.994	23.628	1049.321	836.357
32.009	23.595	1047.782	834.900
33.023	23.698	1045.958	833.856
34.038	23.354	1046.156	832.323
35.053	23.540	1044.858	832.092
36.067	23.177	1044.540	830.062
37.082	23.101	1043.423	828.745
38.096	23.594	1042.682	830.389
39.111	23.874	1041.603	830.765
40.126	23.339	1041.230	827.894
41.140	23.349	1039.138	826.208
42.155	22.576	1038.827	822.282
43.169	22.913	1036.545	821.971
44.184	23.052	1035.092	821.391
45.199	22.975	1034.818	820.744
46.213	22.968	1034.394	820.303
47.228	23.575	1034.354	823.016
48.242	23.596	1033.353	822.240
49.257	23.536	1033.277	821.830
50.271	23.414	1033.078	821.033
51.286	23.834	1031.443	821.603
52.301	23.852	1030.614	820.956
53.315	23.813	1028.887	819.328
54.330	23.181	1028.801	816.269
55.344	23.403	1027.892	816.498
56.359	23.173	1027.478	815.042
57.374	23.044	1025.874	813.103
58.388	22.973	1024.962	811.983
59.403	22.960	1023.477	810.676
60.417	22.780	1023.339	809.667
61.432	22.988	1022.858	810.167
62.447	22.962	1021.324	808.763
63.461	23.087	1020.750	808.808
64.476	23.028	1019.851	807.755
65.490	22.863	1017.959	805.432
66.505	22.877	1019.002	806.251
67.520	23.101	1017.920	806.342
68.534	22.539	1017.310	803.227
69.549	22.522	1015.960	802.012
70.563	22.557	1014.696	801.106
71.578	22.339	1014.063	799.544
72.593	22.068	1013.343	797.672
73.607	22.052	1013.497	797.652
74.622	22.413	1012.354	798.319
75.636	22.539	1010.626	797.457
76.651	22.310	1011.388	796.951
77.666	22.532	1011.274	797.794
78.680	22.472	1010.501	796.844
79.695	22.652	1008.702	796.165
80.709	22.903	1008.287	796.903
81.724	22.821	1007.790	796.067
82.739	23.331	1006.166	797.009
83.753	23.299	1007.018	797.469
84.768	23.823	1007.238	799.934
85.782	24.037	1005.962	799.810
86.797	24.156	1004.249	798.911
87.812	23.833	1003.609	796.884
88.826	23.834	1003.000	796.336
89.841	23.746	1002.971	795.846
90.855	23.921	1001.229	795.179
91.870	24.026	999.725	794.382
92.884	23.656	1000.321	793.132
93.899	23.670	998.504	791.681
94.914	23.835	997.803	791.791
95.928	23.802	996.212	790.312
96.943	23.562	995.646	788.728
97.957	23.435	994.096	786.865
98.972	23.605	993.414	787.008
99.987	23.805	992.460	787.071
101.001	23.470	991.894	785.068
102.016	23.470	991.297	784.529
103.030	23.613	990.536	784.489
104.045	23.801	990.017	784.837
105.060	23.552	989.258	783.068
106.074	23.322	988.201	781.148
107.089	23.279	987.113	780.029
108.103	22.991	985.758	777.624
109.118	22.867	984.240	775.813
110.133	22.645	983.268	774.004
111.147	22.780	981.842	773.402
112.162	22.334	982.499	771.896
113.176	23.047	981.014	773.785
114.191	22.940	980.903	773.157
115.206	23.027	978.610	771.662
116.220	22.683	979.325	770.654
117.235	22.568	977.272	768.471
118.249	22.499	977.403	768.202
119.264	22.284	976.008	766.102
120.279	22.429	974.825	765.739
121.293	22.370	974.785	765.380
122.308	22.465	972.981	764.312
123.322	22.015	972.266	761.729
124.337	22.143	971.127	761.322
125.352	22.020	970.647	760.347
126.366	22.322	968.410	759.832
127.381	22.716	968.236	761.330
128.395	22.655	968.233	760.997
129.410	23.404	966.424	762.730
130.424	22.842	966.138	760.021
131.439	22.907	966.974	760.890
132.454	23.123	965.038	760.229
133.468	22.896	964.443	758.718
134.483	23.210	962.643	758.579
135.497	23.326	962.208	758.666
136.512	22.958	962.338	757.128
137.527	22.974	962.289	757.087
138.541	23.388	959.595	756.672
139.556	23.378	959.536	756.517
140.570	23.264	958.940	755.493
141.585	23.557	958.704	756.487
142.600	23.733	957.913	756.547
143.614	24.114	956.567	757.038
144.629	23.968	956.417	756.231
145.643	23.689	955.675	754.394
146.658	23.434	953.663	751.658
147.673	23.464	952.117	750.499
148.687	23.692	950.730	750.303
149.702	23.338	950.219	748.337
150.716	23.168	949.093	746.666
151.731	23.588	949.207	748.461
152.746	23.422	947.942	746.699
153.760	23.916	947.116	748.061
154.775	23.969	947.507	748.528
155.789	23.561	946.941	746.296
156.804	23.396	946.408	745.116
157.819	23.597	944.771	744.608
158.833	23.794	944.245	744.951
159.848	23.699	944.065	744.347
160.862	23.703	943.376	743.754
161.877	23.521	941.468	741.421
162.892	23.489	939.524	739.693
163.906	23.297	938.749	738.215
164.921	23.111	938.802	737.420
165.935	23.233	938.121	737.328
166.950	23.440	937.786	737.861
167.964	23.384	935.588	735.830
168.979	23.289	934.294	734.357
169.994	23.120	935.483	734.522
171.008	23.483	933.314	734.260
172.023	23.905	933.362	735.978
173.037	23.991	932.933	735.930
174.052	24.043	931.037	734.583
175.067	23.146	930.715	730.564
176.081	22.791	930.387	728.777
177.096	22.795	930.004	728.428
178.110	22.720	929.079	727.328
179.125	22.827	928.039	726.894
180.140	22.832	928.004	726.822
181.154	23.466	927.054	728.619
182.169	23.423	927.643	728.838
183.183	23.589	926.041	728.198
184.198	23.722	926.005	728.653
185.213	23.551	925.420	727.426
186.227	23.537	924.665	726.708
187.242	23.825	923.361	726.796
188.256	23.721	923.455	726.382
189.271	23.745	923.085	726.127
190.286	23.411	921.142	723.170
191.300	22.975	919.736	720.226
192.315	22.315	920.624	718.166
193.329	22.713	919.194	718.605
194.344	23.134	918.610	719.801
195.359	23.114	919.218	720.130
196.373	23.586	918.024	721.053
197.388	23.867	917.620	721.810
198.402	24.037	917.613	722.432
199.417	24.219	916.326	722.094
200.432	24.016	917.109	721.821
201.446	24.529	916.253	723.163
202.461	24.133	915.562	720.951
203.475	23.507	915.194	718.062
204.490	22.916	914.536	715.091
205.504	23.189	913.476	715.302
206.519	23.637	912.319	716.144
207.534	23.658	911.984	715.900
208.548	23.912	911.175	716.226
209.563	23.674	909.977	714.262
210.577	23.604	909.636	713.649
211.592	24.076	909.399	715.299
212.607	24.521	908.416	716.247
213.621	24.069	908.302	714.280
214.636	24.016	907.380	713.278
215.650	23.793	907.071	712.080
216.665	24.017	905.855	711.957
217.680	24.204	904.654	711.699
218.694	24.036	904.868	711.135
219.709	23.772	904.201	709.494
220.723	23.749	903.742	708.979
221.738	23.792	902.585	708.179
222.753	23.597	901.969	706.856
223.767	23.781	901.168	706.897
224.782	24.120	901.438	708.398
225.796	24.337	900.779	708.677
226.811	23.652	900.280	705.502
227.826	23.559	897.974	703.264
228.840	23.485	898.020	702.942
229.855	23.471	898.796	703.431
230.869	23.291	897.216	701.420
231.884	23.764	896.154	702.399
232.899	23.671	896.334	702.112
233.913	23.600	895.174	700.860
234.928	23.150	894.845	698.763
235.942	23.109	894.360	698.160
236.957	23.037	893.119	696.847
237.972	23.258	892.605	697.254
238.986	23.230	892.064	696.659
240.001	23.090	891.281	695.438
241.015	22.977	891.799	695.333
242.030	23.579	889.569	695.894
243.045	23.657	889.777	696.304
244.059	23.344	889.867	695.082
245.074	23.586	889.289	695.520
246.088	23.719	888.162	695.096
247.103	24.097	887.593	696.068
248.117	24.136	888.338	696.745
249.132	24.662	888.238	698.661
250.147	24.864	887.472	698.784
251.161	25.154	886.445	699.046
252.176	25.044	885.810	698.054
253.190	24.823	886.015	697.292
254.205	25.021	885.029	697.226
255.220	24.415	885.414	695.108
256.234	24.840	883.067	694.853
257.249	24.991	882.364	694.823
258.263	24.716	881.569	693.070
259.278	24.489	881.253	691.881
260.293	24.943	880.773	693.201
261.307	24.655	880.932	692.150
262.322	24.900	879.520	691.928
263.336	24.514	878.513	689.585
264.351	24.380	878.200	688.761
265.366	24.510	877.840	688.916
266.380	24.881	877.519	690.034
267.395	24.542	877.322	688.511
268.409	25.070	875.064	688.708
269.424	24.772	875.149	687.571
270.439	24.824	874.311	687.051
271.453	24.551	873.882	685.603
272.468	24.154	873.278	683.548
273.482	24.695	873.105	685.426
274.497	24.630	872.535	684.666
275.512	24.410	872.057	683.389
276.526	24.449	871.832	683.303
277.541	24.788	870.814	683.741
278.555	24.713	870.575	683.207
279.570	24.830	869.923	683.079
280.585	24.810	868.741	682.015
281.599	24.745	867.905	681.052
282.614	24.148	866.829	677.877
283.628	24.334	866.456	678.232
284.643	24.547	865.653	678.351
285.657	24.799	864.397	678.262
286.672	24.415	864.769	677.038
287.687	24.770	865.105	678.587
288.701	24.754	864.341	677.869
289.716	24.631	863.667	676.814
290.730	24.588	862.738	675.863
291.745	24.766	862.387	676.201
292.760	24.768	861.918	675.781
293.774	25.099	860.964	676.224
294.789	25.137	861.680	676.868
295.803	24.903	860.371	674.897
296.818	24.683	858.863	672.830
297.833	24.460	858.693	671.798
298.847	24.626	857.561	671.476
299.862	24.599	857.496	671.265
300.876	24.961	857.401	672.489
301.891	25.020	856.440	671.895
302.906	25.331	856.482	673.035
303.920	25.287	856.070	672.488
304.935	25.438	855.485	672.535
305.949	25.122	855.245	671.105
306.964	24.769	854.560	669.186
307.979	24.884	853.052	668.376
308.993	24.789	853.730	668.492
310.008	25.096	852.958	668.974
311.022	25.068	850.805	667.121
312.037	24.982	850.537	666.533
313.052	24.864	850.064	665.666
314.066	24.202	849.866	662.988
315.081	24.150	849.020	662.075
316.095	24.593	847.786	662.701
317.110	24.515	847.741	662.315
318.125	24.311	846.543	660.566
319.139	23.669	846.317	657.955
320.154	23.759	846.947	658.718
321.168	24.294	845.672	659.650
322.183	24.341	845.819	659.880
323.197	24.557	845.258	660.181
324.212	24.232	844.767	658.540
325.227	24.390	843.937	658.418
326.241	24.128	843.321	656.913
327.256	24.365	842.615	657.178
328.270	24.305	841.811	656.271
329.285	24.187	841.414	655.470
330.300	24.042	839.510	653.395
331.314	23.689	840.570	652.864
332.329	24.463	839.699	654.974
333.343	24.646	839.696	655.584
334.358	24.405	839.605	654.569
335.373	24.606	838.459	654.354
336.387	25.006	838.675	655.931
337.402	24.602	839.088	654.715
338.416	25.191	838.530	656.379
339.431	25.000	838.925	655.930
340.446	25.733	837.382	657.345
341.460	25.477	837.841	656.711
342.475	25.699	837.215	656.973
343.489	25.726	836.828	656.709
344.504	25.276	836.783	654.974
345.519	25.675	835.914	655.690
346.533	25.520	835.654	654.863
347.548	25.425	834.577	653.614
348.562	25.147	833.873	651.997
349.577	25.095	833.232	651.246
350.592	24.787	832.331	649.367
351.606	24.982	831.306	649.217
352.621	24.450	831.342	647.261
353.635	24.774	830.367	647.617
354.650	25.001	828.952	647.276
355.665	25.004	828.333	646.747
356.679	25.031	828.487	646.908
357.694	25.101	828.728	647.290
358.708	24.780	826.936	644.678
359.723	24.933	826.848	645.101
360.738	24.758	826.132	643.856
361.752	24.759	825.594	643.384
362.767	25.265	825.372	644.973
363.781	25.476	824.727	645.171
364.796	25.399	825.107	645.133
365.810	25.681	824.816	645.860
366.825	25.943	823.228	645.499
367.840	25.581	822.886	643.879
368.854	25.069	823.037	642.105
369.869	25.318	821.424	641.681
370.883	25.449	821.348	642.030
371.898	25.773	820.787	642.692
372.913	25.553	821.714	642.577
373.927	25.378	820.973	641.315
374.942	25.196	820.074	639.906
375.956	25.822	819.405	641.557
376.971	26.018	818.531	641.517
377.986	25.906	818.818	641.285
379.000	25.618	819.321	640.597
380.015	25.900	817.377	640.022
381.029	25.660	816.777	638.644
382.044	25.942	815.642	638.697
383.059	25.984	816.418	639.398
384.073	25.725	815.765	637.913
385.088	25.390	814.576	635.740
386.102	25.495	812.582	634.499
387.117	25.196	812.501	633.322
388.132	24.984	812.363	632.411
389.146	25.267	811.696	632.834
390.161	25.513	811.791	633.719
391.175	25.992	811.167	634.865
392.190	25.551	811.198	633.278
393.205	25.465	809.805	631.835
394.219	24.785	809.123	628.857
395.234	24.475	809.276	627.827
396.248	24.624	808.339	627.568
397.263	25.437	807.588	629.783
398.278	25.028	807.172	627.968
399.292	24.713	806.581	626.349
400.307	24.785	805.529	625.730
401.321	24.968	805.925	626.622
402.336	24.940	806.059	626.572
403.350	25.168	806.238	627.454
404.365	26.271	804.640	630.006
405.380	26.104	804.830	629.515
406.394	26.039	805.944	630.103
407.409	25.847	804.930	628.586
408.423	25.995	804.073	628.374
409.438	26.220	803.491	628.647
410.453	26.171	802.921	627.975
411.467	26.057	802.364	627.090
412.482	26.116	802.129	627.054
413.496	26.055	801.071	625.961
414.511	26.301	801.056	626.746
415.526	26.022	801.134	625.786
416.540	26.090	800.270	625.291
417.555	26.172	799.847	625.188
418.569	26.328	798.417	624.555
419.584	26.089	799.398	624.439
420.599	26.275	798.284	624.157
421.613	161.220	1370.222	1792.609
422.628	139.937	1453.516	1792.729
