DTS Sentinel unit serial number:	SN413079Multiplexer serial number:	ORYXHardware model number:	OX4-SRSoftware version number:	ORYX F/W v4.00 Oryx Data Collector v3.7.2.0data status	okinstallation	princeton_trtdifferential loss correction	single-endedforward channel	channel 1reverse channel	N/Adate	2019/09/19time	14:14:35forward acquisition time	60.00reverse acquisition time	0.00gamma	496.2192k internal	0.2322k external	0.2322temperature offset calibration	1.0013default loss term (dB/km)	0.3790temperature slope calibration	1.0000multiplexer offset coefficient	1.0000multiplexer slope coefficient	1.0000fibre end	0.00T internal ref (°C)	31.62T ext. ref 1 (°C)	1.04T ext. ref 2 (°C)	28.87length (m)	temperature (°C)	Stokes	anti-Stokes-747.200	-50.649	-0.105	-0.050
-746.185	141.807	-0.109	-0.146
-745.171	-71.789	0.192	0.072
-744.156	355.418	0.082	0.164
-743.142	-107.161	-0.040	-0.009
-742.127	525.012	-0.107	0.254
-741.112	-90.948	0.135	0.039
-740.098	677.497	0.076	-0.199
-739.083	-36.185	-0.264	0.144
-738.069	-49.350	-0.334	0.161
-737.054	242.635	-0.071	-0.120
-736.039	-104.585	-0.121	-0.028
-735.025	-60.024	0.122	0.053
-734.010	-172.206	-0.188	-0.006
-732.996	524.126	0.114	-0.270
-731.981	-9.830	0.258	0.174
-730.966	180.800	-0.080	-0.118
-729.952	-200.000	0.038	0.170
-728.937	38.650	0.164	0.148
-727.923	34.288	-0.209	0.184
-726.908	293.390	-0.183	-0.337
-725.894	-45.139	0.041	-0.021
-724.879	-114.432	-0.284	-0.055
-723.864	3.945	-0.217	-0.160
-722.850	-111.002	0.312	-0.065
-721.835	-17.419	-0.264	-0.168
-720.821	-100.278	0.376	-0.094
-719.806	-167.989	0.274	0.011
-718.791	164.398	-0.119	-0.170
-717.777	-200.000	-0.002	0.130
-716.762	800.000	-0.076	-0.285
-715.748	-47.586	-0.156	0.076
-714.733	199.378	-0.080	-0.124
-713.718	800.000	-0.013	-0.048
-712.704	-164.218	0.146	0.007
-711.689	63.119	-0.321	0.324
-710.675	87.598	0.207	-0.231
-709.660	-200.000	0.038	-0.324
-708.645	697.732	-0.101	0.267
-707.631	631.539	-0.035	-0.089
-706.616	7.798	0.102	0.077
-705.602	170.506	-0.203	0.294
-704.587	59.841	0.174	-0.173
-703.572	25.683	0.463	-0.389
-702.558	800.000	0.045	0.151
-701.543	279.856	-0.110	-0.199
-700.529	-200.000	0.024	0.271
-699.514	-164.633	-0.245	-0.011
-698.499	-200.000	0.011	-0.073
-697.485	-5.848	0.199	-0.137
-696.470	800.000	-0.091	0.271
-695.456	-110.461	0.065	0.014
-694.441	-97.509	0.215	0.056
-693.426	20.018	-0.087	0.071
-692.412	-200.000	-0.013	-0.070
-691.397	-68.701	0.285	0.111
-690.383	127.503	-0.136	-0.174
-689.368	1.707	-0.201	-0.146
-688.354	-200.000	0.041	-0.248
-687.339	-161.408	0.340	-0.018
-686.324	-18.533	0.253	-0.159
-685.310	113.441	-0.332	0.407
-684.295	-128.288	0.380	-0.055
-683.281	-124.839	0.185	0.029
-682.266	-54.146	-0.159	0.073
-681.251	47.775	0.159	0.149
-680.237	-161.439	-0.193	-0.010
-679.222	-119.422	-0.267	-0.047
-678.208	-191.755	0.084	0.001
-677.193	-23.384	-0.300	0.182
-676.178	-83.493	0.193	-0.062
-675.164	-35.758	0.297	0.162
-674.149	237.372	-0.045	0.076
-673.135	-59.675	-0.083	0.036
-672.120	562.440	0.080	0.194
-671.105	153.556	0.108	-0.148
-670.091	625.215	0.084	0.214
-669.076	155.903	0.272	0.378
-668.062	-120.062	0.256	0.044
-667.047	-200.000	0.015	0.082
-666.032	214.210	-0.167	-0.266
-665.018	-63.297	-0.060	0.025
-664.003	-145.039	0.480	-0.044
-662.989	-200.000	-0.009	0.198
-661.974	358.212	-0.098	-0.196
-660.959	800.000	-0.042	-0.179
-659.945	-113.971	-0.259	-0.051
-658.930	100.644	0.347	0.405
-657.916	77.755	-0.095	-0.102
-656.901	-6.126	-0.087	0.060
-655.886	-200.000	-0.006	0.409
-654.872	139.246	0.185	0.246
-653.857	46.064	0.120	-0.112
-652.843	39.852	-0.127	-0.115
-651.828	-19.388	0.221	-0.138
-650.814	-154.244	-0.243	-0.017
-649.799	800.000	-0.032	-0.116
-648.784	-200.000	0.044	-0.260
-647.770	800.000	-0.045	-0.171
-646.755	-41.609	-0.212	0.109
-645.741	516.382	-0.115	-0.270
-644.726	-200.000	0.011	-0.174
-643.711	800.000	0.038	0.157
-642.697	204.276	0.142	0.221
-641.682	169.668	-0.058	0.084
-640.668	36.218	0.067	0.060
-639.653	353.621	-0.102	0.203
-638.638	-32.455	-0.249	-0.140
-637.624	172.417	-0.102	0.147
-636.609	63.923	0.128	0.129
-635.595	98.545	0.067	-0.078
-634.580	115.996	0.230	0.284
-633.565	471.938	0.099	0.224
-632.551	-195.559	-0.301	0.002
-631.536	55.195	0.026	-0.025
-630.522	10.068	-0.338	-0.258
-629.507	-22.341	0.138	-0.084
-628.492	-57.288	-0.250	0.111
-627.478	-10.981	-0.256	0.170
-626.463	90.682	0.091	0.103
-625.449	800.000	0.100	0.309
-624.434	-200.000	-0.131	-0.001
-623.419	77.120	0.283	0.302
-622.405	17.015	-0.014	-0.011
-621.390	47.204	-0.116	0.109
-620.376	603.042	0.071	-0.179
-619.361	800.000	0.033	-0.136
-618.346	84.904	0.055	-0.061
-617.332	-200.000	0.005	-0.256
-616.317	259.373	-0.123	-0.213
-615.303	62.544	0.176	-0.176
-614.288	-200.000	-0.003	-0.050
-613.273	-35.988	-0.165	0.090
-612.259	-200.000	0.008	0.085
-611.244	162.297	-0.200	0.281
-610.230	800.000	-0.057	-0.177
-609.215	37.749	0.192	0.171
-608.201	513.555	0.101	-0.236
-607.186	646.772	-0.030	0.078
-606.171	511.126	0.049	-0.114
-605.157	800.000	0.064	-0.254
-604.142	800.000	0.018	-0.055
-603.128	-170.981	0.171	-0.006
-602.113	-187.376	0.265	-0.004
-601.098	105.948	0.076	-0.091
-600.084	-200.000	0.018	0.174
-599.069	159.586	-0.235	-0.328
-598.055	79.058	-0.203	-0.218
-597.040	-61.679	-0.228	-0.096
-596.025	-15.758	-0.213	0.136
-595.011	254.952	-0.220	0.378
-593.996	800.000	0.030	0.108
-592.982	4.758	0.198	0.146
-591.967	-65.094	0.121	-0.049
-590.952	-6.634	0.085	0.058
-589.938	-122.994	-0.077	-0.012
-588.923	49.746	0.245	-0.232
-587.909	94.910	-0.039	-0.044
-586.894	-74.405	0.344	-0.125
-585.879	-200.000	0.020	-0.213
-584.865	-126.977	0.269	0.040
-583.850	271.473	-0.034	0.060
-582.836	-147.728	-0.153	-0.013
-581.821	-35.475	0.268	-0.146
-580.806	36.588	-0.122	-0.108
-579.792	-200.000	0.004	-0.186
-578.777	39.684	0.044	-0.040
-577.763	800.000	0.074	-0.220
-576.748	-117.987	-0.365	-0.066
-575.733	-93.016	0.037	0.010
-574.719	-200.000	0.048	0.426
-573.704	87.561	0.120	0.133
-572.690	800.000	0.072	0.203
-571.675	-113.862	0.323	-0.063
-570.661	-104.552	0.265	0.061
-569.646	-175.489	0.396	0.011
-568.631	84.909	0.113	0.124
-567.617	-46.517	-0.134	0.066
-566.602	588.560	-0.035	0.087
-565.588	-200.000	-0.004	-0.178
-564.573	-65.407	-0.248	0.100
-563.558	-200.000	0.003	-0.326
-562.544	149.148	0.089	0.120
-561.529	297.170	-0.177	0.327
-560.515	-82.644	-0.152	0.049
-559.500	462.326	-0.102	0.229
-558.485	52.208	-0.052	-0.050
-557.471	-200.000	-0.005	0.119
-556.456	-200.000	0.042	0.355
-555.442	-18.629	-0.212	0.133
-554.427	110.190	-0.026	0.031
-553.412	-200.000	0.052	0.394
-552.398	800.000	0.069	0.260
-551.383	800.000	-0.022	0.095
-550.369	-161.383	-0.362	-0.019
-549.354	2.677	-0.242	-0.176
-548.339	293.998	0.098	-0.179
-547.325	544.707	0.126	-0.303
-546.310	-156.682	-0.207	-0.013
-545.296	431.088	0.145	-0.315
-544.281	595.694	-0.014	0.034
-543.266	138.784	-0.101	-0.132
-542.252	-50.368	0.269	0.127
-541.237	-120.871	0.151	0.026
-540.223	-55.553	-0.251	0.113
-539.208	-200.000	0.002	-0.135
-538.193	401.968	-0.178	0.374
-537.179	-200.000	-0.036	-0.366
-536.164	-95.085	0.207	-0.056
-535.150	191.429	-0.024	-0.036
-534.135	800.000	0.032	0.093
-533.121	-105.613	-0.077	-0.017
-532.106	318.834	0.019	0.036
-531.091	-109.992	-0.192	0.040
-530.077	-151.692	-0.190	0.014
-529.062	45.950	-0.119	-0.111
-528.048	-92.491	-0.387	-0.109
-527.033	-200.000	0.042	-0.287
-526.018	-200.000	-0.002	0.119
-525.004	-200.000	-0.033	0.226
-523.989	29.073	-0.256	-0.218
-522.975	800.000	-0.012	0.036
-521.960	-200.000	0.002	-0.168
-520.945	-72.777	0.213	-0.078
-519.931	-89.983	0.207	-0.061
-518.916	55.618	0.129	-0.125
-517.902	-62.590	-0.214	-0.089
-516.887	-30.077	-0.182	-0.104
-515.872	445.841	0.114	-0.250
-514.858	-44.866	0.302	-0.151
-513.843	210.217	0.032	-0.051
-512.829	190.920	0.055	0.082
-511.814	-25.535	-0.024	-0.014
-510.799	-200.000	0.028	-0.195
-509.785	148.516	-0.170	-0.230
-508.770	115.605	-0.067	-0.082
-507.756	-105.687	-0.153	0.035
-506.741	159.754	0.095	-0.132
-505.726	-200.000	-0.042	0.330
-504.712	35.653	0.073	-0.064
-503.697	-200.000	0.051	-0.320
-502.683	-103.840	0.224	-0.052
-501.668	639.042	0.170	-0.432
-500.653	-200.000	0.016	-0.172
-499.639	51.642	0.137	-0.131
-498.624	-200.000	0.005	0.072
-497.610	-200.000	0.016	-0.354
-496.595	29.375	0.260	0.221
-495.581	-200.000	0.006	-0.286
-494.566	-55.928	-0.127	-0.057
-493.551	-75.286	0.100	-0.036
-492.537	800.000	0.041	-0.124
-491.522	800.000	0.020	0.057
-490.508	-181.832	-0.232	0.004
-489.493	-108.473	-0.181	-0.039
-488.478	-32.501	-0.311	-0.173
-487.464	-11.244	0.255	0.168
-486.449	42.567	0.204	0.185
-485.435	-46.765	0.228	-0.112
-484.420	-200.000	0.004	-0.088
-483.405	28.285	0.173	-0.146
-482.391	-113.564	0.084	-0.016
-481.376	-200.000	-0.008	-0.147
-480.362	-115.129	-0.186	0.035
-479.347	-200.000	0.009	0.045
-478.332	-200.000	0.053	0.265
-477.318	-200.000	0.002	0.146
-476.303	-90.879	0.184	-0.053
-475.289	-141.616	0.182	0.018
-474.274	-67.668	0.153	0.060
-473.259	44.832	-0.108	-0.099
-472.245	-200.000	-0.007	0.049
-471.230	260.082	0.108	0.187
-470.216	-162.469	0.216	0.011
-469.201	163.207	-0.080	-0.112
-468.186	-88.121	0.080	0.024
-467.172	161.165	-0.207	-0.289
-466.157	-79.576	-0.160	0.054
-465.143	-200.000	-0.005	-0.247
-464.128	160.784	0.205	-0.286
-463.113	800.000	0.046	-0.130
-462.099	-139.975	-0.303	0.032
-461.084	800.000	-0.084	-0.355
-460.070	-127.094	0.292	-0.043
-459.055	-57.251	0.214	-0.094
-458.040	516.242	-0.080	-0.186
-457.026	343.522	0.179	-0.350
-456.011	-61.933	0.274	-0.115
-454.997	-80.874	0.178	-0.059
-453.982	797.795	0.056	-0.155
-452.968	-10.604	-0.077	0.051
-451.953	384.457	0.167	-0.343
-450.938	29.465	-0.208	-0.177
-449.924	208.953	-0.074	0.116
-448.909	85.130	0.081	-0.089
-447.895	-200.000	-0.020	0.137
-446.880	-200.000	-0.048	-0.308
-445.865	-101.576	0.149	0.036
-444.851	622.902	0.081	0.205
-443.836	-159.801	-0.279	-0.015
-442.822	5.606	-0.320	-0.236
-441.807	-171.357	0.161	-0.005
-440.792	-138.140	0.112	0.012
-439.778	-16.401	0.037	0.023
-438.763	107.508	-0.100	-0.119
-437.749	-41.036	-0.289	0.149
-436.734	540.333	0.069	0.164
-435.719	-23.914	0.205	0.123
-434.705	149.955	0.228	0.309
-433.690	-200.000	0.008	-0.044
-432.676	800.000	-0.045	-0.156
-431.661	122.673	0.092	0.115
-430.646	622.007	0.054	-0.136
-429.632	-34.254	0.093	-0.051
-428.617	-132.078	-0.216	0.028
-427.603	-176.700	0.088	-0.002
-426.588	-32.078	-0.246	0.137
-425.573	344.331	0.161	0.316
-424.559	-200.000	0.031	0.564
-423.544	77.460	0.121	-0.128
-422.530	240.164	-0.064	-0.107
-421.515	-140.467	-0.172	-0.018
-420.500	605.191	-0.079	-0.197
-419.486	-139.863	0.411	-0.043
-418.471	553.732	-0.064	0.153
-417.457	311.340	-0.134	0.251
-416.442	800.000	0.105	0.297
-415.428	-93.506	-0.357	0.099
-414.413	-63.876	0.084	-0.034
-413.398	-80.648	0.051	0.017
-412.384	-200.000	-0.004	-0.060
-411.369	-88.019	-0.033	-0.010
-410.355	-120.432	0.157	-0.027
-409.340	-56.007	-0.150	0.067
-408.325	73.388	-0.095	0.099
-407.311	100.826	0.118	-0.136
-406.296	306.852	0.170	-0.316
-405.282	165.759	-0.113	0.159
-404.267	-200.000	-0.018	-0.153
-403.252	26.926	0.222	-0.185
-402.238	-200.000	-0.009	0.416
-401.223	-200.000	-0.014	-0.122
-400.209	-95.149	-0.068	0.018
-399.194	-80.964	-0.312	-0.103
-398.179	-200.000	-0.017	0.146
-397.165	-150.987	-0.263	-0.020
-396.150	-72.545	0.116	-0.043
-395.136	39.147	-0.057	0.051
-394.121	-11.769	0.378	-0.247
-393.106	800.000	0.096	-0.351
-392.092	321.414	-0.106	-0.201
-391.077	-106.336	-0.173	0.039
-390.063	-200.000	0.036	0.261
-389.048	-115.486	-0.072	-0.014
-388.033	-10.571	-0.361	0.238
-387.019	800.000	0.041	0.164
-386.004	-142.990	-0.212	-0.020
-384.990	77.512	0.153	-0.162
-383.975	-199.962	-0.312	-0.002
-382.960	-61.311	0.396	-0.166
-381.946	-172.498	0.290	0.009
-380.931	121.967	-0.144	0.179
-379.917	-57.939	-0.102	0.045
-378.902	-111.091	0.420	0.086
-377.888	89.204	-0.277	0.307
-376.873	-83.261	-0.140	0.045
-375.858	62.988	-0.152	0.151
-374.844	-183.184	0.287	0.005
-373.829	-15.908	-0.177	-0.112
-372.815	-109.429	0.118	0.025
-371.800	800.000	-0.144	0.441
-370.785	-94.739	-0.230	-0.062
-369.771	-150.218	0.169	0.013
-368.756	-21.969	-0.145	0.088
-367.742	-144.869	0.186	-0.017
-366.727	800.000	-0.033	0.116
-365.712	42.523	-0.350	-0.317
-364.698	304.672	-0.039	0.072
-363.683	-32.994	0.117	-0.065
-362.669	72.391	-0.045	-0.047
-361.654	198.488	0.069	-0.105
-360.639	164.964	-0.182	0.256
-359.625	120.490	0.130	-0.160
-358.610	264.691	0.173	-0.299
-357.596	-62.187	-0.109	0.045
-356.581	-101.213	-0.486	-0.118
-355.566	747.606	-0.142	-0.380
-354.552	167.190	0.066	0.093
-353.537	66.723	-0.179	0.181
-352.523	36.402	-0.111	0.098
-351.508	-115.275	-0.296	0.056
-350.493	-60.052	0.282	-0.120
-349.479	538.003	0.022	-0.051
-348.464	-200.000	0.021	-0.319
-347.450	245.351	-0.071	0.120
-346.435	-200.000	0.027	0.252
-345.420	178.240	-0.101	0.147
-344.406	357.771	0.061	-0.120
-343.391	44.639	-0.231	0.211
-342.377	-200.000	-0.075	0.387
-341.362	-6.371	-0.138	0.094
-340.348	-200.000	-0.004	0.186
-339.333	-59.310	-0.234	0.100
-338.318	-49.799	0.254	0.120
-337.304	-200.000	-0.010	-0.178
-336.289	-73.858	-0.320	0.115
-335.275	-90.399	-0.194	0.056
-334.260	-200.000	0.004	0.083
-333.245	-44.642	-0.291	0.145
-332.231	-200.000	-0.014	0.262
-331.216	90.227	-0.189	0.210
-330.202	72.734	-0.139	0.145
-329.187	-46.424	-0.078	0.038
-328.172	-200.000	0.021	-0.150
-327.158	-92.079	0.334	0.094
-326.143	-184.739	0.197	-0.003
-325.129	-200.000	0.016	-0.083
-324.114	-200.000	0.036	-0.270
-323.099	-200.000	0.029	-0.141
-322.085	-125.353	0.169	-0.026
-321.070	649.535	-0.103	-0.262
-320.056	-52.399	0.132	0.061
-319.041	-30.956	0.063	0.035
-318.026	11.332	-0.066	-0.050
-317.012	-17.623	0.069	0.043
-315.997	-50.941	0.080	-0.037
-314.983	-10.615	-0.174	-0.114
-313.968	-11.169	-0.418	0.274
-312.953	137.656	0.184	-0.239
-311.939	-67.865	0.184	-0.071
-310.924	800.000	0.077	-0.249
-309.910	-157.485	0.117	0.007
-308.895	143.716	0.091	0.120
-307.880	-139.686	-0.081	0.009
-306.866	-200.000	-0.006	0.346
-305.851	-100.644	0.195	-0.048
-304.837	-12.129	-0.054	-0.035
-303.822	-134.287	-0.265	0.032
-302.807	4.638	0.180	0.131
-301.793	-5.164	-0.189	0.129
-300.778	313.240	-0.086	-0.160
-299.764	-200.000	-0.005	0.083
-298.749	800.000	0.032	-0.113
-297.735	-140.003	-0.203	0.021
-296.720	123.628	-0.201	-0.251
-295.705	-200.000	-0.027	-0.140
-294.691	329.616	0.069	0.131
-293.676	343.365	0.146	0.284
-292.662	134.725	0.220	-0.283
-291.647	-81.521	-0.087	0.028
-290.632	800.000	-0.033	0.124
-289.618	95.462	-0.169	0.192
-288.603	-163.621	0.211	-0.010
-287.589	-23.812	0.259	-0.154
-286.574	800.000	-0.036	-0.118
-285.559	-200.000	0.016	-0.097
-284.545	285.611	0.122	0.219
-283.530	-133.176	-0.120	-0.015
-282.516	-38.517	0.115	0.060
-281.501	-143.613	0.241	0.023
-280.486	-188.913	0.403	0.005
-279.472	-122.686	0.204	-0.033
-278.457	7.073	-0.284	-0.210
-277.443	-200.000	0.047	-0.395
-276.428	-131.575	0.106	-0.014
-275.413	32.181	-0.214	0.183
-274.399	800.000	0.093	0.315
-273.384	-200.000	-0.057	0.538
-272.370	800.000	0.030	-0.104
-271.355	-115.040	0.132	-0.025
-270.340	555.426	-0.086	0.205
-269.326	-79.687	0.025	0.008
-268.311	443.800	0.094	-0.205
-267.297	-135.148	0.210	-0.025
-266.282	209.167	-0.046	-0.071
-265.267	-200.000	-0.001	0.062
-264.253	-57.897	0.344	0.149
-263.238	-43.180	-0.266	-0.134
-262.224	37.301	0.362	0.318
-261.209	188.824	0.043	-0.063
-260.195	-9.751	-0.028	0.019
-259.180	15.735	-0.072	-0.056
-258.165	107.797	0.060	0.071
-257.151	-200.000	0.027	0.188
-256.136	17.624	-0.256	-0.201
-255.122	-200.000	-0.015	0.120
-254.107	-200.000	0.013	-0.217
-253.092	212.713	-0.055	-0.085
-252.078	-138.491	-0.163	-0.018
-251.063	-200.000	-0.028	0.212
-250.049	-158.632	0.101	0.006
-249.034	-70.098	-0.090	-0.034
-248.019	800.000	-0.141	0.391
-247.005	-112.156	-0.363	0.072
-245.990	-144.717	0.277	0.025
-244.976	-69.362	0.250	0.095
-243.961	-130.222	0.130	0.017
-242.946	-75.668	-0.118	0.041
-241.932	-18.048	0.243	-0.151
-240.917	-107.416	-0.366	0.079
-239.903	-200.000	0.001	-0.156
-238.888	5.445	0.237	0.173
-237.873	-200.000	0.040	-0.275
-236.859	-70.258	-0.326	-0.123
-235.844	-200.000	-0.005	0.041
-234.830	385.096	0.073	0.149
-233.815	661.163	-0.053	0.136
-232.800	-20.267	-0.311	0.189
-231.786	-109.183	0.094	0.020
-230.771	8.888	-0.080	0.060
-229.757	423.002	0.034	0.072
-228.742	376.882	0.100	-0.202
-227.727	128.961	-0.072	0.091
-226.713	96.099	0.024	-0.027
-225.698	78.212	0.203	-0.214
-224.684	38.589	-0.158	0.140
-223.669	-120.744	0.306	0.051
-222.655	214.612	0.190	-0.297
-221.640	160.565	0.220	-0.304
-220.625	631.260	0.059	-0.149
-219.611	-109.809	0.143	0.030
-218.596	-107.913	-0.150	-0.032
-217.582	-200.000	0.007	0.157
-216.567	-3.592	-0.199	-0.137
-215.552	800.000	0.043	-0.144
-214.538	-128.020	0.094	0.013
-213.523	-70.554	-0.354	-0.133
-212.509	-15.776	-0.122	0.077
-211.494	-41.182	-0.167	0.085
-210.479	280.786	0.056	0.100
-209.465	31.397	-0.320	0.272
-208.450	200.497	-0.027	0.041
-207.436	58.083	0.204	0.198
-206.421	-200.000	0.008	0.333
-205.406	217.887	-0.129	-0.203
-204.392	22.063	0.092	0.074
-203.377	20.267	0.253	0.202
-202.363	202.178	-0.092	-0.141
-201.348	650.311	-0.064	0.162
-200.333	-200.000	-0.010	-0.337
-199.319	-109.715	0.357	0.074
-198.304	-92.314	-0.265	0.074
-197.290	-130.653	0.209	-0.028
-196.275	-75.708	-0.157	0.055
-195.260	-115.273	-0.159	0.030
-194.246	-138.767	0.217	0.023
-193.231	76.307	-0.135	0.142
-192.217	-200.000	0.031	0.186
-191.202	800.000	0.057	0.236
-190.187	119.469	-0.173	-0.211
-189.173	-77.927	-0.292	0.100
-188.158	40.625	0.289	0.257
-187.144	130.492	0.007	0.009
-186.129	800.000	0.076	0.321
-185.114	100.883	0.304	0.350
-184.100	130.716	-0.133	0.169
-183.085	196.908	-0.055	0.083
-182.071	37.011	0.091	0.080
-181.056	-82.644	0.237	0.076
-180.042	800.000	0.056	0.212
-179.027	800.000	-0.051	0.207
-178.012	429.416	0.073	-0.155
-176.998	-81.072	-0.208	0.068
-175.983	-50.608	-0.321	-0.149
-174.969	800.000	0.069	-0.207
-173.954	-18.323	-0.293	0.181
-172.939	791.127	0.052	-0.141
-171.925	388.831	-0.047	0.096
-170.910	-52.687	0.268	-0.122
-169.896	-91.291	-0.010	0.003
-168.881	211.913	-0.205	-0.320
-167.866	-5.664	-0.235	0.159
-166.852	-200.000	-0.022	0.095
-165.837	-78.004	-0.155	0.053
-164.823	-64.876	0.194	-0.077
-163.808	575.811	0.097	-0.233
-162.793	236.760	0.094	-0.154
-161.779	-162.750	0.642	0.031
-160.764	-69.653	-0.344	0.130
-159.750	514.278	-0.062	0.142
-158.735	800.000	-0.022	-0.067
-157.720	198.825	0.042	-0.064
-156.706	48.033	0.242	-0.223
-155.691	-160.932	0.080	-0.004
-154.677	125.209	-0.084	-0.104
-153.662	-95.606	0.399	-0.106
-152.647	-76.166	-0.045	-0.016
-151.633	52.138	-0.075	0.071
-150.618	152.021	0.127	0.171
-149.604	-75.081	-0.223	0.079
-148.589	-36.727	0.196	-0.104
-147.574	190.784	0.224	0.333
-146.560	7.936	-0.280	0.207
-145.545	-41.171	-0.448	-0.228
-144.531	-41.768	-0.169	0.085
-143.516	-84.386	0.134	-0.042
-142.502	184.348	-0.134	-0.195
-141.487	12.018	0.148	-0.113
-140.472	59.385	0.126	0.123
-139.458	108.847	0.144	-0.170
-138.443	236.474	-0.021	-0.034
-137.429	800.000	0.079	-0.236
-136.414	-138.315	-0.275	-0.030
-135.399	211.694	-0.131	-0.204
-134.385	-33.550	0.294	-0.160
-133.370	-44.953	-0.085	0.042
-132.356	-115.627	-0.400	0.074
-131.341	150.850	-0.256	0.343
-130.326	-89.503	0.065	0.019
-129.312	206.597	-0.085	0.131
-128.297	204.845	-0.071	-0.108
-127.283	15.329	-0.137	0.106
-126.268	695.734	0.089	0.231
-125.253	-8.653	0.277	-0.184
-124.239	113.966	0.017	0.020
-123.224	-200.000	-0.005	0.131
-122.210	800.000	0.104	0.381
-121.195	-200.000	0.025	0.208
-120.180	168.785	-0.082	0.115
-119.166	-51.877	0.070	-0.032
-118.151	64.681	-0.293	-0.291
-117.137	-105.353	0.290	-0.065
-116.122	-95.103	-0.115	0.031
-115.107	-200.000	-0.027	0.176
-114.093	60.925	0.320	-0.313
-113.078	217.451	0.119	0.187
-112.064	800.000	-0.063	0.197
-111.049	-97.572	0.137	-0.035
-110.034	99.418	0.139	0.158
-109.020	536.979	-0.044	0.104
-108.005	-200.000	-0.051	0.259
-106.991	-18.750	0.248	-0.152
-105.976	-200.000	-0.036	-0.198
-104.962	-20.803	0.219	0.132
-103.947	-200.000	0.067	-0.318
-102.932	-200.000	-0.006	-0.077
-101.918	26.451	-0.214	-0.176
-100.903	647.941	0.097	-0.245
-99.889	800.000	0.057	-0.210
-98.874	133.919	0.101	-0.129
-97.859	-130.322	-0.065	-0.009
-96.845	800.000	0.115	0.429
-95.830	-200.000	-0.006	0.255
-94.816	-8.384	-0.298	-0.197
-93.801	800.000	0.059	0.173
-92.786	-43.017	0.213	0.106
-91.772	640.593	-0.045	-0.114
-90.757	66.964	0.230	0.231
-89.743	-100.294	0.212	-0.052
-88.728	800.000	0.047	0.186
-87.713	-134.503	-0.185	0.022
-86.699	-126.580	0.474	-0.069
-85.684	-102.193	-0.090	-0.021
-84.670	347.114	-0.059	0.115
-83.655	-200.000	0.052	-0.277
-82.640	800.000	0.054	0.228
-81.626	290.213	0.153	0.274
-80.611	411.186	-0.076	-0.159
-79.597	31.847	-0.132	-0.112
-78.582	800.000	0.088	0.277
-77.567	117.812	0.147	0.179
-76.553	481.967	0.081	-0.180
-75.538	355.390	0.156	-0.306
-74.524	23.920	-0.152	0.123
-73.509	-200.000	0.036	-0.188
-72.494	5.534	0.139	-0.101
-71.480	580.068	0.023	0.056
-70.465	-200.000	-0.013	-0.363
-69.451	106.355	0.096	-0.112
-68.436	-55.652	-0.183	0.081
-67.422	-200.000	0.001	-0.295
-66.407	-200.000	-0.014	0.327
-65.392	237.830	-0.076	0.124
-64.378	-73.610	-0.186	-0.067
-63.363	225.317	0.147	0.234
-62.349	646.909	-0.094	0.237
-61.334	156.494	-0.748	-1.016
-60.319	-28.422	0.509	0.289
-59.305	-200.000	0.049	-1.262
-58.290	169.804	0.757	1.064
-57.276	800.000	0.605	1.813
-56.261	-200.000	94.082	566.775
-55.246	509.603	1404.273	3209.719
-54.232	152.613	2613.233	3510.195
-53.217	111.835	2197.316	2608.644
-52.203	44.070	1641.748	1479.895
-51.188	35.109	1372.726	1182.341
-50.173	31.914	1330.225	1126.537
-49.159	54.608	1376.074	1304.242
-48.144	56.196	1392.631	1329.552
-47.130	35.337	1352.491	1166.114
-46.115	31.881	1335.052	1130.246
-45.100	31.598	1330.048	1124.266
-44.086	31.598	1327.411	1121.994
-43.071	31.475	1325.386	1119.502
-42.057	31.506	1322.781	1117.437
-41.042	31.485	1321.719	1116.370
-40.027	31.592	1319.760	1115.310
-39.013	31.561	1317.929	1113.535
-37.998	31.476	1316.551	1111.821
-36.984	31.669	1313.977	1110.748
-35.969	31.656	1312.476	1109.356
-34.954	31.739	1310.295	1107.965
-33.940	31.627	1309.843	1106.876
-32.925	31.738	1308.036	1105.961
-31.911	31.641	1306.711	1104.219
-30.896	31.715	1305.232	1103.367
-29.881	31.720	1303.709	1102.062
-28.867	31.708	1302.005	1100.508
-27.852	31.775	1300.616	1099.683
-26.838	31.769	1298.913	1098.162
-25.823	31.705	1298.126	1097.079
-24.809	31.663	1297.243	1096.044
-23.794	31.736	1295.121	1094.634
-22.779	31.720	1293.888	1093.455
-21.765	31.779	1292.378	1092.483
-20.750	31.532	1291.439	1090.202
-19.736	31.628	1289.826	1089.356
-18.721	31.500	1288.797	1087.704
-17.706	31.661	1287.304	1087.336
-16.692	31.602	1286.438	1086.218
-15.677	31.491	1285.787	1084.981
-14.663	31.538	1284.308	1083.960
-13.648	31.634	1283.294	1083.616
-12.633	31.584	1282.236	1082.391
-11.619	31.548	1281.195	1081.264
-10.604	31.634	1280.176	1080.858
-9.590	31.551	1279.614	1079.860
-8.575	31.518	1278.290	1078.512
-7.560	31.532	1277.369	1077.773
-6.546	31.523	1276.631	1077.054
-5.531	31.615	1275.436	1076.533
-4.517	31.531	1275.048	1075.679
-3.502	31.565	1273.890	1074.857
-2.487	31.471	1273.257	1073.735
-1.473	31.673	1268.966	1071.230
-0.458	30.718	1254.309	1053.414
0.556	26.615	1237.004	1016.148
1.571	22.420	1242.014	996.486
2.586	20.698	1255.583	997.417
3.600	19.375	1242.881	979.728
4.615	14.089	1167.359	891.840
5.629	5.427	1090.539	789.508
6.644	1.330	1070.128	754.334
7.659	0.901	1067.913	750.579
8.673	0.897	1066.699	749.638
9.688	1.044	1065.411	749.397
10.702	1.167	1064.053	748.984
11.717	5.713	1069.718	775.436
12.731	13.354	1079.013	820.118
13.746	17.085	1083.098	841.682
14.761	17.483	1084.106	844.366
15.775	16.817	1081.567	839.018
16.790	15.770	1079.877	832.453
17.804	15.062	1078.380	827.723
18.819	14.649	1077.284	824.770
19.834	14.376	1076.207	822.526
20.848	14.162	1075.484	820.845
21.863	13.968	1074.483	819.051
22.877	13.720	1073.653	817.122
23.892	13.660	1073.002	816.260
24.907	13.644	1072.322	815.594
25.921	13.748	1071.391	815.324
26.936	13.788	1070.355	814.662
27.950	13.843	1069.676	814.342
28.965	13.825	1068.466	813.257
29.980	13.925	1067.171	812.690
30.994	13.976	1065.835	811.849
32.009	14.072	1064.993	811.606
33.023	14.025	1063.945	810.505
34.038	13.899	1063.114	809.187
35.053	13.889	1062.216	808.385
36.067	13.846	1061.603	807.638
37.082	14.065	1059.919	807.348
38.096	13.937	1059.574	806.394
39.111	13.834	1059.123	805.480
40.126	13.879	1057.835	804.647
41.140	13.850	1056.715	803.580
42.155	13.762	1055.449	802.122
43.169	13.779	1054.305	801.266
44.184	13.539	1054.026	799.822
45.199	13.609	1052.770	799.139
46.213	13.720	1051.487	798.625
47.228	13.739	1050.347	797.781
48.242	13.839	1049.496	797.544
49.257	13.820	1048.259	796.444
50.271	13.778	1047.394	795.512
51.286	13.742	1047.085	795.035
52.301	13.862	1045.783	794.554
53.315	13.753	1044.495	792.983
54.330	13.751	1043.374	792.050
55.344	13.763	1042.539	791.404
56.359	13.840	1041.442	790.870
57.374	13.783	1040.827	790.061
58.388	13.782	1039.989	789.350
59.403	13.667	1039.476	788.342
60.417	13.735	1038.679	787.993
61.432	13.799	1037.776	787.542
62.447	13.710	1037.101	786.537
63.461	13.678	1036.519	785.875
64.476	13.608	1035.493	784.697
65.490	13.655	1034.880	784.386
66.505	13.727	1033.892	783.908
67.520	13.723	1033.194	783.290
68.534	13.748	1032.645	782.921
69.549	13.700	1031.772	781.963
70.563	13.693	1031.141	781.383
71.578	13.596	1030.140	780.098
72.593	13.754	1029.310	780.143
73.607	13.683	1028.867	779.407
74.622	13.666	1028.032	778.626
75.636	13.614	1027.674	778.041
76.651	13.479	1027.137	776.932
77.666	13.609	1026.732	777.167
78.680	13.657	1025.740	776.570
79.695	13.596	1024.637	775.381
80.709	13.711	1024.168	775.495
81.724	13.822	1023.319	775.305
82.739	13.763	1022.937	774.668
83.753	13.763	1022.096	773.965
84.768	13.869	1020.843	773.440
85.782	13.948	1019.951	773.063
86.797	13.874	1019.481	772.298
87.812	13.920	1018.269	771.523
88.826	13.824	1017.311	770.283
89.841	13.813	1016.435	769.503
90.855	13.827	1015.440	768.743
91.870	13.879	1014.428	768.153
92.884	14.021	1013.117	767.748
93.899	13.795	1013.004	766.547
94.914	13.975	1011.998	766.549
95.928	13.963	1011.478	766.031
96.943	13.893	1010.434	764.853
97.957	14.004	1009.199	764.362
98.972	13.927	1008.549	763.449
99.987	13.957	1007.491	762.717
101.001	14.087	1006.157	762.235
102.016	13.885	1005.561	760.790
103.030	14.022	1004.779	760.761
104.045	13.950	1004.284	759.987
105.060	13.943	1003.599	759.368
106.074	13.770	1002.667	757.807
107.089	13.873	1001.611	757.412
108.103	13.781	1000.748	756.275
109.118	13.892	999.690	755.913
110.133	13.755	999.156	754.816
111.147	13.696	998.309	753.843
112.162	13.815	996.879	753.236
113.176	13.812	996.114	752.579
114.191	13.962	995.706	752.882
115.206	13.923	995.178	752.239
116.220	13.950	993.966	751.380
117.235	13.910	993.291	750.623
118.249	13.923	992.277	749.849
119.264	13.753	991.629	748.527
120.279	13.839	991.101	748.450
121.293	13.857	990.100	747.705
122.308	13.918	988.956	747.053
123.322	13.850	987.934	745.910
124.337	13.786	986.891	744.766
125.352	13.905	985.760	744.379
126.366	13.873	984.757	743.413
127.381	13.790	984.161	742.528
128.395	13.898	982.848	741.953
129.410	13.798	982.420	741.117
130.424	13.955	981.222	740.848
131.439	13.868	980.508	739.855
132.454	13.974	979.522	739.521
133.468	14.051	978.512	739.034
134.483	13.928	978.170	738.163
135.497	13.982	976.784	737.293
136.512	13.948	975.831	736.355
137.527	13.924	975.149	735.670
138.541	14.067	974.618	735.837
139.556	14.007	974.063	735.089
140.570	14.131	972.905	734.696
141.585	14.213	972.129	734.408
142.600	13.981	971.363	732.741
143.614	14.072	970.477	732.410
144.629	14.115	969.845	732.057
145.643	14.113	969.237	731.522
146.658	14.099	967.944	730.422
147.673	14.039	966.860	729.278
148.687	14.047	966.270	728.803
149.702	14.065	964.884	727.773
150.716	14.029	964.651	727.373
151.731	13.974	964.061	726.625
152.746	14.112	963.373	726.641
153.760	14.053	962.625	725.757
154.775	14.189	961.913	725.750
155.789	14.057	961.237	724.602
156.804	14.125	960.787	724.495
157.819	14.122	959.982	723.809
158.833	14.130	959.332	723.292
159.848	14.267	958.311	723.051
160.862	14.270	957.698	722.537
161.877	14.189	956.546	721.254
162.892	14.120	955.484	720.090
163.906	14.174	954.687	719.658
164.921	14.099	954.117	718.843
165.935	14.113	953.103	718.075
166.950	14.170	951.920	717.366
167.964	14.185	951.312	716.910
168.979	14.161	950.485	716.119
169.994	14.141	949.437	715.179
171.008	14.238	949.001	715.207
172.023	14.292	948.118	714.710
173.037	14.333	947.374	714.258
174.052	14.364	946.372	713.574
175.067	14.302	945.723	712.756
176.081	14.271	945.439	712.345
177.096	14.250	944.948	711.825
178.110	14.300	944.248	711.448
179.125	14.324	943.647	711.034
180.140	14.347	943.192	710.727
181.154	14.415	942.352	710.321
182.169	14.355	942.129	709.835
183.183	14.406	941.647	709.625
184.198	14.371	940.910	708.857
185.213	14.505	939.759	708.499
186.227	14.472	939.428	708.046
187.242	14.470	938.946	707.611
188.256	14.582	938.046	707.344
189.271	14.531	937.042	706.308
190.286	14.400	936.518	705.295
191.300	14.336	935.710	704.354
192.315	14.405	935.262	704.248
193.329	14.401	934.801	703.823
194.344	14.420	934.255	703.429
195.359	14.459	933.583	703.026
196.373	14.485	932.876	702.537
197.388	14.558	932.022	702.140
198.402	14.834	931.242	702.652
199.417	14.682	931.020	701.784
200.432	14.637	930.600	701.216
201.446	14.687	929.985	700.900
202.461	14.702	929.473	700.516
203.475	14.892	928.698	700.664
204.490	14.674	927.978	699.147
205.504	14.676	927.407	698.663
206.519	14.687	926.732	698.140
207.534	14.780	925.827	697.782
208.548	14.764	924.738	696.837
209.563	14.744	924.472	696.490
210.577	14.766	923.580	695.849
211.592	14.930	922.727	695.825
212.607	14.918	922.209	695.324
213.621	14.838	921.380	694.304
214.636	14.878	920.983	694.111
215.650	14.874	920.256	693.483
216.665	14.882	919.652	693.000
217.680	14.849	918.807	692.166
218.694	14.895	917.916	691.622
219.709	14.830	917.596	691.051
220.723	14.984	916.211	690.584
221.738	14.946	915.942	690.163
222.753	14.921	915.052	689.329
223.767	15.043	914.711	689.515
224.782	15.070	914.171	689.155
225.796	15.000	913.306	688.155
226.811	14.951	912.959	687.631
227.826	14.980	912.334	687.219
228.840	15.089	911.641	687.085
229.855	15.078	910.472	686.097
230.869	15.067	909.797	685.482
231.884	15.025	909.220	684.816
232.899	15.010	908.794	684.371
233.913	15.002	907.899	683.604
234.928	15.003	907.296	683.094
235.942	14.984	906.866	682.632
236.957	14.925	906.237	681.861
237.972	15.041	905.674	681.847
238.986	15.131	904.540	681.301
240.001	15.136	904.277	681.060
241.015	15.128	903.555	680.424
242.030	15.197	903.059	680.270
243.045	15.175	902.286	679.541
244.059	15.160	901.981	679.188
245.074	15.269	901.390	679.127
246.088	15.384	900.228	678.654
247.103	15.345	899.798	678.113
248.117	15.507	899.101	678.183
249.132	15.298	898.807	677.056
250.147	15.433	897.542	676.587
251.161	15.402	897.170	676.125
252.176	15.445	896.731	675.907
253.190	15.590	895.810	675.733
254.205	15.488	895.405	674.960
255.220	15.466	895.054	674.547
256.234	15.561	894.207	674.231
257.249	15.550	893.572	673.648
258.263	15.491	892.561	672.591
259.278	15.424	892.213	671.999
260.293	15.632	891.615	672.321
261.307	15.810	890.611	672.216
262.322	15.729	889.891	671.290
263.336	15.772	889.271	670.934
264.351	15.831	888.665	670.652
265.366	15.662	887.936	669.369
266.380	15.824	887.645	669.736
267.395	15.706	886.761	668.541
268.409	15.922	885.881	668.675
269.424	15.772	885.214	667.517
270.439	15.770	884.849	667.178
271.453	15.715	884.138	666.365
272.468	15.807	883.315	666.050
273.482	15.761	882.999	665.568
274.497	15.755	882.282	664.948
275.512	15.639	882.298	664.439
276.526	15.847	881.627	664.700
277.541	15.898	880.976	664.351
278.555	15.854	880.334	663.635
279.570	15.864	879.524	663.002
280.585	16.120	878.197	662.952
281.599	15.857	878.157	661.829
282.614	16.025	877.230	661.730
283.628	15.912	876.693	660.823
284.643	15.874	876.266	660.293
285.657	16.041	875.441	660.269
286.672	16.030	874.680	659.592
287.687	16.083	873.903	659.155
288.701	16.146	873.727	659.212
289.716	15.961	873.507	658.264
290.730	16.084	872.703	658.082
291.745	16.180	871.880	657.776
292.760	16.066	871.483	656.974
293.774	16.193	870.593	656.738
294.789	16.150	869.657	655.808
295.803	16.157	869.354	655.548
296.818	16.153	868.641	654.938
297.833	16.163	868.016	654.446
298.847	16.116	867.415	653.753
299.862	16.174	866.876	653.512
300.876	16.332	866.076	653.467
301.891	16.382	865.404	653.095
302.906	16.381	864.976	652.710
303.920	16.456	864.201	652.356
304.935	16.421	863.780	651.845
305.949	16.256	863.160	650.685
306.964	16.473	862.308	650.818
307.979	16.385	862.078	650.249
308.993	16.320	861.849	649.768
310.008	16.389	861.088	649.402
311.022	16.523	860.202	649.191
312.037	16.408	859.448	648.126
313.052	16.389	859.023	647.672
314.066	16.400	858.545	647.296
315.081	16.563	857.946	647.412
316.095	16.499	857.393	646.693
317.110	16.367	856.949	645.796
318.125	16.519	856.371	645.886
319.139	16.508	855.924	645.449
320.154	16.434	855.643	644.895
321.168	16.585	854.830	644.804
322.183	16.458	854.187	643.776
323.197	16.436	853.957	643.461
324.212	16.498	853.176	643.052
325.227	16.497	852.543	642.514
326.241	16.567	852.252	642.504
327.256	16.573	851.586	641.969
328.270	16.475	851.147	641.211
329.285	16.701	850.192	641.288
330.300	16.614	849.869	640.660
331.314	16.718	849.000	640.342
332.329	16.709	848.571	639.929
333.343	16.556	848.708	639.396
334.358	16.634	848.067	639.152
335.373	16.646	847.593	638.783
336.387	16.717	847.574	638.977
337.402	16.606	847.340	638.327
338.416	16.775	846.697	638.422
339.431	16.793	846.248	638.095
340.446	16.721	846.203	637.735
341.460	16.790	845.262	637.229
342.475	16.965	844.689	637.398
343.489	16.788	844.507	636.537
344.504	16.909	844.226	636.724
345.519	17.008	843.498	636.493
346.533	16.926	842.963	635.722
347.548	17.071	842.127	635.582
348.562	17.001	841.668	634.915
349.577	16.920	841.491	634.422
350.592	16.922	840.909	633.936
351.606	16.830	840.258	633.044
352.621	16.920	839.349	632.642
353.635	17.123	838.460	632.672
354.650	16.994	838.122	631.879
355.665	16.987	837.357	631.221
356.679	17.008	836.864	630.870
357.694	17.230	835.993	630.983
358.708	17.235	835.336	630.450
359.723	17.056	835.269	629.679
360.738	17.085	834.672	629.279
361.752	17.343	833.637	629.401
362.767	17.413	832.966	629.098
363.781	17.238	832.938	628.372
364.796	17.227	832.231	627.743
365.810	17.273	832.090	627.751
366.825	17.289	831.584	627.373
367.840	17.203	831.179	626.696
368.854	17.298	830.736	626.655
369.869	17.247	830.469	626.212
370.883	17.261	829.824	625.721
371.898	17.430	829.465	626.018
372.913	17.442	829.013	625.662
373.927	17.420	828.606	625.222
374.942	17.506	827.861	624.917
375.956	17.512	827.711	624.771
376.971	17.497	827.641	624.609
377.986	17.521	826.815	624.020
379.000	17.423	826.282	623.201
380.015	17.654	825.518	623.416
381.029	17.595	824.901	622.677
382.044	17.570	824.487	622.219
383.059	17.663	823.671	621.887
384.073	17.664	823.363	621.605
385.088	17.644	822.669	620.952
386.102	17.614	822.237	620.462
387.117	17.572	821.853	619.963
388.132	17.748	821.230	620.082
389.146	17.637	820.471	619.050
390.161	17.670	820.362	619.033
391.175	17.704	819.698	618.600
392.190	17.654	819.020	617.853
393.205	17.942	818.364	618.344
394.219	17.670	818.312	617.266
395.234	17.732	817.868	617.101
396.248	17.502	817.953	616.276
397.263	17.638	817.244	616.180
398.278	17.840	816.706	616.450
399.292	17.732	816.342	615.732
400.307	17.720	815.813	615.236
401.321	17.618	815.549	614.613
402.336	17.803	814.827	614.680
403.350	17.646	814.468	613.790
404.365	17.821	813.789	613.855
405.380	17.927	812.942	613.542
406.394	17.932	812.849	613.436
407.409	17.953	812.379	613.101
408.423	17.867	812.442	612.787
409.438	17.961	811.788	612.578
410.453	18.084	811.476	612.727
411.467	17.886	811.125	611.698
412.482	18.005	810.598	611.673
413.496	18.098	810.250	611.689
414.511	18.166	810.043	611.722
415.526	18.163	809.552	611.287
416.540	18.030	809.045	610.373
417.555	18.197	807.953	610.094
418.569	18.191	807.867	609.953
419.584	18.041	807.447	609.047
420.599	18.037	807.184	608.779
421.613	109.399	1290.589	1462.139
422.628	94.398	1361.012	1462.288
