DTS Sentinel unit serial number:	SN413079Multiplexer serial number:	ORYXHardware model number:	OX4-SRSoftware version number:	ORYX F/W v4.00 Oryx Data Collector v3.7.2.0data status	okinstallation	princeton_trtdifferential loss correction	single-endedforward channel	channel 1reverse channel	N/Adate	2019/09/13time	23:06:35forward acquisition time	60.00reverse acquisition time	0.00gamma	496.2192k internal	0.2335k external	0.2335temperature offset calibration	1.0083default loss term (dB/km)	0.3790temperature slope calibration	1.0000multiplexer offset coefficient	1.0000multiplexer slope coefficient	1.0000fibre end	0.00T internal ref (°C)	27.25T ext. ref 1 (°C)	3.20T ext. ref 2 (°C)	21.23length (m)	temperature (°C)	Stokes	anti-Stokes-747.200	-200.000	0.014	0.296
-746.185	800.000	-0.021	0.079
-745.171	1.946	-0.160	-0.116
-744.156	-200.000	0.008	0.119
-743.142	789.779	0.035	-0.097
-742.127	0.955	-0.188	-0.136
-741.112	266.259	0.127	0.223
-740.098	800.000	0.039	0.145
-739.083	-88.820	-0.205	0.061
-738.069	800.000	-0.009	0.028
-737.054	800.000	-0.150	-0.535
-736.039	279.835	-0.179	-0.321
-735.025	49.425	0.159	0.151
-734.010	30.427	0.098	-0.084
-732.996	-192.916	0.172	0.002
-731.981	-200.000	-0.017	0.128
-730.966	-154.026	-0.364	0.025
-729.952	-71.028	-0.166	-0.063
-728.937	306.196	0.044	0.082
-727.923	-200.000	-0.037	0.219
-726.908	475.387	0.144	0.326
-725.894	-200.000	0.006	0.226
-724.879	-77.784	-0.179	0.062
-723.864	800.000	-0.069	0.227
-722.850	76.244	-0.038	-0.041
-721.835	112.112	-0.074	0.089
-720.821	-70.329	0.076	-0.029
-719.806	139.928	-0.070	0.092
-718.791	-107.072	-0.278	-0.061
-717.777	94.090	-0.231	0.263
-716.762	189.065	-0.132	0.199
-715.748	-200.000	-0.049	-0.321
-714.733	-86.825	0.413	-0.126
-713.718	322.900	-0.067	0.129
-712.704	-61.362	-0.348	0.147
-711.689	21.965	-0.201	0.165
-710.675	-174.664	-0.164	-0.005
-709.660	12.251	0.104	-0.080
-708.645	82.812	0.051	0.055
-707.631	-186.052	0.452	0.007
-706.616	-200.000	-0.009	0.158
-705.602	-40.677	-0.377	0.196
-704.587	179.382	0.098	-0.144
-703.572	-48.588	-0.136	0.066
-702.558	-81.031	0.203	-0.067
-701.543	-200.000	0.108	0.000
-700.529	279.843	-0.073	0.130
-699.514	-61.134	-0.103	0.043
-698.499	247.218	0.151	0.255
-697.485	6.363	-0.073	-0.054
-696.470	27.951	-0.093	0.079
-695.456	-200.000	-0.033	0.213
-694.441	-47.991	0.171	-0.083
-693.426	-100.200	-0.217	-0.054
-692.412	144.605	0.194	-0.260
-691.397	-71.559	-0.247	-0.093
-690.383	-17.012	-0.204	-0.129
-689.368	-200.000	-0.051	-0.280
-688.354	800.000	0.044	-0.138
-687.339	-137.664	-0.386	0.043
-686.324	195.682	-0.080	-0.123
-685.310	97.908	0.161	0.186
-684.295	-36.692	-0.088	0.047
-683.281	-22.134	0.017	0.011
-682.266	-164.505	-0.190	0.009
-681.251	-200.000	-0.012	-0.067
-680.237	-117.638	0.397	-0.072
-679.222	38.624	0.081	-0.072
-678.208	800.000	0.076	-0.251
-677.193	-200.000	0.039	-0.215
-676.178	54.848	-0.206	0.199
-675.164	742.020	0.111	-0.299
-674.149	-80.918	0.307	0.102
-673.135	378.696	-0.063	-0.129
-672.120	6.286	-0.134	-0.100
-671.105	124.380	-0.279	-0.352
-670.091	54.851	-0.344	-0.332
-669.076	800.000	-0.090	-0.263
-668.062	6.986	0.313	-0.234
-667.047	-200.000	0.018	-0.094
-666.032	133.475	0.055	0.071
-665.018	580.684	0.060	-0.147
-664.003	148.055	0.148	-0.200
-662.989	-200.000	-0.019	0.094
-661.974	800.000	-0.082	-0.244
-660.959	-200.000	0.002	0.324
-659.945	491.781	0.004	0.009
-658.930	-200.000	0.032	0.260
-657.916	800.000	-0.040	-0.169
-656.901	-125.031	-0.310	-0.048
-655.886	-127.603	-0.403	0.058
-654.872	800.000	-0.101	-0.302
-653.857	800.000	0.101	-0.381
-652.843	449.701	-0.139	0.308
-651.828	800.000	0.064	0.262
-650.814	249.726	0.081	-0.138
-649.799	-30.156	-0.294	-0.167
-648.784	800.000	0.117	-0.335
-647.770	-200.000	0.039	-0.387
-646.755	5.644	0.298	-0.220
-645.741	51.188	-0.249	-0.237
-644.726	58.375	-0.027	-0.026
-643.711	-29.920	-0.214	-0.122
-642.697	112.289	-0.133	-0.161
-641.682	23.363	-0.246	-0.203
-640.668	800.000	0.169	-0.494
-639.653	-17.811	0.320	-0.201
-638.638	-135.532	0.236	-0.028
-637.624	-10.334	0.156	-0.103
-636.609	-136.205	0.112	0.013
-635.595	16.739	0.211	0.167
-634.580	233.119	-0.113	0.186
-633.565	-200.000	0.030	-0.170
-632.551	800.000	-0.084	-0.245
-631.536	-111.056	-0.177	-0.036
-630.522	-127.099	-0.295	-0.043
-629.507	11.300	0.059	0.045
-628.492	-146.252	-0.240	-0.021
-627.478	68.694	-0.194	-0.199
-626.463	414.165	-0.078	0.165
-625.449	-180.445	-0.347	-0.007
-624.434	-65.885	0.236	0.094
-623.419	-159.633	-0.157	0.009
-622.405	800.000	0.027	-0.101
-621.390	-88.918	0.131	-0.039
-620.376	557.080	-0.140	-0.338
-619.361	-52.481	-0.310	-0.143
-618.346	-23.066	0.073	-0.044
-617.332	-67.416	0.032	-0.013
-616.317	183.581	-0.224	-0.331
-615.303	232.616	-0.070	-0.115
-614.288	488.085	-0.120	-0.274
-613.273	136.267	0.116	-0.151
-612.259	730.087	0.056	-0.149
-611.244	-20.895	0.160	-0.098
-610.230	-61.323	0.109	-0.046
-609.215	-200.000	0.050	0.229
-608.201	152.823	-0.060	-0.082
-607.186	4.272	0.200	-0.146
-606.171	-86.926	0.109	0.033
-605.157	800.000	0.066	-0.230
-604.142	172.804	0.145	-0.209
-603.128	800.000	0.022	-0.093
-602.113	-35.684	-0.106	0.057
-601.098	15.290	-0.073	0.057
-600.084	78.748	0.081	0.086
-599.069	25.824	0.184	-0.153
-598.055	-200.000	0.025	-0.174
-597.040	-200.000	0.003	-0.066
-596.025	-11.244	-0.101	-0.067
-595.011	-200.000	0.093	0.412
-593.996	-32.157	-0.179	0.100
-592.982	132.318	0.074	0.095
-591.967	-76.314	0.251	0.088
-590.952	17.911	-0.220	0.175
-589.938	536.451	0.135	0.321
-588.923	-154.331	-0.264	-0.018
-587.909	-38.937	0.113	-0.060
-586.894	-117.038	-0.154	0.028
-585.879	487.372	0.133	-0.302
-584.865	-179.547	-0.323	0.007
-583.850	114.730	0.196	0.239
-582.836	800.000	-0.064	-0.185
-581.821	-200.000	-0.001	-0.241
-580.806	749.977	0.067	-0.182
-579.792	-200.000	-0.029	-0.219
-578.777	800.000	-0.073	-0.288
-577.763	-70.119	-0.233	0.089
-576.748	702.625	-0.055	-0.145
-575.733	100.288	-0.128	-0.149
-574.719	-70.834	-0.074	0.028
-573.704	135.507	0.248	0.322
-572.690	-32.321	-0.160	0.089
-571.675	5.142	0.093	-0.069
-570.661	272.966	-0.190	-0.335
-569.646	-41.103	-0.131	-0.067
-568.631	-200.000	0.035	-0.343
-567.617	662.861	-0.074	0.191
-566.602	-107.100	-0.334	-0.074
-565.588	-88.078	0.259	0.077
-564.573	-120.810	0.081	-0.014
-563.558	-155.983	-0.080	-0.005
-562.544	-54.665	-0.167	0.075
-561.529	406.286	-0.052	0.110
-560.515	-200.000	-0.007	0.197
-559.500	-200.000	-0.032	-0.270
-558.485	-120.918	-0.275	0.046
-557.471	800.000	-0.099	0.330
-556.456	359.167	0.089	0.178
-555.442	24.104	-0.158	-0.130
-554.427	-38.313	-0.247	-0.130
-553.412	44.604	-0.371	0.340
-552.398	-51.784	0.262	0.121
-551.383	126.227	0.147	-0.186
-550.369	720.443	0.093	0.247
-549.354	-128.259	0.071	-0.010
-548.339	-200.000	-0.053	-0.268
-547.325	114.523	0.175	-0.213
-546.310	570.719	-0.115	-0.279
-545.296	-75.908	0.235	0.083
-544.281	39.141	0.086	0.077
-543.266	384.171	-0.110	0.226
-542.252	-37.665	0.056	-0.030
-541.237	56.043	-0.160	-0.155
-540.223	404.664	0.193	0.405
-539.208	41.842	0.139	-0.126
-538.193	-53.388	-0.238	-0.109
-537.179	256.860	-0.142	-0.243
-536.164	-183.529	0.306	0.005
-535.150	37.769	-0.033	0.029
-534.135	-81.455	0.334	0.110
-533.121	61.106	-0.075	0.075
-532.106	-200.000	-0.014	-0.284
-531.091	-44.292	-0.344	-0.172
-530.077	-17.344	0.238	0.149
-529.062	-122.861	0.241	0.039
-528.048	123.527	-0.035	-0.043
-527.033	-200.000	-0.017	0.098
-526.018	-142.146	0.349	0.035
-525.004	-49.191	-0.324	0.154
-523.989	-100.130	-0.165	0.041
-522.975	268.212	-0.048	-0.083
-521.960	43.966	0.185	-0.169
-520.945	800.000	0.072	-0.234
-519.931	279.436	-0.133	-0.236
-518.916	6.033	0.124	0.092
-517.902	51.248	-0.318	-0.301
-516.887	-200.000	-0.001	0.141
-515.872	45.620	0.204	-0.188
-514.858	-1.180	-0.212	-0.149
-513.843	-46.984	0.171	0.083
-512.829	-54.521	-0.275	-0.124
-511.814	538.568	-0.062	-0.147
-510.799	86.923	0.168	0.184
-509.785	402.289	0.029	0.061
-508.770	-118.136	-0.392	-0.070
-507.756	9.744	-0.203	0.153
-506.741	-157.727	0.251	-0.015
-505.726	69.659	0.127	0.130
-504.712	435.969	-0.021	-0.045
-503.697	180.767	0.012	-0.017
-502.683	800.000	0.048	-0.197
-501.668	28.693	0.283	-0.238
-500.653	-71.873	-0.263	-0.097
-499.639	-131.986	0.247	-0.032
-498.624	-46.398	-0.128	0.063
-497.610	-13.880	0.293	-0.189
-496.595	779.618	0.129	0.351
-495.581	308.916	-0.088	0.164
-494.566	56.545	-0.167	-0.161
-493.551	-181.028	0.123	-0.002
-492.537	800.000	-0.058	0.202
-491.522	-108.079	0.255	-0.055
-490.508	20.528	-0.105	-0.084
-489.493	-156.293	-0.249	0.016
-488.478	-56.443	-0.153	0.067
-487.464	-57.792	0.184	0.080
-486.449	162.445	-0.202	-0.282
-485.435	-69.006	0.182	-0.070
-484.420	267.241	0.098	0.170
-483.405	632.863	0.021	-0.052
-482.391	68.076	-0.090	-0.091
-481.376	-200.000	-0.091	-0.421
-480.362	-200.000	-0.012	-0.202
-479.347	135.162	-0.123	0.160
-478.332	-200.000	0.004	0.104
-477.318	80.238	-0.124	-0.132
-476.303	-130.506	-0.232	-0.031
-475.289	-156.061	-0.171	0.011
-474.274	-126.656	-0.452	0.067
-473.259	-200.000	0.044	-0.217
-472.245	-63.626	0.112	0.046
-471.230	-200.000	-0.079	0.401
-470.216	-27.743	0.154	-0.089
-469.201	-200.000	-0.025	0.288
-468.186	-70.622	-0.136	0.051
-467.172	800.000	0.067	-0.224
-466.157	34.951	0.335	0.291
-465.143	145.832	0.055	-0.074
-464.128	445.711	0.113	0.247
-463.113	275.978	0.131	0.231
-462.099	594.833	0.077	-0.190
-461.084	-200.000	0.037	0.206
-460.070	-12.569	-0.094	0.061
-459.055	101.691	0.128	0.148
-458.040	-200.000	-0.009	0.183
-457.026	111.835	0.191	0.229
-456.011	-115.476	0.285	-0.053
-454.997	-181.200	0.403	0.008
-453.982	-200.000	-0.032	0.182
-452.968	-200.000	-0.005	0.166
-451.953	-83.160	-0.107	-0.034
-450.938	226.408	-0.110	0.178
-449.924	178.874	-0.101	-0.147
-448.909	467.590	-0.109	-0.242
-447.895	-200.000	-0.004	-0.110
-446.880	-119.477	0.196	0.034
-445.865	800.000	0.066	0.287
-444.851	154.861	0.034	-0.047
-443.836	14.193	-0.141	0.109
-442.822	3.768	0.179	-0.130
-441.807	800.000	0.059	0.184
-440.792	168.750	-0.036	-0.051
-439.778	-200.000	-0.043	-0.299
-438.763	800.000	-0.063	-0.191
-437.749	-44.046	0.205	0.102
-436.734	800.000	-0.118	0.429
-435.719	371.060	0.031	0.061
-434.705	43.674	-0.152	0.138
-433.690	-22.663	0.236	-0.142
-432.676	-133.200	-0.228	-0.029
-431.661	-44.186	0.061	0.030
-430.646	10.630	-0.150	-0.114
-429.632	-200.000	0.063	-0.388
-428.617	-200.000	0.084	-0.411
-427.603	-200.000	-0.001	0.007
-426.588	472.391	-0.049	0.110
-425.573	-167.889	0.072	0.003
-424.559	137.483	-0.073	-0.095
-423.544	-87.023	-0.154	0.046
-422.530	-92.770	-0.306	0.085
-421.515	357.162	0.029	0.058
-420.500	22.090	-0.160	-0.130
-419.486	-200.000	-0.019	0.102
-418.471	-166.830	-0.271	-0.011
-417.457	67.565	0.268	0.271
-416.442	-40.734	0.248	0.128
-415.428	266.667	0.146	0.254
-414.413	-132.156	-0.155	0.020
-413.398	-161.353	-0.202	0.010
-412.384	117.136	-0.120	-0.146
-411.369	47.030	-0.140	-0.129
-410.355	-13.239	0.302	-0.194
-409.340	534.456	0.014	-0.034
-408.325	-162.009	0.168	-0.008
-407.311	90.692	-0.061	0.068
-406.296	-59.438	0.038	0.016
-405.282	-82.484	0.298	-0.096
-404.267	205.301	0.174	0.267
-403.252	22.058	-0.067	-0.054
-402.238	-200.000	0.033	-0.265
-401.223	-87.792	0.331	-0.099
-400.209	800.000	-0.033	-0.127
-399.194	97.419	0.162	-0.184
-398.179	-119.386	-0.048	0.008
-397.165	-200.000	0.071	0.482
-396.150	-45.474	-0.161	-0.079
-395.136	-200.000	-0.004	-0.201
-394.121	80.385	-0.063	-0.067
-393.106	-147.913	0.095	-0.008
-392.092	305.398	-0.041	-0.076
-391.077	176.398	-0.049	-0.071
-390.063	87.822	-0.130	-0.143
-389.048	-200.000	-0.037	-0.164
-388.033	-53.156	0.166	0.075
-387.019	41.772	0.168	0.151
-386.004	-178.864	-0.142	0.003
-384.990	319.578	-0.103	0.193
-383.975	-200.000	0.052	-0.281
-382.960	392.584	-0.060	0.124
-381.946	64.237	0.113	-0.113
-380.931	193.978	0.203	-0.304
-379.917	51.349	-0.117	0.110
-378.902	-200.000	0.077	0.355
-377.888	67.113	-0.130	0.131
-376.873	-200.000	-0.046	0.229
-375.858	57.996	0.118	-0.115
-374.844	-200.000	0.049	-0.267
-373.829	-127.306	-0.094	-0.014
-372.815	-200.000	-0.047	-0.211
-371.800	-29.527	0.254	-0.144
-370.785	-157.935	-0.251	0.015
-369.771	-65.825	0.265	0.105
-368.756	-39.742	-0.151	-0.078
-367.742	452.419	-0.115	-0.251
-366.727	800.000	0.018	-0.055
-365.712	97.005	-0.234	0.266
-364.698	180.336	0.054	-0.078
-363.683	122.553	0.177	-0.219
-362.669	9.342	-0.149	0.112
-361.654	-200.000	-0.041	0.323
-360.639	-200.000	-0.022	-0.139
-359.625	800.000	0.101	-0.322
-358.610	-128.561	-0.015	-0.002
-357.596	-200.000	0.015	0.264
-356.581	425.327	-0.141	0.300
-355.566	-70.789	0.201	-0.075
-354.552	-158.258	0.350	-0.020
-353.537	-200.000	0.005	0.514
-352.523	800.000	-0.059	0.172
-351.508	-145.502	0.118	0.010
-350.493	401.785	0.171	-0.355
-349.479	-24.740	-0.122	0.072
-348.464	800.000	-0.062	-0.262
-347.450	800.000	-0.042	0.176
-346.435	-200.000	-0.011	-0.157
-345.420	800.000	-0.054	0.208
-344.406	800.000	-0.063	-0.188
-343.391	158.608	-0.024	-0.033
-342.377	-200.000	-0.011	-0.152
-341.362	-189.515	-0.135	-0.002
-340.348	77.546	0.281	-0.295
-339.333	-42.790	-0.418	0.210
-338.318	-147.468	-0.353	0.030
-337.304	-66.867	0.091	-0.036
-336.289	-200.000	-0.013	0.076
-335.275	53.281	-0.084	0.079
-334.260	-55.409	0.111	0.049
-333.245	586.999	0.007	-0.018
-332.231	86.127	-0.226	0.246
-331.216	23.270	-0.091	-0.074
-330.202	-69.412	0.220	0.084
-329.187	-200.000	0.015	0.077
-328.172	-200.000	-0.022	0.136
-327.158	201.425	-0.198	-0.302
-326.143	156.393	0.156	-0.213
-325.129	-66.286	-0.004	0.002
-324.114	79.044	-0.254	-0.269
-323.099	11.154	0.118	-0.089
-322.085	-112.696	0.147	-0.029
-321.070	-169.180	0.347	0.013
-320.056	112.502	-0.248	-0.296
-319.041	-200.000	-0.039	0.201
-318.026	-200.000	0.025	0.161
-317.012	-200.000	0.019	0.432
-315.997	449.611	-0.111	0.241
-314.983	-77.525	0.294	-0.101
-313.968	-32.775	-0.150	-0.083
-312.953	-105.663	-0.122	-0.027
-311.939	-118.336	-0.057	0.010
-310.924	326.655	-0.081	0.154
-309.910	-102.799	0.202	-0.047
-308.895	52.015	0.213	-0.201
-307.880	465.443	0.161	-0.355
-306.866	-200.000	-0.015	0.094
-305.851	107.327	-0.356	0.418
-304.837	800.000	0.062	0.186
-303.822	116.295	0.127	0.154
-302.807	40.567	0.329	0.293
-301.793	-41.557	-0.343	0.174
-300.778	7.391	0.161	-0.119
-299.764	800.000	-0.045	0.179
-298.749	-86.301	0.272	0.083
-297.735	39.252	-0.026	-0.023
-296.720	800.000	0.105	-0.320
-295.705	-25.281	-0.389	-0.227
-294.691	-157.152	0.216	0.013
-293.676	-200.000	0.003	0.280
-292.662	719.189	0.026	-0.069
-291.647	59.764	-0.117	0.114
-290.632	-200.000	-0.033	0.180
-289.618	-33.998	0.289	-0.157
-288.603	-200.000	0.008	0.428
-287.589	-200.000	0.018	0.174
-286.574	-6.002	-0.286	0.193
-285.559	-44.800	-0.286	-0.141
-284.545	19.376	-0.316	0.251
-283.530	-200.000	-0.007	-0.101
-282.516	-57.054	-0.183	0.080
-281.501	42.700	0.216	0.194
-280.486	159.403	-0.111	-0.153
-279.472	800.000	0.072	0.223
-278.457	-90.387	0.217	0.062
-277.443	-16.752	0.254	-0.158
-276.428	-8.988	0.159	0.105
-275.413	-21.410	0.263	0.158
-274.399	553.994	-0.089	0.211
-273.384	29.026	-0.131	0.110
-272.370	304.589	0.069	0.126
-271.355	-200.000	-0.001	-0.006
-270.340	-148.283	-0.074	-0.006
-269.326	244.189	-0.049	-0.080
-268.311	225.992	0.179	-0.287
-267.297	-200.000	-0.024	-0.155
-266.282	24.540	0.086	-0.070
-265.267	-51.213	0.088	-0.041
-264.253	-89.876	0.246	0.071
-263.238	303.397	-0.145	-0.265
-262.224	-110.893	0.397	-0.080
-261.209	800.000	0.048	0.183
-260.195	231.733	-0.083	-0.134
-259.180	21.325	-0.175	0.140
-258.165	-149.974	-0.281	-0.022
-257.151	-135.471	0.092	0.011
-256.136	-86.648	0.373	0.113
-255.122	40.511	-0.064	0.057
-254.107	106.403	0.020	0.024
-253.092	-179.713	-0.126	-0.003
-252.078	437.873	0.131	0.281
-251.063	-47.233	0.156	0.075
-250.049	44.291	-0.069	0.063
-249.034	-200.000	0.009	0.252
-248.019	285.260	0.144	0.255
-247.005	282.551	0.187	0.330
-245.990	800.000	-0.033	-0.118
-244.976	313.180	-0.062	-0.114
-243.961	127.025	-0.102	0.127
-242.946	-6.675	0.194	-0.130
-241.932	-65.521	0.344	-0.136
-240.917	-83.963	0.334	-0.105
-239.903	-28.644	-0.160	0.091
-238.888	113.430	0.155	0.185
-237.873	27.154	-0.225	0.186
-236.859	-63.605	0.214	-0.087
-235.844	-17.433	0.084	-0.052
-234.830	-82.084	-0.144	0.046
-233.815	157.930	-0.122	-0.166
-232.800	-98.489	0.124	0.031
-231.786	576.098	-0.112	0.270
-230.771	-200.000	-0.020	0.252
-229.757	189.673	0.219	0.323
-228.742	577.653	0.068	0.163
-227.727	-16.555	-0.150	0.093
-226.713	-200.000	0.009	-0.074
-225.698	800.000	-0.023	0.088
-224.684	-200.000	-0.070	-0.433
-223.669	800.000	0.037	-0.140
-222.655	-200.000	0.283	0.001
-221.640	326.884	-0.118	-0.222
-220.625	74.522	-0.113	0.117
-219.611	-158.339	0.362	0.021
-218.596	416.335	-0.029	0.060
-217.582	316.963	-0.172	-0.319
-216.567	443.708	0.169	0.364
-215.552	45.560	-0.084	-0.077
-214.538	800.000	0.031	0.132
-213.523	-42.554	-0.280	0.141
-212.509	-165.183	0.208	-0.009
-211.494	-53.871	-0.178	-0.080
-210.479	-96.889	-0.292	0.075
-209.465	-200.000	0.057	-0.253
-208.450	76.847	-0.354	0.370
-207.436	-63.194	-0.158	-0.064
-206.421	-110.020	-0.261	-0.054
-205.406	81.373	-0.158	-0.168
-204.392	-200.000	-0.008	0.176
-203.377	120.624	-0.214	0.262
-202.363	-113.054	-0.083	-0.016
-201.348	-200.000	0.016	0.422
-200.333	188.532	0.118	0.173
-199.319	40.594	0.154	0.136
-198.304	-23.775	-0.238	0.140
-197.290	-48.424	0.139	0.066
-196.275	403.262	-0.102	-0.211
-195.260	-66.127	0.093	-0.037
-194.246	242.702	-0.134	0.221
-193.231	-118.255	0.129	0.023
-192.217	-25.591	0.142	-0.082
-191.202	313.394	-0.182	0.337
-190.187	-123.331	0.234	0.037
-189.173	800.000	-0.101	0.394
-188.158	-200.000	-0.042	-0.226
-187.144	-129.420	0.098	0.013
-186.129	-200.000	0.075	-0.595
-185.114	800.000	0.158	-0.475
-184.100	713.513	0.079	0.207
-183.085	-102.276	0.251	0.059
-182.071	-200.000	0.012	-0.323
-181.056	105.433	-0.123	-0.143
-180.042	-158.914	0.242	-0.014
-179.027	192.323	-0.077	-0.114
-178.012	-200.000	0.001	0.031
-176.998	-200.000	0.088	0.398
-175.983	-62.852	-0.138	0.056
-174.969	45.794	-0.356	0.323
-173.954	-12.842	-0.061	0.039
-172.939	-18.483	0.170	-0.104
-171.925	164.293	0.315	0.436
-170.910	-14.353	-0.103	0.065
-169.896	37.343	0.183	-0.159
-168.881	-10.098	-0.148	-0.096
-167.866	-90.996	0.105	0.030
-166.852	-63.526	0.199	-0.080
-165.837	-59.610	-0.160	-0.067
-164.823	-137.774	0.200	0.022
-163.808	-200.000	-0.024	0.284
-162.793	-50.102	-0.169	0.078
-161.779	251.506	0.013	-0.021
-160.764	48.404	-0.071	0.066
-159.750	273.311	0.261	0.453
-158.735	-200.000	0.015	0.195
-157.720	-200.000	0.019	-0.211
-156.706	-33.848	-0.166	-0.090
-155.691	-3.564	-0.118	-0.081
-154.677	-33.288	-0.269	0.146
-153.662	-200.000	0.026	0.141
-152.647	-200.000	0.018	-0.127
-151.633	387.157	-0.167	0.339
-150.618	-101.941	-0.378	0.090
-149.604	-200.000	0.022	0.134
-148.589	-89.137	-0.288	0.084
-147.574	-3.249	0.183	-0.125
-146.560	-52.300	-0.092	-0.042
-145.545	-200.000	0.002	-0.085
-144.531	-34.461	-0.062	-0.033
-143.516	-200.000	-0.053	0.238
-142.502	169.469	0.058	-0.081
-141.487	123.251	0.080	0.099
-140.472	559.481	-0.133	0.314
-139.458	-63.669	0.204	-0.082
-138.443	-200.000	-0.040	0.201
-137.429	800.000	0.126	0.366
-136.414	-200.000	-0.013	0.166
-135.399	484.239	0.082	-0.184
-134.385	-200.000	0.028	0.147
-133.370	-200.000	-0.109	0.000
-132.356	-121.436	0.298	0.049
-131.341	-56.962	0.322	-0.139
-130.326	-59.083	-0.275	-0.117
-129.312	146.850	-0.052	0.069
-128.297	-111.334	0.128	-0.026
-127.283	-200.000	-0.010	0.236
-126.268	-63.938	-0.196	0.078
-125.253	21.570	0.272	-0.217
-124.239	179.999	-0.045	-0.064
-123.224	800.000	0.011	-0.044
-122.210	-200.000	-0.040	0.202
-121.195	31.295	0.401	0.338
-120.180	-200.000	-0.001	0.301
-119.166	58.145	0.255	0.245
-118.151	354.735	0.055	-0.107
-117.137	-20.100	-0.109	-0.066
-116.122	127.225	0.108	0.134
-115.107	39.213	-0.271	-0.237
-114.093	-67.296	-0.136	-0.052
-113.078	-25.480	0.080	0.046
-112.064	-200.000	-0.010	0.181
-111.049	50.080	-0.155	-0.143
-110.034	21.323	0.128	-0.102
-109.020	-200.000	0.050	-0.244
-108.005	-10.859	-0.111	-0.072
-106.991	165.719	-0.119	0.164
-105.976	635.767	0.009	-0.022
-104.962	-98.573	0.109	-0.027
-103.947	-200.000	0.012	0.113
-102.932	407.662	-0.149	0.308
-101.918	-175.240	0.052	-0.001
-100.903	-42.648	-0.295	0.147
-99.889	172.088	0.046	0.065
-98.874	-137.377	-0.194	0.022
-97.859	-10.594	0.396	-0.256
-96.845	272.551	0.124	-0.214
-95.830	89.092	0.180	-0.196
-94.816	-7.263	0.160	-0.106
-93.801	159.488	-0.086	0.117
-92.786	-113.640	0.135	0.026
-91.772	41.379	-0.223	0.198
-90.757	168.138	0.154	0.215
-89.743	-200.000	-0.024	0.217
-88.728	800.000	-0.060	-0.218
-87.713	432.312	0.022	-0.046
-86.699	800.000	-0.085	0.251
-85.684	-157.052	-0.140	0.008
-84.670	266.782	-0.170	-0.292
-83.655	442.542	-0.045	0.097
-82.640	-159.502	0.139	-0.008
-81.626	161.582	0.142	-0.194
-80.611	-200.000	-0.010	0.426
-79.597	-200.000	-0.007	0.057
-78.582	-200.000	-0.003	0.170
-77.567	-200.000	-0.056	0.379
-76.553	-200.000	-0.002	0.112
-75.538	283.777	-0.092	-0.162
-74.524	-200.000	0.012	-0.206
-73.509	-123.542	-0.216	-0.034
-72.494	-140.974	-0.120	-0.012
-71.480	20.132	0.183	0.144
-70.465	-129.549	-0.231	0.031
-69.451	-127.743	0.189	0.027
-68.436	-74.206	-0.213	-0.076
-67.422	800.000	0.070	0.203
-66.407	2.705	-0.106	-0.075
-65.392	-200.000	-0.023	0.252
-64.378	-104.873	0.300	-0.067
-63.363	-200.000	-0.043	0.227
-62.349	-62.170	-0.082	0.033
-61.334	58.764	-1.078	-1.036
-60.319	34.356	0.789	0.673
-59.305	800.000	-0.383	-1.228
-58.290	510.568	0.563	1.282
-57.276	209.003	0.814	1.246
-56.261	-200.000	116.068	661.929
-55.246	538.254	1521.913	3537.689
-54.232	178.739	2688.823	3842.126
-53.217	108.823	2146.677	2508.811
-52.203	38.847	1589.126	1387.721
-51.188	30.504	1335.548	1116.374
-50.173	27.675	1297.681	1068.138
-49.159	55.247	1355.103	1281.033
-48.144	53.414	1369.403	1283.566
-47.130	30.780	1323.736	1107.965
-46.115	27.464	1306.050	1073.611
-45.100	27.093	1301.561	1067.695
-44.086	27.030	1298.951	1065.142
-43.071	27.061	1296.338	1063.143
-42.057	27.116	1294.098	1061.584
-41.042	27.129	1292.491	1060.295
-40.027	27.253	1291.131	1059.862
-39.013	27.191	1289.079	1057.775
-37.998	27.107	1287.541	1055.983
-36.984	27.227	1285.634	1055.075
-35.969	27.335	1283.678	1054.054
-34.954	27.254	1282.024	1052.183
-33.940	27.287	1281.087	1051.564
-32.925	27.397	1279.528	1050.878
-31.911	27.325	1277.865	1049.055
-30.896	27.302	1276.869	1048.064
-29.881	27.264	1275.816	1046.938
-28.867	27.374	1273.992	1046.036
-27.852	27.346	1272.586	1044.677
-26.838	27.316	1270.977	1043.139
-25.823	27.395	1269.752	1042.544
-24.809	27.373	1268.501	1041.353
-23.794	27.294	1267.380	1039.939
-22.779	27.308	1265.825	1038.704
-21.765	27.280	1265.156	1037.950
-20.750	27.249	1263.723	1036.559
-19.736	27.222	1262.969	1035.743
-18.721	27.363	1260.853	1034.770
-17.706	27.218	1260.161	1033.337
-16.692	27.290	1258.784	1032.575
-15.677	27.202	1258.286	1031.625
-14.663	27.298	1256.427	1030.608
-13.648	27.133	1256.189	1029.434
-12.633	27.127	1254.515	1027.990
-11.619	27.181	1253.962	1027.801
-10.604	27.105	1253.256	1026.750
-9.590	27.205	1251.901	1026.168
-8.575	27.235	1250.712	1025.321
-7.560	27.125	1250.194	1024.234
-6.546	27.237	1249.226	1024.034
-5.531	27.169	1248.577	1023.074
-4.517	27.348	1247.344	1023.030
-3.502	27.271	1246.512	1021.876
-2.487	27.191	1245.735	1020.751
-1.473	27.126	1241.792	1017.114
-0.458	25.536	1226.486	995.739
0.556	21.974	1209.989	956.320
1.571	18.283	1214.921	939.902
2.586	17.389	1229.428	946.073
3.600	16.907	1217.108	933.855
4.615	12.804	1146.274	858.105
5.629	6.133	1075.935	772.676
6.644	3.426	1057.624	746.367
7.659	3.036	1055.703	743.058
8.673	3.176	1054.472	742.802
9.688	3.163	1053.175	741.759
10.702	3.447	1050.924	741.474
11.717	7.188	1055.844	762.929
12.731	14.502	1066.206	805.813
13.746	19.091	1071.960	832.334
14.761	19.818	1072.690	836.343
15.775	19.032	1071.191	831.301
16.790	18.062	1068.972	824.826
17.804	17.309	1067.277	819.819
18.819	17.007	1066.224	817.481
19.834	16.827	1065.791	816.211
20.848	16.671	1065.244	814.970
21.863	16.580	1063.892	813.424
22.877	16.380	1063.333	811.963
23.892	16.336	1062.812	811.284
24.907	16.218	1062.269	810.231
25.921	16.447	1060.946	810.245
26.936	16.383	1059.621	808.859
27.950	16.410	1058.247	807.867
28.965	16.615	1056.603	807.516
29.980	16.650	1054.974	806.368
30.994	16.807	1054.214	806.461
32.009	16.747	1053.388	805.475
33.023	16.629	1052.547	804.197
34.038	16.564	1051.241	802.819
35.053	16.399	1050.644	801.511
36.067	16.433	1049.695	800.881
37.082	16.593	1048.402	800.578
38.096	16.560	1048.318	800.287
39.111	16.670	1047.250	799.921
40.126	16.470	1046.349	798.218
41.140	16.362	1043.997	795.844
42.155	16.147	1043.470	794.362
43.169	16.151	1042.432	793.517
44.184	16.148	1041.065	792.391
45.199	16.190	1040.344	791.970
46.213	16.272	1039.448	791.603
47.228	16.432	1038.694	791.709
48.242	16.463	1037.370	790.776
49.257	16.484	1036.489	790.132
50.271	16.572	1035.805	789.951
51.286	16.658	1034.769	789.494
52.301	16.535	1033.794	788.104
53.315	16.443	1032.737	786.802
54.330	16.308	1031.587	785.227
55.344	16.166	1031.032	784.075
56.359	16.296	1030.446	784.165
57.374	16.190	1029.261	782.701
58.388	16.167	1027.980	781.553
59.403	16.138	1027.432	780.931
60.417	16.187	1026.713	780.541
61.432	16.091	1026.102	779.566
62.447	15.997	1024.875	778.129
63.461	15.944	1024.251	777.344
64.476	16.063	1023.116	776.960
65.490	16.103	1021.816	776.090
66.505	15.990	1021.801	775.490
67.520	16.130	1020.798	775.304
68.534	16.163	1020.009	774.787
69.549	16.044	1019.224	773.577
70.563	16.048	1018.620	773.069
71.578	15.922	1017.689	771.715
72.593	15.902	1017.040	771.062
73.607	15.658	1016.588	769.537
74.622	15.911	1015.686	769.943
75.636	15.889	1015.229	769.426
76.651	15.989	1014.253	769.073
77.666	15.888	1013.858	768.246
78.680	15.980	1013.098	768.024
79.695	15.939	1012.781	767.525
80.709	16.125	1012.089	767.782
81.724	16.236	1011.384	767.682
82.739	16.288	1010.666	767.309
83.753	16.468	1010.148	767.664
84.768	16.642	1009.354	767.780
85.782	16.768	1008.480	767.621
86.797	16.655	1007.601	766.370
87.812	16.468	1006.641	764.725
88.826	16.601	1005.963	764.746
89.841	16.607	1004.907	763.901
90.855	16.629	1004.323	763.489
91.870	16.715	1003.421	763.127
92.884	16.631	1002.594	762.049
93.899	16.754	1001.284	761.541
94.914	16.853	1000.511	761.331
95.928	16.792	999.635	760.322
96.943	16.625	998.944	758.979
97.957	16.580	997.952	757.958
98.972	16.688	996.841	757.532
99.987	16.862	995.857	757.493
101.001	16.698	995.487	756.412
102.016	16.538	994.474	754.863
103.030	16.721	993.392	754.790
104.045	16.584	993.071	753.869
105.060	16.482	991.955	752.498
106.074	16.321	990.738	750.794
107.089	16.299	989.136	749.418
108.103	16.129	988.808	748.348
109.118	16.140	987.771	747.544
110.133	16.011	987.109	746.406
111.147	16.118	985.862	745.872
112.162	16.195	985.452	745.833
113.176	16.283	984.525	745.454
114.191	16.335	983.814	745.081
115.206	16.204	983.386	744.114
116.220	16.272	982.274	743.508
117.235	16.326	981.046	742.747
118.249	16.218	980.236	741.592
119.264	16.093	979.542	740.454
120.279	16.117	978.700	739.860
121.293	16.142	977.856	739.266
122.308	16.023	977.065	738.078
123.322	16.041	975.903	737.215
124.337	15.877	974.986	735.742
125.352	15.960	973.750	735.107
126.366	15.968	972.663	734.254
127.381	16.017	971.956	733.869
128.395	16.120	970.475	733.134
129.410	16.067	970.096	732.553
130.424	16.241	968.922	732.357
131.439	16.366	968.557	732.560
132.454	16.376	967.715	731.900
133.468	16.340	967.395	731.438
134.483	16.371	966.381	730.740
135.497	16.457	965.324	730.248
136.512	16.355	964.521	729.135
137.527	16.254	963.614	727.950
138.541	16.280	963.197	727.681
139.556	16.347	962.332	727.252
140.570	16.393	962.016	727.146
141.585	16.623	961.081	727.364
142.600	16.679	959.934	726.671
143.614	16.714	959.106	726.131
144.629	16.771	958.702	726.005
145.643	16.750	957.564	724.990
146.658	16.561	956.569	723.365
147.673	16.494	955.490	722.197
148.687	16.364	954.752	721.020
149.702	16.314	953.925	720.121
150.716	16.383	953.133	719.753
151.731	16.287	952.499	718.800
152.746	16.285	951.520	717.988
153.760	16.555	951.136	718.784
154.775	16.603	950.586	718.509
155.789	16.677	949.449	717.901
156.804	16.579	949.077	717.139
157.819	16.590	948.547	716.724
158.833	16.678	947.955	716.584
159.848	16.808	946.864	716.244
160.862	16.644	945.909	714.769
161.877	16.563	944.894	713.594
162.892	16.482	943.495	712.136
163.906	16.430	942.833	711.354
164.921	16.287	942.671	710.565
165.935	16.402	941.502	710.105
166.950	16.462	940.699	709.689
167.964	16.441	939.948	708.970
168.979	16.581	938.427	708.349
169.994	16.411	938.291	707.470
171.008	16.703	937.073	707.709
172.023	16.745	936.615	707.479
173.037	16.693	936.355	707.003
174.052	16.675	935.479	706.202
175.067	16.505	934.709	704.850
176.081	16.506	934.159	704.377
177.096	16.499	933.412	703.723
178.110	16.506	933.077	703.435
179.125	16.672	932.115	703.338
180.140	16.497	932.396	702.762
181.154	16.794	931.545	703.290
182.169	16.841	930.730	702.810
183.183	16.806	930.408	702.359
184.198	16.788	929.751	701.724
185.213	16.926	928.875	701.571
186.227	16.820	928.566	700.837
187.242	16.953	927.740	700.705
188.256	17.097	927.270	700.882
189.271	17.054	926.450	700.020
190.286	16.792	925.311	698.021
191.300	16.530	924.220	696.057
192.315	16.344	923.809	694.918
193.329	16.330	923.902	694.872
194.344	16.583	923.094	695.242
195.359	16.438	922.834	694.387
196.373	16.752	921.751	694.802
197.388	17.006	921.628	695.687
198.402	17.190	920.837	695.784
199.417	17.169	920.272	695.207
200.432	17.311	919.618	695.236
201.446	17.292	919.092	694.695
202.461	17.441	918.824	695.044
203.475	17.329	918.099	693.976
204.490	17.062	917.254	692.186
205.504	16.977	916.586	691.275
206.519	16.870	916.203	690.486
207.534	16.878	915.505	689.933
208.548	17.051	914.646	689.929
209.563	17.103	913.993	689.586
210.577	17.077	913.404	688.977
211.592	17.292	912.343	688.985
212.607	17.409	911.592	688.832
213.621	17.138	911.246	687.412
214.636	17.245	910.599	687.298
215.650	17.283	910.099	687.013
216.665	17.324	909.387	686.579
217.680	17.594	908.502	686.937
218.694	17.449	907.854	685.804
219.709	17.420	907.186	685.123
220.723	17.346	906.687	684.388
221.738	17.400	905.764	683.848
222.753	17.370	905.402	683.392
223.767	17.381	904.754	682.886
224.782	17.466	904.518	682.990
225.796	17.471	904.265	682.758
226.811	17.422	902.893	681.467
227.826	17.432	902.256	680.964
228.840	17.207	901.859	679.704
229.855	17.324	900.759	679.280
230.869	17.415	899.726	678.808
231.884	17.252	899.689	678.067
232.899	17.167	898.990	677.143
233.913	17.293	897.795	676.682
234.928	17.382	896.752	676.191
235.942	17.220	896.656	675.417
236.957	17.214	895.954	674.803
237.972	17.274	895.538	674.669
238.986	17.126	895.010	673.624
240.001	17.222	894.044	673.219
241.015	17.234	893.759	672.991
242.030	17.341	893.182	672.922
243.045	17.439	892.613	672.818
244.059	17.434	892.085	672.342
245.074	17.497	891.661	672.213
246.088	17.443	890.934	671.390
247.103	17.659	889.916	671.415
248.117	17.843	889.784	671.980
249.132	17.933	889.592	672.131
250.147	18.043	888.755	671.873
251.161	18.164	888.148	671.829
252.176	18.000	887.790	670.854
253.190	18.186	886.805	670.780
254.205	18.193	886.480	670.501
255.220	18.119	885.912	669.723
256.234	18.114	885.048	668.991
257.249	18.079	884.474	668.361
258.263	18.089	883.540	667.634
259.278	18.188	882.859	667.448
260.293	18.234	882.362	667.192
261.307	18.140	882.218	666.657
262.322	18.146	881.801	666.310
263.336	18.304	880.598	665.955
264.351	18.273	879.612	665.030
265.366	18.320	879.287	664.909
266.380	18.264	878.479	664.020
267.395	18.191	877.928	663.263
268.409	18.045	877.257	662.131
269.424	18.193	876.391	661.994
270.439	18.089	875.698	661.008
271.453	17.947	875.086	659.939
272.468	18.124	874.449	660.082
273.482	18.111	874.088	659.704
274.497	18.177	873.423	659.397
275.512	18.193	872.962	659.050
276.526	18.260	872.549	658.941
277.541	18.171	872.113	658.209
278.555	18.285	871.323	657.993
279.570	18.488	870.769	658.296
280.585	18.454	870.170	657.657
281.599	18.215	869.391	656.089
282.614	18.254	868.209	655.291
283.628	18.253	867.905	655.000
284.643	18.338	867.282	654.797
285.657	18.203	866.877	653.917
286.672	18.268	866.235	653.624
287.687	18.198	865.450	652.707
288.701	18.345	864.714	652.654
289.716	18.571	864.137	653.022
290.730	18.496	863.641	652.302
291.745	18.428	863.343	651.762
292.760	18.460	862.856	651.458
293.774	18.646	862.192	651.604
294.789	18.581	861.353	650.667
295.803	18.548	860.317	649.700
296.818	18.636	859.207	649.140
297.833	18.431	859.191	648.294
298.847	18.493	858.734	648.127
299.862	18.519	858.317	647.851
300.876	18.569	857.684	647.504
301.891	18.559	857.149	647.008
302.906	18.722	856.697	647.223
303.920	18.866	856.321	647.426
304.935	18.948	855.646	647.166
305.949	18.678	855.122	645.697
306.964	18.666	854.159	644.866
307.979	18.674	853.878	644.625
308.993	18.675	853.456	644.254
310.008	18.921	852.453	644.364
311.022	18.712	852.016	643.194
312.037	18.782	851.381	642.921
313.052	18.459	850.823	641.231
314.066	18.562	849.871	640.842
315.081	18.545	849.449	640.406
316.095	18.474	849.161	639.865
317.110	18.549	848.226	639.382
318.125	18.512	848.073	639.073
319.139	18.455	847.533	638.400
320.154	18.680	846.948	638.737
321.168	18.713	846.707	638.622
322.183	18.642	845.836	637.645
323.197	18.696	845.575	637.594
324.212	18.801	844.865	637.390
325.227	18.626	844.356	636.301
326.241	18.548	844.154	635.802
327.256	18.693	842.951	635.380
328.270	18.681	842.560	634.985
329.285	18.648	841.858	634.276
330.300	18.529	841.294	633.354
331.314	18.764	840.818	633.808
332.329	18.841	840.433	633.748
333.343	18.911	839.901	633.547
334.358	18.880	839.626	633.169
335.373	18.962	839.324	633.188
336.387	18.883	838.864	632.494
337.402	18.904	839.051	632.654
338.416	19.109	838.332	632.811
339.431	19.306	838.226	633.401
340.446	19.267	837.583	632.714
341.460	19.296	837.378	632.610
342.475	19.392	837.035	632.647
343.489	19.345	836.470	631.993
344.504	19.500	835.834	632.024
345.519	19.493	835.685	631.829
346.533	19.452	835.035	631.131
347.548	19.249	834.217	629.717
348.562	19.174	833.942	629.177
349.577	19.007	833.378	628.086
350.592	19.087	831.884	627.199
351.606	18.932	831.842	626.545
352.621	19.128	831.154	626.684
353.635	19.109	830.413	626.001
354.650	19.096	830.042	625.618
355.665	19.283	829.081	625.519
356.679	19.339	828.390	625.146
357.694	19.289	828.226	624.786
358.708	19.481	827.128	624.597
359.723	19.226	827.092	623.591
360.738	19.328	826.155	623.198
361.752	19.407	825.915	623.246
362.767	19.446	825.008	622.648
363.781	19.591	824.797	622.958
364.796	19.551	824.507	622.539
365.810	19.838	823.818	622.999
366.825	19.672	823.711	622.265
367.840	19.579	823.153	621.454
368.854	19.629	822.517	621.097
369.869	19.651	821.751	620.544
370.883	19.523	821.553	619.877
371.898	19.625	821.596	620.220
372.913	19.807	821.223	620.539
373.927	19.741	820.338	619.580
374.942	19.805	819.927	619.443
375.956	19.683	819.739	618.809
376.971	19.971	819.563	619.652
377.986	19.869	818.867	618.707
379.000	20.040	818.072	618.663
380.015	19.966	817.831	618.160
381.029	19.941	816.827	617.259
382.044	19.776	816.780	616.581
383.059	19.964	816.053	616.645
384.073	19.896	815.538	615.961
385.088	19.659	815.062	614.704
386.102	19.659	814.017	613.859
387.117	19.623	813.567	613.341
388.132	19.654	812.993	612.963
389.146	19.753	812.348	612.772
390.161	19.958	812.220	613.348
391.175	20.146	811.371	613.316
392.190	19.772	811.276	611.870
393.205	19.720	811.101	611.498
394.219	19.623	810.468	610.625
395.234	19.793	809.654	610.558
396.248	19.593	809.375	609.587
397.263	19.499	808.974	608.901
398.278	19.521	808.641	608.671
399.292	19.659	807.814	608.483
400.307	19.739	807.008	608.101
401.321	19.671	806.911	607.738
402.336	19.746	806.417	607.572
403.350	19.817	806.203	607.609
404.365	19.926	805.886	607.697
405.380	20.039	805.546	607.786
406.394	20.152	804.586	607.403
407.409	20.188	804.634	607.510
408.423	20.130	804.507	607.159
409.438	20.311	803.851	607.245
410.453	20.360	803.668	607.222
411.467	20.375	802.880	606.625
412.482	20.517	802.437	606.732
413.496	20.570	802.084	606.598
414.511	20.516	801.738	606.094
415.526	20.385	801.335	605.277
416.540	20.368	801.002	604.914
417.555	20.447	800.301	604.605
418.569	20.336	800.328	604.186
419.584	20.367	799.667	603.741
420.599	20.377	799.337	603.475
421.613	162.004	1372.692	1796.456
422.628	140.618	1456.220	1796.533
