DTS Sentinel unit serial number:	SN413079Multiplexer serial number:	ORYXHardware model number:	OX4-SRSoftware version number:	ORYX F/W v4.00 Oryx Data Collector v3.7.2.0data status	okinstallation	princeton_trtdifferential loss correction	single-endedforward channel	channel 1reverse channel	N/Adate	2019/09/12time	14:00:11forward acquisition time	60.00reverse acquisition time	0.00gamma	496.2192k internal	0.2293k external	0.2293temperature offset calibration	1.0054default loss term (dB/km)	0.3790temperature slope calibration	1.0000multiplexer offset coefficient	1.0000multiplexer slope coefficient	1.0000fibre end	0.00T internal ref (°C)	40.58T ext. ref 1 (°C)	2.20T ext. ref 2 (°C)	34.06length (m)	temperature (°C)	Stokes	anti-Stokes-747.200	-144.275	0.151	0.014
-746.185	213.540	-0.241	0.390
-745.171	-28.737	0.284	-0.167
-744.156	200.620	0.109	0.172
-743.142	-200.000	-0.003	-0.072
-742.127	-101.568	-0.229	-0.057
-741.112	-122.586	-0.183	-0.030
-740.098	800.000	-0.171	-0.512
-739.083	-79.065	-0.087	0.030
-738.069	612.719	-0.215	0.551
-737.054	-200.000	-0.020	0.248
-736.039	-12.691	-0.344	-0.229
-735.025	-100.566	-0.308	-0.078
-734.010	273.488	-0.049	0.089
-732.996	800.000	0.085	-0.281
-731.981	259.100	-0.063	0.112
-730.966	589.357	0.105	-0.264
-729.952	46.784	-0.250	0.238
-728.937	-118.134	-0.230	-0.042
-727.923	318.022	-0.080	0.155
-726.908	-172.369	0.083	-0.003
-725.894	-200.000	0.006	-0.165
-724.879	-129.734	0.130	0.018
-723.864	-42.384	-0.146	0.076
-722.850	229.268	-0.040	-0.066
-721.835	486.725	0.109	0.255
-720.821	-90.019	-0.055	-0.016
-719.806	-163.672	0.229	-0.011
-718.791	-200.000	0.053	-0.350
-717.777	250.944	-0.042	0.073
-716.762	800.000	0.133	-0.400
-715.748	-31.999	-0.082	-0.047
-714.733	-200.000	0.013	0.186
-713.718	800.000	-0.077	-0.326
-712.704	-23.883	-0.107	0.066
-711.689	800.000	0.058	0.192
-710.675	-52.473	-0.036	-0.017
-709.660	-120.987	-0.219	0.038
-708.645	-1.641	0.068	0.049
-707.631	-200.000	0.063	0.328
-706.616	192.560	-0.279	0.430
-705.602	271.946	-0.072	0.129
-704.587	800.000	0.099	-0.364
-703.572	90.176	0.046	-0.052
-702.558	800.000	0.027	-0.100
-701.543	800.000	-0.035	0.104
-700.529	-79.557	-0.167	-0.058
-699.514	30.973	0.208	0.182
-698.499	-124.542	-0.198	-0.031
-697.485	-65.795	0.061	-0.025
-696.470	-75.035	0.097	0.035
-695.456	-38.250	0.311	-0.168
-694.441	33.905	-0.196	0.174
-693.426	-125.995	-0.182	0.028
-692.412	-200.000	0.041	0.218
-691.397	-91.781	-0.192	0.056
-690.383	800.000	-0.097	-0.347
-689.368	485.457	0.135	-0.314
-688.354	4.872	0.078	0.058
-687.339	-174.521	-0.334	0.010
-686.324	-105.294	-0.096	0.022
-685.310	800.000	0.024	-0.078
-684.295	219.270	-0.075	0.123
-683.281	-200.000	0.024	0.378
-682.266	-180.268	0.334	-0.007
-681.251	-133.020	0.161	0.021
-680.237	-200.000	0.027	0.221
-679.222	-21.599	-0.141	-0.088
-678.208	-134.506	0.202	-0.025
-677.193	27.649	0.248	-0.213
-676.178	-17.127	-0.031	0.020
-675.164	800.000	0.046	-0.148
-674.149	62.241	0.335	0.341
-673.135	176.246	0.217	0.322
-672.120	36.245	0.247	0.222
-671.105	469.148	-0.069	-0.158
-670.091	-200.000	-0.006	-0.176
-669.076	-158.251	-0.123	-0.007
-668.062	-51.285	0.168	0.080
-667.047	-175.881	-0.275	-0.007
-666.032	-60.724	-0.306	-0.132
-665.018	323.261	0.082	-0.159
-664.003	-200.000	0.018	-0.288
-662.989	167.675	0.185	0.268
-661.974	-138.850	0.125	-0.014
-660.959	-200.000	0.009	-0.184
-659.945	505.966	0.046	-0.109
-658.930	-80.134	0.093	0.032
-657.916	-46.011	-0.239	-0.120
-656.901	236.449	0.070	-0.118
-655.886	-153.309	-0.104	0.007
-654.872	-26.587	0.373	-0.222
-653.857	-95.008	-0.136	0.038
-652.843	635.541	-0.152	0.393
-651.828	-43.051	-0.148	-0.077
-650.814	-81.617	0.217	-0.073
-649.799	-33.827	-0.113	-0.063
-648.784	800.000	0.116	-0.362
-647.770	-200.000	-0.036	-0.162
-646.755	211.752	-0.191	-0.307
-645.741	-200.000	0.022	-0.105
-644.726	295.517	0.257	-0.479
-643.711	-157.789	-0.235	0.014
-642.697	-54.671	-0.222	-0.102
-641.682	528.712	-0.219	0.527
-640.668	800.000	0.090	0.380
-639.653	53.666	-0.133	0.130
-638.638	-110.898	-0.392	-0.082
-637.624	-68.331	0.036	0.014
-636.609	-67.722	-0.476	-0.190
-635.595	-200.000	0.019	0.168
-634.580	56.928	0.075	0.074
-633.565	-80.999	-0.196	0.066
-632.551	-153.667	-0.202	0.014
-631.536	-64.734	0.108	-0.045
-630.522	800.000	0.064	-0.192
-629.507	109.594	-0.141	-0.172
-628.492	800.000	-0.043	-0.121
-627.478	365.137	0.093	-0.190
-626.463	-200.000	0.004	0.321
-625.449	0.773	-0.183	-0.134
-624.434	427.612	-0.120	-0.264
-623.419	-58.292	-0.106	-0.047
-622.405	-200.000	-0.037	0.176
-621.390	-90.680	-0.069	0.020
-620.376	130.819	0.134	0.175
-619.361	-133.827	-0.405	0.051
-618.346	152.754	-0.151	0.210
-617.332	91.875	0.196	-0.225
-616.317	800.000	-0.061	-0.233
-615.303	-147.714	-0.266	0.023
-614.288	-200.000	-0.046	-0.226
-613.273	800.000	-0.051	0.205
-612.259	-140.976	0.013	-0.001
-611.244	22.541	0.213	0.177
-610.230	-200.000	0.017	0.147
-609.215	70.529	0.283	0.298
-608.201	218.477	0.081	-0.132
-607.186	-200.000	0.165	0.000
-606.171	-138.852	0.074	-0.008
-605.157	-46.046	-0.016	0.008
-604.142	2.426	-0.214	0.157
-603.128	-200.000	0.027	0.332
-602.113	-200.000	-0.056	-0.514
-601.098	63.666	0.295	0.302
-600.084	-200.000	-0.054	0.299
-599.069	501.986	0.153	-0.359
-598.055	-142.254	0.046	-0.005
-597.040	800.000	-0.064	-0.268
-596.025	72.172	-0.342	-0.363
-595.011	800.000	-0.024	-0.108
-593.996	-133.985	-0.178	-0.022
-592.982	-120.717	0.318	-0.055
-591.967	-24.647	-0.162	-0.098
-590.952	-105.184	0.130	-0.030
-589.938	221.446	0.107	0.175
-588.923	-93.772	-0.353	-0.099
-587.909	-200.000	-0.027	-0.136
-586.894	800.000	0.085	-0.277
-585.879	-106.404	-0.163	0.037
-584.865	-53.740	-0.342	-0.159
-583.850	-200.000	0.009	0.415
-582.836	475.298	-0.062	-0.143
-581.821	-200.000	-0.029	0.143
-580.806	176.865	0.115	-0.169
-579.792	-68.593	0.326	-0.128
-578.777	800.000	0.053	0.203
-577.763	-200.000	0.018	-0.080
-576.748	304.903	0.176	-0.332
-575.733	112.147	0.218	-0.267
-574.719	-48.415	-0.111	0.054
-573.704	431.389	0.089	-0.195
-572.690	102.333	-0.165	-0.196
-571.675	195.823	0.257	-0.398
-570.661	-200.000	-0.034	0.337
-569.646	61.242	-0.231	0.233
-568.631	-106.176	0.270	-0.062
-567.617	-51.555	0.191	0.091
-566.602	-33.558	-0.213	0.119
-565.588	14.213	0.236	0.187
-564.573	374.044	0.093	0.192
-563.558	-200.000	0.073	0.386
-562.544	-200.000	-0.028	0.223
-561.529	-200.000	-0.034	0.380
-560.515	406.691	-0.216	-0.463
-559.500	-75.931	0.079	0.028
-558.485	142.611	0.155	-0.209
-557.471	166.488	0.066	-0.094
-556.456	-200.000	-0.061	0.426
-555.442	364.452	-0.027	-0.055
-554.427	-200.000	0.041	0.316
-553.412	-200.000	-0.060	0.279
-552.398	-200.000	-0.006	-0.344
-551.383	800.000	0.077	0.224
-550.369	-56.197	0.247	-0.112
-549.354	-88.789	0.223	-0.067
-548.339	-72.396	-0.109	-0.041
-547.325	-92.138	0.329	0.094
-546.310	-73.301	-0.095	-0.035
-545.296	85.784	-0.228	0.255
-544.281	-45.060	-0.165	0.083
-543.266	49.335	0.048	0.046
-542.252	56.119	0.179	-0.177
-541.237	-75.061	-0.310	0.113
-540.223	40.552	0.157	-0.144
-539.208	-58.062	0.101	0.045
-538.193	45.400	0.180	0.169
-537.179	113.284	0.089	-0.109
-536.164	-200.000	-0.026	-0.134
-535.150	-108.425	0.258	-0.056
-534.135	110.800	0.159	0.194
-533.121	317.739	-0.090	0.174
-532.106	18.356	-0.181	0.147
-531.091	800.000	-0.073	-0.236
-530.077	-200.000	0.102	-0.516
-529.062	-34.862	0.404	0.224
-528.048	-61.966	-0.224	0.095
-527.033	-60.057	-0.193	-0.084
-526.018	-180.565	0.122	-0.003
-525.004	-82.278	-0.091	-0.030
-523.989	169.053	-0.073	-0.106
-522.975	-200.000	0.036	0.167
-521.960	-124.952	0.538	-0.084
-520.945	138.292	0.076	-0.102
-519.931	347.479	0.159	0.318
-518.916	-14.958	0.062	-0.041
-517.902	40.770	0.113	0.103
-516.887	800.000	0.045	-0.129
-515.872	-200.000	-0.029	0.200
-514.858	-49.516	-0.239	0.115
-513.843	18.369	-0.144	-0.117
-512.829	180.456	0.156	-0.231
-511.814	-71.271	0.238	-0.090
-510.799	800.000	-0.026	-0.114
-509.785	199.560	0.094	-0.146
-508.770	-200.000	0.034	0.282
-507.756	-157.087	0.214	0.013
-506.741	16.364	0.198	-0.159
-505.726	-200.000	-0.014	-0.156
-504.712	-140.743	0.130	-0.014
-503.697	-200.000	0.022	0.301
-502.683	425.610	-0.140	0.305
-501.668	-61.196	0.214	-0.091
-500.653	-22.045	0.100	0.062
-499.639	-77.233	-0.120	0.042
-498.624	119.746	-0.136	0.171
-497.610	-77.359	-0.387	-0.136
-496.595	-158.570	-0.067	-0.004
-495.581	114.455	-0.177	-0.219
-494.566	186.291	-0.129	0.194
-493.551	-115.299	-0.146	0.028
-492.537	-200.000	-0.041	-0.281
-491.522	-84.758	-0.016	0.005
-490.508	-200.000	-0.019	0.259
-489.493	-11.199	0.057	-0.038
-488.478	-94.175	-0.389	-0.108
-487.464	-103.538	0.171	-0.041
-486.449	483.269	-0.121	-0.279
-485.435	-85.448	-0.370	-0.117
-484.420	-168.280	0.100	-0.004
-483.405	188.908	0.105	0.159
-482.391	-70.601	0.210	0.080
-481.376	800.000	0.010	-0.041
-480.362	-200.000	0.047	0.250
-479.347	-20.624	-0.202	-0.125
-478.332	-127.311	-0.057	0.008
-477.318	-73.010	0.258	-0.096
-476.303	714.845	0.129	0.346
-475.289	-61.821	0.281	0.119
-474.274	-177.041	-0.090	-0.002
-473.259	-183.494	-0.298	-0.005
-472.245	1.144	0.170	0.124
-471.230	-169.139	0.020	-0.001
-470.216	-60.873	0.173	0.074
-469.201	-200.000	-0.050	0.266
-468.186	800.000	0.039	-0.124
-467.172	-162.794	-0.081	0.004
-466.157	-142.110	-0.475	0.048
-465.143	311.961	0.193	0.367
-464.128	31.289	0.114	-0.099
-463.113	14.382	0.199	-0.157
-462.099	-63.532	-0.368	0.153
-461.084	151.036	0.057	0.078
-460.070	800.000	-0.074	-0.272
-459.055	-200.000	-0.257	0.001
-458.040	-200.000	0.025	0.378
-457.026	800.000	-0.063	0.230
-456.011	-8.302	-0.170	-0.116
-454.997	-99.271	0.054	-0.014
-453.982	-19.795	-0.224	-0.140
-452.968	-48.058	0.069	-0.034
-451.953	-121.668	0.381	0.064
-450.938	-200.000	0.004	0.232
-449.924	328.528	-0.055	-0.106
-448.909	93.261	0.039	-0.044
-447.895	-116.718	-0.063	-0.012
-446.880	-200.000	-0.020	-0.104
-445.865	-3.470	0.091	-0.064
-444.851	-192.649	0.464	-0.004
-443.836	118.800	-0.112	-0.140
-442.822	8.264	0.048	0.037
-441.807	241.053	0.145	0.245
-440.792	-200.000	-0.139	-0.001
-439.778	-90.311	-0.017	0.005
-438.763	-200.000	-0.030	-0.198
-437.749	-200.000	0.025	-0.251
-436.734	526.015	0.047	-0.112
-435.719	-80.643	-0.197	0.066
-434.705	145.059	0.194	-0.263
-433.690	455.250	0.131	0.293
-432.676	780.521	-0.134	0.370
-431.661	60.300	0.157	-0.157
-430.646	-152.571	-0.121	0.009
-429.632	126.520	-0.101	0.129
-428.617	204.094	0.107	0.168
-427.603	-25.127	0.147	0.088
-426.588	-200.000	0.009	-0.097
-425.573	800.000	0.104	0.356
-424.559	-200.000	-0.013	-0.090
-423.544	800.000	0.039	-0.150
-422.530	-200.000	-0.039	-0.219
-421.515	-99.433	-0.056	-0.014
-420.500	18.301	-0.179	-0.145
-419.486	-6.029	-0.273	0.188
-418.471	101.929	-0.084	-0.100
-417.457	373.887	0.153	-0.315
-416.442	-151.934	-0.286	-0.021
-415.428	-1.269	-0.028	-0.020
-414.413	-100.486	0.157	0.039
-413.398	-200.000	-0.033	0.196
-412.384	-46.445	-0.470	-0.233
-411.369	403.099	0.035	-0.075
-410.355	-113.348	-0.259	-0.051
-409.340	-27.690	-0.191	0.112
-408.325	-142.752	0.070	-0.007
-407.311	-58.065	0.368	-0.162
-406.296	-26.373	-0.116	0.069
-405.282	-68.257	-0.039	-0.015
-404.267	-80.571	-0.264	-0.089
-403.252	-16.206	-0.089	0.057
-402.238	115.912	0.045	-0.056
-401.223	354.167	0.081	0.162
-400.209	-200.000	0.006	-0.276
-399.194	319.404	0.042	-0.081
-398.179	224.322	-0.168	0.275
-397.165	-200.000	-0.035	0.228
-396.150	-200.000	-0.004	0.173
-395.136	-0.416	-0.129	0.092
-394.121	56.866	0.172	-0.169
-393.106	-1.147	-0.066	0.047
-392.092	-200.000	0.036	0.318
-391.077	-200.000	-0.001	-0.157
-390.063	-200.000	-0.004	-0.053
-389.048	-121.153	0.182	0.031
-388.033	-56.216	-0.108	0.049
-387.019	-200.000	0.038	-0.290
-386.004	179.473	-0.129	-0.191
-384.990	-122.618	-0.063	-0.010
-383.975	-105.336	-0.062	-0.014
-382.960	-172.292	-0.333	-0.011
-381.946	272.785	-0.072	-0.129
-380.931	-28.729	-0.101	-0.058
-379.917	-79.129	-0.206	0.071
-378.902	-200.000	-0.008	-0.200
-377.888	33.228	0.391	-0.342
-376.873	360.863	-0.111	0.224
-375.858	413.992	-0.125	0.268
-374.844	-57.646	0.157	0.069
-373.829	-34.932	-0.168	-0.092
-372.815	-200.000	0.048	-0.331
-371.800	-152.205	-0.278	0.020
-370.785	58.206	-0.093	-0.092
-369.771	195.239	0.209	0.320
-368.756	4.119	-0.066	-0.049
-367.742	-145.351	0.191	0.017
-366.727	27.729	0.093	-0.079
-365.712	434.607	0.050	-0.110
-364.698	-180.878	-0.274	0.006
-363.683	-200.000	0.001	0.257
-362.669	-197.389	-0.227	0.001
-361.654	-41.423	-0.215	-0.112
-360.639	-62.002	-0.095	0.040
-359.625	-200.000	-0.008	0.318
-358.610	28.232	-0.165	-0.140
-357.596	-200.000	0.010	0.109
-356.581	229.818	-0.153	0.251
-355.566	340.225	-0.110	0.216
-354.552	144.838	-0.087	0.118
-353.537	485.289	-0.178	0.409
-352.523	-33.480	0.412	-0.229
-351.508	215.143	-0.099	-0.157
-350.493	89.377	-0.018	0.020
-349.479	-114.119	0.205	0.040
-348.464	-129.613	0.223	-0.031
-347.450	-200.000	0.002	-0.157
-346.435	-200.000	0.001	0.034
-345.420	-110.792	0.245	0.051
-344.406	-61.842	0.292	0.123
-343.391	-200.000	0.075	0.000
-342.377	-173.647	0.338	0.010
-341.362	254.210	0.100	0.173
-340.348	399.750	0.107	0.226
-339.333	-200.000	-0.102	-0.456
-338.318	800.000	0.054	-0.195
-337.304	-82.929	0.141	0.046
-336.289	-68.657	-0.160	0.062
-335.275	221.650	0.074	-0.119
-334.260	-52.485	0.207	0.096
-333.245	-42.647	0.307	-0.157
-332.231	800.000	-0.056	-0.180
-331.216	800.000	0.054	-0.158
-330.202	-36.124	-0.183	0.099
-329.187	143.098	0.214	-0.286
-328.172	800.000	-0.087	0.286
-327.158	-200.000	-0.028	0.151
-326.143	-102.476	0.135	-0.032
-325.129	-13.880	-0.047	-0.031
-324.114	423.631	-0.055	-0.120
-323.099	-41.346	0.073	0.038
-322.085	-200.000	0.047	-0.422
-321.070	-62.622	-0.349	-0.146
-320.056	-200.000	-0.009	-0.126
-319.041	-200.000	0.019	-0.345
-318.026	-200.000	-0.013	0.349
-317.012	-17.285	0.072	0.046
-315.997	25.134	0.320	0.267
-314.983	-200.000	-0.006	-0.154
-313.968	622.957	0.136	-0.344
-312.953	13.858	0.202	-0.158
-311.939	-64.732	0.198	0.081
-310.924	-25.556	0.111	-0.066
-309.910	-200.000	0.009	-0.085
-308.895	259.025	-0.091	-0.158
-307.880	-72.352	0.256	0.095
-306.866	96.274	-0.153	-0.176
-305.851	-9.293	0.040	0.027
-304.837	263.129	0.193	0.337
-303.822	287.578	0.090	-0.163
-302.807	-20.485	-0.157	-0.097
-301.793	800.000	0.095	-0.271
-300.778	-28.903	0.348	0.201
-299.764	456.032	-0.171	0.382
-298.749	800.000	0.073	0.226
-297.735	270.865	0.057	-0.101
-296.720	-100.335	-0.062	0.016
-295.705	-190.809	0.228	-0.002
-294.691	150.437	0.115	-0.157
-293.676	-15.521	0.057	-0.037
-292.662	800.000	0.054	-0.168
-291.647	800.000	-0.125	0.398
-290.632	363.519	0.080	-0.162
-289.618	-200.000	0.066	0.487
-288.603	-93.153	0.074	0.021
-287.589	-200.000	-0.027	0.331
-286.574	-95.125	-0.422	0.114
-285.559	274.514	-0.151	0.268
-284.545	60.157	0.110	0.110
-283.530	-146.899	-0.116	0.010
-282.516	-5.256	-0.199	0.137
-281.501	-3.316	-0.280	-0.196
-280.486	757.614	0.091	0.247
-279.472	4.793	0.224	0.165
-278.457	24.152	-0.214	-0.178
-277.443	259.704	0.173	-0.299
-276.428	-25.862	0.174	-0.103
-275.413	606.845	-0.052	-0.131
-274.399	-200.000	0.021	0.193
-273.384	-200.000	-0.019	0.219
-272.370	-60.713	-0.264	-0.112
-271.355	-20.847	0.261	-0.161
-270.340	255.317	-0.193	0.332
-269.326	-2.312	0.097	-0.069
-268.311	-87.010	-0.170	-0.052
-267.297	13.418	0.383	0.298
-266.282	337.578	-0.046	-0.090
-265.267	-200.000	-0.046	-0.367
-264.253	-118.986	-0.124	0.022
-263.238	-48.139	-0.236	-0.115
-262.224	78.986	0.266	0.286
-261.209	556.708	0.017	-0.040
-260.195	-158.998	-0.386	0.022
-259.180	-57.931	0.307	-0.134
-258.165	800.000	0.080	-0.249
-257.151	-55.652	-0.145	0.065
-256.136	-200.000	0.053	0.233
-255.122	-151.099	-0.188	-0.014
-254.107	-106.678	0.423	0.094
-253.092	97.508	-0.134	0.154
-252.078	-200.000	0.057	0.269
-251.063	1.804	0.161	-0.116
-250.049	-200.000	0.001	0.043
-249.034	800.000	0.018	-0.059
-248.019	304.175	-0.161	0.299
-247.005	377.086	-0.015	-0.030
-245.990	-115.553	-0.197	0.037
-244.976	42.599	-0.293	-0.268
-243.961	800.000	-0.010	-0.033
-242.946	-74.615	0.205	-0.074
-241.932	800.000	-0.054	0.180
-240.917	-11.719	-0.171	0.113
-239.903	-136.486	0.218	-0.025
-238.888	144.632	0.048	-0.064
-237.873	486.818	0.124	0.283
-236.859	35.062	-0.172	-0.151
-235.844	-76.697	-0.302	-0.106
-234.830	72.170	0.254	-0.265
-233.815	-31.755	-0.032	0.018
-232.800	-200.000	0.004	0.233
-231.786	-200.000	-0.059	0.306
-230.771	-200.000	0.008	-0.109
-229.757	186.124	0.171	-0.255
-228.742	566.355	-0.037	-0.091
-227.727	240.997	0.235	-0.394
-226.713	52.650	-0.174	-0.167
-225.698	403.784	0.102	-0.215
-224.684	138.410	-0.318	0.419
-223.669	-117.376	-0.228	-0.041
-222.655	-85.922	-0.351	-0.109
-221.640	8.791	-0.190	0.144
-220.625	-200.000	-0.021	-0.132
-219.611	-200.000	-0.018	-0.311
-218.596	231.387	-0.098	0.160
-217.582	-200.000	-0.008	0.131
-216.567	-117.624	-0.131	-0.024
-215.552	233.584	0.174	-0.287
-214.538	-107.964	0.191	-0.042
-213.523	-200.000	-0.073	-0.326
-212.509	778.660	0.100	-0.274
-211.494	800.000	0.075	0.237
-210.479	231.538	0.151	0.248
-209.465	-16.043	-0.369	0.235
-208.450	-101.062	-0.440	-0.108
-207.436	-200.000	-0.046	0.308
-206.421	800.000	0.115	0.425
-205.406	800.000	-0.035	-0.129
-204.392	-200.000	0.060	-0.328
-203.377	-93.330	0.369	0.103
-202.363	382.280	0.142	0.292
-201.348	126.907	0.216	0.274
-200.333	43.964	-0.057	-0.052
-199.319	-23.481	-0.177	-0.106
-198.304	27.856	0.026	0.022
-197.290	-150.902	-0.080	0.006
-196.275	117.880	0.118	-0.146
-195.260	-200.000	-0.018	-0.174
-194.246	-189.273	0.372	0.004
-193.231	-47.522	-0.202	0.098
-192.217	-200.000	-0.034	-0.293
-191.202	29.672	0.149	-0.127
-190.187	-113.226	0.200	-0.039
-189.173	-84.024	-0.153	0.049
-188.158	789.599	0.022	0.061
-187.144	800.000	0.030	0.106
-186.129	159.868	-0.144	0.201
-185.114	-200.000	-0.082	0.361
-184.100	-200.000	0.055	-0.259
-183.085	-143.320	0.418	-0.040
-182.071	18.993	0.051	0.041
-181.056	67.297	0.207	0.211
-180.042	-8.411	-0.115	0.078
-179.027	-53.264	0.049	0.022
-178.012	788.904	0.041	0.112
-176.998	122.826	-0.118	0.148
-175.983	-200.000	0.007	-0.229
-174.969	-178.091	0.514	-0.012
-173.954	-200.000	-0.027	-0.159
-172.939	800.000	0.045	-0.157
-171.925	800.000	-0.044	0.143
-170.910	-4.666	0.175	0.121
-169.896	193.283	-0.073	-0.110
-168.881	121.759	0.171	-0.213
-167.866	-110.740	-0.380	-0.078
-166.852	-93.095	-0.017	0.005
-165.837	-106.460	0.217	0.048
-164.823	-11.649	0.274	-0.180
-163.808	-18.841	0.310	0.193
-162.793	-178.308	0.178	-0.004
-161.779	27.895	0.060	-0.050
-160.764	40.882	-0.168	0.152
-159.750	800.000	-0.036	-0.135
-158.735	-200.000	0.013	-0.125
-157.720	19.112	-0.187	0.150
-156.706	47.592	-0.156	0.145
-155.691	-200.000	0.013	-0.107
-154.677	-11.763	-0.265	-0.174
-153.662	800.000	0.083	-0.304
-152.647	-52.564	-0.125	-0.058
-151.633	-155.100	-0.169	0.011
-150.618	116.933	-0.152	0.186
-149.604	-200.000	-0.009	0.298
-148.589	41.107	-0.207	-0.187
-147.574	-200.000	-0.006	0.097
-146.560	-146.796	0.143	-0.012
-145.545	-200.000	0.051	-0.387
-144.531	-85.145	0.576	0.180
-143.516	100.553	0.233	0.271
-142.502	-84.158	-0.336	0.107
-141.487	-200.000	-0.018	0.231
-140.472	-200.000	-0.004	0.380
-139.458	-64.114	0.561	-0.229
-138.443	-49.685	-0.069	-0.033
-137.429	-75.157	-0.055	0.020
-136.414	-91.864	-0.074	-0.021
-135.399	-166.139	-0.271	-0.011
-134.385	10.842	-0.161	0.122
-133.370	-187.135	-0.047	-0.001
-132.356	-7.042	-0.114	-0.077
-131.341	-29.974	-0.245	0.139
-130.326	443.778	0.096	0.211
-129.312	-126.746	0.120	-0.018
-128.297	43.914	0.117	0.107
-127.283	-90.768	-0.318	0.092
-126.268	459.423	0.088	0.195
-125.253	800.000	0.109	-0.307
-124.239	234.733	0.027	-0.044
-123.224	-100.660	-0.249	0.061
-122.210	48.120	-0.258	-0.241
-121.195	-11.755	0.162	0.106
-120.180	-110.882	0.245	0.050
-119.166	800.000	0.106	0.391
-118.151	-59.177	0.039	0.017
-117.137	800.000	-0.076	-0.300
-116.122	467.161	0.067	-0.149
-115.107	163.347	0.104	0.146
-114.093	163.463	0.089	-0.125
-113.078	-123.415	-0.172	-0.027
-112.064	-121.575	0.488	-0.081
-111.049	-48.048	0.359	-0.173
-110.034	-26.521	-0.047	0.027
-109.020	800.000	0.073	-0.210
-108.005	-45.762	-0.183	0.090
-106.991	-85.089	-0.163	-0.051
-105.976	423.846	-0.052	-0.112
-104.962	-200.000	0.012	0.143
-103.947	79.396	0.024	0.026
-102.932	-168.368	-0.133	-0.005
-101.918	-68.456	0.207	-0.080
-100.903	110.877	0.160	-0.193
-99.889	-133.218	0.376	-0.047
-98.874	-113.154	0.239	0.047
-97.859	724.284	0.071	-0.189
-96.845	-146.489	-0.228	0.020
-95.830	-200.000	-0.004	0.090
-94.816	800.000	-0.073	0.223
-93.801	410.461	0.063	-0.134
-92.786	-200.000	-0.001	0.148
-91.772	196.694	0.119	0.180
-90.757	298.156	-0.079	0.145
-89.743	-36.652	-0.128	0.069
-88.728	-36.848	-0.112	-0.060
-87.713	326.786	0.052	-0.099
-86.699	-150.361	0.184	-0.014
-85.684	800.000	-0.059	-0.182
-84.670	-136.924	-0.177	0.020
-83.655	362.570	0.061	0.121
-82.640	-120.332	0.174	-0.030
-81.626	-70.512	0.291	0.110
-80.611	-129.889	-0.581	-0.079
-79.597	457.256	-0.124	-0.275
-78.582	370.328	0.138	-0.278
-77.567	-15.700	0.231	0.147
-76.553	-114.997	0.147	0.028
-75.538	-28.940	0.151	0.086
-74.524	-162.331	-0.289	0.014
-73.509	2.566	0.183	0.132
-72.494	60.929	0.155	0.153
-71.480	800.000	0.089	-0.374
-70.465	800.000	-0.042	-0.167
-69.451	800.000	0.023	-0.074
-68.436	364.168	-0.045	0.090
-67.422	-200.000	-0.014	-0.135
-66.407	232.436	-0.048	-0.078
-65.392	-79.704	0.118	-0.040
-64.378	121.949	-0.118	-0.147
-63.363	-66.046	0.310	0.123
-62.349	-79.077	-0.194	0.066
-61.334	2.120	-0.777	-0.559
-60.319	113.109	0.199	0.241
-59.305	-200.000	-0.024	-0.742
-58.290	105.480	0.668	0.786
-57.276	467.886	0.756	1.690
-56.261	-200.000	77.434	511.873
-55.246	511.408	1328.913	3081.107
-54.232	147.989	2554.223	3430.954
-53.217	115.583	2225.457	2709.571
-52.203	52.066	1677.889	1592.037
-51.188	44.289	1405.471	1284.575
-50.173	40.810	1360.081	1221.696
-49.159	59.014	1396.005	1367.367
-48.144	65.654	1415.083	1427.181
-47.130	44.757	1376.987	1261.239
-46.115	40.723	1360.687	1221.507
-45.100	40.492	1355.952	1215.791
-44.086	40.356	1353.659	1212.856
-43.071	40.303	1351.251	1210.325
-42.057	40.460	1348.620	1208.880
-41.042	40.524	1346.888	1207.669
-40.027	40.487	1345.359	1206.022
-39.013	40.512	1343.424	1204.395
-37.998	40.413	1342.085	1202.547
-36.984	40.519	1339.811	1201.100
-35.969	40.601	1338.081	1200.002
-34.954	40.582	1336.336	1198.276
-33.940	40.509	1335.489	1197.028
-32.925	40.688	1333.455	1196.236
-31.911	40.775	1331.852	1195.271
-30.896	40.744	1330.539	1193.862
-29.881	40.745	1328.951	1192.395
-28.867	40.699	1327.941	1191.165
-27.852	40.718	1326.063	1189.548
-26.838	40.664	1325.089	1188.302
-25.823	40.587	1323.665	1186.520
-24.809	40.663	1321.987	1185.421
-23.794	40.647	1320.581	1184.015
-22.779	40.613	1319.381	1182.689
-21.765	40.718	1317.952	1181.986
-20.750	40.603	1316.823	1180.245
-19.736	40.572	1315.028	1178.404
-18.721	40.504	1314.200	1177.213
-17.706	40.589	1312.948	1176.551
-16.692	40.526	1311.433	1174.771
-15.677	40.601	1310.313	1174.166
-14.663	40.537	1309.487	1172.999
-13.648	40.461	1308.958	1172.027
-12.633	40.555	1307.350	1171.097
-11.619	40.473	1306.895	1170.160
-10.604	40.530	1305.529	1169.227
-9.590	40.533	1304.645	1168.404
-8.575	40.521	1303.653	1167.403
-7.560	40.513	1303.040	1166.758
-6.546	40.504	1301.896	1165.634
-5.531	40.478	1301.056	1164.683
-4.517	40.636	1299.582	1164.244
-3.502	40.501	1299.197	1163.060
-2.487	40.533	1298.078	1162.203
-1.473	40.646	1293.768	1158.959
-0.458	38.909	1278.565	1135.255
0.556	34.734	1257.519	1088.502
1.571	30.318	1260.930	1066.059
2.586	29.008	1276.011	1071.094
3.600	27.727	1265.569	1054.834
4.615	20.220	1187.794	949.016
5.629	8.165	1104.225	820.490
6.644	2.615	1080.323	774.663
7.659	2.156	1077.514	770.266
8.673	2.025	1075.844	768.347
9.688	1.995	1074.632	767.261
10.702	2.142	1073.856	767.375
11.717	9.114	1083.690	809.588
12.731	20.110	1100.049	877.734
13.746	25.151	1105.565	907.638
14.761	25.566	1105.912	909.945
15.775	25.521	1106.148	909.832
16.790	25.288	1104.854	907.506
17.804	25.143	1104.464	906.374
18.819	25.430	1103.616	907.047
19.834	25.640	1103.121	907.622
20.848	25.516	1102.828	906.676
21.863	25.517	1102.059	905.966
22.877	25.431	1101.559	905.042
23.892	25.383	1101.101	904.343
24.907	25.405	1100.167	903.608
25.921	25.410	1098.766	902.402
26.936	25.410	1097.530	901.309
27.950	25.286	1096.043	899.383
28.965	25.354	1094.005	897.975
29.980	25.253	1092.998	896.559
30.994	25.486	1091.828	896.686
32.009	25.514	1090.686	895.806
33.023	25.312	1089.560	893.797
34.038	25.346	1089.050	893.469
35.053	25.524	1088.306	893.663
36.067	25.454	1087.777	892.806
37.082	25.468	1086.696	891.906
38.096	25.776	1085.930	892.728
39.111	25.717	1085.730	892.191
40.126	25.549	1084.186	890.011
41.140	25.121	1082.162	886.159
42.155	25.025	1081.264	884.871
43.169	25.073	1079.950	883.952
44.184	25.019	1079.036	882.863
45.199	25.003	1077.860	881.743
46.213	24.958	1077.766	881.365
47.228	25.328	1076.458	882.033
48.242	25.397	1075.472	881.486
49.257	25.362	1074.921	880.787
50.271	25.540	1074.038	880.856
51.286	25.477	1073.363	879.919
52.301	25.523	1072.382	879.261
53.315	25.423	1071.864	878.266
54.330	25.499	1070.510	877.453
55.344	25.399	1069.965	876.442
56.359	25.395	1069.239	875.746
57.374	25.115	1068.525	873.724
58.388	25.213	1067.191	873.030
59.403	25.054	1066.774	871.840
60.417	25.027	1065.483	870.577
61.432	24.986	1065.163	870.039
62.447	25.169	1064.687	870.460
63.461	25.168	1064.045	869.854
64.476	25.099	1062.685	868.333
65.490	25.021	1061.900	867.237
66.505	25.102	1061.132	866.922
67.520	25.259	1060.492	867.081
68.534	24.989	1059.554	864.935
69.549	24.608	1058.319	862.012
70.563	24.684	1057.579	861.701
71.578	24.673	1056.541	860.725
72.593	24.449	1056.041	859.166
73.607	24.658	1055.106	859.332
74.622	24.838	1055.028	860.056
75.636	24.892	1054.129	859.506
76.651	24.746	1053.144	857.927
77.666	24.709	1052.307	856.992
78.680	24.813	1051.752	856.962
79.695	24.940	1051.168	857.020
80.709	24.969	1050.786	856.769
81.724	25.027	1049.855	856.213
82.739	25.176	1048.678	855.889
83.753	25.353	1048.578	856.576
84.768	25.680	1047.464	857.145
85.782	25.888	1046.696	857.434
86.797	25.847	1045.556	856.227
87.812	25.595	1044.694	854.248
88.826	25.564	1044.355	853.752
89.841	25.635	1043.410	853.237
90.855	25.693	1042.520	852.712
91.870	25.598	1041.807	851.601
92.884	25.504	1040.081	849.673
93.899	25.364	1039.246	848.254
94.914	25.768	1038.395	849.387
95.928	25.486	1037.487	847.244
96.943	25.259	1036.079	844.947
97.957	24.913	1035.318	842.627
98.972	24.899	1033.832	841.278
99.987	25.158	1033.013	841.752
101.001	25.326	1032.689	842.202
102.016	25.319	1031.713	841.295
103.030	25.306	1030.573	840.233
104.045	25.120	1029.546	838.453
105.060	25.051	1028.319	837.056
106.074	25.170	1028.194	837.434
107.089	25.520	1027.765	838.646
108.103	25.316	1026.381	836.491
109.118	25.116	1025.217	834.535
110.133	25.103	1023.827	833.270
111.147	24.760	1023.112	831.022
112.162	24.854	1021.859	830.370
113.176	25.178	1020.991	831.091
114.191	24.947	1020.511	829.558
115.206	24.700	1019.318	827.369
116.220	24.611	1018.390	826.134
117.235	24.768	1017.969	826.441
118.249	24.884	1016.910	826.047
119.264	24.752	1015.845	824.501
120.279	24.675	1015.259	823.596
121.293	24.853	1014.303	823.568
122.308	24.888	1013.373	822.900
123.322	24.785	1012.066	821.291
124.337	24.635	1011.058	819.713
125.352	24.213	1008.951	816.000
126.366	24.156	1008.361	815.190
127.381	24.746	1008.815	818.184
128.395	25.236	1008.207	819.861
129.410	25.456	1007.087	819.882
130.424	25.451	1005.969	818.876
131.439	25.262	1005.809	817.812
132.454	25.277	1004.467	816.715
133.468	25.259	1003.035	815.398
134.483	25.404	1002.656	815.674
135.497	25.598	1002.197	816.109
136.512	25.615	1001.442	815.501
137.527	25.687	1000.478	814.968
138.541	25.653	999.987	814.341
139.556	25.591	999.132	813.294
140.570	25.632	998.860	813.186
141.585	25.748	997.440	812.480
142.600	25.615	996.466	811.017
143.614	25.937	995.348	811.487
144.629	25.920	995.005	811.056
145.643	25.835	993.803	809.626
146.658	25.580	992.186	807.092
147.673	25.593	991.022	806.129
148.687	25.412	990.126	804.520
149.702	25.445	988.654	803.399
150.716	25.434	987.774	802.565
151.731	25.615	987.323	802.937
152.746	25.714	987.022	803.062
153.760	25.849	986.478	803.150
154.775	25.964	986.083	803.270
155.789	25.713	985.370	801.498
156.804	25.825	983.517	800.421
157.819	25.746	983.388	799.891
158.833	25.982	982.655	800.273
159.848	25.912	981.761	799.166
160.862	25.710	980.586	797.243
161.877	25.678	979.522	796.167
162.892	25.754	978.435	795.547
163.906	25.703	977.620	794.587
164.921	25.731	976.747	793.935
165.935	25.804	975.862	793.467
166.950	25.791	974.673	792.370
167.964	25.792	973.918	791.690
168.979	25.555	973.169	789.971
169.994	25.538	971.822	788.732
171.008	25.821	971.464	789.614
172.023	25.860	970.507	788.939
173.037	25.607	969.476	786.923
174.052	25.400	968.775	785.377
175.067	25.395	968.441	785.018
176.081	25.585	967.926	785.357
177.096	25.494	966.874	784.040
178.110	25.199	966.103	782.060
179.125	24.981	965.276	780.371
180.140	25.039	965.035	780.361
181.154	25.354	964.415	781.160
182.169	25.454	964.792	781.833
183.183	25.776	963.978	782.499
184.198	25.573	962.821	780.611
185.213	25.630	961.867	780.017
186.227	25.794	961.138	780.066
187.242	25.773	960.797	779.631
188.256	25.866	959.901	779.238
189.271	25.881	959.137	778.614
190.286	25.457	958.207	775.957
191.300	24.833	956.570	771.872
192.315	24.136	954.780	767.359
193.329	23.917	954.581	766.188
194.344	24.878	955.526	771.018
195.359	25.596	955.114	773.709
196.373	25.586	954.834	773.370
197.388	25.611	953.911	772.662
198.402	25.478	953.584	771.758
199.417	25.576	952.888	771.546
200.432	25.415	951.584	769.732
201.446	25.362	950.813	768.812
202.461	25.297	950.405	768.138
203.475	24.440	948.842	763.144
204.490	23.644	946.760	758.004
205.504	24.562	947.734	762.638
206.519	25.137	947.581	764.901
207.534	25.229	947.057	764.804
208.548	25.604	946.998	766.285
209.563	25.367	946.212	764.571
210.577	25.497	945.062	764.128
211.592	25.834	945.672	765.988
212.607	25.771	944.255	764.504
213.621	26.006	943.381	764.727
214.636	25.858	942.696	763.476
215.650	25.807	942.123	762.729
216.665	25.811	941.489	762.164
217.680	25.807	940.980	761.667
218.694	25.499	939.438	759.052
219.709	25.247	938.617	757.260
220.723	25.565	938.440	758.389
221.738	25.504	938.058	757.759
222.753	25.435	937.412	756.878
223.767	25.600	937.058	757.221
224.782	25.971	936.800	758.504
225.796	25.873	935.848	757.254
226.811	25.311	934.405	753.661
227.826	24.512	933.114	749.204
228.840	24.721	932.650	749.640
229.855	24.828	932.093	749.573
230.869	24.371	931.282	746.943
231.884	24.799	931.060	748.491
232.899	25.632	931.342	752.135
233.913	25.549	930.470	751.017
234.928	25.557	929.676	750.342
235.942	25.408	929.113	749.202
236.957	25.121	928.202	747.204
237.972	25.001	927.959	746.443
238.986	25.210	927.221	746.654
240.001	25.183	927.022	746.316
241.015	25.280	926.275	746.051
242.030	25.541	925.424	746.383
243.045	25.664	924.699	746.241
244.059	25.632	925.126	746.386
245.074	25.488	924.109	744.905
246.088	25.273	922.782	742.877
247.103	25.483	922.431	743.400
248.117	25.992	922.863	745.788
249.132	26.291	921.976	746.238
250.147	26.273	921.759	745.924
251.161	26.532	921.443	746.671
252.176	26.543	920.443	745.838
253.190	26.504	920.047	745.291
254.205	26.842	919.349	746.053
255.220	26.653	918.682	744.665
256.234	26.666	917.694	743.855
257.249	26.488	916.923	742.431
258.263	26.427	916.371	741.670
259.278	26.421	915.904	741.200
260.293	26.562	915.689	741.539
261.307	26.462	914.427	740.044
262.322	26.239	913.994	738.715
263.336	25.620	911.848	734.390
264.351	24.527	909.958	728.345
265.366	24.569	909.697	728.242
266.380	25.708	910.268	733.281
267.395	26.219	909.878	734.980
268.409	26.068	909.332	733.860
269.424	26.317	909.001	734.543
270.439	26.436	908.113	734.243
271.453	26.425	907.480	733.620
272.468	26.649	907.536	734.510
273.482	26.663	907.126	734.170
274.497	26.128	905.762	730.834
275.512	25.860	904.614	728.760
276.526	26.144	905.251	730.358
277.541	26.431	904.460	730.815
278.555	26.177	903.815	729.203
279.570	26.078	902.804	727.925
280.585	26.227	902.050	727.851
281.599	26.327	900.853	727.224
282.614	25.700	899.597	723.625
283.628	25.524	899.725	722.958
284.643	25.975	899.015	724.136
285.657	25.590	897.894	721.623
286.672	25.285	897.404	719.942
287.687	25.690	897.494	721.575
288.701	25.822	896.865	721.534
289.716	25.544	895.787	719.490
290.730	25.690	895.046	719.414
291.745	25.272	894.342	717.118
292.760	25.469	894.308	717.813
293.774	26.605	894.587	722.507
294.789	26.826	894.179	722.999
295.803	26.940	893.675	722.977
296.818	26.949	892.951	722.366
297.833	26.474	891.810	719.491
298.847	26.255	891.579	718.368
299.862	26.515	891.561	719.324
300.876	26.948	890.741	720.318
301.891	26.781	890.079	719.059
302.906	26.359	889.103	716.533
303.920	26.461	889.014	716.804
304.935	26.824	888.447	717.717
305.949	26.871	888.105	717.565
306.964	26.619	886.919	715.547
307.979	26.671	886.205	715.111
308.993	27.057	886.426	716.752
310.008	26.918	885.643	715.506
311.022	26.653	884.965	713.852
312.037	26.575	884.557	713.152
313.052	26.315	883.002	710.814
314.066	25.552	881.247	706.340
315.081	25.063	880.747	703.959
316.095	25.836	881.457	707.500
317.110	26.427	881.463	709.762
318.125	25.578	880.208	705.361
319.139	24.476	878.284	699.442
320.154	24.566	877.779	699.332
321.168	25.389	878.405	702.988
322.183	26.052	878.438	705.547
323.197	26.279	878.272	706.239
324.212	26.549	877.899	706.930
325.227	26.561	877.416	706.525
326.241	26.380	876.280	704.843
327.256	26.425	875.369	704.222
328.270	26.231	875.008	703.115
329.285	26.084	873.811	701.520
330.300	25.926	873.112	700.284
331.314	26.196	872.883	701.087
332.329	26.619	872.871	702.655
333.343	26.698	872.520	702.620
334.358	26.710	872.110	702.273
335.373	26.762	871.980	702.308
336.387	26.958	871.900	702.937
337.402	27.155	871.793	703.552
338.416	27.047	871.116	702.529
339.431	27.157	871.279	703.022
340.446	27.363	870.733	703.316
341.460	27.080	870.424	701.908
342.475	27.066	869.453	701.012
343.489	27.126	869.081	700.881
344.504	27.483	868.817	701.980
345.519	27.572	868.764	702.220
346.533	27.556	868.214	701.653
347.548	27.519	867.318	700.723
348.562	27.573	866.645	700.327
349.577	27.473	866.265	699.571
350.592	27.465	865.451	698.823
351.606	27.324	864.739	697.643
352.621	27.242	864.241	696.867
353.635	27.130	863.495	695.773
354.650	26.543	861.754	692.068
355.665	25.682	860.230	687.493
356.679	26.167	859.946	689.055
357.694	26.528	859.397	689.931
358.708	26.542	858.569	689.262
359.723	26.903	858.743	690.715
360.738	27.142	858.519	691.383
361.752	27.161	858.441	691.329
362.767	27.570	857.768	692.280
363.781	27.788	857.444	692.785
364.796	27.935	857.226	693.108
365.810	27.809	856.915	692.315
366.825	27.977	855.959	692.119
367.840	27.550	855.366	689.960
368.854	27.080	854.695	687.581
369.869	27.172	854.253	687.513
370.883	27.267	853.586	687.275
371.898	27.200	852.878	686.390
372.913	27.173	853.116	686.417
373.927	27.267	852.614	686.309
374.942	27.519	851.869	686.598
375.956	27.628	851.438	686.599
376.971	27.656	851.090	686.364
377.986	28.030	850.685	687.383
379.000	27.807	850.299	686.175
380.015	27.701	849.695	685.226
381.029	27.595	849.405	684.535
382.044	27.816	848.369	684.466
383.059	27.880	847.914	684.281
384.073	27.877	847.304	683.717
385.088	27.793	846.939	683.045
386.102	27.617	845.775	681.388
387.117	27.668	845.152	681.017
388.132	27.065	844.377	678.083
389.146	26.633	843.463	675.677
390.161	27.217	842.976	677.404
391.175	27.474	843.250	678.521
392.190	27.248	841.953	676.576
393.205	25.827	839.925	669.609
394.219	24.504	837.699	662.869
395.234	24.282	837.648	661.943
396.248	25.825	839.301	668.927
397.263	27.274	840.127	674.907
398.278	27.402	839.922	675.156
399.292	27.126	838.942	673.288
400.307	26.974	838.574	672.370
401.321	27.150	838.043	672.538
402.336	27.686	838.173	674.564
403.350	27.948	838.128	675.435
404.365	28.460	837.533	676.787
405.380	28.502	837.704	677.021
406.394	28.600	837.131	676.862
407.409	28.680	836.299	676.423
408.423	28.638	836.029	675.991
409.438	28.501	835.925	675.342
410.453	28.684	835.119	675.302
411.467	28.535	834.715	674.370
412.482	28.564	833.873	673.735
413.496	28.677	834.112	674.285
414.511	28.630	833.463	673.528
415.526	28.546	832.901	672.706
416.540	28.405	832.218	671.579
417.555	28.249	831.597	670.446
418.569	28.310	831.076	670.191
419.584	28.386	830.246	669.740
420.599	27.929	830.084	667.878
421.613	95.780	1269.442	1382.897
422.628	82.806	1333.459	1383.016
