DTS Sentinel unit serial number:	SN413079Multiplexer serial number:	ORYXHardware model number:	OX4-SRSoftware version number:	ORYX F/W v4.00 Oryx Data Collector v3.7.2.0data status	okinstallation	princeton_trtdifferential loss correction	single-endedforward channel	channel 1reverse channel	N/Adate	2019/09/14time	11:50:35forward acquisition time	60.00reverse acquisition time	0.00gamma	496.2192k internal	0.2296k external	0.2296temperature offset calibration	1.0085default loss term (dB/km)	0.3790temperature slope calibration	1.0000multiplexer offset coefficient	1.0000multiplexer slope coefficient	1.0000fibre end	0.00T internal ref (°C)	37.12T ext. ref 1 (°C)	4.63T ext. ref 2 (°C)	34.13length (m)	temperature (°C)	Stokes	anti-Stokes-747.200	-39.624	0.289	-0.154
-746.185	-30.463	0.029	0.017
-745.171	46.245	-0.280	-0.265
-744.156	-200.000	-0.044	-0.403
-743.142	189.241	0.181	0.277
-742.127	800.000	-0.103	0.379
-741.112	0.775	-0.066	0.048
-740.098	-134.527	0.153	0.019
-739.083	-24.882	0.075	0.046
-738.069	263.932	0.033	-0.058
-737.054	63.285	-0.166	-0.170
-736.039	-59.429	-0.170	-0.075
-735.025	130.166	-0.154	-0.201
-734.010	-62.373	-0.165	0.070
-732.996	8.381	-0.141	0.108
-731.981	-200.000	-0.022	-0.284
-730.966	-67.691	0.114	0.045
-729.952	-129.109	-0.164	-0.023
-728.937	-120.961	-0.094	-0.016
-727.923	-200.000	-0.027	0.404
-726.908	-51.918	0.158	-0.075
-725.894	-181.104	-0.131	0.003
-724.879	-200.000	0.008	0.263
-723.864	323.778	0.100	-0.196
-722.850	138.405	-0.151	-0.202
-721.835	-86.440	-0.348	0.109
-720.821	39.517	0.305	-0.279
-719.806	143.350	0.014	0.019
-718.791	-200.000	-0.060	-0.505
-717.777	-200.000	0.032	0.175
-716.762	-167.185	0.254	0.011
-715.748	-154.259	-0.114	-0.008
-714.733	-64.654	-0.215	0.089
-713.718	379.730	-0.135	-0.282
-712.704	-22.071	0.075	0.046
-711.689	-157.891	-0.335	0.020
-710.675	262.625	-0.113	-0.200
-709.660	-141.377	0.079	0.008
-708.645	-148.757	0.050	0.004
-707.631	-200.000	-0.015	-0.137
-706.616	229.587	-0.066	-0.110
-705.602	-81.860	0.183	0.061
-704.587	140.181	0.078	-0.105
-703.572	-124.390	-0.267	-0.042
-702.558	138.526	0.064	-0.086
-701.543	-68.140	-0.154	0.061
-700.529	-86.408	0.178	-0.056
-699.514	-200.000	0.013	0.230
-698.499	-70.618	0.237	0.091
-697.485	-200.000	-0.016	0.156
-696.470	36.720	0.327	-0.294
-695.456	77.124	0.130	0.141
-694.441	-200.000	-0.103	-0.472
-693.426	66.591	-0.294	-0.304
-692.412	-29.877	-0.093	-0.054
-691.397	-17.349	-0.136	0.087
-690.383	-31.698	-0.328	0.188
-689.368	-107.023	0.179	-0.040
-688.354	-40.407	-0.332	0.176
-687.339	-188.150	-0.228	-0.003
-686.324	8.630	-0.289	0.222
-685.310	-137.976	-0.142	-0.016
-684.295	800.000	-0.107	-0.434
-683.281	-170.221	-0.169	-0.006
-682.266	-200.000	-0.006	0.039
-681.251	62.022	-0.352	0.358
-680.237	800.000	-0.012	-0.039
-679.222	800.000	-0.078	0.234
-678.208	-159.906	0.293	-0.016
-677.193	68.105	0.215	0.224
-676.178	-200.000	0.017	0.333
-675.164	83.480	0.054	0.060
-674.149	196.039	0.220	-0.341
-673.135	-200.000	0.029	-0.253
-672.120	-200.000	0.028	-0.364
-671.105	-200.000	-0.012	0.144
-670.091	-107.334	-0.036	0.008
-669.076	114.521	-0.181	0.224
-668.062	58.809	0.289	-0.289
-667.047	264.184	0.158	-0.279
-666.032	-97.965	-0.045	-0.012
-665.018	328.403	0.075	-0.146
-664.003	-200.000	0.014	-0.088
-662.989	200.008	-0.097	0.152
-661.974	-84.717	0.109	-0.035
-660.959	-154.399	0.106	-0.007
-659.945	9.181	0.029	-0.023
-658.930	31.805	-0.066	0.058
-657.916	-40.570	-0.068	-0.036
-656.901	139.519	-0.188	0.252
-655.886	-75.505	-0.067	0.024
-654.872	2.816	0.267	-0.197
-653.857	800.000	0.083	-0.343
-652.843	60.933	-0.196	-0.198
-651.828	-18.368	0.115	-0.073
-650.814	410.252	0.033	-0.071
-649.799	-127.569	0.097	0.014
-648.784	15.628	-0.278	0.222
-647.770	-200.000	0.028	0.185
-646.755	675.127	0.061	-0.160
-645.741	-8.365	-0.352	0.241
-644.726	208.304	0.162	-0.257
-643.711	-200.000	0.019	-0.112
-642.697	-200.000	-0.042	0.190
-641.682	-200.000	-0.004	0.195
-640.668	-132.072	0.398	0.053
-639.653	800.000	-0.105	0.341
-638.638	-104.662	-0.157	0.037
-637.624	-65.671	-0.322	-0.131
-636.609	-200.000	-0.021	-0.126
-635.595	357.804	-0.100	-0.204
-634.580	-117.898	-0.273	0.050
-633.565	-50.247	-0.430	0.207
-632.551	-79.901	0.347	-0.119
-631.536	-45.256	-0.105	0.053
-630.522	23.434	0.168	-0.140
-629.507	-200.000	-0.004	-0.118
-628.492	167.702	-0.150	-0.217
-627.478	800.000	-0.039	-0.126
-626.463	-39.244	0.173	-0.092
-625.449	-200.000	0.189	-0.001
-624.434	173.715	-0.127	0.186
-623.419	56.548	0.147	-0.145
-622.405	-55.834	0.162	-0.073
-621.390	-78.416	0.064	0.022
-620.376	800.000	0.040	0.177
-619.361	-95.607	-0.100	0.027
-618.346	-72.741	0.244	0.091
-617.332	-63.349	0.086	-0.036
-616.317	70.315	0.157	0.165
-615.303	85.718	-0.134	0.150
-614.288	3.271	-0.172	-0.127
-613.273	164.227	0.168	-0.241
-612.259	-63.971	0.058	-0.024
-611.244	166.169	-0.186	0.267
-610.230	-54.471	0.195	-0.090
-609.215	-29.038	0.273	0.159
-608.201	-26.274	-0.069	0.041
-607.186	800.000	0.057	-0.175
-606.171	800.000	-0.048	0.186
-605.157	-58.909	0.244	0.107
-604.142	34.662	-0.259	0.230
-603.128	-135.473	0.184	-0.022
-602.113	-62.923	-0.195	0.082
-601.098	-200.000	-0.040	-0.180
-600.084	-195.432	0.040	0.000
-599.069	351.629	0.016	0.032
-598.055	-200.000	-0.052	0.298
-597.040	436.746	0.078	0.172
-596.025	-177.590	0.114	-0.003
-595.011	18.078	-0.370	-0.300
-593.996	-40.642	0.090	-0.048
-592.982	-200.000	-0.015	0.298
-591.967	-200.000	-0.004	-0.117
-590.952	-152.725	0.479	0.035
-589.938	-200.000	0.011	-0.212
-588.923	-200.000	-0.004	0.146
-587.909	-79.255	-0.350	0.121
-586.894	430.870	0.046	0.101
-585.879	0.362	0.136	0.099
-584.865	-200.000	0.002	-0.122
-583.850	355.223	0.112	0.226
-582.836	188.005	-0.065	0.099
-581.821	-170.441	-0.188	0.007
-580.806	-64.459	-0.278	-0.115
-579.792	169.966	0.139	-0.202
-578.777	-200.000	-0.037	0.259
-577.763	-106.784	-0.053	0.012
-576.748	101.157	0.231	0.273
-575.733	58.902	-0.042	-0.042
-574.719	-152.480	-0.083	0.006
-573.704	51.637	-0.066	0.064
-572.690	-187.815	-0.188	0.002
-571.675	-35.729	0.292	0.160
-570.661	23.083	-0.116	-0.097
-569.646	-155.636	0.337	0.022
-568.631	-82.350	0.198	-0.065
-567.617	-6.226	-0.204	0.141
-566.602	-200.000	-0.011	0.162
-565.588	668.427	-0.094	-0.247
-564.573	116.302	0.328	-0.408
-563.558	150.106	-0.071	-0.097
-562.544	-23.225	-0.069	0.042
-561.529	-200.000	-0.013	-0.276
-560.515	800.000	-0.074	-0.243
-559.500	165.112	-0.111	0.159
-558.485	-48.199	-0.070	-0.034
-557.471	81.454	-0.128	0.141
-556.456	94.689	0.146	0.169
-555.442	194.748	-0.136	0.209
-554.427	115.585	-0.086	0.106
-553.412	-200.000	-0.001	-0.159
-552.398	-102.893	0.122	0.029
-551.383	-186.358	-0.274	-0.004
-550.369	-200.000	0.010	0.144
-549.354	268.423	0.115	0.204
-548.339	-55.413	-0.156	0.071
-547.325	-9.981	-0.294	-0.198
-546.310	6.794	-0.047	-0.035
-545.296	-52.298	0.394	-0.185
-544.281	67.685	-0.074	-0.077
-543.266	-159.582	0.288	0.016
-542.252	161.063	0.138	0.195
-541.237	800.000	0.053	0.216
-540.223	-102.657	-0.499	-0.121
-539.208	496.655	-0.043	-0.101
-538.193	-200.000	-0.082	0.422
-537.179	294.490	-0.191	0.354
-536.164	-69.612	0.065	0.025
-535.150	-71.017	-0.215	0.082
-534.135	800.000	0.058	0.212
-533.121	32.636	0.093	0.082
-532.106	-200.000	-0.005	0.177
-531.091	77.573	0.142	0.154
-530.077	652.761	-0.033	0.085
-529.062	-200.000	-0.011	0.220
-528.048	-144.956	0.200	0.019
-527.033	-83.304	-0.040	-0.013
-526.018	-24.806	0.073	-0.044
-525.004	800.000	-0.059	-0.224
-523.989	-55.044	-0.130	0.059
-522.975	64.759	-0.111	0.113
-521.960	54.473	0.258	-0.251
-520.945	-69.972	-0.219	-0.084
-519.931	125.375	0.095	-0.121
-518.916	387.556	-0.101	0.211
-517.902	25.132	-0.197	0.166
-516.887	127.307	0.178	0.229
-515.872	-87.077	0.105	-0.032
-514.858	91.569	-0.140	0.160
-513.843	-200.000	0.088	0.446
-512.829	-111.522	0.218	0.045
-511.814	66.015	0.164	0.168
-510.799	-40.131	-0.204	0.108
-509.785	-52.079	0.319	-0.150
-508.770	-200.000	0.217	0.000
-507.756	-115.588	0.300	-0.057
-506.741	-52.427	-0.370	0.173
-505.726	-200.000	0.024	0.172
-504.712	-200.000	-0.020	-0.151
-503.697	-200.000	-0.007	-0.160
-502.683	-117.701	0.213	0.039
-501.668	283.968	-0.028	0.051
-500.653	-67.965	-0.393	-0.155
-499.639	-33.044	-0.400	-0.225
-498.624	-200.000	0.027	0.150
-497.610	-72.669	-0.203	-0.076
-496.595	-39.586	-0.081	-0.043
-495.581	-125.216	0.303	0.047
-494.566	-94.609	-0.136	0.037
-493.551	-200.000	0.006	0.097
-492.537	-200.000	-0.069	0.500
-491.522	-200.000	0.027	0.162
-490.508	-92.747	0.146	-0.041
-489.493	46.001	-0.012	-0.011
-488.478	73.443	-0.051	-0.055
-487.464	67.563	-0.255	-0.264
-486.449	62.376	0.155	0.157
-485.435	-25.488	0.132	0.079
-484.420	-130.922	0.086	0.012
-483.405	704.052	0.129	-0.345
-482.391	-149.667	-0.218	0.017
-481.376	-55.959	0.155	0.070
-480.362	-129.196	-0.140	-0.020
-479.347	141.159	0.264	-0.354
-478.332	800.000	-0.032	-0.128
-477.318	27.803	0.057	0.049
-476.303	60.292	-0.180	0.180
-475.289	301.037	-0.100	0.187
-474.274	800.000	-0.121	-0.360
-473.259	-100.685	-0.245	0.061
-472.245	197.883	-0.145	-0.223
-471.230	-134.251	0.107	0.013
-470.216	-111.049	-0.021	-0.004
-469.201	-107.082	-0.132	0.029
-468.186	800.000	-0.081	-0.246
-467.172	-126.951	0.465	0.069
-466.157	39.546	-0.140	0.127
-465.143	53.077	-0.092	-0.089
-464.128	-72.205	0.416	0.156
-463.113	-200.000	-0.033	0.277
-462.099	386.648	-0.068	-0.142
-461.084	-7.749	-0.217	-0.148
-460.070	-28.950	0.299	-0.173
-459.055	-30.762	0.172	-0.098
-458.040	-32.853	0.063	0.036
-457.026	-66.923	0.377	-0.150
-456.011	2.438	-0.087	-0.064
-454.997	28.411	-0.047	0.040
-453.982	138.663	-0.212	-0.281
-452.968	10.052	0.096	-0.074
-451.953	-79.111	-0.134	-0.046
-450.938	-77.941	0.052	-0.018
-449.924	4.433	0.254	0.188
-448.909	-4.897	-0.138	-0.096
-447.895	-200.000	0.046	-0.460
-446.880	66.572	-0.233	0.239
-445.865	-102.234	-0.069	0.017
-444.851	-19.343	-0.323	-0.202
-443.836	42.829	-0.126	0.116
-442.822	800.000	0.020	0.076
-441.807	-43.757	0.236	-0.120
-440.792	88.358	0.200	-0.224
-439.778	-14.413	0.092	-0.060
-438.763	244.359	0.150	0.254
-437.749	-9.601	0.168	-0.113
-436.734	374.924	-0.054	-0.111
-435.719	-131.670	-0.113	-0.015
-434.705	431.338	-0.075	-0.164
-433.690	526.611	0.086	-0.205
-432.676	-72.433	-0.209	-0.078
-431.661	-47.725	-0.074	0.036
-430.646	11.781	0.192	0.149
-429.632	-200.000	-0.002	0.050
-428.617	-151.780	-0.327	-0.024
-427.603	599.796	-0.052	0.130
-426.588	-77.533	-0.332	0.116
-425.573	-98.462	0.414	-0.107
-424.559	800.000	0.083	-0.250
-423.544	169.558	-0.093	-0.135
-422.530	85.289	-0.160	0.177
-421.515	265.262	-0.115	-0.203
-420.500	-5.249	0.096	-0.066
-419.486	800.000	0.037	0.127
-418.471	27.855	0.095	0.081
-417.457	421.055	-0.066	-0.144
-416.442	-68.961	0.088	0.034
-415.428	413.377	-0.096	0.206
-414.413	11.235	0.062	-0.048
-413.398	-200.000	-0.022	0.149
-412.384	204.156	0.163	-0.255
-411.369	-98.280	-0.331	0.086
-410.355	-113.705	-0.262	0.052
-409.340	800.000	-0.119	-0.449
-408.325	25.830	-0.099	0.083
-407.311	-105.683	-0.196	-0.045
-406.296	-50.520	-0.115	0.055
-405.282	-31.604	0.250	-0.142
-404.267	-200.000	-0.001	0.029
-403.252	-200.000	0.026	-0.371
-402.238	119.293	0.181	0.225
-401.223	-128.101	0.175	-0.025
-400.209	-4.925	0.169	-0.117
-399.194	-110.621	0.092	-0.019
-398.179	110.266	0.147	0.177
-397.165	-200.000	-0.017	0.205
-396.150	4.970	0.234	0.174
-395.136	236.980	0.125	0.208
-394.121	-200.000	0.016	-0.426
-393.106	-120.649	-0.129	-0.022
-392.092	-0.751	-0.425	-0.303
-391.077	-127.294	0.098	-0.014
-390.063	-4.956	-0.239	0.166
-389.048	654.037	0.085	0.219
-388.033	239.293	0.122	0.205
-387.019	800.000	0.064	0.203
-386.004	-200.000	-0.019	0.120
-384.990	169.037	-0.125	0.180
-383.975	-200.000	-0.034	0.152
-382.960	-22.055	-0.235	0.144
-381.946	89.170	-0.019	0.021
-380.931	160.740	0.057	-0.080
-379.917	800.000	-0.062	-0.226
-378.902	200.719	0.115	-0.177
-377.888	-78.516	-0.351	-0.121
-376.873	319.461	-0.136	-0.260
-375.858	-168.108	0.122	-0.005
-374.844	-7.522	-0.110	0.075
-373.829	44.669	0.142	-0.131
-372.815	-200.000	0.010	0.100
-371.800	337.287	0.128	0.250
-370.785	-52.027	0.230	0.107
-369.771	-190.094	0.381	0.004
-368.756	-69.311	-0.331	0.128
-367.742	-145.754	-0.250	0.022
-366.727	128.261	0.144	0.185
-365.712	306.563	-0.095	0.179
-364.698	-106.307	-0.262	0.059
-363.683	-5.046	-0.129	0.090
-362.669	67.011	0.240	-0.246
-361.654	-35.654	0.315	-0.172
-360.639	-200.000	0.010	0.199
-359.625	10.045	0.166	0.127
-358.610	-108.363	-0.242	0.053
-357.596	24.051	0.044	0.036
-356.581	800.000	0.058	0.179
-355.566	-148.979	-0.097	-0.008
-354.552	800.000	0.073	0.211
-353.537	-115.634	-0.060	0.011
-352.523	-74.720	0.163	0.059
-351.508	-91.447	0.256	0.074
-350.493	238.881	-0.043	0.072
-349.479	800.000	0.069	0.207
-348.464	-200.000	0.004	-0.191
-347.450	314.576	0.162	-0.306
-346.435	-6.171	-0.091	-0.063
-345.420	8.387	0.066	-0.050
-344.406	-200.000	0.058	-0.309
-343.391	-128.424	-0.328	0.047
-342.377	-37.116	-0.233	0.125
-341.362	-188.767	0.275	0.003
-340.348	-29.593	-0.108	0.062
-339.333	-200.000	0.001	0.040
-338.318	148.603	-0.013	0.018
-337.304	-200.000	-0.054	-0.307
-336.289	-200.000	-0.020	-0.439
-335.275	-56.633	-0.141	0.063
-334.260	34.448	0.063	0.055
-333.245	200.041	-0.094	-0.145
-332.231	-200.000	-0.002	0.205
-331.216	-30.715	-0.298	-0.170
-330.202	-200.000	-0.013	-0.162
-329.187	-200.000	-0.012	-0.107
-328.172	-200.000	0.037	-0.244
-327.158	618.846	0.060	-0.152
-326.143	800.000	0.036	-0.152
-325.129	22.025	0.174	-0.142
-324.114	-200.000	-0.026	-0.135
-323.099	800.000	0.019	0.077
-322.085	800.000	0.140	-0.496
-321.070	253.358	-0.165	0.282
-320.056	193.704	0.138	-0.210
-319.041	-200.000	-0.057	0.316
-318.026	800.000	0.063	0.259
-317.012	-49.558	-0.301	-0.144
-315.997	-89.630	-0.268	0.079
-314.983	-100.170	-0.081	0.020
-313.968	650.673	-0.060	0.155
-312.953	102.135	0.254	0.299
-311.939	731.635	-0.059	0.159
-310.924	17.070	0.066	0.052
-309.910	-200.000	0.013	-0.105
-308.895	175.706	0.078	-0.113
-307.880	-123.761	0.312	0.050
-306.866	800.000	-0.046	-0.184
-305.851	441.251	-0.150	0.329
-304.837	-77.430	0.215	-0.075
-303.822	-88.958	0.158	0.047
-302.807	320.048	-0.069	0.132
-301.793	-129.290	-0.081	-0.011
-300.778	-27.364	-0.129	0.075
-299.764	800.000	0.041	-0.165
-298.749	-200.000	-0.030	0.230
-297.735	203.792	0.006	0.010
-296.720	482.322	0.092	0.210
-295.705	56.704	0.121	0.119
-294.691	368.520	-0.122	-0.247
-293.676	-123.619	-0.046	-0.007
-292.662	760.332	0.035	-0.094
-291.647	13.391	0.225	-0.175
-290.632	251.483	0.139	-0.238
-289.618	-44.450	-0.141	-0.071
-288.603	61.414	0.118	-0.118
-287.589	-93.568	-0.289	0.080
-286.574	-21.412	0.343	-0.210
-285.559	800.000	0.045	-0.167
-284.545	800.000	0.101	-0.286
-283.530	-200.000	0.037	-0.242
-282.516	403.029	-0.042	0.088
-281.501	-64.718	-0.223	0.091
-280.486	-81.884	-0.097	-0.032
-279.472	800.000	-0.037	0.142
-278.457	800.000	0.035	0.149
-277.443	168.139	0.073	-0.104
-276.428	-136.596	-0.315	-0.037
-275.413	65.956	0.140	-0.142
-274.399	379.975	0.093	0.191
-273.384	222.262	0.037	-0.060
-272.370	-73.112	0.259	-0.095
-271.355	370.299	0.132	-0.268
-270.340	160.559	-0.157	-0.219
-269.326	800.000	0.052	0.152
-268.311	-17.447	0.113	0.071
-267.297	-63.657	-0.248	0.102
-266.282	800.000	0.021	-0.064
-265.267	69.258	0.284	-0.293
-264.253	-66.202	0.152	0.061
-263.238	800.000	-0.027	0.091
-262.224	800.000	-0.019	0.056
-261.209	-127.376	0.089	-0.013
-260.195	-73.503	-0.272	0.100
-259.180	-120.653	0.384	0.065
-258.165	222.114	-0.066	0.107
-257.151	-112.366	0.168	0.034
-256.136	-155.946	-0.326	0.021
-255.122	-200.000	-0.016	-0.162
-254.107	800.000	0.038	-0.156
-253.092	-200.000	-0.002	0.089
-252.078	395.523	0.055	-0.115
-251.063	449.081	0.104	-0.231
-250.049	-24.404	0.243	0.145
-249.034	85.184	-0.116	0.127
-248.019	-107.029	0.125	-0.028
-247.005	-128.691	0.335	0.047
-245.990	36.036	0.141	-0.124
-244.976	-200.000	-0.026	0.127
-243.961	-137.621	-0.198	-0.022
-242.946	800.000	0.045	0.180
-241.932	34.726	-0.232	-0.204
-240.917	800.000	0.102	-0.380
-239.903	40.113	-0.096	0.087
-238.888	-141.778	0.203	-0.020
-237.873	-186.535	-0.346	-0.005
-236.859	364.274	0.069	-0.139
-235.844	34.104	-0.213	0.186
-234.830	-191.203	0.288	-0.003
-233.815	-104.159	0.214	-0.050
-232.800	-80.932	0.096	-0.032
-231.786	-173.068	-0.187	0.006
-230.771	12.866	-0.186	-0.144
-229.757	235.349	0.082	0.136
-228.742	800.000	-0.107	0.419
-227.727	800.000	0.062	0.257
-226.713	-114.438	-0.120	0.023
-225.698	125.984	0.174	-0.220
-224.684	-27.931	0.265	0.154
-223.669	-200.000	0.043	-0.330
-222.655	-95.283	-0.125	-0.034
-221.640	4.455	0.125	0.092
-220.625	61.601	-0.139	-0.139
-219.611	86.239	-0.100	-0.110
-218.596	-92.239	0.238	-0.067
-217.582	60.163	0.269	-0.266
-216.567	-158.912	0.060	-0.003
-215.552	-68.196	-0.212	-0.082
-214.538	-162.477	0.246	-0.012
-213.523	-66.213	0.122	-0.049
-212.509	-121.651	0.093	0.015
-211.494	-25.653	0.183	-0.108
-210.479	-200.000	-0.046	-0.281
-209.465	800.000	0.054	-0.216
-208.450	207.095	-0.073	0.114
-207.436	-200.000	-0.026	0.125
-206.421	-54.513	-0.197	-0.089
-205.406	4.804	-0.176	-0.129
-204.392	-155.091	0.111	-0.007
-203.377	-200.000	0.084	-0.497
-202.363	533.403	0.062	0.146
-201.348	-172.214	-0.189	0.006
-200.333	-27.144	-0.283	0.165
-199.319	47.123	-0.078	0.073
-198.304	96.170	-0.195	0.223
-197.290	-73.241	-0.070	-0.026
-196.275	-9.199	-0.164	-0.110
-195.260	38.599	-0.096	-0.086
-194.246	-32.804	-0.301	-0.167
-193.231	641.959	0.063	-0.161
-192.217	-200.000	-0.055	-0.387
-191.202	73.679	-0.313	0.327
-190.187	796.214	0.108	0.298
-189.173	66.400	-0.033	0.033
-188.158	490.376	0.048	0.109
-187.144	-200.000	-0.006	-0.157
-186.129	-80.868	0.105	0.035
-185.114	-87.569	0.066	0.020
-184.100	35.773	0.167	-0.147
-183.085	-63.029	-0.353	-0.146
-182.071	800.000	0.016	-0.053
-181.056	138.357	-0.076	0.100
-180.042	-35.129	0.164	-0.089
-179.027	-200.000	0.004	0.039
-178.012	-65.217	0.287	0.115
-176.998	118.746	0.047	0.058
-175.983	131.419	-0.078	-0.100
-174.969	-97.577	-0.089	-0.023
-173.954	-64.960	0.116	-0.047
-172.939	3.024	0.136	-0.099
-171.925	-200.000	0.002	0.051
-170.910	-200.000	0.010	0.335
-169.896	-34.121	0.214	0.117
-168.881	91.934	-0.021	-0.024
-167.866	46.959	-0.237	0.221
-166.852	602.955	0.058	0.145
-165.837	-62.672	-0.193	-0.080
-164.823	-158.957	0.275	-0.016
-163.808	-27.551	-0.085	0.050
-162.793	-34.327	0.340	0.186
-161.779	-200.000	-0.049	0.302
-160.764	3.881	-0.111	0.081
-159.750	-200.000	-0.015	-0.146
-158.735	-40.896	0.150	-0.078
-157.720	65.578	-0.099	-0.100
-156.706	512.307	0.090	-0.209
-155.691	-90.457	-0.356	0.103
-154.677	368.219	-0.070	-0.142
-153.662	-72.170	0.058	0.022
-152.647	-168.274	-0.203	0.008
-151.633	53.730	0.063	0.060
-150.618	-174.777	-0.141	0.004
-149.604	-18.990	0.029	-0.018
-148.589	-168.062	-0.068	0.003
-147.574	526.037	0.047	-0.110
-146.560	195.547	0.190	0.288
-145.545	609.739	-0.095	0.236
-144.531	557.875	-0.037	-0.090
-143.516	-121.659	-0.102	-0.017
-142.502	-107.680	0.108	-0.023
-141.487	51.230	-0.049	0.047
-140.472	-109.022	0.275	-0.058
-139.458	-66.425	-0.171	0.068
-138.443	-87.175	-0.262	0.080
-137.429	440.359	0.106	-0.231
-136.414	30.357	-0.067	-0.058
-135.399	-12.395	0.107	0.070
-134.385	-200.000	0.053	-0.448
-133.370	-28.560	-0.234	-0.134
-132.356	-13.291	-0.059	-0.038
-131.341	-97.024	-0.233	0.061
-130.326	800.000	0.007	0.021
-129.312	-97.037	-0.138	0.036
-128.297	-155.735	0.375	-0.024
-127.283	755.797	-0.157	0.425
-126.268	201.374	-0.175	0.269
-125.253	235.173	-0.291	-0.479
-124.239	7.284	0.145	-0.108
-123.224	-200.000	0.009	0.085
-122.210	-200.000	0.042	0.219
-121.195	327.745	-0.081	-0.154
-120.180	-71.703	-0.052	-0.019
-119.166	299.764	0.057	-0.104
-118.151	-122.527	0.067	-0.011
-117.137	225.600	0.222	0.359
-116.122	-200.000	-0.022	0.144
-115.107	-200.000	-0.096	-0.431
-114.093	12.417	0.195	-0.150
-113.078	-200.000	-0.086	0.419
-112.064	-165.725	0.049	-0.002
-111.049	-142.751	0.176	0.017
-110.034	-61.181	-0.208	0.088
-109.020	21.762	-0.077	-0.063
-108.005	-95.405	0.330	-0.088
-106.991	103.069	0.081	0.095
-105.976	164.794	0.218	0.306
-104.962	29.517	0.169	0.143
-103.947	800.000	-0.073	-0.297
-102.932	800.000	-0.041	-0.172
-101.918	195.376	-0.105	0.159
-100.903	0.569	0.099	-0.071
-99.889	52.166	-0.021	-0.020
-98.874	-42.010	0.091	-0.047
-97.859	-101.359	-0.043	0.010
-96.845	157.094	-0.042	-0.058
-95.830	-183.225	0.231	-0.004
-94.816	-68.136	-0.344	0.133
-93.801	-200.000	-0.034	-0.367
-92.786	-14.276	-0.274	-0.176
-91.772	-24.890	-0.199	-0.118
-90.757	800.000	0.020	0.076
-89.743	-196.991	-0.143	-0.001
-88.728	188.146	-0.049	-0.073
-87.713	-94.801	-0.149	0.040
-86.699	-103.224	-0.155	0.037
-85.684	58.150	0.230	-0.225
-84.670	50.892	-0.220	0.207
-83.655	33.167	-0.324	0.279
-82.640	-200.000	0.057	0.365
-81.626	-24.243	0.058	0.035
-80.611	452.333	-0.131	0.289
-79.597	-88.706	0.031	0.009
-78.582	74.572	0.175	0.184
-77.567	263.558	-0.095	-0.164
-76.553	-29.121	0.287	-0.164
-75.538	470.741	0.051	0.113
-74.524	-125.093	-0.053	0.008
-73.509	-90.294	-0.155	-0.045
-72.494	-122.578	0.104	0.017
-71.480	-55.176	0.213	0.095
-70.465	131.778	-0.116	0.149
-69.451	-17.541	-0.115	0.072
-68.436	-18.634	0.184	-0.114
-67.422	29.883	0.245	-0.208
-66.407	-143.179	0.327	0.031
-65.392	191.559	0.054	-0.081
-64.378	-30.503	0.104	-0.059
-63.363	216.145	0.134	0.211
-62.349	-200.000	0.010	0.083
-61.334	173.230	-0.871	-1.249
-60.319	87.495	0.205	0.226
-59.305	-200.000	-0.149	-0.952
-58.290	90.842	0.714	0.797
-57.276	548.374	0.570	1.358
-56.261	-200.000	87.340	491.745
-55.246	500.102	1405.036	3223.354
-54.232	179.514	2629.718	3829.395
-53.217	115.722	2242.748	2728.263
-52.203	47.624	1681.778	1560.298
-51.188	40.307	1409.498	1261.257
-50.173	37.187	1365.117	1202.214
-49.159	55.935	1408.385	1358.555
-48.144	60.496	1426.799	1404.922
-47.130	41.023	1384.998	1243.615
-46.115	37.248	1367.608	1204.594
-45.100	37.005	1362.991	1198.975
-44.086	36.970	1359.989	1196.073
-43.071	36.973	1357.746	1194.068
-42.057	36.942	1355.693	1192.023
-41.042	37.081	1353.466	1190.873
-40.027	37.008	1352.110	1189.182
-39.013	36.998	1350.210	1187.409
-37.998	37.097	1348.369	1186.346
-36.984	37.149	1346.141	1184.658
-35.969	37.222	1344.405	1183.525
-34.954	37.117	1342.791	1181.421
-33.940	37.194	1341.382	1180.602
-32.925	37.117	1339.926	1178.805
-31.911	37.164	1338.896	1178.137
-30.896	37.192	1336.763	1176.384
-29.881	37.333	1335.294	1175.897
-28.867	37.275	1334.185	1174.520
-27.852	37.147	1333.075	1172.724
-26.838	37.269	1331.231	1171.792
-25.823	37.218	1330.022	1170.374
-24.809	37.280	1328.072	1168.982
-23.794	37.199	1326.600	1167.154
-22.779	37.301	1324.946	1166.267
-21.765	37.266	1324.160	1165.321
-20.750	37.130	1323.194	1163.606
-19.736	37.147	1321.253	1161.955
-18.721	37.129	1320.337	1160.997
-17.706	37.154	1318.752	1159.704
-16.692	37.070	1318.012	1158.509
-15.677	37.050	1316.490	1157.005
-14.663	37.032	1315.279	1155.790
-13.648	37.013	1314.533	1154.973
-12.633	37.092	1313.084	1154.127
-11.619	37.073	1312.782	1153.701
-10.604	37.039	1311.507	1152.333
-9.590	36.956	1310.734	1151.114
-8.575	37.061	1309.470	1150.581
-7.560	36.993	1308.846	1149.585
-6.546	37.014	1308.297	1149.177
-5.531	37.002	1307.049	1147.968
-4.517	37.006	1305.646	1146.710
-3.502	36.947	1304.933	1145.693
-2.487	37.083	1304.103	1145.721
-1.473	37.205	1300.229	1142.989
-0.458	36.147	1284.810	1123.229
0.556	33.310	1265.902	1082.828
1.571	29.369	1269.171	1062.872
2.586	27.873	1283.894	1066.375
3.600	26.039	1271.020	1044.979
4.615	19.320	1193.992	944.868
5.629	9.375	1113.403	829.937
6.644	4.809	1090.972	790.019
7.659	4.386	1088.175	785.781
8.673	4.675	1087.085	786.390
9.688	4.661	1086.086	785.522
10.702	4.756	1084.448	784.749
11.717	10.321	1092.257	818.525
12.731	18.974	1104.646	871.790
13.746	21.482	1106.523	885.910
14.761	19.896	1104.418	876.126
15.775	18.836	1102.343	869.040
16.790	17.908	1100.287	862.658
17.804	17.223	1098.556	857.769
18.819	16.837	1097.352	854.806
19.834	16.652	1096.433	853.081
20.848	16.454	1095.675	851.416
21.863	16.211	1094.503	849.210
22.877	16.122	1093.904	848.220
23.892	15.985	1093.300	846.987
24.907	15.975	1092.646	846.355
25.921	15.910	1091.784	845.290
26.936	16.157	1089.903	844.996
27.950	16.115	1088.625	843.721
28.965	16.146	1087.271	842.753
29.980	16.300	1085.958	842.426
30.994	16.323	1084.972	841.701
32.009	16.463	1083.251	840.989
33.023	16.364	1082.409	839.769
34.038	16.323	1081.328	838.650
35.053	16.202	1080.644	837.445
36.067	16.257	1079.308	836.609
37.082	16.206	1078.706	835.819
38.096	16.283	1078.045	835.611
39.111	16.262	1077.530	835.035
40.126	16.038	1076.198	832.823
41.140	15.996	1074.793	831.454
42.155	15.895	1073.396	829.801
43.169	15.910	1072.272	828.933
44.184	15.867	1071.269	827.871
45.199	15.929	1070.554	827.552
46.213	15.982	1069.744	827.111
47.228	16.093	1068.605	826.704
48.242	16.103	1067.514	825.834
49.257	16.161	1066.237	825.059
50.271	16.212	1065.396	824.583
51.286	16.111	1065.142	823.820
52.301	16.170	1063.855	823.039
53.315	16.091	1062.489	821.525
54.330	16.012	1061.337	820.178
55.344	16.045	1060.466	819.593
56.359	16.146	1059.684	819.408
57.374	16.114	1058.363	818.159
58.388	15.968	1057.565	816.758
59.403	15.834	1056.927	815.544
60.417	15.939	1056.107	815.348
61.432	15.879	1055.272	814.342
62.447	15.826	1054.187	813.178
63.461	15.731	1053.521	812.132
64.476	15.722	1052.596	811.306
65.490	15.680	1051.948	810.530
66.505	15.719	1051.314	810.159
67.520	15.784	1050.804	810.005
68.534	15.668	1050.444	809.097
69.549	15.768	1049.254	808.590
70.563	15.852	1047.801	807.805
71.578	15.627	1047.169	806.166
72.593	15.589	1046.849	805.665
73.607	15.607	1046.092	805.096
74.622	15.701	1045.166	804.765
75.636	15.702	1044.569	804.238
76.651	15.748	1043.566	803.613
77.666	15.820	1043.183	803.591
78.680	15.705	1042.519	802.459
79.695	15.714	1042.214	802.197
80.709	15.817	1041.445	802.024
81.724	15.819	1040.878	801.528
82.739	15.927	1040.143	801.406
83.753	16.068	1039.642	801.619
84.768	16.222	1038.350	801.284
85.782	16.444	1037.242	801.407
86.797	16.303	1036.621	800.192
87.812	16.130	1035.249	798.240
88.826	16.148	1034.271	797.503
89.841	16.167	1033.735	797.108
90.855	16.305	1032.469	796.711
91.870	16.276	1032.126	796.243
92.884	16.430	1030.649	795.758
93.899	16.299	1030.069	794.619
94.914	16.337	1029.277	794.121
95.928	16.289	1028.439	793.178
96.943	16.274	1027.313	792.165
97.957	16.198	1026.620	791.208
98.972	16.282	1025.638	790.775
99.987	16.380	1024.592	790.356
101.001	16.322	1023.650	789.289
102.016	16.245	1022.954	788.320
103.030	16.244	1022.337	787.770
104.045	16.201	1021.805	787.093
105.060	16.158	1020.731	785.994
106.074	16.129	1019.683	784.985
107.089	15.875	1018.276	782.651
108.103	15.855	1017.520	781.905
109.118	15.889	1016.466	781.185
110.133	15.879	1015.377	780.231
111.147	15.901	1014.329	779.460
112.162	15.880	1013.583	778.718
113.176	15.958	1012.881	778.475
114.191	16.037	1012.590	778.545
115.206	15.944	1012.108	777.678
116.220	15.905	1010.598	776.265
117.235	15.985	1009.432	775.674
118.249	16.066	1008.479	775.241
119.264	15.808	1008.265	773.823
120.279	15.842	1007.222	773.113
121.293	15.827	1006.249	772.226
122.308	15.762	1005.779	771.502
123.322	15.742	1004.570	770.415
124.337	15.670	1003.569	769.250
125.352	15.759	1002.068	768.434
126.366	15.706	1001.448	767.649
127.381	15.814	1000.172	767.098
128.395	15.771	999.453	766.284
129.410	15.902	998.447	766.039
130.424	15.927	997.404	765.284
131.439	16.071	996.496	765.173
132.454	16.093	995.981	764.812
133.468	16.061	995.010	763.853
134.483	16.113	994.498	763.627
135.497	16.141	993.506	762.926
136.512	16.088	992.930	762.176
137.527	16.056	992.258	761.448
138.541	16.098	991.570	761.040
139.556	16.151	990.559	760.436
140.570	16.219	989.979	760.228
141.585	16.319	989.359	760.137
142.600	16.476	988.235	759.914
143.614	16.432	987.428	759.028
144.629	16.425	986.654	758.332
145.643	16.363	985.438	757.054
146.658	16.304	984.328	755.870
147.673	16.077	983.937	754.486
148.687	16.133	982.630	753.667
149.702	16.042	981.840	752.588
150.716	16.075	980.883	751.938
151.731	16.109	980.160	751.469
152.746	16.099	979.583	750.914
153.760	16.278	978.599	750.889
154.775	16.224	978.174	750.258
155.789	16.308	977.343	749.925
156.804	16.333	976.775	749.535
157.819	16.229	976.544	748.831
158.833	16.554	975.470	749.380
159.848	16.552	974.565	748.609
160.862	16.546	973.463	747.670
161.877	16.204	972.513	745.366
162.892	16.170	971.393	744.292
163.906	16.203	970.483	743.671
164.921	16.111	969.623	742.543
165.935	16.176	968.812	742.141
166.950	16.155	968.180	741.499
167.964	16.238	967.114	740.981
168.979	16.315	965.478	740.000
169.994	16.327	964.925	739.564
171.008	16.322	964.806	739.387
172.023	16.503	963.773	739.318
173.037	16.478	963.084	738.616
174.052	16.380	962.639	737.782
175.067	16.288	961.746	736.632
176.081	16.156	961.118	735.511
177.096	16.271	960.606	735.554
178.110	16.340	959.694	735.089
179.125	16.389	958.959	734.675
180.140	16.359	958.504	734.131
181.154	16.333	958.271	733.773
182.169	16.572	957.501	734.158
183.183	16.510	957.335	733.696
184.198	16.602	956.251	733.201
185.213	16.578	955.797	732.681
186.227	16.610	954.847	732.026
187.242	16.650	954.366	731.768
188.256	16.743	953.713	731.604
189.271	16.782	952.986	731.150
190.286	16.459	952.000	728.936
191.300	16.236	951.136	727.250
192.315	16.313	949.778	726.479
193.329	16.275	949.660	726.161
194.344	16.292	949.472	726.024
195.359	16.499	948.617	726.197
196.373	16.548	948.153	725.985
197.388	16.687	947.755	726.213
198.402	16.836	947.283	726.429
199.417	16.802	946.805	725.849
200.432	16.961	945.678	725.603
201.446	16.948	945.667	725.474
202.461	17.037	944.885	725.189
203.475	16.980	944.166	724.329
204.490	16.809	943.535	723.053
205.504	16.707	942.593	721.832
206.519	16.787	941.699	721.424
207.534	16.893	940.895	721.194
208.548	16.776	940.417	720.267
209.563	16.731	939.772	719.520
210.577	16.954	938.824	719.676
211.592	16.953	938.448	719.319
212.607	17.025	937.675	718.968
213.621	17.044	936.883	718.376
214.636	16.899	936.167	717.151
215.650	17.044	935.412	717.124
216.665	17.030	934.817	716.546
217.680	17.166	934.085	716.496
218.694	17.117	933.641	715.885
219.709	17.030	933.052	715.002
220.723	17.135	932.269	714.781
221.738	17.064	931.472	713.809
222.753	16.940	930.813	712.717
223.767	17.199	930.146	713.234
224.782	17.139	930.124	712.901
225.796	17.298	929.404	712.952
226.811	17.087	928.837	711.569
227.826	17.166	927.680	710.953
228.840	17.163	926.690	710.117
229.855	17.185	925.561	709.280
230.869	17.029	925.483	708.508
231.884	16.925	924.995	707.638
232.899	16.932	923.780	706.672
233.913	16.979	923.181	706.347
234.928	16.963	922.549	705.735
235.942	16.978	921.604	705.012
236.957	16.852	921.331	704.219
237.972	17.028	920.738	704.434
238.986	17.029	919.778	703.642
240.001	17.008	919.047	702.935
241.015	17.107	918.399	702.783
242.030	17.121	917.876	702.380
243.045	17.259	917.644	702.710
244.059	17.153	916.921	701.659
245.074	17.199	916.274	701.288
246.088	17.365	915.479	701.304
247.103	17.276	915.015	700.521
248.117	17.392	914.625	700.638
249.132	17.598	913.871	700.844
250.147	17.765	913.010	700.807
251.161	17.784	912.451	700.396
252.176	17.762	912.261	700.097
253.190	17.876	911.040	699.564
254.205	17.836	910.754	699.120
255.220	17.871	910.218	698.791
256.234	17.896	909.628	698.376
257.249	17.781	908.604	697.059
258.263	17.834	908.258	696.951
259.278	17.832	907.294	696.141
260.293	17.773	906.996	695.610
261.307	17.847	906.322	695.332
262.322	17.949	905.805	695.290
263.336	17.936	904.847	694.439
264.351	17.969	903.814	693.718
265.366	18.111	903.177	693.745
266.380	17.916	902.607	692.457
267.395	17.854	902.173	691.811
268.409	17.827	901.330	690.992
269.424	17.992	900.451	690.924
270.439	17.948	899.543	689.990
271.453	17.903	899.224	689.502
272.468	17.905	898.256	688.707
273.482	17.765	898.378	688.174
274.497	17.741	897.425	687.286
275.512	17.790	897.030	687.119
276.526	17.869	896.783	687.190
277.541	17.914	896.157	686.829
278.555	18.094	895.380	686.897
279.570	18.156	894.735	686.592
280.585	18.104	894.236	685.939
281.599	18.105	892.844	684.813
282.614	17.982	892.207	683.770
283.628	18.108	892.004	684.062
284.643	17.941	891.528	682.969
285.657	18.154	890.388	682.884
286.672	18.014	890.010	681.973
287.687	18.086	889.518	681.824
288.701	18.089	888.890	681.293
289.716	18.238	888.470	681.507
290.730	18.069	887.903	680.339
291.745	18.200	886.965	680.081
292.760	18.116	886.606	679.410
293.774	18.277	885.789	679.362
294.789	18.135	885.278	678.347
295.803	18.044	884.666	677.459
296.818	18.203	883.380	677.042
297.833	18.112	883.114	676.421
298.847	18.051	882.959	675.999
299.862	18.190	882.039	675.785
300.876	18.315	881.869	676.088
301.891	18.350	880.924	675.442
302.906	18.476	880.064	675.220
303.920	18.586	879.946	675.503
304.935	18.564	879.392	674.929
305.949	18.513	878.776	674.197
306.964	18.433	877.902	673.151
307.979	18.463	877.457	672.870
308.993	18.494	877.262	672.782
310.008	18.585	876.523	672.513
311.022	18.438	876.224	671.649
312.037	18.425	875.292	670.824
313.052	18.397	874.197	669.816
314.066	18.346	873.489	669.015
315.081	18.307	873.263	668.630
316.095	18.320	872.476	668.019
317.110	18.381	872.085	667.898
318.125	18.326	871.383	667.089
319.139	18.386	870.686	666.730
320.154	18.295	870.761	666.373
321.168	18.339	869.955	665.869
322.183	18.425	869.425	665.736
323.197	18.459	868.970	665.463
324.212	18.469	868.169	664.829
325.227	18.461	868.148	664.722
326.241	18.576	866.954	664.195
327.256	18.455	866.655	663.437
328.270	18.443	866.169	662.961
329.285	18.370	865.463	662.081
330.300	18.345	865.091	661.642
331.314	18.401	864.490	661.339
332.329	18.585	864.094	661.689
333.343	18.657	863.367	661.348
334.358	18.682	862.918	661.045
335.373	18.655	862.575	660.618
336.387	18.696	862.478	660.642
337.402	18.628	862.675	660.472
338.416	18.852	861.825	660.625
339.431	19.022	861.485	660.960
340.446	18.862	861.260	660.114
341.460	18.942	860.595	659.854
342.475	18.868	860.580	659.499
343.489	19.091	859.757	659.664
344.504	19.032	859.449	659.145
345.519	19.137	858.911	659.075
346.533	19.142	858.154	658.454
347.548	19.043	857.339	657.392
348.562	18.920	856.840	656.483
349.577	18.857	856.452	655.889
350.592	18.929	855.775	655.584
351.606	18.913	854.641	654.596
352.621	18.902	854.018	654.019
353.635	18.958	853.516	653.792
354.650	18.917	853.022	653.200
355.665	18.966	852.301	652.774
356.679	18.944	852.106	652.486
357.694	19.128	851.119	652.368
358.708	19.002	850.720	651.528
359.723	19.208	849.850	651.582
360.738	19.000	849.476	650.450
361.752	19.140	848.313	650.030
362.767	19.204	848.156	650.097
363.781	19.243	847.748	649.874
364.796	19.420	847.005	649.914
365.810	19.438	847.120	650.013
366.825	19.412	846.673	649.513
367.840	19.469	845.966	649.129
368.854	19.419	845.677	648.661
369.869	19.407	844.790	647.878
370.883	19.446	844.479	647.727
371.898	19.491	844.279	647.686
372.913	19.483	843.755	647.197
373.927	19.336	843.647	646.505
374.942	19.370	843.100	646.157
375.956	19.512	842.635	646.276
376.971	19.807	841.647	646.565
377.986	19.743	841.338	646.031
379.000	19.660	841.171	645.533
380.015	19.731	840.261	645.043
381.029	19.723	839.778	644.586
382.044	19.619	838.985	643.531
383.059	19.720	838.797	643.709
384.073	19.652	838.115	642.876
385.088	19.556	837.420	641.929
386.102	19.512	836.959	641.354
387.117	19.463	836.168	640.510
388.132	19.412	835.949	640.096
389.146	19.476	835.220	639.717
390.161	19.481	835.565	639.944
391.175	19.754	834.181	639.838
392.190	19.654	833.657	639.010
393.205	19.565	833.381	638.413
394.219	19.587	832.671	637.893
395.234	19.460	832.503	637.238
396.248	19.513	831.565	636.662
397.263	19.447	831.365	636.206
398.278	19.507	831.177	636.227
399.292	19.614	830.289	635.887
400.307	19.374	830.266	634.928
401.321	19.438	829.723	634.692
402.336	19.518	829.164	634.501
403.350	19.555	828.906	634.386
404.365	19.757	828.290	634.599
405.380	19.743	827.637	633.992
406.394	19.843	827.338	634.071
407.409	19.986	827.127	634.379
408.423	20.021	826.738	634.152
409.438	20.006	826.435	633.807
410.453	20.061	825.825	633.487
411.467	20.061	825.094	632.869
412.482	20.102	825.152	633.006
413.496	20.149	824.855	632.896
414.511	20.292	824.080	632.765
415.526	20.112	823.835	631.865
416.540	20.179	823.010	631.423
417.555	20.219	822.143	630.844
418.569	20.231	822.220	630.893
419.584	20.282	821.897	630.775
420.599	20.233	821.440	630.191
421.613	153.187	1371.018	1782.266
422.628	133.412	1451.107	1782.395
