DTS Sentinel unit serial number:	SN413079Multiplexer serial number:	ORYXHardware model number:	OX4-SRSoftware version number:	ORYX F/W v4.00 Oryx Data Collector v3.7.2.0data status	okinstallation	princeton_trtdifferential loss correction	single-endedforward channel	channel 1reverse channel	N/Adate	2019/09/18time	17:22:36forward acquisition time	60.00reverse acquisition time	0.00gamma	496.2192k internal	0.2291k external	0.2291temperature offset calibration	0.9996default loss term (dB/km)	0.3790temperature slope calibration	1.0000multiplexer offset coefficient	1.0000multiplexer slope coefficient	1.0000fibre end	0.00T internal ref (°C)	39.94T ext. ref 1 (°C)	0.90T ext. ref 2 (°C)	36.78length (m)	temperature (°C)	Stokes	anti-Stokes-747.200	-200.000	-0.024	0.156
-746.185	-200.000	0.009	0.079
-745.171	-16.318	0.301	-0.196
-744.156	103.769	0.132	0.159
-743.142	397.103	0.147	-0.315
-742.127	-2.473	-0.112	-0.080
-741.112	12.847	0.048	0.038
-740.098	800.000	0.049	0.220
-739.083	-50.824	0.127	0.061
-738.069	-142.288	-0.374	-0.038
-737.054	-200.000	0.018	-0.186
-736.039	-132.929	0.442	-0.058
-735.025	-200.000	-0.053	-0.360
-734.010	-25.250	-0.038	0.023
-732.996	-200.000	-0.033	-0.252
-731.981	-70.831	-0.219	0.084
-730.966	244.104	0.063	0.108
-729.952	619.206	0.084	-0.216
-728.937	390.559	0.130	-0.276
-727.923	-44.652	-0.547	0.280
-726.908	342.844	-0.157	-0.314
-725.894	-108.606	-0.085	-0.019
-724.879	800.000	0.044	0.135
-723.864	-86.808	-0.236	-0.074
-722.850	-85.688	0.176	-0.056
-721.835	14.375	0.039	-0.031
-720.821	52.514	0.044	-0.043
-719.806	-51.387	-0.172	0.082
-718.791	23.715	0.150	-0.126
-717.777	-150.486	-0.161	0.013
-716.762	112.214	-0.349	-0.432
-715.748	144.968	0.091	0.125
-714.733	116.758	-0.065	-0.081
-713.718	357.236	0.172	0.350
-712.704	79.212	0.244	0.268
-711.689	-41.943	-0.215	-0.113
-710.675	-161.202	0.058	-0.003
-709.660	31.320	0.058	-0.051
-708.645	200.571	0.164	-0.258
-707.631	800.000	-0.025	0.104
-706.616	-56.740	0.169	-0.076
-705.602	-106.462	0.161	0.037
-704.587	-28.221	0.443	-0.261
-703.572	-36.657	0.047	-0.026
-702.558	-133.507	0.175	0.022
-701.543	192.050	0.138	-0.213
-700.529	800.000	0.076	-0.315
-699.514	-68.915	0.147	-0.058
-698.499	494.523	0.095	-0.224
-697.485	-126.323	0.354	-0.054
-696.470	-200.000	-0.036	-0.243
-695.456	-58.624	0.189	-0.084
-694.441	-43.745	-0.331	0.171
-693.426	-79.978	0.347	0.119
-692.412	-123.484	-0.431	-0.070
-691.397	276.796	-0.124	0.226
-690.383	800.000	0.057	0.205
-689.368	54.353	-0.084	0.083
-688.354	257.440	0.047	-0.082
-687.339	-89.579	-0.180	0.054
-686.324	-200.000	0.010	-0.365
-685.310	-9.015	-0.193	-0.132
-684.295	-174.275	-0.254	-0.008
-683.281	-94.218	-0.161	0.045
-682.266	800.000	-0.044	0.147
-681.251	448.011	-0.094	0.210
-680.237	-159.686	-0.160	-0.009
-679.222	-181.337	-0.029	0.001
-678.208	51.900	-0.119	0.115
-677.193	-139.376	-0.163	-0.018
-676.178	154.055	-0.236	-0.331
-675.164	273.442	-0.172	-0.310
-674.149	800.000	-0.081	0.306
-673.135	800.000	0.047	-0.181
-672.120	551.771	0.021	0.052
-671.105	-126.659	0.409	-0.062
-670.091	89.099	-0.171	0.195
-669.076	-200.000	-0.032	0.246
-668.062	-125.469	-0.410	0.064
-667.047	-62.917	-0.360	-0.152
-666.032	13.328	-0.432	-0.342
-665.018	-140.932	0.185	0.019
-664.003	800.000	-0.070	0.295
-662.989	800.000	0.032	-0.137
-661.974	-154.278	-0.422	0.029
-660.959	-106.998	0.330	-0.075
-659.945	119.895	-0.267	-0.338
-658.930	77.427	0.229	-0.248
-657.916	800.000	-0.094	-0.321
-656.901	17.290	0.192	0.156
-655.886	-37.401	-0.182	0.099
-654.872	-4.997	0.347	-0.244
-653.857	-181.796	-0.437	-0.009
-652.843	45.871	-0.337	-0.318
-651.828	203.630	0.136	-0.215
-650.814	412.320	0.104	-0.225
-649.799	-83.090	-0.085	0.028
-648.784	-73.095	-0.287	0.107
-647.770	-56.033	-0.358	0.163
-646.755	-38.749	0.257	-0.139
-645.741	64.887	-0.135	-0.140
-644.726	211.235	-0.019	-0.031
-643.711	-200.000	-0.003	-0.403
-642.697	-52.753	0.011	0.005
-641.682	800.000	-0.088	0.269
-640.668	74.819	0.107	0.114
-639.653	675.867	0.053	-0.141
-638.638	-200.000	-0.061	-0.337
-637.624	800.000	-0.081	0.350
-636.609	-200.000	-0.010	0.099
-635.595	696.679	-0.034	-0.090
-634.580	-3.245	0.109	0.077
-633.565	193.404	-0.059	-0.092
-632.551	426.399	-0.177	-0.390
-631.536	800.000	0.026	0.085
-630.522	-29.323	-0.109	-0.064
-629.507	-200.000	-0.019	-0.230
-628.492	548.862	-0.076	0.185
-627.478	-130.889	-0.366	0.050
-626.463	538.838	0.072	-0.175
-625.449	325.615	0.069	-0.135
-624.434	14.517	-0.079	0.062
-623.419	-200.000	-0.008	0.322
-622.405	116.617	0.122	0.153
-621.390	249.741	-0.036	-0.063
-620.376	663.472	0.083	0.218
-619.361	-121.732	-0.323	0.054
-618.346	104.773	0.210	0.253
-617.332	164.390	0.150	-0.216
-616.317	-141.639	0.346	-0.036
-615.303	-105.829	-0.427	-0.098
-614.288	364.416	0.099	-0.202
-613.273	-13.195	-0.210	0.139
-612.259	167.996	-0.079	0.115
-611.244	61.496	0.280	0.284
-610.230	-200.000	-0.010	0.060
-609.215	800.000	-0.023	-0.099
-608.201	-200.000	-0.048	0.242
-607.186	82.405	-0.271	-0.299
-606.171	-34.284	-0.263	0.147
-605.157	800.000	0.054	-0.154
-604.142	21.396	0.051	-0.042
-603.128	-200.000	-0.023	0.142
-602.113	800.000	-0.064	-0.285
-601.098	-91.332	-0.268	0.078
-600.084	800.000	0.057	0.209
-599.069	-200.000	0.002	0.081
-598.055	-90.684	-0.313	0.092
-597.040	-200.000	-0.060	-0.322
-596.025	-200.000	0.004	-0.091
-595.011	-44.493	-0.087	-0.044
-593.996	-149.230	0.097	-0.008
-592.982	99.375	0.151	-0.178
-591.967	71.797	-0.199	-0.211
-590.952	584.521	-0.093	-0.233
-589.938	68.517	-0.181	-0.189
-588.923	-200.000	0.007	0.380
-587.909	199.943	0.095	0.148
-586.894	-75.534	0.084	-0.030
-585.879	-200.000	-0.003	0.120
-584.865	187.370	-0.080	0.121
-583.850	-67.712	0.112	-0.045
-582.836	-200.000	0.020	-0.337
-581.821	-200.000	-0.210	0.000
-580.806	161.400	-0.132	-0.188
-579.792	-200.000	-0.002	-0.118
-578.777	169.602	0.080	-0.116
-577.763	229.241	-0.101	-0.168
-576.748	-200.000	-0.031	-0.150
-575.733	723.590	-0.080	0.217
-574.719	-200.000	-0.027	0.164
-573.704	27.287	-0.209	-0.179
-572.690	-200.000	0.013	-0.133
-571.675	-175.066	0.378	-0.011
-570.661	-113.576	-0.143	0.028
-569.646	307.831	-0.116	-0.221
-568.631	114.920	0.126	0.156
-567.617	-101.781	0.223	-0.055
-566.602	800.000	0.113	0.371
-565.588	-15.259	0.289	0.188
-564.573	-200.000	0.009	0.184
-563.558	93.141	-0.157	-0.181
-562.544	30.956	-0.123	-0.107
-561.529	-23.972	0.256	-0.155
-560.515	125.025	-0.237	-0.303
-559.500	800.000	-0.007	-0.023
-558.485	-200.000	-0.014	-0.140
-557.471	-47.249	-0.381	-0.189
-556.456	69.857	0.055	0.058
-555.442	-4.790	0.154	0.108
-554.427	85.207	0.338	0.377
-553.412	-16.228	0.174	0.112
-552.398	-79.996	-0.333	0.114
-551.383	-116.987	-0.054	-0.010
-550.369	218.009	-0.132	0.215
-549.354	-200.000	0.021	0.171
-548.339	-125.356	0.160	0.025
-547.325	800.000	0.143	-0.416
-546.310	16.863	0.102	-0.082
-545.296	33.083	0.117	0.103
-544.281	-29.935	-0.235	-0.136
-543.266	-200.000	0.014	-0.520
-542.252	-91.960	0.055	-0.016
-541.237	-200.000	0.027	0.307
-540.223	-200.000	-0.107	0.000
-539.208	-200.000	-0.011	0.160
-538.193	318.716	0.071	-0.138
-537.179	148.046	-0.230	-0.314
-536.164	281.383	0.077	0.139
-535.150	157.604	-0.188	0.264
-534.135	-71.525	0.259	-0.099
-533.121	800.000	0.028	-0.109
-532.106	800.000	-0.153	-0.499
-531.091	-200.000	-0.005	-0.107
-530.077	138.000	0.341	-0.454
-529.062	-200.000	-0.002	-0.034
-528.048	-200.000	-0.003	-0.158
-527.033	-94.154	0.317	-0.088
-526.018	-200.000	-0.022	-0.130
-525.004	-23.453	0.080	0.049
-523.989	215.266	0.161	0.260
-522.975	800.000	0.019	0.064
-521.960	800.000	0.051	0.215
-520.945	566.789	0.140	-0.346
-519.931	53.842	-0.072	0.071
-518.916	269.700	0.100	-0.178
-517.902	-59.529	-0.109	-0.047
-516.887	609.863	0.158	0.399
-515.872	-200.000	-0.001	0.138
-514.858	-16.041	0.220	0.142
-513.843	-110.125	0.213	0.045
-512.829	77.954	0.080	-0.086
-511.814	462.836	-0.053	-0.120
-510.799	-181.345	-0.244	0.005
-509.785	12.961	0.090	0.070
-508.770	-33.449	0.127	0.071
-507.756	-31.885	0.089	-0.050
-506.741	-200.000	0.030	0.344
-505.726	129.257	0.213	-0.276
-504.712	-87.001	-0.132	-0.041
-503.697	-91.174	-0.236	-0.069
-502.683	444.232	-0.092	-0.206
-501.668	-157.951	0.184	0.011
-500.653	-40.403	0.161	0.085
-499.639	-81.261	-0.227	-0.076
-498.624	-200.000	-0.048	-0.244
-497.610	56.496	-0.034	0.033
-496.595	800.000	0.134	-0.399
-495.581	64.682	-0.136	0.139
-494.566	69.516	-0.124	0.130
-493.551	-31.284	-0.234	-0.134
-492.537	-189.666	0.180	-0.002
-491.522	-84.627	0.224	0.071
-490.508	-139.193	-0.273	0.030
-489.493	-99.426	0.279	0.071
-488.478	-92.490	0.059	-0.017
-487.464	-42.703	0.086	0.044
-486.449	249.119	0.132	-0.227
-485.435	24.288	-0.058	0.048
-484.420	-200.000	0.041	0.228
-483.405	33.296	-0.334	0.294
-482.391	472.269	-0.058	-0.133
-481.376	-124.009	-0.018	0.003
-480.362	11.761	-0.110	0.086
-479.347	180.916	0.058	0.086
-478.332	312.321	-0.094	0.180
-477.318	-200.000	-0.013	-0.210
-476.303	-121.927	0.248	-0.041
-475.289	-152.588	-0.103	0.007
-474.274	675.054	-0.195	0.513
-473.259	339.086	0.106	0.209
-472.245	800.000	0.131	0.422
-471.230	45.795	-0.146	0.137
-470.216	-105.922	-0.081	-0.019
-469.201	-103.280	-0.106	0.025
-468.186	-200.000	0.046	-0.240
-467.172	544.186	0.053	0.127
-466.157	218.083	0.193	0.311
-465.143	-194.435	-0.135	0.001
-464.128	722.791	0.057	-0.153
-463.113	165.444	-0.076	-0.109
-462.099	-25.264	0.092	0.055
-461.084	156.071	0.195	-0.273
-460.070	111.475	-0.403	0.492
-459.055	-79.906	0.336	-0.114
-458.040	800.000	0.042	-0.152
-457.026	-200.000	0.017	-0.249
-456.011	26.322	-0.145	0.122
-454.997	-200.000	-0.010	0.196
-453.982	32.823	0.166	0.145
-452.968	-200.000	-0.064	0.324
-451.953	74.982	0.146	-0.155
-450.938	-111.252	0.059	-0.012
-449.924	-126.478	0.257	-0.039
-448.909	-20.851	0.319	0.198
-447.895	95.263	0.140	-0.161
-446.880	123.764	-0.225	-0.285
-445.865	-200.000	0.039	-0.224
-444.851	-86.724	0.131	-0.040
-443.836	-95.260	0.202	0.055
-442.822	-200.000	-0.001	0.239
-441.807	702.509	0.113	-0.302
-440.792	-165.238	0.244	0.011
-439.778	800.000	-0.022	0.072
-438.763	-96.596	-0.173	0.046
-437.749	12.119	0.151	-0.118
-436.734	-147.460	-0.215	-0.018
-435.719	-31.675	-0.106	-0.060
-434.705	-200.000	-0.019	0.256
-433.690	39.043	-0.123	0.111
-432.676	163.454	-0.043	0.061
-431.661	-60.684	0.205	-0.088
-430.646	-200.000	0.036	-0.197
-429.632	-82.274	-0.259	0.085
-428.617	-97.133	0.106	0.028
-427.603	-116.961	-0.302	-0.056
-426.588	-98.506	-0.143	-0.037
-425.573	-63.611	-0.009	0.004
-424.559	253.131	0.118	0.204
-423.544	-67.962	-0.102	0.040
-422.530	800.000	-0.067	-0.221
-421.515	-200.000	-0.026	-0.156
-420.500	339.219	0.121	-0.239
-419.486	-133.360	-0.286	0.036
-418.471	800.000	-0.039	0.137
-417.457	62.341	-0.099	-0.099
-416.442	33.972	0.130	-0.115
-415.428	314.183	0.139	0.265
-414.413	-186.528	0.161	-0.002
-413.398	-200.000	0.003	0.039
-412.384	-6.219	-0.196	-0.135
-411.369	800.000	-0.149	0.436
-410.355	800.000	0.086	0.372
-409.340	252.115	0.051	0.087
-408.325	-12.698	-0.101	0.066
-407.311	7.713	-0.048	0.037
-406.296	-200.000	-0.032	0.159
-405.282	800.000	0.043	0.172
-404.267	19.341	0.236	-0.191
-403.252	30.770	0.290	0.250
-402.238	-155.098	0.156	-0.010
-401.223	-200.000	0.106	-0.535
-400.209	239.878	-0.171	-0.288
-399.194	-43.295	-0.169	-0.087
-398.179	-200.000	0.003	-0.153
-397.165	652.772	-0.123	-0.318
-396.150	9.388	0.091	0.069
-395.136	-70.411	0.263	0.101
-394.121	-18.543	-0.086	0.054
-393.106	533.928	0.161	0.384
-392.092	161.743	0.079	-0.111
-391.077	142.434	-0.211	0.283
-390.063	285.899	0.165	0.301
-389.048	80.241	0.099	0.108
-388.033	-68.079	-0.376	-0.148
-387.019	-112.193	-0.091	0.019
-386.004	-81.802	0.146	0.048
-384.990	-102.999	-0.055	-0.013
-383.975	-144.824	-0.159	0.015
-382.960	-200.000	0.015	-0.234
-381.946	-200.000	-0.002	-0.128
-380.931	60.740	-0.033	-0.033
-379.917	-102.248	0.436	-0.106
-378.902	37.779	-0.103	-0.093
-377.888	261.825	-0.101	-0.178
-376.873	-200.000	-0.034	-0.352
-375.858	67.298	-0.006	-0.006
-374.844	-73.346	-0.084	-0.031
-373.829	135.797	-0.160	-0.211
-372.815	-200.000	-0.022	-0.263
-371.800	800.000	0.075	-0.237
-370.785	210.607	-0.119	-0.188
-369.771	176.733	0.123	-0.181
-368.756	170.939	-0.102	-0.147
-367.742	-63.814	-0.284	-0.117
-366.727	-39.761	-0.085	-0.045
-365.712	-49.083	0.091	-0.044
-364.698	-31.277	0.150	0.085
-363.683	-123.895	-0.203	0.032
-362.669	-60.386	-0.174	0.075
-361.654	-114.221	-0.148	-0.029
-360.639	81.392	0.169	-0.185
-359.625	-158.756	0.196	0.011
-358.610	-130.050	0.389	0.054
-357.596	-174.054	0.154	-0.005
-356.581	16.162	-0.069	-0.055
-355.566	-12.983	0.201	0.132
-354.552	-200.000	0.010	0.051
-353.537	56.902	0.143	-0.141
-352.523	-200.000	0.036	-0.298
-351.508	-30.639	-0.200	0.114
-350.493	-99.456	0.063	-0.016
-349.479	-116.464	0.260	-0.048
-348.464	-64.881	0.192	-0.078
-347.450	-200.000	0.054	0.358
-346.435	-15.675	-0.147	-0.095
-345.420	-200.000	0.057	-0.396
-344.406	-13.761	-0.280	-0.183
-343.391	167.411	-0.170	0.244
-342.377	-200.000	-0.006	-0.179
-341.362	30.301	0.231	0.198
-340.348	800.000	0.023	-0.082
-339.333	142.870	0.153	-0.206
-338.318	-200.000	0.003	0.046
-337.304	-29.967	-0.099	-0.057
-336.289	68.139	-0.132	-0.136
-335.275	21.548	0.072	0.059
-334.260	-173.497	-0.224	0.007
-333.245	-200.000	-0.066	-0.415
-332.231	2.002	0.130	-0.095
-331.216	-200.000	-0.004	-0.195
-330.202	-62.767	0.073	-0.030
-329.187	-65.138	-0.086	-0.035
-328.172	-69.223	0.334	0.129
-327.158	-200.000	-0.019	-0.188
-326.143	398.138	-0.137	0.288
-325.129	102.073	-0.151	0.177
-324.114	261.690	0.037	0.064
-323.099	-64.346	0.324	0.133
-322.085	800.000	-0.067	-0.263
-321.070	-48.261	0.033	-0.016
-320.056	338.533	0.216	0.423
-319.041	626.362	-0.120	0.305
-318.026	800.000	-0.060	0.220
-317.012	800.000	0.060	-0.210
-315.997	226.710	0.059	0.096
-314.983	390.536	0.151	-0.316
-313.968	-130.916	0.164	0.022
-312.953	469.223	0.074	-0.168
-311.939	-200.000	0.018	-0.221
-310.924	334.812	0.187	0.364
-309.910	-200.000	-0.014	0.112
-308.895	-200.000	-0.010	0.050
-307.880	214.086	-0.106	-0.168
-306.866	249.988	0.141	0.241
-305.851	21.835	-0.181	-0.148
-304.837	-81.041	0.185	-0.062
-303.822	10.358	0.157	-0.121
-302.807	-144.025	0.186	0.018
-301.793	-59.333	0.142	-0.061
-300.778	-200.000	0.014	0.211
-299.764	-200.000	-0.047	0.212
-298.749	373.715	0.181	-0.370
-297.735	-200.000	0.042	0.253
-296.720	386.405	0.129	0.268
-295.705	800.000	0.030	-0.114
-294.691	-128.955	0.227	-0.032
-293.676	-200.000	-0.004	0.088
-292.662	95.442	-0.140	0.161
-291.647	-63.106	-0.167	0.069
-290.632	191.674	-0.144	0.218
-289.618	-105.003	-0.183	-0.042
-288.603	744.842	0.049	0.133
-287.589	3.218	-0.095	-0.069
-286.574	-7.603	-0.066	-0.045
-285.559	-78.506	0.119	-0.041
-284.545	74.036	0.145	0.153
-283.530	721.372	-0.118	0.316
-282.516	7.868	0.151	-0.114
-281.501	81.899	-0.124	-0.135
-280.486	-142.267	-0.228	0.023
-279.472	-200.000	0.028	0.465
-278.457	800.000	-0.108	0.387
-277.443	-179.065	0.026	0.001
-276.428	-121.682	-0.228	0.038
-275.413	778.417	0.037	-0.100
-274.399	-60.575	0.427	-0.182
-273.384	800.000	0.143	0.460
-272.370	-165.856	0.091	0.004
-271.355	-10.834	-0.170	0.113
-270.340	482.977	0.109	0.248
-269.326	-170.707	0.159	-0.006
-268.311	-40.712	-0.274	-0.143
-267.297	-22.394	0.162	0.098
-266.282	-200.000	0.001	-0.116
-265.267	310.775	-0.164	0.309
-264.253	-200.000	0.004	0.182
-263.238	222.600	-0.061	0.099
-262.224	-55.731	0.066	0.029
-261.209	800.000	0.025	0.082
-260.195	-105.493	0.077	-0.017
-259.180	-195.596	0.083	-0.001
-258.165	-37.117	0.337	-0.181
-257.151	196.945	0.104	0.159
-256.136	-200.000	0.001	-0.042
-255.122	203.786	0.193	-0.300
-254.107	-200.000	0.028	-0.154
-253.092	-64.946	0.117	-0.047
-252.078	626.554	-0.105	-0.266
-251.063	235.577	-0.082	0.135
-250.049	-145.364	0.399	-0.036
-249.034	-164.940	-0.328	-0.015
-248.019	800.000	-0.029	-0.127
-247.005	-105.288	-0.252	-0.058
-245.990	-117.031	-0.141	-0.026
-244.976	190.295	-0.082	0.123
-243.961	-137.951	0.196	-0.022
-242.946	-111.739	-0.039	0.008
-241.932	800.000	-0.073	-0.231
-240.917	-9.804	-0.127	-0.085
-239.903	-200.000	0.049	0.268
-238.888	-22.754	0.144	-0.087
-237.873	800.000	-0.062	-0.220
-236.859	195.255	0.080	0.122
-235.844	-77.065	0.096	0.034
-234.830	215.176	0.226	-0.360
-233.815	-58.177	-0.058	-0.025
-232.800	-45.616	-0.151	-0.075
-231.786	367.906	0.066	0.134
-230.771	32.197	0.009	-0.008
-229.757	-181.785	0.213	-0.004
-228.742	126.473	0.048	0.061
-227.727	-117.468	0.256	-0.046
-226.713	462.588	-0.092	0.205
-225.698	-49.034	-0.154	0.074
-224.684	800.000	-0.083	-0.261
-223.669	-200.000	0.020	-0.115
-222.655	565.486	-0.049	-0.120
-221.640	-79.293	-0.178	0.060
-220.625	-101.752	0.035	0.008
-219.611	-200.000	0.047	0.212
-218.596	-54.518	-0.246	-0.112
-217.582	3.715	0.075	0.055
-216.567	-200.000	0.050	-0.304
-215.552	103.555	-0.092	-0.109
-214.538	-51.145	-0.321	0.151
-213.523	-200.000	-0.020	-0.282
-212.509	800.000	0.121	0.469
-211.494	130.133	-0.284	0.364
-210.479	-200.000	0.015	0.186
-209.465	-21.279	0.037	-0.023
-208.450	-124.232	0.035	0.005
-207.436	-121.387	0.117	0.020
-206.421	-200.000	0.000	-0.190
-205.406	-93.615	-0.282	-0.078
-204.392	252.461	-0.207	-0.353
-203.377	-200.000	-0.023	-0.160
-202.363	-13.514	-0.146	0.095
-201.348	-200.000	0.020	0.243
-200.333	-86.366	-0.074	0.023
-199.319	-185.481	-0.217	0.003
-198.304	-200.000	-0.029	0.199
-197.290	44.297	0.239	-0.220
-196.275	222.009	-0.113	0.181
-195.260	-160.405	-0.145	-0.008
-194.246	56.282	0.197	-0.192
-193.231	-200.000	0.573	-0.001
-192.217	19.669	0.140	-0.113
-191.202	-200.000	0.011	0.297
-190.187	99.066	-0.150	0.173
-189.173	800.000	-0.101	0.372
-188.158	-200.000	0.022	0.222
-187.144	277.584	-0.056	-0.100
-186.129	360.853	0.087	-0.175
-185.114	586.592	-0.146	0.361
-184.100	-72.601	0.084	0.031
-183.085	598.422	0.063	0.157
-182.071	-23.720	0.236	-0.142
-181.056	-200.000	0.033	0.159
-180.042	-200.000	0.022	-0.167
-179.027	-200.000	-0.004	-0.029
-178.012	800.000	0.086	0.252
-176.998	-71.932	-0.254	-0.095
-175.983	800.000	0.079	-0.221
-174.969	36.971	-0.130	-0.115
-173.954	159.109	0.108	-0.150
-172.939	-104.794	-0.152	-0.035
-171.925	-113.254	-0.112	-0.022
-170.910	-120.456	-0.361	0.061
-169.896	96.102	-0.032	-0.037
-168.881	-200.000	0.002	-0.130
-167.866	774.577	0.079	-0.216
-166.852	219.618	0.088	-0.141
-165.837	-35.166	-0.203	0.111
-164.823	-200.000	-0.013	0.251
-163.808	271.543	-0.220	0.388
-162.793	800.000	0.090	0.372
-161.779	250.383	-0.067	-0.113
-160.764	-116.001	-0.292	0.054
-159.750	185.721	-0.191	0.284
-158.735	-126.830	-0.187	0.028
-157.720	96.891	-0.154	-0.176
-156.706	800.000	-0.067	0.272
-155.691	184.808	0.054	-0.080
-154.677	693.270	0.078	0.205
-153.662	101.429	-0.128	0.149
-152.647	-190.668	-0.148	-0.002
-151.633	-118.762	0.284	0.050
-150.618	219.350	-0.071	-0.113
-149.604	-108.476	0.336	-0.072
-148.589	-42.721	0.419	-0.213
-147.574	137.217	-0.101	-0.132
-146.560	751.325	-0.072	0.195
-145.545	800.000	-0.088	0.250
-144.531	-200.000	-0.043	0.298
-143.516	439.550	-0.101	-0.220
-142.502	336.250	-0.170	-0.330
-141.487	0.255	-0.274	-0.195
-140.472	78.814	0.212	0.227
-139.458	245.214	-0.059	-0.099
-138.443	-200.000	-0.001	-0.245
-137.429	-200.000	0.015	-0.081
-136.414	800.000	0.048	-0.190
-135.399	12.413	0.221	0.170
-134.385	106.540	0.148	0.175
-133.370	800.000	-0.017	-0.046
-132.356	-65.385	-0.178	-0.071
-131.341	-200.000	0.024	-0.162
-130.326	-52.866	0.113	-0.052
-129.312	-37.686	0.148	0.079
-128.297	188.337	-0.077	0.114
-127.283	0.208	0.033	0.023
-126.268	800.000	0.051	0.166
-125.253	271.216	0.090	0.158
-124.239	800.000	0.068	0.218
-123.224	106.669	-0.202	0.240
-122.210	104.458	-0.282	-0.331
-121.195	-69.611	0.165	-0.063
-120.180	-185.037	0.259	0.004
-119.166	-131.670	0.265	0.035
-118.151	-200.000	-0.028	0.233
-117.137	129.054	0.252	0.321
-116.122	800.000	-0.068	-0.258
-115.107	619.911	-0.104	0.261
-114.093	596.601	-0.057	0.141
-113.078	-200.000	-0.062	-0.000
-112.064	-200.000	-0.035	0.207
-111.049	288.914	0.105	-0.190
-110.034	-152.876	0.339	-0.024
-109.020	-65.445	0.199	0.080
-108.005	141.372	0.131	-0.173
-106.991	-17.073	0.073	-0.046
-105.976	212.951	0.199	0.313
-104.962	-200.000	0.001	-0.050
-103.947	-200.000	0.053	0.351
-102.932	-200.000	-0.074	0.359
-101.918	-118.365	0.254	-0.045
-100.903	271.046	-0.127	0.223
-99.889	-75.883	-0.453	0.160
-98.874	-200.000	0.010	-0.208
-97.859	-88.687	0.218	-0.065
-96.845	-200.000	0.008	-0.289
-95.830	150.862	-0.070	-0.095
-94.816	-55.448	0.417	-0.187
-93.801	25.535	-0.191	-0.159
-92.786	172.995	0.083	-0.119
-91.772	474.785	-0.111	0.251
-90.757	-200.000	-0.051	0.367
-89.743	-9.473	-0.222	0.148
-88.728	-86.896	-0.168	0.051
-87.713	-200.000	0.073	0.407
-86.699	412.896	0.055	-0.117
-85.684	35.378	-0.060	0.052
-84.670	192.291	0.135	-0.203
-83.655	-95.060	-0.154	-0.042
-82.640	318.847	-0.126	0.239
-81.626	-200.000	-0.007	0.177
-80.611	73.212	0.047	0.049
-79.597	800.000	-0.064	0.190
-78.582	735.448	0.094	0.251
-77.567	-200.000	-0.004	0.039
-76.553	-200.000	-0.033	0.353
-75.538	-101.269	-0.152	0.037
-74.524	-200.000	0.008	-0.149
-73.509	-64.389	-0.212	0.086
-72.494	289.658	-0.061	-0.111
-71.480	283.894	-0.137	0.245
-70.465	139.706	0.161	-0.211
-69.451	-99.808	0.175	-0.044
-68.436	800.000	0.080	0.252
-67.422	44.951	0.151	0.139
-66.407	-91.346	-0.110	-0.031
-65.392	97.934	0.154	0.177
-64.378	-129.762	0.257	-0.035
-63.363	157.873	0.033	-0.045
-62.349	-66.233	0.437	0.174
-61.334	68.154	-0.618	-0.631
-60.319	-200.000	0.004	0.167
-59.305	800.000	-0.214	-0.593
-58.290	63.719	0.709	0.710
-57.276	-200.000	0.107	1.736
-56.261	-200.000	78.056	521.531
-55.246	500.553	1347.721	3099.364
-54.232	143.199	2592.388	3437.834
-53.217	114.422	2255.691	2737.886
-52.203	51.664	1699.186	1610.373
-51.188	43.586	1424.175	1298.106
-50.173	40.093	1378.464	1234.635
-49.159	58.672	1414.787	1384.643
-48.144	64.384	1434.033	1439.393
-47.130	43.999	1395.882	1274.716
-46.115	40.122	1379.023	1235.121
-45.100	39.801	1374.239	1228.790
-44.086	39.661	1371.710	1225.606
-43.071	39.665	1369.838	1223.910
-42.057	39.646	1367.601	1221.748
-41.042	39.780	1365.481	1220.632
-40.027	39.780	1364.009	1219.270
-39.013	39.819	1361.916	1217.588
-37.998	39.892	1359.668	1215.982
-36.984	39.875	1358.219	1214.534
-35.969	40.003	1356.051	1213.331
-34.954	39.946	1354.152	1211.235
-33.940	39.934	1353.645	1210.659
-32.925	40.112	1351.699	1209.962
-31.911	40.009	1350.651	1208.342
-30.896	40.030	1348.990	1206.937
-29.881	39.931	1347.837	1205.252
-28.867	40.029	1346.025	1204.186
-27.852	39.964	1344.760	1202.609
-26.838	40.039	1342.889	1201.345
-25.823	39.932	1341.736	1199.616
-24.809	40.135	1340.001	1199.251
-23.794	39.980	1338.921	1197.292
-22.779	40.026	1337.537	1196.289
-21.765	40.091	1335.726	1195.012
-20.750	40.017	1334.790	1193.679
-19.736	40.006	1332.885	1191.865
-18.721	39.778	1332.132	1189.771
-17.706	39.858	1330.769	1188.989
-16.692	39.957	1329.319	1188.237
-15.677	39.892	1329.279	1187.763
-14.663	39.837	1327.678	1185.956
-13.648	39.827	1326.528	1184.824
-12.633	39.875	1325.258	1183.931
-11.619	39.849	1324.504	1183.052
-10.604	39.925	1323.542	1182.601
-9.590	39.967	1322.670	1182.028
-8.575	39.892	1321.548	1180.530
-7.560	39.954	1320.567	1179.976
-6.546	39.940	1319.875	1179.231
-5.531	39.792	1319.474	1177.936
-4.517	39.887	1318.155	1177.283
-3.502	39.834	1317.410	1176.251
-2.487	39.926	1315.875	1175.386
-1.473	39.994	1312.374	1172.616
-0.458	39.237	1297.826	1155.122
0.556	34.618	1278.020	1112.760
1.571	29.322	1280.780	1084.028
2.586	26.655	1292.911	1078.343
3.600	24.065	1279.715	1051.961
4.615	17.155	1201.364	948.995
5.629	6.490	1118.249	827.519
6.644	1.371	1093.596	782.867
7.659	0.813	1091.644	778.530
8.673	0.704	1090.815	777.307
9.688	0.714	1089.327	776.230
10.702	1.028	1087.245	776.288
11.717	6.134	1094.736	807.859
12.731	14.693	1106.615	860.853
13.746	17.938	1109.836	880.035
14.761	17.622	1108.746	877.467
15.775	16.804	1106.328	871.269
16.790	15.751	1104.579	864.405
17.804	14.924	1102.903	858.775
18.819	14.504	1101.659	855.575
19.834	14.260	1100.727	853.521
20.848	14.021	1099.899	851.579
21.863	13.751	1098.594	849.111
22.877	13.570	1097.960	847.620
23.892	13.501	1097.325	846.704
24.907	13.547	1096.373	846.130
25.921	13.634	1095.708	845.984
26.936	13.689	1094.536	845.287
27.950	13.649	1093.887	844.509
28.965	13.746	1092.520	843.871
29.980	13.725	1091.418	842.837
30.994	13.803	1090.188	842.209
32.009	13.816	1089.185	841.423
33.023	13.852	1087.816	840.475
34.038	13.752	1086.947	839.221
35.053	13.803	1086.250	838.872
36.067	13.753	1085.562	838.011
37.082	13.729	1084.743	837.184
38.096	13.872	1083.847	837.139
39.111	13.654	1083.175	835.449
40.126	13.648	1081.946	834.396
41.140	13.601	1081.094	833.428
42.155	13.501	1079.769	831.834
43.169	13.473	1078.889	830.937
44.184	13.552	1077.624	830.285
45.199	13.544	1076.434	829.259
46.213	13.599	1075.391	828.656
47.228	13.600	1074.358	827.793
48.242	13.595	1073.506	827.034
49.257	13.774	1071.816	826.553
50.271	13.733	1070.973	825.626
51.286	13.682	1070.362	824.828
52.301	13.664	1069.384	823.913
53.315	13.816	1068.004	823.530
54.330	13.650	1067.322	822.107
55.344	13.557	1066.341	820.820
56.359	13.669	1065.468	820.627
57.374	13.599	1064.878	819.755
58.388	13.591	1063.852	818.852
59.403	13.630	1062.935	818.267
60.417	13.577	1062.397	817.521
61.432	13.614	1061.625	817.036
62.447	13.515	1060.681	815.750
63.461	13.591	1060.041	815.559
64.476	13.516	1058.976	814.301
65.490	13.451	1058.359	813.434
66.505	13.533	1057.188	812.865
67.520	13.421	1056.915	812.034
68.534	13.512	1055.935	811.654
69.549	13.504	1055.365	811.104
70.563	13.476	1054.452	810.195
71.578	13.556	1053.700	809.936
72.593	13.489	1052.634	808.718
73.607	13.456	1052.234	808.176
74.622	13.353	1051.713	807.201
75.636	13.483	1050.940	807.174
76.651	13.461	1050.060	806.320
77.666	13.486	1049.636	806.041
78.680	13.416	1049.346	805.409
79.695	13.400	1048.367	804.509
80.709	13.457	1048.025	804.448
81.724	13.603	1046.630	804.015
82.739	13.615	1045.968	803.494
83.753	13.652	1045.381	803.152
84.768	13.774	1044.076	802.671
85.782	13.643	1043.315	801.381
86.797	13.623	1042.779	800.799
87.812	13.831	1041.162	800.490
88.826	13.584	1040.385	798.632
89.841	13.719	1039.531	798.555
90.855	13.702	1038.710	797.774
91.870	13.812	1037.858	797.578
92.884	13.779	1036.937	796.642
93.899	13.733	1035.872	795.529
94.914	13.772	1035.104	795.057
95.928	13.828	1034.612	794.877
96.943	13.690	1033.617	793.385
97.957	13.725	1032.837	792.879
98.972	13.746	1031.370	791.785
99.987	13.733	1030.574	791.042
101.001	13.780	1029.943	790.714
102.016	13.568	1029.706	789.448
103.030	13.705	1028.129	788.820
104.045	13.736	1027.582	788.480
105.060	13.698	1027.065	787.834
106.074	13.698	1025.847	786.829
107.089	13.623	1024.265	785.191
108.103	13.621	1024.327	785.160
109.118	13.506	1023.234	783.706
110.133	13.600	1022.536	783.547
111.147	13.837	1020.897	783.340
112.162	13.667	1020.002	781.785
113.176	13.698	1019.603	781.557
114.191	13.725	1018.899	781.074
115.206	13.786	1018.021	780.619
116.220	13.710	1017.390	779.709
117.235	13.719	1016.335	778.873
118.249	13.781	1015.134	778.174
119.264	13.648	1014.465	776.969
120.279	13.617	1013.856	776.287
121.293	13.741	1013.058	776.192
122.308	13.648	1012.326	775.127
123.322	13.712	1010.861	774.235
124.337	13.694	1009.712	773.203
125.352	13.747	1009.227	773.007
126.366	13.538	1008.396	771.332
127.381	13.715	1006.997	771.013
128.395	13.738	1006.045	770.326
129.410	13.716	1005.418	769.677
130.424	13.763	1004.548	769.160
131.439	13.768	1003.642	768.422
132.454	13.926	1002.594	768.281
133.468	13.922	1001.902	767.662
134.483	13.936	1000.595	766.658
135.497	13.894	999.966	765.917
136.512	13.838	999.416	765.167
137.527	13.880	998.335	764.467
138.541	13.855	997.536	763.672
139.556	13.892	996.822	763.228
140.570	13.854	996.361	762.633
141.585	13.894	995.308	761.942
142.600	14.006	994.621	761.861
143.614	14.112	993.560	761.467
144.629	14.073	992.821	760.659
145.643	13.989	992.006	759.581
146.658	14.034	991.015	758.960
147.673	13.891	990.255	757.660
148.687	13.878	989.565	757.003
149.702	13.910	988.425	756.209
150.716	13.777	987.989	755.206
151.731	13.913	986.786	754.837
152.746	13.894	986.352	754.353
153.760	13.941	985.656	753.966
154.775	14.020	985.069	753.810
155.789	14.030	984.234	753.149
156.804	14.010	983.631	752.530
157.819	13.920	983.267	751.776
158.833	14.088	982.176	751.636
159.848	14.104	981.242	750.927
160.862	14.051	980.467	750.031
161.877	14.012	979.718	749.215
162.892	13.918	978.723	747.961
163.906	13.904	977.875	747.186
164.921	13.933	976.949	746.543
165.935	13.975	975.987	745.932
166.950	14.100	974.767	745.490
167.964	14.053	973.989	744.621
168.979	14.001	973.337	743.821
169.994	14.039	972.016	742.920
171.008	14.049	971.629	742.600
172.023	14.051	971.072	742.118
173.037	14.156	970.100	741.776
174.052	14.092	969.459	740.940
175.067	14.015	968.742	739.981
176.081	14.135	967.933	739.830
177.096	14.112	967.494	739.327
178.110	14.160	966.611	738.802
179.125	14.208	966.360	738.758
180.140	14.125	965.917	737.986
181.154	14.354	965.115	738.322
182.169	14.168	964.691	737.106
183.183	14.329	963.893	737.146
184.198	14.178	963.204	735.885
185.213	14.296	962.406	735.732
186.227	14.391	961.507	735.398
187.242	14.471	960.745	735.106
188.256	14.374	960.303	734.274
189.271	14.395	959.870	733.968
190.286	14.351	958.507	732.668
191.300	14.091	958.480	731.439
192.315	13.984	957.896	730.460
193.329	14.210	957.310	730.939
194.344	14.308	956.283	730.520
195.359	14.268	955.962	730.037
196.373	14.335	955.263	729.732
197.388	14.453	954.656	729.719
198.402	14.435	953.740	728.878
199.417	14.547	953.165	728.861
200.432	14.526	952.612	728.282
201.446	14.646	951.843	728.155
202.461	14.662	951.647	728.008
203.475	14.564	951.060	727.070
204.490	14.509	950.190	726.099
205.504	14.502	949.678	725.615
206.519	14.496	948.885	724.919
207.534	14.549	948.097	724.484
208.548	14.664	947.451	724.422
209.563	14.570	946.868	723.505
210.577	14.502	946.309	722.721
211.592	14.769	945.172	722.945
212.607	14.674	944.324	721.820
213.621	14.681	944.157	721.658
214.636	14.610	943.368	720.685
215.650	14.745	942.393	720.461
216.665	14.781	941.643	719.975
217.680	14.834	940.874	719.553
218.694	14.778	940.459	718.930
219.709	14.858	939.823	718.725
220.723	14.669	939.194	717.370
221.738	14.802	937.729	716.758
222.753	14.712	937.541	716.165
223.767	14.846	936.918	716.199
224.782	14.910	936.225	715.879
225.796	14.951	935.846	715.702
226.811	14.794	935.069	714.376
227.826	14.893	934.119	714.007
228.840	14.931	933.333	713.506
229.855	14.905	932.906	713.007
230.869	14.970	931.709	712.305
231.884	15.004	931.187	711.989
232.899	15.007	930.395	711.330
233.913	14.886	929.584	710.133
234.928	14.926	929.026	709.814
235.942	14.873	928.833	709.380
236.957	14.826	928.139	708.587
237.972	14.925	927.382	708.365
238.986	15.008	926.228	707.773
240.001	14.848	926.290	707.082
241.015	14.990	925.280	706.848
242.030	14.995	924.615	706.299
243.045	14.985	924.007	705.731
244.059	15.055	923.272	705.399
245.074	14.961	922.948	704.693
246.088	15.082	922.182	704.558
247.103	14.987	921.724	703.742
248.117	15.130	920.866	703.626
249.132	15.181	920.287	703.339
250.147	15.191	919.650	702.829
251.161	15.202	918.937	702.269
252.176	15.300	918.263	702.103
253.190	15.256	917.557	701.315
254.205	15.308	916.811	700.902
255.220	15.348	916.356	700.656
256.234	15.411	915.917	700.524
257.249	15.369	914.885	699.499
258.263	15.361	914.058	698.769
259.278	15.407	913.391	698.388
260.293	15.421	913.113	698.174
261.307	15.509	912.163	697.752
262.322	15.594	911.398	697.459
263.336	15.483	910.525	696.269
264.351	15.454	909.955	695.651
265.366	15.678	909.374	696.070
266.380	15.546	909.110	695.262
267.395	15.604	908.040	694.623
268.409	15.553	907.288	693.775
269.424	15.661	906.204	693.331
270.439	15.659	905.689	692.867
271.453	15.583	904.880	691.870
272.468	15.746	904.268	692.014
273.482	15.615	903.659	690.949
274.497	15.653	903.368	690.822
275.512	15.538	902.929	689.951
276.526	15.608	902.517	689.865
277.541	15.750	901.724	689.777
278.555	15.701	901.280	689.177
279.570	15.692	900.790	688.704
280.585	15.868	899.490	688.370
281.599	15.839	898.623	687.526
282.614	15.861	898.157	687.200
283.628	15.837	897.371	686.437
284.643	15.730	896.839	685.532
285.657	15.700	896.327	684.960
286.672	15.841	895.598	684.916
287.687	15.813	894.905	684.213
288.701	15.929	894.426	684.257
289.716	15.905	893.951	683.735
290.730	15.982	893.220	683.428
291.745	16.053	892.264	682.926
292.760	16.034	891.815	682.443
293.774	16.117	890.788	681.932
294.789	16.094	890.267	681.379
295.803	16.115	889.613	680.904
296.818	15.996	888.955	679.860
297.833	16.008	888.544	679.533
298.847	15.946	888.119	678.897
299.862	16.019	887.387	678.573
300.876	15.996	887.107	678.207
301.891	16.054	886.384	677.827
302.906	16.123	885.789	677.588
303.920	16.119	885.145	677.021
304.935	16.161	884.544	676.670
305.949	16.106	884.037	676.001
306.964	16.269	883.085	675.868
307.979	16.233	882.278	675.043
308.993	16.200	882.104	674.720
310.008	16.297	881.463	674.557
311.022	16.345	880.646	674.065
312.037	16.425	879.849	673.714
313.052	16.275	879.323	672.654
314.066	16.263	878.854	672.187
315.081	16.296	878.238	671.789
316.095	16.309	878.004	671.601
317.110	16.274	877.658	671.136
318.125	16.363	876.814	670.788
319.139	16.252	876.421	669.988
320.154	16.327	876.237	670.083
321.168	16.273	875.487	669.235
322.183	16.232	875.124	668.739
323.197	16.357	874.177	668.451
324.212	16.381	873.577	668.025
325.227	16.390	872.774	667.391
326.241	16.433	872.125	667.002
327.256	16.358	871.825	666.421
328.270	16.316	871.332	665.817
329.285	16.298	871.074	665.488
330.300	16.452	869.649	664.950
331.314	16.495	869.422	664.885
332.329	16.376	869.356	664.308
333.343	16.431	868.483	663.800
334.358	16.593	868.013	664.017
335.373	16.580	867.729	663.691
336.387	16.543	867.460	663.278
337.402	16.615	867.024	663.169
338.416	16.646	866.778	663.043
339.431	16.660	866.215	662.608
340.446	16.658	865.724	662.168
341.460	16.665	865.298	661.812
342.475	16.764	864.671	661.658
343.489	16.794	864.336	661.463
344.504	16.764	863.924	660.969
345.519	16.797	863.338	660.593
346.533	16.795	863.143	660.375
347.548	16.759	862.524	659.706
348.562	16.837	861.563	659.216
349.577	16.857	861.158	658.925
350.592	16.770	860.822	658.269
351.606	16.726	859.839	657.292
352.621	16.708	859.277	656.735
353.635	16.830	858.354	656.440
354.650	16.709	857.972	655.624
355.665	16.763	857.533	655.437
356.679	16.890	856.948	655.425
357.694	16.973	855.907	654.890
358.708	16.809	855.446	653.847
359.723	16.926	854.614	653.603
360.738	16.936	854.228	653.291
361.752	16.930	853.547	652.690
362.767	16.828	853.078	651.879
363.781	16.963	852.680	652.037
364.796	17.103	851.768	651.819
365.810	17.105	851.734	651.744
366.825	17.201	851.149	651.605
367.840	17.145	850.673	650.970
368.854	17.118	850.184	650.433
369.869	17.164	850.078	650.470
370.883	17.204	849.260	649.943
371.898	17.084	849.320	649.471
372.913	17.175	848.870	649.418
373.927	17.198	847.926	648.726
374.942	17.194	847.505	648.328
375.956	17.172	847.086	647.869
376.971	17.383	846.573	648.221
377.986	17.385	846.148	647.847
379.000	17.368	845.493	647.226
380.015	17.217	845.262	646.417
381.029	17.309	844.631	646.224
382.044	17.539	843.579	646.235
383.059	17.584	842.955	645.871
384.073	17.490	842.563	645.157
385.088	17.468	842.125	644.682
386.102	17.482	841.240	644.003
387.117	17.468	840.845	643.588
388.132	17.396	840.548	643.033
389.146	17.403	840.190	642.727
390.161	17.484	839.546	642.486
391.175	17.532	839.166	642.317
392.190	17.509	838.345	641.547
393.205	17.428	838.130	641.020
394.219	17.515	837.652	640.924
395.234	17.534	837.295	640.667
396.248	17.524	836.632	640.064
397.263	17.527	836.239	639.717
398.278	17.504	835.875	639.299
399.292	17.553	835.164	638.881
400.307	17.536	834.604	638.332
401.321	17.552	834.411	638.189
402.336	17.545	833.845	637.673
403.350	17.547	833.696	637.508
404.365	17.630	833.084	637.294
405.380	17.694	832.559	637.077
406.394	17.675	831.869	636.421
407.409	17.849	831.258	636.547
408.423	17.809	831.275	636.353
409.438	17.785	831.175	636.131
410.453	17.744	830.353	635.294
411.467	17.877	829.758	635.276
412.482	17.855	829.737	635.121
413.496	17.914	829.144	634.831
414.511	17.803	828.881	634.161
415.526	17.910	828.258	634.026
416.540	17.996	827.592	633.779
417.555	18.009	826.974	633.299
418.569	18.028	826.915	633.269
419.584	18.039	826.041	632.585
420.599	18.003	825.865	632.260
421.613	94.885	1271.656	1389.761
422.628	81.815	1336.622	1389.889
