DTS Sentinel unit serial number:	SN413079Multiplexer serial number:	ORYXHardware model number:	OX4-SRSoftware version number:	ORYX F/W v4.00 Oryx Data Collector v3.7.2.0data status	okinstallation	princeton_trtdifferential loss correction	single-endedforward channel	channel 1reverse channel	N/Adate	2019/09/14time	02:26:35forward acquisition time	60.00reverse acquisition time	0.00gamma	496.2192k internal	0.2336k external	0.2336temperature offset calibration	1.0078default loss term (dB/km)	0.3790temperature slope calibration	1.0000multiplexer offset coefficient	1.0000multiplexer slope coefficient	1.0000fibre end	0.00T internal ref (°C)	26.52T ext. ref 1 (°C)	3.21T ext. ref 2 (°C)	21.50length (m)	temperature (°C)	Stokes	anti-Stokes-747.200	151.119	0.012	0.017
-746.185	-200.000	-0.020	0.112
-745.171	-111.414	-0.239	0.049
-744.156	-200.000	-0.089	0.431
-743.142	800.000	-0.119	0.416
-742.127	-200.000	-0.002	-0.070
-741.112	-17.851	0.342	-0.216
-740.098	318.469	-0.124	-0.236
-739.083	-160.008	0.141	-0.008
-738.069	-74.671	-0.343	0.124
-737.054	23.109	-0.144	-0.118
-736.039	-190.231	-0.224	-0.002
-735.025	121.108	0.125	0.156
-734.010	-23.149	-0.177	0.107
-732.996	-87.834	-0.077	-0.023
-731.981	90.294	-0.307	-0.345
-730.966	-28.055	-0.271	-0.157
-729.952	-28.425	0.189	-0.109
-728.937	76.284	-0.101	-0.107
-727.923	-200.000	-0.028	-0.475
-726.908	275.609	0.069	0.122
-725.894	-200.000	0.008	0.134
-724.879	-150.156	0.477	-0.037
-723.864	244.818	-0.129	-0.218
-722.850	-43.053	0.246	-0.125
-721.835	-200.000	0.010	-0.162
-720.821	172.001	-0.044	-0.063
-719.806	-200.000	-0.021	0.236
-718.791	260.473	-0.261	-0.453
-717.777	25.104	-0.134	0.112
-716.762	-200.000	-0.035	-0.291
-715.748	800.000	-0.036	-0.112
-714.733	-136.016	-0.205	-0.024
-713.718	84.797	-0.265	-0.291
-712.704	-121.948	-0.222	0.037
-711.689	-45.723	-0.415	-0.206
-710.675	127.836	-0.241	0.307
-709.660	-55.613	0.076	0.034
-708.645	-106.861	0.150	0.033
-707.631	-94.776	-0.268	-0.073
-706.616	-52.180	-0.182	-0.085
-705.602	-24.261	-0.272	-0.163
-704.587	-43.655	-0.261	0.132
-703.572	-135.545	-0.288	0.034
-702.558	139.798	-0.191	0.253
-701.543	-54.546	-0.380	0.172
-700.529	-97.067	-0.284	-0.075
-699.514	800.000	-0.045	-0.124
-698.499	37.650	-0.195	-0.173
-697.485	595.518	-0.083	0.207
-696.470	-200.000	-0.001	0.060
-695.456	-49.579	0.186	0.089
-694.441	-144.271	0.067	0.006
-693.426	189.231	0.073	0.110
-692.412	15.636	-0.059	-0.046
-691.397	-142.726	-0.505	-0.049
-690.383	-97.935	-0.394	-0.102
-689.368	40.166	-0.132	-0.119
-688.354	80.532	-0.223	0.241
-687.339	608.221	0.049	0.122
-686.324	286.244	-0.124	-0.225
-685.310	558.813	-0.023	-0.056
-684.295	800.000	-0.068	0.205
-683.281	539.553	-0.097	0.231
-682.266	-101.215	-0.164	-0.040
-681.251	-200.000	0.002	0.018
-680.237	800.000	0.056	0.166
-679.222	51.050	-0.088	-0.084
-678.208	250.324	-0.155	0.263
-677.193	-153.079	-0.095	0.007
-676.178	62.440	0.088	-0.088
-675.164	-81.343	0.040	-0.013
-674.149	-84.312	0.239	-0.076
-673.135	-200.000	-0.005	-0.025
-672.120	155.751	-0.166	-0.228
-671.105	-84.846	-0.308	-0.097
-670.091	-88.584	0.176	-0.053
-669.076	-200.000	-0.034	0.174
-668.062	-142.062	-0.130	-0.013
-667.047	54.264	0.127	-0.122
-666.032	-159.615	-0.064	-0.004
-665.018	-158.450	0.090	0.005
-664.003	-161.727	-0.148	0.008
-662.989	123.026	-0.145	0.182
-661.974	-164.353	0.201	0.009
-660.959	-39.382	-0.142	-0.075
-659.945	138.114	-0.148	-0.194
-658.930	199.502	-0.211	0.323
-657.916	-130.552	0.230	0.031
-656.901	800.000	-0.098	0.275
-655.886	115.528	-0.050	-0.061
-654.872	31.352	0.072	0.062
-653.857	-193.892	-0.124	0.001
-652.843	800.000	0.083	0.293
-651.828	213.984	-0.315	-0.499
-650.814	355.298	0.112	0.224
-649.799	800.000	-0.044	0.152
-648.784	800.000	0.024	-0.104
-647.770	-47.906	-0.129	-0.063
-646.755	-107.301	0.507	0.112
-645.741	-137.722	0.229	-0.026
-644.726	545.763	-0.017	0.041
-643.711	-111.232	0.145	0.030
-642.697	-200.000	-0.040	-0.196
-641.682	-200.000	-0.024	0.242
-640.668	-200.000	-0.100	0.454
-639.653	-90.538	0.199	-0.058
-638.638	800.000	0.072	-0.262
-637.624	-172.156	-0.161	-0.005
-636.609	177.653	0.190	-0.277
-635.595	-7.912	0.155	-0.105
-634.580	52.002	-0.175	0.167
-633.565	-123.824	-0.398	-0.063
-632.551	-158.598	-0.300	0.017
-631.536	-135.380	0.364	-0.043
-630.522	-44.768	-0.127	-0.063
-629.507	205.954	-0.053	-0.082
-628.492	-44.865	-0.171	0.085
-627.478	-76.851	0.109	-0.038
-626.463	-143.192	0.266	0.026
-625.449	50.690	0.160	0.151
-624.434	-200.000	-0.027	-0.242
-623.419	-16.411	0.078	0.049
-622.405	429.434	-0.047	0.101
-621.390	49.137	-0.072	-0.067
-620.376	-144.731	0.153	-0.014
-619.361	-20.486	-0.128	-0.078
-618.346	800.000	-0.054	-0.235
-617.332	-126.000	-0.248	-0.037
-616.317	800.000	-0.061	-0.174
-615.303	-134.403	0.399	-0.049
-614.288	800.000	0.042	-0.169
-613.273	-155.098	0.120	-0.008
-612.259	182.896	0.069	0.101
-611.244	-200.000	-0.003	-0.050
-610.230	488.833	-0.162	-0.370
-609.215	-200.000	-0.047	-0.266
-608.201	-143.221	0.176	-0.017
-607.186	-153.741	0.294	-0.020
-606.171	800.000	-0.169	0.567
-605.157	-28.625	0.253	0.145
-604.142	112.971	-0.073	0.089
-603.128	186.164	-0.088	0.130
-602.113	203.815	-0.083	0.128
-601.098	-72.929	0.176	-0.065
-600.084	-200.000	0.008	0.096
-599.069	-200.000	0.237	-0.000
-598.055	1.106	0.211	-0.151
-597.040	6.504	-0.050	0.037
-596.025	317.281	0.184	-0.347
-595.011	11.482	-0.244	-0.187
-593.996	56.343	0.192	0.186
-592.982	299.006	0.106	-0.194
-591.967	40.541	-0.029	-0.026
-590.952	-76.991	-0.070	-0.024
-589.938	472.817	-0.005	0.011
-588.923	5.483	-0.148	-0.109
-587.909	-200.000	0.023	0.283
-586.894	-46.521	0.235	0.115
-585.879	-200.000	0.016	0.078
-584.865	-178.087	-0.188	0.004
-583.850	26.824	-0.216	-0.181
-582.836	303.974	-0.206	-0.381
-581.821	-25.245	-0.267	-0.158
-580.806	-0.408	-0.117	-0.083
-579.792	747.206	-0.059	0.157
-578.777	-153.998	-0.415	0.028
-577.763	86.426	-0.240	0.265
-576.748	51.425	0.070	-0.067
-575.733	-200.000	0.011	0.234
-574.719	6.898	0.187	-0.139
-573.704	470.317	0.109	0.244
-572.690	-200.000	-0.006	0.075
-571.675	-96.438	0.201	-0.053
-570.661	-15.390	0.176	0.112
-569.646	62.897	-0.409	-0.408
-568.631	95.213	-0.233	-0.264
-567.617	291.474	0.169	0.307
-566.602	-129.450	-0.183	-0.025
-565.588	-70.928	0.353	-0.133
-564.573	-59.274	0.303	-0.130
-563.558	-160.866	0.180	-0.009
-562.544	652.814	-0.038	-0.098
-561.529	-200.000	-0.017	-0.171
-560.515	-81.009	0.106	0.035
-559.500	280.590	-0.265	-0.473
-558.485	-200.000	-0.045	0.204
-557.471	-121.845	0.239	-0.039
-556.456	88.566	-0.068	0.076
-555.442	706.645	-0.052	-0.137
-554.427	25.791	-0.216	-0.179
-553.412	-200.000	0.002	-0.050
-552.398	40.185	-0.151	-0.135
-551.383	-200.000	-0.014	-0.112
-550.369	-200.000	-0.002	0.221
-549.354	-56.195	0.173	0.077
-548.339	800.000	-0.044	0.153
-547.325	661.804	0.083	0.213
-546.310	800.000	-0.018	0.061
-545.296	6.394	-0.179	-0.132
-544.281	-142.930	-0.280	0.027
-543.266	-172.034	-0.222	0.007
-542.252	-200.000	-0.011	0.276
-541.237	4.883	-0.064	0.047
-540.223	800.000	-0.094	-0.265
-539.208	617.977	0.108	-0.270
-538.193	122.421	-0.120	-0.149
-537.179	800.000	0.011	-0.046
-536.164	-24.625	-0.155	-0.092
-535.150	-166.557	0.231	-0.010
-534.135	-200.000	0.016	-0.078
-533.121	189.125	0.106	-0.158
-532.106	487.398	-0.048	-0.108
-531.091	-177.875	-0.228	-0.005
-530.077	-155.324	-0.161	0.010
-529.062	442.779	-0.105	0.229
-528.048	278.138	-0.193	-0.343
-527.033	-200.000	0.005	-0.225
-526.018	-10.801	-0.033	-0.022
-525.004	-132.044	-0.215	0.028
-523.989	-156.888	-0.053	0.003
-522.975	-200.000	0.009	-0.310
-521.960	-200.000	0.035	-0.205
-520.945	-103.508	0.018	-0.004
-519.931	-5.469	-0.254	0.173
-518.916	800.000	0.021	-0.089
-517.902	-188.693	-0.036	-0.000
-516.887	-32.411	0.028	0.016
-515.872	-162.917	-0.040	-0.002
-514.858	-55.133	0.135	0.061
-513.843	-88.176	0.196	-0.058
-512.829	-200.000	-0.021	0.136
-511.814	-200.000	0.017	0.075
-510.799	-200.000	0.024	0.142
-509.785	-134.219	0.304	-0.037
-508.770	109.284	0.212	0.253
-507.756	800.000	0.027	0.104
-506.741	-112.798	-0.129	0.025
-505.726	-86.647	-0.177	-0.054
-504.712	35.224	0.219	0.191
-503.697	800.000	0.007	0.023
-502.683	22.816	0.331	0.270
-501.668	-200.000	-0.020	-0.252
-500.653	102.043	-0.175	0.203
-499.639	37.860	0.245	-0.217
-498.624	-105.008	0.223	-0.051
-497.610	10.695	-0.153	-0.116
-496.595	-99.335	-0.357	-0.089
-495.581	769.148	-0.066	-0.180
-494.566	-200.000	0.042	-0.214
-493.551	-26.713	-0.181	-0.105
-492.537	-39.509	0.166	0.086
-491.522	-90.003	0.065	-0.019
-490.508	-85.487	-0.251	-0.078
-489.493	58.848	0.287	0.281
-488.478	-51.470	-0.318	-0.148
-487.464	255.854	-0.111	0.189
-486.449	-98.088	-0.193	0.049
-485.435	-200.000	-0.005	-0.109
-484.420	-16.112	-0.223	-0.141
-483.405	239.495	-0.134	-0.222
-482.391	10.064	-0.282	-0.213
-481.376	800.000	0.037	-0.109
-480.362	47.682	-0.391	-0.362
-479.347	800.000	0.008	0.028
-478.332	800.000	-0.065	-0.210
-477.318	800.000	0.041	0.149
-476.303	-47.284	-0.133	0.065
-475.289	-81.439	0.135	0.044
-474.274	-67.438	0.130	-0.051
-473.259	-200.000	0.030	0.168
-472.245	-23.106	0.123	-0.073
-471.230	-98.194	0.252	-0.064
-470.216	-159.521	-0.311	-0.017
-469.201	209.519	-0.131	-0.204
-468.186	-80.659	0.337	0.111
-467.172	800.000	0.013	-0.047
-466.157	274.899	-0.140	0.246
-465.143	-200.000	-0.007	-0.369
-464.128	53.665	0.249	-0.238
-463.113	-139.597	-0.394	0.042
-462.099	-88.950	0.143	-0.042
-461.084	175.109	-0.080	-0.115
-460.070	-104.732	0.197	0.045
-459.055	209.261	0.198	-0.308
-458.040	-66.911	-0.267	0.105
-457.026	142.260	0.124	0.163
-456.011	-11.705	0.048	-0.031
-454.997	-19.470	-0.332	0.204
-453.982	-31.322	0.181	-0.101
-452.968	800.000	0.126	0.451
-451.953	-161.129	0.101	0.005
-450.938	32.951	0.110	0.095
-449.924	483.770	0.156	0.352
-448.909	-200.000	-0.006	0.029
-447.895	-200.000	0.077	0.548
-446.880	-200.000	0.011	-0.127
-445.865	-200.000	0.003	-0.147
-444.851	-65.240	0.273	0.109
-443.836	53.836	0.172	-0.164
-442.822	-37.378	0.218	-0.115
-441.807	659.427	0.182	0.464
-440.792	-114.877	-0.377	0.071
-439.778	-64.585	-0.104	0.042
-438.763	115.195	0.028	0.033
-437.749	-186.862	0.261	0.004
-436.734	-10.304	-0.151	-0.100
-435.719	59.114	0.179	0.175
-434.705	-22.327	-0.168	0.101
-433.690	-104.412	-0.287	-0.066
-432.676	-124.554	0.217	0.033
-431.661	55.901	0.249	0.240
-430.646	800.000	0.107	0.301
-429.632	-122.179	-0.121	0.020
-428.617	25.177	-0.366	0.302
-427.603	800.000	-0.015	-0.046
-426.588	-47.177	-0.187	-0.090
-425.573	-200.000	-0.017	-0.433
-424.559	-9.659	-0.215	0.142
-423.544	800.000	-0.051	-0.209
-422.530	-123.813	0.175	-0.027
-421.515	-200.000	0.000	-0.291
-420.500	-115.009	0.275	0.052
-419.486	-141.414	0.191	0.019
-418.471	-25.385	0.201	-0.118
-417.457	-12.955	0.347	0.224
-416.442	6.757	0.102	-0.076
-415.428	-81.746	-0.128	-0.042
-414.413	52.487	0.082	-0.078
-413.398	800.000	0.047	-0.163
-412.384	11.264	0.084	0.063
-411.369	-118.843	0.176	0.031
-410.355	-18.786	-0.191	0.118
-409.340	167.826	0.189	0.267
-408.325	-69.400	0.186	0.071
-407.311	496.632	-0.027	-0.062
-406.296	-200.000	-0.050	0.421
-405.282	-80.228	-0.133	0.044
-404.267	-112.746	-0.243	-0.048
-403.252	607.552	0.107	0.265
-402.238	-77.024	0.270	0.093
-401.223	-65.605	0.068	-0.027
-400.209	272.715	-0.188	-0.329
-399.194	-108.223	-0.123	0.026
-398.179	-200.000	0.026	-0.196
-397.165	215.997	0.101	0.159
-396.150	-47.228	-0.263	0.127
-395.136	648.313	0.091	-0.231
-394.121	800.000	0.062	0.212
-393.106	388.237	0.088	-0.180
-392.092	-105.780	-0.118	0.026
-391.077	-200.000	-0.027	-0.433
-390.063	230.782	-0.090	-0.146
-389.048	26.282	-0.019	-0.016
-388.033	416.010	0.139	-0.295
-387.019	410.019	-0.140	0.295
-386.004	-173.354	-0.104	0.003
-384.990	-175.355	0.244	-0.007
-383.975	-13.265	-0.212	0.136
-382.960	39.735	0.130	-0.116
-381.946	460.126	0.140	-0.309
-380.931	-200.000	0.014	0.084
-379.917	-12.057	0.100	-0.065
-378.902	-110.029	0.221	-0.046
-377.888	-172.380	0.099	0.003
-376.873	-77.789	0.414	-0.142
-375.858	-56.996	0.047	0.020
-374.844	-9.452	-0.212	-0.140
-373.829	25.860	-0.299	-0.247
-372.815	-106.180	0.205	0.046
-371.800	-200.000	0.044	-0.219
-370.785	-167.765	-0.044	-0.002
-369.771	800.000	0.098	0.320
-368.756	-200.000	0.040	0.200
-367.742	238.827	0.073	-0.119
-366.727	-79.610	0.129	-0.043
-365.712	236.794	-0.197	-0.323
-364.698	-111.277	-0.274	-0.055
-363.683	19.664	0.248	-0.198
-362.669	354.167	-0.062	0.123
-361.654	-74.703	-0.209	-0.075
-360.639	-41.939	-0.238	0.121
-359.625	415.603	0.070	-0.148
-358.610	-200.000	-0.019	0.168
-357.596	-200.000	0.014	0.076
-356.581	33.665	-0.221	-0.190
-355.566	229.635	0.070	0.113
-354.552	-81.831	-0.071	0.023
-353.537	91.601	0.197	0.219
-352.523	-28.522	0.040	-0.023
-351.508	74.153	0.264	0.275
-350.493	58.439	0.165	-0.160
-349.479	-79.044	-0.100	0.034
-348.464	92.263	-0.215	0.240
-347.450	137.953	-0.190	0.247
-346.435	550.135	0.094	-0.224
-345.420	-200.000	-0.028	0.188
-344.406	35.704	-0.128	-0.111
-343.391	-98.715	-0.266	0.067
-342.377	86.968	0.047	-0.051
-341.362	26.248	0.140	-0.116
-340.348	-200.000	0.004	0.206
-339.333	-91.629	0.156	0.044
-338.318	327.158	0.241	0.456
-337.304	549.624	-0.057	0.136
-336.289	-200.000	0.013	0.242
-335.275	195.736	-0.223	-0.335
-334.260	-124.513	-0.201	-0.031
-333.245	-103.194	0.090	-0.021
-332.231	30.840	-0.185	0.156
-331.216	192.624	0.030	-0.045
-330.202	-120.971	-0.157	0.026
-329.187	-40.059	0.153	-0.079
-328.172	-79.409	-0.235	0.078
-327.158	128.754	-0.126	0.159
-326.143	25.482	0.137	-0.113
-325.129	800.000	-0.059	0.185
-324.114	-200.000	0.021	-0.244
-323.099	172.943	0.174	0.248
-322.085	-131.186	0.211	0.028
-321.070	800.000	0.102	-0.377
-320.056	-90.999	0.346	0.098
-319.041	-130.260	0.252	0.034
-318.026	-11.255	-0.189	0.123
-317.012	-200.000	-0.056	-0.455
-315.997	497.835	0.034	0.076
-314.983	80.281	0.135	0.144
-313.968	-91.305	0.250	0.071
-312.953	-200.000	0.008	0.081
-311.939	298.479	-0.081	-0.147
-310.924	706.429	-0.084	0.220
-309.910	27.080	-0.262	0.217
-308.895	81.887	-0.185	-0.198
-307.880	133.659	0.333	-0.425
-306.866	-65.545	-0.054	-0.021
-305.851	761.563	-0.089	-0.237
-304.837	800.000	-0.049	0.197
-303.822	20.125	-0.095	0.076
-302.807	800.000	-0.072	-0.309
-301.793	-40.146	0.135	-0.069
-300.778	87.935	-0.092	0.101
-299.764	-200.000	-0.016	0.113
-298.749	-200.000	-0.025	0.251
-297.735	572.220	0.019	0.046
-296.720	766.998	0.004	-0.010
-295.705	-180.254	0.110	0.002
-294.691	-129.667	-0.316	-0.043
-293.676	-200.000	-0.008	0.054
-292.662	-94.835	-0.184	0.049
-291.647	512.344	-0.093	-0.215
-290.632	-200.000	-0.008	0.067
-289.618	-22.104	-0.100	0.060
-288.603	-47.025	0.310	0.149
-287.589	270.339	0.104	-0.180
-286.574	-200.000	0.009	-0.175
-285.559	-200.000	-0.000	-0.084
-284.545	80.554	0.138	-0.146
-283.530	14.903	-0.182	0.140
-282.516	800.000	-0.064	-0.261
-281.501	316.984	0.099	-0.184
-280.486	-51.708	0.215	0.099
-279.472	-38.021	-0.129	0.068
-278.457	42.112	-0.130	-0.116
-277.443	-35.235	0.123	-0.066
-276.428	-44.359	0.105	0.052
-275.413	69.761	0.042	0.043
-274.399	541.397	0.077	-0.180
-273.384	5.987	-0.254	0.185
-272.370	800.000	-0.100	0.292
-271.355	63.443	-0.300	0.297
-270.340	237.126	-0.238	0.389
-269.326	-147.673	-0.111	-0.009
-268.311	-173.689	0.202	-0.006
-267.297	-200.000	0.021	-0.218
-266.282	18.070	-0.273	0.214
-265.267	265.934	0.227	-0.391
-264.253	499.254	0.011	-0.026
-263.238	-200.000	-0.046	0.435
-262.224	-199.963	-0.090	-0.000
-261.209	232.801	0.107	0.174
-260.195	-152.308	0.367	-0.026
-259.180	68.634	0.171	0.173
-258.165	78.022	-0.308	0.324
-257.151	-41.272	0.054	-0.027
-256.136	-24.035	0.190	-0.112
-255.122	-23.512	-0.068	-0.040
-254.107	-16.490	-0.319	0.199
-253.092	205.338	0.079	-0.122
-252.078	425.307	-0.073	-0.154
-251.063	23.004	0.117	0.095
-250.049	178.519	-0.187	-0.268
-249.034	391.557	-0.105	0.215
-248.019	51.002	0.058	-0.054
-247.005	800.000	-0.011	-0.031
-245.990	-68.009	0.243	0.093
-244.976	-200.000	0.086	0.381
-243.961	-53.359	-0.370	0.167
-242.946	-200.000	0.039	-0.193
-241.932	106.379	0.093	0.108
-240.917	-96.920	-0.042	-0.011
-239.903	-122.513	0.210	-0.034
-238.888	-200.000	0.030	-0.193
-237.873	312.823	-0.097	-0.179
-236.859	393.069	-0.121	0.248
-235.844	395.957	-0.090	-0.185
-234.830	-125.397	-0.260	0.039
-233.815	34.117	-0.026	-0.023
-232.800	-200.000	-0.001	-0.139
-231.786	2.501	0.220	-0.157
-230.771	-110.225	0.282	-0.058
-229.757	800.000	0.132	0.543
-228.742	586.221	0.080	0.195
-227.727	34.724	0.287	0.247
-226.713	-200.000	0.008	-0.327
-225.698	800.000	0.012	-0.048
-224.684	-143.421	-0.229	0.022
-223.669	-39.889	0.012	-0.006
-222.655	-94.970	0.187	0.050
-221.640	-73.753	-0.092	-0.033
-220.625	-8.304	0.048	0.032
-219.611	-28.998	0.264	0.149
-218.596	-200.000	0.027	0.168
-217.582	146.927	-0.150	-0.198
-216.567	-123.447	-0.484	0.076
-215.552	105.533	0.177	0.206
-214.538	-87.865	-0.315	-0.093
-213.523	-200.000	0.043	0.206
-212.509	-59.808	0.260	-0.109
-211.494	23.416	-0.112	0.091
-210.479	30.565	-0.181	-0.152
-209.465	595.799	0.147	-0.358
-208.450	28.907	0.188	-0.157
-207.436	242.103	-0.165	0.271
-206.421	10.462	-0.277	0.208
-205.406	-125.074	0.143	-0.022
-204.392	-2.626	-0.214	0.147
-203.377	-37.322	-0.250	0.132
-202.363	-35.447	0.362	-0.193
-201.348	-200.000	0.011	-0.126
-200.333	232.750	0.070	0.113
-199.319	-200.000	-0.021	0.277
-198.304	-137.726	0.165	-0.018
-197.290	280.614	0.136	-0.239
-196.275	-25.000	-0.247	0.144
-195.260	800.000	-0.076	-0.264
-194.246	-31.114	0.284	0.157
-193.231	-59.536	0.165	-0.070
-192.217	-200.000	-0.016	0.155
-191.202	305.058	0.172	0.315
-190.187	-14.571	-0.065	0.041
-189.173	-200.000	0.044	0.424
-188.158	490.270	-0.008	-0.019
-187.144	-60.479	0.146	0.061
-186.129	-64.684	-0.258	0.103
-185.114	76.595	-0.091	-0.095
-184.100	-200.000	0.038	0.299
-183.085	80.832	-0.220	-0.234
-182.071	75.323	-0.250	-0.259
-181.056	-154.654	0.184	0.012
-180.042	-200.000	-0.003	-0.173
-179.027	81.406	0.161	0.171
-178.012	249.385	-0.165	-0.274
-176.998	-162.643	-0.314	0.015
-175.983	22.381	0.062	-0.050
-174.969	-106.895	0.271	0.059
-173.954	-179.117	0.333	0.007
-172.939	56.365	-0.086	-0.082
-171.925	-200.000	-0.003	-0.106
-170.910	24.939	0.387	0.315
-169.896	-200.000	0.017	-0.272
-168.881	-17.153	0.189	-0.117
-167.866	13.161	-0.088	-0.067
-166.852	800.000	0.015	0.056
-165.837	-111.438	-0.322	0.064
-164.823	193.370	0.095	-0.141
-163.808	424.000	-0.053	-0.113
-162.793	47.220	-0.259	0.237
-161.779	-98.362	-0.230	0.058
-160.764	-86.845	-0.235	0.071
-159.750	217.522	-0.234	0.366
-158.735	-5.831	-0.012	-0.008
-157.720	82.831	0.090	0.096
-156.706	800.000	0.050	0.143
-155.691	-127.004	0.245	0.035
-154.677	15.046	-0.094	0.072
-153.662	-81.338	-0.113	-0.036
-152.647	-143.313	0.232	-0.022
-151.633	52.039	-0.159	-0.148
-150.618	800.000	0.034	0.105
-149.604	-200.000	-0.010	-0.156
-148.589	488.215	-0.066	-0.147
-147.574	131.471	0.231	-0.292
-146.560	107.421	-0.169	-0.197
-145.545	-200.000	0.054	0.239
-144.531	428.407	-0.048	-0.101
-143.516	800.000	0.133	0.405
-142.502	56.417	0.041	0.039
-141.487	800.000	0.078	-0.214
-140.472	-30.305	-0.108	-0.060
-139.458	229.980	0.096	-0.153
-138.443	357.724	-0.255	-0.499
-137.429	60.652	-0.072	-0.070
-136.414	800.000	0.077	-0.220
-135.399	-200.000	0.052	0.266
-134.385	201.184	0.219	0.330
-133.370	-8.041	0.065	0.043
-132.356	169.106	-0.134	-0.187
-131.341	800.000	-0.047	-0.150
-130.326	-78.541	0.141	-0.047
-129.312	-200.000	0.026	0.207
-128.297	389.498	0.144	0.292
-127.283	278.588	0.066	0.116
-126.268	-107.698	-0.069	0.015
-125.253	-96.185	-0.200	0.052
-124.239	-103.362	0.219	-0.051
-123.224	-200.000	-0.065	0.474
-122.210	800.000	-0.053	0.159
-121.195	-145.557	0.239	0.021
-120.180	-90.620	0.119	-0.034
-119.166	-162.287	-0.305	0.015
-118.151	127.915	-0.070	0.088
-117.137	60.062	-0.302	0.293
-116.122	-157.596	-0.190	0.011
-115.107	-104.995	0.276	0.062
-114.093	91.893	-0.055	0.060
-113.078	-31.907	0.108	0.059
-112.064	-71.464	0.104	0.038
-111.049	90.085	-0.040	-0.043
-110.034	98.753	-0.122	0.138
-109.020	-82.086	0.009	-0.003
-108.005	373.449	0.128	0.255
-106.991	-75.557	-0.081	0.028
-105.976	339.339	-0.048	0.092
-104.962	800.000	0.016	-0.050
-103.947	245.817	0.016	0.026
-102.932	-200.000	0.028	-0.380
-101.918	800.000	-0.107	0.445
-100.903	-135.699	0.029	-0.003
-99.889	-148.815	0.170	0.014
-98.874	800.000	0.106	0.301
-97.859	-193.693	0.161	0.001
-96.845	215.600	-0.070	0.109
-95.830	-23.955	-0.403	0.236
-94.816	179.788	0.067	0.096
-93.801	-200.000	0.040	0.282
-92.786	800.000	-0.075	0.282
-91.772	-200.000	-0.033	-0.317
-90.757	49.842	-0.091	0.084
-89.743	24.493	0.128	0.104
-88.728	322.512	-0.111	0.207
-87.713	-200.000	0.038	-0.185
-86.699	130.459	-0.184	0.231
-85.684	-74.395	-0.228	0.081
-84.670	131.150	-0.163	-0.204
-83.655	212.715	0.095	0.147
-82.640	-172.870	-0.231	0.007
-81.626	16.143	0.295	0.228
-80.611	379.222	-0.109	-0.219
-79.597	-107.434	-0.377	-0.081
-78.582	466.260	0.129	0.282
-77.567	-200.000	0.050	0.281
-76.553	800.000	0.075	0.230
-75.538	187.092	0.027	0.039
-74.524	-200.000	0.017	0.262
-73.509	77.823	0.144	0.150
-72.494	-61.355	-0.238	-0.098
-71.480	-82.826	0.317	-0.100
-70.465	91.820	-0.114	-0.126
-69.451	458.447	-0.077	0.167
-68.436	152.166	-0.096	0.128
-67.422	-200.000	-0.003	-0.076
-66.407	-11.570	0.046	-0.030
-65.392	130.473	0.062	0.078
-64.378	-99.047	0.214	0.053
-63.363	30.434	0.146	-0.122
-62.349	-140.261	-0.147	-0.015
-61.334	40.965	-0.985	-0.870
-60.319	77.183	0.693	0.720
-59.305	800.000	-0.335	-1.160
-58.290	169.967	0.736	1.028
-57.276	-200.000	0.309	1.573
-56.261	-200.000	116.372	648.699
-55.246	508.513	1539.214	3494.728
-54.232	175.376	2710.664	3840.600
-53.217	106.143	2155.748	2495.757
-52.203	38.259	1589.041	1383.136
-51.188	29.925	1331.706	1109.410
-50.173	26.959	1293.012	1059.841
-49.159	53.442	1350.764	1265.993
-48.144	51.848	1364.157	1269.000
-47.130	30.024	1318.585	1098.894
-46.115	26.642	1300.524	1063.970
-45.100	26.432	1295.770	1058.811
-44.086	26.297	1293.212	1055.887
-43.071	26.360	1290.346	1053.871
-42.057	26.351	1288.265	1052.078
-41.042	26.308	1287.022	1050.771
-40.027	26.386	1285.847	1050.225
-39.013	26.370	1283.300	1048.007
-37.998	26.379	1281.773	1046.776
-36.984	26.526	1279.792	1045.966
-35.969	26.519	1277.958	1044.382
-34.954	26.630	1276.202	1043.545
-33.940	26.618	1274.907	1042.374
-32.925	26.598	1273.550	1041.112
-31.911	26.641	1272.050	1040.090
-30.896	26.586	1270.785	1038.702
-29.881	26.637	1269.309	1037.743
-28.867	26.594	1268.219	1036.566
-27.852	26.545	1266.722	1035.019
-26.838	26.623	1265.213	1034.191
-25.823	26.665	1264.089	1033.472
-24.809	26.607	1262.758	1032.012
-23.794	26.548	1261.097	1030.278
-22.779	26.504	1260.338	1029.367
-21.765	26.639	1258.579	1028.657
-20.750	26.618	1257.616	1027.708
-19.736	26.510	1255.975	1025.712
-18.721	26.405	1255.563	1024.739
-17.706	26.524	1254.120	1024.199
-16.692	26.538	1252.818	1023.172
-15.677	26.363	1252.454	1021.844
-14.663	26.429	1250.775	1020.807
-13.648	26.541	1248.953	1019.913
-12.633	26.481	1248.677	1019.310
-11.619	26.493	1247.538	1018.407
-10.604	26.435	1247.342	1017.876
-9.590	26.472	1245.913	1016.877
-8.575	26.396	1244.819	1015.522
-7.560	26.442	1244.397	1015.394
-6.546	26.448	1243.703	1014.821
-5.531	26.434	1242.515	1013.731
-4.517	26.547	1241.341	1013.364
-3.502	26.458	1240.889	1012.460
-2.487	26.386	1239.801	1011.130
-1.473	26.356	1235.876	1007.721
-0.458	24.992	1221.240	988.228
0.556	21.966	1204.382	952.125
1.571	18.343	1211.295	937.702
2.586	17.443	1226.446	944.358
3.600	17.110	1214.198	933.011
4.615	12.836	1143.389	856.366
5.629	6.100	1073.125	770.723
6.644	3.379	1055.155	744.617
7.659	3.119	1053.178	741.903
8.673	3.120	1052.133	741.105
9.688	3.212	1051.352	740.931
10.702	3.419	1048.667	739.970
11.717	7.240	1053.543	761.740
12.731	14.505	1063.712	804.178
13.746	18.911	1069.652	829.920
14.761	19.567	1069.800	833.125
15.775	18.834	1068.012	828.126
16.790	17.819	1066.074	821.664
17.804	17.113	1064.481	816.971
18.819	16.759	1063.775	814.652
19.834	16.646	1062.731	813.236
20.848	16.470	1062.432	812.090
21.863	16.341	1060.913	810.241
22.877	16.243	1060.481	809.368
23.892	16.132	1059.673	808.148
24.907	16.202	1059.138	808.006
25.921	16.233	1058.040	807.244
26.936	16.141	1056.748	805.745
27.950	16.185	1055.606	805.012
28.965	16.385	1053.640	804.397
29.980	16.420	1052.367	803.522
30.994	16.431	1051.297	802.686
32.009	16.526	1050.764	802.655
33.023	16.423	1049.546	801.166
34.038	16.324	1048.413	799.764
35.053	16.240	1047.667	798.726
36.067	16.261	1046.765	798.065
37.082	16.512	1045.555	798.256
38.096	16.370	1045.662	797.597
39.111	16.412	1044.448	796.799
40.126	16.304	1042.984	795.103
41.140	16.150	1041.564	793.229
42.155	16.053	1040.465	791.864
43.169	15.953	1039.652	790.706
44.184	15.946	1038.775	789.938
45.199	16.051	1037.201	789.161
46.213	16.133	1036.463	788.916
47.228	16.328	1035.090	788.711
48.242	16.302	1034.634	788.171
49.257	16.250	1033.553	787.036
50.271	16.300	1032.564	786.445
51.286	16.265	1032.260	785.983
52.301	16.347	1031.249	785.526
53.315	16.157	1030.129	783.721
54.330	16.207	1028.801	782.870
55.344	16.178	1027.759	781.872
56.359	16.181	1027.160	781.362
57.374	16.055	1026.267	780.031
58.388	15.983	1025.427	778.992
59.403	15.873	1024.559	777.755
60.417	15.935	1023.704	777.325
61.432	15.973	1022.823	776.759
62.447	15.929	1022.253	776.057
63.461	15.775	1021.281	774.540
64.476	15.891	1020.563	774.459
65.490	15.823	1019.349	773.161
66.505	15.914	1018.863	773.141
67.520	16.002	1017.806	772.673
68.534	15.888	1017.430	771.797
69.549	15.886	1016.408	770.946
70.563	15.941	1015.577	770.499
71.578	15.837	1014.827	769.383
72.593	15.703	1013.967	768.052
73.607	15.640	1013.549	767.378
74.622	15.758	1012.670	767.186
75.636	15.681	1012.051	766.296
76.651	15.838	1010.963	766.121
77.666	15.821	1011.083	766.065
78.680	15.837	1009.770	765.074
79.695	15.919	1009.107	764.877
80.709	15.804	1009.058	764.251
81.724	16.095	1008.216	764.866
82.739	16.076	1007.806	764.400
83.753	16.251	1007.079	764.577
84.768	16.510	1006.046	764.897
85.782	16.631	1005.092	764.651
86.797	16.462	1004.025	763.009
87.812	16.376	1003.103	761.851
88.826	16.376	1002.382	761.234
89.841	16.404	1001.531	760.650
90.855	16.443	1000.822	760.216
91.870	16.566	999.886	759.991
92.884	16.436	999.026	758.687
93.899	16.582	998.328	758.748
94.914	16.609	997.747	758.357
95.928	16.599	996.972	757.660
96.943	16.464	995.524	755.884
97.957	16.421	994.542	754.880
98.972	16.517	993.932	754.780
99.987	16.486	992.936	753.820
101.001	16.392	992.178	752.758
102.016	16.455	991.163	752.202
103.030	16.599	990.486	752.260
104.045	16.468	989.764	751.066
105.060	16.385	988.465	749.646
106.074	16.163	987.572	747.918
107.089	15.955	986.805	746.347
108.103	15.954	985.815	745.527
109.118	15.986	984.791	744.830
110.133	15.870	984.472	744.012
111.147	16.036	982.785	743.400
112.162	16.083	981.942	742.904
113.176	15.982	981.890	742.354
114.191	16.133	981.261	742.480
115.206	16.067	980.300	741.394
116.220	16.095	979.452	740.813
117.235	16.062	978.284	739.717
118.249	16.063	977.379	738.975
119.264	16.050	976.761	738.384
120.279	15.981	975.893	737.361
121.293	15.970	974.903	736.499
122.308	15.809	973.705	734.826
123.322	15.875	972.438	734.091
124.337	15.944	971.898	733.922
125.352	15.805	971.202	732.722
126.366	15.844	969.630	731.640
127.381	15.955	968.788	731.427
128.395	15.929	967.993	730.647
129.410	15.941	967.289	730.102
130.424	16.005	966.369	729.621
131.439	15.995	965.766	729.058
132.454	16.228	964.992	729.417
133.468	16.041	964.155	727.910
134.483	16.081	963.681	727.663
135.497	16.181	962.821	727.380
136.512	16.092	961.740	726.114
137.527	16.272	961.032	726.290
138.541	16.041	960.380	724.742
139.556	16.252	959.636	725.023
140.570	16.228	959.313	724.610
141.585	16.459	958.234	724.724
142.600	16.476	957.475	724.159
143.614	16.534	956.579	723.665
144.629	16.516	956.088	723.150
145.643	16.478	954.982	722.086
146.658	16.385	953.879	720.795
147.673	16.300	952.780	719.536
148.687	16.236	952.326	718.856
149.702	16.277	950.975	717.950
150.716	16.212	950.207	717.028
151.731	16.178	950.064	716.715
152.746	16.309	949.341	716.659
153.760	16.375	948.799	716.469
154.775	16.478	948.104	716.317
155.789	16.446	946.945	715.243
156.804	16.478	946.699	715.127
157.819	16.592	945.663	714.765
158.833	16.625	945.523	714.733
159.848	16.591	944.843	714.013
160.862	16.622	943.380	712.974
161.877	16.414	942.024	711.014
162.892	16.239	941.441	709.775
163.906	16.199	940.751	709.024
164.921	16.324	939.656	708.659
165.935	16.503	938.929	708.797
166.950	16.485	938.045	707.992
167.964	16.477	937.034	707.135
168.979	16.393	936.321	706.181
169.994	16.434	935.239	705.475
171.008	16.502	934.606	705.219
172.023	16.574	934.094	705.072
173.037	16.584	933.654	704.719
174.052	16.543	932.679	703.749
175.067	16.428	931.619	702.408
176.081	16.391	930.692	701.494
177.096	16.377	930.437	701.182
178.110	16.242	930.369	700.506
179.125	16.327	929.823	700.386
180.140	16.403	929.244	700.205
181.154	16.504	928.598	700.073
182.169	16.564	928.138	699.912
183.183	16.666	927.730	699.964
184.198	16.766	926.562	699.436
185.213	16.745	925.696	698.634
186.227	16.721	925.568	698.376
187.242	16.754	925.043	698.054
188.256	16.873	924.237	697.873
189.271	16.754	923.696	696.913
190.286	16.606	922.498	695.340
191.300	16.247	921.775	693.257
192.315	16.194	920.939	692.351
193.329	16.263	920.720	692.410
194.344	16.485	919.864	692.612
195.359	16.596	919.199	692.508
196.373	16.721	918.643	692.538
197.388	16.656	918.836	692.353
198.402	16.859	918.215	692.657
199.417	16.939	917.353	692.270
200.432	17.027	917.011	692.310
201.446	17.311	916.322	692.888
202.461	17.292	915.666	692.253
203.475	17.136	915.123	691.146
204.490	16.900	913.974	689.257
205.504	16.937	912.951	688.575
206.519	16.761	912.880	687.748
207.534	16.866	912.048	687.484
208.548	16.880	911.603	687.145
209.563	16.823	911.050	686.434
210.577	16.905	910.058	685.958
211.592	17.156	909.526	686.512
212.607	17.172	908.786	685.959
213.621	17.057	907.959	684.808
214.636	17.084	907.374	684.417
215.650	17.181	906.686	684.226
216.665	17.083	906.354	683.522
217.680	17.306	905.463	683.687
218.694	17.368	904.759	683.343
219.709	17.291	904.165	682.526
220.723	17.221	903.296	681.529
221.738	17.045	902.768	680.363
222.753	17.196	902.309	680.563
223.767	17.307	901.692	680.481
224.782	17.268	901.393	680.040
225.796	17.413	900.659	680.004
226.811	17.237	900.187	678.885
227.826	17.356	899.016	678.415
228.840	17.170	898.452	677.188
229.855	17.277	897.591	676.908
230.869	17.129	897.033	675.838
231.884	17.089	896.039	674.867
232.899	16.948	895.588	673.908
233.913	17.043	894.880	673.694
234.928	16.991	894.401	673.066
235.942	16.932	893.590	672.163
236.957	17.153	892.915	672.471
237.972	17.018	892.752	671.755
238.986	17.056	891.920	671.220
240.001	17.131	891.405	671.072
241.015	17.187	890.780	670.761
242.030	17.296	889.996	670.543
243.045	17.230	889.648	669.958
244.059	17.231	889.213	669.575
245.074	17.257	888.470	669.059
246.088	17.384	887.897	669.068
247.103	17.322	887.317	668.327
248.117	17.667	886.641	669.114
249.132	17.784	886.421	669.347
250.147	17.729	885.940	668.712
251.161	17.703	885.697	668.367
252.176	17.945	884.512	668.362
253.190	17.884	884.147	667.786
254.205	18.069	883.178	667.721
255.220	17.882	883.215	666.955
256.234	18.037	881.730	666.380
257.249	17.925	881.242	665.519
258.263	17.872	880.825	664.939
259.278	18.004	879.610	664.475
260.293	17.916	879.629	664.087
261.307	18.010	878.884	663.832
262.322	18.127	878.156	663.676
263.336	18.125	877.530	663.137
264.351	18.109	876.918	662.556
265.366	18.221	876.190	662.378
266.380	18.194	875.493	661.690
267.395	18.191	874.568	660.920
268.409	17.998	874.124	659.779
269.424	17.948	873.515	659.070
270.439	18.060	872.418	658.614
271.453	17.810	872.005	657.281
272.468	17.857	871.276	656.854
273.482	17.958	870.698	656.749
274.497	17.961	869.987	656.166
275.512	18.077	869.539	656.217
276.526	17.896	869.555	655.477
277.541	18.117	868.595	655.542
278.555	18.187	868.244	655.486
279.570	18.229	867.711	655.188
280.585	18.141	866.974	654.237
281.599	18.167	865.713	653.324
282.614	18.107	865.264	652.701
283.628	18.136	864.744	652.360
284.643	18.148	864.083	651.852
285.657	18.170	863.826	651.682
286.672	18.006	863.140	650.483
287.687	18.141	862.331	650.330
288.701	18.066	862.083	649.798
289.716	18.358	860.924	649.977
290.730	18.208	860.767	649.232
291.745	18.304	860.051	648.999
292.760	18.265	859.706	648.534
293.774	18.503	858.963	648.817
294.789	18.444	858.341	648.066
295.803	18.182	857.396	646.304
296.818	18.300	857.014	646.407
297.833	18.485	855.787	646.118
298.847	18.333	855.939	645.604
299.862	18.349	855.505	645.280
300.876	18.521	854.890	645.408
301.891	18.371	854.841	644.749
302.906	18.480	854.137	644.568
303.920	18.631	853.113	644.307
304.935	18.744	852.618	644.300
305.949	18.664	852.289	643.696
306.964	18.589	851.125	642.479
307.979	18.493	850.738	641.768
308.993	18.601	850.184	641.700
310.008	18.702	849.560	641.548
311.022	18.643	848.915	640.785
312.037	18.537	848.525	640.040
313.052	18.327	847.976	638.783
314.066	18.343	847.232	638.226
315.081	18.432	846.772	638.155
316.095	18.349	846.275	637.415
317.110	18.493	845.294	637.154
318.125	18.310	845.155	636.313
319.139	18.406	844.617	636.208
320.154	18.292	844.225	635.432
321.168	18.429	843.398	635.261
322.183	18.619	842.738	635.413
323.197	18.448	842.687	634.686
324.212	18.388	842.223	634.059
325.227	18.497	841.372	633.763
326.241	18.453	840.745	633.074
327.256	18.552	839.984	632.809
328.270	18.541	839.226	632.143
329.285	18.473	839.039	631.694
330.300	18.427	838.426	631.007
331.314	18.483	837.957	630.805
332.329	18.668	837.523	631.102
333.343	18.642	837.083	630.619
334.358	18.816	836.849	631.028
335.373	18.694	836.642	630.369
336.387	18.757	836.141	630.166
337.402	18.757	836.081	630.064
338.416	18.962	835.610	630.405
339.431	19.030	835.147	630.248
340.446	19.179	834.840	630.507
341.460	19.065	834.439	629.730
342.475	19.144	834.254	629.825
343.489	19.194	833.408	629.312
344.504	19.250	833.082	629.215
345.519	19.186	832.667	628.615
346.533	19.273	831.816	628.231
347.548	19.168	831.360	627.449
348.562	18.944	830.652	626.043
349.577	19.051	829.951	625.849
350.592	18.998	829.254	625.077
351.606	18.975	828.446	624.327
352.621	18.975	827.898	623.860
353.635	19.002	827.711	623.763
354.650	18.963	827.021	623.047
355.665	18.983	826.644	622.779
356.679	19.186	826.191	623.118
357.694	19.109	825.170	622.013
358.708	19.046	824.653	621.342
359.723	19.217	823.559	621.079
360.738	19.248	822.970	620.690
361.752	19.206	822.728	620.303
362.767	19.307	822.200	620.212
363.781	19.414	822.105	620.472
364.796	19.546	821.560	620.480
365.810	19.466	821.196	619.863
366.825	19.564	820.469	619.612
367.840	19.630	820.049	619.475
368.854	19.549	819.616	618.803
369.869	19.496	818.953	618.057
370.883	19.532	818.925	618.110
371.898	19.559	818.433	617.780
372.913	19.660	818.246	617.948
373.927	19.596	817.331	616.974
374.942	19.478	816.877	616.153
375.956	19.680	816.762	616.733
376.971	19.599	816.674	616.322
377.986	19.731	816.102	616.308
379.000	19.744	815.424	615.790
380.015	19.742	815.204	615.561
381.029	19.883	814.209	615.254
382.044	19.718	813.835	614.334
383.059	19.723	813.397	613.964
384.073	19.677	812.733	613.247
385.088	19.577	811.887	612.199
386.102	19.602	811.309	611.798
387.117	19.639	810.539	611.295
388.132	19.594	809.815	610.535
389.146	19.621	809.877	610.623
390.161	19.695	809.530	610.570
391.175	19.795	808.933	610.416
392.190	19.542	808.459	609.112
393.205	19.531	808.192	608.820
394.219	19.624	807.599	608.645
395.234	19.624	807.225	608.312
396.248	19.441	806.456	607.035
397.263	19.542	805.914	606.928
398.278	19.530	805.660	606.640
399.292	19.424	805.330	605.964
400.307	19.555	804.760	605.941
401.321	19.530	804.384	605.519
402.336	19.709	803.817	605.665
403.350	19.799	803.431	605.638
404.365	19.745	803.120	605.160
405.380	19.864	803.157	605.549
406.394	20.040	802.514	605.627
407.409	20.033	801.652	604.899
408.423	20.218	801.661	605.499
409.438	20.183	801.265	605.024
410.453	20.167	801.134	604.814
411.467	20.208	800.492	604.418
412.482	20.282	800.236	604.431
413.496	20.342	799.724	604.199
414.511	20.196	799.562	603.515
415.526	20.181	798.980	602.969
416.540	20.314	798.254	602.831
417.555	20.191	798.114	602.243
418.569	20.213	797.171	601.556
419.584	20.343	796.851	601.711
420.599	20.340	796.774	601.589
421.613	161.897	1371.911	1795.464
422.628	140.458	1455.671	1795.558
