DTS Sentinel unit serial number:	SN413079Multiplexer serial number:	ORYXHardware model number:	OX4-SRSoftware version number:	ORYX F/W v4.00 Oryx Data Collector v3.7.2.0data status	okinstallation	princeton_trtdifferential loss correction	single-endedforward channel	channel 1reverse channel	N/Adate	2019/09/11time	05:52:11forward acquisition time	60.00reverse acquisition time	0.00gamma	496.2192k internal	0.2331k external	0.2331temperature offset calibration	0.9923default loss term (dB/km)	0.3790temperature slope calibration	1.0000multiplexer offset coefficient	1.0000multiplexer slope coefficient	1.0000fibre end	0.00T internal ref (°C)	29.42T ext. ref 1 (°C)	-0.23T ext. ref 2 (°C)	23.40length (m)	temperature (°C)	Stokes	anti-Stokes-747.200	-1.286	-0.148	-0.105
-746.185	-61.351	0.325	0.138
-745.171	14.071	-0.009	-0.007
-744.156	-200.000	0.062	0.370
-743.142	264.548	-0.070	0.123
-742.127	-200.000	-0.100	-0.000
-741.112	-155.050	0.152	-0.010
-740.098	-11.838	-0.115	-0.076
-739.083	800.000	-0.058	-0.185
-738.069	-149.025	-0.344	0.028
-737.054	102.649	-0.065	-0.077
-736.039	-200.000	0.107	-0.477
-735.025	800.000	0.035	0.101
-734.010	87.266	0.181	-0.202
-732.996	30.477	-0.245	-0.211
-731.981	800.000	-0.042	0.123
-730.966	-76.843	0.264	0.093
-729.952	-200.000	-0.008	-0.278
-728.937	-103.872	0.072	0.017
-727.923	26.600	-0.199	0.167
-726.908	-15.944	0.056	0.036
-725.894	-123.179	-0.424	0.068
-724.879	234.238	-0.175	-0.290
-723.864	10.741	-0.077	-0.059
-722.850	-142.172	-0.246	0.025
-721.835	-128.676	-0.113	0.016
-720.821	-110.028	0.160	-0.034
-719.806	84.246	-0.039	0.043
-718.791	11.536	0.117	0.090
-717.777	167.055	0.181	0.259
-716.762	47.002	-0.030	0.028
-715.748	69.066	0.161	0.166
-714.733	-108.830	-0.343	-0.074
-713.718	-49.010	0.338	-0.163
-712.704	-200.000	-0.018	0.212
-711.689	-73.342	-0.135	-0.050
-710.675	-35.920	0.026	-0.014
-709.660	-200.000	0.002	-0.141
-708.645	397.681	-0.055	0.115
-707.631	-19.144	0.057	0.036
-706.616	416.979	0.053	0.113
-705.602	-59.928	0.208	0.089
-704.587	281.122	0.131	0.235
-703.572	-200.000	-0.033	-0.327
-702.558	705.262	0.111	0.295
-701.543	-6.282	-0.349	-0.239
-700.529	199.365	0.142	-0.219
-699.514	800.000	-0.015	-0.064
-698.499	-99.876	-0.326	-0.082
-697.485	800.000	0.032	0.120
-696.470	800.000	-0.103	-0.290
-695.456	-35.540	0.155	0.085
-694.441	-200.000	-0.014	-0.227
-693.426	-200.000	-0.022	0.162
-692.412	-115.191	-0.335	-0.064
-691.397	-30.291	-0.220	0.126
-690.383	-98.224	-0.038	-0.010
-689.368	-168.175	-0.249	-0.010
-688.354	-34.989	-0.278	-0.153
-687.339	90.908	-0.214	-0.241
-686.324	800.000	0.098	-0.352
-685.310	36.464	-0.139	0.123
-684.295	100.305	-0.227	-0.265
-683.281	28.295	-0.132	-0.112
-682.266	-99.472	0.142	-0.036
-681.251	-200.000	-0.066	0.485
-680.237	-200.000	-0.051	-0.227
-679.222	161.856	-0.135	0.190
-678.208	-200.000	-0.024	0.170
-677.193	-39.243	0.177	-0.093
-676.178	135.841	-0.193	0.252
-675.164	-33.870	-0.059	0.033
-674.149	196.907	0.189	-0.290
-673.135	-121.305	-0.357	0.060
-672.120	-200.000	0.029	-0.205
-671.105	30.588	-0.093	0.080
-670.091	-101.774	0.175	-0.043
-669.076	800.000	0.019	-0.064
-668.062	271.990	0.029	-0.052
-667.047	69.914	0.083	-0.086
-666.032	399.850	0.130	-0.273
-665.018	-127.014	-0.092	0.014
-664.003	4.244	-0.240	-0.176
-662.989	21.994	0.098	0.080
-661.974	74.942	-0.078	-0.083
-660.959	800.000	-0.135	-0.474
-659.945	69.762	0.161	0.167
-658.930	-177.342	0.022	0.001
-657.916	-157.167	0.313	-0.019
-656.901	174.882	0.076	-0.110
-655.886	690.320	0.029	-0.075
-654.872	86.449	-0.210	0.232
-653.857	-12.548	0.128	0.084
-652.843	-77.847	0.288	0.100
-651.828	-152.780	-0.218	0.016
-650.814	266.248	0.123	-0.215
-649.799	-26.875	-0.209	-0.122
-648.784	-200.000	-0.021	-0.205
-647.770	515.676	0.044	-0.104
-646.755	14.961	0.249	-0.196
-645.741	-200.000	-0.077	-0.403
-644.726	20.064	0.185	0.150
-643.711	-123.223	-0.120	0.019
-642.697	-71.941	0.170	-0.063
-641.682	-200.000	0.019	-0.228
-640.668	-25.214	-0.069	-0.041
-639.653	-200.000	-0.006	0.257
-638.638	800.000	0.052	-0.207
-637.624	-4.366	0.255	0.177
-636.609	-40.319	-0.133	0.069
-635.595	-200.000	0.041	-0.310
-634.580	800.000	-0.116	0.354
-633.565	21.498	-0.184	-0.150
-632.551	400.876	-0.146	-0.308
-631.536	252.333	0.077	0.132
-630.522	-200.000	0.008	0.368
-629.507	-200.000	0.012	0.156
-628.492	311.743	-0.075	-0.140
-627.478	-136.596	-0.205	-0.024
-626.463	-185.128	-0.425	0.007
-625.449	70.835	0.210	-0.218
-624.434	265.622	0.048	0.084
-623.419	-90.005	-0.176	-0.051
-622.405	-77.556	-0.203	0.070
-621.390	-195.574	0.090	-0.001
-620.376	-136.419	-0.314	-0.037
-619.361	-78.535	-0.279	0.096
-618.346	20.505	-0.165	0.133
-617.332	-200.000	0.068	-0.313
-616.317	800.000	0.054	-0.162
-615.303	2.518	0.038	0.027
-614.288	-93.519	-0.200	0.055
-613.273	-20.148	-0.165	-0.102
-612.259	-24.172	0.073	0.044
-611.244	-97.046	0.144	0.038
-610.230	-75.321	-0.198	-0.071
-609.215	-200.000	-0.019	0.253
-608.201	-198.982	0.171	-0.001
-607.186	112.136	-0.086	-0.104
-606.171	-200.000	0.008	-0.256
-605.157	-200.000	-0.001	-0.338
-604.142	70.625	-0.181	0.187
-603.128	-200.000	0.066	-0.401
-602.113	-65.124	-0.254	0.102
-601.098	-137.225	-0.192	0.022
-600.084	166.651	0.113	0.160
-599.069	-37.280	-0.190	0.102
-598.055	-46.280	-0.301	0.148
-597.040	-200.000	-0.049	-0.233
-596.025	800.000	0.170	-0.561
-595.011	434.871	0.086	-0.187
-593.996	800.000	-0.125	-0.401
-592.982	17.566	0.141	-0.112
-591.967	-7.897	-0.122	-0.082
-590.952	-10.441	0.085	0.056
-589.938	-52.042	-0.260	-0.121
-588.923	-200.000	0.012	-0.089
-587.909	-200.000	0.010	-0.323
-586.894	800.000	0.084	-0.359
-585.879	491.935	-0.043	0.099
-584.865	-40.261	0.161	-0.084
-583.850	-200.000	0.015	-0.119
-582.836	-45.114	-0.067	0.033
-581.821	609.928	0.067	0.166
-580.806	-200.000	-0.076	-0.435
-579.792	800.000	-0.025	0.088
-578.777	-12.189	-0.150	0.098
-577.763	-72.012	0.183	-0.068
-576.748	-34.176	-0.247	-0.136
-575.733	-101.641	0.120	0.029
-574.719	-200.000	0.087	0.405
-573.704	-200.000	0.021	-0.184
-572.690	-200.000	-0.004	0.149
-571.675	-0.476	0.159	-0.113
-570.661	-55.708	0.371	-0.166
-569.646	800.000	-0.103	-0.300
-568.631	429.414	-0.094	-0.204
-567.617	-172.292	0.133	0.004
-566.602	-167.449	-0.146	-0.006
-565.588	-35.413	-0.174	0.094
-564.573	41.075	-0.253	0.229
-563.558	800.000	-0.005	-0.023
-562.544	-200.000	0.024	0.161
-561.529	-67.346	-0.042	0.017
-560.515	-92.508	0.077	0.022
-559.500	-42.602	0.251	0.128
-558.485	155.859	-0.149	0.205
-557.471	-64.310	0.326	0.133
-556.456	-73.162	-0.164	-0.060
-555.442	-200.000	0.002	-0.315
-554.427	55.205	0.109	-0.105
-553.412	-143.469	0.301	-0.029
-552.398	800.000	-0.079	0.304
-551.383	153.074	-0.034	0.046
-550.369	103.627	0.091	-0.107
-549.354	-53.576	0.179	-0.082
-548.339	-200.000	0.015	-0.073
-547.325	43.316	-0.269	-0.246
-546.310	-32.026	0.398	0.222
-545.296	145.556	0.128	-0.171
-544.281	14.721	-0.112	-0.087
-543.266	-49.128	0.189	0.090
-542.252	-163.556	0.070	-0.003
-541.237	-200.000	0.039	0.335
-540.223	100.068	0.268	0.310
-539.208	61.566	-0.150	0.149
-538.193	-18.561	0.210	-0.131
-537.179	-112.312	0.214	0.043
-536.164	-5.324	-0.391	-0.268
-535.150	28.990	0.187	0.158
-534.135	-200.000	0.012	0.116
-533.121	279.008	0.070	-0.125
-532.106	-170.386	-0.197	-0.007
-531.091	-200.000	-0.073	-0.323
-530.077	-135.883	0.089	0.010
-529.062	-57.014	-0.253	-0.112
-528.048	32.045	-0.133	0.114
-527.033	56.154	0.093	-0.090
-526.018	-28.766	-0.279	0.160
-525.004	-200.000	-0.004	0.088
-523.989	-124.517	0.135	-0.021
-522.975	-49.946	-0.203	-0.096
-521.960	192.014	-0.043	0.064
-520.945	752.319	0.073	-0.196
-519.931	26.419	-0.293	-0.244
-518.916	-200.000	0.070	-0.332
-517.902	445.097	-0.056	0.124
-516.887	-200.000	-0.047	0.000
-515.872	-61.544	-0.413	-0.173
-514.858	-200.000	-0.063	0.280
-513.843	-200.000	-0.022	-0.348
-512.829	-200.000	-0.051	0.280
-511.814	-37.392	0.183	-0.097
-510.799	-41.719	-0.149	-0.076
-509.785	144.953	-0.107	0.142
-508.770	197.491	-0.096	0.147
-507.756	-26.274	0.248	-0.145
-506.741	-18.194	-0.247	-0.154
-505.726	800.000	-0.054	0.180
-504.712	-200.000	-0.009	-0.153
-503.697	51.991	0.383	-0.364
-502.683	76.811	-0.159	0.168
-501.668	-16.312	-0.190	0.120
-500.653	15.403	0.216	0.169
-499.639	182.875	-0.107	0.158
-498.624	-187.956	-0.169	0.002
-497.610	-200.000	0.073	-0.347
-496.595	-200.000	0.061	0.491
-495.581	7.952	0.054	-0.040
-494.566	-34.749	0.074	-0.041
-493.551	160.985	-0.193	0.269
-492.537	0.729	-0.161	0.115
-491.522	53.170	0.410	0.391
-490.508	-200.000	-0.115	0.596
-489.493	80.607	0.056	0.061
-488.478	206.622	-0.097	0.151
-487.464	552.172	0.065	0.155
-486.449	800.000	-0.114	-0.465
-485.435	800.000	0.061	-0.211
-484.420	-200.000	-0.008	-0.176
-483.405	155.743	0.358	-0.492
-482.391	194.967	0.161	0.244
-481.376	84.481	-0.089	-0.097
-480.362	49.581	-0.269	-0.252
-479.347	222.867	0.079	-0.126
-478.332	-9.579	-0.153	0.102
-477.318	-200.000	0.025	-0.247
-476.303	-105.121	0.098	0.022
-475.289	414.078	0.099	0.209
-474.274	-200.000	-0.048	0.244
-473.259	752.785	0.124	0.332
-472.245	49.680	0.206	0.193
-471.230	-121.313	0.384	0.064
-470.216	-71.432	0.141	0.053
-469.201	-19.859	0.233	0.143
-468.186	-14.173	0.161	0.104
-467.172	800.000	-0.116	-0.352
-466.157	-200.000	0.004	0.109
-465.143	-48.543	-0.157	-0.075
-464.128	344.964	0.117	-0.229
-463.113	-200.000	-0.024	0.204
-462.099	-200.000	0.010	-0.170
-461.084	-189.449	-0.172	-0.002
-460.070	285.365	0.065	0.117
-459.055	28.494	0.113	-0.095
-458.040	800.000	-0.041	-0.177
-457.026	-123.752	0.238	-0.037
-456.011	-95.495	0.230	0.061
-454.997	-50.790	0.224	0.105
-453.982	-200.000	0.010	-0.266
-452.968	-29.245	-0.427	-0.243
-451.953	-105.420	0.306	-0.069
-450.938	-32.386	-0.248	-0.138
-449.924	-48.180	-0.358	-0.172
-448.909	-84.061	-0.120	0.038
-447.895	-135.529	0.290	0.034
-446.880	-200.000	0.010	0.340
-445.865	-156.155	-0.256	-0.016
-444.851	-29.683	0.047	0.027
-443.836	-200.000	-0.040	-0.387
-442.822	81.526	0.080	-0.086
-441.807	-200.000	0.016	0.135
-440.792	6.935	0.336	-0.249
-439.778	-125.915	0.312	0.047
-438.763	800.000	-0.034	0.139
-437.749	119.395	-0.269	-0.331
-436.734	800.000	0.029	0.099
-435.719	361.301	-0.045	0.091
-434.705	102.762	-0.091	0.105
-433.690	-67.092	0.238	-0.093
-432.676	31.603	-0.125	-0.107
-431.661	29.943	-0.139	0.118
-430.646	178.775	-0.066	-0.096
-429.632	-45.852	0.319	0.157
-428.617	-200.000	0.018	0.132
-427.603	-120.700	-0.195	0.033
-426.588	-182.420	0.157	-0.003
-425.573	-125.093	0.365	-0.056
-424.559	-200.000	-0.064	0.448
-423.544	-155.516	0.130	-0.008
-422.530	-58.262	-0.117	0.051
-421.515	-5.318	0.295	-0.201
-420.500	-28.371	-0.223	0.128
-419.486	-37.510	0.135	0.072
-418.471	-120.878	0.176	0.029
-417.457	-24.490	-0.095	-0.056
-416.442	-75.854	-0.159	0.056
-415.428	-127.281	0.139	-0.020
-414.413	221.525	0.087	0.139
-413.398	-2.182	-0.199	-0.139
-412.384	-41.768	0.141	0.072
-411.369	565.548	-0.127	0.306
-410.355	-72.350	-0.166	-0.061
-409.340	107.111	0.130	0.154
-408.325	487.642	0.085	-0.193
-407.311	-147.212	0.150	-0.013
-406.296	-34.516	-0.166	-0.090
-405.282	-139.859	0.194	0.020
-404.267	472.759	-0.062	-0.139
-403.252	-200.000	-0.039	0.262
-402.238	-179.367	0.355	-0.008
-401.223	-200.000	0.015	0.215
-400.209	34.694	0.093	0.081
-399.194	-200.000	0.033	0.173
-398.179	135.360	-0.032	-0.041
-397.165	-95.646	-0.105	0.028
-396.150	232.726	-0.064	0.105
-395.136	-33.760	0.241	0.132
-394.121	-82.217	0.146	-0.047
-393.106	-18.942	-0.189	-0.117
-392.092	217.703	-0.040	-0.063
-391.077	87.301	-0.271	-0.298
-390.063	301.116	0.140	0.256
-389.048	-81.075	-0.194	0.064
-388.033	-53.657	0.117	0.053
-387.019	165.404	-0.051	0.072
-386.004	-57.581	0.487	0.212
-384.990	-91.689	-0.185	0.052
-383.975	800.000	0.077	0.258
-382.960	800.000	0.078	-0.280
-381.946	65.308	0.244	-0.245
-380.931	-200.000	0.006	0.047
-379.917	800.000	-0.023	-0.090
-378.902	-63.207	-0.075	0.031
-377.888	100.801	0.194	-0.223
-376.873	-127.923	0.263	0.038
-375.858	400.931	0.088	0.183
-374.844	-63.294	0.105	-0.043
-373.829	-63.173	0.134	-0.055
-372.815	-33.659	-0.472	-0.258
-371.800	607.124	-0.172	0.425
-370.785	-145.310	-0.212	-0.019
-369.771	-62.693	0.348	0.143
-368.756	151.937	-0.147	0.198
-367.742	40.987	-0.151	-0.135
-366.727	-26.530	-0.087	0.051
-365.712	-46.896	-0.373	-0.181
-364.698	19.087	0.178	0.141
-363.683	121.377	0.102	-0.126
-362.669	11.727	-0.042	0.032
-361.654	-200.000	0.003	-0.024
-360.639	-160.518	0.198	0.010
-359.625	800.000	-0.045	-0.159
-358.610	-30.347	-0.136	0.077
-357.596	-138.256	-0.233	-0.026
-356.581	-200.000	0.016	-0.094
-355.566	190.802	0.020	-0.030
-354.552	319.045	0.066	0.123
-353.537	-168.179	-0.384	-0.015
-352.523	123.935	-0.107	0.133
-351.508	126.717	0.180	0.225
-350.493	-29.104	-0.135	-0.076
-349.479	0.720	0.156	0.111
-348.464	29.951	-0.066	0.055
-347.450	74.963	-0.108	-0.113
-346.435	-28.251	0.101	0.058
-345.420	400.780	0.166	0.345
-344.406	463.363	0.097	-0.216
-343.391	-84.434	-0.300	0.094
-342.377	42.776	0.109	0.099
-341.362	-47.277	-0.078	0.038
-340.348	-200.000	-0.011	0.348
-339.333	77.828	-0.128	-0.135
-338.318	-54.598	0.350	-0.157
-337.304	-200.000	0.031	0.358
-336.289	800.000	-0.025	0.103
-335.275	-200.000	0.015	-0.089
-334.260	-119.570	-0.112	0.019
-333.245	-200.000	-0.016	-0.291
-332.231	87.616	-0.142	0.155
-331.216	800.000	0.061	-0.172
-330.202	-27.038	-0.077	-0.045
-329.187	-200.000	0.019	0.117
-328.172	332.614	0.080	-0.152
-327.158	402.459	0.061	-0.127
-326.143	165.794	0.189	-0.264
-325.129	-105.804	-0.548	0.123
-324.114	-26.414	-0.296	0.172
-323.099	-89.904	0.097	-0.028
-322.085	800.000	0.045	0.161
-321.070	93.753	-0.104	0.116
-320.056	-57.912	-0.165	-0.071
-319.041	-70.023	0.095	-0.036
-318.026	-116.291	-0.184	-0.034
-317.012	252.895	-0.162	-0.273
-315.997	-200.000	0.006	-0.426
-314.983	-200.000	-0.007	-0.220
-313.968	-43.348	0.146	0.073
-312.953	-143.644	-0.181	-0.017
-311.939	800.000	0.042	0.120
-310.924	800.000	0.141	0.414
-309.910	-111.079	0.270	-0.055
-308.895	112.331	0.100	0.120
-307.880	-200.000	-0.135	-0.740
-306.866	268.749	0.186	-0.323
-305.851	-96.456	0.095	0.025
-304.837	17.228	0.207	0.162
-303.822	159.441	0.092	-0.127
-302.807	24.928	0.284	-0.233
-301.793	-200.000	-0.003	0.263
-300.778	-200.000	0.036	0.205
-299.764	173.211	-0.066	-0.094
-298.749	-3.145	0.360	-0.248
-297.735	101.832	-0.119	0.137
-296.720	-200.000	-0.002	0.043
-295.705	284.537	0.146	-0.260
-294.691	-14.820	-0.107	-0.068
-293.676	312.239	-0.164	0.305
-292.662	-37.946	-0.264	0.139
-291.647	-70.801	0.310	0.116
-290.632	-200.000	-0.014	-0.165
-289.618	-27.809	-0.134	0.077
-288.603	-200.000	-0.009	0.164
-287.589	-28.614	0.129	-0.074
-286.574	-125.734	-0.230	-0.034
-285.559	-122.257	-0.083	0.013
-284.545	-91.571	-0.307	0.087
-283.530	-0.059	0.354	0.249
-282.516	-108.623	0.130	0.028
-281.501	128.508	0.123	0.154
-280.486	-59.677	0.237	0.100
-279.472	-109.181	0.175	0.037
-278.457	-200.000	-0.414	-0.001
-277.443	-151.821	-0.312	-0.023
-276.428	227.209	-0.132	0.213
-275.413	14.767	-0.101	0.078
-274.399	-200.000	-0.071	0.341
-273.384	471.199	0.065	0.144
-272.370	-200.000	-0.058	0.265
-271.355	-3.827	-0.290	0.199
-270.340	395.002	0.153	0.314
-269.326	-200.000	-0.016	0.291
-268.311	84.598	-0.162	0.176
-267.297	69.519	0.169	-0.172
-266.282	140.778	-0.096	0.125
-265.267	800.000	0.070	-0.264
-264.253	106.247	-0.137	0.160
-263.238	-74.741	-0.293	0.104
-262.224	-93.282	-0.131	0.036
-261.209	68.093	0.247	0.249
-260.195	431.196	-0.028	-0.060
-259.180	-103.247	0.123	0.029
-258.165	158.241	-0.166	-0.228
-257.151	-37.122	-0.065	-0.034
-256.136	375.884	-0.025	-0.050
-255.122	-106.951	-0.650	0.142
-254.107	22.610	-0.120	0.097
-253.092	7.202	0.251	-0.185
-252.078	85.524	0.182	-0.198
-251.063	-24.990	0.425	0.249
-250.049	800.000	-0.089	-0.344
-249.034	631.278	0.033	0.084
-248.019	800.000	-0.070	0.201
-247.005	233.815	0.018	0.029
-245.990	157.896	0.136	0.186
-244.976	-66.708	-0.328	-0.128
-243.961	-42.794	-0.072	0.036
-242.946	-88.303	0.055	-0.016
-241.932	165.708	0.023	-0.032
-240.917	-29.344	-0.223	0.126
-239.903	-138.378	-0.268	-0.029
-238.888	-6.643	-0.125	-0.084
-237.873	693.737	-0.042	0.108
-236.859	-67.498	0.309	0.120
-235.844	-36.784	0.078	-0.041
-234.830	-120.669	-0.336	-0.056
-233.815	-160.343	-0.227	-0.012
-232.800	-200.000	0.001	-0.216
-231.786	-39.681	0.165	0.085
-230.771	-200.000	0.009	-0.263
-229.757	11.712	0.077	0.058
-228.742	-200.000	-0.043	0.276
-227.727	-146.826	0.105	-0.009
-226.713	-1.924	0.200	-0.139
-225.698	106.927	0.050	-0.059
-224.684	-112.157	0.327	-0.065
-223.669	-200.000	-0.055	0.320
-222.655	201.371	0.179	0.271
-221.640	211.752	0.154	-0.238
-220.625	-161.842	0.136	0.007
-219.611	-66.918	0.196	0.077
-218.596	-108.437	-0.180	0.038
-217.582	218.334	0.223	-0.351
-216.567	-200.000	-0.008	-0.220
-215.552	203.737	0.050	-0.076
-214.538	86.280	0.045	0.049
-213.523	-200.000	0.004	-0.063
-212.509	79.697	0.110	0.116
-211.494	-111.975	-0.135	0.027
-210.479	402.150	0.025	-0.052
-209.465	606.848	-0.077	0.190
-208.450	434.256	-0.077	0.164
-207.436	800.000	0.109	0.349
-206.421	-78.232	-0.195	0.066
-205.406	-69.745	0.060	-0.023
-204.392	-43.493	0.313	-0.156
-203.377	-123.415	0.473	0.074
-202.363	-200.000	-0.010	-0.124
-201.348	68.401	-0.119	-0.120
-200.333	800.000	0.063	-0.266
-199.319	481.856	-0.139	-0.311
-198.304	161.122	0.069	0.095
-197.290	-61.454	-0.230	0.095
-196.275	-40.650	0.344	-0.176
-195.260	-200.000	0.002	-0.260
-194.246	-199.396	-0.050	0.000
-193.231	800.000	-0.042	-0.160
-192.217	225.179	0.045	-0.071
-191.202	30.508	0.198	-0.167
-190.187	-138.440	-0.117	0.013
-189.173	-51.139	-0.026	0.012
-188.158	-200.000	0.020	0.158
-187.144	92.228	-0.232	0.257
-186.129	-200.000	-0.005	0.226
-185.114	-146.040	0.305	0.027
-184.100	179.014	0.087	0.125
-183.085	93.218	0.174	0.194
-182.071	-18.438	0.055	0.034
-181.056	800.000	0.016	0.050
-180.042	-89.133	-0.336	0.098
-179.027	800.000	0.058	0.188
-178.012	-31.527	0.153	0.085
-176.998	150.349	-0.026	0.035
-175.983	-200.000	0.020	0.125
-174.969	-79.844	-0.172	0.057
-173.954	5.550	-0.184	-0.134
-172.939	800.000	-0.038	0.107
-171.925	181.070	0.111	-0.160
-170.910	-48.664	-0.199	-0.094
-169.896	-104.050	0.173	0.040
-168.881	-6.839	0.349	0.234
-167.866	-200.000	-0.033	-0.349
-166.852	-150.282	-0.192	-0.015
-165.837	800.000	-0.033	0.101
-164.823	13.190	0.115	-0.087
-163.808	-200.000	-0.034	-0.219
-162.793	-94.267	-0.192	0.052
-161.779	-46.341	-0.072	0.035
-160.764	5.923	0.135	0.099
-159.750	-200.000	0.018	-0.104
-158.735	800.000	-0.034	0.143
-157.720	-200.000	0.041	0.217
-156.706	309.256	0.094	-0.173
-155.691	166.684	-0.065	-0.090
-154.677	-102.448	-0.283	-0.067
-153.662	371.204	-0.215	0.429
-152.647	-9.850	0.223	-0.146
-151.633	800.000	-0.043	-0.159
-150.618	-200.000	0.038	-0.336
-149.604	800.000	0.058	0.209
-148.589	-65.691	-0.170	0.067
-147.574	-200.000	0.000	0.033
-146.560	111.210	0.192	0.228
-145.545	-184.203	0.240	-0.004
-144.531	800.000	-0.109	0.449
-143.516	248.894	-0.059	0.097
-142.502	29.946	-0.355	-0.297
-141.487	-200.000	0.079	0.387
-140.472	324.543	0.071	0.133
-139.458	550.823	-0.153	-0.362
-138.443	38.873	-0.186	0.163
-137.429	36.128	0.161	0.139
-136.414	-200.000	-0.019	0.180
-135.399	-151.639	-0.180	0.013
-134.385	647.016	0.164	0.411
-133.370	-183.479	0.172	0.003
-132.356	23.171	0.234	0.189
-131.341	-81.849	-0.370	-0.119
-130.326	312.832	0.301	-0.556
-129.312	-90.058	-0.096	-0.027
-128.297	4.595	0.249	0.180
-127.283	-60.689	0.056	-0.023
-126.268	-54.923	-0.106	-0.047
-125.253	-115.531	-0.355	0.066
-124.239	-112.199	0.292	-0.058
-123.224	669.501	0.083	0.210
-122.210	-200.000	0.038	-0.274
-121.195	-122.160	0.245	-0.039
-120.180	-31.465	-0.038	0.021
-119.166	-200.000	0.004	-0.139
-118.151	-200.000	-0.033	0.180
-117.137	-102.637	0.163	0.038
-116.122	462.076	0.168	0.369
-115.107	-70.768	0.218	-0.081
-114.093	-32.212	-0.332	-0.182
-113.078	-58.747	0.212	-0.090
-112.064	-58.764	0.082	-0.035
-111.049	46.669	0.145	-0.132
-110.034	-159.944	-0.070	-0.004
-109.020	-200.000	-0.002	0.014
-108.005	5.226	0.337	-0.244
-106.991	16.790	0.209	0.162
-105.976	-200.000	-0.000	-0.208
-104.962	-200.000	-0.015	-0.300
-103.947	-130.797	0.256	-0.034
-102.932	-115.420	-0.139	-0.026
-101.918	-92.905	0.268	-0.074
-100.903	-72.665	0.198	-0.072
-99.889	-126.931	0.209	0.030
-98.874	-53.811	-0.259	-0.116
-97.859	-122.273	0.279	0.045
-96.845	53.458	-0.242	-0.228
-95.830	-200.000	-0.003	0.438
-94.816	-200.000	-0.004	0.097
-93.801	204.148	-0.078	-0.119
-92.786	-200.000	0.049	0.283
-91.772	800.000	-0.022	0.090
-90.757	-200.000	-0.019	0.215
-89.743	800.000	0.064	-0.177
-88.728	356.195	0.048	-0.094
-87.713	-200.000	0.050	-0.236
-86.699	-92.593	-0.631	0.174
-85.684	-105.573	-0.267	-0.059
-84.670	-81.149	-0.101	-0.033
-83.655	108.777	0.164	0.192
-82.640	-200.000	-0.051	-0.250
-81.626	40.783	0.280	0.248
-80.611	74.336	0.167	0.172
-79.597	-77.093	-0.127	0.044
-78.582	-126.387	0.248	-0.036
-77.567	191.571	0.218	-0.323
-76.553	-6.404	0.241	-0.161
-75.538	800.000	0.071	0.235
-74.524	800.000	0.089	-0.350
-73.509	66.501	0.227	-0.226
-72.494	-51.829	0.282	-0.129
-71.480	-64.072	-0.311	-0.125
-70.465	12.572	-0.243	-0.184
-69.451	-76.415	-0.432	0.149
-68.436	-162.975	0.066	-0.003
-67.422	-178.081	-0.316	-0.007
-66.407	408.910	0.155	-0.322
-65.392	-97.154	-0.056	-0.014
-64.378	155.739	-0.089	0.120
-63.363	-94.218	0.119	-0.032
-62.349	292.436	-0.101	0.180
-61.334	136.074	-0.772	-0.986
-60.319	452.975	0.355	0.770
-59.305	-200.000	-0.058	-0.882
-58.290	185.617	0.706	1.028
-57.276	700.025	0.598	1.542
-56.261	-200.000	106.396	614.532
-55.246	504.343	1510.684	3425.594
-54.232	176.092	2702.646	3844.197
-53.217	111.588	2164.475	2558.141
-52.203	41.400	1599.777	1417.837
-51.188	32.910	1333.796	1131.451
-50.173	29.785	1292.763	1078.408
-49.159	54.473	1347.035	1271.255
-48.144	54.623	1362.351	1286.550
-47.130	33.004	1316.968	1117.554
-46.115	29.579	1299.339	1082.516
-45.100	29.498	1293.823	1077.404
-44.086	29.380	1291.425	1074.677
-43.071	29.311	1289.207	1072.385
-42.057	29.213	1287.520	1070.372
-41.042	29.306	1285.617	1069.286
-40.027	29.343	1283.824	1067.969
-39.013	29.204	1282.208	1065.776
-37.998	29.288	1280.215	1064.565
-36.984	29.426	1278.175	1063.620
-35.969	29.519	1276.489	1062.708
-34.954	29.480	1274.698	1060.956
-33.940	29.555	1273.567	1060.400
-32.925	29.439	1272.940	1059.172
-31.911	29.591	1270.831	1058.244
-30.896	29.510	1269.611	1056.725
-29.881	29.560	1267.951	1055.586
-28.867	29.545	1266.422	1054.187
-27.852	29.526	1265.314	1053.111
-26.838	29.494	1263.862	1051.682
-25.823	29.511	1262.735	1050.795
-24.809	29.507	1261.170	1049.431
-23.794	29.594	1259.532	1048.522
-22.779	29.540	1258.325	1047.167
-21.765	29.498	1257.451	1046.163
-20.750	29.463	1256.271	1044.938
-19.736	29.411	1254.816	1043.392
-18.721	29.394	1253.396	1042.075
-17.706	29.476	1252.423	1041.691
-16.692	29.315	1251.653	1040.099
-15.677	29.425	1250.496	1039.714
-14.663	29.335	1249.245	1038.127
-13.648	29.377	1248.394	1037.617
-12.633	29.375	1247.104	1036.491
-11.619	29.316	1246.390	1035.525
-10.604	29.320	1245.588	1034.837
-9.590	29.286	1244.379	1033.602
-8.575	29.162	1244.081	1032.617
-7.560	29.387	1242.612	1032.616
-6.546	29.400	1241.625	1031.829
-5.531	29.335	1241.407	1031.245
-4.517	29.465	1240.174	1030.906
-3.502	29.508	1239.069	1030.187
-2.487	29.374	1238.248	1028.714
-1.473	29.395	1234.248	1025.467
-0.458	27.976	1219.492	1005.366
0.556	22.281	1202.491	969.300
1.571	18.735	1208.430	954.332
2.586	17.966	1223.272	961.635
3.600	17.845	1212.743	952.597
4.615	13.354	1142.192	873.442
5.629	4.519	1068.151	772.955
6.644	0.015	1047.960	736.261
7.659	-0.297	1044.898	732.523
8.673	-0.287	1043.720	731.681
9.688	-0.351	1042.030	730.120
10.702	0.164	1040.953	731.803
11.717	6.060	1049.360	766.480
12.731	14.892	1062.179	819.221
13.746	19.736	1067.433	846.994
14.761	20.794	1069.131	853.453
15.775	20.772	1068.418	852.699
16.790	20.573	1067.675	851.059
17.804	20.514	1067.184	850.303
18.819	20.682	1066.720	850.680
19.834	20.687	1066.420	850.392
20.848	20.788	1065.849	850.352
21.863	20.668	1065.511	849.422
22.877	20.652	1064.601	848.542
23.892	20.532	1064.295	847.637
24.907	20.805	1062.783	847.688
25.921	20.686	1061.813	846.261
26.936	20.701	1060.662	845.341
27.950	20.612	1059.108	843.597
28.965	20.498	1057.569	841.744
29.980	20.599	1055.458	840.475
30.994	20.763	1054.746	840.629
32.009	20.716	1053.355	839.217
33.023	20.497	1052.396	837.324
34.038	20.689	1051.649	837.580
35.053	20.710	1051.271	837.308
36.067	20.683	1049.975	836.069
37.082	20.836	1049.009	835.964
38.096	21.001	1048.233	836.063
39.111	21.019	1047.795	835.726
40.126	20.903	1046.115	833.756
41.140	20.569	1043.948	830.357
42.155	20.247	1043.231	828.176
43.169	20.193	1042.164	827.000
44.184	20.539	1040.922	827.592
45.199	20.261	1040.267	825.674
46.213	20.314	1039.619	825.338
47.228	20.526	1038.621	825.481
48.242	20.576	1037.508	824.758
49.257	20.670	1036.772	824.545
50.271	20.771	1035.796	824.177
51.286	20.767	1035.258	823.657
52.301	20.745	1034.619	822.968
53.315	20.684	1033.212	821.492
54.330	20.616	1032.619	820.626
55.344	20.718	1031.495	820.141
56.359	20.660	1030.338	818.876
57.374	20.497	1029.555	817.412
58.388	20.531	1029.018	817.075
59.403	20.541	1027.891	816.153
60.417	20.346	1027.109	814.544
61.432	20.463	1026.559	814.585
62.447	20.554	1025.669	814.236
63.461	20.484	1025.498	813.697
64.476	20.436	1024.057	812.261
65.490	20.587	1022.317	811.513
66.505	20.600	1022.168	811.383
67.520	20.599	1021.344	810.650
68.534	20.291	1020.424	808.416
69.549	20.007	1019.337	806.159
70.563	20.090	1018.303	805.660
71.578	19.930	1018.410	804.928
72.593	19.910	1016.834	803.515
73.607	19.935	1016.806	803.539
74.622	20.346	1015.920	804.676
75.636	20.338	1015.454	804.197
76.651	20.381	1014.140	803.286
77.666	20.114	1013.580	801.534
78.680	20.336	1012.783	801.861
79.695	20.347	1012.324	801.477
80.709	20.402	1011.481	800.992
81.724	20.317	1011.086	800.218
82.739	20.456	1010.163	800.053
83.753	20.791	1009.551	801.041
84.768	20.969	1009.071	801.408
85.782	20.898	1008.052	800.202
86.797	20.961	1006.757	799.391
87.812	20.761	1005.896	797.721
88.826	20.895	1004.764	797.366
89.841	20.914	1004.395	797.091
90.855	20.900	1003.210	796.016
91.870	20.999	1001.673	795.176
92.884	20.816	1000.762	793.547
93.899	20.714	999.923	792.350
94.914	20.933	998.968	792.515
95.928	20.701	997.927	790.570
96.943	20.510	996.818	788.751
97.957	20.361	995.635	787.072
98.972	20.177	994.659	785.396
99.987	20.594	993.829	786.558
101.001	20.602	993.307	786.110
102.016	20.657	992.413	785.584
103.030	20.529	991.569	784.268
104.045	20.407	990.140	782.521
105.060	20.214	989.929	781.413
106.074	20.471	989.241	781.958
107.089	20.801	988.075	782.451
108.103	20.651	987.229	781.039
109.118	20.421	986.053	779.007
110.133	20.511	985.015	778.521
111.147	20.335	983.473	776.446
112.162	20.147	982.615	774.858
113.176	20.443	981.851	775.511
114.191	20.281	980.765	773.860
115.206	19.929	980.224	771.796
116.220	20.100	978.766	771.343
117.235	20.190	978.229	771.253
118.249	20.058	977.752	770.222
119.264	20.080	976.566	769.315
120.279	20.051	975.885	768.583
121.293	20.203	974.960	768.461
122.308	20.210	974.282	767.890
123.322	20.195	972.814	766.596
124.337	20.106	971.716	765.270
125.352	19.429	970.231	761.048
126.366	19.675	968.949	761.057
127.381	20.266	968.854	763.518
128.395	20.657	967.997	764.493
129.410	20.671	967.788	764.324
130.424	20.693	966.407	763.261
131.439	20.744	965.278	762.524
132.454	20.614	964.569	761.328
133.468	20.506	964.253	760.537
134.483	20.668	963.147	760.310
135.497	20.792	962.740	760.459
136.512	20.843	961.131	759.346
137.527	20.838	960.800	758.993
138.541	20.965	959.654	758.574
139.556	20.831	958.927	757.350
140.570	20.818	958.212	756.660
141.585	20.980	957.278	756.562
142.600	21.012	956.104	755.705
143.614	21.123	955.395	755.560
144.629	21.141	954.505	754.863
145.643	21.043	952.821	753.043
146.658	20.844	952.058	751.515
147.673	20.788	951.264	750.581
148.687	20.755	950.090	749.447
149.702	20.773	948.832	748.466
150.716	20.744	948.333	747.880
151.731	20.930	947.304	747.801
152.746	21.042	947.011	747.983
153.760	20.849	946.771	746.902
154.775	21.023	946.119	747.064
155.789	21.123	944.834	746.414
156.804	20.912	944.152	744.906
157.819	21.166	942.882	744.921
158.833	21.149	942.545	744.518
159.848	21.135	941.575	743.624
160.862	21.022	940.260	742.040
161.877	20.999	939.652	741.398
162.892	21.040	938.472	740.575
163.906	21.083	937.208	739.696
164.921	21.033	936.187	738.611
165.935	21.105	935.569	738.365
166.950	21.009	934.852	737.325
167.964	21.068	933.708	736.606
168.979	20.974	932.604	735.276
169.994	21.016	931.554	734.559
171.008	21.161	931.431	735.009
172.023	21.173	930.371	734.156
173.037	20.930	929.166	732.121
174.052	20.784	928.475	730.898
175.067	20.636	928.028	729.861
176.081	20.945	927.329	730.542
177.096	20.673	926.754	728.883
178.110	20.632	925.944	728.012
179.125	20.474	924.943	726.499
180.140	20.521	924.476	726.264
181.154	20.593	924.158	726.249
182.169	20.921	923.918	727.369
183.183	20.959	923.696	727.288
184.198	21.091	922.463	726.803
185.213	20.878	921.672	725.228
186.227	21.087	921.014	725.517
187.242	21.081	920.268	724.837
188.256	21.048	919.969	724.401
189.271	21.098	919.412	724.107
190.286	20.873	917.905	721.923
191.300	20.326	916.398	718.409
192.315	19.553	915.027	714.078
193.329	19.527	915.034	713.911
194.344	20.445	915.364	717.903
195.359	20.882	915.181	719.497
196.373	20.987	914.422	719.272
197.388	20.891	913.692	718.237
198.402	20.758	913.331	717.344
199.417	20.911	912.753	717.455
200.432	20.650	911.577	715.397
201.446	20.421	910.798	713.778
202.461	20.474	909.900	713.231
203.475	19.661	908.395	708.653
204.490	19.092	906.724	704.956
205.504	19.922	907.301	708.743
206.519	20.564	907.372	711.365
207.534	20.536	907.032	710.921
208.548	21.051	906.699	712.702
209.563	20.740	905.669	710.561
210.577	20.712	905.176	709.996
211.592	21.145	904.889	711.474
212.607	20.929	903.851	709.714
213.621	21.128	903.509	710.192
214.636	21.076	902.727	709.302
215.650	21.124	901.804	708.711
216.665	21.196	901.245	708.501
217.680	21.027	900.249	706.972
218.694	20.628	899.233	704.494
219.709	20.631	898.668	704.000
220.723	20.896	898.053	704.527
221.738	20.907	897.520	704.092
222.753	20.954	896.911	703.741
223.767	21.113	896.041	703.639
224.782	21.075	896.511	703.793
225.796	21.115	895.625	703.197
226.811	20.564	894.211	699.807
227.826	19.779	892.823	695.502
228.840	20.048	892.841	696.536
229.855	20.171	892.010	696.319
230.869	19.858	890.880	694.119
231.884	20.225	891.042	695.659
232.899	21.014	890.794	698.565
233.913	20.973	890.216	697.887
234.928	20.869	889.424	696.787
235.942	20.832	889.184	696.387
236.957	20.689	887.542	694.470
237.972	20.623	887.427	694.056
238.986	20.571	887.027	693.476
240.001	20.610	886.300	693.002
241.015	20.710	885.758	692.915
242.030	20.855	885.145	692.949
243.045	20.975	884.825	693.114
244.059	21.121	884.261	693.193
245.074	20.929	883.318	691.628
246.088	20.609	882.333	689.527
247.103	20.853	881.994	690.171
248.117	21.175	882.023	691.406
249.132	21.449	881.178	691.767
250.147	21.672	880.768	692.267
251.161	21.832	880.308	692.474
252.176	21.748	879.579	691.507
253.190	21.713	879.353	691.130
254.205	21.950	878.676	691.472
255.220	22.033	877.677	690.949
256.234	21.815	877.108	689.584
257.249	21.691	876.584	688.624
258.263	21.737	875.724	688.067
259.278	21.607	875.508	687.328
260.293	21.769	874.754	687.310
261.307	21.783	873.579	686.381
262.322	21.602	872.953	685.122
263.336	20.705	871.012	680.032
264.351	19.578	869.528	674.417
265.366	19.912	868.489	674.853
266.380	21.116	869.158	680.007
267.395	21.342	869.117	680.796
268.409	21.255	868.778	680.130
269.424	21.569	868.101	680.760
270.439	21.556	868.005	680.575
271.453	21.614	867.254	680.153
272.468	21.856	866.733	680.623
273.482	22.023	866.195	680.788
274.497	21.459	864.937	677.554
275.512	21.089	864.100	675.407
276.526	21.563	864.265	677.309
277.541	21.728	863.839	677.553
278.555	21.426	862.753	675.478
279.570	21.254	862.138	674.270
280.585	21.431	861.407	674.323
281.599	21.361	860.334	673.153
282.614	20.850	859.010	670.092
283.628	20.904	858.743	670.034
284.643	21.326	858.514	671.415
285.657	20.784	857.199	668.250
286.672	20.532	856.787	666.900
287.687	21.197	856.448	669.129
288.701	21.239	856.121	668.975
289.716	20.879	854.966	666.636
290.730	20.818	854.083	665.655
291.745	20.519	853.620	664.094
292.760	20.887	853.297	665.190
293.774	21.853	853.837	669.238
294.789	22.166	853.464	670.080
295.803	22.155	852.617	669.313
296.818	22.338	852.232	669.648
297.833	21.705	851.176	666.356
298.847	21.670	850.235	665.425
299.862	22.039	850.071	666.639
300.876	22.077	849.916	666.602
301.891	21.897	849.319	665.392
302.906	21.526	847.852	662.779
303.920	21.868	847.527	663.761
304.935	22.131	847.381	664.583
305.949	22.064	846.810	663.823
306.964	21.811	845.982	662.159
307.979	21.884	845.804	662.236
308.993	22.196	845.391	663.033
310.008	22.165	844.395	662.075
311.022	21.989	843.749	660.847
312.037	21.892	843.431	660.176
313.052	21.599	842.373	658.189
314.066	20.848	840.736	654.032
315.081	20.627	840.055	652.617
316.095	21.305	840.600	655.526
317.110	21.865	840.467	657.464
318.125	21.036	839.021	653.171
319.139	20.027	837.233	647.947
320.154	19.974	837.305	647.749
321.168	20.885	837.307	651.099
322.183	21.603	836.969	653.460
323.197	21.670	837.070	653.730
324.212	21.862	836.769	654.153
325.227	21.991	835.871	653.876
326.241	21.955	835.322	653.253
327.256	21.707	834.926	651.964
328.270	21.658	834.046	651.036
329.285	21.448	833.303	649.620
330.300	21.336	832.186	648.276
331.314	21.569	832.134	649.041
332.329	21.935	831.990	650.230
333.343	22.085	831.431	650.288
334.358	21.902	831.347	649.487
335.373	22.010	830.860	649.450
336.387	22.363	830.830	650.674
337.402	22.463	830.599	650.806
338.416	22.379	830.290	650.194
339.431	22.569	829.573	650.278
340.446	22.589	829.204	650.006
341.460	22.520	828.853	649.417
342.475	22.252	828.160	647.830
343.489	22.480	827.984	648.474
344.504	22.652	828.004	649.067
345.519	22.908	827.418	649.491
346.533	22.823	826.925	648.732
347.548	22.722	826.517	647.986
348.562	22.772	826.057	647.749
349.577	22.721	825.341	646.946
350.592	22.878	824.413	646.735
351.606	22.746	823.868	645.769
352.621	22.487	823.389	644.386
353.635	22.713	822.055	644.111
354.650	21.782	820.727	639.620
355.665	20.935	819.292	635.358
356.679	21.375	819.048	636.716
357.694	21.975	818.865	638.702
358.708	21.808	818.115	637.454
359.723	22.187	818.113	638.774
360.738	22.516	817.906	639.750
361.752	22.492	817.261	639.102
362.767	22.868	816.868	640.099
363.781	23.083	816.704	640.693
364.796	23.154	816.175	640.480
365.810	23.163	815.771	640.137
366.825	23.061	815.529	639.522
367.840	22.761	814.489	637.566
368.854	22.394	813.870	635.700
369.869	22.417	813.594	635.513
370.883	22.530	813.001	635.401
371.898	22.327	812.671	634.353
372.913	22.328	812.581	634.230
373.927	22.427	811.838	633.952
374.942	22.657	811.601	634.539
375.956	22.800	811.068	634.578
376.971	23.003	810.616	634.900
377.986	23.101	810.060	634.758
379.000	23.099	809.366	634.152
380.015	22.977	808.669	633.114
381.029	22.998	808.237	632.794
382.044	23.021	807.872	632.536
383.059	23.106	807.598	632.566
384.073	23.120	807.077	632.152
385.088	23.102	806.114	631.281
386.102	22.716	805.567	629.418
387.117	22.724	804.928	628.893
388.132	22.472	803.907	627.142
389.146	22.033	803.042	624.849
390.161	22.352	802.801	625.741
391.175	22.766	802.788	627.145
392.190	22.410	801.746	625.012
393.205	21.140	799.509	618.714
394.219	19.794	797.954	612.691
395.234	19.934	797.791	613.009
396.248	21.370	799.124	619.067
397.263	22.708	800.411	624.753
398.278	22.872	799.351	624.451
399.292	22.354	798.885	622.198
400.307	22.485	797.959	621.884
401.321	22.484	797.833	621.729
402.336	22.884	798.153	623.336
403.350	23.333	797.638	624.459
404.365	23.615	797.497	625.291
405.380	23.547	797.564	625.046
406.394	23.775	796.871	625.252
407.409	23.662	796.124	624.213
408.423	23.768	795.839	624.305
409.438	23.634	795.661	623.641
410.453	23.718	794.885	623.273
411.467	23.738	794.471	622.961
412.482	23.733	794.058	622.566
413.496	23.918	793.999	623.113
414.511	23.836	793.442	622.332
415.526	23.941	792.870	622.198
416.540	23.655	792.259	620.662
417.555	23.352	791.712	619.121
418.569	23.518	791.251	619.286
419.584	23.465	790.572	618.513
420.599	23.161	790.275	617.168
421.613	157.274	1366.462	1798.025
422.628	136.161	1450.383	1798.111
