DTS Sentinel unit serial number:	SN413079Multiplexer serial number:	ORYXHardware model number:	OX4-SRSoftware version number:	ORYX F/W v4.00 Oryx Data Collector v3.7.2.0data status	okinstallation	princeton_trtdifferential loss correction	single-endedforward channel	channel 1reverse channel	N/Adate	2019/09/12time	08:08:11forward acquisition time	60.00reverse acquisition time	0.00gamma	496.2192k internal	0.2313k external	0.2313temperature offset calibration	1.0046default loss term (dB/km)	0.3790temperature slope calibration	1.0000multiplexer offset coefficient	1.0000multiplexer slope coefficient	1.0000fibre end	0.00T internal ref (°C)	33.19T ext. ref 1 (°C)	1.67T ext. ref 2 (°C)	29.71length (m)	temperature (°C)	Stokes	anti-Stokes-747.200	126.925	-0.091	0.117
-746.185	-14.498	-0.199	0.130
-745.171	-200.000	0.084	0.000
-744.156	800.000	0.099	0.313
-743.142	-55.276	0.240	-0.109
-742.127	-111.657	-0.488	0.100
-741.112	800.000	0.090	-0.267
-740.098	-48.291	-0.143	0.070
-739.083	105.643	0.214	0.257
-738.069	729.599	0.012	-0.033
-737.054	-200.000	-0.033	0.324
-736.039	-71.592	-0.475	0.180
-735.025	-152.857	0.162	-0.012
-734.010	-34.491	-0.486	0.270
-732.996	-113.077	0.085	-0.017
-731.981	-48.100	-0.103	0.050
-730.966	-121.516	-0.280	0.047
-729.952	-200.000	0.000	0.378
-728.937	-39.342	0.405	-0.215
-727.923	-169.425	-0.249	0.009
-726.908	800.000	-0.069	0.271
-725.894	-94.116	0.144	-0.040
-724.879	-200.000	-0.030	0.214
-723.864	-22.010	-0.182	-0.112
-722.850	800.000	-0.090	-0.300
-721.835	-200.000	0.016	0.116
-720.821	0.639	0.109	-0.079
-719.806	-82.862	0.154	0.050
-718.791	-49.624	-0.123	-0.059
-717.777	292.554	0.147	-0.271
-716.762	-200.000	0.039	0.250
-715.748	350.949	-0.054	0.108
-714.733	800.000	-0.046	-0.135
-713.718	800.000	0.134	-0.389
-712.704	31.305	-0.194	-0.168
-711.689	800.000	0.060	-0.252
-710.675	158.079	-0.038	0.054
-709.660	-4.981	-0.230	-0.160
-708.645	200.026	-0.118	0.184
-707.631	-30.628	-0.153	0.088
-706.616	798.750	0.065	0.182
-705.602	800.000	-0.082	0.236
-704.587	-200.000	0.063	-0.433
-703.572	-11.626	-0.027	0.018
-702.558	-126.162	-0.191	0.029
-701.543	-200.000	-0.017	0.156
-700.529	478.772	-0.056	-0.128
-699.514	-200.000	0.002	0.103
-698.499	-35.452	-0.274	-0.151
-697.485	-183.078	-0.218	0.004
-696.470	7.096	0.164	0.124
-695.456	-39.362	-0.189	0.100
-694.441	102.492	-0.234	0.277
-693.426	-9.117	-0.114	-0.077
-692.412	-67.817	-0.105	0.042
-691.397	502.582	-0.092	-0.216
-690.383	474.088	-0.030	0.069
-689.368	-1.156	0.269	0.192
-688.354	-30.367	-0.221	0.127
-687.339	-38.963	0.171	0.091
-686.324	41.836	0.228	-0.209
-685.310	-176.806	0.148	-0.004
-684.295	-50.190	0.145	-0.070
-683.281	-200.000	0.007	-0.227
-682.266	-113.366	-0.217	0.043
-681.251	-81.924	-0.221	0.073
-680.237	-76.333	-0.201	-0.071
-679.222	157.169	-0.175	0.245
-678.208	-198.274	0.184	-0.001
-677.193	-20.065	0.191	0.119
-676.178	-139.299	-0.359	-0.039
-675.164	800.000	-0.108	-0.307
-674.149	800.000	0.052	-0.202
-673.135	-75.223	-0.301	0.109
-672.120	-200.000	-0.017	0.127
-671.105	-18.954	-0.199	-0.125
-670.091	800.000	-0.072	-0.232
-669.076	-200.000	0.019	-0.387
-668.062	-5.506	0.140	-0.097
-667.047	800.000	0.090	0.281
-666.032	800.000	0.086	-0.358
-665.018	-4.781	0.210	0.147
-664.003	13.900	0.165	-0.129
-662.989	202.562	-0.164	-0.257
-661.974	-72.688	-0.420	-0.157
-660.959	800.000	0.065	0.214
-659.945	-130.477	0.509	-0.070
-658.930	-42.557	-0.196	-0.101
-657.916	-67.806	0.232	-0.092
-656.901	-72.007	0.232	-0.087
-655.886	731.743	-0.058	-0.158
-654.872	-40.684	-0.258	0.135
-653.857	-6.170	-0.285	-0.197
-652.843	43.177	0.244	0.225
-651.828	366.018	0.037	-0.076
-650.814	800.000	0.026	0.092
-649.799	98.404	0.104	0.121
-648.784	-1.007	-0.317	-0.227
-647.770	43.607	-0.012	0.011
-646.755	-119.355	0.226	-0.040
-645.741	-55.245	-0.064	-0.029
-644.726	-200.000	0.046	-0.257
-643.711	800.000	-0.083	0.286
-642.697	107.759	-0.284	0.342
-641.682	10.580	0.293	0.225
-640.668	25.418	0.059	-0.049
-639.653	122.296	-0.200	-0.253
-638.638	-13.087	0.330	-0.216
-637.624	235.113	0.159	-0.266
-636.609	-32.077	-0.199	0.112
-635.595	137.499	0.106	-0.140
-634.580	-54.963	-0.441	0.201
-633.565	362.336	0.047	-0.095
-632.551	515.853	0.065	0.152
-631.536	-119.552	0.197	-0.034
-630.522	226.849	-0.097	-0.159
-629.507	304.205	-0.116	-0.216
-628.492	800.000	-0.061	-0.184
-627.478	38.366	-0.101	0.091
-626.463	-200.000	-0.003	0.229
-625.449	-170.037	-0.179	-0.006
-624.434	-130.999	-0.551	0.074
-623.419	26.521	-0.027	-0.023
-622.405	-200.000	-0.004	-0.185
-621.390	-200.000	0.017	-0.368
-620.376	400.821	-0.027	0.058
-619.361	-25.457	-0.170	0.102
-618.346	-12.794	-0.214	-0.141
-617.332	-10.885	-0.347	-0.232
-616.317	110.119	-0.185	-0.224
-615.303	-5.826	0.288	-0.199
-614.288	50.240	-0.045	-0.043
-613.273	-16.301	0.414	-0.265
-612.259	160.795	-0.082	0.115
-611.244	8.156	-0.276	0.209
-610.230	200.133	0.151	-0.234
-609.215	-157.347	0.143	0.009
-608.201	168.529	-0.117	0.168
-607.186	147.189	-0.095	0.128
-606.171	-125.526	0.165	-0.025
-605.157	249.209	-0.116	0.199
-604.142	456.601	-0.123	-0.275
-603.128	72.625	-0.082	0.086
-602.113	337.275	-0.045	-0.089
-601.098	-200.000	0.012	-0.147
-600.084	100.358	0.251	0.294
-599.069	215.865	-0.076	0.122
-598.055	-28.640	-0.168	0.098
-597.040	-71.008	0.285	-0.108
-596.025	-40.941	-0.069	0.036
-595.011	-200.000	-0.030	0.177
-593.996	-14.774	-0.140	0.091
-592.982	-200.000	0.095	0.616
-591.967	235.650	0.079	-0.132
-590.952	69.131	0.268	0.278
-589.938	360.905	0.207	0.418
-588.923	605.522	0.059	-0.148
-587.909	-62.175	-0.140	0.059
-586.894	-13.706	-0.175	0.114
-585.879	-141.250	-0.322	0.033
-584.865	-24.435	0.152	0.091
-583.850	800.000	0.057	-0.167
-582.836	-30.672	-0.222	0.126
-581.821	9.561	0.126	-0.096
-580.806	-28.019	0.069	0.040
-579.792	344.507	0.031	0.062
-578.777	73.920	0.256	0.270
-577.763	265.506	-0.109	-0.192
-576.748	-133.975	0.132	-0.017
-575.733	-147.647	0.066	0.006
-574.719	388.850	-0.145	-0.303
-573.704	-61.677	0.419	0.177
-572.690	800.000	-0.059	0.251
-571.675	-42.033	0.034	-0.018
-570.661	-134.284	0.242	0.030
-569.646	-53.102	-0.116	0.054
-568.631	-68.769	-0.477	0.186
-567.617	800.000	0.095	0.275
-566.602	-16.259	0.132	0.085
-565.588	-40.286	-0.209	-0.110
-564.573	-107.954	0.018	-0.004
-563.558	206.458	-0.180	-0.282
-562.544	800.000	-0.059	-0.195
-561.529	233.086	-0.167	-0.276
-560.515	-183.130	-0.340	0.006
-559.500	-86.625	-0.243	-0.075
-558.485	-19.480	0.149	-0.093
-557.471	-200.000	-0.097	0.567
-556.456	-200.000	0.007	0.051
-555.442	-187.956	0.178	-0.002
-554.427	-98.378	-0.192	-0.050
-553.412	204.966	0.134	-0.209
-552.398	-129.347	0.110	-0.015
-551.383	-19.884	-0.108	-0.067
-550.369	734.870	-0.151	-0.408
-549.354	-22.813	-0.209	0.127
-548.339	249.807	0.077	0.132
-547.325	615.883	0.085	-0.214
-546.310	-63.034	-0.319	-0.133
-545.296	726.119	-0.111	0.299
-544.281	-120.529	0.429	0.073
-543.266	142.071	-0.144	-0.192
-542.252	-200.000	-0.009	-0.079
-541.237	300.277	0.303	-0.562
-540.223	154.942	0.131	-0.181
-539.208	-2.174	-0.190	-0.134
-538.193	68.697	-0.175	-0.181
-537.179	-129.677	-0.079	-0.011
-536.164	-22.297	-0.158	0.096
-535.150	-63.880	0.280	0.115
-534.135	230.251	-0.033	-0.053
-533.121	23.018	0.275	-0.227
-532.106	-105.489	-0.233	0.053
-531.091	454.919	0.123	0.275
-530.077	182.562	0.125	-0.186
-529.062	-77.307	-0.224	0.078
-528.048	-62.536	0.076	-0.032
-527.033	-127.615	-0.134	0.020
-526.018	-58.105	0.336	-0.147
-525.004	-200.000	-0.029	-0.239
-523.989	-52.614	-0.099	-0.046
-522.975	-200.000	0.023	-0.363
-521.960	1.564	-0.264	0.191
-520.945	-80.583	0.064	0.022
-519.931	-200.000	0.023	-0.346
-518.916	-91.390	0.060	-0.017
-517.902	353.654	-0.181	0.362
-516.887	-131.382	-0.301	-0.040
-515.872	155.812	0.275	-0.382
-514.858	337.526	-0.063	0.123
-513.843	63.634	-0.101	-0.102
-512.829	35.301	-0.142	0.125
-511.814	-200.000	-0.035	0.207
-510.799	-75.105	0.220	0.079
-509.785	-63.723	-0.434	-0.179
-508.770	69.854	-0.126	-0.131
-507.756	131.629	0.152	-0.196
-506.741	649.271	-0.102	0.262
-505.726	46.584	0.040	0.037
-504.712	-200.000	0.042	0.216
-503.697	-122.222	0.005	-0.001
-502.683	-143.720	-0.174	-0.017
-501.668	327.939	0.039	0.076
-500.653	-81.043	-0.231	0.077
-499.639	146.873	-0.192	-0.259
-498.624	-200.000	0.030	-0.206
-497.610	41.340	-0.067	0.061
-496.595	350.287	-0.066	0.131
-495.581	-200.000	-0.003	0.081
-494.566	605.633	0.048	0.119
-493.551	-49.197	-0.172	-0.083
-492.537	727.612	0.109	-0.292
-491.522	-50.743	-0.207	0.098
-490.508	430.781	0.096	0.208
-489.493	-62.670	-0.062	-0.026
-488.478	-61.831	0.131	0.055
-487.464	-33.200	0.257	-0.143
-486.449	37.155	-0.280	-0.249
-485.435	328.985	-0.165	0.318
-484.420	-30.662	0.157	0.089
-483.405	184.551	-0.045	-0.068
-482.391	-39.822	-0.191	0.100
-481.376	-61.788	-0.056	-0.023
-480.362	-34.763	0.158	-0.087
-479.347	-57.270	0.131	0.058
-478.332	644.152	0.010	0.026
-477.318	11.935	-0.041	-0.032
-476.303	-7.185	0.269	-0.183
-475.289	-1.540	-0.210	0.148
-474.274	157.790	-0.183	0.255
-473.259	33.829	0.193	0.169
-472.245	800.000	-0.105	-0.298
-471.230	236.719	-0.169	-0.280
-470.216	122.287	-0.227	-0.285
-469.201	41.222	0.260	0.236
-468.186	-20.593	-0.162	-0.100
-467.172	-153.528	-0.378	0.026
-466.157	62.907	-0.128	0.128
-465.143	-82.315	-0.241	0.079
-464.128	69.454	-0.093	0.096
-463.113	7.213	-0.117	0.088
-462.099	25.685	0.177	-0.148
-461.084	-93.637	-0.201	0.056
-460.070	800.000	-0.108	0.302
-459.055	-200.000	-0.073	-0.351
-458.040	147.195	-0.157	-0.211
-457.026	436.866	0.092	-0.201
-456.011	-19.994	-0.226	-0.140
-454.997	-134.498	0.194	-0.024
-453.982	800.000	0.024	0.096
-452.968	89.211	0.155	-0.173
-451.953	-46.645	0.217	0.106
-450.938	229.834	-0.109	-0.179
-449.924	-37.796	0.155	0.082
-448.909	-166.775	-0.286	0.012
-447.895	800.000	-0.056	-0.237
-446.880	800.000	0.030	0.127
-445.865	145.952	-0.148	0.199
-444.851	224.333	-0.213	-0.345
-443.836	-120.768	0.057	-0.010
-442.822	-16.275	0.115	0.073
-441.807	-184.349	0.150	-0.002
-440.792	513.448	-0.071	0.167
-439.778	32.118	-0.150	0.130
-438.763	97.526	0.060	0.069
-437.749	525.963	0.074	0.175
-436.734	-200.000	0.022	-0.176
-435.719	-50.995	0.105	-0.049
-434.705	-200.000	0.019	-0.171
-433.690	69.718	-0.163	-0.168
-432.676	-168.745	0.179	0.007
-431.661	72.223	0.286	-0.298
-430.646	-53.322	0.043	-0.020
-429.632	84.908	-0.185	-0.203
-428.617	38.888	0.084	0.075
-427.603	-26.575	0.196	-0.115
-426.588	-32.467	-0.142	0.079
-425.573	226.831	-0.090	0.146
-424.559	142.617	-0.150	0.200
-423.544	582.078	-0.041	-0.101
-422.530	-110.008	-0.246	-0.052
-421.515	22.472	0.056	-0.046
-420.500	303.382	-0.010	-0.019
-419.486	-200.000	-0.009	-0.066
-418.471	-171.372	0.289	-0.010
-417.457	46.258	0.063	-0.058
-416.442	-30.500	-0.238	0.135
-415.428	661.973	0.103	0.265
-414.413	405.779	0.035	-0.074
-413.398	-35.020	0.037	0.020
-412.384	346.113	0.193	0.380
-411.369	-76.902	0.143	0.050
-410.355	-69.402	-0.096	-0.037
-409.340	-28.196	0.139	-0.081
-408.325	-73.062	0.297	-0.109
-407.311	-95.554	-0.178	0.048
-406.296	79.715	-0.161	0.173
-405.282	-82.752	-0.492	0.159
-404.267	-169.335	-0.124	0.005
-403.252	-136.538	-0.142	-0.016
-402.238	134.447	0.229	0.298
-401.223	-200.000	0.009	-0.239
-400.209	-190.413	-0.051	0.001
-399.194	179.275	-0.015	-0.022
-398.179	-200.000	-0.001	-0.277
-397.165	-59.372	0.275	-0.118
-396.150	-124.529	-0.301	-0.047
-395.136	569.974	0.079	0.192
-394.121	105.660	0.260	0.307
-393.106	552.168	0.085	-0.205
-392.092	116.923	0.208	-0.255
-391.077	-75.235	0.359	-0.128
-390.063	727.321	-0.158	0.423
-389.048	400.446	-0.099	0.209
-388.033	207.896	0.142	-0.222
-387.019	-105.134	-0.100	0.023
-386.004	-157.190	-0.057	-0.003
-384.990	277.018	-0.112	-0.199
-383.975	-15.266	0.117	0.075
-382.960	90.573	0.162	0.181
-381.946	800.000	0.039	-0.158
-380.931	-200.000	-0.014	0.129
-379.917	-87.246	-0.203	0.062
-378.902	112.533	0.173	0.210
-377.888	327.666	0.120	0.230
-376.873	-120.609	-0.056	-0.009
-375.858	800.000	0.117	-0.370
-374.844	369.446	-0.119	-0.241
-373.829	105.037	0.151	-0.178
-372.815	-200.000	0.007	0.285
-371.800	-140.751	-0.405	-0.042
-370.785	45.591	-0.088	0.081
-369.771	0.783	-0.283	-0.202
-368.756	-70.382	-0.441	0.167
-367.742	43.649	0.226	-0.207
-366.727	-49.319	0.145	-0.069
-365.712	308.395	-0.049	0.091
-364.698	-82.318	-0.450	-0.146
-363.683	800.000	-0.070	-0.224
-362.669	18.652	0.402	-0.321
-361.654	-200.000	0.022	-0.253
-360.639	59.095	0.065	-0.064
-359.625	-200.000	0.006	0.178
-358.610	26.883	-0.076	-0.064
-357.596	28.231	0.181	-0.153
-356.581	104.995	0.235	0.277
-355.566	-73.508	0.342	0.125
-354.552	-81.091	-0.219	-0.072
-353.537	-44.369	0.219	0.110
-352.523	-77.437	-0.271	0.094
-351.508	-200.000	0.049	-0.487
-350.493	286.051	0.079	-0.142
-349.479	411.423	-0.070	-0.148
-348.464	-70.048	0.281	-0.107
-347.450	-107.264	0.120	0.026
-346.435	-200.000	-0.001	0.026
-345.420	-200.000	0.071	0.313
-344.406	-200.000	-0.031	-0.445
-343.391	-14.646	-0.270	0.173
-342.377	-101.591	-0.380	0.092
-341.362	-124.399	0.259	0.040
-340.348	302.553	0.118	-0.218
-339.333	-200.000	0.028	-0.323
-338.318	437.232	-0.060	0.130
-337.304	-137.646	-0.202	0.023
-336.289	-115.282	0.279	0.053
-335.275	-2.197	-0.143	0.100
-334.260	110.440	0.213	-0.255
-333.245	-38.329	0.132	-0.070
-332.231	340.852	-0.113	-0.221
-331.216	712.426	0.132	-0.350
-330.202	136.259	0.121	-0.157
-329.187	-16.752	0.207	-0.131
-328.172	-165.756	-0.075	-0.003
-327.158	-48.928	-0.141	0.067
-326.143	156.047	0.126	0.173
-325.129	800.000	0.011	-0.045
-324.114	-200.000	0.009	0.153
-323.099	-9.485	0.225	0.150
-322.085	-47.395	0.420	0.204
-321.070	31.613	-0.072	-0.062
-320.056	-200.000	0.031	-0.415
-319.041	-147.610	-0.062	-0.005
-318.026	-5.261	-0.064	0.044
-317.012	-200.000	0.082	0.377
-315.997	67.439	-0.302	0.307
-314.983	-88.148	0.116	0.035
-313.968	-5.353	0.072	0.050
-312.953	-104.007	0.222	-0.052
-311.939	84.912	-0.075	-0.082
-310.924	-6.277	-0.346	0.236
-309.910	-133.672	-0.225	-0.028
-308.895	-200.000	0.022	0.127
-307.880	636.994	0.068	-0.173
-306.866	84.683	-0.085	-0.092
-305.851	800.000	0.126	0.358
-304.837	800.000	0.002	-0.009
-303.822	-164.596	-0.182	0.008
-302.807	-200.000	0.031	-0.209
-301.793	-32.576	-0.114	-0.063
-300.778	34.740	-0.171	-0.149
-299.764	-87.398	0.217	0.065
-298.749	594.913	-0.042	-0.105
-297.735	800.000	0.082	0.282
-296.720	67.930	-0.059	0.060
-295.705	-2.127	0.151	-0.105
-294.691	454.162	0.076	-0.167
-293.676	-200.000	-0.013	0.076
-292.662	-11.762	0.040	-0.026
-291.647	-118.947	0.219	-0.038
-290.632	-7.486	0.204	0.137
-289.618	478.283	-0.038	-0.085
-288.603	800.000	0.021	0.092
-287.589	167.499	-0.110	0.156
-286.574	-5.495	0.182	0.125
-285.559	695.150	0.137	-0.359
-284.545	428.221	0.099	-0.212
-283.530	223.692	0.171	-0.275
-282.516	-135.719	-0.296	-0.035
-281.501	59.618	0.242	0.238
-280.486	-200.000	-0.098	-0.540
-279.472	326.737	-0.096	0.183
-278.457	604.775	0.117	-0.289
-277.443	-82.397	0.220	-0.071
-276.428	-200.000	0.046	0.398
-275.413	207.692	-0.054	0.085
-274.399	546.593	0.121	-0.289
-273.384	-200.000	0.012	-0.055
-272.370	-200.000	0.039	0.189
-271.355	-115.266	0.346	-0.065
-270.340	25.242	-0.204	0.168
-269.326	-144.341	-0.167	0.015
-268.311	-52.606	-0.265	-0.122
-267.297	-200.000	0.049	-0.275
-266.282	-200.000	0.078	0.425
-265.267	-35.756	-0.300	-0.162
-264.253	2.730	-0.289	-0.208
-263.238	600.179	-0.074	-0.182
-262.224	153.982	0.192	0.262
-261.209	583.202	0.058	0.142
-260.195	-101.600	-0.161	0.039
-259.180	-89.041	0.186	0.055
-258.165	679.401	0.064	-0.165
-257.151	279.747	0.058	-0.102
-256.136	800.000	-0.096	-0.324
-255.122	100.982	0.102	-0.118
-254.107	159.490	-0.214	0.296
-253.092	118.421	0.198	-0.243
-252.078	-155.001	-0.113	0.007
-251.063	94.791	0.234	0.265
-250.049	178.742	0.073	0.106
-249.034	-200.000	-0.054	0.257
-248.019	72.376	0.068	0.071
-247.005	800.000	-0.047	0.155
-245.990	-175.161	0.260	-0.007
-244.976	-200.000	-0.005	-0.090
-243.961	613.843	-0.153	-0.382
-242.946	-154.392	-0.084	-0.006
-241.932	415.403	0.084	0.179
-240.917	1.270	0.190	-0.136
-239.903	-57.149	-0.201	0.088
-238.888	66.129	-0.218	0.220
-237.873	308.847	-0.207	-0.384
-236.859	800.000	0.034	0.110
-235.844	351.148	-0.093	0.183
-234.830	-43.464	-0.202	0.101
-233.815	-149.406	0.079	-0.006
-232.800	124.215	0.203	0.253
-231.786	57.807	0.077	0.075
-230.771	268.761	0.197	0.344
-229.757	800.000	-0.055	0.167
-228.742	793.696	0.112	0.305
-227.727	-91.138	0.398	-0.113
-226.713	114.456	0.086	0.104
-225.698	-200.000	0.011	-0.070
-224.684	-200.000	-0.007	-0.293
-223.669	-20.639	-0.252	-0.154
-222.655	-10.736	-0.164	0.108
-221.640	56.375	0.409	0.395
-220.625	-200.000	0.012	-0.136
-219.611	100.891	0.135	0.156
-218.596	-135.530	-0.060	-0.007
-217.582	-200.000	-0.086	0.425
-216.567	104.304	0.067	0.078
-215.552	-151.472	0.219	0.016
-214.538	65.585	-0.121	-0.121
-213.523	595.449	0.102	0.250
-212.509	-28.308	0.177	-0.102
-211.494	-200.000	-0.018	0.300
-210.479	-161.723	-0.330	-0.017
-209.465	-155.971	-0.209	0.013
-208.450	-52.266	-0.219	0.101
-207.436	-200.000	-0.016	0.227
-206.421	65.240	-0.138	-0.139
-205.406	-13.343	-0.160	-0.103
-204.392	217.401	-0.025	-0.039
-203.377	68.108	0.248	-0.252
-202.363	-200.000	0.007	-0.231
-201.348	48.645	0.114	0.106
-200.333	-200.000	-0.020	-0.090
-199.319	87.249	0.027	0.030
-198.304	-200.000	-0.018	0.410
-197.290	-56.295	0.167	-0.074
-196.275	-157.342	-0.217	-0.013
-195.260	-71.662	0.479	-0.177
-194.246	-200.000	0.027	-0.128
-193.231	-200.000	0.014	0.346
-192.217	52.874	0.280	0.266
-191.202	-111.928	-0.284	0.057
-190.187	-145.554	0.246	-0.022
-189.173	514.089	-0.081	0.188
-188.158	-64.357	0.240	0.097
-187.144	74.176	-0.136	-0.141
-186.129	-124.425	-0.025	-0.004
-185.114	800.000	0.031	0.097
-184.100	-200.000	-0.023	0.245
-183.085	-200.000	0.037	0.178
-182.071	87.595	-0.034	0.037
-181.056	172.101	-0.145	-0.207
-180.042	135.826	0.275	0.355
-179.027	800.000	-0.024	-0.096
-178.012	-25.959	0.179	0.105
-176.998	-81.537	-0.050	-0.016
-175.983	800.000	-0.030	0.089
-174.969	83.580	0.162	0.175
-173.954	-112.237	-0.105	-0.021
-172.939	800.000	0.008	0.027
-171.925	-200.000	-0.023	-0.206
-170.910	800.000	0.021	0.060
-169.896	-8.880	-0.087	0.058
-168.881	-160.338	0.268	-0.014
-167.866	78.726	0.128	0.136
-166.852	-105.719	-0.194	-0.043
-165.837	688.513	0.043	-0.111
-164.823	-52.545	0.221	-0.101
-163.808	-97.913	0.329	0.084
-162.793	800.000	-0.072	0.204
-161.779	-87.996	0.201	0.060
-160.764	341.930	0.169	0.328
-159.750	17.515	0.235	-0.185
-158.735	-41.710	0.088	-0.045
-157.720	-200.000	0.100	0.438
-156.706	-174.952	-0.114	-0.003
-155.691	47.414	0.147	-0.135
-154.677	602.217	-0.024	-0.059
-153.662	800.000	0.062	0.233
-152.647	-40.358	0.184	0.095
-151.633	215.252	0.108	0.169
-150.618	-74.336	-0.275	0.098
-149.604	35.416	0.171	-0.149
-148.589	-112.583	-0.319	0.063
-147.574	11.588	-0.119	0.090
-146.560	105.164	-0.188	-0.220
-145.545	-200.000	-0.003	-0.072
-144.531	-116.770	-0.162	0.029
-143.516	-200.000	0.056	-0.349
-142.502	324.409	0.205	-0.389
-141.487	-152.277	0.091	-0.006
-140.472	-200.000	-0.036	-0.184
-139.458	25.549	-0.082	-0.068
-138.443	697.886	0.021	0.056
-137.429	-200.000	0.009	-0.159
-136.414	10.506	0.264	-0.199
-135.399	-34.836	-0.166	-0.090
-134.385	246.828	0.137	0.229
-133.370	60.891	-0.119	-0.117
-132.356	327.532	-0.044	-0.083
-131.341	-121.656	0.094	-0.015
-130.326	14.635	-0.300	0.232
-129.312	-200.000	-0.010	0.218
-128.297	-83.046	-0.087	-0.028
-127.283	-98.378	0.149	-0.038
-126.268	383.153	0.060	0.123
-125.253	-200.000	0.028	-0.391
-124.239	73.115	-0.341	0.353
-123.224	526.040	-0.026	0.061
-122.210	234.360	-0.151	0.247
-121.195	19.276	0.132	0.105
-120.180	44.314	-0.035	-0.032
-119.166	91.782	-0.212	0.236
-118.151	800.000	0.136	0.393
-117.137	-83.308	0.334	0.106
-116.122	52.238	0.236	-0.223
-115.107	800.000	-0.037	-0.155
-114.093	589.733	0.068	-0.165
-113.078	-121.347	0.174	0.029
-112.064	-92.434	0.305	0.085
-111.049	25.385	-0.142	0.117
-110.034	50.407	0.099	0.093
-109.020	-18.416	0.271	-0.168
-108.005	116.083	0.174	-0.211
-106.991	12.876	0.208	0.159
-105.976	-9.133	0.170	-0.112
-104.962	-129.501	-0.121	0.017
-103.947	800.000	0.099	0.380
-102.932	149.432	-0.053	-0.071
-101.918	800.000	-0.138	0.440
-100.903	800.000	0.102	-0.281
-99.889	-69.121	-0.016	0.006
-98.874	-200.000	0.081	-0.385
-97.859	796.976	-0.022	-0.059
-96.845	103.709	0.097	0.113
-95.830	-200.000	-0.015	-0.094
-94.816	-200.000	-0.048	0.232
-93.801	800.000	-0.019	-0.073
-92.786	-10.189	0.097	0.063
-91.772	-19.690	0.126	0.077
-90.757	-200.000	0.002	0.243
-89.743	-109.117	-0.100	0.021
-88.728	-163.915	0.120	0.006
-87.713	-200.000	-0.005	-0.137
-86.699	-200.000	0.000	-0.088
-85.684	-200.000	0.023	0.124
-84.670	-200.000	0.008	0.177
-83.655	29.221	0.262	0.220
-82.640	103.737	-0.162	-0.188
-81.626	-200.000	0.022	-0.238
-80.611	-175.362	0.525	-0.014
-79.597	-110.383	0.102	-0.021
-78.582	-101.926	0.244	-0.058
-77.567	-158.375	-0.196	0.011
-76.553	-171.439	0.155	0.005
-75.538	800.000	-0.078	0.240
-74.524	15.253	-0.219	0.170
-73.509	-111.362	0.093	0.019
-72.494	463.936	0.072	0.158
-71.480	-200.000	0.012	-0.272
-70.465	-187.060	0.171	-0.002
-69.451	800.000	0.039	0.123
-68.436	14.069	-0.086	-0.066
-67.422	137.394	-0.395	0.511
-66.407	-75.895	0.118	0.041
-65.392	279.353	0.024	0.043
-64.378	239.858	-0.051	0.084
-63.363	-86.799	0.252	0.076
-62.349	800.000	0.082	-0.233
-61.334	23.954	-1.103	-0.898
-60.319	18.342	0.373	0.294
-59.305	-200.000	0.101	-0.880
-58.290	639.219	0.393	0.987
-57.276	656.690	0.690	1.751
-56.261	-200.000	98.040	597.824
-55.246	532.277	1417.131	3310.353
-54.232	150.381	2611.068	3499.465
-53.217	111.637	2169.940	2584.526
-52.203	44.597	1621.100	1470.820
-51.188	36.641	1357.372	1183.079
-50.173	33.505	1314.781	1127.295
-49.159	56.758	1363.280	1310.038
-48.144	59.216	1379.871	1340.758
-47.130	36.853	1336.666	1166.120
-46.115	33.244	1319.166	1129.312
-45.100	33.106	1314.110	1124.120
-44.086	33.044	1311.644	1121.602
-43.071	33.030	1309.073	1119.275
-42.057	33.085	1307.390	1118.113
-41.042	33.046	1306.070	1116.710
-40.027	33.073	1304.678	1115.636
-39.013	33.129	1302.447	1114.015
-37.998	33.065	1300.524	1111.947
-36.984	33.131	1298.966	1110.961
-35.969	33.194	1297.346	1109.901
-34.954	33.224	1295.404	1108.370
-33.940	33.236	1293.840	1107.060
-32.925	33.174	1292.867	1105.821
-31.911	33.324	1291.088	1105.130
-30.896	33.354	1289.617	1104.003
-29.881	33.383	1287.918	1102.672
-28.867	33.182	1287.671	1101.248
-27.852	33.371	1285.606	1100.533
-26.838	33.276	1284.157	1098.699
-25.823	33.321	1282.618	1097.599
-24.809	33.270	1281.385	1096.205
-23.794	33.296	1279.812	1094.970
-22.779	33.238	1278.994	1093.890
-21.765	33.240	1277.583	1092.654
-20.750	33.283	1276.180	1091.657
-19.736	33.216	1274.745	1089.997
-18.721	33.153	1274.092	1089.031
-17.706	33.122	1273.119	1087.983
-16.692	33.170	1271.574	1086.895
-15.677	33.206	1270.446	1086.092
-14.663	33.124	1269.394	1084.683
-13.648	33.132	1268.390	1083.825
-12.633	33.135	1267.468	1083.011
-11.619	33.116	1266.508	1082.042
-10.604	33.110	1265.580	1081.171
-9.590	33.090	1264.602	1080.178
-8.575	33.104	1263.565	1079.330
-7.560	33.017	1263.041	1078.339
-6.546	33.065	1261.824	1077.532
-5.531	33.148	1261.393	1077.593
-4.517	33.137	1260.340	1076.590
-3.502	33.201	1259.608	1076.289
-2.487	33.172	1258.574	1075.194
-1.473	33.170	1254.410	1071.584
-0.458	31.999	1240.461	1053.057
0.556	28.701	1223.387	1017.117
1.571	25.194	1229.972	1002.933
2.586	24.412	1245.619	1011.174
3.600	23.651	1234.546	997.822
4.615	16.998	1159.730	902.016
5.629	6.525	1081.504	788.922
6.644	2.049	1060.759	751.713
7.659	1.649	1058.391	748.000
8.673	1.492	1057.151	746.290
9.688	1.491	1055.791	745.257
10.702	1.748	1054.359	745.437
11.717	8.070	1063.307	782.827
12.731	18.571	1077.950	845.577
13.746	23.918	1085.263	877.705
14.761	24.998	1085.998	883.552
15.775	24.991	1085.756	883.241
16.790	24.912	1084.424	881.691
17.804	24.692	1084.515	880.602
18.819	24.984	1083.563	881.191
19.834	25.015	1083.432	881.159
20.848	25.081	1083.233	881.240
21.863	25.046	1082.630	880.502
22.877	24.941	1082.081	879.459
23.892	24.971	1080.840	878.521
24.907	24.936	1080.855	878.284
25.921	24.996	1079.417	877.333
26.936	24.979	1077.328	875.475
27.950	24.895	1076.116	873.999
28.965	24.748	1074.726	872.080
29.980	24.887	1073.410	871.610
30.994	25.185	1071.959	871.805
32.009	25.106	1071.340	870.841
33.023	24.981	1069.909	868.991
34.038	24.922	1069.462	868.264
35.053	25.082	1069.022	868.606
36.067	25.053	1067.887	867.470
37.082	25.011	1067.643	866.992
38.096	25.278	1066.608	867.365
39.111	25.237	1065.802	866.432
40.126	25.195	1064.158	864.817
41.140	24.681	1063.048	861.362
42.155	24.561	1061.386	859.361
43.169	24.656	1060.599	859.109
44.184	24.678	1059.709	858.416
45.199	24.500	1058.727	856.691
46.213	24.672	1057.771	856.663
47.228	24.868	1056.758	856.708
48.242	24.910	1056.438	856.575
49.257	25.021	1055.525	856.286
50.271	25.167	1054.149	855.793
51.286	25.122	1053.971	855.357
52.301	25.017	1053.008	853.999
53.315	25.047	1051.685	852.993
54.330	24.971	1051.118	852.098
55.344	25.059	1050.328	851.798
56.359	25.003	1049.256	850.588
57.374	24.898	1048.266	849.215
58.388	24.812	1047.752	848.315
59.403	24.547	1047.361	846.665
60.417	24.520	1046.056	845.409
61.432	24.577	1045.727	845.339
62.447	24.671	1044.947	845.076
63.461	24.730	1044.319	844.771
64.476	24.722	1042.705	843.353
65.490	24.629	1041.788	842.100
66.505	24.689	1041.518	842.089
67.520	24.592	1041.377	841.444
68.534	24.548	1039.510	839.653
69.549	24.283	1038.773	837.740
70.563	24.298	1037.684	836.856
71.578	24.284	1037.127	836.269
72.593	24.105	1036.161	834.575
73.607	24.210	1035.732	834.651
74.622	24.470	1035.787	835.840
75.636	24.489	1034.614	834.907
76.651	24.295	1033.645	833.144
77.666	24.291	1032.972	832.508
78.680	24.410	1032.357	832.497
79.695	24.535	1031.501	832.313
80.709	24.641	1030.726	832.109
81.724	24.588	1030.360	831.493
82.739	24.696	1029.515	831.240
83.753	25.118	1028.692	832.460
84.768	25.348	1027.959	832.860
85.782	25.442	1026.991	832.441
86.797	25.311	1025.869	830.848
87.812	25.262	1025.037	829.875
88.826	25.251	1024.236	829.102
89.841	25.239	1023.276	828.195
90.855	25.175	1022.530	827.224
91.870	25.378	1021.625	827.355
92.884	25.204	1020.649	825.690
93.899	25.111	1019.371	824.154
94.914	25.163	1018.983	824.008
95.928	25.033	1017.665	822.272
96.943	24.831	1016.165	820.063
97.957	24.682	1015.103	818.450
98.972	24.490	1014.017	816.623
99.987	24.782	1013.666	817.605
101.001	25.002	1012.581	817.663
102.016	25.022	1011.707	816.973
103.030	24.950	1011.300	816.245
104.045	24.717	1010.347	814.342
105.060	24.617	1008.921	812.668
106.074	24.782	1008.784	813.237
107.089	25.079	1008.216	814.055
108.103	24.966	1006.913	812.419
109.118	24.764	1005.447	810.249
110.133	24.774	1004.537	809.486
111.147	24.464	1003.395	807.092
112.162	24.295	1002.740	805.733
113.176	24.688	1002.109	806.927
114.191	24.549	1001.063	805.388
115.206	24.341	999.830	803.388
116.220	24.311	999.108	802.604
117.235	24.436	998.294	802.441
118.249	24.356	997.838	801.644
119.264	24.264	996.955	800.451
120.279	24.457	996.022	800.493
121.293	24.427	995.180	799.612
122.308	24.513	994.654	799.502
123.322	24.227	993.433	797.171
124.337	24.166	992.083	795.746
125.352	23.716	990.319	792.256
126.366	23.779	989.504	791.816
127.381	24.483	989.999	795.278
128.395	24.916	989.544	796.768
129.410	25.156	988.301	796.762
130.424	24.962	987.543	795.221
131.439	24.882	987.145	794.475
132.454	25.001	985.492	793.599
133.468	24.927	984.707	792.572
134.483	25.068	983.986	792.543
135.497	25.122	983.649	792.443
136.512	25.067	983.051	791.646
137.527	25.237	981.605	791.162
138.541	25.141	981.252	790.384
139.556	25.194	980.154	789.663
140.570	25.318	979.686	789.761
141.585	25.246	978.724	788.601
142.600	25.103	977.627	787.018
143.614	25.425	976.929	787.799
144.629	25.536	976.164	787.598
145.643	25.511	974.354	785.959
146.658	25.094	973.810	783.631
147.673	24.996	972.101	781.759
148.687	25.071	971.154	781.254
149.702	25.007	969.793	779.812
150.716	25.047	969.385	779.588
151.731	25.032	968.964	779.113
152.746	25.329	968.266	779.773
153.760	25.345	967.748	779.359
154.775	25.339	966.915	778.591
155.789	25.346	966.064	777.868
156.804	25.379	965.309	777.336
157.819	25.366	964.698	776.720
158.833	25.611	963.721	776.922
159.848	25.461	962.997	775.621
160.862	25.416	961.839	774.425
161.877	25.325	960.967	773.261
162.892	25.360	959.894	772.482
163.906	25.372	958.379	771.245
164.921	25.351	957.946	770.741
165.935	25.229	957.556	769.832
166.950	25.459	955.997	769.496
167.964	25.338	955.558	768.560
168.979	25.188	954.645	767.112
169.994	25.161	953.413	765.940
171.008	25.433	952.972	766.681
172.023	25.390	952.171	765.786
173.037	25.125	951.150	763.765
174.052	25.152	950.200	763.053
175.067	25.157	949.561	762.492
176.081	25.243	948.561	761.986
177.096	25.105	948.249	761.084
178.110	24.919	947.227	759.408
179.125	24.683	946.606	757.840
180.140	24.816	945.972	757.827
181.154	24.869	945.842	757.882
182.169	25.237	945.796	759.339
183.183	25.558	945.133	760.096
184.198	25.266	944.564	758.337
185.213	25.271	943.761	757.646
186.227	25.313	943.044	757.181
187.242	25.446	942.213	757.006
188.256	25.488	941.856	756.830
189.271	25.419	940.886	755.693
190.286	25.109	940.176	753.754
191.300	24.563	938.317	749.901
192.315	23.691	937.084	745.195
193.329	23.516	937.116	744.417
194.344	24.527	937.521	748.918
195.359	25.191	936.823	751.074
196.373	25.283	936.387	751.046
197.388	25.081	935.969	749.796
198.402	25.190	935.295	749.644
199.417	25.277	934.408	749.230
200.432	25.011	933.568	747.385
201.446	24.752	932.940	745.734
202.461	24.829	932.396	745.553
203.475	24.102	930.471	740.926
204.490	23.215	929.179	736.142
205.504	24.161	929.723	740.445
206.519	24.856	929.185	742.836
207.534	24.854	928.974	742.591
208.548	25.448	928.374	744.508
209.563	25.093	927.504	742.277
210.577	25.009	926.865	741.353
211.592	25.590	926.947	743.755
212.607	25.430	925.888	742.180
213.621	25.386	925.251	741.421
214.636	25.458	924.579	741.116
215.650	25.356	923.844	740.039
216.665	25.502	923.202	740.059
217.680	25.381	922.579	738.997
218.694	24.895	921.277	735.893
219.709	24.837	920.436	734.916
220.723	25.193	920.270	736.182
221.738	25.330	919.440	736.013
222.753	25.274	918.789	735.199
223.767	25.446	918.430	735.548
224.782	25.492	918.168	735.463
225.796	25.553	917.682	735.257
226.811	24.815	916.003	730.833
227.826	24.143	915.341	727.497
228.840	24.455	914.355	727.923
229.855	24.557	913.364	727.485
230.869	23.988	912.476	724.395
231.884	24.625	912.230	726.730
232.899	25.170	912.854	729.381
233.913	25.199	912.234	728.938
234.928	25.067	911.467	727.722
235.942	25.085	911.162	727.489
236.957	24.827	909.763	725.261
237.972	24.717	909.651	724.662
238.986	24.897	908.697	724.567
240.001	25.021	908.258	724.653
241.015	24.948	907.901	724.012
242.030	25.168	907.097	724.195
243.045	25.344	906.715	724.536
244.059	25.439	906.399	724.600
245.074	25.208	905.206	722.655
246.088	24.747	904.520	720.185
247.103	25.210	904.326	721.830
248.117	25.635	904.504	723.620
249.132	25.977	903.931	724.470
250.147	26.122	903.477	724.624
251.161	26.202	902.864	724.389
252.176	26.022	902.366	723.203
253.190	26.309	901.762	723.805
254.205	26.478	901.002	723.809
255.220	26.278	900.728	722.725
256.234	26.077	900.034	721.300
257.249	26.078	898.959	720.380
258.263	26.205	898.534	720.481
259.278	26.198	898.226	720.144
260.293	26.106	897.322	718.988
261.307	26.176	896.449	718.502
262.322	25.972	895.711	717.036
263.336	25.153	893.983	712.338
264.351	24.121	892.097	706.678
265.366	24.219	891.862	706.818
266.380	25.465	892.393	712.119
267.395	25.856	891.913	713.222
268.409	25.781	891.306	712.378
269.424	25.810	890.989	712.176
270.439	25.878	890.345	711.865
271.453	26.156	889.723	712.402
272.468	26.126	889.433	711.990
273.482	26.143	889.038	711.678
274.497	25.699	887.587	708.706
275.512	25.503	886.737	707.192
276.526	25.898	886.973	708.872
277.541	26.034	886.519	708.979
278.555	25.735	885.624	707.026
279.570	25.764	884.677	706.323
280.585	25.990	884.363	706.896
281.599	25.814	883.169	705.188
282.614	25.211	881.939	701.788
283.628	25.104	881.934	701.303
284.643	25.576	881.643	702.857
285.657	25.087	880.596	700.049
286.672	24.810	879.800	698.271
287.687	25.524	879.341	700.631
288.701	25.485	879.206	700.307
289.716	25.064	878.183	697.794
290.730	25.288	877.298	697.900
291.745	24.791	876.542	695.305
292.760	25.211	876.312	696.691
293.774	26.268	876.843	701.156
294.789	26.554	876.581	701.998
295.803	26.562	875.932	701.444
296.818	26.504	875.074	700.472
297.833	26.181	874.010	698.308
298.847	25.962	873.585	697.061
299.862	26.259	873.135	697.788
300.876	26.510	872.830	698.449
301.891	26.555	872.183	698.045
302.906	25.992	871.379	695.169
303.920	26.247	870.985	695.775
304.935	26.415	871.023	696.392
305.949	26.402	870.232	695.650
306.964	26.214	869.319	694.134
307.979	26.206	869.382	694.093
308.993	26.600	868.969	695.216
310.008	26.631	868.430	694.840
311.022	26.307	867.495	692.788
312.037	26.260	866.823	692.012
313.052	26.011	865.771	690.158
314.066	25.127	864.202	685.468
315.081	24.722	863.678	683.442
316.095	25.627	863.919	687.030
317.110	26.058	864.093	688.754
318.125	25.238	861.870	683.799
319.139	24.292	860.418	678.985
320.154	24.205	860.420	678.597
321.168	25.120	860.683	682.227
322.183	25.752	861.042	684.854
323.197	25.926	860.936	685.372
324.212	26.186	860.177	685.696
325.227	26.158	859.630	685.090
326.241	26.064	858.871	684.069
327.256	26.058	858.321	683.549
328.270	26.010	857.356	682.539
329.285	25.880	856.543	681.339
330.300	25.516	855.721	679.248
331.314	25.723	855.895	680.111
332.329	26.183	855.610	681.559
333.343	26.191	855.640	681.553
334.358	26.207	854.832	680.910
335.373	26.446	854.211	681.255
336.387	26.703	854.364	682.286
337.402	26.714	854.128	682.080
338.416	26.639	853.974	681.612
339.431	26.889	853.656	682.238
340.446	27.043	852.995	682.227
341.460	26.728	852.994	680.982
342.475	26.568	851.910	679.458
343.489	26.815	851.331	679.863
344.504	27.053	851.288	680.660
345.519	27.244	850.934	681.029
346.533	27.235	850.601	680.670
347.548	27.211	850.078	680.102
348.562	27.142	849.323	679.179
349.577	27.092	848.546	678.314
350.592	26.931	848.369	677.511
351.606	27.088	847.442	677.294
352.621	26.934	846.413	675.839
353.635	26.994	845.523	675.293
354.650	26.205	844.132	671.191
355.665	25.371	842.735	666.926
356.679	25.843	842.239	668.224
357.694	26.247	842.150	669.590
358.708	25.928	841.638	667.943
359.723	26.546	841.613	670.154
360.738	26.705	841.270	670.410
361.752	26.924	840.849	670.826
362.767	27.065	840.694	671.161
363.781	27.370	840.285	671.904
364.796	27.401	839.937	671.679
365.810	27.535	839.646	671.880
366.825	27.484	838.864	671.010
367.840	27.291	838.098	669.625
368.854	26.800	837.161	667.013
369.869	26.751	836.733	666.434
370.883	26.942	836.202	666.651
371.898	26.728	836.013	665.656
372.913	27.020	835.371	666.157
373.927	26.928	835.417	665.796
374.942	27.315	834.746	666.624
375.956	27.221	834.402	665.946
376.971	27.436	834.180	666.495
377.986	27.521	833.827	666.466
379.000	27.370	833.319	665.447
380.015	27.367	832.273	664.545
381.029	27.347	831.900	664.115
382.044	27.442	831.389	663.995
383.059	27.467	830.837	663.586
384.073	27.647	830.235	663.700
385.088	27.461	829.633	662.486
386.102	27.208	828.695	660.757
387.117	27.239	828.025	660.278
388.132	26.768	827.037	657.721
389.146	26.438	826.073	655.702
390.161	26.782	826.333	657.098
391.175	27.181	826.188	658.370
392.190	26.850	825.030	656.191
393.205	25.472	822.750	649.345
394.219	24.240	820.534	643.096
395.234	23.972	820.852	642.319
396.248	25.501	822.506	649.084
397.263	27.102	822.823	655.053
398.278	27.039	822.816	654.764
399.292	26.669	822.090	652.794
400.307	26.893	821.366	652.969
401.321	26.946	821.065	652.862
402.336	27.215	821.061	653.769
403.350	27.608	820.904	654.997
404.365	27.970	820.946	656.274
405.380	28.165	820.490	656.552
406.394	28.247	819.761	656.204
407.409	28.167	819.445	655.606
408.423	28.156	819.185	655.302
409.438	28.219	818.768	655.135
410.453	28.309	818.154	654.908
411.467	28.163	817.728	653.986
412.482	28.203	817.428	653.833
413.496	28.230	817.069	653.584
414.511	28.194	816.643	653.056
415.526	28.325	816.005	652.956
416.540	28.212	815.399	652.009
417.555	27.793	814.618	649.835
418.569	27.828	814.591	649.883
419.584	27.780	813.788	649.012
420.599	27.699	813.327	648.300
421.613	108.046	1286.347	1451.488
422.628	93.400	1355.267	1451.624
