DTS Sentinel unit serial number:	SN413079Multiplexer serial number:	ORYXHardware model number:	OX4-SRSoftware version number:	ORYX F/W v4.00 Oryx Data Collector v3.7.2.0data status	okinstallation	princeton_trtdifferential loss correction	single-endedforward channel	channel 1reverse channel	N/Adate	2019/09/11time	04:44:11forward acquisition time	60.00reverse acquisition time	0.00gamma	496.2192k internal	0.2331k external	0.2331temperature offset calibration	0.9928default loss term (dB/km)	0.3790temperature slope calibration	1.0000multiplexer offset coefficient	1.0000multiplexer slope coefficient	1.0000fibre end	0.00T internal ref (°C)	29.50T ext. ref 1 (°C)	-0.25T ext. ref 2 (°C)	23.39length (m)	temperature (°C)	Stokes	anti-Stokes-747.200	-200.000	-0.023	-0.654
-746.185	212.050	-0.040	-0.063
-745.171	1.854	0.217	-0.158
-744.156	-169.523	-0.130	0.005
-743.142	12.094	0.231	0.179
-742.127	185.196	-0.199	0.298
-741.112	238.009	-0.127	-0.211
-740.098	594.489	0.039	0.098
-739.083	-106.979	0.107	-0.024
-738.069	303.723	0.045	-0.085
-737.054	407.470	0.098	0.208
-736.039	-133.375	-0.314	-0.040
-735.025	-63.973	0.286	0.118
-734.010	-68.273	-0.402	0.157
-732.996	-86.225	-0.089	0.028
-731.981	-46.074	-0.106	-0.052
-730.966	-17.011	0.103	0.066
-729.952	-116.773	-0.432	0.080
-728.937	238.548	-0.187	-0.313
-727.923	-200.000	-0.046	-0.209
-726.908	42.874	0.069	-0.063
-725.894	-36.902	-0.184	-0.099
-724.879	-162.591	0.130	-0.006
-723.864	-73.895	0.267	0.098
-722.850	45.688	0.110	-0.103
-721.835	-22.485	-0.231	0.141
-720.821	18.230	-0.041	0.033
-719.806	-116.041	0.398	-0.075
-718.791	77.144	-0.348	-0.372
-717.777	-86.861	-0.153	-0.047
-716.762	-200.000	0.088	-0.491
-715.748	133.717	-0.003	-0.004
-714.733	-200.000	0.238	-0.000
-713.718	452.472	-0.095	0.212
-712.704	-5.249	0.102	-0.071
-711.689	161.915	0.149	-0.210
-710.675	-9.384	0.133	0.089
-709.660	195.068	0.049	0.074
-708.645	189.100	-0.088	0.133
-707.631	249.543	-0.172	0.294
-706.616	37.270	-0.207	0.184
-705.602	-67.061	0.109	-0.043
-704.587	-18.944	0.206	0.129
-703.572	15.328	0.107	0.084
-702.558	-200.000	0.006	0.034
-701.543	-92.938	-0.338	-0.095
-700.529	-175.392	0.179	-0.005
-699.514	800.000	-0.045	0.177
-698.499	143.415	0.080	0.107
-697.485	3.021	-0.304	-0.222
-696.470	-200.000	-0.022	0.114
-695.456	-49.496	-0.269	0.129
-694.441	46.517	0.164	0.153
-693.426	-108.554	-0.030	0.007
-692.412	385.538	-0.087	-0.181
-691.397	-200.000	0.030	0.185
-690.383	789.788	0.038	0.106
-689.368	-200.000	-0.016	0.085
-688.354	-14.834	0.145	-0.093
-687.339	394.879	0.073	0.153
-686.324	147.425	-0.146	0.197
-685.310	-200.000	-0.019	-0.244
-684.295	306.262	-0.149	0.279
-683.281	145.164	-0.091	-0.122
-682.266	-140.314	0.266	-0.028
-681.251	-78.781	-0.275	-0.094
-680.237	-200.000	-0.012	0.091
-679.222	-61.574	0.283	-0.119
-678.208	-152.391	-0.276	-0.020
-677.193	-200.000	-0.007	-0.177
-676.178	-61.900	0.265	0.111
-675.164	-115.937	-0.053	0.010
-674.149	352.548	0.095	0.189
-673.135	800.000	0.036	0.120
-672.120	267.677	-0.103	0.182
-671.105	-144.027	-0.249	-0.023
-670.091	-34.591	0.174	-0.096
-669.076	217.353	0.091	-0.145
-668.062	-105.156	0.192	0.044
-667.047	-97.013	0.180	0.047
-666.032	54.584	-0.092	-0.089
-665.018	47.070	-0.212	0.198
-664.003	107.653	-0.039	0.047
-662.989	9.310	-0.165	0.125
-661.974	800.000	0.041	0.140
-660.959	-200.000	0.019	-0.094
-659.945	-200.000	0.006	0.083
-658.930	105.946	0.234	-0.278
-657.916	-200.000	-0.003	-0.355
-656.901	-6.395	-0.145	0.099
-655.886	-61.439	0.310	-0.131
-654.872	-200.000	-0.004	-0.109
-653.857	143.687	0.082	0.109
-652.843	-200.000	-0.030	0.395
-651.828	183.951	0.142	-0.210
-650.814	491.683	-0.119	0.274
-649.799	-96.033	-0.207	-0.055
-648.784	-200.000	0.050	0.276
-647.770	-42.882	0.118	-0.060
-646.755	353.565	0.078	-0.156
-645.741	205.491	-0.177	0.276
-644.726	-43.328	-0.064	0.032
-643.711	-200.000	0.019	0.195
-642.697	80.626	-0.305	-0.329
-641.682	800.000	-0.052	-0.175
-640.668	-0.302	0.098	0.070
-639.653	192.841	-0.109	-0.166
-638.638	35.261	-0.266	0.234
-637.624	68.331	-0.120	-0.123
-636.609	-0.610	-0.188	-0.134
-635.595	448.449	0.043	0.096
-634.580	800.000	0.054	0.201
-633.565	140.327	-0.138	0.182
-632.551	257.615	0.148	-0.254
-631.536	-167.727	-0.106	-0.004
-630.522	9.966	0.181	0.138
-629.507	800.000	-0.047	-0.152
-628.492	-63.492	-0.368	0.151
-627.478	-58.856	0.153	-0.066
-626.463	-60.958	0.064	-0.027
-625.449	685.434	0.060	0.157
-624.434	-13.000	0.145	0.095
-623.419	190.345	-0.175	-0.263
-622.405	-43.621	-0.168	-0.085
-621.390	93.417	-0.145	-0.165
-620.376	800.000	-0.071	-0.311
-619.361	192.273	-0.275	0.416
-618.346	-178.440	0.127	-0.003
-617.332	110.682	-0.107	0.129
-616.317	-200.000	-0.018	-0.164
-615.303	9.489	-0.253	0.192
-614.288	-200.000	-0.021	-0.253
-613.273	581.805	0.066	0.162
-612.259	-160.274	-0.519	0.028
-611.244	800.000	0.082	-0.240
-610.230	-143.189	-0.125	0.012
-609.215	-123.922	-0.232	0.037
-608.201	-143.102	0.129	0.012
-607.186	-141.691	-0.180	0.018
-606.171	272.419	0.090	-0.159
-605.157	326.516	0.105	0.202
-604.142	-43.243	-0.179	0.091
-603.128	-200.000	0.004	-0.144
-602.113	-168.225	-0.315	0.012
-601.098	-6.333	0.208	0.142
-600.084	-200.000	-0.050	0.251
-599.069	800.000	0.078	0.222
-598.055	800.000	0.046	-0.140
-597.040	115.565	-0.157	-0.192
-596.025	424.877	-0.099	0.212
-595.011	-200.000	0.018	-0.180
-593.996	-188.329	0.235	-0.003
-592.982	800.000	-0.029	-0.091
-591.967	21.236	0.025	0.020
-590.952	-200.000	0.091	-0.550
-589.938	749.683	-0.046	-0.124
-588.923	-57.008	0.255	-0.113
-587.909	23.741	-0.171	-0.141
-586.894	68.292	-0.116	0.119
-585.879	-65.502	0.125	0.050
-584.865	53.400	-0.154	0.148
-583.850	147.954	0.182	0.245
-582.836	141.676	0.017	-0.023
-581.821	3.353	0.072	-0.053
-580.806	-137.050	-0.092	-0.011
-579.792	51.355	-0.169	-0.160
-578.777	502.292	0.023	-0.054
-577.763	77.828	0.192	0.205
-576.748	-200.000	0.015	-0.298
-575.733	414.468	-0.064	-0.137
-574.719	185.626	0.036	0.054
-573.704	123.714	0.195	-0.244
-572.690	240.404	0.253	0.422
-571.675	-200.000	-0.036	0.159
-570.661	-128.473	0.217	0.031
-569.646	-87.429	0.195	-0.059
-568.631	-200.000	-0.012	-0.308
-567.617	140.941	-0.097	-0.128
-566.602	414.311	0.063	-0.133
-565.588	197.134	-0.057	-0.086
-564.573	427.691	0.120	0.258
-563.558	-31.016	0.194	0.109
-562.544	-200.000	-0.006	-0.128
-561.529	-35.335	0.303	0.164
-560.515	-200.000	0.005	0.184
-559.500	46.541	-0.076	-0.070
-558.485	800.000	0.070	0.291
-557.471	-53.072	-0.049	-0.023
-556.456	283.625	0.188	-0.338
-555.442	-200.000	0.005	-0.148
-554.427	-200.000	-0.013	0.125
-553.412	-200.000	0.048	0.297
-552.398	53.765	-0.009	0.009
-551.383	-10.645	0.098	-0.065
-550.369	-33.280	0.252	-0.139
-549.354	-27.295	0.173	-0.101
-548.339	-105.754	0.167	-0.038
-547.325	624.794	0.077	-0.193
-546.310	295.308	0.145	-0.266
-545.296	-200.000	0.014	0.260
-544.281	53.115	0.025	-0.024
-543.266	800.000	0.055	0.167
-542.252	-97.469	0.061	0.016
-541.237	-200.000	-0.068	-0.439
-540.223	-200.000	-0.017	-0.080
-539.208	-48.921	0.086	0.041
-538.193	-200.000	-0.055	-0.252
-537.179	-179.080	0.067	0.001
-536.164	800.000	0.029	-0.111
-535.150	-200.000	0.020	-0.110
-534.135	-17.227	-0.173	0.109
-533.121	-46.627	0.241	0.118
-532.106	-22.365	-0.195	0.118
-531.091	16.857	-0.081	0.064
-530.077	105.150	-0.044	-0.052
-529.062	249.033	-0.111	0.187
-528.048	-143.562	-0.239	0.023
-527.033	-200.000	0.127	-0.000
-526.018	-200.000	-0.047	0.288
-525.004	-14.757	-0.230	0.147
-523.989	-94.504	0.243	-0.066
-522.975	-5.947	-0.120	-0.082
-521.960	800.000	0.110	-0.333
-520.945	1.590	0.287	-0.206
-519.931	290.212	-0.227	0.411
-518.916	53.771	0.337	0.323
-517.902	-83.736	0.225	0.072
-516.887	-124.306	0.104	-0.016
-515.872	183.371	-0.057	-0.084
-514.858	800.000	-0.144	0.442
-513.843	-200.000	0.013	0.261
-512.829	116.033	-0.114	0.139
-511.814	133.302	-0.173	0.223
-510.799	-29.461	-0.195	0.111
-509.785	-86.103	0.234	0.072
-508.770	-200.000	-0.006	0.047
-507.756	86.595	0.062	-0.068
-506.741	121.847	-0.197	-0.245
-505.726	-82.001	0.232	-0.076
-504.712	47.589	0.416	-0.387
-503.697	-114.286	0.217	-0.042
-502.683	800.000	-0.068	-0.207
-501.668	800.000	0.014	-0.053
-500.653	127.300	-0.185	0.235
-499.639	-150.637	-0.219	-0.017
-498.624	-200.000	-0.028	0.246
-497.610	-200.000	-0.047	0.276
-496.595	800.000	-0.074	0.220
-495.581	-200.000	0.052	0.322
-494.566	-0.569	-0.264	0.187
-493.551	800.000	-0.031	-0.114
-492.537	-115.040	0.347	0.066
-491.522	-200.000	0.025	0.455
-490.508	155.917	0.179	0.246
-489.493	282.209	0.103	-0.184
-488.478	-86.916	0.156	-0.047
-487.464	101.693	-0.088	0.103
-486.449	-29.837	0.079	0.045
-485.435	137.121	0.055	0.071
-484.420	-111.049	-0.251	-0.051
-483.405	-200.000	-0.043	0.264
-482.391	38.487	0.193	0.171
-481.376	-165.254	-0.023	0.001
-480.362	-65.999	-0.260	-0.104
-479.347	800.000	-0.046	0.144
-478.332	136.461	0.059	-0.077
-477.318	-106.165	0.065	0.015
-476.303	800.000	0.062	0.173
-475.289	3.979	-0.041	0.030
-474.274	-88.799	-0.113	0.033
-473.259	-153.858	-0.183	0.012
-472.245	-200.000	-0.020	0.104
-471.230	80.696	-0.106	0.114
-470.216	-140.592	-0.250	0.026
-469.201	-168.089	0.398	0.015
-468.186	120.606	0.289	0.357
-467.172	435.911	-0.091	0.197
-466.157	85.630	-0.162	-0.178
-465.143	393.255	-0.086	-0.177
-464.128	-89.760	-0.152	0.044
-463.113	-200.000	0.019	0.155
-462.099	14.634	0.162	-0.126
-461.084	170.409	0.040	-0.057
-460.070	-74.815	-0.151	0.054
-459.055	-27.233	0.269	0.156
-458.040	361.390	-0.095	-0.190
-457.026	-200.000	0.007	-0.263
-456.011	-29.293	-0.168	0.096
-454.997	-200.000	0.027	0.000
-453.982	42.256	-0.082	0.074
-452.968	121.994	0.301	-0.373
-451.953	389.315	-0.104	-0.214
-450.938	-120.218	-0.102	0.017
-449.924	-128.960	-0.121	0.017
-448.909	800.000	0.107	-0.373
-447.895	180.705	0.072	-0.105
-446.880	-62.174	0.141	0.059
-445.865	-90.798	0.279	0.080
-444.851	-200.000	0.008	-0.106
-443.836	-119.027	-0.214	0.037
-442.822	40.677	-0.186	0.167
-441.807	-117.005	0.178	-0.032
-440.792	-44.317	-0.140	-0.070
-439.778	381.323	0.178	-0.363
-438.763	140.333	0.211	-0.277
-437.749	-200.000	0.011	-0.107
-436.734	-68.762	-0.130	-0.050
-435.719	-12.789	0.145	0.094
-434.705	434.654	0.042	0.091
-433.690	800.000	-0.061	-0.236
-432.676	89.303	0.065	0.072
-431.661	52.021	-0.149	0.141
-430.646	800.000	-0.108	0.457
-429.632	293.577	-0.237	0.430
-428.617	-46.599	-0.146	0.071
-427.603	249.793	0.215	0.363
-426.588	129.018	-0.190	-0.241
-425.573	199.922	-0.160	-0.245
-424.559	167.571	-0.050	0.070
-423.544	-99.083	-0.047	0.012
-422.530	800.000	-0.082	0.229
-421.515	-38.850	-0.172	0.090
-420.500	124.120	0.138	-0.172
-419.486	128.931	0.038	-0.048
-418.471	-66.092	0.350	-0.139
-417.457	800.000	-0.089	-0.287
-416.442	318.761	-0.055	-0.104
-415.428	-116.331	-0.240	0.044
-414.413	28.104	0.101	-0.084
-413.398	-130.677	0.241	0.032
-412.384	-62.371	-0.315	0.130
-411.369	-200.000	-0.039	0.194
-410.355	800.000	-0.010	-0.033
-409.340	16.172	-0.235	-0.184
-408.325	26.865	-0.033	-0.028
-407.311	-200.000	0.007	0.202
-406.296	204.130	0.047	0.073
-405.282	619.594	0.042	-0.105
-404.267	-200.000	0.001	0.148
-403.252	-56.088	-0.252	0.111
-402.238	288.015	0.051	-0.091
-401.223	-108.163	0.358	-0.077
-400.209	646.769	-0.097	0.246
-399.194	-200.000	-0.091	-0.439
-398.179	14.199	0.308	-0.238
-397.165	553.261	0.070	-0.166
-396.150	-33.056	0.095	0.052
-395.136	55.276	-0.086	0.082
-394.121	553.532	-0.129	-0.308
-393.106	-70.220	-0.090	-0.034
-392.092	-162.936	0.104	0.005
-391.077	-105.217	0.112	0.025
-390.063	-200.000	0.067	0.423
-389.048	-147.441	-0.221	-0.019
-388.033	800.000	-0.023	0.080
-387.019	-22.277	-0.379	-0.228
-386.004	108.646	-0.081	-0.097
-384.990	128.516	-0.145	-0.183
-383.975	-200.000	-0.039	-0.182
-382.960	289.060	0.044	0.080
-381.946	-112.010	-0.186	0.037
-380.931	-95.517	0.279	0.074
-379.917	-92.635	-0.366	-0.102
-378.902	-200.000	0.020	-0.155
-377.888	-200.000	-0.051	-0.381
-376.873	-69.201	-0.533	0.203
-375.858	800.000	0.076	0.226
-374.844	-200.000	0.036	0.317
-373.829	-200.000	0.046	-0.204
-372.815	352.804	0.086	0.169
-371.800	59.183	-0.219	0.214
-370.785	-120.188	-0.271	0.046
-369.771	-4.677	-0.074	-0.051
-368.756	-91.932	0.178	0.050
-367.742	-117.930	0.250	-0.044
-366.727	256.237	0.129	-0.219
-365.712	292.801	0.086	0.155
-364.698	-58.705	-0.134	-0.058
-363.683	172.633	0.143	0.204
-362.669	676.827	0.078	-0.201
-361.654	800.000	-0.053	-0.200
-360.639	-59.677	-0.406	-0.172
-359.625	-200.000	-0.007	-0.126
-358.610	-95.599	-0.199	0.053
-357.596	22.199	0.441	0.357
-356.581	99.952	0.200	-0.229
-355.566	800.000	-0.068	-0.262
-354.552	2.241	0.348	-0.249
-353.537	-66.215	0.052	0.021
-352.523	-200.000	0.010	0.405
-351.508	-15.208	0.335	-0.213
-350.493	124.599	0.084	-0.105
-349.479	67.334	0.327	-0.330
-348.464	15.361	0.333	0.259
-347.450	800.000	-0.044	0.160
-346.435	-200.000	0.029	0.252
-345.420	-3.303	-0.233	0.161
-344.406	562.201	-0.109	-0.262
-343.391	-47.124	-0.061	0.030
-342.377	-200.000	-0.035	0.364
-341.362	-200.000	0.066	-0.311
-340.348	430.303	-0.072	-0.155
-339.333	-200.000	0.017	-0.110
-338.318	306.930	-0.102	0.188
-337.304	-12.977	-0.133	-0.085
-336.289	661.433	-0.062	-0.159
-335.275	-200.000	-0.030	-0.252
-334.260	800.000	0.088	-0.271
-333.245	462.492	-0.068	0.151
-332.231	800.000	-0.029	0.111
-331.216	91.543	0.030	-0.033
-330.202	-145.844	0.194	0.017
-329.187	-200.000	-0.003	-0.044
-328.172	-186.493	0.064	0.001
-327.158	-4.620	0.234	0.160
-326.143	577.705	0.064	0.155
-325.129	174.824	0.178	-0.255
-324.114	67.377	0.143	-0.144
-323.099	655.688	-0.114	0.290
-322.085	-66.948	-0.128	0.050
-321.070	-200.000	0.011	0.260
-320.056	302.130	0.195	0.357
-319.041	41.432	0.057	0.051
-318.026	51.379	-0.263	0.247
-317.012	204.620	0.147	-0.226
-315.997	364.909	0.041	-0.082
-314.983	-109.137	-0.055	-0.012
-313.968	-72.349	0.214	-0.078
-312.953	-58.877	-0.238	-0.102
-311.939	223.624	0.102	-0.163
-310.924	411.173	-0.121	0.253
-309.910	52.180	0.134	0.126
-308.895	-104.314	0.197	0.045
-307.880	206.014	0.261	-0.402
-306.866	486.885	-0.115	-0.260
-305.851	-5.287	-0.104	-0.070
-304.837	104.877	0.112	0.130
-303.822	55.456	0.133	0.127
-302.807	800.000	-0.111	0.446
-301.793	529.861	-0.107	0.251
-300.778	165.598	-0.244	-0.342
-299.764	800.000	0.057	-0.212
-298.749	-85.866	-0.343	-0.105
-297.735	-77.023	0.118	0.041
-296.720	-161.056	0.181	-0.009
-295.705	-26.498	-0.177	0.103
-294.691	800.000	0.022	0.073
-293.676	800.000	-0.119	-0.479
-292.662	1.982	-0.081	0.058
-291.647	575.686	0.175	-0.424
-290.632	-13.546	-0.136	0.087
-289.618	-117.280	0.251	0.045
-288.603	-12.032	-0.121	0.079
-287.589	109.711	0.184	-0.219
-286.574	-200.000	0.034	0.153
-285.559	-14.732	0.203	0.129
-284.545	-200.000	-0.004	-0.122
-283.530	-72.143	-0.269	-0.099
-282.516	350.363	0.167	0.327
-281.501	739.851	0.068	0.181
-280.486	-162.926	-0.157	0.008
-279.472	-113.729	-0.159	-0.031
-278.457	-24.361	-0.229	-0.135
-277.443	-104.401	0.318	-0.073
-276.428	-200.000	-0.044	-0.241
-275.413	-58.067	-0.235	-0.101
-274.399	-151.880	-0.290	-0.021
-273.384	320.892	0.111	-0.208
-272.370	-53.363	0.182	-0.082
-271.355	-200.000	-0.053	0.467
-270.340	-8.927	-0.295	-0.195
-269.326	50.453	0.118	-0.110
-268.311	-200.000	-0.016	0.152
-267.297	800.000	0.047	-0.164
-266.282	-85.275	-0.175	-0.054
-265.267	209.838	0.048	0.075
-264.253	-1.167	0.285	0.199
-263.238	-88.739	0.201	0.059
-262.224	-10.279	-0.106	-0.070
-261.209	-200.000	-0.035	-0.256
-260.195	-77.559	0.198	-0.068
-259.180	184.261	0.122	0.179
-258.165	-165.364	-0.151	-0.007
-257.151	-76.900	0.118	0.041
-256.136	-200.000	-0.006	-0.099
-255.122	-200.000	-0.040	0.256
-254.107	-200.000	0.035	0.334
-253.092	5.934	0.315	0.230
-252.078	-200.000	0.008	-0.128
-251.063	-200.000	0.001	0.078
-250.049	437.319	0.047	-0.101
-249.034	528.922	0.122	-0.285
-248.019	-50.137	-0.047	0.022
-247.005	-193.071	-0.252	-0.002
-245.990	116.589	-0.052	0.063
-244.976	-77.560	0.276	-0.094
-243.961	-62.437	0.060	0.024
-242.946	-82.471	0.126	0.040
-241.932	-177.606	-0.129	0.003
-240.917	143.367	-0.079	-0.104
-239.903	98.210	-0.181	-0.206
-238.888	115.224	0.109	0.131
-237.873	54.948	-0.178	0.170
-236.859	38.330	-0.292	-0.257
-235.844	86.782	-0.100	-0.108
-234.830	-200.000	-0.008	-0.159
-233.815	251.537	-0.154	-0.259
-232.800	-104.950	-0.225	0.051
-231.786	-58.576	0.128	-0.055
-230.771	-19.816	-0.169	-0.103
-229.757	-200.000	0.031	-0.240
-228.742	-7.669	0.128	0.086
-227.727	46.929	-0.112	-0.102
-226.713	800.000	-0.093	-0.278
-225.698	0.735	0.117	-0.083
-224.684	-5.990	0.195	-0.131
-223.669	800.000	-0.068	0.243
-222.655	-9.119	-0.143	0.094
-221.640	100.213	0.222	0.254
-220.625	-148.266	0.470	0.038
-219.611	-200.000	0.025	-0.229
-218.596	-105.433	0.182	-0.041
-217.582	-200.000	0.026	0.147
-216.567	-83.711	0.101	0.032
-215.552	-64.873	-0.295	0.118
-214.538	-200.000	-0.052	0.263
-213.523	95.689	0.066	0.074
-212.509	215.953	-0.074	-0.116
-211.494	-155.622	-0.215	0.014
-210.479	91.416	0.150	0.166
-209.465	733.109	-0.046	-0.120
-208.450	-134.714	-0.356	0.043
-207.436	-31.934	-0.086	0.048
-206.421	-120.534	-0.213	-0.036
-205.406	-168.298	0.478	-0.018
-204.392	115.868	-0.043	-0.052
-203.377	-94.778	0.128	0.034
-202.363	-95.900	0.263	-0.069
-201.348	273.040	-0.028	-0.048
-200.333	800.000	0.092	0.329
-199.319	800.000	0.028	-0.082
-198.304	2.698	0.252	0.180
-197.290	-200.000	-0.003	0.149
-196.275	-4.673	-0.134	-0.091
-195.260	800.000	-0.041	-0.173
-194.246	-129.636	-0.326	-0.044
-193.231	-85.419	0.390	-0.120
-192.217	202.975	0.128	0.195
-191.202	-19.208	0.042	0.026
-190.187	627.564	-0.116	-0.288
-189.173	-200.000	0.038	0.364
-188.158	243.254	-0.040	0.067
-187.144	116.113	0.255	-0.307
-186.129	-200.000	0.007	0.068
-185.114	88.296	0.078	0.086
-184.100	-200.000	-0.002	0.321
-183.085	-134.177	0.476	-0.058
-182.071	800.000	-0.038	-0.112
-181.056	-115.584	0.071	-0.013
-180.042	301.311	0.118	-0.215
-179.027	-143.702	0.264	0.025
-178.012	-93.990	-0.204	0.055
-176.998	306.469	0.070	-0.128
-175.983	561.485	-0.101	-0.241
-174.969	-28.922	-0.127	0.072
-173.954	-137.022	-0.070	0.008
-172.939	-107.899	-0.231	0.049
-171.925	-25.533	-0.278	-0.161
-170.910	-66.907	0.372	0.145
-169.896	26.321	0.021	-0.017
-168.881	-83.005	-0.429	-0.136
-167.866	208.600	-0.095	0.145
-166.852	-109.554	-0.285	-0.059
-165.837	62.056	0.126	-0.124
-164.823	88.203	0.201	0.219
-163.808	599.389	0.148	0.361
-162.793	64.070	-0.322	-0.319
-161.779	96.658	-0.280	0.316
-160.764	-200.000	-0.013	0.131
-159.750	92.503	-0.073	0.081
-158.735	-200.000	-0.024	0.135
-157.720	138.915	-0.016	0.020
-156.706	347.794	-0.095	-0.185
-155.691	-200.000	-0.093	-0.607
-154.677	-200.000	0.028	-0.142
-153.662	-108.708	0.267	0.056
-152.647	-200.000	-0.017	0.255
-151.633	800.000	-0.022	0.087
-150.618	-88.648	0.250	0.073
-149.604	30.549	-0.116	-0.097
-148.589	14.948	-0.140	0.108
-147.574	800.000	0.061	-0.242
-146.560	-137.484	-0.189	-0.021
-145.545	248.299	-0.278	0.462
-144.531	-200.000	0.011	-0.243
-143.516	261.297	-0.086	-0.146
-142.502	-168.646	-0.222	0.008
-141.487	-13.260	-0.171	-0.109
-140.472	-4.768	-0.182	0.123
-139.458	-200.000	0.007	0.200
-138.443	92.758	-0.102	0.113
-137.429	-94.253	0.162	0.044
-136.414	124.262	-0.142	-0.176
-135.399	53.847	-0.093	0.088
-134.385	334.205	0.031	0.059
-133.370	-200.000	0.001	0.089
-132.356	-200.000	-0.266	0.001
-131.341	-61.502	-0.117	-0.048
-130.326	100.125	-0.206	-0.235
-129.312	-200.000	-0.019	-0.104
-128.297	-200.000	0.014	-0.075
-127.283	32.866	0.148	-0.126
-126.268	80.366	0.225	0.238
-125.253	373.265	0.064	0.127
-124.239	487.228	-0.044	0.099
-123.224	106.234	0.100	0.116
-122.210	74.313	-0.165	0.170
-121.195	-60.106	-0.017	-0.007
-120.180	228.086	0.078	-0.124
-119.166	71.848	0.090	-0.092
-118.151	-61.009	0.293	0.121
-117.137	206.094	-0.296	-0.453
-116.122	196.326	-0.176	-0.263
-115.107	800.000	-0.055	0.205
-114.093	-157.228	-0.182	0.011
-113.078	44.745	-0.141	0.128
-112.064	-200.000	0.030	-0.459
-111.049	800.000	0.034	0.121
-110.034	800.000	-0.028	0.076
-109.020	86.178	-0.119	-0.128
-108.005	800.000	0.009	-0.039
-106.991	391.485	0.046	-0.093
-105.976	-200.000	-0.075	0.527
-104.962	105.103	-0.201	0.233
-103.947	800.000	0.073	-0.289
-102.932	130.285	-0.174	-0.219
-101.918	182.020	0.161	-0.233
-100.903	-200.000	-0.118	0.000
-99.889	800.000	0.048	0.158
-98.874	-34.849	-0.361	-0.193
-97.859	265.984	0.074	0.127
-96.845	-200.000	-0.004	-0.136
-95.830	89.792	0.090	0.099
-94.816	-47.947	-0.127	-0.060
-93.801	-10.680	-0.165	0.107
-92.786	67.113	-0.047	0.047
-91.772	16.786	-0.124	-0.097
-90.757	-103.410	-0.048	-0.011
-89.743	-54.165	-0.272	-0.121
-88.728	-16.659	0.012	0.007
-87.713	137.146	-0.156	-0.200
-86.699	-200.000	-0.086	0.418
-85.684	21.453	-0.070	-0.056
-84.670	182.438	-0.030	0.044
-83.655	-112.207	-0.194	0.038
-82.640	301.711	-0.112	0.203
-81.626	-200.000	-0.014	-0.076
-80.611	-154.014	0.207	-0.014
-79.597	-200.000	-0.010	0.142
-78.582	-12.106	-0.041	-0.026
-77.567	-132.841	0.385	-0.048
-76.553	-200.000	-0.031	0.184
-75.538	123.662	0.122	0.150
-74.524	775.379	-0.049	-0.132
-73.509	800.000	0.140	-0.475
-72.494	-145.408	-0.066	-0.006
-71.480	393.724	-0.072	0.148
-70.465	-175.130	-0.121	0.003
-69.451	-34.421	0.095	-0.051
-68.436	-36.664	-0.180	0.095
-67.422	-12.795	-0.115	-0.074
-66.407	-67.409	0.381	0.147
-65.392	-180.148	0.085	0.002
-64.378	359.790	-0.103	-0.201
-63.363	-15.513	0.173	-0.108
-62.349	227.191	0.102	0.162
-61.334	87.104	-0.897	-0.972
-60.319	161.843	0.445	0.610
-59.305	800.000	-0.301	-0.969
-58.290	293.360	0.614	1.097
-57.276	800.000	0.479	1.391
-56.261	-200.000	106.195	614.357
-55.246	508.328	1508.006	3430.825
-54.232	176.220	2702.437	3845.279
-53.217	111.776	2166.687	2562.491
-52.203	41.591	1599.665	1419.167
-51.188	33.012	1333.713	1132.042
-50.173	29.860	1292.045	1078.299
-49.159	54.462	1346.608	1270.846
-48.144	54.971	1361.315	1287.697
-47.130	33.204	1316.125	1118.070
-46.115	29.582	1298.683	1082.034
-45.100	29.609	1293.390	1077.741
-44.086	29.480	1291.330	1075.230
-43.071	29.307	1288.771	1072.048
-42.057	29.311	1286.997	1070.557
-41.042	29.372	1284.955	1069.166
-40.027	29.488	1283.221	1068.354
-39.013	29.385	1281.881	1066.599
-37.998	29.311	1280.093	1064.641
-36.984	29.449	1277.836	1063.521
-35.969	29.448	1276.837	1062.643
-34.954	29.459	1274.472	1060.694
-33.940	29.547	1273.540	1060.379
-32.925	29.471	1272.260	1058.836
-31.911	29.692	1270.387	1058.499
-30.896	29.615	1268.968	1056.835
-29.881	29.646	1267.595	1055.827
-28.867	29.643	1266.103	1054.530
-27.852	29.670	1264.287	1053.129
-26.838	29.661	1263.265	1052.182
-25.823	29.627	1262.580	1051.374
-24.809	29.509	1261.072	1049.406
-23.794	29.520	1259.581	1048.186
-22.779	29.595	1257.834	1047.120
-21.765	29.522	1257.285	1046.204
-20.750	29.582	1255.436	1044.967
-19.736	29.547	1254.024	1043.552
-18.721	29.470	1253.255	1042.435
-17.706	29.491	1251.966	1041.442
-16.692	29.511	1250.687	1040.448
-15.677	29.466	1249.713	1039.344
-14.663	29.430	1248.861	1038.389
-13.648	29.388	1247.962	1037.363
-12.633	29.439	1246.622	1036.497
-11.619	29.439	1245.922	1035.871
-10.604	29.538	1244.862	1035.504
-9.590	29.499	1244.279	1034.763
-8.575	29.356	1243.704	1033.442
-7.560	29.458	1242.255	1032.765
-6.546	29.414	1241.396	1031.767
-5.531	29.441	1240.578	1031.198
-4.517	29.361	1240.031	1030.254
-3.502	29.458	1239.288	1030.137
-2.487	29.548	1237.578	1029.176
-1.473	29.399	1234.301	1025.582
-0.458	28.033	1218.833	1005.182
0.556	22.222	1201.997	968.106
1.571	18.761	1206.907	952.806
2.586	18.133	1221.446	960.671
3.600	17.953	1211.482	951.746
4.615	13.493	1140.513	872.465
5.629	4.675	1066.109	771.877
6.644	0.203	1045.760	735.275
7.659	-0.282	1043.420	731.200
8.673	-0.447	1042.564	729.732
9.688	-0.491	1040.966	728.335
10.702	0.048	1039.729	730.021
11.717	6.061	1047.588	764.816
12.731	15.199	1060.558	819.072
13.746	19.576	1066.338	844.925
14.761	20.740	1067.450	851.429
15.775	20.658	1067.103	850.676
16.790	20.359	1066.243	848.454
17.804	20.416	1065.749	848.267
18.819	20.498	1065.076	848.056
19.834	20.631	1064.682	848.317
20.848	20.665	1064.436	848.211
21.863	20.730	1063.635	847.813
22.877	20.565	1063.070	846.486
23.892	20.488	1062.570	845.635
24.907	20.541	1061.817	845.218
25.921	20.577	1060.738	844.462
26.936	20.588	1059.042	843.089
27.950	20.477	1057.959	841.614
28.965	20.356	1055.795	839.233
29.980	20.467	1054.206	838.434
30.994	20.651	1053.044	838.322
32.009	20.575	1052.052	837.090
33.023	20.429	1050.581	835.148
34.038	20.469	1049.790	834.637
35.053	20.704	1049.090	835.131
36.067	20.614	1048.252	833.959
37.082	20.687	1047.707	833.801
38.096	20.864	1047.221	834.188
39.111	20.837	1046.173	833.149
40.126	20.662	1044.779	831.135
41.140	20.454	1042.498	828.250
42.155	20.106	1041.834	825.993
43.169	20.406	1040.896	826.605
44.184	20.318	1039.679	825.148
45.199	20.197	1038.892	823.874
46.213	20.381	1037.409	823.497
47.228	20.333	1036.844	822.751
48.242	20.482	1035.987	822.702
49.257	20.532	1035.400	822.399
50.271	20.673	1034.548	822.318
51.286	20.659	1033.778	821.567
52.301	20.627	1032.613	820.416
53.315	20.555	1031.373	819.022
54.330	20.544	1031.063	818.647
55.344	20.619	1029.960	818.054
56.359	20.640	1029.109	817.406
57.374	20.346	1028.206	815.232
58.388	20.498	1027.318	815.171
59.403	20.422	1026.572	814.152
60.417	20.199	1025.797	812.421
61.432	20.315	1024.653	811.985
62.447	20.592	1024.117	812.784
63.461	20.565	1023.324	811.954
64.476	20.487	1022.320	810.721
65.490	20.373	1021.642	809.583
66.505	20.442	1020.787	809.153
67.520	20.306	1020.248	808.022
68.534	20.332	1018.792	806.919
69.549	19.887	1017.809	804.002
70.563	20.063	1016.981	804.091
71.578	19.953	1016.380	803.035
72.593	19.834	1015.404	801.641
73.607	19.940	1014.979	801.729
74.622	20.316	1014.474	802.996
75.636	20.274	1013.684	802.109
76.651	20.152	1012.719	800.708
77.666	20.006	1012.131	799.497
78.680	20.125	1011.408	799.405
79.695	20.223	1011.153	799.585
80.709	20.319	1010.139	799.157
81.724	20.178	1009.260	797.740
82.739	20.143	1008.484	796.898
83.753	20.612	1007.645	798.318
84.768	21.030	1006.474	799.234
85.782	20.980	1005.826	798.421
86.797	20.887	1004.917	797.202
87.812	20.651	1004.331	795.586
88.826	20.742	1003.266	795.087
89.841	20.788	1002.303	794.464
90.855	20.843	1000.958	793.579
91.870	20.726	1000.699	792.772
92.884	20.708	999.267	791.484
93.899	20.625	998.248	790.231
94.914	20.874	997.286	790.526
95.928	20.615	996.379	788.565
96.943	20.536	994.616	786.744
97.957	20.314	993.751	784.985
98.972	20.129	992.957	783.451
99.987	20.362	992.246	783.874
101.001	20.535	991.560	784.045
102.016	20.597	990.788	783.643
103.030	20.484	989.548	782.087
104.045	20.275	988.782	780.471
105.060	20.167	987.696	779.059
106.074	20.451	987.090	779.788
107.089	20.729	986.830	780.759
108.103	20.575	985.517	778.963
109.118	20.264	983.950	776.262
110.133	20.477	983.109	776.482
111.147	20.279	981.663	774.389
112.162	20.102	980.850	772.888
113.176	20.398	980.353	773.750
114.191	20.263	979.243	772.204
115.206	20.009	978.106	770.107
116.220	19.907	978.018	769.517
117.235	20.076	976.799	769.240
118.249	19.953	975.762	767.812
119.264	20.145	975.087	768.062
120.279	20.042	974.173	766.818
121.293	20.180	973.379	766.736
122.308	20.148	972.624	765.932
123.322	20.052	971.634	764.662
124.337	19.984	969.648	762.731
125.352	19.502	968.127	759.348
126.366	19.497	967.219	758.544
127.381	20.279	967.071	761.799
128.395	20.596	966.492	762.664
129.410	20.790	965.353	762.548
130.424	20.529	964.525	760.684
131.439	20.508	963.939	760.064
132.454	20.505	962.840	759.117
133.468	20.432	961.937	758.017
134.483	20.713	961.198	758.594
135.497	20.886	960.514	758.742
136.512	20.784	959.873	757.724
137.527	20.913	958.294	756.972
138.541	20.860	957.773	756.261
139.556	20.881	957.361	755.961
140.570	20.790	956.734	755.002
141.585	20.847	955.278	754.035
142.600	20.838	954.406	753.242
143.614	20.930	953.859	753.143
144.629	21.047	952.823	752.759
145.643	20.886	951.556	751.001
146.658	20.672	950.470	749.156
147.673	20.713	949.432	748.446
148.687	20.636	948.325	747.176
149.702	20.619	947.051	746.036
150.716	20.552	946.469	745.223
151.731	20.702	945.993	745.422
152.746	21.010	944.823	745.755
153.760	20.996	944.793	745.603
154.775	21.089	943.936	745.260
155.789	21.050	942.895	744.206
156.804	21.014	942.206	743.440
157.819	21.073	941.356	742.956
158.833	21.066	941.071	742.634
159.848	21.094	939.660	741.576
160.862	21.056	938.725	740.609
161.877	20.965	937.603	739.274
162.892	21.016	937.021	738.968
163.906	21.053	935.600	737.936
164.921	20.935	934.691	736.655
165.935	20.959	933.885	736.056
166.950	21.060	932.867	735.614
167.964	20.902	932.334	734.463
168.979	20.780	931.428	733.171
169.994	20.825	930.072	732.228
171.008	21.145	929.339	732.929
172.023	20.994	928.796	731.804
173.037	20.778	927.420	729.748
174.052	20.505	927.214	728.378
175.067	20.678	926.135	728.193
176.081	20.824	925.375	728.139
177.096	20.772	924.754	727.370
178.110	20.556	923.579	725.480
179.125	20.308	923.027	723.946
180.140	20.455	922.639	724.192
181.154	20.627	922.200	724.501
182.169	20.712	922.162	724.759
183.183	20.954	921.639	725.294
184.198	20.898	920.486	724.088
185.213	20.951	919.773	723.684
186.227	20.899	919.177	722.934
187.242	21.092	918.456	723.102
188.256	21.038	917.794	722.294
189.271	21.115	917.094	721.997
190.286	20.760	915.609	719.300
191.300	20.273	914.197	716.117
192.315	19.592	912.947	712.265
193.329	19.528	912.471	711.566
194.344	20.358	913.432	715.675
195.359	20.857	912.813	717.182
196.373	21.061	912.307	717.560
197.388	20.709	911.796	715.649
198.402	20.847	910.832	715.394
199.417	20.790	910.443	714.792
200.432	20.557	909.248	712.838
201.446	20.479	908.487	711.860
202.461	20.350	908.248	711.081
203.475	19.609	906.177	706.364
204.490	18.875	905.031	702.409
205.504	19.821	905.425	706.520
206.519	20.500	905.026	708.917
207.534	20.506	904.908	708.786
208.548	20.920	904.479	710.076
209.563	20.670	903.508	708.232
210.577	20.608	902.939	707.472
211.592	20.973	902.937	708.891
212.607	21.014	901.687	708.015
213.621	20.925	901.408	707.371
214.636	21.017	900.396	706.890
215.650	20.901	899.635	705.758
216.665	21.119	899.286	706.305
217.680	20.820	898.672	704.550
218.694	20.456	897.622	702.191
219.709	20.485	896.698	701.525
220.723	20.723	896.109	701.962
221.738	20.878	895.857	702.328
222.753	20.688	895.125	700.927
223.767	20.987	895.096	702.047
224.782	21.089	894.392	701.841
225.796	21.070	893.526	701.023
226.811	20.325	892.170	696.909
227.826	19.929	890.544	693.989
228.840	20.114	890.300	694.478
229.855	20.058	889.285	693.401
230.869	19.787	888.650	691.759
231.884	20.237	888.628	693.482
232.899	20.829	889.030	696.102
233.913	20.745	888.300	695.132
234.928	20.769	887.698	694.695
235.942	20.855	886.415	693.972
236.957	20.442	885.895	691.860
237.972	20.556	885.215	691.720
238.986	20.432	885.126	691.095
240.001	20.594	883.686	690.556
241.015	20.684	883.362	690.598
242.030	20.889	882.729	690.857
243.045	20.836	882.337	690.278
244.059	20.994	882.124	690.674
245.074	20.791	881.112	689.018
246.088	20.561	880.146	687.294
247.103	20.775	880.150	688.081
248.117	21.354	879.650	689.914
249.132	21.375	879.513	689.830
250.147	21.543	878.766	689.846
251.161	21.704	878.525	690.228
252.176	21.613	877.434	688.952
253.190	21.670	876.896	688.693
254.205	21.875	876.563	689.177
255.220	21.771	876.099	688.343
256.234	21.560	875.622	687.081
257.249	21.752	874.295	686.727
258.263	21.599	873.796	685.677
259.278	21.736	873.257	685.732
260.293	21.733	872.672	685.198
261.307	21.628	872.044	684.234
262.322	21.533	870.955	682.950
263.336	20.639	868.802	677.720
264.351	19.681	867.112	672.612
265.366	19.790	867.197	673.045
266.380	21.065	867.242	677.978
267.395	21.411	867.087	679.142
268.409	21.141	866.859	677.852
269.424	21.395	866.154	678.226
270.439	21.379	865.692	677.742
271.453	21.631	865.132	678.222
272.468	21.821	864.747	678.596
273.482	21.856	864.591	678.548
274.497	21.445	862.991	675.644
275.512	20.915	862.730	673.332
276.526	21.346	862.379	674.665
277.541	21.471	861.993	674.784
278.555	21.265	860.980	673.140
279.570	21.200	860.134	672.168
280.585	21.324	859.471	672.068
281.599	21.416	858.465	671.574
282.614	20.815	857.470	668.431
283.628	20.813	857.048	668.033
284.643	21.167	856.612	668.991
285.657	20.743	855.567	666.495
286.672	20.487	854.423	664.566
287.687	21.162	854.460	667.113
288.701	21.186	853.962	666.759
289.716	20.818	853.110	664.630
290.730	20.697	852.742	663.825
291.745	20.452	851.701	662.021
292.760	20.718	851.703	662.979
293.774	21.915	851.466	667.291
294.789	22.058	851.408	667.727
295.803	22.064	850.997	667.369
296.818	22.148	850.342	667.115
297.833	21.670	849.060	664.238
298.847	21.709	848.137	663.607
299.862	21.813	848.302	664.072
300.876	21.933	848.241	664.417
301.891	21.847	847.094	663.136
302.906	21.559	846.070	661.188
303.920	21.741	845.923	661.703
304.935	22.059	845.581	662.576
305.949	22.096	844.916	662.134
306.964	21.645	844.632	660.156
307.979	21.767	844.186	660.209
308.993	22.130	843.708	661.140
310.008	22.169	843.130	660.777
311.022	21.937	842.202	659.120
312.037	21.719	841.782	657.912
313.052	21.430	840.798	656.002
314.066	20.573	839.367	651.617
315.081	20.398	838.638	650.338
316.095	21.262	838.887	653.709
317.110	21.753	838.572	655.244
318.125	20.942	837.143	651.039
319.139	19.806	835.367	645.365
320.154	20.028	834.901	645.775
321.168	20.811	835.774	649.313
322.183	21.634	835.483	652.095
323.197	21.739	835.338	652.315
324.212	21.873	835.207	652.654
325.227	21.968	834.463	652.371
326.241	21.801	833.768	651.147
327.256	21.630	833.544	650.280
328.270	21.523	832.751	649.207
329.285	21.438	831.876	648.153
330.300	21.229	831.302	646.874
331.314	21.455	830.693	647.179
332.329	21.763	830.840	648.377
333.343	21.953	830.316	648.612
334.358	21.883	829.699	647.814
335.373	22.173	829.272	648.494
336.387	22.255	829.374	648.817
337.402	22.280	829.328	648.817
338.416	22.059	828.729	647.477
339.431	22.507	828.342	648.765
340.446	22.428	828.161	648.278
341.460	22.401	827.403	647.527
342.475	22.148	826.733	646.014
343.489	22.381	826.534	646.658
344.504	22.470	826.739	647.089
345.519	22.695	826.332	647.539
346.533	22.711	825.903	647.203
347.548	22.781	825.298	646.930
348.562	22.807	824.372	646.242
349.577	22.581	824.385	645.367
350.592	22.613	823.408	644.663
351.606	22.692	822.476	644.164
352.621	22.461	821.709	642.662
353.635	22.494	820.957	642.138
354.650	21.673	819.366	637.848
355.665	20.878	818.170	633.970
356.679	21.372	817.778	635.406
357.694	21.806	817.394	636.628
358.708	21.533	816.858	635.164
359.723	22.095	816.900	637.179
360.738	22.355	816.519	637.768
361.752	22.444	816.148	637.744
362.767	22.686	815.951	638.409
363.781	23.067	815.210	639.152
364.796	22.923	814.916	638.342
365.810	23.030	814.628	638.449
366.825	23.033	814.064	637.962
367.840	22.709	813.391	636.207
368.854	22.387	812.406	634.220
369.869	22.406	811.891	633.830
370.883	22.343	811.679	633.383
371.898	22.330	810.934	632.699
372.913	22.367	810.615	632.529
373.927	22.621	810.257	633.104
374.942	22.571	810.169	632.801
375.956	22.835	809.596	633.242
376.971	22.801	809.234	632.783
377.986	22.791	809.294	632.737
379.000	22.891	808.149	632.145
380.015	22.895	807.430	631.541
381.029	22.938	806.972	631.280
382.044	22.967	806.590	631.030
383.059	22.992	805.927	630.543
384.073	23.023	805.544	630.298
385.088	23.077	804.729	629.796
386.102	22.735	804.414	628.277
387.117	22.806	803.277	627.588
388.132	22.430	802.341	625.466
389.146	21.972	801.586	623.195
390.161	22.423	801.541	624.705
391.175	22.815	801.205	625.779
392.190	22.375	800.308	623.464
393.205	21.067	798.159	617.109
394.219	19.736	796.609	611.155
395.234	19.666	796.353	610.657
396.248	21.266	798.287	617.751
397.263	22.626	798.634	622.770
398.278	22.659	798.173	622.471
399.292	22.417	797.783	621.258
400.307	22.319	797.065	620.298
401.321	22.475	796.719	620.526
402.336	22.854	796.824	621.886
403.350	23.249	796.524	622.988
404.365	23.446	796.459	623.575
405.380	23.705	795.995	624.066
406.394	23.626	795.770	623.557
407.409	23.676	794.496	622.680
408.423	23.577	794.685	622.426
409.438	23.578	794.402	622.152
410.453	23.718	793.705	622.042
411.467	23.635	793.177	621.284
412.482	23.620	793.031	621.061
413.496	23.783	792.564	621.209
414.511	23.719	792.051	620.530
415.526	23.721	791.586	620.116
416.540	23.571	790.824	618.943
417.555	23.364	790.084	617.589
418.569	23.391	790.072	617.616
419.584	23.284	789.272	616.563
420.599	23.136	788.691	615.540
421.613	158.063	1365.014	1799.031
422.628	136.847	1448.968	1799.123
