DTS Sentinel unit serial number:	SN413079Multiplexer serial number:	ORYXHardware model number:	OX4-SRSoftware version number:	ORYX F/W v4.00 Oryx Data Collector v3.7.2.0data status	okinstallation	princeton_trtdifferential loss correction	single-endedforward channel	channel 1reverse channel	N/Adate	2019/09/12time	22:50:35forward acquisition time	60.00reverse acquisition time	0.00gamma	496.2192k internal	0.2327k external	0.2327temperature offset calibration	1.0146default loss term (dB/km)	0.3790temperature slope calibration	1.0000multiplexer offset coefficient	1.0000multiplexer slope coefficient	1.0000fibre end	0.00T internal ref (°C)	29.44T ext. ref 1 (°C)	3.73T ext. ref 2 (°C)	24.00length (m)	temperature (°C)	Stokes	anti-Stokes-747.200	99.572	0.116	0.136
-746.185	800.000	0.081	0.313
-745.171	164.572	0.098	-0.139
-744.156	103.575	-0.141	-0.167
-743.142	-5.159	0.320	0.222
-742.127	16.647	-0.359	-0.286
-741.112	-200.000	-0.054	-0.375
-740.098	-132.902	0.300	0.039
-739.083	-135.220	0.129	0.016
-738.069	800.000	0.076	0.278
-737.054	231.636	0.103	-0.170
-736.039	800.000	0.100	-0.298
-735.025	200.999	0.082	-0.127
-734.010	260.676	-0.188	-0.327
-732.996	-114.172	-0.437	0.085
-731.981	-135.379	0.212	0.026
-730.966	628.803	0.094	-0.239
-729.952	-106.042	-0.112	-0.025
-728.937	-200.000	-0.007	-0.206
-727.923	-139.860	0.198	-0.021
-726.908	296.390	-0.153	0.282
-725.894	128.142	-0.117	0.150
-724.879	7.575	-0.116	-0.087
-723.864	-122.013	0.211	-0.035
-722.850	27.964	-0.067	0.057
-721.835	-57.178	-0.198	0.088
-720.821	-122.926	-0.200	0.032
-719.806	-30.129	0.075	0.043
-718.791	165.328	-0.042	-0.060
-717.777	-128.262	0.262	0.038
-716.762	800.000	-0.029	-0.110
-715.748	-16.133	-0.189	-0.121
-714.733	12.572	-0.183	-0.142
-713.718	52.605	-0.316	0.304
-712.704	-200.000	0.022	0.102
-711.689	138.919	0.132	0.175
-710.675	0.666	-0.232	0.167
-709.660	-200.000	-0.009	0.101
-708.645	800.000	-0.034	-0.117
-707.631	558.644	0.159	-0.386
-706.616	-200.000	0.064	-0.559
-705.602	-19.666	-0.068	-0.043
-704.587	-200.000	0.019	-0.259
-703.572	-89.476	-0.366	-0.108
-702.558	-104.907	-0.303	0.070
-701.543	2.275	-0.148	-0.108
-700.529	-90.697	-0.318	0.092
-699.514	-102.746	0.111	-0.027
-698.499	800.000	-0.120	-0.405
-697.485	301.212	-0.113	0.211
-696.470	562.142	0.079	-0.191
-695.456	-58.398	-0.169	0.074
-694.441	40.232	0.163	-0.147
-693.426	70.312	-0.042	-0.043
-692.412	-155.331	-0.340	0.022
-691.397	103.639	-0.062	-0.074
-690.383	16.218	-0.074	0.059
-689.368	800.000	0.057	-0.234
-688.354	-77.061	-0.159	0.056
-687.339	373.304	-0.194	-0.398
-686.324	800.000	0.022	-0.089
-685.310	-118.909	-0.068	0.012
-684.295	682.150	-0.062	-0.162
-683.281	168.147	-0.065	0.093
-682.266	120.169	-0.062	-0.078
-681.251	-106.403	-0.284	0.064
-680.237	-200.000	0.058	-0.295
-679.222	100.686	0.201	-0.235
-678.208	-200.000	0.070	0.435
-677.193	-200.000	-0.032	-0.229
-676.178	601.772	-0.051	0.129
-675.164	183.032	-0.098	0.145
-674.149	114.575	0.054	-0.066
-673.135	-43.027	-0.356	0.181
-672.120	800.000	-0.080	-0.226
-671.105	27.998	0.178	0.151
-670.091	-200.000	0.028	-0.217
-669.076	358.453	0.038	-0.077
-668.062	187.904	-0.278	-0.417
-667.047	94.930	-0.082	0.094
-666.032	593.089	-0.054	0.133
-665.018	-107.890	0.225	-0.049
-664.003	64.593	0.210	-0.213
-662.989	-128.570	-0.125	-0.018
-661.974	800.000	0.018	-0.071
-660.959	68.255	-0.132	-0.136
-659.945	-200.000	0.057	-0.288
-658.930	113.857	0.145	0.177
-657.916	-150.791	-0.204	0.016
-656.901	169.156	-0.138	0.198
-655.886	26.646	0.174	-0.146
-654.872	-200.000	-0.034	-0.247
-653.857	-156.801	0.141	0.009
-652.843	380.912	0.125	0.258
-651.828	-64.358	-0.235	0.096
-650.814	138.179	-0.181	-0.239
-649.799	240.602	-0.015	-0.026
-648.784	3.147	0.150	-0.109
-647.770	800.000	-0.018	-0.067
-646.755	-49.840	-0.286	-0.137
-645.741	-200.000	0.058	0.276
-644.726	-43.579	0.436	0.221
-643.711	345.156	-0.047	-0.092
-642.697	-77.634	-0.198	0.069
-641.682	545.736	-0.134	-0.321
-640.668	716.169	0.089	0.237
-639.653	226.131	0.193	-0.314
-638.638	-16.617	-0.092	-0.059
-637.624	189.859	-0.058	0.087
-636.609	533.527	0.047	-0.113
-635.595	-200.000	0.050	-0.327
-634.580	186.919	-0.143	-0.214
-633.565	-200.000	-0.022	-0.242
-632.551	60.716	-0.182	0.181
-631.536	800.000	-0.040	-0.149
-630.522	800.000	0.080	0.321
-629.507	321.979	0.118	0.226
-628.492	-15.592	-0.063	-0.041
-627.478	-75.090	-0.331	-0.119
-626.463	31.844	0.283	0.245
-625.449	-105.049	0.208	-0.048
-624.434	-94.724	-0.319	0.087
-623.419	270.663	-0.041	0.073
-622.405	260.702	0.101	0.175
-621.390	-139.658	-0.386	0.041
-620.376	620.017	-0.103	-0.261
-619.361	-62.075	0.098	-0.041
-618.346	-200.000	0.045	0.271
-617.332	94.437	-0.193	-0.220
-616.317	-64.878	-0.397	-0.161
-615.303	-200.000	0.002	-0.010
-614.288	-200.000	0.009	-0.272
-613.273	-65.016	0.152	-0.062
-612.259	-95.221	-0.204	0.055
-611.244	-122.673	-0.546	-0.089
-610.230	-78.218	-0.377	-0.130
-609.215	125.880	-0.056	-0.070
-608.201	-18.894	-0.159	-0.099
-607.186	-3.973	-0.248	-0.172
-606.171	-79.768	0.076	0.026
-605.157	53.076	-0.099	-0.095
-604.142	800.000	-0.092	-0.284
-603.128	-200.000	0.007	-0.111
-602.113	-60.227	-0.226	-0.097
-601.098	-62.001	0.393	-0.165
-600.084	-121.712	-0.129	-0.021
-599.069	-159.697	0.211	0.012
-598.055	-39.400	0.418	-0.220
-597.040	-200.000	-0.143	-0.000
-596.025	16.842	0.195	-0.155
-595.011	20.905	-0.202	-0.164
-593.996	-115.695	0.107	0.020
-592.982	1.168	0.104	0.075
-591.967	273.220	-0.076	-0.134
-590.952	219.975	-0.083	-0.133
-589.938	-153.116	0.261	0.018
-588.923	-200.000	-0.018	0.091
-587.909	-21.247	0.127	0.078
-586.894	800.000	-0.095	0.267
-585.879	-8.889	0.232	0.156
-584.865	72.839	-0.180	-0.188
-583.850	-42.458	-0.176	0.090
-582.836	-43.858	-0.322	-0.162
-581.821	800.000	-0.041	0.127
-580.806	800.000	-0.107	0.310
-579.792	-173.765	0.534	-0.016
-578.777	-109.801	-0.221	0.046
-577.763	-121.832	-0.207	0.034
-576.748	-200.000	-0.023	0.243
-575.733	265.529	-0.178	-0.311
-574.719	198.292	0.038	0.059
-573.704	222.603	-0.050	-0.081
-572.690	282.922	0.033	-0.060
-571.675	73.564	-0.052	-0.055
-570.661	91.644	0.125	0.140
-569.646	800.000	-0.050	0.208
-568.631	-121.898	0.228	-0.038
-567.617	-200.000	-0.018	0.193
-566.602	-95.643	-0.088	-0.023
-565.588	-200.000	-0.005	0.197
-564.573	-118.640	-0.339	0.060
-563.558	105.632	0.036	-0.042
-562.544	800.000	-0.057	0.182
-561.529	-200.000	0.054	0.315
-560.515	198.025	0.011	0.017
-559.500	206.519	0.187	-0.291
-558.485	75.389	0.243	-0.256
-557.471	139.140	0.184	0.243
-556.456	16.346	0.068	-0.054
-555.442	-149.158	-0.227	0.018
-554.427	-200.000	-0.041	0.251
-553.412	-200.000	-0.010	0.063
-552.398	21.998	-0.174	0.142
-551.383	-77.838	-0.107	-0.037
-550.369	-141.942	0.135	-0.014
-549.354	800.000	-0.038	-0.105
-548.339	-200.000	0.019	0.248
-547.325	800.000	-0.123	0.410
-546.310	538.471	0.055	-0.131
-545.296	800.000	0.031	-0.129
-544.281	-67.166	0.129	0.051
-543.266	-149.483	-0.065	0.005
-542.252	33.245	0.079	0.068
-541.237	291.436	0.129	-0.235
-540.223	800.000	-0.089	-0.297
-539.208	-117.218	-0.215	-0.039
-538.193	178.241	0.234	0.341
-537.179	459.681	0.100	-0.222
-536.164	-83.735	-0.200	-0.064
-535.150	106.118	-0.246	0.292
-534.135	800.000	-0.061	-0.190
-533.121	-156.930	0.106	0.007
-532.106	362.408	-0.108	0.217
-531.091	-80.479	-0.120	-0.040
-530.077	-144.998	0.287	-0.026
-529.062	-200.000	-0.003	-0.038
-528.048	-200.000	-0.025	-0.322
-527.033	800.000	-0.104	-0.328
-526.018	800.000	-0.017	0.066
-525.004	800.000	0.069	0.285
-523.989	800.000	0.076	-0.219
-522.975	-77.617	0.456	0.158
-521.960	-118.005	0.207	-0.037
-520.945	749.896	0.165	0.446
-519.931	-119.777	0.111	0.019
-518.916	-101.505	0.165	-0.040
-517.902	-124.296	-0.171	0.027
-516.887	288.982	-0.163	-0.295
-515.872	153.364	-0.144	0.197
-514.858	421.675	0.198	-0.425
-513.843	-80.279	0.310	-0.104
-512.829	-38.594	0.299	-0.158
-511.814	138.403	-0.083	-0.109
-510.799	800.000	0.019	-0.080
-509.785	99.624	0.119	0.138
-508.770	-60.039	0.275	0.117
-507.756	-200.000	-0.017	0.355
-506.741	30.233	0.137	0.117
-505.726	434.113	-0.137	-0.298
-504.712	-200.000	0.036	-0.161
-503.697	-6.781	0.246	-0.167
-502.683	-200.000	-0.011	-0.075
-501.668	238.202	0.081	0.135
-500.653	-200.000	-0.004	-0.204
-499.639	-40.830	0.097	-0.050
-498.624	213.442	-0.176	-0.277
-497.610	-24.534	-0.259	-0.154
-496.595	493.872	-0.072	-0.165
-495.581	-200.000	-0.060	-0.407
-494.566	-12.086	0.234	0.153
-493.551	-200.000	-0.010	0.088
-492.537	-6.443	-0.196	-0.133
-491.522	-77.268	-0.059	0.021
-490.508	-173.249	-0.113	-0.003
-489.493	-51.235	0.176	0.082
-488.478	65.347	0.256	0.258
-487.464	-64.308	0.233	0.095
-486.449	652.182	0.187	0.477
-485.435	-200.000	0.007	0.166
-484.420	-20.644	0.304	-0.186
-483.405	524.121	0.077	0.180
-482.391	-167.929	-0.159	0.006
-481.376	182.522	-0.092	0.135
-480.362	44.010	-0.062	-0.057
-479.347	800.000	-0.049	-0.173
-478.332	-193.852	-0.179	-0.002
-477.318	94.842	-0.193	0.219
-476.303	-177.558	-0.275	-0.007
-475.289	23.258	0.239	0.196
-474.274	800.000	-0.039	-0.130
-473.259	-49.888	0.099	0.047
-472.245	-200.000	-0.057	-0.343
-471.230	96.958	-0.128	0.146
-470.216	-56.139	0.116	0.051
-469.201	-55.106	-0.206	-0.092
-468.186	-125.150	-0.308	0.047
-467.172	-32.114	0.071	-0.039
-466.157	252.940	0.119	0.203
-465.143	-200.000	0.025	-0.211
-464.128	63.476	-0.273	-0.273
-463.113	67.830	-0.129	0.131
-462.099	-132.967	-0.547	0.069
-461.084	-61.840	0.062	-0.026
-460.070	33.604	-0.136	-0.118
-459.055	-98.220	-0.246	-0.063
-458.040	-200.000	-0.031	-0.217
-457.026	-67.288	-0.222	0.087
-456.011	-15.790	-0.412	-0.262
-454.997	-42.164	-0.124	-0.063
-453.982	-105.469	0.235	-0.053
-452.968	128.847	-0.125	0.159
-451.953	-64.752	0.097	0.039
-450.938	-200.000	0.041	-0.200
-449.924	-30.796	-0.155	-0.088
-448.909	83.308	0.083	0.090
-447.895	-200.000	0.044	0.360
-446.880	-53.803	-0.285	0.130
-445.865	41.092	-0.153	-0.138
-444.851	-80.191	-0.216	-0.072
-443.836	266.394	0.086	0.150
-442.822	18.528	0.149	-0.119
-441.807	-200.000	0.041	-0.228
-440.792	-181.342	0.402	-0.008
-439.778	76.159	0.169	-0.178
-438.763	-162.404	0.306	0.015
-437.749	-1.154	-0.181	-0.127
-436.734	-106.196	-0.335	-0.075
-435.719	-76.329	0.188	-0.066
-434.705	-88.137	0.200	0.060
-433.690	151.264	-0.118	-0.160
-432.676	97.521	-0.236	0.271
-431.661	66.192	0.223	0.225
-430.646	-114.399	-0.065	0.012
-429.632	-200.000	0.023	0.102
-428.617	541.297	0.164	0.390
-427.603	-200.000	-0.030	0.212
-426.588	800.000	-0.057	0.201
-425.573	435.561	-0.142	-0.308
-424.559	27.058	0.139	-0.116
-423.544	249.458	0.111	-0.187
-422.530	324.073	-0.081	0.153
-421.515	-200.000	0.005	-0.025
-420.500	-108.239	0.178	-0.038
-419.486	-200.000	-0.015	-0.083
-418.471	-98.330	-0.187	-0.048
-417.457	-22.601	0.190	0.114
-416.442	-200.000	0.004	-0.106
-415.428	659.136	0.056	0.144
-414.413	363.926	0.072	0.145
-413.398	800.000	0.078	-0.247
-412.384	6.122	-0.131	0.096
-411.369	-29.009	0.053	-0.030
-410.355	-58.166	-0.213	-0.092
-409.340	317.440	0.103	0.195
-408.325	-48.259	0.133	-0.064
-407.311	-200.000	0.004	0.047
-406.296	-200.000	0.049	0.225
-405.282	575.906	-0.138	0.336
-404.267	145.007	0.189	-0.252
-403.252	-61.085	-0.168	-0.070
-402.238	-160.566	0.226	0.012
-401.223	269.582	-0.106	-0.185
-400.209	27.508	-0.136	0.114
-399.194	247.490	0.016	0.027
-398.179	83.484	0.048	-0.052
-397.165	-200.000	0.048	-0.223
-396.150	-32.336	-0.310	-0.172
-395.136	23.907	-0.218	-0.178
-394.121	-108.448	0.237	-0.051
-393.106	-80.137	-0.132	0.044
-392.092	258.607	-0.171	0.293
-391.077	78.261	-0.034	0.036
-390.063	-200.000	0.011	0.292
-389.048	332.755	-0.093	-0.180
-388.033	-30.796	-0.161	0.090
-387.019	406.464	0.113	0.238
-386.004	800.000	-0.102	0.415
-384.990	298.167	-0.088	-0.160
-383.975	-84.734	-0.055	-0.017
-382.960	-200.000	0.007	-0.113
-381.946	265.041	0.125	-0.216
-380.931	-14.201	-0.312	0.200
-379.917	395.214	0.182	0.378
-378.902	123.492	-0.184	-0.229
-377.888	729.013	-0.132	-0.352
-376.873	-97.198	-0.267	0.069
-375.858	66.300	0.063	-0.063
-374.844	-32.273	0.323	0.180
-373.829	800.000	-0.077	0.216
-372.815	-120.574	0.281	0.047
-371.800	-200.000	0.111	-0.569
-370.785	563.384	0.117	0.281
-369.771	-96.075	0.321	-0.085
-368.756	-200.000	-0.008	0.115
-367.742	78.187	-0.123	-0.131
-366.727	342.866	-0.179	0.348
-365.712	-5.170	-0.357	0.244
-364.698	-97.620	-0.162	-0.042
-363.683	196.181	0.077	0.116
-362.669	446.353	0.095	-0.208
-361.654	-112.036	0.266	0.053
-360.639	800.000	-0.036	-0.149
-359.625	-12.781	-0.072	-0.047
-358.610	-67.753	-0.196	0.076
-357.596	800.000	0.049	-0.144
-356.581	-200.000	0.001	0.074
-355.566	110.600	0.031	-0.037
-354.552	197.293	-0.132	-0.200
-353.537	435.200	-0.052	-0.113
-352.523	800.000	0.121	0.439
-351.508	800.000	-0.099	0.375
-350.493	-84.079	-0.160	0.050
-349.479	-200.000	0.014	0.134
-348.464	663.462	-0.057	0.146
-347.450	-102.027	0.030	0.007
-346.435	-200.000	-0.022	-0.134
-345.420	800.000	0.063	0.206
-344.406	-200.000	0.064	0.287
-343.391	791.996	-0.041	-0.112
-342.377	-14.523	0.149	-0.095
-341.362	-200.000	-0.003	-0.052
-340.348	-133.647	-0.075	0.009
-339.333	-200.000	0.017	0.166
-338.318	-200.000	0.005	-0.195
-337.304	8.779	-0.119	-0.089
-336.289	-77.178	0.292	0.101
-335.275	800.000	0.048	-0.200
-334.260	-197.447	0.237	0.001
-333.245	800.000	-0.064	0.178
-332.231	-36.538	0.148	0.079
-331.216	-200.000	0.027	-0.267
-330.202	133.227	0.077	-0.099
-329.187	-7.996	0.288	0.193
-328.172	800.000	-0.089	0.289
-327.158	-200.000	-0.006	0.034
-326.143	317.012	0.055	0.103
-325.129	224.100	0.010	-0.016
-324.114	800.000	0.105	0.370
-323.099	800.000	-0.056	-0.196
-322.085	-77.532	0.195	0.067
-321.070	-139.352	0.265	0.028
-320.056	153.753	-0.100	0.136
-319.041	95.128	0.219	0.247
-318.026	93.099	-0.021	0.023
-317.012	426.890	0.092	-0.197
-315.997	-124.508	0.231	-0.036
-314.983	-33.855	0.189	0.103
-313.968	-101.858	-0.252	0.060
-312.953	-183.602	0.330	0.006
-311.939	-96.419	0.216	-0.057
-310.924	81.382	-0.081	-0.087
-309.910	271.984	-0.039	0.068
-308.895	81.502	-0.178	-0.191
-307.880	-68.202	-0.270	0.104
-306.866	653.425	0.019	-0.048
-305.851	14.508	-0.113	-0.088
-304.837	800.000	0.038	-0.113
-303.822	22.720	-0.201	-0.163
-302.807	261.237	-0.051	0.087
-301.793	-72.460	0.167	0.061
-300.778	-200.000	-0.028	0.267
-299.764	28.059	-0.129	-0.108
-298.749	-35.335	0.120	0.065
-297.735	-27.514	0.277	-0.160
-296.720	438.654	-0.034	0.073
-295.705	-200.000	0.050	-0.247
-294.691	-200.000	0.023	0.534
-293.676	-200.000	0.020	0.142
-292.662	-200.000	0.021	-0.198
-291.647	-72.573	-0.111	0.041
-290.632	-89.405	-0.367	0.107
-289.618	74.825	0.051	0.054
-288.603	-200.000	-0.002	-0.226
-287.589	-29.813	0.143	-0.081
-286.574	-40.518	-0.264	-0.136
-285.559	349.091	-0.036	0.071
-284.545	41.703	0.194	-0.174
-283.530	-168.972	0.065	-0.002
-282.516	-7.158	0.162	0.109
-281.501	-200.000	0.029	0.230
-280.486	19.968	-0.052	0.042
-279.472	-122.593	0.430	-0.069
-278.457	-41.141	-0.136	-0.070
-277.443	-200.000	0.031	-0.340
-276.428	800.000	0.034	0.142
-275.413	228.748	-0.089	-0.144
-274.399	450.961	0.085	0.186
-273.384	-110.063	-0.156	0.032
-272.370	-64.473	0.415	-0.167
-271.355	39.276	0.321	-0.285
-270.340	-9.713	0.152	0.100
-269.326	-133.876	0.147	-0.018
-268.311	-44.703	0.329	0.162
-267.297	143.058	0.072	-0.095
-266.282	-78.670	0.184	0.062
-265.267	800.000	0.089	0.263
-264.253	289.519	0.008	-0.014
-263.238	800.000	0.036	-0.149
-262.224	19.595	0.160	-0.127
-261.209	418.428	-0.197	-0.416
-260.195	454.430	-0.107	-0.234
-259.180	647.568	-0.064	0.162
-258.165	6.890	0.101	0.074
-257.151	800.000	-0.066	-0.250
-256.136	800.000	0.084	-0.240
-255.122	359.711	-0.063	0.125
-254.107	-121.713	-0.238	-0.039
-253.092	716.428	0.097	0.254
-252.078	-123.224	-0.122	-0.019
-251.063	187.711	0.148	-0.218
-250.049	-109.559	-0.375	0.078
-249.034	-200.000	0.018	0.092
-248.019	346.322	0.173	-0.336
-247.005	-35.664	0.029	-0.016
-245.990	800.000	-0.039	-0.154
-244.976	800.000	0.038	0.134
-243.961	-200.000	0.004	0.376
-242.946	23.069	-0.222	-0.180
-241.932	-84.089	0.157	-0.049
-240.917	-76.160	0.112	-0.039
-239.903	800.000	0.082	-0.295
-238.888	79.413	-0.222	0.235
-237.873	569.328	0.083	0.199
-236.859	47.508	0.053	-0.049
-235.844	-126.829	0.098	-0.014
-234.830	-7.115	-0.030	-0.020
-233.815	800.000	0.049	-0.152
-232.800	-200.000	-0.008	-0.062
-231.786	116.318	-0.160	-0.194
-230.771	4.629	0.180	0.131
-229.757	79.967	-0.215	0.228
-228.742	-108.264	0.345	-0.074
-227.727	-120.010	-0.292	-0.050
-226.713	-119.582	-0.128	-0.022
-225.698	800.000	-0.083	-0.283
-224.684	-142.209	0.161	0.016
-223.669	206.682	0.144	-0.222
-222.655	48.535	-0.094	0.087
-221.640	273.315	-0.190	0.331
-220.625	-200.000	-0.010	-0.122
-219.611	439.588	-0.133	0.287
-218.596	613.371	-0.056	-0.139
-217.582	-200.000	-0.044	0.307
-216.567	-29.268	0.027	-0.015
-215.552	800.000	-0.029	0.108
-214.538	-200.000	0.010	-0.174
-213.523	-108.057	0.099	0.021
-212.509	60.004	0.207	-0.202
-211.494	455.535	0.128	-0.280
-210.479	1.888	0.112	0.080
-209.465	-83.597	0.044	-0.014
-208.450	-116.948	0.232	-0.042
-207.436	-200.000	-0.032	-0.407
-206.421	169.694	0.042	-0.060
-205.406	138.508	0.116	0.150
-204.392	800.000	0.093	0.290
-203.377	-58.121	-0.354	0.152
-202.363	-200.000	-0.013	0.128
-201.348	3.912	0.385	-0.278
-200.333	-200.000	-0.039	0.241
-199.319	380.611	0.156	0.315
-198.304	348.817	-0.234	0.456
-197.290	-73.898	-0.485	0.174
-196.275	189.710	0.204	0.301
-195.260	-200.000	0.036	0.175
-194.246	2.684	-0.251	-0.179
-193.231	-200.000	0.011	0.064
-192.217	-200.000	0.010	-0.120
-191.202	75.624	-0.088	0.092
-190.187	-200.000	-0.003	-0.054
-189.173	28.951	0.303	-0.253
-188.158	259.013	0.198	0.338
-187.144	47.987	0.175	-0.161
-186.129	-200.000	-0.050	-0.278
-185.114	93.440	-0.349	0.390
-184.100	-200.000	0.004	-0.080
-183.085	-149.905	0.258	-0.020
-182.071	109.099	-0.073	0.086
-181.056	-126.231	-0.181	-0.027
-180.042	199.116	-0.155	-0.234
-179.027	358.952	0.155	0.305
-178.012	-154.944	0.110	-0.007
-176.998	-200.000	0.070	-0.315
-175.983	800.000	0.019	-0.061
-174.969	800.000	0.030	0.108
-173.954	173.651	-0.174	-0.248
-172.939	421.504	-0.135	-0.285
-171.925	40.152	0.076	-0.067
-170.910	34.734	0.256	-0.221
-169.896	-108.535	-0.229	0.048
-168.881	-93.143	0.269	0.074
-167.866	456.399	-0.096	0.211
-166.852	18.369	0.178	-0.140
-165.837	719.209	-0.144	0.377
-164.823	800.000	-0.082	-0.242
-163.808	-148.811	-0.207	-0.016
-162.793	-188.827	0.149	-0.002
-161.779	-4.874	-0.121	0.082
-160.764	-1.750	0.033	-0.023
-159.750	-200.000	0.027	0.335
-158.735	234.071	-0.050	0.081
-157.720	467.809	-0.064	0.142
-156.706	541.762	0.095	0.223
-155.691	-115.076	0.221	-0.041
-154.677	-192.977	-0.270	-0.002
-153.662	-119.691	0.188	-0.032
-152.647	-27.658	-0.360	-0.206
-151.633	-24.838	-0.067	0.039
-150.618	-200.000	0.020	-0.257
-149.604	-129.435	0.205	-0.028
-148.589	65.920	-0.110	-0.110
-147.574	-200.000	0.043	0.000
-146.560	522.327	-0.069	0.160
-145.545	-2.324	-0.162	0.112
-144.531	800.000	-0.054	-0.168
-143.516	-200.000	0.028	0.170
-142.502	-116.732	-0.228	0.041
-141.487	-5.870	-0.110	-0.074
-140.472	119.856	-0.077	-0.095
-139.458	315.126	-0.092	0.170
-138.443	238.060	0.153	0.250
-137.429	60.403	0.176	0.172
-136.414	-26.366	0.411	0.237
-135.399	-48.943	-0.179	0.084
-134.385	-28.045	0.165	-0.094
-133.370	800.000	-0.045	-0.139
-132.356	3.653	0.130	-0.093
-131.341	68.331	0.070	-0.071
-130.326	636.115	-0.027	-0.069
-129.312	14.905	0.279	0.215
-128.297	800.000	0.055	-0.199
-127.283	-193.304	-0.118	0.001
-126.268	-163.806	-0.338	0.016
-125.253	74.423	-0.056	0.058
-124.239	679.814	0.070	-0.181
-123.224	800.000	0.030	0.125
-122.210	-200.000	0.001	-0.156
-121.195	800.000	0.049	-0.139
-120.180	-14.116	0.333	0.212
-119.166	51.083	0.207	0.193
-118.151	109.261	0.185	0.218
-117.137	114.327	-0.059	0.071
-116.122	800.000	0.097	0.334
-115.107	138.567	-0.155	0.200
-114.093	800.000	-0.035	-0.105
-113.078	230.061	0.050	-0.081
-112.064	-185.161	0.379	-0.006
-111.049	800.000	0.040	-0.134
-110.034	-200.000	-0.016	-0.313
-109.020	-200.000	-0.018	-0.170
-108.005	57.409	0.192	0.184
-106.991	-29.056	-0.079	0.045
-105.976	-200.000	0.026	-0.121
-104.962	652.690	-0.093	-0.234
-103.947	42.440	-0.302	0.270
-102.932	482.212	0.063	0.142
-101.918	-200.000	-0.038	0.170
-100.903	-30.019	0.059	0.033
-99.889	800.000	-0.059	0.186
-98.874	-106.157	0.087	0.019
-97.859	230.833	-0.061	-0.099
-96.845	-200.000	-0.032	0.185
-95.830	-200.000	0.010	0.079
-94.816	10.097	0.284	0.212
-93.801	327.624	-0.023	-0.043
-92.786	-135.412	0.066	0.008
-91.772	-95.325	0.125	0.033
-90.757	-200.000	0.029	0.228
-89.743	800.000	0.035	-0.102
-88.728	-23.199	0.130	0.077
-87.713	-178.739	-0.231	0.005
-86.699	-190.725	0.229	-0.002
-85.684	353.691	0.052	0.102
-84.670	359.381	0.157	0.308
-83.655	-94.635	-0.135	0.036
-82.640	33.404	0.026	0.023
-81.626	167.221	-0.287	-0.401
-80.611	-30.687	-0.229	0.127
-79.597	-73.772	-0.118	-0.042
-78.582	800.000	0.136	-0.407
-77.567	-81.793	-0.042	-0.013
-76.553	800.000	-0.056	0.206
-75.538	41.283	-0.092	0.081
-74.524	-105.855	0.120	0.027
-73.509	-181.413	0.377	0.007
-72.494	-200.000	0.010	-0.048
-71.480	-200.000	-0.016	0.222
-70.465	-62.983	-0.443	0.180
-69.451	2.557	-0.131	-0.093
-68.436	162.594	-0.164	-0.226
-67.422	157.501	0.192	-0.262
-66.407	800.000	0.064	-0.203
-65.392	12.560	-0.067	-0.051
-64.378	800.000	0.012	-0.042
-63.363	-68.799	0.138	-0.052
-62.349	-113.323	0.098	0.019
-61.334	88.019	-0.769	-0.838
-60.319	-47.099	0.585	0.280
-59.305	320.512	-0.523	-0.976
-58.290	433.978	0.534	1.139
-57.276	353.363	0.713	1.389
-56.261	-200.000	108.724	606.168
-55.246	510.425	1495.552	3414.198
-54.232	179.110	2676.822	3842.465
-53.217	110.528	2150.032	2536.551
-52.203	40.749	1598.508	1414.604
-51.188	32.850	1339.282	1137.768
-50.173	29.895	1298.991	1086.183
-49.159	53.415	1354.386	1274.207
-48.144	54.166	1369.089	1292.485
-47.130	33.065	1323.254	1125.251
-46.115	29.615	1305.489	1089.788
-45.100	29.346	1301.242	1084.618
-44.086	29.311	1298.503	1082.091
-43.071	29.318	1296.007	1080.008
-42.057	29.261	1293.993	1077.949
-41.042	29.297	1292.281	1076.693
-40.027	29.354	1290.758	1075.715
-39.013	29.348	1288.796	1074.000
-37.998	29.412	1286.504	1072.419
-36.984	29.452	1284.926	1071.294
-35.969	29.507	1283.291	1070.211
-34.954	29.397	1282.056	1068.497
-33.940	29.402	1281.180	1067.757
-32.925	29.548	1279.784	1067.393
-31.911	29.542	1277.622	1065.515
-30.896	29.438	1276.753	1064.150
-29.881	29.445	1275.322	1062.949
-28.867	29.487	1273.752	1061.845
-27.852	29.529	1271.934	1060.526
-26.838	29.517	1271.133	1059.746
-25.823	29.636	1269.464	1058.995
-24.809	29.480	1268.468	1057.232
-23.794	29.450	1267.501	1056.208
-22.779	29.433	1266.310	1055.078
-21.765	29.543	1264.769	1054.382
-20.750	29.505	1263.175	1052.794
-19.736	29.400	1262.157	1051.304
-18.721	29.299	1260.620	1049.407
-17.706	29.506	1259.173	1049.341
-16.692	29.502	1258.368	1048.602
-15.677	29.372	1257.543	1047.136
-14.663	29.437	1255.784	1046.000
-13.648	29.434	1255.517	1045.720
-12.633	29.345	1254.172	1044.054
-11.619	29.415	1253.594	1043.927
-10.604	29.364	1252.818	1042.951
-9.590	29.404	1251.413	1041.967
-8.575	29.356	1250.459	1040.856
-7.560	29.353	1249.974	1040.394
-6.546	29.499	1248.577	1040.015
-5.531	29.339	1248.029	1038.616
-4.517	29.324	1247.414	1037.976
-3.502	29.416	1246.162	1037.411
-2.487	29.427	1245.567	1036.937
-1.473	29.389	1240.912	1032.812
-0.458	27.687	1226.330	1011.207
0.556	25.613	1208.707	972.575
1.571	21.838	1213.342	955.686
2.586	20.816	1228.209	961.666
3.600	20.391	1216.169	949.831
4.615	15.453	1145.284	868.893
5.629	7.607	1071.967	775.051
6.644	4.087	1053.175	744.499
7.659	3.716	1050.781	740.959
8.673	3.471	1049.287	738.667
9.688	3.638	1047.856	738.395
10.702	3.917	1046.030	738.374
11.717	8.925	1053.120	767.326
12.731	17.489	1064.873	817.099
13.746	22.451	1071.235	845.807
14.761	23.412	1071.961	850.918
15.775	22.812	1070.465	846.778
16.790	21.954	1068.959	841.402
17.804	21.519	1067.628	838.194
18.819	21.188	1067.121	836.138
19.834	21.385	1066.217	836.299
20.848	21.332	1066.261	836.006
21.863	21.280	1065.444	835.040
22.877	21.165	1064.433	833.626
23.892	21.102	1063.323	832.383
24.907	21.009	1062.598	831.300
25.921	20.942	1061.595	830.122
26.936	20.890	1060.154	828.674
27.950	20.780	1059.141	827.284
28.965	21.013	1057.371	826.935
29.980	21.246	1056.278	827.110
30.994	21.419	1055.110	826.941
32.009	21.385	1054.488	826.221
33.023	21.388	1053.518	825.402
34.038	21.197	1052.689	823.778
35.053	21.033	1051.566	822.055
36.067	20.957	1050.855	821.070
37.082	21.034	1050.210	820.854
38.096	21.183	1049.480	820.913
39.111	21.142	1049.129	820.371
40.126	21.050	1047.395	818.509
41.140	20.642	1045.654	815.167
42.155	20.361	1044.590	812.950
43.169	20.324	1044.247	812.436
44.184	20.327	1042.723	811.195
45.199	20.384	1041.766	810.643
46.213	20.721	1041.308	811.786
47.228	21.093	1040.680	812.958
48.242	21.109	1039.762	812.246
49.257	21.006	1039.267	811.305
50.271	21.139	1038.352	811.141
51.286	21.193	1037.844	810.920
52.301	21.284	1036.394	810.139
53.315	20.888	1035.801	807.768
54.330	20.798	1034.550	806.306
55.344	20.661	1033.424	804.720
56.359	20.668	1032.755	804.162
57.374	20.550	1031.936	802.908
58.388	20.543	1031.056	802.118
59.403	20.395	1029.958	800.513
60.417	20.404	1029.604	800.207
61.432	20.385	1028.813	799.436
62.447	20.213	1028.157	798.060
63.461	20.279	1027.378	797.692
64.476	20.261	1025.883	796.378
65.490	20.170	1025.253	795.400
66.505	20.233	1024.555	795.076
67.520	20.244	1024.400	794.938
68.534	20.200	1023.053	793.621
69.549	19.987	1022.603	792.225
70.563	20.025	1021.429	791.418
71.578	19.774	1020.718	789.654
72.593	19.611	1019.992	788.278
73.607	19.722	1019.387	788.246
74.622	19.766	1018.833	787.947
75.636	19.884	1017.930	787.720
76.651	20.054	1017.063	787.750
77.666	19.966	1017.042	787.263
78.680	19.943	1016.263	786.486
79.695	20.043	1015.248	786.085
80.709	20.186	1015.183	786.616
81.724	20.436	1014.296	786.991
82.739	20.543	1013.504	786.793
83.753	20.969	1013.538	788.673
84.768	21.387	1013.076	790.137
85.782	21.628	1012.522	790.722
86.797	21.602	1011.345	789.617
87.812	21.294	1010.197	787.264
88.826	21.411	1009.361	787.067
89.841	21.364	1008.575	786.172
90.855	21.440	1007.765	785.812
91.870	21.398	1007.010	784.969
92.884	21.494	1006.088	784.611
93.899	21.446	1005.199	783.631
94.914	21.551	1003.865	782.994
95.928	21.474	1003.343	782.172
96.943	21.192	1002.065	779.849
97.957	21.243	1001.319	779.424
98.972	21.228	1000.724	778.826
99.987	21.363	999.939	778.746
101.001	21.275	998.684	777.312
102.016	21.154	998.019	776.186
103.030	21.224	997.398	775.943
104.045	21.307	996.829	775.802
105.060	21.091	995.900	774.051
106.074	20.858	994.447	771.824
107.089	20.499	993.634	769.536
108.103	20.264	992.577	767.605
109.118	20.217	991.103	766.191
110.133	20.051	990.268	764.745
111.147	20.134	989.154	764.186
112.162	20.083	988.590	763.458
113.176	20.244	988.461	763.997
114.191	20.430	987.423	763.948
115.206	20.386	986.852	763.242
116.220	20.307	985.596	761.857
117.235	20.197	984.797	760.688
118.249	20.232	983.626	759.874
119.264	20.046	983.011	758.513
120.279	19.891	982.789	757.599
121.293	19.931	981.544	756.747
122.308	19.828	980.268	755.248
123.322	19.705	979.170	753.796
124.337	19.779	978.352	753.423
125.352	19.636	977.726	752.250
126.366	19.790	976.312	751.767
127.381	19.854	975.859	751.627
128.395	20.063	974.665	751.550
129.410	19.988	974.246	750.835
130.424	20.214	973.397	751.094
131.439	20.334	972.876	751.144
132.454	20.387	971.996	750.629
133.468	20.293	971.350	749.655
134.483	20.478	970.485	749.721
135.497	20.493	969.203	748.730
136.512	20.440	968.731	748.070
137.527	20.421	967.943	747.314
138.541	20.514	967.620	747.396
139.556	20.622	966.990	747.307
140.570	20.818	965.890	747.236
141.585	21.062	965.592	747.984
142.600	21.261	964.469	747.899
143.614	21.447	964.067	748.316
144.629	21.402	963.495	747.614
145.643	21.215	962.015	745.600
146.658	20.924	960.921	743.447
147.673	20.686	959.946	741.613
148.687	20.571	958.668	740.071
149.702	20.475	957.754	738.890
150.716	20.580	956.708	738.466
151.731	20.670	956.004	738.237
152.746	20.676	955.471	737.786
153.760	20.662	954.997	737.296
154.775	20.803	954.590	737.511
155.789	20.928	953.739	737.320
156.804	20.866	953.031	736.444
157.819	21.056	952.454	736.736
158.833	21.112	951.968	736.532
159.848	21.341	951.243	736.872
160.862	21.195	950.066	735.281
161.877	20.669	948.248	731.595
162.892	20.542	946.810	729.888
163.906	20.372	946.159	728.608
164.921	20.255	945.560	727.591
165.935	20.481	944.647	727.772
166.950	20.675	944.210	728.183
167.964	20.613	942.910	726.859
168.979	20.610	941.517	725.708
169.994	20.547	940.865	724.879
171.008	20.667	940.918	725.355
172.023	21.005	940.063	726.037
173.037	21.369	939.115	726.757
174.052	20.957	938.257	724.314
175.067	20.591	937.522	722.166
176.081	20.325	936.767	720.414
177.096	20.315	936.070	719.775
178.110	20.313	935.531	719.287
179.125	20.379	935.194	719.240
180.140	20.560	934.843	719.652
181.154	20.909	934.318	720.631
182.169	21.048	934.427	721.225
183.183	21.085	933.825	720.847
184.198	20.999	932.873	719.697
185.213	20.954	931.994	718.769
186.227	21.080	931.604	718.924
187.242	21.165	930.929	718.690
188.256	21.523	930.152	719.496
189.271	21.350	929.638	718.324
190.286	20.836	928.553	715.314
191.300	20.430	927.017	712.403
192.315	20.242	926.543	711.204
193.329	20.172	926.361	710.712
194.344	20.469	925.620	711.299
195.359	20.732	924.977	711.819
196.373	20.779	924.643	711.688
197.388	21.060	924.469	712.640
198.402	21.325	924.420	713.621
199.417	21.442	923.865	713.607
200.432	21.557	923.823	713.983
201.446	21.622	923.154	713.665
202.461	21.893	922.263	714.019
203.475	21.490	921.361	711.619
204.490	21.252	920.209	709.698
205.504	20.845	919.576	707.494
206.519	20.942	918.784	707.214
207.534	20.820	918.060	706.102
208.548	21.051	917.360	706.438
209.563	21.045	916.769	705.894
210.577	21.202	915.961	705.843
211.592	21.545	915.588	706.878
212.607	21.606	915.170	706.743
213.621	21.330	914.617	705.138
214.636	21.407	913.783	704.742
215.650	21.418	913.219	704.289
216.665	21.512	912.488	704.042
217.680	21.600	911.792	703.798
218.694	21.764	911.538	704.197
219.709	21.520	910.667	702.483
220.723	21.394	909.768	701.219
221.738	21.337	909.189	700.486
222.753	21.428	908.174	700.004
223.767	21.520	908.035	700.205
224.782	21.638	908.027	700.607
225.796	21.795	907.087	700.446
226.811	21.509	906.558	698.835
227.826	21.239	905.815	697.125
228.840	21.133	904.639	695.736
229.855	21.007	904.155	694.796
230.869	21.096	903.427	694.531
231.884	21.074	902.497	693.666
232.899	21.075	901.815	693.088
233.913	20.924	901.219	691.967
234.928	20.870	900.186	690.901
235.942	20.683	899.829	689.824
236.957	20.682	899.427	689.450
237.972	20.739	898.883	689.198
238.986	20.811	898.127	688.842
240.001	20.774	897.462	688.123
241.015	20.854	897.094	688.098
242.030	21.062	896.705	688.558
243.045	21.165	896.224	688.535
244.059	21.093	895.784	687.852
245.074	21.186	895.150	687.670
246.088	21.226	894.747	687.456
247.103	21.626	894.008	688.402
248.117	21.932	893.704	689.311
249.132	22.378	893.501	690.844
250.147	22.464	893.548	691.155
251.161	22.503	893.131	690.923
252.176	22.666	892.239	690.812
253.190	22.713	891.715	690.527
254.205	22.668	891.115	689.825
255.220	22.497	890.391	688.538
256.234	22.501	889.519	687.819
257.249	22.407	888.910	686.921
258.263	22.336	888.315	686.122
259.278	22.263	887.554	685.188
260.293	22.538	887.198	685.926
261.307	22.710	886.746	686.183
262.322	22.530	886.054	684.888
263.336	22.540	885.227	684.228
264.351	22.545	884.530	683.646
265.366	22.626	883.906	683.419
266.380	22.474	883.602	682.535
267.395	22.520	882.425	681.743
268.409	22.290	881.909	680.391
269.424	22.370	880.829	679.807
270.439	22.316	880.324	679.151
271.453	22.237	879.221	677.933
272.468	22.055	878.957	676.970
273.482	22.199	878.398	677.034
274.497	22.050	877.677	675.845
275.512	22.143	877.169	675.751
276.526	22.080	876.926	675.263
277.541	22.285	876.099	675.353
278.555	22.444	876.075	675.883
279.570	22.771	875.778	676.850
280.585	22.738	874.772	675.885
281.599	22.441	873.561	673.757
282.614	22.113	872.841	671.884
283.628	22.084	872.332	671.325
284.643	22.020	872.144	670.877
285.657	22.234	871.183	670.892
286.672	22.295	870.463	670.510
287.687	22.440	869.855	670.538
288.701	22.233	869.549	669.453
289.716	22.234	869.014	668.985
290.730	22.320	868.427	668.801
291.745	22.261	867.870	668.091
292.760	22.321	867.815	668.217
293.774	22.903	866.999	669.737
294.789	22.693	866.245	668.300
295.803	22.302	865.207	665.957
296.818	22.052	864.935	664.746
297.833	22.132	863.848	664.153
298.847	22.070	863.224	663.381
299.862	22.461	862.628	664.340
300.876	22.436	862.311	663.941
301.891	22.709	862.301	664.904
302.906	22.934	861.543	665.108
303.920	22.971	861.395	665.074
304.935	23.133	860.916	665.253
305.949	22.961	860.262	664.043
306.964	22.638	859.311	662.040
307.979	22.528	858.817	661.186
308.993	22.641	858.404	661.233
310.008	22.853	857.760	661.473
311.022	22.570	857.363	660.050
312.037	22.452	856.220	658.672
313.052	22.210	855.460	657.122
314.066	21.986	855.160	655.997
315.081	22.061	854.257	655.527
316.095	22.062	853.475	654.870
317.110	22.021	853.334	654.551
318.125	22.044	852.123	653.651
319.139	21.926	851.890	652.975
320.154	22.040	851.766	653.248
321.168	22.171	851.183	653.229
322.183	22.215	850.520	652.827
323.197	22.341	849.863	652.730
324.212	22.302	849.329	652.120
325.227	22.177	849.085	651.412
326.241	22.105	848.480	650.624
327.256	22.075	847.859	649.979
328.270	22.138	847.127	649.592
329.285	22.188	846.458	649.205
330.300	22.065	845.634	648.061
331.314	22.233	845.047	648.173
332.329	22.544	844.952	649.192
333.343	22.444	844.780	648.634
334.358	22.483	844.499	648.504
335.373	22.668	844.094	648.815
336.387	22.612	844.231	648.656
337.402	22.722	844.199	648.978
338.416	22.936	843.665	649.299
339.431	23.134	843.417	649.777
340.446	23.316	843.067	650.117
341.460	23.330	842.734	649.856
342.475	23.389	842.467	649.810
343.489	23.635	842.043	650.327
344.504	23.702	841.599	650.171
345.519	23.584	841.163	649.343
346.533	23.499	840.349	648.347
347.548	23.073	839.562	646.126
348.562	22.849	838.753	644.628
349.577	22.647	837.924	643.198
350.592	22.631	836.998	642.373
351.606	22.531	836.386	641.480
352.621	22.537	835.934	641.102
353.635	22.654	835.238	640.937
354.650	22.800	834.585	640.907
355.665	22.784	833.732	640.136
356.679	23.128	833.346	641.031
357.694	23.020	832.923	640.258
358.708	22.809	832.204	638.885
359.723	22.824	831.815	638.584
360.738	22.875	831.081	638.148
361.752	22.969	830.543	638.018
362.767	23.304	830.437	639.091
363.781	23.482	829.933	639.287
364.796	23.697	829.477	639.652
365.810	23.620	829.631	639.439
366.825	23.731	828.913	639.226
367.840	23.662	828.519	638.620
368.854	23.317	828.035	636.949
369.869	23.298	827.127	636.126
370.883	23.324	826.733	635.862
371.898	23.651	826.345	636.679
372.913	23.607	826.021	636.215
373.927	23.463	825.617	635.333
374.942	23.566	824.883	635.080
375.956	23.715	824.525	635.282
376.971	23.801	823.909	635.057
377.986	23.786	824.023	635.033
379.000	23.810	823.660	634.786
380.015	23.691	823.391	634.095
381.029	23.789	822.381	633.612
382.044	23.919	821.414	633.273
383.059	23.891	820.564	632.461
384.073	23.691	819.855	631.150
385.088	23.366	819.477	629.648
386.102	23.247	818.671	628.549
387.117	23.146	818.093	627.694
388.132	23.121	817.505	627.097
389.146	23.259	817.186	627.285
390.161	23.674	816.915	628.494
391.175	23.781	816.650	628.610
392.190	23.674	815.676	627.427
393.205	23.298	814.966	625.499
394.219	23.028	814.594	624.203
395.234	22.970	814.245	623.676
396.248	22.885	813.988	623.123
397.263	22.973	813.073	622.681
398.278	22.826	812.803	621.900
399.292	22.799	812.281	621.350
400.307	22.987	811.528	621.380
401.321	22.925	811.320	620.947
402.336	23.087	810.814	621.074
403.350	23.378	810.820	622.046
404.365	23.557	810.750	622.565
405.380	23.897	810.268	623.331
406.394	23.999	809.972	623.408
407.409	24.157	809.417	623.479
408.423	24.046	809.499	623.098
409.438	24.140	809.239	623.172
410.453	24.240	808.254	622.705
411.467	24.311	807.953	622.667
412.482	24.220	807.873	622.233
413.496	24.524	807.487	622.941
414.511	24.367	806.979	621.948
415.526	24.219	806.281	620.837
416.540	24.278	805.418	620.323
417.555	24.038	805.254	619.309
418.569	24.285	804.392	619.448
419.584	24.088	804.224	618.579
420.599	24.167	803.874	618.531
421.613	163.251	1371.771	1796.492
422.628	141.931	1454.491	1796.602
