DTS Sentinel unit serial number:	SN413079Multiplexer serial number:	ORYXHardware model number:	OX4-SRSoftware version number:	ORYX F/W v4.00 Oryx Data Collector v3.7.2.0data status	okinstallation	princeton_trtdifferential loss correction	single-endedforward channel	channel 1reverse channel	N/Adate	2019/09/12time	17:44:11forward acquisition time	60.00reverse acquisition time	0.00gamma	496.2192k internal	0.2317k external	0.2317temperature offset calibration	1.0104default loss term (dB/km)	0.3790temperature slope calibration	1.0000multiplexer offset coefficient	1.0000multiplexer slope coefficient	1.0000fibre end	0.00T internal ref (°C)	34.19T ext. ref 1 (°C)	2.84T ext. ref 2 (°C)	28.22length (m)	temperature (°C)	Stokes	anti-Stokes-747.200	-67.680	-0.184	-0.073
-746.185	103.224	0.207	0.246
-745.171	-200.000	-0.037	0.198
-744.156	-200.000	-0.015	0.618
-743.142	110.659	-0.212	0.259
-742.127	-51.505	0.347	0.164
-741.112	524.765	-0.069	-0.165
-740.098	17.940	-0.251	0.202
-739.083	-200.000	0.037	0.325
-738.069	227.791	0.200	0.330
-737.054	-180.577	-0.206	-0.004
-736.039	20.231	-0.228	-0.186
-735.025	36.934	0.144	0.129
-734.010	-15.873	-0.142	-0.092
-732.996	-200.000	-0.039	-0.428
-731.981	-84.531	0.105	-0.033
-730.966	-118.650	0.064	0.011
-729.952	516.322	0.040	0.095
-728.937	20.881	-0.124	0.102
-727.923	-158.310	-0.443	0.026
-726.908	-113.058	-0.195	0.039
-725.894	-200.000	-0.042	0.236
-724.879	-75.109	-0.254	-0.092
-723.864	-32.835	-0.296	0.167
-722.850	99.549	0.194	0.227
-721.835	1.169	0.049	0.035
-720.821	-42.454	0.411	0.212
-719.806	-173.831	0.100	-0.003
-718.791	-200.000	0.007	-0.094
-717.777	800.000	0.033	0.099
-716.762	202.388	0.101	-0.158
-715.748	800.000	-0.090	-0.334
-714.733	-135.637	0.150	0.018
-713.718	-115.713	0.156	-0.030
-712.704	116.125	0.051	-0.063
-711.689	83.721	0.162	0.178
-710.675	80.765	-0.357	-0.389
-709.660	-40.887	-0.137	-0.072
-708.645	-82.748	0.092	-0.030
-707.631	-89.984	0.053	0.016
-706.616	-43.689	-0.190	0.097
-705.602	-200.000	0.029	-0.228
-704.587	302.974	0.087	-0.163
-703.572	-75.426	0.047	-0.017
-702.558	15.080	-0.084	0.066
-701.543	-172.833	0.352	0.011
-700.529	572.578	0.128	0.314
-699.514	-25.526	-0.196	0.117
-698.499	-200.000	-0.021	-0.386
-697.485	14.985	-0.370	-0.293
-696.470	300.924	0.124	-0.231
-695.456	-45.875	-0.077	-0.038
-694.441	800.000	0.020	0.087
-693.426	15.111	-0.138	0.109
-692.412	-137.476	0.250	0.029
-691.397	-31.129	-0.089	-0.051
-690.383	-24.949	-0.168	-0.101
-689.368	-142.160	-0.144	-0.014
-688.354	-200.000	-0.044	0.438
-687.339	-177.826	0.069	-0.002
-686.324	-94.177	-0.128	-0.035
-685.310	-200.000	-0.005	0.038
-684.295	233.785	0.200	0.332
-683.281	162.499	-0.170	0.240
-682.266	-200.000	0.021	-0.282
-681.251	-187.292	-0.046	-0.001
-680.237	-23.167	0.290	-0.177
-679.222	222.773	-0.018	0.029
-678.208	16.677	-0.065	0.052
-677.193	-35.876	0.211	-0.115
-676.178	-45.251	-0.223	0.112
-675.164	185.697	-0.064	0.096
-674.149	-173.124	0.354	-0.011
-673.135	663.371	0.071	-0.185
-672.120	-100.747	-0.100	0.025
-671.105	286.813	0.021	-0.037
-670.091	85.143	0.081	0.090
-669.076	213.117	-0.181	0.289
-668.062	40.504	-0.300	0.273
-667.047	-61.746	0.076	0.032
-666.032	-144.524	-0.170	0.016
-665.018	-41.238	0.293	0.152
-664.003	-82.996	-0.176	0.057
-662.989	-75.051	0.235	0.085
-661.974	-165.383	-0.252	0.011
-660.959	473.188	0.084	0.192
-659.945	-17.534	-0.161	0.102
-658.930	-26.432	0.200	-0.118
-657.916	76.319	-0.212	-0.227
-656.901	19.442	0.089	-0.072
-655.886	-200.000	-0.043	0.214
-654.872	-123.398	0.162	0.026
-653.857	256.446	-0.112	0.194
-652.843	-100.859	-0.195	0.049
-651.828	-48.486	0.147	-0.072
-650.814	-14.987	0.272	0.176
-649.799	-91.241	-0.141	-0.041
-648.784	426.465	-0.137	-0.297
-647.770	-200.000	-0.018	-0.125
-646.755	-200.000	0.060	0.380
-645.741	88.260	0.121	0.136
-644.726	-200.000	-0.063	0.344
-643.711	102.506	0.223	-0.263
-642.697	405.197	-0.093	0.198
-641.682	-127.568	-0.101	0.015
-640.668	288.654	0.231	-0.422
-639.653	-63.263	0.147	0.061
-638.638	74.973	-0.227	0.241
-637.624	-55.742	-0.209	-0.094
-636.609	-200.000	0.010	-0.329
-635.595	-200.000	-0.000	-0.118
-634.580	30.175	0.147	0.127
-633.565	-200.000	0.017	0.347
-632.551	4.556	-0.088	0.065
-631.536	800.000	-0.019	0.064
-630.522	-55.804	-0.295	-0.133
-629.507	-200.000	-0.041	-0.219
-628.492	-200.000	-0.265	0.001
-627.478	-114.032	-0.088	-0.017
-626.463	-24.882	0.108	-0.065
-625.449	-200.000	-0.048	-0.334
-624.434	800.000	0.099	-0.294
-623.419	-40.702	0.229	0.120
-622.405	800.000	-0.168	0.568
-621.390	-200.000	-0.006	-0.309
-620.376	320.054	-0.233	-0.447
-619.361	-142.955	0.153	-0.015
-618.346	290.212	-0.103	-0.188
-617.332	29.875	-0.206	-0.177
-616.317	241.123	0.097	-0.163
-615.303	-200.000	0.013	0.207
-614.288	-200.000	-0.030	-0.316
-613.273	-200.000	0.007	0.374
-612.259	-200.000	0.036	-0.278
-611.244	110.034	-0.080	0.097
-610.230	-142.364	-0.097	0.010
-609.215	-27.625	0.276	-0.161
-608.201	-200.000	0.001	0.094
-607.186	186.624	0.164	-0.245
-606.171	-113.771	0.206	0.040
-605.157	-127.304	-0.172	-0.025
-604.142	-111.352	-0.216	-0.044
-603.128	502.699	0.086	0.200
-602.113	-23.015	0.036	-0.022
-601.098	-82.035	0.180	0.059
-600.084	-200.000	-0.036	-0.244
-599.069	-184.451	0.254	0.004
-598.055	-108.578	0.121	0.026
-597.040	-200.000	0.030	-0.386
-596.025	-14.963	0.277	-0.179
-595.011	-200.000	-0.056	-0.288
-593.996	13.798	-0.340	-0.266
-592.982	-138.269	0.184	-0.020
-591.967	-62.950	0.165	0.069
-590.952	-47.832	-0.223	0.109
-589.938	797.073	-0.082	-0.227
-588.923	800.000	0.043	-0.155
-587.909	-191.282	0.343	0.004
-586.894	-182.951	-0.091	0.002
-585.879	-133.861	0.101	0.013
-584.865	686.263	-0.245	0.645
-583.850	-61.782	-0.302	0.127
-582.836	-200.000	-0.027	-0.286
-581.821	-102.755	-0.118	0.028
-580.806	63.072	0.128	0.129
-579.792	-43.081	0.327	0.167
-578.777	-102.924	-0.345	-0.082
-577.763	-72.718	0.051	-0.019
-576.748	-49.407	0.230	-0.110
-575.733	-200.000	0.022	-0.352
-574.719	-7.735	0.205	0.139
-573.704	-200.000	0.010	-0.080
-572.690	-200.000	-0.010	0.058
-571.675	-132.098	0.175	-0.023
-570.661	-14.226	-0.247	-0.160
-569.646	-102.477	-0.193	-0.047
-568.631	34.188	0.201	-0.176
-567.617	-7.485	-0.279	-0.190
-566.602	-200.000	-0.040	0.549
-565.588	-200.000	-0.020	-0.090
-564.573	-29.370	-0.202	-0.116
-563.558	800.000	0.085	-0.250
-562.544	800.000	-0.099	0.399
-561.529	-86.389	-0.105	0.032
-560.515	-0.534	0.084	-0.060
-559.500	-45.312	0.134	0.067
-558.485	386.961	-0.015	-0.031
-557.471	-140.060	-0.066	-0.007
-556.456	-100.228	-0.457	0.114
-555.442	201.759	0.013	-0.020
-554.427	800.000	0.079	-0.241
-553.412	531.984	-0.087	0.208
-552.398	55.900	-0.168	-0.164
-551.383	-200.000	-0.000	-0.428
-550.369	-200.000	-0.029	0.189
-549.354	324.560	0.081	0.156
-548.339	200.800	0.158	-0.244
-547.325	800.000	0.085	-0.247
-546.310	4.982	0.098	0.073
-545.296	242.223	-0.057	-0.096
-544.281	36.018	-0.013	0.012
-543.266	800.000	-0.044	-0.179
-542.252	-179.326	-0.033	-0.001
-541.237	114.575	-0.395	-0.484
-540.223	-48.323	-0.055	-0.027
-539.208	-200.000	0.009	0.059
-538.193	527.556	-0.010	0.025
-537.179	246.969	0.152	0.258
-536.164	13.054	-0.160	0.125
-535.150	74.335	0.237	-0.250
-534.135	-200.000	-0.008	-0.224
-533.121	800.000	0.096	0.389
-532.106	-28.901	-0.105	0.060
-531.091	-70.807	0.055	-0.021
-530.077	-33.089	0.014	-0.008
-529.062	-157.130	-0.054	-0.003
-528.048	-127.972	0.348	0.050
-527.033	136.980	-0.102	-0.133
-526.018	-44.910	-0.438	-0.219
-525.004	-21.730	0.272	0.166
-523.989	-200.000	-0.023	-0.419
-522.975	-200.000	-0.002	0.129
-521.960	-200.000	-0.024	-0.213
-520.945	161.103	-0.049	-0.068
-519.931	-52.771	0.140	0.065
-518.916	427.411	0.137	-0.296
-517.902	-200.000	-0.009	-0.228
-516.887	-200.000	0.020	0.282
-515.872	-200.000	0.008	0.161
-514.858	46.832	0.200	-0.187
-513.843	-200.000	-0.029	0.194
-512.829	-200.000	0.063	0.317
-511.814	-6.295	-0.142	0.098
-510.799	-200.000	0.050	-0.290
-509.785	116.668	0.146	0.180
-508.770	-24.102	0.019	0.012
-507.756	28.253	0.216	0.183
-506.741	90.356	-0.210	0.235
-505.726	-131.030	0.167	-0.022
-504.712	-200.000	-0.004	-0.453
-503.697	33.224	-0.165	-0.144
-502.683	-85.699	-0.049	0.015
-501.668	-186.711	0.188	-0.003
-500.653	81.617	-0.131	0.142
-499.639	-11.662	0.269	0.177
-498.624	-85.758	0.132	-0.041
-497.610	134.082	0.109	-0.141
-496.595	-53.715	0.118	0.054
-495.581	-168.255	0.222	-0.009
-494.566	-64.790	-0.051	0.021
-493.551	-200.000	-0.005	-0.106
-492.537	-200.000	0.057	0.415
-491.522	-18.209	-0.080	0.050
-490.508	133.563	-0.069	0.089
-489.493	44.386	-0.177	-0.163
-488.478	-155.712	0.276	-0.018
-487.464	533.852	0.096	0.229
-486.449	-103.369	0.149	-0.035
-485.435	-76.954	-0.224	-0.079
-484.420	-116.997	0.299	0.055
-483.405	-200.000	-0.052	0.310
-482.391	-120.303	0.178	-0.030
-481.376	800.000	0.027	-0.077
-480.362	17.142	0.071	0.057
-479.347	-200.000	-0.029	0.153
-478.332	-200.000	-0.058	0.352
-477.318	-15.667	-0.071	-0.045
-476.303	-49.052	-0.131	-0.063
-475.289	266.264	-0.026	-0.046
-474.274	-116.394	-0.022	0.004
-473.259	88.499	-0.065	0.072
-472.245	136.309	0.214	-0.279
-471.230	721.647	-0.056	0.149
-470.216	300.519	0.219	-0.406
-469.201	-200.000	0.039	-0.576
-468.186	-81.887	-0.211	0.069
-467.172	-139.979	0.134	0.014
-466.157	132.834	-0.021	-0.027
-465.143	-98.708	-0.176	0.045
-464.128	51.784	0.172	0.164
-463.113	256.471	0.103	0.177
-462.099	58.284	-0.167	-0.164
-461.084	800.000	-0.072	-0.221
-460.070	-112.958	0.221	-0.044
-459.055	40.975	-0.086	-0.078
-458.040	-200.000	-0.062	-0.352
-457.026	-200.000	-0.016	0.343
-456.011	-138.792	-0.070	0.008
-454.997	-200.000	-0.032	0.275
-453.982	-17.526	-0.156	-0.098
-452.968	-200.000	-0.003	0.051
-451.953	800.000	-0.033	0.146
-450.938	740.738	-0.098	-0.262
-449.924	-138.456	0.351	0.039
-448.909	-194.047	-0.109	0.001
-447.895	-200.000	-0.028	0.308
-446.880	-101.945	0.099	0.024
-445.865	-75.414	0.014	-0.005
-444.851	109.422	-0.148	0.177
-443.836	470.803	0.129	0.289
-442.822	210.728	-0.134	0.210
-441.807	220.864	0.066	0.106
-440.792	410.491	-0.028	-0.059
-439.778	319.909	0.057	0.109
-438.763	-140.882	-0.069	-0.007
-437.749	163.763	0.027	0.038
-436.734	-200.000	0.009	0.272
-435.719	420.855	0.099	0.212
-434.705	215.719	0.037	0.058
-433.690	-200.000	0.068	0.339
-432.676	-34.131	0.042	-0.023
-431.661	-190.099	-0.124	-0.001
-430.646	111.854	-0.164	0.198
-429.632	-141.337	-0.227	-0.023
-428.617	31.560	-0.100	-0.086
-427.603	78.031	-0.056	0.059
-426.588	125.011	-0.064	0.081
-425.573	-141.408	-0.220	-0.022
-424.559	121.918	0.112	-0.139
-423.544	-140.853	-0.379	0.039
-422.530	-117.539	-0.165	-0.030
-421.515	18.519	-0.187	-0.150
-420.500	-200.000	-0.036	-0.207
-419.486	-200.000	-0.064	-0.354
-418.471	263.809	0.084	0.146
-417.457	343.971	0.125	-0.244
-416.442	-176.528	0.225	0.006
-415.428	10.468	-0.295	-0.225
-414.413	-152.872	0.179	0.013
-413.398	444.825	0.256	-0.561
-412.384	-101.126	0.055	-0.013
-411.369	-48.792	0.232	0.111
-410.355	-200.000	-0.024	0.111
-409.340	42.195	0.180	0.163
-408.325	-41.019	0.165	-0.085
-407.311	800.000	-0.052	-0.152
-406.296	45.349	0.265	-0.245
-405.282	-136.567	-0.399	0.046
-404.267	-93.481	0.264	0.073
-403.252	554.282	-0.031	0.074
-402.238	380.312	0.095	-0.194
-401.223	-123.322	0.056	0.009
-400.209	29.925	-0.235	-0.200
-399.194	-28.982	-0.179	-0.103
-398.179	-147.826	0.299	-0.025
-397.165	800.000	0.005	-0.018
-396.150	-127.512	-0.097	-0.014
-395.136	201.086	-0.233	-0.358
-394.121	86.765	0.139	0.153
-393.106	800.000	0.105	-0.298
-392.092	175.298	0.142	0.206
-391.077	82.125	0.241	0.261
-390.063	96.859	-0.206	-0.236
-389.048	-200.000	0.016	0.086
-388.033	800.000	-0.029	-0.111
-387.019	-103.624	0.185	0.043
-386.004	68.855	-0.119	-0.122
-384.990	187.449	-0.040	0.060
-383.975	12.839	0.312	0.241
-382.960	30.581	-0.196	0.167
-381.946	-106.665	-0.142	0.032
-380.931	-200.000	0.059	0.278
-379.917	180.937	-0.088	-0.129
-378.902	-102.356	0.180	0.043
-377.888	-18.903	0.154	0.096
-376.873	-54.994	-0.170	-0.077
-375.858	-157.139	0.176	0.011
-374.844	-200.000	0.062	-0.454
-373.829	521.823	0.183	0.428
-372.815	-200.000	0.008	0.071
-371.800	-200.000	-0.018	0.094
-370.785	-107.593	-0.209	-0.046
-369.771	166.854	-0.227	-0.321
-368.756	-200.000	0.352	-0.001
-367.742	-135.374	0.148	0.018
-366.727	136.786	-0.081	0.105
-365.712	-110.228	0.136	-0.028
-364.698	-102.318	0.324	0.077
-363.683	87.643	-0.090	-0.099
-362.669	800.000	0.062	0.254
-361.654	-120.794	0.380	-0.064
-360.639	245.122	-0.095	-0.160
-359.625	800.000	0.119	-0.483
-358.610	-38.836	-0.043	0.022
-357.596	130.111	0.140	0.179
-356.581	-200.000	-0.018	0.357
-355.566	-39.655	-0.111	0.058
-354.552	-200.000	-0.002	0.187
-353.537	-58.198	0.300	-0.130
-352.523	784.567	-0.036	-0.098
-351.508	-200.000	-0.070	0.349
-350.493	234.272	-0.135	0.222
-349.479	-200.000	0.005	0.126
-348.464	-200.000	-0.065	0.489
-347.450	800.000	-0.039	0.166
-346.435	-200.000	-0.002	-0.172
-345.420	-30.790	-0.035	-0.020
-344.406	-36.943	0.153	-0.082
-343.391	-46.738	-0.258	-0.126
-342.377	323.930	-0.094	0.178
-341.362	-200.000	0.012	0.250
-340.348	317.009	-0.065	-0.123
-339.333	-200.000	0.028	0.256
-338.318	778.251	0.057	0.154
-337.304	800.000	0.085	0.263
-336.289	800.000	-0.028	-0.113
-335.275	33.336	0.220	-0.191
-334.260	-200.000	-0.019	-0.183
-333.245	220.859	-0.120	0.191
-332.231	-127.622	-0.214	0.031
-331.216	-108.974	0.093	-0.020
-330.202	-200.000	0.002	-0.121
-329.187	800.000	-0.097	-0.277
-328.172	-200.000	-0.001	-0.054
-327.158	684.118	0.054	-0.141
-326.143	-21.826	-0.190	0.115
-325.129	213.806	0.130	-0.205
-324.114	-138.395	-0.489	0.054
-323.099	59.116	0.078	0.076
-322.085	-142.282	0.091	-0.009
-321.070	523.617	-0.148	-0.345
-320.056	-33.656	-0.262	0.144
-319.041	-200.000	0.014	-0.075
-318.026	98.526	0.273	0.313
-317.012	-124.048	-0.299	0.047
-315.997	800.000	-0.050	0.171
-314.983	-36.727	-0.120	0.064
-313.968	362.035	-0.037	0.073
-312.953	-200.000	-0.023	-0.168
-311.939	800.000	-0.057	-0.211
-310.924	40.751	-0.142	0.127
-309.910	-200.000	-0.001	0.132
-308.895	-70.812	0.048	0.018
-307.880	194.280	-0.098	-0.148
-306.866	85.935	0.105	0.116
-305.851	-200.000	-0.028	-0.214
-304.837	-200.000	0.015	0.232
-303.822	263.410	-0.163	0.283
-302.807	-152.661	-0.571	0.041
-301.793	-200.000	-0.005	-0.200
-300.778	-40.040	-0.006	0.003
-299.764	-61.931	0.099	-0.041
-298.749	559.048	-0.062	0.148
-297.735	-92.349	0.142	0.040
-296.720	553.436	-0.027	0.063
-295.705	-200.000	-0.005	0.103
-294.691	-121.183	0.238	-0.040
-293.676	70.193	0.138	0.141
-292.662	-200.000	0.024	-0.160
-291.647	800.000	0.081	0.279
-290.632	68.572	0.055	-0.056
-289.618	-200.000	-0.008	0.146
-288.603	-200.000	-0.007	0.058
-287.589	-24.560	0.168	-0.099
-286.574	-200.000	0.030	-0.242
-285.559	445.477	-0.107	-0.233
-284.545	-67.213	-0.249	0.097
-283.530	122.574	0.101	-0.125
-282.516	89.293	0.168	-0.186
-281.501	-25.609	-0.129	0.076
-280.486	-200.000	-0.027	0.129
-279.472	-200.000	0.014	0.134
-278.457	-131.390	-0.260	0.034
-277.443	-134.074	-0.226	-0.028
-276.428	131.017	-0.094	0.120
-275.413	21.240	-0.289	-0.234
-274.399	-69.630	-0.397	-0.151
-273.384	399.926	-0.153	0.318
-272.370	76.562	-0.164	0.173
-271.355	769.269	0.041	-0.110
-270.340	120.419	-0.143	-0.176
-269.326	152.994	-0.184	-0.250
-268.311	264.241	0.048	-0.084
-267.297	-25.654	0.472	0.277
-266.282	-200.000	0.009	-0.062
-265.267	513.276	-0.008	0.018
-264.253	-200.000	-0.017	0.246
-263.238	-131.196	-0.221	0.029
-262.224	48.419	-0.364	0.339
-261.209	800.000	0.089	-0.283
-260.195	-146.779	0.158	0.014
-259.180	-155.842	0.296	-0.019
-258.165	-72.275	-0.436	0.161
-257.151	-35.377	-0.133	0.072
-256.136	223.383	0.162	0.259
-255.122	-109.545	0.255	-0.053
-254.107	-72.871	-0.146	0.053
-253.092	-200.000	0.002	0.119
-252.078	-176.799	-0.147	-0.004
-251.063	90.940	0.232	-0.259
-250.049	-24.468	0.396	0.234
-249.034	515.092	-0.111	0.256
-248.019	66.542	0.177	0.178
-247.005	736.654	0.058	0.153
-245.990	362.917	0.048	0.095
-244.976	-200.000	-0.186	0.001
-243.961	114.976	0.033	0.040
-242.946	800.000	0.003	0.011
-241.932	95.103	0.169	-0.191
-240.917	800.000	-0.094	0.276
-239.903	36.840	-0.032	-0.028
-238.888	-138.435	0.101	-0.011
-237.873	800.000	-0.035	0.141
-236.859	521.161	-0.109	-0.253
-235.844	-48.447	-0.191	-0.091
-234.830	-36.128	-0.100	0.054
-233.815	-8.236	0.286	-0.191
-232.800	270.879	0.119	-0.208
-231.786	-140.787	0.308	0.031
-230.771	-95.459	0.166	0.044
-229.757	201.785	-0.162	0.248
-228.742	-92.888	-0.292	0.081
-227.727	-200.000	-0.194	-0.000
-226.713	-181.468	-0.312	0.006
-225.698	765.697	0.110	0.297
-224.684	106.322	-0.141	-0.165
-223.669	438.684	-0.042	0.091
-222.655	5.663	0.080	-0.058
-221.640	-46.961	-0.250	-0.121
-220.625	-0.423	0.184	0.130
-219.611	-59.268	-0.091	-0.039
-218.596	-7.502	-0.070	-0.047
-217.582	-26.570	0.115	-0.067
-216.567	-183.604	0.194	-0.003
-215.552	-1.726	0.185	-0.129
-214.538	-200.000	0.020	0.250
-213.523	-22.512	-0.210	0.126
-212.509	-200.000	0.014	0.146
-211.494	-136.656	0.118	-0.013
-210.479	800.000	-0.119	-0.328
-209.465	161.184	0.111	0.154
-208.450	-0.827	0.085	0.060
-207.436	217.928	0.136	0.215
-206.421	-81.389	0.204	-0.067
-205.406	-200.000	0.033	0.179
-204.392	-200.000	0.032	0.327
-203.377	-137.263	-0.125	0.014
-202.363	-103.066	-0.149	0.035
-201.348	800.000	0.060	-0.239
-200.333	513.252	-0.110	-0.255
-199.319	319.229	0.155	-0.291
-198.304	-102.953	0.371	-0.087
-197.290	-200.000	-0.030	-0.380
-196.275	204.185	-0.072	-0.111
-195.260	505.637	0.013	-0.029
-194.246	0.011	0.071	-0.050
-193.231	-177.848	0.137	-0.003
-192.217	27.454	-0.265	-0.221
-191.202	85.532	-0.168	-0.183
-190.187	-200.000	-0.046	0.210
-189.173	148.573	0.095	-0.127
-188.158	-93.713	-0.146	-0.040
-187.144	-200.000	0.009	0.171
-186.129	37.774	0.078	-0.069
-185.114	-200.000	0.017	0.188
-184.100	289.903	-0.115	0.207
-183.085	-34.359	-0.316	-0.172
-182.071	-117.965	-0.336	-0.060
-181.056	800.000	0.107	-0.355
-180.042	432.757	0.108	0.232
-179.027	32.966	0.255	0.219
-178.012	-98.360	0.327	0.083
-176.998	35.933	-0.150	-0.130
-175.983	-74.955	0.119	0.042
-174.969	126.961	-0.110	-0.137
-173.954	-38.581	0.199	-0.104
-172.939	-138.903	-0.389	-0.042
-171.925	-41.806	-0.082	0.042
-170.910	-200.000	0.006	0.037
-169.896	-200.000	0.027	-0.148
-168.881	-200.000	0.016	-0.072
-167.866	800.000	-0.053	0.165
-166.852	26.875	-0.253	0.210
-165.837	88.633	-0.129	0.142
-164.823	-59.592	-0.073	-0.031
-163.808	-200.000	0.064	0.294
-162.793	-94.380	0.174	0.047
-161.779	79.720	-0.122	-0.130
-160.764	-200.000	-0.006	-0.254
-159.750	-200.000	0.041	0.324
-158.735	-30.990	0.251	-0.140
-157.720	607.034	0.158	0.390
-156.706	-176.776	0.436	-0.011
-155.691	-146.790	0.254	-0.022
-154.677	800.000	0.101	-0.282
-153.662	320.692	0.189	0.355
-152.647	800.000	-0.058	0.202
-151.633	-59.987	0.111	0.047
-150.618	-200.000	0.013	0.216
-149.604	-64.146	-0.332	0.134
-148.589	-157.362	0.199	-0.012
-147.574	-146.694	-0.094	-0.008
-146.560	-131.162	0.105	0.014
-145.545	715.383	0.098	-0.258
-144.531	-41.092	0.155	-0.079
-143.516	-118.126	-0.120	0.021
-142.502	152.475	0.251	0.339
-141.487	-67.557	-0.105	-0.041
-140.472	502.420	-0.017	-0.038
-139.458	24.125	-0.116	0.095
-138.443	47.160	-0.262	0.241
-137.429	298.332	-0.066	0.120
-136.414	-51.414	0.310	-0.143
-135.399	-200.000	0.024	-0.227
-134.385	-91.122	-0.253	0.072
-133.370	39.162	0.037	-0.033
-132.356	800.000	-0.058	0.178
-131.341	29.843	0.178	0.150
-130.326	74.385	0.312	0.324
-129.312	-27.895	-0.088	-0.050
-128.297	800.000	-0.083	0.341
-127.283	-200.000	-0.003	-0.135
-126.268	-5.680	0.034	0.023
-125.253	-113.300	-0.084	-0.016
-124.239	71.558	-0.104	0.107
-123.224	-118.303	0.361	0.064
-122.210	-200.000	0.104	-0.500
-121.195	-78.288	-0.060	-0.020
-120.180	-200.000	0.016	-0.219
-119.166	274.498	-0.168	0.294
-118.151	-143.530	0.634	0.060
-117.137	800.000	0.082	0.306
-116.122	367.022	-0.204	0.407
-115.107	183.763	0.070	0.102
-114.093	47.306	0.060	-0.056
-113.078	265.312	0.061	0.105
-112.064	-142.382	-0.307	0.030
-111.049	340.973	-0.055	-0.106
-110.034	-200.000	-0.058	-0.296
-109.020	63.302	0.101	0.100
-108.005	44.944	0.065	-0.059
-106.991	-25.563	-0.098	0.057
-105.976	-200.000	0.002	-0.224
-104.962	6.166	0.272	0.199
-103.947	800.000	0.045	0.197
-102.932	504.972	-0.109	0.249
-101.918	800.000	-0.081	-0.281
-100.903	-80.559	-0.248	-0.082
-99.889	23.169	0.221	0.180
-98.874	-143.735	0.278	-0.026
-97.859	-113.401	-0.286	-0.055
-96.845	-120.314	0.650	-0.109
-95.830	-200.000	0.045	-0.281
-94.816	-77.834	-0.101	0.034
-93.801	-200.000	-0.013	0.109
-92.786	324.727	0.110	-0.207
-91.772	47.596	0.153	-0.140
-90.757	-200.000	0.014	0.383
-89.743	-0.646	0.348	0.243
-88.728	-200.000	-0.018	-0.408
-87.713	145.083	0.062	0.082
-86.699	-200.000	0.010	0.046
-85.684	367.150	0.166	0.330
-84.670	115.398	-0.092	0.111
-83.655	31.743	0.212	0.180
-82.640	800.000	-0.068	0.201
-81.626	298.915	-0.096	0.174
-80.611	-69.383	0.179	0.068
-79.597	-200.000	0.002	0.145
-78.582	-112.292	0.204	0.040
-77.567	-23.436	0.183	0.109
-76.553	359.329	0.048	0.095
-75.538	-83.751	-0.111	-0.035
-74.524	39.534	-0.034	-0.030
-73.509	289.219	-0.246	-0.441
-72.494	-200.000	0.036	-0.242
-71.480	235.248	0.132	0.215
-70.465	112.491	0.024	0.029
-69.451	-174.987	-0.080	-0.002
-68.436	300.797	0.045	-0.082
-67.422	21.819	-0.124	-0.099
-66.407	-82.335	0.195	-0.062
-65.392	800.000	0.066	0.215
-64.378	240.617	-0.133	0.218
-63.363	-200.000	0.013	-0.202
-62.349	79.983	0.181	-0.192
-61.334	215.973	-0.707	-1.107
-60.319	-200.000	0.034	0.416
-59.305	243.076	-0.494	-0.816
-58.290	169.739	0.601	0.846
-57.276	800.000	0.527	1.605
-56.261	-200.000	96.124	577.057
-55.246	551.224	1380.116	3264.830
-54.232	156.450	2569.810	3496.265
-53.217	113.403	2151.711	2573.988
-52.203	45.507	1611.165	1466.077
-51.188	37.655	1348.642	1179.809
-50.173	34.326	1306.928	1123.680
-49.159	56.841	1354.177	1299.778
-48.144	60.251	1371.930	1337.176
-47.130	37.883	1328.595	1163.448
-46.115	34.311	1311.200	1127.084
-45.100	34.099	1306.661	1121.886
-44.086	34.062	1304.218	1119.526
-43.071	34.054	1301.780	1117.342
-42.057	34.083	1299.715	1115.696
-41.042	34.054	1297.818	1113.856
-40.027	34.050	1296.469	1112.629
-39.013	34.137	1294.525	1111.427
-37.998	34.171	1292.720	1110.027
-36.984	34.110	1291.382	1108.479
-35.969	34.179	1289.425	1107.159
-34.954	34.274	1287.469	1105.988
-33.940	34.139	1286.789	1104.574
-32.925	34.242	1285.509	1104.030
-31.911	34.279	1283.444	1102.429
-30.896	34.156	1282.503	1100.863
-29.881	34.290	1281.011	1100.314
-28.867	34.407	1279.377	1099.539
-27.852	34.419	1277.860	1098.263
-26.838	34.376	1276.531	1096.827
-25.823	34.256	1275.675	1095.361
-24.809	34.307	1273.909	1094.095
-23.794	34.284	1272.830	1092.993
-22.779	34.237	1271.815	1091.809
-21.765	34.222	1270.504	1090.551
-20.750	34.307	1269.258	1089.924
-19.736	34.211	1267.809	1088.090
-18.721	34.093	1266.849	1086.551
-17.706	34.124	1265.414	1085.451
-16.692	34.220	1264.044	1084.782
-15.677	34.053	1263.180	1083.045
-14.663	34.172	1261.847	1082.536
-13.648	34.032	1261.162	1081.112
-12.633	34.239	1259.738	1081.020
-11.619	34.059	1259.328	1079.608
-10.604	34.084	1258.410	1078.918
-9.590	34.134	1257.026	1077.973
-8.575	34.059	1256.345	1076.920
-7.560	34.079	1255.614	1076.365
-6.546	34.181	1254.592	1076.018
-5.531	34.068	1253.724	1074.597
-4.517	34.045	1253.098	1073.884
-3.502	34.149	1252.041	1073.525
-2.487	34.131	1251.182	1072.642
-1.473	33.974	1247.532	1068.591
-0.458	32.434	1232.111	1046.781
0.556	29.251	1213.753	1004.770
1.571	25.294	1218.163	986.630
2.586	23.980	1233.814	991.895
3.600	23.282	1222.431	978.805
4.615	17.325	1150.378	889.945
5.629	7.593	1073.975	782.996
6.644	3.227	1053.466	746.828
7.659	2.855	1050.965	743.191
8.673	2.705	1049.503	741.364
9.688	2.576	1048.549	740.001
10.702	3.081	1046.896	741.206
11.717	8.840	1055.096	774.859
12.731	18.817	1069.490	834.034
13.746	24.762	1076.926	868.727
14.761	26.222	1078.508	877.021
15.775	26.495	1077.841	877.728
16.790	26.065	1077.138	874.993
17.804	26.104	1076.673	874.726
18.819	26.201	1076.426	874.916
19.834	26.371	1075.818	875.170
20.848	26.219	1076.084	874.571
21.863	26.315	1075.056	874.124
22.877	26.377	1074.150	873.610
23.892	26.164	1073.518	871.989
24.907	26.307	1072.734	871.965
25.921	26.395	1071.773	871.529
26.936	26.306	1070.557	870.037
27.950	26.182	1069.014	868.110
28.965	26.084	1067.231	866.113
29.980	26.252	1065.717	865.613
30.994	26.427	1064.814	865.641
32.009	26.433	1063.761	864.738
33.023	26.237	1062.947	863.063
34.038	26.394	1061.864	862.858
35.053	26.394	1061.702	862.650
36.067	26.339	1060.987	861.730
37.082	26.395	1060.070	861.174
38.096	26.702	1059.079	861.752
39.111	26.614	1058.672	860.928
40.126	26.422	1057.209	858.749
41.140	26.154	1055.542	856.051
42.155	25.887	1054.477	853.847
43.169	26.070	1053.337	853.714
44.184	25.958	1052.840	852.704
45.199	25.936	1051.519	851.455
46.213	26.055	1050.762	851.331
47.228	26.192	1050.168	851.418
48.242	26.108	1049.784	850.638
49.257	26.356	1048.333	850.554
50.271	26.382	1048.037	850.359
51.286	26.430	1046.963	849.638
52.301	26.455	1046.302	849.145
53.315	26.225	1045.273	847.157
54.330	26.269	1044.034	846.283
55.344	26.309	1043.904	846.290
56.359	26.318	1042.326	844.978
57.374	26.038	1041.736	843.115
58.388	26.025	1041.313	842.637
59.403	26.002	1039.997	841.390
60.417	25.884	1039.311	840.210
61.432	25.924	1038.621	839.765
62.447	26.033	1038.245	839.896
63.461	26.053	1037.315	839.162
64.476	26.070	1036.378	838.408
65.490	25.969	1035.396	837.069
66.505	26.082	1035.030	837.226
67.520	25.969	1034.547	836.235
68.534	25.835	1032.899	834.211
69.549	25.561	1031.899	832.063
70.563	25.537	1031.292	831.385
71.578	25.479	1030.641	830.519
72.593	25.274	1029.823	828.839
73.607	25.511	1029.034	829.225
74.622	25.897	1028.807	830.749
75.636	25.835	1027.687	829.485
76.651	25.818	1026.608	828.465
77.666	25.584	1026.358	827.114
78.680	25.817	1025.156	827.139
79.695	25.789	1024.965	826.784
80.709	26.008	1024.091	827.012
81.724	25.924	1023.271	825.889
82.739	25.876	1022.841	825.250
83.753	26.253	1022.156	826.348
84.768	26.647	1021.223	827.320
85.782	26.703	1021.030	827.349
86.797	26.634	1019.557	825.769
87.812	26.286	1019.082	823.723
88.826	26.481	1017.919	823.598
89.841	26.692	1016.781	823.565
90.855	26.614	1016.426	822.851
91.870	26.521	1015.525	821.627
92.884	26.455	1014.019	820.037
93.899	26.432	1012.988	819.023
94.914	26.661	1012.275	819.410
95.928	26.463	1011.229	817.599
96.943	26.162	1010.371	815.472
97.957	25.907	1008.940	813.096
98.972	25.794	1008.041	811.789
99.987	26.221	1007.187	812.950
101.001	26.196	1006.804	812.457
102.016	26.248	1006.079	812.037
103.030	26.173	1004.941	810.706
104.045	26.111	1003.594	809.273
105.060	25.841	1002.950	807.471
106.074	26.084	1002.093	807.796
107.089	26.379	1001.753	808.773
108.103	26.297	1000.673	807.462
109.118	26.097	999.362	805.438
110.133	26.061	998.394	804.430
111.147	25.921	997.309	802.860
112.162	25.728	996.625	801.380
113.176	25.995	996.009	801.998
114.191	25.887	995.403	800.961
115.206	25.575	994.184	798.522
116.220	25.628	993.397	798.055
117.235	25.694	992.831	797.825
118.249	25.745	991.779	797.132
119.264	25.677	990.823	795.992
120.279	25.602	990.640	795.446
121.293	25.654	990.026	795.109
122.308	25.632	988.886	794.027
123.322	25.564	987.625	792.644
124.337	25.462	986.800	791.463
125.352	25.090	984.729	788.099
126.366	24.962	984.079	786.946
127.381	25.714	984.405	790.439
128.395	26.140	983.795	791.749
129.410	26.430	982.918	792.243
130.424	26.293	981.880	790.738
131.439	26.231	980.983	789.674
132.454	26.149	979.840	788.327
133.468	25.944	979.349	786.967
134.483	26.246	978.574	787.592
135.497	26.378	977.889	787.543
136.512	26.517	976.979	787.346
137.527	26.559	975.963	786.640
138.541	26.649	974.927	786.127
139.556	26.476	974.981	785.351
140.570	26.613	974.090	785.156
141.585	26.634	972.597	783.974
142.600	26.501	971.969	782.824
143.614	26.652	971.179	782.770
144.629	26.794	970.418	782.704
145.643	26.764	968.708	781.123
146.658	26.608	967.374	779.310
147.673	26.413	966.385	777.606
148.687	26.262	965.941	776.529
149.702	26.228	964.749	775.358
150.716	26.170	963.734	774.223
151.731	26.333	963.116	774.357
152.746	26.568	962.370	774.695
153.760	26.711	961.977	774.920
154.775	26.697	961.145	774.122
155.789	26.712	960.018	773.209
156.804	26.661	959.743	772.705
157.819	26.743	958.427	771.925
158.833	26.814	957.954	771.776
159.848	26.718	957.069	770.589
160.862	26.667	955.565	769.091
161.877	26.674	954.436	768.145
162.892	26.643	953.670	767.328
163.906	26.593	952.853	766.392
164.921	26.584	952.070	765.658
165.935	26.554	951.470	764.979
166.950	26.835	949.870	764.811
167.964	26.622	949.552	763.591
168.979	26.462	948.194	761.756
169.994	26.455	947.816	761.354
171.008	26.749	946.879	761.772
172.023	26.829	946.043	761.368
173.037	26.463	944.520	758.538
174.052	26.350	944.090	757.654
175.067	26.380	943.350	757.118
176.081	26.369	943.300	756.968
177.096	26.489	942.315	756.611
178.110	26.166	941.621	754.637
179.125	25.948	940.730	752.946
180.140	26.250	940.108	753.642
181.154	26.211	940.233	753.513
182.169	26.546	940.677	755.199
183.183	26.839	939.712	755.579
184.198	26.612	938.980	753.978
185.213	26.479	938.539	753.003
186.227	26.597	937.551	752.635
187.242	26.565	937.076	752.052
188.256	26.705	936.340	751.977
189.271	26.818	935.724	751.883
190.286	26.492	934.201	749.244
191.300	25.696	932.715	744.693
192.315	24.923	930.891	739.981
193.329	24.835	930.632	739.346
194.344	25.973	930.778	744.095
195.359	26.407	931.285	746.224
196.373	26.604	930.397	746.260
197.388	26.452	930.400	745.568
198.402	26.381	929.884	744.797
199.417	26.607	928.498	744.552
200.432	26.322	927.605	742.597
201.446	26.289	926.923	741.849
202.461	26.174	926.387	740.886
203.475	25.335	924.730	736.055
204.490	24.636	923.546	732.184
205.504	25.531	923.500	735.750
206.519	26.120	923.648	738.210
207.534	26.212	923.102	738.085
208.548	26.629	922.938	739.594
209.563	26.490	921.784	738.034
210.577	26.403	921.494	737.383
211.592	26.817	921.273	738.829
212.607	26.803	920.116	737.776
213.621	26.715	919.539	736.894
214.636	26.756	918.967	736.533
215.650	26.623	918.379	735.459
216.665	26.818	917.515	735.494
217.680	26.539	917.428	734.226
218.694	26.359	915.775	732.108
219.709	25.958	915.239	729.992
220.723	26.465	914.820	731.646
221.738	26.523	914.109	731.245
222.753	26.527	913.621	730.806
223.767	26.670	913.218	730.995
224.782	26.904	913.262	731.912
225.796	26.808	912.358	730.736
226.811	26.117	911.004	726.803
227.826	25.458	909.745	723.086
228.840	25.574	909.697	723.448
229.855	25.843	908.650	723.635
230.869	25.313	908.103	721.005
231.884	25.914	907.911	723.202
232.899	26.521	907.465	725.218
233.913	26.490	906.710	724.425
234.928	26.339	906.352	723.470
235.942	26.294	905.964	722.917
236.957	25.998	904.823	720.760
237.972	26.101	904.447	720.808
238.986	26.145	903.659	720.291
240.001	26.233	903.136	720.161
241.015	26.252	902.902	719.987
242.030	26.601	902.146	720.711
243.045	26.463	901.980	719.964
244.059	26.732	901.381	720.493
245.074	26.369	900.514	718.293
246.088	26.110	899.648	716.510
247.103	26.458	899.424	717.649
248.117	26.946	899.571	719.641
249.132	27.252	899.204	720.493
250.147	27.413	898.747	720.704
251.161	27.540	898.320	720.799
252.176	27.463	897.449	719.729
253.190	27.548	897.177	719.788
254.205	27.641	896.497	719.541
255.220	27.522	895.999	718.609
256.234	27.423	894.926	717.294
257.249	27.406	893.789	716.254
258.263	27.331	893.673	715.805
259.278	27.347	893.459	715.632
260.293	27.348	892.763	715.014
261.307	27.341	892.015	714.324
262.322	27.164	891.178	712.896
263.336	26.496	889.222	708.654
264.351	25.409	887.304	702.812
265.366	25.571	886.962	703.112
266.380	26.590	887.838	707.732
267.395	27.015	887.602	709.142
268.409	26.987	886.454	708.052
269.424	27.152	886.354	708.553
270.439	27.224	885.756	708.290
271.453	27.257	885.245	707.951
272.468	27.380	884.762	707.977
273.482	27.468	884.275	707.866
274.497	27.094	883.154	705.455
275.512	26.666	882.608	703.296
276.526	27.112	882.399	704.799
277.541	27.372	881.842	705.300
278.555	27.143	881.092	703.750
279.570	27.004	880.114	702.370
280.585	26.958	879.970	702.013
281.599	26.949	879.005	701.147
282.614	26.492	877.433	698.067
283.628	26.498	877.197	697.842
284.643	26.965	876.550	699.065
285.657	26.437	875.834	696.399
286.672	26.206	875.043	694.819
287.687	26.690	875.312	696.834
288.701	26.906	874.287	696.788
289.716	26.474	874.035	694.867
290.730	26.500	873.227	694.260
291.745	26.172	872.078	692.031
292.760	26.447	872.125	693.057
293.774	27.336	872.718	696.874
294.789	27.778	872.112	698.022
295.803	27.841	871.177	697.453
296.818	27.849	870.928	697.221
297.833	27.249	869.979	694.111
298.847	27.324	868.742	693.347
299.862	27.619	868.681	694.362
300.876	27.720	868.715	694.712
301.891	27.690	867.420	693.502
302.906	27.170	867.197	691.283
303.920	27.483	866.403	691.777
304.935	27.743	866.430	692.727
305.949	27.694	865.665	691.866
306.964	27.379	865.030	690.106
307.979	27.529	864.586	690.260
308.993	27.843	864.454	691.281
310.008	27.902	863.685	690.827
311.022	27.582	862.706	688.776
312.037	27.411	862.574	687.961
313.052	27.147	861.315	685.901
314.066	26.402	859.584	681.654
315.081	26.001	859.129	679.723
316.095	26.808	859.697	683.155
317.110	27.362	859.551	685.064
318.125	26.549	857.627	680.415
319.139	25.563	855.947	675.319
320.154	25.525	855.441	674.719
321.168	26.432	855.928	678.446
322.183	27.003	856.530	681.008
323.197	27.397	856.321	682.256
324.212	27.452	855.925	682.086
325.227	27.545	855.055	681.683
326.241	27.496	854.055	680.641
327.256	27.380	853.574	679.767
328.270	27.148	853.401	678.700
329.285	27.050	852.216	677.333
330.300	26.859	851.377	675.894
331.314	27.161	850.950	676.621
332.329	27.619	850.957	678.268
333.343	27.622	850.672	677.993
334.358	27.665	850.159	677.684
335.373	27.747	850.028	677.825
336.387	27.996	850.123	678.765
337.402	28.091	849.723	678.740
338.416	28.007	849.485	678.178
339.431	28.090	849.102	678.119
340.446	28.202	849.153	678.513
341.460	28.175	848.223	677.612
342.475	28.030	847.723	676.614
343.489	27.987	847.471	676.194
344.504	28.245	847.102	676.796
345.519	28.496	846.874	677.481
346.533	28.540	846.151	677.003
347.548	28.557	845.829	676.748
348.562	28.435	845.365	675.869
349.577	28.401	844.542	675.027
350.592	28.282	844.077	674.157
351.606	28.340	843.003	673.454
352.621	28.299	842.115	672.532
353.635	28.207	841.547	671.683
354.650	27.505	839.836	667.685
355.665	26.534	838.480	662.993
356.679	27.048	838.103	664.518
357.694	27.402	838.109	665.758
358.708	27.414	837.527	665.281
359.723	27.881	837.156	666.634
360.738	28.103	836.746	667.056
361.752	28.187	836.439	667.059
362.767	28.613	836.241	668.393
363.781	28.768	835.932	668.653
364.796	28.701	835.779	668.227
365.810	28.993	835.271	668.822
366.825	28.775	834.912	667.684
367.840	28.422	833.982	665.598
368.854	28.071	832.761	663.296
369.869	28.159	832.421	663.285
370.883	28.254	832.078	663.296
371.898	28.105	832.277	662.855
372.913	28.104	831.825	662.434
373.927	28.349	830.954	662.569
374.942	28.386	830.954	662.642
375.956	28.507	830.406	662.583
376.971	28.617	830.135	662.706
377.986	28.789	829.602	662.843
379.000	28.708	828.981	661.997
380.015	28.669	828.438	661.363
381.029	28.423	828.159	660.197
382.044	28.677	827.857	660.813
383.059	28.884	826.705	660.576
384.073	28.931	826.097	660.201
385.088	28.737	825.620	659.067
386.102	28.700	824.700	658.142
387.117	28.647	823.797	657.172
388.132	28.222	822.594	654.635
389.146	27.615	822.205	652.096
390.161	28.076	822.159	653.652
391.175	28.448	821.991	654.787
392.190	28.129	821.016	652.817
393.205	26.756	818.404	645.792
394.219	25.274	816.889	639.265
395.234	25.175	816.614	638.643
396.248	26.831	817.782	645.397
397.263	28.227	819.390	651.584
398.278	28.294	818.553	651.097
399.292	28.096	817.948	649.856
400.307	28.092	817.378	649.331
401.321	28.225	817.231	649.630
402.336	28.714	816.975	651.103
403.350	29.047	816.869	652.141
404.365	29.210	816.979	652.749
405.380	29.527	816.466	653.403
406.394	29.319	816.419	652.573
407.409	29.210	815.990	651.785
408.423	29.334	815.187	651.524
409.438	29.455	814.708	651.509
410.453	29.520	814.456	651.482
411.467	29.414	813.967	650.658
412.482	29.544	813.396	650.604
413.496	29.628	813.331	650.789
414.511	29.532	812.807	649.974
415.526	29.630	812.257	649.823
416.540	29.325	811.668	648.219
417.555	29.017	811.096	646.625
418.569	29.104	810.424	646.337
419.584	29.088	810.020	645.901
420.599	28.814	809.621	644.567
421.613	109.654	1285.846	1448.267
422.628	94.784	1355.235	1448.386
