DTS Sentinel unit serial number:	SN413079Multiplexer serial number:	ORYXHardware model number:	OX4-SRSoftware version number:	ORYX F/W v4.00 Oryx Data Collector v3.7.2.0data status	okinstallation	princeton_trtdifferential loss correction	single-endedforward channel	channel 1reverse channel	N/Adate	2019/09/15time	01:22:35forward acquisition time	60.00reverse acquisition time	0.00gamma	496.2192k internal	0.2321k external	0.2321temperature offset calibration	0.9985default loss term (dB/km)	0.3790temperature slope calibration	1.0000multiplexer offset coefficient	1.0000multiplexer slope coefficient	1.0000fibre end	0.00T internal ref (°C)	31.91T ext. ref 1 (°C)	4.50T ext. ref 2 (°C)	26.80length (m)	temperature (°C)	Stokes	anti-Stokes-747.200	-24.515	0.125	0.075
-746.185	-73.900	-0.180	-0.066
-745.171	250.665	-0.077	-0.133
-744.156	-36.133	0.262	-0.143
-743.142	800.000	-0.092	-0.401
-742.127	-200.000	-0.005	-0.096
-741.112	349.347	-0.054	0.108
-740.098	454.213	-0.060	0.133
-739.083	-76.698	-0.139	0.049
-738.069	261.212	-0.046	0.081
-737.054	-200.000	0.003	-0.167
-736.039	-6.381	0.103	0.071
-735.025	-88.626	0.298	-0.090
-734.010	425.919	0.116	0.252
-732.996	-86.066	-0.260	-0.081
-731.981	10.600	0.200	-0.154
-730.966	-131.794	0.280	-0.037
-729.952	-183.922	-0.239	0.004
-728.937	-200.000	-0.009	0.073
-727.923	469.185	0.031	0.070
-726.908	-69.470	-0.136	-0.053
-725.894	-200.000	-0.026	-0.335
-724.879	137.979	0.220	-0.291
-723.864	-29.475	-0.084	0.049
-722.850	-200.000	0.034	-0.222
-721.835	161.670	-0.140	-0.197
-720.821	-136.466	0.120	0.014
-719.806	-45.683	-0.363	-0.181
-718.791	72.606	-0.251	-0.264
-717.777	-2.243	-0.367	-0.260
-716.762	508.577	-0.118	-0.277
-715.748	22.557	0.170	0.140
-714.733	211.216	-0.171	-0.272
-713.718	-56.004	0.038	0.017
-712.704	-200.000	-0.005	0.042
-711.689	800.000	-0.122	0.375
-710.675	-35.522	-0.375	0.206
-709.660	-92.491	0.593	0.168
-708.645	-167.219	-0.227	-0.009
-707.631	121.292	0.179	0.225
-706.616	111.716	-0.158	-0.192
-705.602	91.835	0.093	-0.105
-704.587	11.417	-0.168	-0.130
-703.572	-103.544	-0.235	-0.056
-702.558	72.740	0.236	0.249
-701.543	-72.887	0.159	-0.059
-700.529	51.136	0.280	-0.268
-699.514	86.982	0.103	0.114
-698.499	657.241	0.050	-0.130
-697.485	-200.000	0.023	-0.201
-696.470	144.653	-0.116	0.156
-695.456	-200.000	0.004	-0.043
-694.441	15.529	-0.091	0.072
-693.426	97.987	0.108	-0.126
-692.412	158.725	-0.174	-0.244
-691.397	-120.984	0.397	-0.067
-690.383	-200.000	0.043	-0.197
-689.368	-37.155	-0.226	0.122
-688.354	29.257	-0.216	0.185
-687.339	300.355	0.091	-0.169
-686.324	-200.000	0.023	0.236
-685.310	-200.000	0.003	-0.288
-684.295	-132.222	0.049	-0.006
-683.281	-109.334	-0.107	0.023
-682.266	-200.000	-0.026	0.306
-681.251	-200.000	-0.014	-0.176
-680.237	617.494	-0.088	0.223
-679.222	-57.080	0.063	0.028
-678.208	130.521	0.070	-0.091
-677.193	86.186	0.099	0.109
-676.178	-164.584	-0.297	-0.014
-675.164	-64.180	0.228	0.094
-674.149	329.800	-0.134	0.260
-673.135	-35.907	0.246	0.134
-672.120	-200.000	0.002	-0.074
-671.105	-19.215	-0.090	0.056
-670.091	-31.993	-0.331	-0.187
-669.076	-112.358	-0.362	0.073
-668.062	10.412	-0.313	-0.240
-667.047	-200.000	0.026	0.316
-666.032	631.347	0.024	0.062
-665.018	800.000	-0.123	0.450
-664.003	-80.822	-0.244	-0.082
-662.989	-200.000	0.030	0.153
-661.974	-200.000	-0.053	-0.340
-660.959	-66.863	-0.260	0.104
-659.945	-127.113	0.198	0.029
-658.930	-105.891	0.133	-0.030
-657.916	-26.392	-0.282	-0.167
-656.901	509.349	-0.105	-0.246
-655.886	-41.074	0.100	0.052
-654.872	-200.000	0.023	0.111
-653.857	404.170	0.067	-0.142
-652.843	-23.394	0.437	-0.264
-651.828	58.338	-0.287	-0.284
-650.814	430.165	0.095	0.208
-649.799	570.915	0.070	0.172
-648.784	285.580	-0.035	-0.063
-647.770	-97.638	-0.135	0.035
-646.755	-101.685	0.107	0.026
-645.741	219.065	0.243	-0.391
-644.726	75.540	0.328	-0.349
-643.711	-131.713	0.228	0.030
-642.697	-89.273	-0.394	-0.117
-641.682	-154.944	-0.172	0.011
-640.668	430.141	0.046	0.100
-639.653	-175.324	0.088	-0.002
-638.638	-52.684	0.191	0.089
-637.624	-152.323	0.283	-0.021
-636.609	-200.000	-0.017	-0.090
-635.595	-91.591	0.118	-0.034
-634.580	54.768	-0.233	-0.226
-633.565	-93.684	0.171	-0.047
-632.551	130.631	-0.276	-0.356
-631.536	736.173	0.063	0.171
-630.522	212.641	-0.126	-0.200
-629.507	-164.515	0.403	-0.018
-628.492	48.868	0.084	-0.079
-627.478	571.292	0.062	0.153
-626.463	-16.139	-0.076	-0.049
-625.449	21.047	-0.310	0.253
-624.434	-200.000	-0.017	-0.112
-623.419	-36.109	0.193	-0.105
-622.405	-191.890	-0.311	-0.003
-621.390	-12.160	-0.085	-0.056
-620.376	-94.031	0.259	0.072
-619.361	430.504	-0.036	-0.079
-618.346	-200.000	-0.024	0.189
-617.332	-88.599	-0.149	-0.045
-616.317	-50.300	0.081	-0.039
-615.303	67.450	0.127	0.130
-614.288	167.184	0.112	0.160
-613.273	223.076	-0.212	-0.344
-612.259	-152.013	0.053	0.004
-611.244	-7.849	0.086	0.058
-610.230	-150.766	0.022	0.002
-609.215	-154.148	0.241	0.016
-608.201	54.700	0.308	0.299
-607.186	66.949	0.097	0.099
-606.171	78.276	0.218	-0.234
-605.157	324.507	0.101	-0.195
-604.142	-50.981	-0.238	-0.112
-603.128	-68.130	0.153	0.060
-602.113	80.342	-0.185	0.201
-601.098	-5.852	-0.300	-0.206
-600.084	629.689	0.093	-0.236
-599.069	-82.909	0.347	-0.113
-598.055	166.640	-0.132	0.187
-597.040	487.963	0.173	0.398
-596.025	-73.117	-0.354	0.130
-595.011	-200.000	-0.025	0.113
-593.996	-53.248	0.288	-0.133
-592.982	-188.909	-0.151	-0.002
-591.967	-153.858	0.176	0.012
-590.952	-8.214	-0.124	0.084
-589.938	800.000	-0.080	0.246
-588.923	-200.000	0.007	0.110
-587.909	-57.502	0.144	0.063
-586.894	800.000	-0.092	0.292
-585.879	-199.358	0.292	0.002
-584.865	-125.026	-0.285	-0.044
-583.850	-135.335	-0.205	-0.025
-582.836	-9.948	0.229	-0.153
-581.821	800.000	0.082	0.273
-580.806	800.000	0.055	-0.179
-579.792	-2.748	0.184	0.130
-578.777	-180.022	-0.079	-0.002
-577.763	131.793	0.114	0.148
-576.748	-103.334	-0.168	0.040
-575.733	-99.722	0.365	0.092
-574.719	800.000	0.041	0.145
-573.704	432.692	0.192	0.418
-572.690	-30.076	-0.235	0.134
-571.675	-162.102	0.187	-0.009
-570.661	-118.796	0.020	-0.004
-569.646	-200.000	0.005	-0.107
-568.631	-200.000	0.061	-0.313
-567.617	775.515	0.046	-0.127
-566.602	-31.277	0.245	0.138
-565.588	112.656	-0.135	0.164
-564.573	800.000	-0.087	-0.325
-563.558	317.703	0.191	-0.362
-562.544	-98.958	0.194	0.049
-561.529	-10.960	-0.122	-0.081
-560.515	134.672	-0.378	-0.492
-559.500	45.574	0.280	0.259
-558.485	-40.862	-0.131	0.068
-557.471	-200.000	0.018	-0.087
-556.456	-46.668	0.173	0.085
-555.442	575.959	0.046	-0.112
-554.427	433.275	0.144	0.314
-553.412	-45.426	0.200	-0.099
-552.398	800.000	0.083	-0.279
-551.383	214.975	0.069	0.110
-550.369	-103.640	0.138	-0.032
-549.354	216.265	-0.107	0.170
-548.339	83.512	0.332	-0.362
-547.325	270.062	0.279	-0.491
-546.310	-119.254	0.373	0.065
-545.296	13.987	-0.120	-0.094
-544.281	-126.127	-0.080	-0.012
-543.266	800.000	0.082	0.265
-542.252	-200.000	-0.010	0.094
-541.237	43.770	0.008	-0.008
-540.223	-200.000	-0.049	0.349
-539.208	154.663	0.084	-0.116
-538.193	-96.293	0.310	-0.082
-537.179	202.025	0.114	-0.176
-536.164	159.271	0.140	0.196
-535.150	800.000	-0.052	0.171
-534.135	-1.673	0.257	0.181
-533.121	7.928	-0.155	0.116
-532.106	-125.879	-0.459	-0.069
-531.091	441.897	0.235	-0.515
-530.077	-74.936	0.402	0.145
-529.062	-43.585	-0.186	-0.094
-528.048	69.554	-0.222	-0.229
-527.033	800.000	0.054	-0.173
-526.018	122.242	-0.135	0.169
-525.004	-104.593	0.061	-0.014
-523.989	-200.000	0.034	-0.245
-522.975	30.662	-0.185	-0.158
-521.960	-77.005	0.138	0.048
-520.945	-50.344	-0.202	0.096
-519.931	347.328	0.028	0.056
-518.916	-110.754	-0.176	0.036
-517.902	800.000	0.058	-0.213
-516.887	-131.507	-0.482	-0.064
-515.872	171.481	-0.057	-0.082
-514.858	-46.617	0.168	0.083
-513.843	-59.134	0.212	-0.092
-512.829	40.471	-0.187	0.169
-511.814	800.000	0.126	0.367
-510.799	-85.592	0.287	0.089
-509.785	-51.029	-0.184	-0.087
-508.770	-29.973	-0.386	-0.220
-507.756	275.568	-0.065	0.116
-506.741	-90.241	-0.178	-0.052
-505.726	800.000	-0.060	-0.241
-504.712	-200.000	-0.013	0.117
-503.697	800.000	0.050	0.144
-502.683	-200.000	-0.055	-0.380
-501.668	-41.417	0.090	-0.047
-500.653	-127.550	-0.186	0.027
-499.639	-48.037	0.186	-0.090
-498.624	-135.557	-0.359	-0.043
-497.610	800.000	0.041	-0.136
-496.595	21.218	-0.149	0.121
-495.581	261.137	0.152	0.264
-494.566	10.429	-0.265	0.202
-493.551	234.281	-0.051	0.084
-492.537	21.524	-0.253	-0.206
-491.522	-141.244	-0.180	0.018
-490.508	-151.848	0.157	0.011
-489.493	-200.000	-0.009	-0.182
-488.478	-39.852	-0.322	-0.168
-487.464	-200.000	-0.019	0.161
-486.449	-73.781	0.231	0.084
-485.435	12.607	-0.148	-0.115
-484.420	-155.931	-0.244	-0.016
-483.405	34.050	-0.106	0.092
-482.391	194.194	-0.143	0.217
-481.376	37.914	0.163	-0.145
-480.362	-200.000	0.033	-0.153
-479.347	358.303	0.074	0.147
-478.332	-6.754	0.220	-0.150
-477.318	-200.000	-0.015	0.413
-476.303	-139.401	0.106	0.011
-475.289	-63.162	-0.156	0.064
-474.274	800.000	-0.125	-0.344
-473.259	167.104	0.145	-0.206
-472.245	-200.000	-0.005	0.084
-471.230	-200.000	0.069	0.339
-470.216	-186.723	0.460	-0.006
-469.201	-14.193	-0.123	0.079
-468.186	60.535	0.255	-0.252
-467.172	327.792	-0.182	-0.350
-466.157	800.000	0.015	-0.059
-465.143	90.576	-0.163	0.183
-464.128	-146.446	-0.145	0.013
-463.113	-132.229	0.058	-0.007
-462.099	-93.458	0.208	-0.058
-461.084	6.389	0.150	0.111
-460.070	-52.973	-0.519	0.239
-459.055	525.900	-0.063	-0.149
-458.040	-200.000	-0.021	-0.275
-457.026	-149.509	-0.344	0.027
-456.011	800.000	0.016	0.048
-454.997	-46.859	0.162	0.079
-453.982	800.000	-0.017	0.053
-452.968	570.260	-0.101	0.246
-451.953	-44.612	-0.119	0.060
-450.938	93.165	-0.125	-0.141
-449.924	256.448	0.039	0.067
-448.909	544.705	-0.033	-0.078
-447.895	-43.116	0.106	-0.054
-446.880	42.830	0.133	0.121
-445.865	-16.936	-0.204	0.129
-444.851	61.139	-0.146	-0.145
-443.836	-148.059	-0.395	-0.033
-442.822	15.100	-0.244	0.191
-441.807	-157.411	-0.280	-0.017
-440.792	-45.214	0.181	-0.090
-439.778	-196.791	-0.104	-0.001
-438.763	196.478	-0.225	0.342
-437.749	6.293	0.041	0.030
-436.734	-69.675	-0.493	0.188
-435.719	94.293	0.117	0.132
-434.705	800.000	-0.060	-0.188
-433.690	-165.454	-0.301	-0.013
-432.676	-47.077	-0.236	-0.115
-431.661	575.939	0.099	0.243
-430.646	-96.183	0.177	-0.047
-429.632	-200.000	0.004	0.350
-428.617	-120.018	-0.279	0.048
-427.603	-200.000	-0.036	-0.266
-426.588	424.111	0.122	-0.261
-425.573	-64.246	-0.244	0.099
-424.559	65.979	-0.157	-0.158
-423.544	-165.476	0.159	-0.007
-422.530	338.956	-0.098	0.190
-421.515	-195.795	0.407	-0.003
-420.500	84.801	-0.206	0.225
-419.486	-200.000	-0.041	0.204
-418.471	17.345	0.139	-0.110
-417.457	-108.072	-0.268	-0.058
-416.442	800.000	0.073	0.225
-415.428	800.000	-0.093	0.263
-414.413	-78.770	0.203	-0.069
-413.398	167.438	0.128	-0.182
-412.384	205.722	-0.061	-0.095
-411.369	308.755	0.131	0.245
-410.355	-38.538	-0.153	0.080
-409.340	-200.000	-0.035	-0.513
-408.325	517.245	0.046	-0.107
-407.311	-200.000	-0.005	0.088
-406.296	31.248	0.164	0.141
-405.282	128.604	0.111	-0.141
-404.267	206.318	-0.099	-0.154
-403.252	-143.178	0.270	-0.026
-402.238	800.000	-0.038	-0.147
-401.223	241.914	-0.130	-0.218
-400.209	-200.000	-0.009	-0.241
-399.194	-86.345	0.253	0.078
-398.179	91.626	-0.115	0.129
-397.165	721.440	0.142	-0.378
-396.150	487.523	0.056	-0.127
-395.136	546.020	0.111	0.264
-394.121	800.000	-0.098	-0.358
-393.106	-200.000	-0.008	-0.104
-392.092	-36.039	0.076	-0.041
-391.077	390.631	-0.080	-0.165
-390.063	145.483	0.038	0.051
-389.048	-92.752	-0.350	0.098
-388.033	-175.645	0.019	-0.000
-387.019	190.668	-0.129	0.194
-386.004	723.165	0.075	-0.200
-384.990	-200.000	0.035	0.288
-383.975	-200.000	0.019	0.244
-382.960	-115.176	0.159	-0.030
-381.946	-173.589	0.265	-0.008
-380.931	-61.646	0.207	0.086
-379.917	-148.224	-0.220	0.018
-378.902	107.259	0.102	0.121
-377.888	-140.324	0.390	-0.041
-376.873	-47.992	-0.123	0.059
-375.858	-200.000	0.011	0.050
-374.844	-163.799	-0.193	-0.009
-373.829	-151.505	0.105	-0.008
-372.815	582.509	0.126	-0.307
-371.800	329.476	0.062	0.119
-370.785	5.055	-0.175	-0.128
-369.771	-76.523	-0.158	0.055
-368.756	-118.044	-0.388	0.069
-367.742	212.231	-0.030	0.046
-366.727	-77.558	-0.243	0.084
-365.712	-200.000	0.000	0.162
-364.698	-78.318	0.133	-0.045
-363.683	-200.000	-0.007	-0.063
-362.669	68.587	0.183	-0.187
-361.654	79.029	-0.267	-0.285
-360.639	-48.300	0.151	0.072
-359.625	375.454	0.170	-0.346
-358.610	323.334	0.126	-0.239
-357.596	-70.761	-0.154	-0.058
-356.581	800.000	-0.014	-0.055
-355.566	294.330	0.134	0.244
-354.552	800.000	0.027	-0.099
-353.537	800.000	0.087	-0.253
-352.523	-200.000	0.018	0.199
-351.508	-172.264	-0.151	-0.005
-350.493	-200.000	-0.074	0.458
-349.479	-2.082	-0.263	0.184
-348.464	21.272	-0.164	0.133
-347.450	275.078	0.038	-0.067
-346.435	-119.769	0.133	-0.023
-345.420	250.573	0.067	-0.114
-344.406	10.750	-0.214	-0.162
-343.391	-77.424	0.179	0.062
-342.377	-71.867	0.142	0.053
-341.362	83.785	-0.214	-0.232
-340.348	-43.557	0.108	-0.054
-339.333	-52.513	-0.274	0.126
-338.318	-147.238	0.246	-0.021
-337.304	-6.927	-0.068	0.046
-336.289	-176.233	-0.145	0.004
-335.275	-200.000	0.009	0.050
-334.260	-194.335	-0.159	-0.001
-333.245	124.151	0.100	-0.125
-332.231	29.471	-0.314	-0.265
-331.216	-200.000	0.021	0.123
-330.202	-83.290	-0.225	0.072
-329.187	38.549	0.207	-0.183
-328.172	-79.773	-0.242	0.081
-327.158	-58.557	-0.182	0.078
-326.143	800.000	0.022	0.079
-325.129	134.882	0.070	-0.090
-324.114	-200.000	0.014	-0.096
-323.099	-54.606	0.234	-0.105
-322.085	122.180	-0.183	0.227
-321.070	-153.851	0.259	0.018
-320.056	204.585	-0.278	-0.429
-319.041	-169.499	0.173	-0.006
-318.026	-200.000	0.003	0.097
-317.012	800.000	-0.033	0.097
-315.997	-34.210	0.077	0.042
-314.983	66.045	-0.109	-0.110
-313.968	-145.241	-0.282	-0.025
-312.953	415.028	-0.172	0.365
-311.939	51.664	-0.153	0.145
-310.924	-122.725	-0.173	-0.028
-309.910	202.675	0.114	0.175
-308.895	-49.872	0.028	0.013
-307.880	-200.000	-0.016	-0.170
-306.866	248.503	-0.074	-0.124
-305.851	-200.000	-0.014	-0.221
-304.837	236.691	0.078	-0.129
-303.822	-35.445	-0.205	0.111
-302.807	-32.797	-0.301	0.166
-301.793	672.664	0.076	0.197
-300.778	-34.421	-0.150	0.082
-299.764	800.000	-0.038	-0.114
-298.749	-69.388	0.181	-0.069
-297.735	304.799	0.096	0.177
-296.720	27.484	-0.088	0.073
-295.705	-107.517	-0.235	-0.051
-294.691	-29.440	-0.069	-0.039
-293.676	42.528	-0.050	-0.045
-292.662	11.288	0.172	0.131
-291.647	703.893	-0.137	-0.359
-290.632	-4.725	-0.109	0.075
-289.618	-65.749	0.028	-0.011
-288.603	-66.710	-0.049	0.019
-287.589	-178.254	0.176	-0.004
-286.574	-91.150	0.290	0.083
-285.559	219.509	0.053	-0.085
-284.545	-200.000	0.023	0.211
-283.530	-92.858	-0.137	-0.038
-282.516	11.493	-0.328	-0.250
-281.501	45.532	0.283	0.259
-280.486	-128.019	-0.170	-0.024
-279.472	-200.000	-0.002	-0.221
-278.457	86.562	0.321	-0.351
-277.443	38.145	0.060	-0.053
-276.428	-13.431	-0.099	0.064
-275.413	287.298	0.100	-0.179
-274.399	54.560	-0.097	0.093
-273.384	-44.442	0.185	0.092
-272.370	-132.441	-0.401	-0.051
-271.355	800.000	0.083	0.229
-270.340	105.906	-0.051	-0.059
-269.326	372.217	-0.094	0.189
-268.311	643.644	0.062	-0.157
-267.297	-63.848	0.259	-0.105
-266.282	114.000	0.102	-0.123
-265.267	-200.000	0.039	0.231
-264.253	-133.133	-0.084	-0.011
-263.238	55.275	0.159	-0.152
-262.224	-165.972	-0.153	0.006
-261.209	-85.374	-0.155	-0.048
-260.195	-132.266	-0.037	-0.005
-259.180	-104.459	-0.402	-0.092
-258.165	-200.000	-0.007	0.088
-257.151	291.298	-0.052	-0.095
-256.136	800.000	-0.093	-0.292
-255.122	118.702	-0.097	-0.119
-254.107	-151.440	0.237	-0.017
-253.092	93.722	-0.373	0.420
-252.078	425.288	0.159	0.340
-251.063	-44.387	-0.065	0.032
-250.049	572.235	-0.071	0.170
-249.034	68.294	0.204	-0.207
-248.019	-78.864	-0.186	0.063
-247.005	109.469	-0.039	-0.046
-245.990	-36.747	0.094	-0.050
-244.976	-114.610	0.174	0.033
-243.961	-50.291	0.337	0.158
-242.946	-200.000	0.036	-0.220
-241.932	-200.000	0.028	-0.169
-240.917	-111.445	0.109	0.022
-239.903	700.040	-0.069	0.180
-238.888	254.639	-0.059	0.100
-237.873	23.931	-0.133	0.108
-236.859	-117.039	0.133	0.024
-235.844	5.643	0.250	0.183
-234.830	110.857	0.304	-0.363
-233.815	-179.044	-0.169	-0.004
-232.800	375.734	0.067	-0.135
-231.786	-25.511	0.317	-0.185
-230.771	800.000	0.034	-0.149
-229.757	203.151	-0.100	-0.153
-228.742	42.204	0.251	-0.226
-227.727	-59.980	-0.115	0.049
-226.713	510.347	-0.120	-0.277
-225.698	800.000	-0.100	-0.294
-224.684	800.000	0.034	-0.094
-223.669	81.520	-0.032	0.035
-222.655	-136.862	0.088	0.010
-221.640	-45.605	-0.195	0.096
-220.625	-115.810	0.280	0.052
-219.611	-18.399	-0.172	0.106
-218.596	-76.449	-0.094	0.033
-217.582	567.846	0.074	0.179
-216.567	800.000	0.105	-0.339
-215.552	800.000	-0.064	0.192
-214.538	-8.795	0.127	0.084
-213.523	55.476	0.116	-0.111
-212.509	800.000	0.117	0.323
-211.494	-59.404	0.254	-0.108
-210.479	60.018	-0.153	0.150
-209.465	-15.318	-0.135	-0.086
-208.450	41.574	-0.105	0.094
-207.436	-39.929	-0.083	-0.043
-206.421	170.044	0.260	0.368
-205.406	800.000	-0.013	0.038
-204.392	-95.172	-0.169	0.045
-203.377	104.199	-0.180	0.210
-202.363	-110.322	0.217	0.045
-201.348	236.189	-0.195	-0.318
-200.333	-140.063	-0.103	0.011
-199.319	-35.998	0.075	0.040
-198.304	-90.026	-0.277	0.080
-197.290	76.522	0.227	0.238
-196.275	570.490	0.034	-0.082
-195.260	-167.466	-0.156	0.006
-194.246	-200.000	-0.018	0.112
-193.231	-69.123	-0.155	-0.059
-192.217	-83.923	0.188	-0.059
-191.202	104.714	-0.202	-0.235
-190.187	54.681	0.134	-0.128
-189.173	352.931	-0.038	-0.075
-188.158	-200.000	-0.048	0.357
-187.144	-200.000	0.040	0.236
-186.129	-19.302	0.410	-0.251
-185.114	218.131	-0.079	-0.125
-184.100	-200.000	-0.002	0.343
-183.085	390.090	0.070	0.144
-182.071	80.795	-0.131	0.140
-181.056	-5.058	-0.240	0.163
-180.042	-142.194	0.162	-0.016
-179.027	-70.927	-0.270	-0.100
-178.012	356.409	0.076	-0.151
-176.998	84.858	0.288	-0.312
-175.983	177.421	0.105	0.151
-174.969	-51.284	0.062	-0.029
-173.954	-159.271	-0.228	0.013
-172.939	142.960	-0.069	0.091
-171.925	214.695	-0.036	0.056
-170.910	10.614	0.165	0.125
-169.896	109.005	-0.164	0.194
-168.881	-200.000	0.049	-0.513
-167.866	-200.000	0.032	0.232
-166.852	200.219	-0.107	0.163
-165.837	800.000	0.065	-0.269
-164.823	95.106	-0.112	-0.126
-163.808	424.896	0.164	0.349
-162.793	398.823	0.140	0.289
-161.779	55.483	0.135	0.130
-160.764	-19.926	0.302	-0.184
-159.750	-25.648	0.188	0.109
-158.735	30.595	0.301	0.254
-157.720	206.778	0.163	0.251
-156.706	-200.000	0.016	0.197
-155.691	-118.072	0.218	-0.039
-154.677	11.335	0.051	0.039
-153.662	-200.000	-0.055	0.334
-152.647	-135.222	-0.118	-0.014
-151.633	134.877	0.151	0.194
-150.618	-17.209	-0.128	0.080
-149.604	2.484	-0.075	-0.053
-148.589	485.453	-0.164	0.368
-147.574	-14.948	0.120	-0.076
-146.560	-166.497	0.085	0.004
-145.545	118.302	0.153	-0.186
-144.531	-75.064	0.144	0.051
-143.516	800.000	-0.033	0.122
-142.502	199.286	-0.169	-0.256
-141.487	381.839	0.071	-0.144
-140.472	-91.847	0.246	-0.069
-139.458	243.398	0.124	-0.205
-138.443	-32.787	0.210	0.115
-137.429	-200.000	0.009	0.288
-136.414	-122.217	-0.220	-0.036
-135.399	337.707	0.158	0.304
-134.385	67.940	0.260	0.262
-133.370	-200.000	-0.004	-0.051
-132.356	-62.445	-0.098	0.040
-131.341	500.672	0.123	0.281
-130.326	90.192	0.153	-0.169
-129.312	-132.892	-0.137	0.017
-128.297	161.496	0.018	0.025
-127.283	-144.214	-0.317	-0.029
-126.268	16.712	0.430	0.336
-125.253	-71.830	-0.061	0.022
-124.239	187.652	-0.095	0.140
-123.224	38.637	-0.082	0.073
-122.210	133.758	-0.106	-0.136
-121.195	-145.640	-0.431	0.038
-120.180	-87.058	-0.090	-0.027
-119.166	698.505	-0.053	-0.137
-118.151	194.356	0.068	0.102
-117.137	-54.468	-0.095	0.043
-116.122	-85.711	0.167	-0.051
-115.107	800.000	-0.048	0.197
-114.093	-142.705	0.154	0.015
-113.078	-68.093	0.252	0.097
-112.064	109.123	-0.107	0.126
-111.049	-101.592	0.166	-0.040
-110.034	24.746	0.254	0.207
-109.020	25.858	-0.112	0.092
-108.005	800.000	-0.061	0.182
-106.991	-110.988	0.267	-0.054
-105.976	513.577	-0.157	-0.361
-104.962	-200.000	-0.019	-0.116
-103.947	313.542	0.089	0.164
-102.932	-11.638	0.164	0.106
-101.918	754.286	0.081	0.215
-100.903	385.001	-0.068	0.138
-99.889	203.808	0.113	0.173
-98.874	-87.365	-0.242	-0.072
-97.859	48.984	0.198	0.183
-96.845	452.277	-0.050	0.110
-95.830	-126.175	0.236	0.035
-94.816	-9.765	0.091	0.059
-93.801	-200.000	0.031	0.171
-92.786	-119.755	0.169	-0.029
-91.772	179.020	-0.152	0.219
-90.757	136.362	0.215	0.277
-89.743	38.819	0.014	-0.013
-88.728	800.000	0.150	0.508
-87.713	-179.347	-0.323	-0.007
-86.699	19.732	0.235	0.187
-85.684	-2.286	0.224	0.155
-84.670	-138.852	0.217	0.023
-83.655	505.450	0.072	0.163
-82.640	266.361	0.231	-0.398
-81.626	400.628	0.071	-0.146
-80.611	-130.203	0.328	0.044
-79.597	-200.000	0.057	0.310
-78.582	-200.000	0.012	-0.366
-77.567	-200.000	0.003	-0.112
-76.553	800.000	-0.050	-0.181
-75.538	163.537	0.193	-0.267
-74.524	-200.000	0.018	0.077
-73.509	-200.000	0.039	-0.277
-72.494	800.000	-0.099	0.272
-71.480	38.622	0.405	-0.355
-70.465	-68.548	-0.246	-0.094
-69.451	-102.931	0.330	-0.077
-68.436	76.496	-0.132	0.137
-67.422	-23.140	-0.206	-0.122
-66.407	99.279	0.177	0.201
-65.392	46.031	-0.258	0.235
-64.378	-12.425	0.195	0.125
-63.363	-49.196	-0.184	-0.087
-62.349	800.000	-0.058	0.188
-61.334	126.713	-0.826	-1.030
-60.319	-96.695	0.682	0.177
-59.305	800.000	-0.315	-0.915
-58.290	800.000	0.313	1.220
-57.276	188.714	0.778	1.145
-56.261	-200.000	96.215	597.602
-55.246	655.299	1371.096	3463.908
-54.232	199.655	2546.106	3842.991
-53.217	120.345	2138.164	2611.856
-52.203	43.957	1601.330	1443.587
-51.188	35.535	1338.966	1156.570
-50.173	32.199	1297.808	1101.457
-49.159	54.445	1344.781	1274.438
-48.144	56.565	1361.752	1303.103
-47.130	35.527	1320.689	1140.554
-46.115	32.165	1302.854	1105.366
-45.100	31.930	1298.013	1099.840
-44.086	31.804	1295.780	1097.165
-43.071	31.670	1293.599	1094.492
-42.057	31.825	1290.961	1093.119
-41.042	31.736	1289.518	1091.336
-40.027	31.881	1288.004	1090.853
-39.013	31.782	1286.114	1088.636
-37.998	31.816	1284.370	1087.312
-36.984	31.851	1282.767	1086.115
-35.969	31.885	1280.814	1084.616
-34.954	31.929	1279.405	1083.637
-33.940	31.960	1277.732	1082.355
-32.925	31.967	1276.009	1080.895
-31.911	31.996	1274.718	1079.921
-30.896	31.998	1273.555	1078.906
-29.881	31.972	1272.213	1077.574
-28.867	31.975	1271.193	1076.688
-27.852	31.965	1268.796	1074.557
-26.838	32.002	1268.080	1074.120
-25.823	31.984	1266.439	1072.582
-24.809	31.992	1265.049	1071.410
-23.794	32.044	1264.083	1070.844
-22.779	32.039	1262.708	1069.607
-21.765	31.962	1261.554	1068.153
-20.750	31.952	1260.055	1066.784
-19.736	31.905	1258.909	1065.501
-18.721	31.868	1257.890	1064.391
-17.706	31.923	1256.532	1063.507
-16.692	31.904	1255.223	1062.250
-15.677	31.918	1254.407	1061.598
-14.663	31.979	1253.035	1060.738
-13.648	31.926	1251.921	1059.457
-12.633	31.919	1251.033	1058.623
-11.619	31.845	1250.293	1057.538
-10.604	31.757	1249.759	1056.548
-9.590	31.822	1248.797	1056.059
-8.575	31.802	1247.421	1054.738
-7.560	31.872	1246.491	1054.304
-6.546	31.792	1245.867	1053.286
-5.531	31.744	1245.132	1052.354
-4.517	31.820	1244.003	1051.781
-3.502	31.887	1243.081	1051.339
-2.487	31.765	1242.399	1050.038
-1.473	31.810	1238.380	1046.850
-0.458	30.406	1223.003	1026.059
0.556	25.640	1205.875	988.604
1.571	21.928	1211.507	972.597
2.586	20.926	1226.527	978.944
3.600	20.533	1214.925	967.411
4.615	15.624	1144.368	885.348
5.629	7.856	1071.944	790.774
6.644	4.703	1052.891	761.243
7.659	4.381	1050.531	757.897
8.673	4.447	1049.252	757.230
9.688	4.459	1047.725	756.120
10.702	4.555	1046.023	755.289
11.717	8.828	1051.332	779.893
12.731	15.803	1061.727	821.706
13.746	18.581	1064.293	837.200
14.761	17.869	1062.918	832.570
15.775	16.796	1060.965	825.739
16.790	15.855	1059.101	819.636
17.804	15.230	1056.875	814.803
18.819	14.696	1056.686	811.989
19.834	14.582	1055.674	810.589
20.848	14.325	1054.474	808.346
21.863	14.216	1053.477	806.984
22.877	14.032	1052.818	805.513
23.892	13.868	1052.389	804.321
24.907	13.870	1051.650	803.695
25.921	14.022	1050.525	803.497
26.936	14.049	1049.145	802.503
27.950	14.049	1047.679	801.309
28.965	14.243	1046.085	800.953
29.980	14.224	1044.652	799.692
30.994	14.290	1044.020	799.458
32.009	14.221	1043.189	798.417
33.023	14.321	1041.877	797.821
34.038	14.192	1040.300	795.925
35.053	14.174	1039.525	795.179
36.067	14.166	1038.876	794.571
37.082	14.106	1038.445	793.887
38.096	14.315	1037.248	793.895
39.111	14.317	1036.419	793.204
40.126	14.086	1035.583	791.392
41.140	13.928	1034.028	789.386
42.155	13.937	1033.094	788.643
43.169	13.848	1031.787	787.155
44.184	13.850	1030.991	786.487
45.199	13.966	1029.909	786.140
46.213	13.855	1029.201	785.006
47.228	14.092	1027.861	785.035
48.242	14.037	1027.187	784.191
49.257	14.025	1026.081	783.218
50.271	14.104	1025.284	782.916
51.286	14.230	1024.316	782.700
52.301	14.026	1023.722	781.218
53.315	14.164	1022.121	780.572
54.330	14.042	1021.027	779.097
55.344	13.959	1020.617	778.326
56.359	14.083	1019.360	777.879
57.374	14.000	1018.636	776.870
58.388	13.858	1017.934	775.601
59.403	13.879	1016.925	774.862
60.417	13.822	1016.282	774.037
61.432	13.703	1015.618	772.907
62.447	13.773	1014.748	772.503
63.461	13.696	1014.012	771.518
64.476	13.825	1013.145	771.387
65.490	13.871	1011.980	770.649
66.505	13.784	1011.620	769.901
67.520	13.734	1011.001	769.130
68.534	13.776	1010.390	768.794
69.549	13.855	1009.500	768.415
70.563	13.784	1008.817	767.498
71.578	13.731	1007.655	766.300
72.593	13.720	1007.134	765.783
73.607	13.643	1006.759	765.077
74.622	13.830	1005.600	764.990
75.636	13.650	1005.429	763.963
76.651	13.689	1004.563	763.418
77.666	13.818	1003.837	763.392
78.680	13.641	1003.801	762.481
79.695	13.810	1002.422	762.143
80.709	13.897	1001.797	762.001
81.724	13.969	1001.573	762.092
82.739	13.991	1000.765	761.511
83.753	14.036	999.948	761.026
84.768	14.202	998.992	760.992
85.782	14.130	998.377	760.127
86.797	14.292	997.040	759.783
87.812	14.028	996.651	758.215
88.826	14.114	994.992	757.277
89.841	14.129	994.327	756.770
90.855	14.295	993.387	756.743
91.870	14.216	992.885	755.933
92.884	14.244	991.735	755.121
93.899	14.247	991.140	754.613
94.914	14.452	990.019	754.621
95.928	14.257	989.654	753.392
96.943	14.218	988.959	752.622
97.957	14.077	988.282	751.402
98.972	14.298	986.667	751.106
99.987	14.293	986.229	750.683
101.001	14.212	984.997	749.315
102.016	14.165	984.452	748.623
103.030	14.193	983.714	748.120
104.045	14.138	983.296	747.489
105.060	14.200	982.259	746.913
106.074	14.003	981.077	745.064
107.089	13.839	980.430	743.775
108.103	13.841	979.417	742.949
109.118	13.777	978.467	741.874
110.133	13.842	977.399	741.290
111.147	13.963	976.488	741.073
112.162	13.901	975.601	740.060
113.176	14.101	974.830	740.297
114.191	14.105	974.367	739.900
115.206	13.924	974.178	738.885
116.220	13.979	972.694	737.939
117.235	14.035	971.377	737.123
118.249	13.918	970.830	736.124
119.264	14.007	969.972	735.802
120.279	14.016	968.780	734.873
121.293	13.915	968.324	734.013
122.308	13.846	967.130	732.740
123.322	13.800	966.314	731.854
124.337	13.925	965.212	731.504
125.352	13.893	963.703	730.155
126.366	13.726	963.517	729.215
127.381	13.784	962.237	728.440
128.395	13.868	961.397	728.107
129.410	13.828	960.609	727.272
130.424	13.972	959.548	727.031
131.439	13.985	958.993	726.607
132.454	13.963	958.301	725.919
133.468	13.994	957.507	725.391
134.483	13.970	956.794	724.681
135.497	14.137	955.654	724.478
136.512	14.018	955.195	723.550
137.527	14.069	954.181	722.941
138.541	14.103	953.243	722.314
139.556	14.175	952.260	721.815
140.570	14.185	952.027	721.620
141.585	14.342	951.503	721.839
142.600	14.395	950.383	721.155
143.614	14.375	949.360	720.226
144.629	14.388	948.681	719.706
145.643	14.370	947.552	718.708
146.658	14.258	946.845	717.623
147.673	14.171	945.913	716.480
148.687	14.016	945.138	715.165
149.702	14.106	944.086	714.691
150.716	14.060	943.257	713.803
151.731	14.286	942.308	713.988
152.746	14.034	942.116	712.703
153.760	14.315	941.168	713.124
154.775	14.214	940.816	712.364
155.789	14.300	939.967	712.023
156.804	14.322	939.128	711.418
157.819	14.449	938.396	711.345
158.833	14.416	937.608	710.544
159.848	14.434	937.007	710.103
160.862	14.405	936.462	709.503
161.877	14.295	934.975	707.846
162.892	14.277	934.196	707.118
163.906	14.203	933.290	706.055
164.921	14.195	932.433	705.309
165.935	14.277	931.740	705.072
166.950	14.204	931.002	704.142
167.964	14.306	930.008	703.757
168.979	14.210	929.013	702.538
169.994	14.345	928.403	702.583
171.008	14.376	927.599	702.044
172.023	14.426	926.979	701.720
173.037	14.540	926.463	701.751
174.052	14.462	925.524	700.649
175.067	14.271	925.201	699.538
176.081	14.219	924.012	698.358
177.096	14.202	923.955	698.183
178.110	14.278	923.190	697.860
179.125	14.346	922.304	697.416
180.140	14.348	922.038	697.160
181.154	14.386	921.446	696.811
182.169	14.513	920.968	696.918
183.183	14.599	920.457	696.828
184.198	14.604	919.632	696.165
185.213	14.578	918.915	695.450
186.227	14.533	918.206	694.666
187.242	14.591	917.350	694.197
188.256	14.789	916.962	694.665
189.271	14.644	916.038	693.302
190.286	14.426	915.905	692.236
191.300	14.219	915.241	690.813
192.315	14.206	913.803	689.611
193.329	14.227	913.758	689.602
194.344	14.516	912.533	689.816
195.359	14.427	912.414	689.297
196.373	14.665	911.309	689.383
197.388	14.570	911.229	688.867
198.402	14.873	910.575	689.566
199.417	14.981	910.228	689.684
200.432	14.999	909.049	688.803
201.446	14.992	909.168	688.806
202.461	14.911	908.937	688.236
203.475	14.829	908.285	687.343
204.490	14.794	907.482	686.530
205.504	14.856	906.155	685.720
206.519	14.768	905.663	684.929
207.534	14.772	905.157	684.500
208.548	14.770	904.243	683.739
209.563	14.790	903.420	683.140
210.577	14.834	903.079	683.001
211.592	14.886	902.478	682.700
212.607	14.937	901.757	682.303
213.621	14.913	901.153	681.684
214.636	15.007	900.293	681.356
215.650	14.947	899.786	680.670
216.665	15.109	898.949	680.634
217.680	15.081	898.468	680.097
218.694	15.196	897.341	679.649
219.709	15.181	896.946	679.230
220.723	14.984	896.611	678.118
221.738	15.098	895.774	677.886
222.753	15.048	895.109	677.122
223.767	15.107	894.813	677.076
224.782	15.260	894.183	677.155
225.796	15.114	893.857	676.259
226.811	15.276	892.620	675.918
227.826	15.104	891.955	674.663
228.840	15.113	891.240	674.098
229.855	15.107	890.708	673.612
230.869	15.066	890.086	672.915
231.884	15.046	889.311	672.192
232.899	15.151	888.475	671.919
233.913	15.075	887.963	671.168
234.928	14.987	887.141	670.137
235.942	14.942	886.928	669.734
236.957	14.919	886.054	668.925
237.972	15.030	885.623	668.984
238.986	15.124	884.966	668.804
240.001	15.093	884.267	668.090
241.015	15.174	883.856	668.047
242.030	15.218	883.336	667.767
243.045	15.161	882.533	666.875
244.059	15.101	882.321	666.418
245.074	15.184	881.536	666.098
246.088	15.344	880.656	666.007
247.103	15.323	879.964	665.341
248.117	15.413	879.873	665.570
249.132	15.456	879.340	665.280
250.147	15.635	878.706	665.449
251.161	15.744	878.081	665.350
252.176	15.636	877.468	664.399
253.190	15.710	876.688	664.041
254.205	15.683	876.021	663.369
255.220	15.728	875.715	663.259
256.234	15.874	875.220	663.399
257.249	15.876	873.960	662.393
258.263	15.733	873.286	661.261
259.278	15.740	872.828	660.885
260.293	15.706	872.605	660.523
261.307	15.818	871.889	660.363
262.322	15.830	871.173	659.810
263.336	15.854	870.318	659.197
264.351	15.909	869.529	658.755
265.366	15.966	868.901	658.445
266.380	15.979	868.708	658.294
267.395	15.906	867.978	657.396
268.409	15.712	867.173	655.972
269.424	15.800	866.410	655.677
270.439	15.778	865.898	655.149
271.453	15.898	864.650	654.613
272.468	15.793	864.542	654.064
273.482	16.005	863.737	654.220
274.497	15.867	863.224	653.237
275.512	15.885	862.906	653.009
276.526	15.847	862.193	652.265
277.541	15.963	861.687	652.273
278.555	15.948	861.125	651.732
279.570	16.165	860.812	652.275
280.585	16.119	859.769	651.251
281.599	16.149	858.820	650.589
282.614	16.047	858.253	649.709
283.628	16.034	857.452	648.994
284.643	16.226	857.012	649.345
285.657	16.027	856.772	648.339
286.672	16.052	856.236	647.973
287.687	16.036	855.320	647.160
288.701	16.150	855.043	647.331
289.716	16.245	854.171	646.977
290.730	16.122	853.879	646.229
291.745	16.208	853.168	645.963
292.760	16.189	852.759	645.523
293.774	16.237	851.917	645.014
294.789	16.280	851.278	644.635
295.803	16.171	850.592	643.643
296.818	16.285	849.686	643.333
297.833	16.191	849.202	642.555
298.847	16.234	848.571	642.182
299.862	16.233	848.065	641.738
300.876	16.299	847.429	641.450
301.891	16.278	847.092	641.060
302.906	16.404	846.650	641.148
303.920	16.442	846.176	640.876
304.935	16.561	845.458	640.725
305.949	16.445	844.502	639.506
306.964	16.526	844.334	639.627
307.979	16.463	843.755	638.895
308.993	16.482	843.530	638.742
310.008	16.637	842.623	638.581
311.022	16.506	842.137	637.665
312.037	16.425	841.307	636.673
313.052	16.345	840.881	635.994
314.066	16.322	840.485	635.550
315.081	16.286	839.902	634.918
316.095	16.411	838.953	634.615
317.110	16.400	838.555	634.216
318.125	16.390	838.029	633.723
319.139	16.449	837.503	633.491
320.154	16.348	837.248	632.863
321.168	16.397	836.486	632.414
322.183	16.533	835.925	632.443
323.197	16.628	835.675	632.555
324.212	16.487	834.879	631.368
325.227	16.445	834.583	630.934
326.241	16.455	834.141	630.578
327.256	16.426	833.605	630.011
328.270	16.452	832.907	629.525
329.285	16.413	832.329	628.886
330.300	16.539	831.660	628.794
331.314	16.602	831.007	628.479
332.329	16.631	830.501	628.147
333.343	16.747	830.170	628.271
334.358	16.717	829.933	627.925
335.373	16.548	829.404	626.845
336.387	16.676	829.280	627.170
337.402	16.733	828.950	627.075
338.416	16.928	828.606	627.479
339.431	16.873	828.378	627.048
340.446	16.912	827.848	626.735
341.460	17.018	827.372	626.712
342.475	16.894	827.101	625.993
343.489	17.023	826.581	626.023
344.504	17.042	826.270	625.802
345.519	17.220	825.592	625.888
346.533	17.000	825.284	624.788
347.548	17.083	824.416	624.382
348.562	16.934	823.928	623.410
349.577	16.959	822.995	622.739
350.592	16.945	822.509	622.264
351.606	16.830	821.792	621.247
352.621	16.983	821.138	621.257
353.635	17.005	820.873	621.081
354.650	16.970	819.936	620.189
355.665	17.226	819.006	620.366
356.679	16.997	819.339	619.729
357.694	17.065	818.428	619.232
358.708	17.270	817.406	619.151
359.723	17.081	817.057	618.142
360.738	17.120	816.625	617.902
361.752	17.189	816.344	617.889
362.767	17.162	815.386	617.008
363.781	17.212	815.245	617.029
364.796	17.228	814.887	616.763
365.810	17.373	814.359	616.833
366.825	17.566	813.704	616.984
367.840	17.369	813.495	616.055
368.854	17.266	813.385	615.544
369.869	17.286	812.577	614.951
370.883	17.113	812.659	614.335
371.898	17.476	811.370	614.617
372.913	17.646	811.367	615.173
373.927	17.536	810.718	614.229
374.942	17.479	810.248	613.612
375.956	17.553	809.929	613.586
376.971	17.697	809.652	613.838
377.986	17.688	809.090	613.326
379.000	17.698	808.864	613.137
380.015	17.595	808.092	612.127
381.029	17.767	807.537	612.269
382.044	17.844	806.926	612.027
383.059	17.727	806.358	611.125
384.073	17.740	805.745	610.653
385.088	17.661	805.368	610.028
386.102	17.546	804.721	609.073
387.117	17.593	804.179	608.778
388.132	17.613	803.538	608.308
389.146	17.571	803.141	607.807
390.161	17.622	802.796	607.675
391.175	17.692	802.120	607.357
392.190	17.711	802.043	607.311
393.205	17.667	801.091	606.381
394.219	17.645	800.821	606.047
395.234	17.532	800.773	605.553
396.248	17.464	800.147	604.784
397.263	17.354	800.071	604.283
398.278	17.603	799.368	604.583
399.292	17.594	798.802	604.068
400.307	17.474	798.237	603.162
401.321	17.686	797.763	603.501
402.336	17.623	797.423	602.968
403.350	17.698	796.988	602.853
404.365	17.599	796.876	602.362
405.380	17.811	796.028	602.416
406.394	17.982	795.343	602.449
407.409	17.930	795.197	602.100
408.423	18.057	794.782	602.182
409.438	17.963	794.618	601.672
410.453	17.987	794.377	601.523
411.467	18.003	794.022	601.257
412.482	17.995	793.615	600.867
413.496	18.246	792.600	600.926
414.511	18.172	792.421	600.478
415.526	18.262	792.122	600.513
416.540	18.165	791.680	599.784
417.555	18.099	791.394	599.286
418.569	18.071	790.691	598.602
419.584	18.183	790.269	598.622
420.599	18.188	789.919	598.320
421.613	156.612	1369.908	1795.808
422.628	135.480	1454.417	1795.920
