DTS Sentinel unit serial number:	SN413079Multiplexer serial number:	ORYXHardware model number:	OX4-SRSoftware version number:	ORYX F/W v4.00 Oryx Data Collector v3.7.2.0data status	okinstallation	princeton_trtdifferential loss correction	single-endedforward channel	channel 1reverse channel	N/Adate	2019/09/12time	03:56:11forward acquisition time	60.00reverse acquisition time	0.00gamma	496.2192k internal	0.2322k external	0.2322temperature offset calibration	1.0083default loss term (dB/km)	0.3790temperature slope calibration	1.0000multiplexer offset coefficient	1.0000multiplexer slope coefficient	1.0000fibre end	0.00T internal ref (°C)	32.12T ext. ref 1 (°C)	2.16T ext. ref 2 (°C)	25.78length (m)	temperature (°C)	Stokes	anti-Stokes-747.200	-200.000	-0.019	0.286
-746.185	-68.434	0.334	0.131
-745.171	800.000	-0.069	0.222
-744.156	-200.000	0.004	-0.075
-743.142	800.000	0.065	-0.243
-742.127	-131.273	0.099	-0.013
-741.112	147.677	-0.050	-0.069
-740.098	490.751	0.072	0.168
-739.083	192.790	0.225	-0.343
-738.069	-12.459	0.083	-0.055
-737.054	188.951	0.047	-0.071
-736.039	-200.000	-0.008	0.140
-735.025	166.930	0.117	-0.167
-734.010	14.332	-0.103	-0.081
-732.996	387.226	-0.173	-0.361
-731.981	-65.281	-0.232	-0.094
-730.966	5.249	0.103	-0.077
-729.952	-172.133	-0.033	-0.001
-728.937	-200.000	-0.001	-0.074
-727.923	48.803	0.182	0.172
-726.908	328.237	-0.101	-0.197
-725.894	95.890	0.023	-0.027
-724.879	-96.403	0.225	-0.060
-723.864	153.363	0.219	-0.303
-722.850	-66.262	-0.198	-0.080
-721.835	-35.035	-0.041	0.022
-720.821	-200.000	0.053	-0.312
-719.806	800.000	0.043	0.153
-718.791	-180.409	-0.159	-0.003
-717.777	800.000	-0.119	-0.472
-716.762	146.243	-0.076	-0.102
-715.748	-160.245	-0.031	-0.002
-714.733	142.776	-0.097	-0.131
-713.718	-200.000	0.039	0.301
-712.704	-75.633	-0.156	-0.056
-711.689	49.749	0.323	0.307
-710.675	800.000	-0.074	-0.215
-709.660	128.878	0.263	-0.338
-708.645	-104.977	0.077	0.018
-707.631	-53.541	0.244	-0.113
-706.616	-152.053	0.199	-0.015
-705.602	-117.156	0.165	0.030
-704.587	-200.000	-0.001	-0.081
-703.572	57.890	0.128	-0.127
-702.558	-175.391	-0.315	0.009
-701.543	464.796	-0.076	-0.172
-700.529	78.747	0.087	0.094
-699.514	127.770	-0.159	0.204
-698.499	34.833	0.174	0.153
-697.485	285.042	0.139	-0.253
-696.470	-20.995	-0.094	0.058
-695.456	117.180	0.162	0.201
-694.441	-141.028	0.189	0.020
-693.426	-79.617	0.155	-0.053
-692.412	-200.000	0.037	0.408
-691.397	-103.161	0.085	0.020
-690.383	274.959	-0.138	-0.247
-689.368	800.000	0.080	0.347
-688.354	-2.691	0.255	-0.180
-687.339	-117.110	0.398	0.073
-686.324	-50.106	0.228	0.109
-685.310	800.000	-0.095	0.338
-684.295	166.383	0.048	0.068
-683.281	-200.000	-0.034	0.203
-682.266	487.168	-0.174	-0.400
-681.251	6.553	0.132	0.099
-680.237	108.277	-0.075	-0.090
-679.222	-168.025	-0.359	-0.014
-678.208	106.012	0.142	0.170
-677.193	38.799	0.226	0.203
-676.178	148.633	-0.133	0.181
-675.164	535.951	0.116	-0.278
-674.149	-107.226	-0.162	0.036
-673.135	534.690	0.120	-0.286
-672.120	-18.898	0.228	-0.143
-671.105	-79.940	0.182	0.062
-670.091	605.055	-0.038	-0.094
-669.076	-1.948	-0.154	0.109
-668.062	168.225	0.190	0.273
-667.047	-64.759	0.321	-0.131
-666.032	800.000	-0.097	-0.294
-665.018	25.684	-0.211	-0.177
-664.003	-27.389	0.170	-0.099
-662.989	-67.210	-0.192	-0.076
-661.974	247.397	-0.086	-0.146
-660.959	-99.173	-0.103	0.026
-659.945	125.605	-0.132	0.168
-658.930	235.530	-0.099	-0.165
-657.916	75.271	-0.179	-0.190
-656.901	487.679	-0.153	-0.351
-655.886	-200.000	0.058	-0.326
-654.872	44.686	-0.177	-0.164
-653.857	2.098	-0.180	-0.131
-652.843	-200.000	0.040	-0.266
-651.828	-144.879	0.238	0.022
-650.814	226.490	0.106	-0.174
-649.799	-200.000	-0.001	-0.370
-648.784	-90.433	-0.120	0.035
-647.770	-137.750	0.275	0.031
-646.755	-1.111	-0.099	0.071
-645.741	-29.755	0.051	-0.029
-644.726	9.437	-0.153	-0.117
-643.711	15.815	0.155	-0.123
-642.697	-0.316	0.337	0.241
-641.682	-79.565	-0.174	-0.059
-640.668	34.315	-0.246	-0.216
-639.653	-200.000	0.021	-0.161
-638.638	100.060	0.086	0.100
-637.624	38.557	-0.273	0.245
-636.609	247.394	-0.086	-0.146
-635.595	-39.690	-0.188	0.099
-634.580	800.000	0.054	0.177
-633.565	-84.737	-0.258	-0.082
-632.551	-105.645	-0.449	-0.102
-631.536	800.000	-0.068	-0.275
-630.522	85.911	0.081	-0.089
-629.507	80.154	-0.092	0.100
-628.492	800.000	-0.131	-0.390
-627.478	-3.764	0.408	-0.285
-626.463	47.020	0.149	-0.140
-625.449	-103.079	-0.202	-0.048
-624.434	-87.857	0.120	-0.036
-623.419	357.483	0.140	0.281
-622.405	800.000	-0.113	0.458
-621.390	-200.000	-0.015	0.099
-620.376	56.809	0.183	0.179
-619.361	-200.000	-0.022	0.108
-618.346	199.221	-0.029	0.045
-617.332	-76.912	-0.156	0.055
-616.317	-97.659	-0.221	0.058
-615.303	-53.222	-0.128	0.059
-614.288	-4.005	-0.088	-0.062
-613.273	137.285	-0.124	-0.163
-612.259	-200.000	0.052	-0.272
-611.244	-187.298	0.104	0.001
-610.230	-200.000	-0.021	-0.274
-609.215	125.249	-0.160	-0.203
-608.201	-27.428	-0.123	0.072
-607.186	113.972	-0.109	0.134
-606.171	-95.192	-0.217	-0.059
-605.157	-150.657	0.315	-0.024
-604.142	-200.000	-0.027	-0.135
-603.128	-10.782	-0.190	-0.126
-602.113	127.105	0.111	-0.141
-601.098	141.997	-0.097	0.130
-600.084	-51.884	0.122	-0.057
-599.069	-88.143	-0.353	-0.106
-598.055	-200.000	-0.016	0.121
-597.040	800.000	-0.047	-0.198
-596.025	486.463	-0.142	-0.325
-595.011	-173.752	-0.320	-0.010
-593.996	66.211	0.224	-0.228
-592.982	-15.644	0.122	0.078
-591.967	174.866	-0.134	0.194
-590.952	-200.000	0.040	0.184
-589.938	-63.391	0.115	0.048
-588.923	121.319	0.262	-0.328
-587.909	677.903	-0.097	-0.255
-586.894	-200.000	-0.043	0.239
-585.879	225.367	-0.052	0.085
-584.865	-200.000	-0.029	0.242
-583.850	364.328	0.058	-0.117
-582.836	-140.122	-0.363	-0.038
-581.821	121.245	-0.162	0.203
-580.806	3.649	0.186	0.136
-579.792	94.509	-0.159	-0.181
-578.777	48.012	-0.075	0.070
-577.763	-200.000	-0.016	-0.127
-576.748	-200.000	0.022	0.142
-575.733	16.276	0.407	0.322
-574.719	398.088	0.038	-0.080
-573.704	800.000	-0.042	0.183
-572.690	95.359	0.237	-0.271
-571.675	98.058	-0.076	0.088
-570.661	-80.453	-0.296	0.099
-569.646	70.175	0.211	0.218
-568.631	800.000	-0.088	0.316
-567.617	-72.139	-0.243	0.091
-566.602	75.974	-0.125	-0.133
-565.588	-200.000	0.018	0.210
-564.573	-100.099	0.246	-0.061
-563.558	87.039	0.208	-0.230
-562.544	41.531	-0.178	0.162
-561.529	8.967	0.277	0.210
-560.515	412.683	0.038	-0.081
-559.500	-121.921	-0.287	-0.047
-558.485	-179.886	0.239	0.005
-557.471	32.408	0.245	-0.213
-556.456	-86.729	0.444	0.136
-555.442	-61.034	0.234	-0.099
-554.427	-31.307	-0.100	-0.056
-553.412	-49.771	-0.119	0.057
-552.398	-127.078	-0.227	-0.033
-551.383	98.125	0.291	-0.336
-550.369	324.542	0.113	-0.216
-549.354	-69.404	-0.334	-0.129
-548.339	517.282	-0.036	-0.085
-547.325	800.000	0.046	-0.130
-546.310	-71.106	-0.135	-0.051
-545.296	-15.548	-0.330	-0.211
-544.281	94.469	0.060	-0.068
-543.266	-147.942	-0.154	0.013
-542.252	-146.127	-0.288	-0.025
-541.237	-90.593	0.394	-0.114
-540.223	-152.826	-0.340	0.024
-539.208	-200.000	0.023	0.364
-538.193	800.000	-0.066	-0.234
-537.179	-189.685	-0.177	0.002
-536.164	-75.867	0.324	-0.115
-535.150	34.144	-0.096	-0.084
-534.135	364.876	0.117	0.237
-533.121	-79.319	0.129	0.044
-532.106	86.618	-0.121	0.134
-531.091	-4.233	-0.164	-0.113
-530.077	74.766	-0.155	0.163
-529.062	69.121	0.134	-0.138
-528.048	-200.000	0.023	-0.203
-527.033	38.857	0.104	-0.093
-526.018	-21.298	-0.234	0.143
-525.004	188.321	0.105	0.157
-523.989	493.731	0.097	0.223
-522.975	-150.528	0.372	-0.029
-521.960	-200.000	-0.008	0.420
-520.945	41.010	-0.099	-0.089
-519.931	-28.108	-0.377	-0.218
-518.916	-200.000	0.024	0.146
-517.902	581.045	0.064	-0.157
-516.887	-55.485	-0.158	0.071
-515.872	-69.138	0.108	0.041
-514.858	-49.613	-0.033	0.016
-513.843	800.000	-0.048	-0.186
-512.829	150.624	-0.175	0.238
-511.814	-110.260	0.194	-0.040
-510.799	2.489	0.209	0.152
-509.785	258.141	-0.074	-0.128
-508.770	800.000	-0.081	-0.255
-507.756	-21.334	-0.379	0.232
-506.741	800.000	-0.028	0.116
-505.726	56.600	0.114	-0.111
-504.712	800.000	0.072	-0.260
-503.697	-84.363	-0.391	0.124
-502.683	224.753	-0.061	-0.099
-501.668	-45.640	-0.214	-0.106
-500.653	-200.000	-0.058	-0.271
-499.639	49.403	0.112	-0.105
-498.624	-75.917	-0.033	-0.012
-497.610	-115.535	0.190	-0.036
-496.595	214.676	0.163	-0.258
-495.581	-85.069	0.405	-0.127
-494.566	224.655	-0.112	0.181
-493.551	-49.620	0.204	-0.097
-492.537	800.000	0.050	-0.140
-491.522	-200.000	-0.004	0.026
-490.508	0.053	-0.262	-0.187
-489.493	146.346	0.154	0.206
-488.478	77.673	-0.088	0.094
-487.464	-97.904	-0.317	0.082
-486.449	-40.911	0.279	-0.144
-485.435	800.000	0.054	-0.161
-484.420	-37.961	0.126	-0.067
-483.405	-73.583	-0.096	-0.035
-482.391	-200.000	0.058	0.415
-481.376	-97.559	0.217	-0.056
-480.362	280.105	-0.062	-0.110
-479.347	800.000	-0.079	-0.233
-478.332	230.691	0.110	0.180
-477.318	349.719	-0.065	-0.129
-476.303	344.351	0.092	0.180
-475.289	-7.565	0.313	0.211
-474.274	86.116	0.152	-0.167
-473.259	-106.547	0.269	0.060
-472.245	-71.575	0.045	-0.017
-471.230	-87.190	0.080	0.024
-470.216	-75.725	-0.301	0.107
-469.201	-138.234	0.261	-0.029
-468.186	-87.341	-0.027	0.008
-467.172	-100.801	0.274	0.067
-466.157	216.720	0.130	0.207
-465.143	-165.135	-0.035	0.002
-464.128	800.000	0.011	0.048
-463.113	36.111	-0.087	0.076
-462.099	-44.292	-0.229	0.115
-461.084	54.662	-0.079	-0.076
-460.070	237.045	-0.107	-0.177
-459.055	162.188	0.220	-0.308
-458.040	273.018	-0.063	0.111
-457.026	614.524	0.072	-0.179
-456.011	-2.405	0.176	0.123
-454.997	468.993	0.091	0.205
-453.982	-28.793	0.201	-0.115
-452.968	-85.840	0.164	-0.051
-451.953	-200.000	0.013	0.103
-450.938	-101.970	-0.359	-0.087
-449.924	800.000	-0.116	-0.381
-448.909	-200.000	0.024	-0.322
-447.895	-171.013	0.287	0.010
-446.880	-200.000	0.008	0.059
-445.865	650.404	0.082	0.211
-444.851	-145.430	-0.272	0.024
-443.836	208.343	0.178	-0.278
-442.822	-19.595	-0.203	-0.125
-441.807	-200.000	-0.021	0.399
-440.792	-4.320	0.197	0.136
-439.778	426.142	-0.102	0.219
-438.763	-200.000	0.020	-0.169
-437.749	99.788	0.092	0.106
-436.734	800.000	0.063	0.271
-435.719	109.991	0.127	0.152
-434.705	-200.000	-0.065	-0.301
-433.690	239.112	0.048	-0.080
-432.676	-200.000	0.004	0.060
-431.661	123.853	0.277	0.347
-430.646	-35.448	-0.153	-0.083
-429.632	-189.453	-0.220	-0.003
-428.617	800.000	0.023	0.096
-427.603	119.590	-0.048	0.060
-426.588	-200.000	-0.000	0.076
-425.573	392.458	-0.041	-0.085
-424.559	280.344	0.068	-0.122
-423.544	-88.156	0.109	-0.033
-422.530	42.617	0.223	-0.203
-421.515	800.000	-0.041	0.125
-420.500	77.081	-0.328	0.348
-419.486	271.724	0.122	-0.214
-418.471	778.481	-0.027	0.075
-417.457	17.968	-0.115	0.092
-416.442	-200.000	-0.029	0.148
-415.428	150.458	-0.090	0.122
-414.413	111.538	-0.091	0.110
-413.398	272.479	0.100	-0.177
-412.384	113.811	0.068	-0.082
-411.369	-62.092	-0.373	0.155
-410.355	-162.484	0.131	-0.006
-409.340	59.477	-0.180	-0.177
-408.325	334.373	-0.090	-0.173
-407.311	73.897	-0.061	0.064
-406.296	772.888	0.194	0.528
-405.282	142.796	0.010	0.014
-404.267	220.538	0.122	0.195
-403.252	68.195	-0.240	0.245
-402.238	-69.887	-0.142	0.054
-401.223	-35.919	-0.167	0.090
-400.209	127.607	-0.178	-0.225
-399.194	15.760	0.284	0.223
-398.179	317.063	0.100	-0.189
-397.165	-77.009	0.267	0.093
-396.150	-74.894	0.172	-0.062
-395.136	-200.000	-0.065	0.302
-394.121	-183.809	0.232	-0.004
-393.106	-200.000	0.028	-0.343
-392.092	-65.256	-0.253	-0.102
-391.077	-141.561	0.490	-0.049
-390.063	-129.623	0.252	0.035
-389.048	46.862	-0.258	-0.239
-388.033	96.712	-0.135	-0.154
-387.019	8.083	0.418	-0.313
-386.004	-72.492	0.334	0.123
-384.990	800.000	-0.072	-0.273
-383.975	-150.858	-0.318	0.024
-382.960	-200.000	0.054	0.292
-381.946	117.966	0.124	0.152
-380.931	124.525	-0.132	0.165
-379.917	-200.000	0.002	-0.054
-378.902	-8.481	0.061	-0.041
-377.888	-200.000	0.078	0.422
-376.873	639.885	-0.102	0.259
-375.858	-147.821	0.323	-0.027
-374.844	-107.196	-0.036	0.008
-373.829	-200.000	0.028	-0.466
-372.815	-164.021	0.197	-0.009
-371.800	800.000	0.063	0.232
-370.785	-134.637	0.381	0.046
-369.771	-85.469	-0.272	-0.084
-368.756	102.065	0.201	0.234
-367.742	-200.000	0.031	0.229
-366.727	-134.169	-0.377	0.046
-365.712	-58.298	0.275	-0.119
-364.698	-33.631	-0.214	0.118
-363.683	43.724	-0.229	-0.209
-362.669	775.756	0.055	0.149
-361.654	-120.250	0.031	0.005
-360.639	376.709	0.097	0.198
-359.625	-200.000	0.040	0.312
-358.610	275.565	0.064	-0.113
-357.596	-112.773	-0.311	0.061
-356.581	-155.560	0.158	-0.010
-355.566	-200.000	0.034	-0.181
-354.552	-200.000	-0.011	-0.110
-353.537	-56.395	-0.131	0.058
-352.523	-39.925	-0.213	0.111
-351.508	-41.528	-0.310	-0.159
-350.493	-16.560	0.127	0.080
-349.479	-7.478	0.070	-0.047
-348.464	302.593	0.057	-0.105
-347.450	237.578	-0.159	-0.263
-346.435	800.000	0.074	0.254
-345.420	56.485	0.186	0.180
-344.406	718.026	0.087	0.231
-343.391	410.749	0.128	0.271
-342.377	16.475	0.092	-0.072
-341.362	800.000	0.024	0.086
-340.348	740.627	-0.073	0.195
-339.333	-105.075	0.456	0.104
-338.318	17.626	-0.342	-0.270
-337.304	300.606	0.114	-0.210
-336.289	50.882	-0.054	0.051
-335.275	-200.000	0.015	0.120
-334.260	-10.943	0.116	-0.076
-333.245	357.213	0.097	0.191
-332.231	-66.128	0.357	0.142
-331.216	800.000	0.058	-0.232
-330.202	-67.149	-0.403	-0.158
-329.187	-200.000	0.002	0.263
-328.172	70.495	-0.175	0.180
-327.158	5.779	0.120	0.089
-326.143	573.152	-0.062	0.151
-325.129	182.265	-0.093	0.136
-324.114	-76.084	0.292	0.103
-323.099	800.000	-0.032	-0.114
-322.085	653.315	0.132	0.337
-321.070	-50.114	-0.305	0.144
-320.056	-154.578	0.091	0.006
-319.041	-191.742	-0.084	0.001
-318.026	330.304	-0.133	0.255
-317.012	97.219	-0.019	0.022
-315.997	218.968	0.101	-0.160
-314.983	-87.253	-0.084	0.025
-313.968	-76.360	-0.092	0.032
-312.953	800.000	-0.045	-0.123
-311.939	-13.133	0.088	0.057
-310.924	-92.698	0.251	0.070
-309.910	404.907	-0.139	0.292
-308.895	150.408	-0.137	0.185
-307.880	117.415	0.217	0.265
-306.866	74.655	0.209	0.218
-305.851	311.663	-0.028	0.052
-304.837	106.637	-0.285	0.335
-303.822	-86.582	0.189	-0.058
-302.807	-200.000	0.045	0.317
-301.793	93.138	0.109	0.123
-300.778	-48.601	-0.147	-0.070
-299.764	506.358	-0.047	0.108
-298.749	-92.380	0.239	-0.067
-297.735	-200.000	-0.095	0.416
-296.720	-190.267	-0.252	0.003
-295.705	181.831	-0.178	-0.261
-294.691	-112.258	0.139	-0.028
-293.676	201.244	-0.215	-0.329
-292.662	253.244	0.187	0.317
-291.647	175.927	0.166	0.238
-290.632	-200.000	0.069	0.388
-289.618	512.075	-0.175	0.404
-288.603	-185.783	0.156	0.002
-287.589	-90.087	-0.259	-0.075
-286.574	-113.393	-0.145	0.028
-285.559	-57.999	-0.180	-0.078
-284.545	77.593	-0.133	-0.141
-283.530	690.977	0.097	-0.252
-282.516	-21.851	0.372	-0.225
-281.501	-33.548	0.132	-0.072
-280.486	230.843	0.117	-0.191
-279.472	260.063	-0.181	-0.311
-278.457	-91.316	-0.331	0.094
-277.443	-130.740	-0.376	0.050
-276.428	-152.241	-0.371	0.027
-275.413	101.645	0.087	0.100
-274.399	-200.000	0.070	-0.403
-273.384	-177.421	0.224	0.005
-272.370	-128.579	0.143	-0.020
-271.355	52.572	0.059	-0.056
-270.340	506.269	-0.057	0.130
-269.326	-200.000	-0.021	-0.140
-268.311	43.252	0.083	0.075
-267.297	-200.000	0.010	-0.146
-266.282	91.013	0.035	0.039
-265.267	-115.295	0.120	-0.022
-264.253	-94.455	-0.138	0.037
-263.238	158.388	-0.151	-0.207
-262.224	-16.910	-0.173	-0.108
-261.209	-200.000	0.071	0.334
-260.195	310.502	0.084	0.156
-259.180	9.868	0.192	-0.144
-258.165	-200.000	-0.061	-0.330
-257.151	538.671	-0.097	-0.230
-256.136	-162.164	-0.411	-0.020
-255.122	-145.601	0.467	-0.041
-254.107	437.876	0.155	-0.335
-253.092	-91.928	-0.016	-0.004
-252.078	93.261	0.179	-0.201
-251.063	-200.000	0.095	-0.571
-250.049	240.796	-0.101	0.167
-249.034	420.835	-0.158	-0.337
-248.019	120.140	-0.068	-0.084
-247.005	559.984	-0.115	-0.276
-245.990	215.441	0.113	0.177
-244.976	800.000	-0.114	0.317
-243.961	800.000	-0.111	0.329
-242.946	112.015	0.149	0.179
-241.932	-77.797	-0.116	0.040
-240.917	82.673	-0.207	-0.223
-239.903	203.953	0.301	-0.462
-238.888	-200.000	-0.044	0.234
-237.873	117.902	0.168	0.205
-236.859	282.885	-0.227	0.404
-235.844	199.779	0.092	-0.140
-234.830	210.798	0.158	-0.247
-233.815	-121.442	-0.096	0.016
-232.800	-200.000	0.035	-0.289
-231.786	610.175	-0.045	-0.111
-230.771	-104.422	0.140	0.032
-229.757	795.347	0.081	0.220
-228.742	107.601	0.103	0.121
-227.727	-76.193	-0.152	0.053
-226.713	-137.137	0.127	0.014
-225.698	52.629	-0.198	-0.187
-224.684	-124.532	0.051	-0.008
-223.669	-27.111	0.139	0.080
-222.655	-92.233	0.260	0.073
-221.640	-101.313	0.083	-0.020
-220.625	85.440	-0.141	-0.153
-219.611	344.325	0.139	-0.269
-218.596	48.497	-0.295	-0.274
-217.582	-200.000	0.057	-0.422
-216.567	-99.590	-0.185	0.046
-215.552	-147.379	0.286	-0.024
-214.538	-44.392	0.361	-0.179
-213.523	66.288	0.092	0.093
-212.509	170.790	-0.145	-0.205
-211.494	-42.840	-0.173	0.087
-210.479	-121.101	-0.323	0.054
-209.465	-64.140	-0.088	-0.036
-208.450	-65.626	-0.337	-0.134
-207.436	194.619	0.075	-0.113
-206.421	-106.847	0.339	-0.074
-205.406	-25.722	-0.142	-0.083
-204.392	55.810	0.082	0.078
-203.377	107.568	0.100	-0.117
-202.363	-61.676	-0.152	0.063
-201.348	-119.403	-0.231	0.040
-200.333	-79.235	0.230	-0.077
-199.319	-152.312	0.211	-0.015
-198.304	-80.776	0.105	0.034
-197.290	14.857	-0.068	-0.053
-196.275	-152.433	-0.369	0.026
-195.260	-85.120	-0.223	-0.069
-194.246	371.670	-0.117	-0.234
-193.231	-20.466	0.392	-0.238
-192.217	800.000	0.063	0.254
-191.202	462.703	0.101	-0.222
-190.187	-132.577	-0.179	0.023
-189.173	569.165	-0.056	0.135
-188.158	211.587	0.146	-0.227
-187.144	768.343	0.061	0.164
-186.129	-68.649	-0.309	0.118
-185.114	800.000	0.073	0.288
-184.100	-74.830	0.331	-0.117
-183.085	800.000	0.087	-0.298
-182.071	208.903	0.072	0.111
-181.056	-63.155	0.198	-0.081
-180.042	66.698	-0.103	0.104
-179.027	4.264	0.082	-0.059
-178.012	-200.000	0.014	-0.384
-176.998	-57.225	0.155	0.068
-175.983	800.000	-0.069	-0.200
-174.969	109.061	-0.116	-0.137
-173.954	8.630	-0.219	0.163
-172.939	-51.154	-0.532	0.246
-171.925	742.508	-0.129	-0.343
-170.910	-200.000	-0.008	-0.131
-169.896	-200.000	0.051	0.460
-168.881	800.000	-0.093	0.264
-167.866	-157.278	0.319	-0.019
-166.852	-200.000	0.006	-0.219
-165.837	46.367	-0.269	-0.247
-164.823	-200.000	-0.041	-0.373
-163.808	800.000	0.028	0.093
-162.793	-53.937	-0.189	0.085
-161.779	-200.000	0.014	-0.262
-160.764	237.983	0.295	0.484
-159.750	-20.424	0.151	0.092
-158.735	463.860	0.157	0.346
-157.720	85.778	0.170	0.185
-156.706	800.000	0.065	0.199
-155.691	147.961	-0.130	-0.173
-154.677	-200.000	-0.043	0.218
-153.662	-26.160	-0.262	0.152
-152.647	-28.755	0.069	-0.039
-151.633	78.217	-0.052	0.055
-150.618	-200.000	0.009	-0.187
-149.604	-43.061	0.170	0.085
-148.589	-97.607	0.417	-0.107
-147.574	242.616	-0.032	-0.053
-146.560	-166.194	0.147	-0.006
-145.545	-111.630	-0.057	-0.011
-144.531	-86.405	0.100	0.030
-143.516	126.652	0.128	-0.160
-142.502	-178.190	-0.252	-0.006
-141.487	667.936	-0.093	0.237
-140.472	161.248	-0.111	0.153
-139.458	-200.000	0.004	-0.221
-138.443	605.143	-0.160	-0.392
-137.429	42.446	0.079	0.071
-136.414	130.788	0.149	-0.189
-135.399	-111.156	0.075	-0.015
-134.385	-51.833	-0.378	0.174
-133.370	-200.000	-0.024	0.169
-132.356	-182.477	-0.144	0.003
-131.341	-33.484	0.058	-0.032
-130.326	-25.008	0.040	-0.023
-129.312	800.000	-0.097	0.330
-128.297	-114.291	0.032	0.006
-127.283	-194.940	-0.053	0.000
-126.268	-164.673	0.242	0.011
-125.253	-141.797	0.328	-0.032
-124.239	800.000	-0.141	0.471
-123.224	-131.351	0.095	0.012
-122.210	800.000	0.055	0.200
-121.195	309.607	0.098	-0.181
-120.180	-127.376	0.103	-0.015
-119.166	701.605	-0.073	0.190
-118.151	800.000	0.045	-0.147
-117.137	-200.000	-0.083	-0.369
-116.122	-40.696	-0.172	0.088
-115.107	153.653	0.083	-0.112
-114.093	800.000	-0.103	-0.352
-113.078	-106.302	0.291	-0.064
-112.064	208.107	-0.070	-0.107
-111.049	117.715	0.089	0.108
-110.034	88.090	0.032	0.035
-109.020	-200.000	-0.010	0.098
-108.005	343.358	-0.105	-0.203
-106.991	100.636	-0.200	-0.229
-105.976	-200.000	0.038	0.175
-104.962	-200.000	-0.004	-0.189
-103.947	800.000	0.044	0.123
-102.932	161.688	0.065	-0.089
-101.918	76.770	0.189	-0.198
-100.903	10.781	-0.070	-0.052
-99.889	-90.499	-0.017	0.005
-98.874	-83.430	0.169	-0.053
-97.859	13.515	0.066	-0.050
-96.845	776.838	-0.038	0.103
-95.830	800.000	-0.049	-0.177
-94.816	127.604	-0.109	0.136
-93.801	46.254	0.068	0.062
-92.786	-200.000	0.053	0.280
-91.772	-179.449	0.264	-0.006
-90.757	0.990	-0.139	-0.098
-89.743	-15.634	0.155	-0.098
-88.728	399.922	-0.134	0.276
-87.713	-92.384	-0.325	0.090
-86.699	-104.778	-0.205	-0.046
-85.684	233.965	0.164	-0.266
-84.670	10.903	-0.133	0.100
-83.655	-119.708	0.304	0.052
-82.640	92.219	-0.128	-0.142
-81.626	-6.688	0.312	-0.209
-80.611	-107.325	-0.307	-0.066
-79.597	-200.000	-0.014	0.146
-78.582	-150.076	0.228	0.017
-77.567	-157.132	0.090	-0.005
-76.553	-126.733	0.292	-0.042
-75.538	-200.000	0.104	-0.460
-74.524	253.866	0.023	0.038
-73.509	-53.780	-0.149	-0.067
-72.494	-31.923	0.052	0.029
-71.480	47.162	-0.276	0.253
-70.465	365.208	0.117	-0.232
-69.451	-67.189	-0.221	0.086
-68.436	800.000	-0.035	-0.136
-67.422	-42.182	0.306	-0.154
-66.407	-129.681	0.302	-0.041
-65.392	-200.000	-0.005	0.061
-64.378	-200.000	0.010	-0.119
-63.363	-128.508	-0.233	-0.033
-62.349	-91.196	-0.184	0.052
-61.334	59.121	-0.930	-0.901
-60.319	-32.729	0.431	0.236
-59.305	800.000	-0.255	-0.922
-58.290	86.940	0.792	0.861
-57.276	800.000	0.615	1.685
-56.261	-200.000	95.788	599.170
-55.246	571.884	1364.193	3268.130
-54.232	162.916	2538.731	3506.266
-53.217	113.966	2134.333	2552.599
-52.203	44.006	1599.648	1441.882
-51.188	35.697	1338.274	1156.514
-50.173	32.385	1296.726	1101.219
-49.159	54.581	1344.022	1274.044
-48.144	57.015	1360.462	1304.053
-47.130	35.789	1319.105	1140.312
-46.115	32.285	1302.128	1105.043
-45.100	32.150	1296.985	1099.847
-44.086	31.967	1294.976	1097.027
-43.071	32.010	1292.134	1094.826
-42.057	31.996	1290.275	1093.130
-41.042	31.970	1288.483	1091.412
-40.027	32.042	1286.935	1090.475
-39.013	32.051	1285.011	1088.858
-37.998	32.129	1282.787	1087.380
-36.984	32.037	1281.291	1085.535
-35.969	32.141	1279.526	1084.600
-34.954	32.302	1277.863	1084.073
-33.940	32.101	1276.786	1081.960
-32.925	32.307	1275.274	1081.819
-31.911	32.254	1273.654	1080.103
-30.896	32.295	1271.980	1078.875
-29.881	32.226	1270.972	1077.581
-28.867	32.375	1268.959	1076.684
-27.852	32.255	1267.658	1074.848
-26.838	32.389	1266.395	1074.505
-25.823	32.184	1265.655	1072.659
-24.809	32.242	1264.259	1071.766
-23.794	32.127	1262.947	1069.956
-22.779	32.213	1261.417	1069.109
-21.765	32.132	1260.820	1068.097
-20.750	32.219	1258.868	1066.895
-19.736	32.172	1257.481	1065.410
-18.721	32.116	1256.592	1064.297
-17.706	32.015	1256.219	1063.366
-16.692	32.087	1254.465	1062.251
-15.677	32.071	1253.047	1060.916
-14.663	32.065	1252.156	1060.083
-13.648	32.011	1251.218	1058.944
-12.633	32.079	1249.978	1058.239
-11.619	31.982	1249.636	1057.359
-10.604	32.083	1248.520	1056.939
-9.590	31.942	1247.735	1055.442
-8.575	31.963	1246.309	1054.312
-7.560	31.936	1245.601	1053.516
-6.546	31.994	1244.293	1052.696
-5.531	31.987	1243.777	1052.177
-4.517	31.998	1242.813	1051.381
-3.502	32.084	1242.272	1051.366
-2.487	32.115	1241.179	1050.572
-1.473	32.031	1236.678	1046.249
-0.458	30.507	1221.739	1025.170
0.556	27.585	1204.363	988.006
1.571	24.274	1210.450	974.837
2.586	23.553	1226.033	983.305
3.600	23.106	1215.320	972.172
4.615	17.059	1143.015	882.894
5.629	7.036	1066.004	774.484
6.644	2.454	1045.527	737.499
7.659	2.181	1043.054	734.381
8.673	2.045	1041.574	732.618
9.688	1.951	1040.274	731.192
10.702	2.518	1039.195	733.080
11.717	9.291	1048.728	772.372
12.731	19.270	1062.703	830.948
13.746	24.328	1068.532	859.888
14.761	25.345	1070.017	865.918
15.775	25.397	1069.758	865.882
16.790	25.232	1068.607	864.079
17.804	25.131	1068.181	863.172
18.819	25.108	1067.790	862.666
19.834	25.486	1067.227	863.952
20.848	25.541	1066.810	863.805
21.863	25.475	1066.310	863.006
22.877	25.373	1065.510	861.793
23.892	25.376	1064.674	861.055
24.907	25.322	1064.902	860.906
25.921	25.349	1062.913	859.347
26.936	25.291	1062.040	858.288
27.950	25.374	1060.204	857.127
28.965	25.307	1058.368	855.246
29.980	25.285	1057.073	854.021
30.994	25.489	1056.154	854.172
32.009	25.364	1055.051	852.610
33.023	25.282	1053.612	850.983
34.038	25.324	1053.354	850.898
35.053	25.514	1052.467	851.009
36.067	25.365	1051.887	849.756
37.082	25.449	1050.950	849.320
38.096	25.622	1050.422	849.640
39.111	25.748	1049.559	849.459
40.126	25.505	1047.900	846.899
41.140	25.171	1046.726	844.300
42.155	24.969	1045.533	842.314
43.169	25.060	1044.069	841.487
44.184	25.055	1043.254	840.735
45.199	24.879	1042.504	839.228
46.213	24.942	1041.456	838.605
47.228	25.325	1040.533	839.579
48.242	25.293	1040.126	839.028
49.257	25.360	1039.054	838.403
50.271	25.399	1038.696	838.220
51.286	25.422	1037.890	837.601
52.301	25.497	1036.656	836.882
53.315	25.473	1035.728	835.950
54.330	25.252	1034.954	834.220
55.344	25.418	1034.206	834.315
56.359	25.381	1032.923	833.036
57.374	25.167	1032.292	831.460
58.388	25.162	1031.456	830.690
59.403	24.931	1030.882	829.087
60.417	24.967	1029.722	828.247
61.432	25.069	1029.082	828.129
62.447	25.199	1028.676	828.331
63.461	25.254	1027.499	827.561
64.476	25.166	1026.872	826.580
65.490	24.982	1026.071	825.012
66.505	25.133	1025.490	825.170
67.520	25.094	1024.887	824.428
68.534	24.800	1023.912	822.224
69.549	24.578	1022.989	820.388
70.563	24.529	1022.346	819.574
71.578	24.673	1021.007	819.089
72.593	24.488	1020.428	817.705
73.607	24.617	1019.809	817.727
74.622	24.868	1019.661	818.685
75.636	24.866	1018.944	818.030
76.651	24.880	1017.705	817.023
77.666	24.715	1017.242	815.825
78.680	24.902	1016.263	815.822
79.695	24.878	1016.479	815.815
80.709	25.046	1015.344	815.596
81.724	24.973	1014.343	814.388
82.739	25.056	1013.538	814.047
83.753	25.490	1013.304	815.759
84.768	25.669	1012.823	816.108
85.782	25.844	1011.745	815.963
86.797	25.499	1011.406	814.052
87.812	25.518	1010.025	812.955
88.826	25.436	1008.800	811.528
89.841	25.697	1007.873	811.887
90.855	25.756	1006.773	811.196
91.870	25.733	1006.083	810.464
92.884	25.536	1004.626	808.334
93.899	25.531	1003.953	807.697
94.914	25.569	1003.522	807.450
95.928	25.432	1002.272	805.760
96.943	25.183	1000.797	803.387
97.957	24.990	999.784	801.637
98.972	24.804	998.847	799.986
99.987	25.241	998.094	801.261
101.001	25.345	997.497	801.174
102.016	25.289	996.940	800.406
103.030	25.208	996.445	799.578
104.045	25.024	994.871	797.428
105.060	24.871	994.495	796.373
106.074	25.218	993.170	796.784
107.089	25.435	992.749	797.338
108.103	25.296	991.687	795.799
109.118	25.204	990.035	793.998
110.133	25.230	989.483	793.598
111.147	24.770	988.613	790.797
112.162	24.800	987.228	789.749
113.176	25.138	986.736	790.780
114.191	24.978	985.752	789.215
115.206	24.626	984.839	786.863
116.220	24.769	984.146	786.871
117.235	24.913	983.070	786.574
118.249	24.787	982.082	785.162
119.264	24.655	981.935	784.395
120.279	24.932	980.754	784.596
121.293	24.813	980.027	783.422
122.308	24.773	979.552	782.800
123.322	24.830	977.910	781.667
124.337	24.560	976.994	779.687
125.352	24.200	975.364	776.750
126.366	24.007	974.851	775.432
127.381	24.927	974.444	779.041
128.395	25.282	974.194	780.315
129.410	25.526	972.988	780.342
130.424	25.364	972.388	779.090
131.439	25.280	971.566	777.999
132.454	25.199	970.407	776.648
133.468	25.296	969.320	776.129
134.483	25.365	969.004	776.105
135.497	25.664	967.891	776.436
136.512	25.476	967.284	775.071
137.527	25.605	966.302	774.771
138.541	25.633	965.701	774.342
139.556	25.471	965.020	773.031
140.570	25.664	964.024	772.991
141.585	25.698	963.156	772.376
142.600	25.515	961.936	770.542
143.614	25.648	961.721	770.873
144.629	25.850	960.876	770.992
145.643	25.708	959.648	769.333
146.658	25.687	958.003	767.856
147.673	25.431	957.280	766.117
148.687	25.494	955.764	765.105
149.702	25.295	955.351	763.857
150.716	25.208	954.283	762.569
151.731	25.506	953.528	763.160
152.746	25.704	952.914	763.443
153.760	25.745	952.669	763.351
154.775	25.814	951.996	763.038
155.789	25.732	951.117	761.921
156.804	25.737	950.102	761.059
157.819	25.813	949.390	760.745
158.833	25.921	948.506	760.423
159.848	25.904	947.822	759.735
160.862	25.743	946.746	758.130
161.877	25.636	946.115	757.106
162.892	25.802	944.731	756.628
163.906	25.592	943.875	754.996
164.921	25.716	942.569	754.403
165.935	25.790	941.979	754.175
166.950	25.808	940.633	753.104
167.964	25.691	940.271	752.259
168.979	25.522	939.235	750.660
169.994	25.567	938.249	749.991
171.008	25.949	937.412	750.848
172.023	25.811	936.723	749.655
173.037	25.555	935.681	747.691
174.052	25.457	934.860	746.560
175.067	25.483	934.285	746.144
176.081	25.693	933.881	746.628
177.096	25.439	933.237	744.993
178.110	25.262	931.921	743.145
179.125	25.007	931.799	741.924
180.140	25.109	931.117	741.736
181.154	25.309	931.174	742.544
182.169	25.582	930.848	743.346
183.183	25.728	930.515	743.618
184.198	25.615	929.415	742.206
185.213	25.639	928.994	741.906
186.227	25.848	928.245	742.102
187.242	25.962	927.292	741.743
188.256	25.815	926.774	740.657
189.271	25.906	925.771	740.166
190.286	25.503	925.057	737.875
191.300	24.861	923.503	733.941
192.315	24.204	921.750	729.789
193.329	23.937	922.000	728.829
194.344	25.024	922.063	733.266
195.359	25.597	922.186	735.644
196.373	25.672	921.680	735.482
197.388	25.617	920.697	734.408
198.402	25.591	919.980	733.666
199.417	25.567	919.650	733.241
200.432	25.341	918.481	731.324
201.446	25.140	918.238	730.244
202.461	25.291	917.404	730.133
203.475	24.423	915.413	724.957
204.490	23.664	914.065	720.747
205.504	24.536	914.779	724.786
206.519	25.183	914.175	726.864
207.534	25.309	914.180	727.316
208.548	25.779	914.006	729.018
209.563	25.313	913.124	726.363
210.577	25.438	912.406	726.236
211.592	25.838	912.013	727.474
212.607	25.678	911.304	726.198
213.621	25.855	910.621	726.303
214.636	25.844	909.961	725.665
215.650	25.752	909.099	724.544
216.665	25.898	908.687	724.742
217.680	25.692	908.010	723.308
218.694	25.412	906.571	720.975
219.709	25.318	906.042	720.112
220.723	25.520	905.824	720.684
221.738	25.620	905.390	720.679
222.753	25.625	904.728	720.106
223.767	25.694	904.115	719.832
224.782	25.897	904.079	720.549
225.796	25.901	903.502	720.042
226.811	25.194	902.012	715.972
227.826	24.557	900.611	712.255
228.840	24.760	900.291	712.750
229.855	24.927	899.384	712.631
230.869	24.677	898.207	710.643
231.884	24.865	898.591	711.630
232.899	25.543	898.766	714.401
233.913	25.534	897.755	713.499
234.928	25.529	897.041	712.850
235.942	25.615	896.176	712.441
236.957	25.232	895.508	710.329
237.972	25.263	894.837	709.857
238.986	25.321	894.395	709.674
240.001	25.372	893.913	709.428
241.015	25.512	893.307	709.437
242.030	25.487	892.971	709.008
243.045	25.672	892.673	709.438
244.059	25.676	892.495	709.253
245.074	25.613	891.348	708.028
246.088	25.243	890.234	705.629
247.103	25.628	890.104	706.976
248.117	26.113	890.047	708.770
249.132	26.302	889.784	709.241
250.147	26.392	889.261	709.117
251.161	26.387	888.704	708.588
252.176	26.311	888.043	707.700
253.190	26.683	887.386	708.568
254.205	26.723	887.292	708.589
255.220	26.689	886.588	707.833
256.234	26.528	885.908	706.597
257.249	26.437	885.122	705.555
258.263	26.427	884.497	704.952
259.278	26.490	883.894	704.656
260.293	26.500	883.536	704.347
261.307	26.479	882.573	703.436
262.322	26.465	881.561	702.513
263.336	25.551	879.952	697.623
264.351	24.531	878.020	692.078
265.366	24.632	877.790	692.229
266.380	25.811	878.401	697.213
267.395	26.153	878.188	698.307
268.409	26.106	877.307	697.362
269.424	26.407	876.999	698.220
270.439	26.355	876.351	697.440
271.453	26.349	875.516	696.692
272.468	26.643	875.419	697.687
273.482	26.827	874.673	697.737
274.497	26.211	873.800	694.612
275.512	25.804	872.930	692.296
276.526	26.230	872.886	693.835
277.541	26.351	872.807	694.174
278.555	26.304	871.557	692.938
279.570	26.181	870.756	691.770
280.585	26.355	870.182	691.918
281.599	26.051	869.596	690.228
282.614	25.574	867.694	686.837
283.628	25.656	867.952	687.294
284.643	26.028	867.600	688.374
285.657	25.641	866.115	685.661
286.672	25.388	865.504	684.153
287.687	25.809	866.000	686.086
288.701	25.866	865.443	685.802
289.716	25.572	864.283	683.704
290.730	25.601	863.493	683.129
291.745	25.171	862.724	680.829
292.760	25.645	863.095	682.862
293.774	26.552	863.432	686.508
294.789	26.962	862.483	687.249
295.803	26.993	862.061	686.965
296.818	26.937	861.090	685.921
297.833	26.569	860.120	683.699
298.847	26.297	859.793	682.350
299.862	26.689	859.457	683.501
300.876	26.957	859.236	684.278
301.891	26.709	858.784	682.921
302.906	26.325	857.209	680.165
303.920	26.652	857.014	681.179
304.935	26.869	857.299	682.163
305.949	26.792	856.500	681.176
306.964	26.490	855.685	679.332
307.979	26.626	855.047	679.278
308.993	27.007	855.116	680.699
310.008	26.903	854.610	679.847
311.022	26.722	853.368	678.124
312.037	26.601	852.909	677.248
313.052	26.392	851.295	675.124
314.066	25.371	850.268	670.441
315.081	25.042	849.759	668.751
316.095	25.966	849.839	672.201
317.110	26.571	849.849	674.404
318.125	25.571	848.686	669.701
319.139	24.520	847.351	664.679
320.154	24.589	846.705	664.369
321.168	25.611	847.267	668.552
322.183	26.390	846.960	671.144
323.197	26.405	846.860	671.062
324.212	26.547	846.565	671.294
325.227	26.619	845.957	671.018
326.241	26.333	845.162	669.271
327.256	26.306	844.651	668.708
328.270	26.291	843.987	668.065
329.285	26.181	843.246	667.015
330.300	25.982	842.029	665.259
331.314	26.244	842.193	666.295
332.329	26.642	841.977	667.531
333.343	26.666	841.931	667.527
334.358	26.591	841.492	666.844
335.373	26.649	841.332	666.871
336.387	27.165	840.870	668.343
337.402	27.413	840.672	669.037
338.416	27.105	840.707	667.874
339.431	27.155	839.983	667.423
340.446	27.411	839.827	668.179
341.460	27.292	839.275	667.246
342.475	27.099	838.620	665.957
343.489	27.217	838.102	665.921
344.504	27.392	837.931	666.368
345.519	27.617	837.586	666.857
346.533	27.517	836.904	665.890
347.548	27.547	836.767	665.831
348.562	27.509	836.061	665.070
349.577	27.480	835.727	664.641
350.592	27.366	835.142	663.702
351.606	27.388	834.284	663.042
352.621	27.342	833.177	661.937
353.635	27.221	832.654	661.021
354.650	26.702	830.511	657.380
355.665	25.735	829.311	652.866
356.679	26.002	829.704	654.085
357.694	26.603	828.832	655.518
358.708	26.453	828.228	654.438
359.723	26.969	828.184	656.214
360.738	27.158	827.614	656.386
361.752	27.156	827.569	656.284
362.767	27.653	827.512	657.976
363.781	27.859	827.360	658.538
364.796	27.957	826.610	658.238
365.810	27.985	826.067	657.848
366.825	27.854	825.985	657.251
367.840	27.572	824.914	655.328
368.854	27.266	824.071	653.500
369.869	27.173	823.905	652.976
370.883	27.258	823.256	652.709
371.898	27.075	822.849	651.675
372.913	27.291	822.185	651.865
373.927	27.422	821.927	652.070
374.942	27.619	821.922	652.715
375.956	27.558	821.586	652.174
376.971	27.771	820.750	652.211
377.986	27.863	820.619	652.378
379.000	27.811	819.905	651.568
380.015	27.605	819.247	650.254
381.029	27.567	819.031	649.889
382.044	27.929	818.238	650.490
383.059	27.897	817.694	649.887
384.073	27.840	817.347	649.352
385.088	27.807	816.430	648.448
386.102	27.744	815.688	647.578
387.117	27.603	814.908	646.402
388.132	27.068	813.922	643.666
389.146	26.715	813.268	641.842
390.161	27.191	813.563	643.703
391.175	27.672	812.680	644.650
392.190	27.271	811.838	642.507
393.205	25.868	809.746	635.847
394.219	24.216	808.458	628.955
395.234	24.211	808.134	628.631
396.248	25.882	809.761	635.742
397.263	27.387	810.267	641.391
398.278	27.505	809.878	641.441
399.292	27.109	809.355	639.575
400.307	27.257	808.359	639.254
401.321	27.335	808.470	639.558
402.336	27.493	808.549	640.117
403.350	27.966	808.393	641.601
404.365	28.358	807.887	642.517
405.380	28.673	807.320	643.112
406.394	28.605	807.005	642.566
407.409	28.618	806.616	642.245
408.423	28.542	806.057	641.478
409.438	28.552	806.292	641.642
410.453	28.608	805.506	641.158
411.467	28.521	804.946	640.350
412.482	28.700	804.186	640.312
413.496	28.587	804.450	640.073
414.511	28.527	803.922	639.386
415.526	28.610	803.167	639.020
416.540	28.405	802.322	637.575
417.555	28.249	801.651	636.446
418.569	28.203	801.512	636.117
419.584	28.212	800.932	635.634
420.599	28.183	800.165	634.868
421.613	111.552	1286.454	1458.294
422.628	96.240	1357.326	1458.393
