DTS Sentinel unit serial number:	SN413079Multiplexer serial number:	ORYXHardware model number:	OX4-SRSoftware version number:	ORYX F/W v4.00 Oryx Data Collector v3.7.2.0data status	okinstallation	princeton_trtdifferential loss correction	single-endedforward channel	channel 1reverse channel	N/Adate	2019/09/12time	01:28:11forward acquisition time	60.00reverse acquisition time	0.00gamma	496.2192k internal	0.2320k external	0.2320temperature offset calibration	1.0075default loss term (dB/km)	0.3790temperature slope calibration	1.0000multiplexer offset coefficient	1.0000multiplexer slope coefficient	1.0000fibre end	0.00T internal ref (°C)	32.94T ext. ref 1 (°C)	2.10T ext. ref 2 (°C)	27.81length (m)	temperature (°C)	Stokes	anti-Stokes-747.200	334.075	0.099	0.194
-746.185	-200.000	0.031	0.431
-745.171	206.247	0.073	0.114
-744.156	-183.003	-0.301	-0.005
-743.142	47.910	0.191	0.180
-742.127	37.304	0.368	0.329
-741.112	83.993	-0.089	-0.098
-740.098	-200.000	0.274	-0.001
-739.083	-11.016	-0.202	0.135
-738.069	-200.000	-0.004	-0.109
-737.054	12.475	-0.229	0.178
-736.039	-121.048	-0.176	-0.030
-735.025	-200.000	0.021	0.165
-734.010	-50.504	0.144	-0.069
-732.996	-41.492	-0.104	-0.054
-731.981	-67.041	0.302	0.120
-730.966	8.893	-0.056	0.043
-729.952	333.300	-0.080	0.157
-728.937	-74.713	-0.258	0.094
-727.923	-30.355	-0.185	-0.106
-726.908	254.720	-0.220	0.381
-725.894	-200.000	-0.013	0.292
-724.879	-200.000	-0.026	0.164
-723.864	-40.643	-0.152	-0.080
-722.850	502.020	-0.080	-0.186
-721.835	-102.049	-0.222	0.054
-720.821	-75.950	-0.076	-0.027
-719.806	31.591	0.227	-0.197
-718.791	171.426	-0.172	0.250
-717.777	-117.220	0.361	0.066
-716.762	15.150	-0.014	0.011
-715.748	34.552	0.312	-0.276
-714.733	-75.916	0.344	-0.123
-713.718	-200.000	-0.040	0.328
-712.704	-101.501	-0.025	-0.006
-711.689	800.000	0.042	-0.118
-710.675	-70.612	-0.222	-0.085
-709.660	-112.152	0.256	0.052
-708.645	-127.314	0.129	0.019
-707.631	800.000	-0.104	-0.299
-706.616	-40.034	-0.174	0.092
-705.602	-186.559	-0.253	0.004
-704.587	634.262	-0.113	-0.289
-703.572	800.000	-0.054	-0.234
-702.558	-38.980	-0.047	-0.025
-701.543	451.252	-0.100	-0.224
-700.529	75.267	0.151	-0.161
-699.514	228.709	0.072	-0.119
-698.499	-13.635	-0.343	0.224
-697.485	800.000	-0.063	-0.275
-696.470	383.085	-0.121	0.252
-695.456	230.086	0.179	-0.295
-694.441	-148.036	0.145	-0.012
-693.426	686.306	0.118	0.310
-692.412	52.777	0.072	0.070
-691.397	-71.330	-0.114	0.043
-690.383	-54.209	-0.189	-0.087
-689.368	156.551	-0.227	0.317
-688.354	-90.197	-0.329	-0.097
-687.339	239.611	-0.158	-0.265
-686.324	-24.980	-0.242	0.145
-685.310	775.980	-0.194	-0.536
-684.295	-36.590	-0.263	-0.143
-683.281	60.064	-0.234	-0.234
-682.266	47.206	0.191	-0.180
-681.251	-87.504	-0.313	0.096
-680.237	-167.814	0.191	0.008
-679.222	-116.162	-0.219	-0.041
-678.208	189.402	-0.086	-0.129
-677.193	-200.000	-0.009	-0.040
-676.178	-200.000	-0.018	0.365
-675.164	31.895	0.069	-0.060
-674.149	17.503	-0.363	-0.291
-673.135	50.449	-0.197	-0.188
-672.120	411.538	0.034	-0.073
-671.105	800.000	0.153	-0.510
-670.091	24.495	0.129	0.108
-669.076	-200.000	-0.017	-0.358
-668.062	-200.000	0.015	-0.249
-667.047	-200.000	-0.011	0.089
-666.032	80.563	0.237	-0.258
-665.018	-125.425	0.192	-0.029
-664.003	800.000	-0.109	-0.366
-662.989	800.000	-0.086	0.298
-661.974	-2.013	0.270	-0.191
-660.959	-200.000	0.003	-0.197
-659.945	617.090	0.032	-0.082
-658.930	800.000	-0.100	-0.375
-657.916	-94.075	-0.382	-0.106
-656.901	522.489	-0.108	0.256
-655.886	-78.190	-0.548	-0.190
-654.872	-106.185	-0.229	0.052
-653.857	800.000	0.035	0.141
-652.843	-200.000	-0.079	-0.386
-651.828	15.317	0.248	0.196
-650.814	-132.471	-0.131	0.017
-649.799	466.418	0.011	0.026
-648.784	800.000	-0.042	0.162
-647.770	171.347	-0.045	0.066
-646.755	-200.000	-0.033	0.195
-645.741	-96.838	-0.164	0.043
-644.726	-103.480	-0.350	-0.083
-643.711	-25.043	0.332	-0.198
-642.697	497.988	-0.165	-0.383
-641.682	-91.137	-0.187	-0.054
-640.668	-116.506	-0.422	-0.078
-639.653	-140.584	0.276	-0.029
-638.638	-58.406	-0.315	-0.138
-637.624	-125.217	0.157	-0.024
-636.609	-200.000	-0.031	-0.246
-635.595	-200.000	-0.025	0.250
-634.580	-175.574	-0.204	-0.006
-633.565	381.581	0.139	-0.288
-632.551	-53.073	-0.252	0.117
-631.536	62.330	-0.150	-0.151
-630.522	-156.302	0.295	0.019
-629.507	-75.352	0.102	-0.037
-628.492	-200.000	0.025	0.113
-627.478	-121.085	-0.355	0.060
-626.463	-74.891	-0.231	0.083
-625.449	-200.000	-0.080	-0.445
-624.434	448.705	-0.034	0.076
-623.419	-30.468	-0.137	-0.078
-622.405	178.818	0.040	-0.058
-621.390	-144.073	-0.124	-0.012
-620.376	800.000	-0.043	0.157
-619.361	800.000	-0.151	-0.425
-618.346	-43.860	-0.324	-0.164
-617.332	337.198	-0.015	0.030
-616.317	-200.000	0.045	-0.334
-615.303	495.806	0.127	0.293
-614.288	800.000	0.099	0.379
-613.273	-134.175	-0.324	0.040
-612.259	-200.000	0.001	0.191
-611.244	160.277	-0.244	-0.343
-610.230	53.834	-0.202	-0.195
-609.215	-53.671	0.246	0.113
-608.201	-46.221	0.351	0.174
-607.186	323.470	-0.094	0.180
-606.171	489.494	0.069	0.159
-605.157	800.000	-0.057	0.210
-604.142	-108.859	-0.112	-0.024
-603.128	-200.000	0.011	0.485
-602.113	-105.978	-0.069	-0.016
-601.098	-44.767	-0.184	0.092
-600.084	101.855	0.061	-0.072
-599.069	800.000	-0.087	-0.252
-598.055	800.000	0.036	0.145
-597.040	41.576	0.068	0.062
-596.025	-157.596	-0.211	-0.013
-595.011	-149.811	0.121	0.010
-593.996	233.124	-0.067	0.111
-592.982	141.273	0.077	0.103
-591.967	-200.000	0.022	0.136
-590.952	122.802	-0.091	0.114
-589.938	39.575	-0.162	0.146
-588.923	-196.968	0.069	0.000
-587.909	96.685	0.059	-0.067
-586.894	1.380	-0.014	0.010
-585.879	-200.000	-0.027	0.355
-584.865	240.742	0.148	0.248
-583.850	-77.832	-0.081	-0.028
-582.836	378.494	0.078	-0.160
-581.821	191.951	-0.048	-0.073
-580.806	7.149	0.107	-0.080
-579.792	78.993	-0.154	-0.165
-578.777	34.223	-0.140	0.123
-577.763	171.876	0.227	-0.328
-576.748	313.240	-0.075	0.142
-575.733	153.206	0.106	-0.145
-574.719	-42.378	-0.201	-0.103
-573.704	800.000	0.105	-0.337
-572.690	-200.000	0.081	-0.475
-571.675	-5.134	-0.333	0.230
-570.661	-101.787	-0.288	0.070
-569.646	181.246	-0.069	0.101
-568.631	-200.000	0.017	-0.204
-567.617	672.715	0.012	-0.031
-566.602	-200.000	-0.009	0.131
-565.588	5.072	-0.134	-0.099
-564.573	-200.000	-0.019	0.147
-563.558	-200.000	-0.033	0.331
-562.544	24.043	0.232	-0.192
-561.529	-29.326	-0.356	0.205
-560.515	772.592	-0.077	0.211
-559.500	800.000	-0.121	-0.520
-558.485	262.492	0.118	-0.206
-557.471	41.440	-0.050	-0.045
-556.456	354.876	0.092	0.183
-555.442	166.420	0.078	0.111
-554.427	16.595	0.176	0.139
-553.412	361.140	-0.196	0.394
-552.398	-2.186	-0.046	-0.033
-551.383	218.092	-0.133	0.212
-550.369	201.228	-0.089	0.137
-549.354	45.944	-0.186	-0.173
-548.339	-200.000	-0.018	0.284
-547.325	397.261	0.077	0.162
-546.310	800.000	-0.092	-0.299
-545.296	160.248	0.266	0.372
-544.281	661.277	0.070	0.180
-543.266	156.093	-0.264	0.365
-542.252	800.000	0.089	-0.381
-541.237	-200.000	0.019	-0.378
-540.223	149.806	-0.044	-0.060
-539.208	-57.159	0.335	0.148
-538.193	8.190	-0.293	0.221
-537.179	668.007	-0.032	-0.082
-536.164	358.368	-0.111	-0.222
-535.150	-30.169	-0.150	0.085
-534.135	-31.326	0.179	-0.101
-533.121	-81.400	0.358	-0.118
-532.106	-200.000	0.026	-0.168
-531.091	-200.000	-0.007	0.090
-530.077	800.000	0.033	-0.121
-529.062	-200.000	0.012	-0.086
-528.048	-152.949	-0.321	0.023
-527.033	-70.194	0.190	-0.072
-526.018	-193.389	0.341	0.003
-525.004	-9.002	-0.074	0.050
-523.989	163.304	-0.219	0.308
-522.975	-65.762	-0.217	-0.087
-521.960	74.343	0.219	-0.231
-520.945	800.000	-0.051	-0.184
-519.931	177.536	-0.029	0.042
-518.916	-95.007	0.216	0.058
-517.902	117.542	0.067	-0.083
-516.887	87.247	-0.202	-0.224
-515.872	-200.000	-0.015	0.171
-514.858	-200.000	-0.053	0.245
-513.843	800.000	0.005	0.013
-512.829	4.950	0.294	-0.217
-511.814	-200.000	0.029	-0.290
-510.799	-183.505	0.279	-0.005
-509.785	248.129	0.053	0.089
-508.770	122.532	0.093	-0.117
-507.756	-87.972	0.374	-0.113
-506.741	-35.909	-0.263	-0.142
-505.726	599.503	0.107	0.266
-504.712	36.741	0.101	0.090
-503.697	-80.024	-0.390	0.131
-502.683	476.324	0.035	0.079
-501.668	-127.134	0.143	0.021
-500.653	-199.068	-0.317	-0.002
-499.639	-104.341	0.275	-0.064
-498.624	-88.942	-0.124	-0.037
-497.610	472.826	0.138	0.310
-496.595	-90.927	0.148	-0.043
-495.581	-18.081	-0.346	-0.217
-494.566	40.409	-0.099	-0.089
-493.551	-154.551	-0.089	-0.006
-492.537	356.917	-0.185	-0.370
-491.522	-68.349	-0.217	0.084
-490.508	-186.579	-0.391	0.006
-489.493	7.065	0.131	-0.098
-488.478	-200.000	0.003	-0.087
-487.464	-125.474	-0.259	-0.039
-486.449	-200.000	0.031	0.308
-485.435	-200.000	0.020	0.301
-484.420	2.568	0.305	-0.221
-483.405	-200.000	0.024	-0.173
-482.391	384.090	0.198	-0.408
-481.376	172.642	0.059	0.084
-480.362	-20.811	-0.187	0.115
-479.347	8.161	-0.190	0.143
-478.332	235.346	-0.108	0.178
-477.318	-10.145	-0.187	-0.124
-476.303	593.264	0.059	0.146
-475.289	-200.000	0.010	-0.513
-474.274	-125.292	0.085	0.013
-473.259	-81.070	0.047	0.016
-472.245	-9.272	-0.257	-0.172
-471.230	-132.918	0.133	0.017
-470.216	205.806	-0.146	0.227
-469.201	106.078	-0.094	0.111
-468.186	38.915	-0.086	0.077
-467.172	-140.751	-0.263	0.027
-466.157	70.295	-0.254	0.262
-465.143	800.000	-0.076	-0.222
-464.128	-200.000	-0.002	-0.052
-463.113	-54.952	-0.019	-0.009
-462.099	-119.619	0.225	-0.039
-461.084	38.189	-0.318	-0.283
-460.070	800.000	0.035	0.127
-459.055	-43.473	-0.179	0.090
-458.040	-83.013	0.190	0.061
-457.026	-107.607	-0.422	0.092
-456.011	-137.517	0.074	0.008
-454.997	-200.000	-0.012	-0.399
-453.982	-71.072	0.096	0.036
-452.968	-153.561	0.387	-0.027
-451.953	307.831	-0.090	0.168
-450.938	800.000	-0.087	-0.309
-449.924	-69.135	0.078	-0.030
-448.909	-200.000	-0.007	0.079
-447.895	-91.187	0.165	-0.047
-446.880	-99.324	0.341	0.086
-445.865	70.922	0.087	-0.090
-444.851	16.941	-0.182	0.144
-443.836	-15.318	-0.369	-0.236
-442.822	217.798	0.038	-0.061
-441.807	-123.299	0.359	-0.057
-440.792	-55.266	0.257	0.115
-439.778	146.488	0.137	-0.183
-438.763	-147.079	0.266	-0.023
-437.749	56.052	-0.171	0.165
-436.734	86.320	-0.221	0.243
-435.719	-74.057	-0.157	0.057
-434.705	-102.643	-0.169	0.040
-433.690	800.000	0.061	-0.175
-432.676	113.840	-0.327	-0.397
-431.661	-48.353	-0.340	-0.164
-430.646	800.000	-0.073	0.233
-429.632	-200.000	-0.031	0.214
-428.617	-183.705	0.235	0.004
-427.603	800.000	0.117	0.370
-426.588	-77.241	0.152	0.053
-425.573	-200.000	-0.011	-0.194
-424.559	-200.000	-0.048	0.262
-423.544	35.681	-0.195	-0.171
-422.530	-31.368	-0.138	-0.078
-421.515	38.540	0.158	-0.140
-420.500	608.927	0.127	-0.317
-419.486	-104.930	0.153	-0.035
-418.471	-125.007	0.317	0.049
-417.457	82.964	0.041	-0.044
-416.442	147.421	0.010	0.013
-415.428	-28.708	0.032	0.018
-414.413	-27.373	-0.256	0.149
-413.398	22.333	0.278	0.227
-412.384	225.836	-0.185	-0.300
-411.369	20.569	0.425	-0.343
-410.355	-32.021	-0.342	0.191
-409.340	127.899	-0.065	-0.083
-408.325	-7.230	-0.195	0.132
-407.311	-200.000	-0.022	0.225
-406.296	-200.000	0.032	0.154
-405.282	-103.923	0.176	-0.041
-404.267	-200.000	0.062	0.365
-403.252	215.838	0.238	-0.378
-402.238	-200.000	-0.016	-0.333
-401.223	-100.827	0.030	-0.007
-400.209	-109.089	0.312	0.066
-399.194	-115.908	-0.287	0.054
-398.179	800.000	0.023	0.087
-397.165	-200.000	0.006	0.339
-396.150	548.891	-0.092	0.220
-395.136	800.000	-0.010	0.034
-394.121	-87.238	0.078	0.024
-393.106	199.940	0.046	0.070
-392.092	68.926	0.059	0.061
-391.077	-200.000	0.018	0.080
-390.063	-120.616	0.495	0.084
-389.048	-200.000	0.011	0.053
-388.033	160.274	0.191	0.265
-387.019	18.947	0.173	-0.138
-386.004	-200.000	-0.022	0.215
-384.990	-200.000	0.026	0.176
-383.975	800.000	0.075	0.242
-382.960	-44.982	-0.340	0.169
-381.946	-77.982	-0.240	-0.082
-380.931	26.742	0.086	-0.072
-379.917	8.685	-0.167	0.126
-378.902	790.441	-0.130	-0.356
-377.888	208.064	-0.068	0.106
-376.873	-37.044	-0.159	0.085
-375.858	231.570	-0.051	0.084
-374.844	290.625	-0.131	0.238
-373.829	-19.433	-0.163	0.101
-372.815	14.494	0.129	0.100
-371.800	-200.000	0.070	0.000
-370.785	-127.282	-0.194	0.028
-369.771	-200.000	0.037	0.268
-368.756	800.000	-0.091	0.284
-367.742	-200.000	-0.021	-0.162
-366.727	-144.325	0.259	0.024
-365.712	152.310	-0.148	-0.201
-364.698	-200.000	-0.076	-0.366
-363.683	-68.295	0.231	-0.089
-362.669	-95.414	-0.134	0.036
-361.654	363.848	-0.020	-0.040
-360.639	-48.816	-0.216	0.103
-359.625	227.765	0.060	-0.097
-358.610	399.168	0.178	0.371
-357.596	-200.000	0.022	-0.204
-356.581	-200.000	0.022	-0.167
-355.566	52.272	0.069	-0.065
-354.552	-5.144	0.168	0.115
-353.537	-153.783	0.285	0.019
-352.523	214.986	-0.082	-0.130
-351.508	-34.629	0.376	-0.205
-350.493	754.190	-0.065	0.175
-349.479	157.772	-0.109	-0.151
-348.464	-103.032	-0.371	0.088
-347.450	51.271	0.231	-0.218
-346.435	800.000	-0.045	-0.167
-345.420	80.466	0.164	0.176
-344.406	7.160	-0.191	0.142
-343.391	262.844	0.087	0.150
-342.377	-17.096	0.126	-0.079
-341.362	-67.543	0.253	-0.099
-340.348	-200.000	0.027	-0.246
-339.333	-133.368	-0.127	-0.016
-338.318	42.281	0.148	-0.134
-337.304	-106.670	-0.141	0.031
-336.289	-42.945	0.205	-0.103
-335.275	-8.157	0.086	-0.058
-334.260	76.127	0.266	0.281
-333.245	-200.000	0.011	0.241
-332.231	-170.077	0.166	0.006
-331.216	-165.272	-0.217	0.010
-330.202	-200.000	0.001	-0.111
-329.187	-131.129	-0.157	-0.021
-328.172	2.662	-0.076	-0.055
-327.158	-48.096	0.097	0.046
-326.143	-16.025	0.020	0.012
-325.129	-97.147	0.078	0.020
-324.114	-45.779	0.287	-0.141
-323.099	-113.638	0.346	0.067
-322.085	-104.289	0.417	-0.096
-321.070	800.000	-0.095	-0.311
-320.056	123.619	-0.103	0.128
-319.041	-74.609	0.171	0.061
-318.026	326.231	0.056	0.107
-317.012	-200.000	0.056	0.267
-315.997	-200.000	-0.084	0.440
-314.983	107.883	-0.069	0.082
-313.968	-131.299	0.288	0.038
-312.953	37.922	0.220	0.195
-311.939	125.272	-0.080	-0.101
-310.924	-33.927	-0.290	0.159
-309.910	-126.663	-0.378	-0.056
-308.895	-200.000	0.001	-0.227
-307.880	-200.000	0.058	0.000
-306.866	800.000	-0.102	-0.401
-305.851	466.136	0.132	0.295
-304.837	197.167	-0.156	0.237
-303.822	-157.315	0.266	0.016
-302.807	-145.033	0.213	-0.019
-301.793	-200.000	0.015	0.540
-300.778	-58.186	0.318	-0.138
-299.764	-177.863	-0.159	-0.004
-298.749	800.000	0.094	-0.263
-297.735	-114.290	0.306	0.059
-296.720	-27.270	-0.243	0.140
-295.705	-91.040	-0.182	-0.052
-294.691	369.299	-0.113	-0.226
-293.676	800.000	-0.033	0.119
-292.662	-76.423	-0.123	-0.043
-291.647	800.000	0.041	-0.135
-290.632	-200.000	0.035	-0.234
-289.618	-47.719	0.305	0.147
-288.603	-92.913	0.275	-0.076
-287.589	-5.942	-0.358	-0.243
-286.574	-200.000	0.092	-0.492
-285.559	147.634	0.101	-0.136
-284.545	-62.638	0.107	-0.044
-283.530	-200.000	-0.022	-0.120
-282.516	395.441	-0.092	-0.190
-281.501	-118.576	-0.049	0.009
-280.486	-74.947	-0.261	-0.093
-279.472	-127.242	-0.112	-0.016
-278.457	-140.193	0.577	0.060
-277.443	681.154	-0.060	0.155
-276.428	-91.538	0.200	-0.057
-275.413	-143.103	-0.364	-0.035
-274.399	-143.362	-0.372	-0.035
-273.384	-162.476	-0.280	-0.014
-272.370	231.142	0.177	-0.288
-271.355	-131.297	0.241	0.032
-270.340	-11.287	0.214	0.140
-269.326	-146.760	0.337	0.029
-268.311	-59.503	-0.217	0.093
-267.297	12.204	-0.170	-0.130
-266.282	-200.000	-0.023	0.185
-265.267	312.617	-0.143	-0.266
-264.253	534.281	0.088	0.208
-263.238	-61.101	-0.393	-0.165
-262.224	160.532	-0.215	-0.298
-261.209	226.720	0.196	-0.317
-260.195	800.000	0.081	0.240
-259.180	-163.933	-0.172	-0.008
-258.165	-200.000	-0.027	-0.311
-257.151	4.444	0.116	0.084
-256.136	364.294	-0.131	-0.261
-255.122	-33.113	0.382	-0.210
-254.107	142.268	-0.124	0.163
-253.092	-200.000	-0.278	-0.001
-252.078	-146.184	-0.283	0.025
-251.063	12.528	0.187	-0.143
-250.049	800.000	-0.059	-0.171
-249.034	191.944	0.187	0.279
-248.019	133.998	0.114	0.146
-247.005	44.596	-0.300	0.274
-245.990	68.434	0.203	-0.207
-244.976	661.560	0.150	-0.382
-243.961	95.450	-0.192	0.217
-242.946	-133.228	0.331	0.041
-241.932	-174.162	-0.272	-0.008
-240.917	357.764	-0.243	-0.480
-239.903	75.595	-0.253	0.265
-238.888	49.996	0.086	0.081
-237.873	-53.958	-0.115	-0.052
-236.859	16.898	0.275	0.216
-235.844	388.234	0.056	-0.116
-234.830	-200.000	0.018	0.153
-233.815	467.939	-0.071	0.159
-232.800	-90.585	0.492	0.141
-231.786	-194.206	0.128	-0.001
-230.771	800.000	-0.085	-0.340
-229.757	33.094	0.221	0.189
-228.742	-46.731	0.272	0.132
-227.727	-200.000	0.057	0.410
-226.713	-120.085	-0.106	-0.018
-225.698	-163.057	-0.146	-0.007
-224.684	46.803	0.180	-0.166
-223.669	40.026	0.087	0.077
-222.655	58.639	0.255	-0.248
-221.640	-31.886	0.136	-0.075
-220.625	800.000	0.068	-0.255
-219.611	528.351	0.130	0.303
-218.596	-200.000	-0.144	-0.000
-217.582	-200.000	-0.018	-0.102
-216.567	-97.358	-0.049	0.013
-215.552	-146.880	0.199	0.017
-214.538	457.536	-0.045	-0.098
-213.523	-145.284	0.265	-0.024
-212.509	25.641	-0.156	-0.129
-211.494	284.082	-0.092	-0.164
-210.479	800.000	-0.023	-0.066
-209.465	-131.069	0.173	-0.023
-208.450	800.000	0.037	0.113
-207.436	-110.643	0.434	-0.089
-206.421	425.617	-0.096	-0.206
-205.406	19.210	-0.062	0.049
-204.392	96.721	0.135	-0.153
-203.377	88.045	-0.221	-0.243
-202.363	-180.873	0.233	0.005
-201.348	-200.000	-0.012	-0.278
-200.333	-184.345	-0.298	-0.005
-199.319	-93.722	0.268	0.073
-198.304	5.268	0.157	-0.114
-197.290	-74.106	0.157	-0.056
-196.275	-163.387	-0.376	0.018
-195.260	-57.979	-0.527	0.228
-194.246	-26.661	0.251	0.145
-193.231	-99.693	-0.357	0.089
-192.217	540.942	0.061	0.143
-191.202	-6.836	0.245	-0.165
-190.187	-200.000	-0.007	-0.084
-189.173	372.010	-0.103	0.207
-188.158	7.257	-0.237	0.175
-187.144	40.314	-0.074	-0.066
-186.129	82.032	0.217	0.233
-185.114	-200.000	-0.013	0.179
-184.100	800.000	0.080	-0.279
-183.085	-200.000	-0.003	0.247
-182.071	800.000	-0.111	0.451
-181.056	-6.510	-0.097	0.065
-180.042	11.556	-0.077	-0.059
-179.027	540.921	-0.119	0.281
-178.012	477.210	0.091	-0.203
-176.998	-90.533	0.105	0.030
-175.983	205.730	0.044	0.068
-174.969	-155.316	0.160	0.010
-173.954	-131.271	-0.262	-0.034
-172.939	-67.825	0.352	0.136
-171.925	-33.509	0.298	0.163
-170.910	-33.390	0.322	-0.176
-169.896	525.730	0.106	-0.247
-168.881	37.157	-0.164	-0.144
-167.866	-200.000	0.014	-0.150
-166.852	155.462	0.233	0.318
-165.837	-108.760	0.072	0.015
-164.823	-184.836	0.265	0.004
-163.808	755.424	0.114	0.304
-162.793	-84.481	-0.435	-0.136
-161.779	2.232	0.131	0.093
-160.764	371.354	0.070	0.139
-159.750	800.000	-0.048	0.192
-158.735	26.164	-0.164	0.135
-157.720	37.249	0.270	0.236
-156.706	-22.956	-0.243	-0.145
-155.691	-64.674	0.223	-0.089
-154.677	178.684	-0.056	0.081
-153.662	800.000	0.017	-0.073
-152.647	-52.940	-0.143	-0.065
-151.633	-26.369	0.230	-0.134
-150.618	417.757	0.172	0.363
-149.604	111.504	0.196	0.233
-148.589	-200.000	0.040	0.383
-147.574	-45.596	0.074	0.036
-146.560	367.682	0.249	0.498
-145.545	-56.335	0.079	-0.035
-144.531	360.248	0.141	-0.279
-143.516	-163.856	-0.079	0.004
-142.502	191.010	-0.182	-0.270
-141.487	280.445	-0.096	-0.169
-140.472	-200.000	0.033	-0.405
-139.458	-55.439	0.116	-0.051
-138.443	91.255	-0.056	-0.062
-137.429	15.650	-0.183	0.142
-136.414	-69.837	-0.171	-0.064
-135.399	-56.018	0.072	0.032
-134.385	97.870	0.151	-0.171
-133.370	157.039	0.030	-0.041
-132.356	-12.774	-0.226	-0.146
-131.341	800.000	-0.127	0.423
-130.326	273.715	-0.227	0.396
-129.312	-62.467	0.072	-0.029
-128.297	73.574	0.104	-0.107
-127.283	-156.845	0.260	0.016
-126.268	42.424	-0.091	-0.082
-125.253	157.586	0.282	-0.386
-124.239	-136.395	-0.066	-0.008
-123.224	32.419	0.349	0.297
-122.210	-200.000	-0.034	0.226
-121.195	-61.278	-0.019	0.008
-120.180	-127.515	0.234	-0.034
-119.166	-86.825	-0.029	0.009
-118.151	-98.798	-0.384	0.097
-117.137	495.353	0.136	0.309
-116.122	-3.412	0.109	0.075
-115.107	-174.601	-0.272	0.008
-114.093	59.006	0.404	0.392
-113.078	-114.856	0.085	-0.016
-112.064	705.889	-0.056	-0.147
-111.049	-68.908	0.094	-0.036
-110.034	-86.273	-0.276	0.084
-109.020	-42.485	-0.279	0.140
-108.005	25.062	0.341	0.279
-106.991	800.000	0.041	0.117
-105.976	800.000	-0.101	-0.319
-104.962	-67.015	0.123	0.048
-103.947	-119.879	-0.449	0.076
-102.932	506.921	0.005	0.011
-101.918	10.721	0.070	0.052
-100.903	800.000	0.027	0.099
-99.889	-117.866	0.176	0.031
-98.874	-108.239	0.321	0.068
-97.859	-163.788	-0.164	0.008
-96.845	54.275	0.217	-0.206
-95.830	-174.386	0.089	-0.003
-94.816	-98.123	-0.261	0.066
-93.801	-31.380	-0.250	-0.139
-92.786	800.000	-0.081	0.223
-91.772	425.785	-0.035	-0.075
-90.757	-200.000	-0.004	-0.184
-89.743	-57.304	-0.194	0.084
-88.728	-7.855	0.166	0.110
-87.713	800.000	0.045	-0.135
-86.699	-105.666	0.111	-0.025
-85.684	-160.921	0.080	0.004
-84.670	-79.251	0.030	0.010
-83.655	461.880	-0.085	-0.187
-82.640	-200.000	-0.048	0.274
-81.626	9.763	0.109	-0.081
-80.611	83.427	0.181	-0.194
-79.597	25.381	0.039	-0.032
-78.582	-200.000	-0.042	0.263
-77.567	-15.143	0.032	0.020
-76.553	149.552	0.236	0.315
-75.538	-200.000	0.039	-0.270
-74.524	800.000	-0.060	-0.199
-73.509	4.153	0.314	0.226
-72.494	-200.000	-0.013	0.196
-71.480	-20.215	0.297	-0.180
-70.465	245.869	0.174	0.289
-69.451	800.000	0.036	0.137
-68.436	-200.000	-0.059	0.356
-67.422	5.415	-0.223	-0.162
-66.407	0.134	-0.213	-0.149
-65.392	-58.113	-0.150	-0.064
-64.378	193.836	-0.127	-0.189
-63.363	800.000	0.091	0.357
-62.349	-67.651	0.260	0.100
-61.334	259.760	-0.804	-1.368
-60.319	-25.474	0.698	0.406
-59.305	154.785	-0.481	-0.651
-58.290	322.752	0.621	1.166
-57.276	354.898	0.739	1.447
-56.261	-200.000	96.235	580.296
-55.246	557.398	1378.589	3271.662
-54.232	160.185	2553.007	3503.677
-53.217	112.635	2141.434	2551.893
-52.203	44.467	1605.178	1451.350
-51.188	36.467	1343.080	1166.277
-50.173	33.218	1301.250	1110.870
-49.159	55.286	1348.241	1283.264
-48.144	57.401	1364.864	1311.651
-47.130	36.630	1323.180	1149.781
-46.115	33.176	1305.934	1114.443
-45.100	32.961	1301.055	1108.970
-44.086	32.946	1298.286	1106.479
-43.071	32.865	1296.303	1104.274
-42.057	32.790	1294.556	1102.301
-41.042	32.890	1292.748	1101.303
-40.027	32.958	1291.065	1100.218
-39.013	32.847	1289.290	1098.017
-37.998	32.816	1287.540	1096.305
-36.984	32.923	1286.295	1095.823
-35.969	32.999	1284.183	1094.420
-34.954	32.993	1282.920	1093.263
-33.940	32.981	1281.235	1091.715
-32.925	32.968	1280.222	1090.734
-31.911	32.958	1278.939	1089.543
-30.896	32.919	1277.255	1087.838
-29.881	33.053	1275.517	1087.087
-28.867	33.143	1273.907	1086.187
-27.852	33.022	1272.950	1084.631
-26.838	33.015	1271.132	1083.002
-25.823	33.006	1270.156	1082.075
-24.809	33.075	1268.632	1081.131
-23.794	33.007	1267.242	1079.513
-22.779	33.006	1266.162	1078.544
-21.765	33.132	1264.348	1077.673
-20.750	32.943	1263.717	1076.016
-19.736	32.916	1262.486	1074.773
-18.721	32.904	1261.202	1073.569
-17.706	32.823	1260.474	1072.448
-16.692	32.959	1258.572	1071.556
-15.677	32.946	1257.847	1070.823
-14.663	32.843	1257.000	1069.477
-13.648	32.863	1255.673	1068.417
-12.633	32.962	1254.689	1068.100
-11.619	32.732	1254.040	1066.200
-10.604	32.924	1253.124	1066.465
-9.590	32.908	1252.023	1065.399
-8.575	32.768	1251.676	1064.271
-7.560	32.921	1250.439	1064.038
-6.546	32.938	1249.164	1063.005
-5.531	32.887	1248.713	1062.293
-4.517	32.887	1247.637	1061.338
-3.502	32.857	1247.079	1060.648
-2.487	32.888	1246.394	1060.199
-1.473	32.785	1242.001	1055.843
-0.458	31.406	1227.471	1035.818
0.556	28.521	1210.425	999.644
1.571	25.037	1216.407	985.373
2.586	24.299	1231.894	993.717
3.600	23.927	1221.434	983.140
4.615	17.723	1147.786	891.444
5.629	7.157	1070.876	779.841
6.644	2.515	1049.369	741.671
7.659	2.149	1047.035	738.185
8.673	1.854	1046.063	736.012
9.688	1.884	1044.640	735.092
10.702	2.384	1043.660	736.741
11.717	9.133	1052.866	775.874
12.731	19.212	1066.978	835.324
13.746	24.109	1073.392	864.095
14.761	25.183	1074.136	869.830
15.775	25.221	1073.964	869.797
16.790	25.050	1072.996	868.110
17.804	24.810	1073.010	866.882
18.819	25.046	1072.213	867.304
19.834	25.151	1071.619	867.254
20.848	25.161	1071.482	867.116
21.863	25.161	1070.684	866.391
22.877	25.015	1070.041	865.088
23.892	25.096	1069.136	864.673
24.907	25.018	1068.902	864.032
25.921	25.142	1067.528	863.442
26.936	25.072	1066.266	862.008
27.950	25.044	1064.541	860.399
28.965	24.913	1062.925	858.393
29.980	24.977	1061.529	857.495
30.994	25.247	1060.493	857.873
32.009	25.147	1059.230	856.299
33.023	24.909	1058.318	854.348
34.038	25.100	1057.496	854.519
35.053	25.220	1056.974	854.594
36.067	25.235	1056.284	854.034
37.082	25.136	1055.790	853.088
38.096	25.299	1054.828	853.010
39.111	25.356	1054.288	852.768
40.126	25.117	1053.035	850.547
41.140	24.961	1050.822	847.943
42.155	24.674	1049.782	845.673
43.169	24.795	1048.894	845.455
44.184	24.815	1048.102	844.835
45.199	24.632	1046.901	842.930
46.213	24.818	1046.091	843.078
47.228	24.966	1045.659	843.354
48.242	25.082	1044.400	842.807
49.257	25.092	1044.308	842.708
50.271	25.208	1043.313	842.376
51.286	25.137	1042.720	841.488
52.301	25.324	1041.332	841.171
53.315	25.217	1040.495	839.916
54.330	25.164	1039.603	838.876
55.344	25.173	1039.067	838.413
56.359	25.078	1038.111	837.122
57.374	25.102	1036.710	836.031
58.388	24.864	1036.132	834.380
59.403	24.830	1035.456	833.604
60.417	24.674	1034.496	832.032
61.432	24.912	1033.595	832.341
62.447	24.996	1033.282	832.406
63.461	24.958	1033.066	831.981
64.476	24.924	1031.520	830.505
65.490	24.822	1030.723	829.314
66.505	24.793	1030.110	828.616
67.520	24.973	1029.006	828.484
68.534	24.592	1028.608	826.332
69.549	24.397	1026.970	824.041
70.563	24.461	1026.211	823.655
71.578	24.356	1025.364	822.418
72.593	24.197	1024.621	821.018
73.607	24.399	1024.353	821.658
74.622	24.642	1023.785	822.249
75.636	24.623	1023.147	821.577
76.651	24.562	1022.270	820.517
77.666	24.508	1021.169	819.316
78.680	24.447	1020.782	818.652
79.695	24.715	1019.964	819.153
80.709	24.777	1019.401	818.913
81.724	24.774	1019.009	818.512
82.739	24.829	1018.218	818.056
83.753	25.163	1017.404	818.853
84.768	25.482	1016.798	819.747
85.782	25.457	1015.883	818.826
86.797	25.432	1014.680	817.667
87.812	25.318	1013.655	816.251
88.826	25.389	1012.950	815.935
89.841	25.441	1011.967	815.307
90.855	25.405	1011.694	814.850
91.870	25.437	1010.238	813.752
92.884	25.178	1009.162	811.639
93.899	25.264	1007.847	810.899
94.914	25.492	1007.399	811.498
95.928	25.259	1006.299	809.489
96.943	24.965	1005.127	807.149
97.957	24.814	1003.798	805.330
98.972	24.532	1002.715	803.122
99.987	24.929	1002.495	804.659
101.001	25.137	1001.578	804.785
102.016	25.149	1000.815	804.156
103.030	24.982	999.894	802.598
104.045	24.861	998.787	801.095
105.060	24.818	997.654	799.922
106.074	24.845	997.070	799.505
107.089	25.270	996.933	801.221
108.103	25.131	995.540	799.413
109.118	24.880	994.026	797.011
110.133	24.841	993.569	796.398
111.147	24.736	991.743	794.396
112.162	24.631	991.004	793.271
113.176	24.723	990.885	793.512
114.191	24.737	989.814	792.644
115.206	24.406	988.721	790.236
116.220	24.341	988.208	789.468
117.235	24.514	987.402	789.519
118.249	24.618	986.201	788.948
119.264	24.400	985.835	787.623
120.279	24.377	985.632	787.291
121.293	24.500	984.495	786.856
122.308	24.486	983.896	786.245
123.322	24.590	981.988	785.109
124.337	24.342	981.026	783.179
125.352	23.875	979.288	779.673
126.366	23.806	978.827	778.936
127.381	24.655	978.549	782.365
128.395	24.980	978.156	783.403
129.410	25.164	977.090	783.285
130.424	25.118	976.314	782.390
131.439	25.032	975.508	781.301
132.454	24.926	974.702	780.126
133.468	24.939	973.932	779.495
134.483	25.251	972.841	779.911
135.497	25.316	972.063	779.499
136.512	25.240	971.695	778.807
137.527	25.416	970.460	778.510
138.541	25.427	969.461	777.685
139.556	25.277	969.398	776.918
140.570	25.412	968.266	776.527
141.585	25.371	967.325	775.528
142.600	25.355	966.266	774.540
143.614	25.568	965.851	775.057
144.629	25.455	965.356	774.105
145.643	25.561	963.839	773.272
146.658	25.279	962.633	771.029
147.673	25.254	961.431	769.888
148.687	25.185	960.711	768.946
149.702	25.061	960.098	767.859
150.716	24.957	959.026	766.489
151.731	25.263	958.253	767.112
152.746	25.507	957.490	767.472
153.760	25.499	957.118	767.074
154.775	25.579	956.599	766.932
155.789	25.478	955.653	765.675
156.804	25.403	954.835	764.632
157.819	25.481	954.330	764.491
158.833	25.818	953.506	765.196
159.848	25.740	952.132	763.696
160.862	25.417	951.019	761.366
161.877	25.524	950.274	761.155
162.892	25.456	949.672	760.317
163.906	25.394	948.524	759.069
164.921	25.367	947.304	757.911
165.935	25.512	946.349	757.692
166.950	25.508	945.469	756.905
167.964	25.458	944.630	755.956
168.979	25.296	943.724	754.481
169.994	25.173	942.737	753.110
171.008	25.401	942.731	753.998
172.023	25.473	941.363	753.136
173.037	25.395	940.251	751.855
174.052	25.279	939.390	750.616
175.067	25.281	938.841	750.119
176.081	25.360	938.333	749.976
177.096	25.335	937.801	749.379
178.110	25.084	936.361	747.117
179.125	24.797	935.765	745.378
180.140	24.940	935.853	745.981
181.154	25.123	935.524	746.412
182.169	25.344	935.235	747.035
183.183	25.643	934.296	747.462
184.198	25.478	933.263	745.885
185.213	25.358	932.964	745.082
186.227	25.494	932.464	745.180
187.242	25.469	931.984	744.628
188.256	25.554	931.380	744.428
189.271	25.632	930.484	743.972
190.286	25.076	929.653	740.943
191.300	24.488	927.884	737.039
192.315	23.806	926.352	732.948
193.329	23.808	925.762	732.424
194.344	24.716	926.401	736.607
195.359	25.304	926.229	738.828
196.373	25.332	925.837	738.563
197.388	25.279	925.087	737.681
198.402	25.445	924.389	737.740
199.417	25.509	923.560	737.276
200.432	25.146	922.660	735.007
201.446	25.112	921.819	734.132
202.461	25.123	921.395	733.772
203.475	24.101	919.601	728.105
204.490	23.489	918.063	724.321
205.504	24.362	918.737	728.358
206.519	24.976	918.889	730.918
207.534	25.141	918.162	730.948
208.548	25.462	917.984	732.050
209.563	25.256	917.164	730.493
210.577	25.236	916.484	729.807
211.592	25.618	915.713	730.678
212.607	25.736	914.859	730.413
213.621	25.635	914.532	729.678
214.636	25.536	913.999	728.784
215.650	25.452	913.294	727.818
216.665	25.591	912.933	728.031
217.680	25.588	911.680	726.955
218.694	25.230	910.696	724.660
219.709	24.837	910.292	722.687
220.723	25.387	909.372	724.111
221.738	25.365	909.132	723.768
222.753	25.329	908.609	723.142
223.767	25.478	908.522	723.609
224.782	25.727	907.865	724.024
225.796	25.647	907.677	723.486
226.811	24.966	906.169	719.487
227.826	24.302	904.994	715.826
228.840	24.592	904.009	716.144
229.855	24.641	903.417	715.808
230.869	24.252	902.228	713.246
231.884	24.689	902.348	715.029
232.899	25.371	902.566	717.863
233.913	25.318	901.726	716.921
234.928	25.302	901.247	716.413
235.942	25.300	900.250	715.548
236.957	25.095	899.278	713.896
237.972	24.973	898.899	713.045
238.986	25.035	898.432	712.860
240.001	25.032	898.250	712.639
241.015	25.157	897.506	712.485
242.030	25.263	896.750	712.241
243.045	25.309	896.663	712.291
244.059	25.557	896.181	712.831
245.074	25.132	895.645	710.655
246.088	25.006	894.246	708.982
247.103	25.367	893.721	709.932
248.117	25.924	893.821	712.151
249.132	26.201	893.601	713.005
250.147	26.067	893.276	712.154
251.161	26.336	892.656	712.659
252.176	26.195	891.874	711.415
253.190	26.389	891.549	711.857
254.205	26.480	890.773	711.532
255.220	26.418	890.379	710.912
256.234	26.281	889.371	709.503
257.249	26.303	888.664	708.966
258.263	26.179	888.148	708.004
259.278	26.384	887.330	708.093
260.293	26.322	887.189	707.675
261.307	26.043	886.828	706.233
262.322	26.087	885.185	705.031
263.336	25.202	883.430	700.122
264.351	24.360	881.241	695.043
265.366	24.328	881.664	695.192
266.380	25.519	882.294	700.271
267.395	25.958	882.097	701.762
268.409	25.823	880.977	700.283
269.424	25.985	880.837	700.738
270.439	25.930	880.203	699.958
271.453	26.152	879.647	700.317
272.468	26.282	879.369	700.536
273.482	26.184	879.411	700.127
274.497	25.891	877.725	697.590
275.512	25.673	876.407	695.637
276.526	25.941	876.855	696.968
277.541	26.073	876.438	697.087
278.555	25.903	875.529	695.645
279.570	25.907	874.315	694.634
280.585	26.062	873.923	694.857
281.599	25.939	873.222	693.765
282.614	25.240	871.844	689.924
283.628	25.282	871.712	689.920
284.643	25.754	871.107	691.194
285.657	25.394	870.009	688.879
286.672	24.953	869.462	686.693
287.687	25.544	869.531	688.955
288.701	25.699	868.639	688.780
289.716	25.328	868.130	686.897
290.730	25.375	867.189	686.270
291.745	25.046	866.386	684.317
292.760	25.292	866.170	685.025
293.774	26.319	866.774	689.363
294.789	26.713	866.445	690.542
295.803	26.621	865.951	689.734
296.818	26.770	864.743	689.278
297.833	26.328	863.547	686.586
298.847	25.970	863.542	685.162
299.862	26.431	863.238	686.609
300.876	26.608	862.951	686.993
301.891	26.486	862.708	686.274
302.906	25.955	861.778	683.464
303.920	26.206	861.034	683.762
304.935	26.612	860.907	685.137
305.949	26.615	859.928	684.308
306.964	26.357	859.245	682.732
307.979	26.284	859.486	682.587
308.993	26.757	858.821	683.784
310.008	26.741	858.091	683.082
311.022	26.340	857.546	681.075
312.037	26.411	856.521	680.470
313.052	26.019	855.115	677.817
314.066	25.169	853.972	673.660
315.081	24.898	853.403	672.135
316.095	25.837	853.770	675.890
317.110	26.264	853.581	677.281
318.125	25.408	851.936	672.712
319.139	24.377	850.542	667.694
320.154	24.281	850.446	667.201
321.168	25.207	850.790	670.878
322.183	26.113	850.468	673.950
323.197	26.070	850.432	673.699
324.212	26.348	849.671	674.075
325.227	26.311	849.762	673.950
326.241	26.281	848.655	672.901
327.256	26.301	847.920	672.330
328.270	26.152	847.098	671.069
329.285	25.960	846.333	669.687
330.300	25.704	845.737	668.208
331.314	25.938	845.568	668.885
332.329	26.392	845.594	670.530
333.343	26.344	845.717	670.389
334.358	26.420	845.070	670.099
335.373	26.523	844.755	670.170
336.387	26.832	844.051	670.696
337.402	27.036	843.889	671.260
338.416	26.985	843.317	670.559
339.431	26.972	843.187	670.348
340.446	27.146	843.135	670.890
341.460	27.072	842.048	669.693
342.475	26.979	841.424	668.793
343.489	26.985	841.508	668.824
344.504	27.261	841.226	669.557
345.519	27.309	841.205	669.658
346.533	27.410	840.381	669.316
347.548	27.381	839.870	668.740
348.562	27.294	839.035	667.699
349.577	27.261	838.845	667.366
350.592	27.260	837.533	666.262
351.606	27.253	837.381	666.056
352.621	27.177	836.810	665.265
353.635	26.962	836.047	663.813
354.650	26.339	834.278	660.072
355.665	25.489	832.333	655.378
356.679	25.943	832.258	656.918
357.694	26.360	832.114	658.264
358.708	26.300	831.418	657.436
359.723	26.682	831.325	658.695
360.738	27.131	830.862	659.900
361.752	27.042	830.615	659.323
362.767	27.415	830.187	660.279
363.781	27.598	830.357	661.019
364.796	27.624	829.810	660.617
365.810	27.702	829.443	660.549
366.825	27.700	829.190	660.284
367.840	27.265	828.410	658.031
368.854	26.875	827.473	655.819
369.869	26.920	826.845	655.425
370.883	26.841	826.546	654.844
371.898	27.016	825.858	654.870
372.913	27.113	825.765	655.090
373.927	27.231	824.884	654.757
374.942	27.267	824.539	654.556
375.956	27.408	824.447	654.933
376.971	27.454	824.196	654.841
377.986	27.682	823.430	654.993
379.000	27.683	822.969	654.573
380.015	27.432	822.613	653.329
381.029	27.553	821.842	653.096
382.044	27.726	821.477	653.367
383.059	27.616	820.858	652.422
384.073	27.740	820.447	652.483
385.088	27.473	819.795	650.951
386.102	27.529	818.616	650.157
387.117	27.447	818.046	649.354
388.132	26.979	817.126	646.899
389.146	26.463	816.336	644.378
390.161	27.005	816.320	646.238
391.175	27.292	816.353	647.231
392.190	27.049	815.267	645.449
393.205	25.638	812.749	638.394
394.219	24.317	810.921	632.222
395.234	23.999	811.220	631.272
396.248	25.695	812.501	638.234
397.263	27.229	813.323	644.263
398.278	27.285	812.428	643.693
399.292	26.984	812.283	642.458
400.307	26.879	811.924	641.743
401.321	27.022	811.399	641.777
402.336	27.460	811.272	643.167
403.350	27.795	811.314	644.327
404.365	28.021	811.127	644.921
405.380	28.357	810.823	645.806
406.394	28.507	809.928	645.562
407.409	28.340	809.665	644.709
408.423	28.279	809.394	644.223
409.438	28.291	809.197	644.050
410.453	28.396	808.710	643.974
411.467	28.236	807.917	642.726
412.482	28.289	807.744	642.717
413.496	28.498	806.945	642.757
414.511	28.478	806.490	642.266
415.526	28.526	806.077	642.048
416.540	28.361	805.909	641.281
417.555	27.943	804.897	638.956
418.569	28.026	804.501	638.875
419.584	28.232	803.726	638.922
420.599	27.935	802.952	637.215
421.613	110.975	1284.670	1455.738
422.628	95.828	1354.868	1455.860
