DTS Sentinel unit serial number:	SN413079Multiplexer serial number:	ORYXHardware model number:	OX4-SRSoftware version number:	ORYX F/W v4.00 Oryx Data Collector v3.7.2.0data status	okinstallation	princeton_trtdifferential loss correction	single-endedforward channel	channel 1reverse channel	N/Adate	2019/09/12time	01:40:11forward acquisition time	60.00reverse acquisition time	0.00gamma	496.2192k internal	0.2320k external	0.2320temperature offset calibration	1.0079default loss term (dB/km)	0.3790temperature slope calibration	1.0000multiplexer offset coefficient	1.0000multiplexer slope coefficient	1.0000fibre end	0.00T internal ref (°C)	32.87T ext. ref 1 (°C)	2.09T ext. ref 2 (°C)	27.58length (m)	temperature (°C)	Stokes	anti-Stokes-747.200	-87.115	-0.197	-0.061
-746.185	800.000	-0.042	0.171
-745.171	-159.691	0.217	-0.012
-744.156	-103.210	-0.312	0.074
-743.142	549.921	-0.039	0.094
-742.127	-10.645	0.096	0.064
-741.112	-74.559	0.324	-0.118
-740.098	144.847	-0.145	-0.195
-739.083	-156.579	0.316	-0.020
-738.069	135.599	0.306	0.402
-737.054	-44.219	-0.240	-0.122
-736.039	38.318	-0.453	0.407
-735.025	25.779	0.053	-0.045
-734.010	-200.000	-0.328	0.000
-732.996	191.368	-0.172	-0.261
-731.981	286.000	-0.100	0.182
-730.966	-189.226	-0.205	-0.002
-729.952	-132.708	0.228	-0.029
-728.937	172.061	-0.094	-0.136
-727.923	-130.291	0.138	0.019
-726.908	-195.934	0.157	-0.001
-725.894	-200.000	-0.047	-0.474
-724.879	83.170	-0.193	-0.213
-723.864	305.701	0.133	-0.250
-722.850	800.000	-0.143	-0.445
-721.835	115.544	0.057	0.071
-720.821	114.886	0.227	-0.280
-719.806	124.448	-0.127	0.161
-718.791	-161.315	-0.319	-0.017
-717.777	9.571	-0.277	0.212
-716.762	-60.607	0.065	-0.028
-715.748	243.811	0.108	-0.183
-714.733	-106.958	-0.261	-0.058
-713.718	-10.289	-0.099	0.066
-712.704	-71.796	-0.167	0.063
-711.689	98.152	0.133	0.154
-710.675	-30.416	0.085	-0.049
-709.660	562.867	-0.075	0.182
-708.645	-200.000	0.024	-0.163
-707.631	39.875	-0.047	0.043
-706.616	-67.509	0.205	-0.081
-705.602	101.085	0.254	-0.298
-704.587	2.733	-0.062	-0.046
-703.572	-113.403	0.238	0.047
-702.558	82.076	-0.167	0.183
-701.543	109.946	0.100	-0.122
-700.529	800.000	0.085	0.289
-699.514	261.939	-0.180	-0.315
-698.499	-200.000	0.045	0.321
-697.485	-75.237	0.154	-0.055
-696.470	-200.000	-0.074	-0.429
-695.456	592.061	0.056	0.139
-694.441	-200.000	0.028	-0.136
-693.426	-109.533	-0.266	0.057
-692.412	-200.000	-0.003	0.144
-691.397	34.583	-0.183	0.161
-690.383	-200.000	0.002	0.136
-689.368	-26.197	-0.492	-0.291
-688.354	287.115	-0.282	-0.514
-687.339	537.975	0.089	-0.213
-686.324	-68.519	0.021	0.008
-685.310	800.000	-0.076	0.256
-684.295	-151.632	0.184	0.014
-683.281	-28.487	0.116	-0.067
-682.266	-56.372	0.354	-0.159
-681.251	139.789	0.169	-0.224
-680.237	-44.856	-0.226	-0.114
-679.222	800.000	0.046	-0.155
-678.208	90.382	-0.245	0.276
-677.193	119.081	0.201	-0.251
-676.178	466.525	-0.098	-0.222
-675.164	-131.222	0.102	0.014
-674.149	14.791	-0.129	-0.102
-673.135	193.302	-0.024	0.037
-672.120	800.000	0.022	-0.074
-671.105	-200.000	0.010	0.100
-670.091	-61.677	-0.286	-0.121
-669.076	-131.593	0.344	-0.046
-668.062	-200.000	-0.010	0.060
-667.047	182.268	-0.101	-0.150
-666.032	-160.873	0.164	-0.009
-665.018	1.975	-0.178	-0.129
-664.003	-38.033	-0.309	0.165
-662.989	-116.940	-0.157	0.029
-661.974	748.802	0.062	-0.168
-660.959	-200.000	0.010	0.261
-659.945	520.832	-0.063	-0.150
-658.930	-200.000	-0.007	-0.062
-657.916	-200.000	-0.016	-0.100
-656.901	-2.668	-0.219	0.154
-655.886	-1.738	-0.125	-0.089
-654.872	-82.189	0.359	-0.118
-653.857	97.969	0.060	-0.069
-652.843	800.000	-0.098	-0.336
-651.828	-200.000	0.017	0.085
-650.814	63.901	-0.154	0.156
-649.799	800.000	0.114	0.337
-648.784	-0.757	-0.154	0.110
-647.770	224.084	0.172	-0.280
-646.755	243.915	0.138	-0.233
-645.741	270.437	-0.065	-0.115
-644.726	-89.277	-0.230	0.068
-643.711	-154.071	-0.235	0.016
-642.697	800.000	-0.048	-0.159
-641.682	-71.656	0.260	0.098
-640.668	-4.424	0.207	-0.144
-639.653	-200.000	0.015	0.186
-638.638	800.000	-0.074	0.217
-637.624	363.242	0.084	-0.169
-636.609	277.677	0.094	0.169
-635.595	-159.525	-0.163	0.009
-634.580	217.197	0.132	0.212
-633.565	800.000	0.044	-0.144
-632.551	73.721	-0.077	-0.081
-631.536	-200.000	-0.018	-0.392
-630.522	-137.481	-0.156	0.018
-629.507	800.000	0.106	0.357
-628.492	-153.376	0.300	-0.021
-627.478	-6.094	0.158	0.109
-626.463	-200.000	-0.016	-0.188
-625.449	-46.769	0.151	-0.075
-624.434	79.149	-0.143	0.154
-623.419	0.731	-0.174	0.126
-622.405	-13.535	0.137	0.089
-621.390	147.691	0.053	0.071
-620.376	161.913	0.185	0.260
-619.361	41.095	0.176	0.160
-618.346	-41.742	0.264	-0.136
-617.332	-75.997	-0.120	0.043
-616.317	408.988	0.050	0.107
-615.303	12.583	-0.410	-0.318
-614.288	-200.000	0.046	0.210
-613.273	-42.524	0.170	-0.087
-612.259	101.367	0.045	0.052
-611.244	-142.410	-0.343	-0.034
-610.230	155.252	-0.101	-0.139
-609.215	-86.927	-0.073	-0.022
-608.201	-200.000	-0.002	-0.274
-607.186	-6.991	-0.218	0.149
-606.171	-200.000	0.027	0.263
-605.157	292.758	0.106	0.195
-604.142	-19.475	0.122	-0.076
-603.128	-120.544	-0.019	0.003
-602.113	680.713	0.116	-0.304
-601.098	-15.911	0.148	0.094
-600.084	800.000	0.044	0.194
-599.069	22.025	0.219	-0.180
-598.055	-200.000	-0.030	0.240
-597.040	154.781	0.015	-0.021
-596.025	-200.000	-0.000	-0.209
-595.011	-200.000	0.019	0.232
-593.996	720.111	-0.028	0.074
-592.982	-10.812	0.168	-0.112
-591.967	-52.413	-0.152	0.071
-590.952	168.145	0.198	-0.284
-589.938	489.801	0.014	0.033
-588.923	222.322	0.083	0.134
-587.909	603.398	0.069	0.172
-586.894	-200.000	-0.017	-0.117
-585.879	-99.791	0.161	0.040
-584.865	3.501	0.135	0.099
-583.850	-116.073	-0.301	0.056
-582.836	533.654	0.110	-0.261
-581.821	72.935	-0.049	-0.052
-580.806	-200.000	-0.003	0.089
-579.792	-66.322	0.122	-0.049
-578.777	137.187	0.145	0.190
-577.763	800.000	-0.041	0.140
-576.748	800.000	0.085	0.371
-575.733	-111.618	0.405	-0.083
-574.719	-171.355	-0.232	-0.008
-573.704	14.096	-0.206	0.161
-572.690	800.000	-0.020	0.068
-571.675	35.544	-0.202	0.178
-570.661	168.798	0.120	-0.172
-569.646	800.000	-0.104	0.351
-568.631	-200.000	-0.036	0.255
-567.617	-200.000	0.032	-0.307
-566.602	172.509	-0.195	-0.282
-565.588	-153.313	0.311	-0.022
-564.573	-200.000	0.008	-0.179
-563.558	-53.770	0.287	-0.131
-562.544	423.812	0.085	0.184
-561.529	-38.070	0.212	0.113
-560.515	-200.000	0.002	-0.101
-559.500	714.863	0.135	-0.360
-558.485	-89.563	0.173	-0.051
-557.471	800.000	-0.049	-0.199
-556.456	-83.053	-0.534	0.173
-555.442	77.846	0.076	-0.082
-554.427	-181.985	0.223	-0.004
-553.412	-124.198	0.111	0.017
-552.398	-200.000	0.039	-0.233
-551.383	147.929	0.055	0.074
-550.369	-155.766	-0.080	-0.005
-549.354	800.000	0.037	-0.111
-548.339	226.634	0.101	0.165
-547.325	394.110	-0.032	-0.066
-546.310	-79.777	-0.536	-0.181
-545.296	-200.000	0.000	-0.197
-544.281	-3.016	-0.137	0.096
-543.266	-63.829	0.032	0.013
-542.252	-112.619	-0.392	-0.078
-541.237	-39.406	0.071	0.037
-540.223	-106.521	-0.175	0.039
-539.208	158.271	-0.074	0.104
-538.193	-200.000	0.024	-0.168
-537.179	-64.290	0.276	0.113
-536.164	-37.613	-0.278	-0.149
-535.150	-38.751	0.271	0.143
-534.135	-158.680	-0.176	0.010
-533.121	-13.027	0.039	0.025
-532.106	-200.000	0.036	-0.199
-531.091	800.000	-0.050	0.146
-530.077	149.635	0.162	-0.220
-529.062	-122.002	0.240	-0.040
-528.048	113.624	0.247	-0.301
-527.033	80.842	0.071	-0.077
-526.018	44.651	-0.040	0.037
-525.004	-30.963	0.316	-0.179
-523.989	-105.474	-0.103	0.024
-522.975	360.320	0.085	0.171
-521.960	-62.219	0.041	0.017
-520.945	-35.709	-0.065	-0.035
-519.931	-5.144	0.036	0.025
-518.916	-200.000	-0.054	-0.322
-517.902	-0.673	-0.086	-0.061
-516.887	-200.000	-0.003	0.035
-515.872	-110.721	-0.318	-0.066
-514.858	-169.350	0.219	0.008
-513.843	564.455	-0.127	-0.308
-512.829	-69.530	-0.188	-0.072
-511.814	29.630	-0.062	-0.052
-510.799	-16.883	-0.317	-0.201
-509.785	123.737	-0.054	-0.068
-508.770	-143.115	0.234	0.023
-507.756	-157.123	-0.167	-0.010
-506.741	-200.000	0.080	-0.399
-505.726	345.005	-0.085	0.167
-504.712	-200.000	0.001	0.057
-503.697	800.000	0.072	0.234
-502.683	-139.624	-0.192	0.021
-501.668	-200.000	-0.057	0.359
-500.653	71.495	0.121	0.126
-499.639	216.108	-0.045	-0.071
-498.624	37.285	-0.128	0.113
-497.610	-149.076	-0.152	-0.012
-496.595	-12.252	0.058	-0.038
-495.581	125.703	-0.181	0.228
-494.566	-131.290	0.259	-0.034
-493.551	-64.759	-0.152	-0.062
-492.537	800.000	0.046	-0.188
-491.522	123.208	-0.117	-0.146
-490.508	124.085	-0.097	0.122
-489.493	160.967	-0.139	0.195
-488.478	363.458	-0.113	0.227
-487.464	-124.896	-0.149	0.023
-486.449	-200.000	-0.002	-0.049
-485.435	109.969	0.182	-0.218
-484.420	-115.296	0.314	-0.059
-483.405	-83.421	0.224	0.072
-482.391	29.912	-0.120	-0.102
-481.376	800.000	0.024	0.091
-480.362	-200.000	-0.003	0.034
-479.347	-155.559	0.098	-0.006
-478.332	-100.230	0.514	-0.128
-477.318	-148.358	0.301	0.025
-476.303	-200.000	0.007	-0.097
-475.289	-145.913	-0.215	-0.019
-474.274	-14.653	-0.399	-0.257
-473.259	70.237	-0.102	-0.105
-472.245	-139.721	-0.251	-0.027
-471.230	-200.000	-0.006	-0.083
-470.216	800.000	-0.084	0.277
-469.201	800.000	0.070	-0.209
-468.186	-13.842	-0.125	-0.081
-467.172	402.085	-0.085	0.178
-466.157	-200.000	-0.006	0.161
-465.143	396.388	-0.050	0.105
-464.128	-121.208	0.150	0.025
-463.113	-200.000	0.039	0.213
-462.099	152.038	-0.075	0.102
-461.084	-200.000	0.022	-0.371
-460.070	-129.617	-0.061	0.008
-459.055	27.122	0.167	-0.140
-458.040	-69.054	0.240	0.092
-457.026	-22.508	-0.094	-0.057
-456.011	28.634	0.214	0.181
-454.997	-10.323	0.446	0.296
-453.982	-60.711	-0.101	0.043
-452.968	-15.643	0.239	-0.152
-451.953	-100.441	0.050	-0.012
-450.938	-144.749	-0.093	-0.009
-449.924	-66.162	-0.061	-0.024
-448.909	108.265	-0.157	-0.187
-447.895	303.132	0.065	0.120
-446.880	-200.000	0.028	0.320
-445.865	-119.108	0.344	-0.060
-444.851	-200.000	-0.029	-0.430
-443.836	790.134	-0.086	-0.237
-442.822	-106.409	-0.304	0.068
-441.807	-200.000	0.016	-0.089
-440.792	-5.689	-0.336	0.230
-439.778	169.760	-0.146	0.209
-438.763	-200.000	0.018	0.114
-437.749	127.329	-0.085	0.108
-436.734	162.857	0.178	-0.250
-435.719	-133.691	-0.078	-0.010
-434.705	466.169	-0.078	-0.174
-433.690	266.056	0.094	-0.165
-432.676	265.731	-0.133	0.232
-431.661	118.380	0.174	-0.215
-430.646	33.143	-0.215	-0.186
-429.632	77.139	-0.279	0.296
-428.617	40.597	-0.293	0.263
-427.603	113.971	-0.191	0.231
-426.588	-66.326	0.285	0.113
-425.573	85.300	-0.386	-0.423
-424.559	-200.000	0.059	-0.296
-423.544	282.923	-0.051	-0.091
-422.530	-67.771	-0.171	-0.067
-421.515	-200.000	-0.014	0.119
-420.500	800.000	-0.118	0.354
-419.486	800.000	0.178	0.562
-418.471	800.000	-0.059	0.244
-417.457	340.873	0.006	0.012
-416.442	-157.870	0.174	0.010
-415.428	350.748	-0.150	-0.296
-414.413	-15.308	0.209	-0.134
-413.398	84.143	-0.184	0.200
-412.384	274.135	0.137	0.242
-411.369	14.933	0.208	0.162
-410.355	-80.035	0.278	-0.093
-409.340	213.179	0.026	-0.041
-408.325	130.846	-0.113	0.145
-407.311	-103.442	0.241	-0.057
-406.296	56.445	0.213	-0.206
-405.282	-46.275	-0.075	0.037
-404.267	409.565	-0.102	0.216
-403.252	-200.000	0.000	-0.289
-402.238	-150.783	0.366	-0.028
-401.223	-66.334	0.246	-0.098
-400.209	28.180	-0.112	0.094
-399.194	-55.867	0.148	-0.066
-398.179	-93.786	0.169	-0.046
-397.165	-200.000	-0.006	0.076
-396.150	-200.000	0.094	-0.522
-395.136	800.000	-0.005	0.014
-394.121	236.326	0.083	-0.137
-393.106	-44.420	-0.187	-0.093
-392.092	-41.490	-0.042	-0.022
-391.077	-200.000	0.002	-0.250
-390.063	-29.416	-0.060	0.034
-389.048	800.000	0.025	0.080
-388.033	-129.255	0.373	-0.052
-387.019	146.799	0.084	-0.113
-386.004	-136.214	-0.064	0.007
-384.990	-170.583	0.453	-0.016
-383.975	19.022	-0.284	0.227
-382.960	-73.328	0.040	-0.014
-381.946	-109.719	-0.187	-0.039
-380.931	115.366	0.131	0.159
-379.917	-69.137	0.513	-0.197
-378.902	-141.974	-0.110	0.011
-377.888	-158.867	0.422	0.024
-376.873	399.241	0.076	0.158
-375.858	68.350	0.338	-0.345
-374.844	-99.495	0.356	-0.089
-373.829	800.000	0.077	-0.259
-372.815	-67.679	-0.168	-0.065
-371.800	800.000	-0.047	-0.156
-370.785	-200.000	-0.067	-0.333
-369.771	-21.934	-0.127	0.077
-368.756	-159.662	-0.063	0.003
-367.742	160.289	0.081	0.113
-366.727	-139.278	-0.066	-0.007
-365.712	262.189	0.087	0.150
-364.698	613.171	-0.187	-0.465
-363.683	-42.491	0.400	-0.203
-362.669	-200.000	0.000	0.008
-361.654	404.273	0.162	-0.340
-360.639	800.000	0.045	0.195
-359.625	127.911	0.236	0.299
-358.610	239.926	0.095	0.158
-357.596	162.508	0.029	0.040
-356.581	117.976	-0.103	-0.126
-355.566	-5.414	0.135	0.092
-354.552	-200.000	-0.053	0.294
-353.537	57.713	0.264	-0.258
-352.523	22.300	-0.275	0.223
-351.508	-200.000	-0.012	0.483
-350.493	342.377	0.055	0.107
-349.479	41.894	0.214	-0.193
-348.464	732.802	-0.144	0.383
-347.450	800.000	-0.039	-0.147
-346.435	800.000	0.079	0.283
-345.420	46.324	0.049	-0.046
-344.406	-200.000	-0.014	-0.061
-343.391	-116.145	-0.080	0.015
-342.377	-140.759	-0.307	-0.032
-341.362	-170.462	0.181	0.006
-340.348	90.157	-0.071	0.079
-339.333	-91.439	-0.171	-0.049
-338.318	201.891	0.204	-0.313
-337.304	465.776	0.154	-0.344
-336.289	79.793	0.060	-0.064
-335.275	-133.792	0.300	-0.037
-334.260	-200.000	-0.029	-0.236
-333.245	-138.849	0.086	0.009
-332.231	-103.349	-0.187	0.044
-331.216	622.637	0.081	-0.202
-330.202	25.650	-0.102	0.084
-329.187	-49.246	-0.056	0.027
-328.172	-200.000	-0.001	-0.066
-327.158	48.321	-0.127	-0.119
-326.143	155.607	-0.108	0.149
-325.129	170.136	0.140	0.200
-324.114	-200.000	-0.001	0.360
-323.099	800.000	0.112	0.344
-322.085	-115.244	0.125	0.024
-321.070	-175.907	-0.440	-0.012
-320.056	800.000	-0.091	-0.286
-319.041	-67.258	0.327	-0.128
-318.026	-38.568	0.111	0.058
-317.012	-28.092	0.211	0.121
-315.997	735.204	-0.075	-0.201
-314.983	-63.327	0.238	0.097
-313.968	800.000	0.027	-0.105
-312.953	65.491	-0.112	0.113
-311.939	-200.000	0.035	0.417
-310.924	800.000	-0.030	0.105
-309.910	800.000	0.057	0.224
-308.895	-200.000	-0.077	0.426
-307.880	-59.096	-0.167	-0.072
-306.866	800.000	0.102	-0.296
-305.851	-20.864	0.132	-0.080
-304.837	-200.000	0.027	0.269
-303.822	174.229	0.090	-0.129
-302.807	-99.704	0.174	-0.043
-301.793	-23.850	-0.314	-0.187
-300.778	23.166	-0.055	0.045
-299.764	-136.800	-0.088	-0.010
-298.749	-200.000	0.014	-0.174
-297.735	2.797	0.293	-0.211
-296.720	-43.807	0.274	-0.137
-295.705	84.684	0.128	0.139
-294.691	-200.000	-0.055	0.289
-293.676	-101.766	0.444	0.107
-292.662	-144.206	-0.492	0.046
-291.647	-88.452	-0.148	-0.044
-290.632	-143.088	-0.091	-0.009
-289.618	-87.482	-0.098	0.030
-288.603	-169.692	0.113	0.004
-287.589	213.501	0.104	-0.164
-286.574	397.881	-0.071	-0.148
-285.559	-132.124	-0.307	-0.040
-284.545	147.342	-0.067	-0.089
-283.530	-200.000	0.028	0.181
-282.516	-200.000	0.015	-0.144
-281.501	-187.998	-0.169	-0.002
-280.486	25.934	-0.243	0.201
-279.472	-75.837	-0.190	0.067
-278.457	-135.907	-0.280	0.033
-277.443	-118.562	-0.377	-0.066
-276.428	800.000	-0.056	-0.179
-275.413	7.811	-0.162	-0.121
-274.399	141.483	0.243	-0.320
-273.384	-200.000	0.027	0.177
-272.370	-74.589	0.144	0.052
-271.355	255.846	-0.200	0.341
-270.340	87.447	0.043	-0.047
-269.326	31.990	-0.115	-0.098
-268.311	800.000	-0.041	0.145
-267.297	74.727	-0.119	-0.124
-266.282	-44.822	-0.069	0.034
-265.267	-200.000	-0.011	0.389
-264.253	-42.520	-0.107	0.054
-263.238	173.611	-0.178	0.256
-262.224	-174.549	-0.118	-0.003
-261.209	178.733	-0.197	0.285
-260.195	-200.000	0.005	0.112
-259.180	-163.577	0.163	0.008
-258.165	46.164	-0.191	0.175
-257.151	-200.000	0.031	-0.359
-256.136	-200.000	0.013	-0.142
-255.122	-12.462	0.201	-0.130
-254.107	800.000	-0.069	-0.282
-253.092	800.000	0.008	-0.027
-252.078	-200.000	-0.035	-0.171
-251.063	-69.926	0.374	-0.141
-250.049	-30.463	-0.194	-0.109
-249.034	168.838	-0.198	0.281
-248.019	-97.684	-0.338	0.087
-247.005	181.916	-0.254	0.370
-245.990	318.827	-0.186	0.350
-244.976	800.000	-0.057	0.219
-243.961	800.000	0.012	-0.050
-242.946	106.229	-0.128	0.150
-241.932	710.673	0.053	0.138
-240.917	12.147	-0.168	-0.128
-239.903	307.314	-0.166	-0.307
-238.888	-8.346	-0.199	0.132
-237.873	82.233	0.127	-0.137
-236.859	183.675	-0.071	0.105
-235.844	-200.000	-0.005	0.203
-234.830	800.000	-0.072	-0.231
-233.815	43.012	0.193	-0.174
-232.800	332.771	-0.077	0.147
-231.786	45.276	-0.159	0.146
-230.771	-96.819	0.297	-0.077
-229.757	-136.566	-0.280	0.032
-228.742	-171.841	-0.295	0.010
-227.727	193.789	0.127	-0.190
-226.713	-62.523	0.416	-0.171
-225.698	-45.009	-0.115	-0.057
-224.684	-142.344	-0.306	0.030
-223.669	-101.172	0.365	-0.089
-222.655	-82.050	0.236	-0.076
-221.640	800.000	0.059	0.211
-220.625	-200.000	0.012	-0.165
-219.611	-45.711	0.168	-0.082
-218.596	-65.642	0.130	-0.051
-217.582	-200.000	0.067	0.000
-216.567	310.106	-0.101	-0.187
-215.552	88.216	-0.254	0.279
-214.538	621.301	-0.169	-0.421
-213.523	-1.483	-0.215	-0.150
-212.509	-200.000	0.011	0.348
-211.494	-200.000	0.001	0.333
-210.479	-17.783	-0.391	0.243
-209.465	-200.000	0.004	0.229
-208.450	113.070	0.284	0.341
-207.436	-200.000	-0.031	0.269
-206.421	800.000	-0.041	0.156
-205.406	-46.573	0.028	0.013
-204.392	800.000	0.030	-0.099
-203.377	191.767	0.091	0.135
-202.363	-64.174	0.166	0.067
-201.348	717.064	0.216	0.567
-200.333	3.699	0.117	-0.084
-199.319	200.801	-0.034	-0.051
-198.304	116.483	0.119	-0.145
-197.290	-42.877	-0.263	-0.132
-196.275	-140.775	0.342	0.035
-195.260	375.539	-0.084	0.169
-194.246	692.571	-0.139	0.361
-193.231	-200.000	-0.085	0.496
-192.217	-104.148	-0.126	-0.029
-191.202	-200.000	0.057	-0.413
-190.187	-71.110	-0.258	-0.096
-189.173	-63.028	-0.109	0.044
-188.158	-200.000	-0.024	0.118
-187.144	37.535	0.080	0.070
-186.129	-200.000	-0.017	-0.096
-185.114	-159.998	0.059	-0.003
-184.100	479.297	-0.135	-0.304
-183.085	323.420	0.166	-0.314
-182.071	-200.000	0.065	-0.418
-181.056	-2.170	-0.220	0.153
-180.042	246.829	-0.017	-0.028
-179.027	-148.336	-0.101	0.008
-178.012	445.470	-0.130	-0.283
-176.998	800.000	-0.051	-0.142
-175.983	405.098	-0.016	0.033
-174.969	800.000	0.034	0.114
-173.954	-200.000	-0.022	-0.325
-172.939	-46.938	0.402	0.194
-171.925	243.715	0.134	0.223
-170.910	66.513	0.094	-0.095
-169.896	-91.386	-0.484	-0.137
-168.881	55.416	-0.213	0.204
-167.866	800.000	0.080	-0.338
-166.852	431.219	-0.139	-0.297
-165.837	-200.000	-0.043	-0.222
-164.823	-54.344	-0.163	-0.073
-163.808	250.828	-0.063	-0.105
-162.793	4.774	-0.258	0.187
-161.779	494.083	-0.085	0.193
-160.764	19.055	-0.119	-0.094
-159.750	-121.647	-0.221	-0.036
-158.735	64.689	0.171	-0.171
-157.720	-36.617	-0.116	-0.062
-156.706	-200.000	0.010	0.284
-155.691	-190.891	-0.180	-0.002
-154.677	800.000	0.058	-0.231
-153.662	-112.865	0.304	-0.059
-152.647	573.164	-0.101	0.243
-151.633	10.246	-0.070	0.052
-150.618	-200.000	0.004	-0.120
-149.604	27.086	0.259	0.215
-148.589	-200.000	0.000	0.032
-147.574	800.000	-0.120	-0.375
-146.560	-53.302	0.206	0.093
-145.545	-99.560	0.293	-0.073
-144.531	90.856	-0.062	-0.069
-143.516	-40.768	-0.197	0.101
-142.502	312.670	-0.060	-0.112
-141.487	-200.000	-0.009	-0.216
-140.472	-100.327	-0.272	-0.067
-139.458	-0.170	0.315	-0.221
-138.443	800.000	-0.061	0.248
-137.429	-200.000	0.073	-0.367
-136.414	-103.548	0.168	0.039
-135.399	147.630	0.223	0.297
-134.385	-66.564	0.140	0.055
-133.370	34.000	0.204	0.175
-132.356	60.910	-0.180	-0.177
-131.341	-94.210	-0.473	-0.128
-130.326	-200.000	0.016	0.202
-129.312	-69.281	0.279	-0.106
-128.297	800.000	-0.038	-0.123
-127.283	2.115	-0.137	-0.098
-126.268	-87.839	-0.175	-0.052
-125.253	-200.000	0.021	-0.129
-124.239	-99.951	0.263	0.065
-123.224	743.679	-0.076	-0.201
-122.210	33.557	-0.176	-0.151
-121.195	-52.166	0.362	0.166
-120.180	46.264	-0.191	-0.175
-119.166	465.289	-0.108	-0.238
-118.151	-48.013	0.234	-0.111
-117.137	383.574	0.135	0.274
-116.122	57.160	-0.107	0.103
-115.107	-124.347	0.190	0.029
-114.093	-51.393	0.167	-0.077
-113.078	199.243	-0.063	0.095
-112.064	-154.319	-0.267	-0.018
-111.049	-22.016	-0.162	-0.097
-110.034	-89.054	-0.216	0.063
-109.020	85.049	0.291	0.315
-108.005	119.647	0.145	-0.177
-106.991	-137.705	-0.083	-0.009
-105.976	-56.466	0.354	-0.155
-104.962	171.165	0.175	0.248
-103.947	-64.674	0.343	0.137
-102.932	790.969	0.086	-0.233
-101.918	-66.685	0.356	-0.139
-100.903	-200.000	-0.049	-0.432
-99.889	28.903	-0.055	0.046
-98.874	412.909	-0.127	0.266
-97.859	-10.469	-0.274	-0.179
-96.845	336.039	0.126	-0.241
-95.830	800.000	0.069	0.218
-94.816	256.570	-0.091	0.155
-93.801	31.072	0.130	-0.110
-92.786	-88.282	0.264	-0.078
-91.772	129.732	-0.079	-0.100
-90.757	-200.000	0.001	0.230
-89.743	-96.729	-0.268	0.070
-88.728	2.515	-0.440	-0.314
-87.713	-25.243	-0.128	-0.074
-86.699	-146.858	0.284	0.024
-85.684	-86.564	-0.070	0.021
-84.670	5.142	-0.063	0.046
-83.655	-79.119	-0.116	-0.039
-82.640	109.544	-0.113	-0.133
-81.626	-113.855	0.213	-0.041
-80.611	573.849	-0.138	0.331
-79.597	-50.621	0.191	-0.089
-78.582	-12.977	-0.276	-0.177
-77.567	57.689	0.072	0.069
-76.553	-31.041	0.254	-0.141
-75.538	125.994	-0.057	0.071
-74.524	2.443	-0.242	-0.172
-73.509	-200.000	-0.004	0.158
-72.494	-74.074	-0.088	-0.031
-71.480	22.548	-0.162	0.131
-70.465	-17.588	-0.337	0.209
-69.451	1.489	0.131	0.093
-68.436	115.224	-0.132	-0.158
-67.422	-45.200	-0.232	-0.113
-66.407	800.000	-0.087	0.307
-65.392	144.163	-0.154	-0.202
-64.378	30.370	-0.078	-0.066
-63.363	-110.823	0.225	0.046
-62.349	-200.000	0.009	0.180
-61.334	46.011	-0.751	-0.684
-60.319	800.000	0.269	0.766
-59.305	507.107	-0.324	-0.739
-58.290	610.107	0.425	1.046
-57.276	-200.000	0.405	1.770
-56.261	-200.000	96.323	577.766
-55.246	557.589	1375.705	3264.639
-54.232	160.620	2550.869	3504.097
-53.217	112.514	2141.864	2550.890
-52.203	44.530	1604.490	1450.895
-51.188	36.396	1342.942	1165.506
-50.173	33.246	1300.617	1110.278
-49.159	55.425	1347.457	1283.088
-48.144	57.454	1365.005	1311.853
-47.130	36.506	1323.056	1148.719
-46.115	33.067	1305.538	1113.247
-45.100	32.829	1301.377	1108.256
-44.086	32.802	1298.391	1105.510
-43.071	32.694	1296.686	1103.384
-42.057	32.661	1294.205	1101.035
-41.042	32.707	1292.790	1100.058
-40.027	32.751	1291.216	1098.929
-39.013	32.847	1289.360	1097.866
-37.998	32.821	1287.414	1096.013
-36.984	32.755	1285.897	1094.299
-35.969	32.828	1284.071	1093.121
-34.954	32.977	1281.916	1092.109
-33.940	32.891	1280.924	1090.724
-32.925	32.992	1279.466	1090.022
-31.911	32.904	1278.158	1088.354
-30.896	32.906	1276.818	1087.180
-29.881	33.042	1275.408	1086.720
-28.867	32.998	1273.946	1085.180
-27.852	32.952	1272.239	1083.420
-26.838	33.001	1270.933	1082.542
-25.823	33.076	1269.385	1081.611
-24.809	32.990	1268.842	1080.615
-23.794	32.957	1267.222	1079.005
-22.779	32.932	1265.779	1077.590
-21.765	32.921	1264.914	1076.744
-20.750	32.947	1263.187	1075.380
-19.736	32.837	1261.956	1073.666
-18.721	32.917	1260.681	1072.991
-17.706	32.885	1259.670	1071.907
-16.692	32.848	1258.262	1070.455
-15.677	32.725	1257.407	1068.991
-14.663	32.827	1256.402	1068.670
-13.648	32.774	1255.692	1067.728
-12.633	32.896	1254.182	1067.087
-11.619	32.729	1253.600	1065.606
-10.604	32.846	1252.690	1065.454
-9.590	32.773	1252.044	1064.447
-8.575	32.761	1251.068	1063.510
-7.560	32.833	1250.164	1063.105
-6.546	32.805	1249.545	1062.378
-5.531	32.796	1248.447	1061.352
-4.517	32.753	1247.400	1060.178
-3.502	32.812	1246.468	1059.672
-2.487	32.699	1246.038	1058.629
-1.473	32.714	1241.409	1054.739
-0.458	31.408	1226.581	1034.874
0.556	28.605	1209.239	998.551
1.571	25.020	1215.182	983.728
2.586	24.170	1230.574	991.369
3.600	23.670	1220.138	980.118
4.615	17.439	1147.658	889.356
5.629	7.014	1070.294	778.270
6.644	2.538	1049.150	741.203
7.659	2.089	1046.600	737.171
8.673	1.886	1045.415	735.289
9.688	1.840	1044.173	734.130
10.702	2.373	1043.123	735.892
11.717	9.163	1052.311	775.170
12.731	19.278	1066.545	834.827
13.746	24.349	1072.569	864.107
14.761	25.280	1073.691	869.442
15.775	25.296	1073.358	869.176
16.790	24.978	1072.795	867.104
17.804	25.051	1071.664	866.467
18.819	25.127	1071.454	866.586
19.834	25.226	1071.339	866.896
20.848	25.261	1070.776	866.533
21.863	25.277	1070.117	866.000
22.877	25.201	1069.113	864.742
23.892	25.160	1068.807	864.225
24.907	25.244	1067.695	863.652
25.921	25.170	1067.203	862.821
26.936	25.121	1065.949	861.497
27.950	25.102	1064.349	860.036
28.965	24.992	1062.167	857.669
29.980	25.038	1060.905	856.795
30.994	25.223	1060.162	857.004
32.009	25.193	1058.701	855.603
33.023	25.040	1057.776	854.048
34.038	25.122	1057.012	853.750
35.053	25.170	1056.955	853.852
36.067	25.142	1056.078	852.939
37.082	25.435	1054.876	853.281
38.096	25.563	1054.138	853.219
39.111	25.483	1053.519	852.262
40.126	25.322	1052.456	850.565
41.140	24.971	1050.853	847.533
42.155	24.880	1048.965	845.506
43.169	24.819	1048.430	844.712
44.184	24.983	1047.688	844.814
45.199	24.707	1046.271	842.293
46.213	24.855	1045.474	842.275
47.228	25.060	1045.136	842.891
48.242	25.165	1044.321	842.654
49.257	25.178	1043.581	842.043
50.271	25.242	1042.892	841.714
51.286	25.326	1042.307	841.562
52.301	25.321	1041.006	840.412
53.315	25.109	1040.796	839.174
54.330	25.213	1039.253	838.344
55.344	25.305	1038.510	838.099
56.359	25.060	1038.058	836.516
57.374	25.040	1036.850	835.379
58.388	24.938	1036.312	834.396
59.403	24.912	1035.131	833.246
60.417	24.755	1034.429	831.879
61.432	24.952	1033.418	831.907
62.447	24.979	1033.241	831.819
63.461	24.979	1032.306	830.993
64.476	24.879	1031.474	829.784
65.490	24.819	1030.723	828.830
66.505	24.918	1029.819	828.487
67.520	24.988	1029.554	828.526
68.534	24.822	1028.161	826.564
69.549	24.536	1026.486	823.826
70.563	24.460	1026.041	823.045
71.578	24.460	1025.425	822.477
72.593	24.336	1024.246	820.888
73.607	24.408	1024.506	821.353
74.622	24.845	1023.435	822.431
75.636	24.736	1023.062	821.561
76.651	24.847	1021.072	820.397
77.666	24.565	1020.934	818.921
78.680	24.481	1020.860	818.403
79.695	24.807	1019.784	818.962
80.709	24.726	1019.404	818.215
81.724	24.822	1018.606	817.941
82.739	24.940	1017.380	817.420
83.753	25.294	1017.224	818.839
84.768	25.476	1016.303	818.856
85.782	25.510	1015.451	818.248
86.797	25.394	1014.568	816.938
87.812	25.296	1013.579	815.626
88.826	25.448	1012.550	815.413
89.841	25.494	1011.746	814.901
90.855	25.551	1010.681	814.232
91.870	25.486	1009.989	813.308
92.884	25.287	1008.929	811.485
93.899	25.304	1008.062	810.792
94.914	25.424	1007.158	810.533
95.928	25.297	1005.874	808.854
96.943	25.073	1004.786	806.900
97.957	24.960	1003.449	805.248
98.972	24.585	1002.863	803.021
99.987	24.929	1002.111	803.891
101.001	25.136	1001.504	804.263
102.016	25.162	1000.706	803.666
103.030	25.012	999.903	802.281
104.045	24.948	998.757	801.006
105.060	24.806	997.669	799.426
106.074	25.024	996.890	799.705
107.089	25.428	996.590	801.193
108.103	25.217	995.554	799.351
109.118	24.986	993.966	796.976
110.133	24.953	993.028	796.009
111.147	24.857	991.970	794.661
112.162	24.654	991.360	793.205
113.176	24.929	990.720	793.841
114.191	24.765	990.021	792.482
115.206	24.519	989.010	790.514
116.220	24.405	988.442	789.486
117.235	24.620	987.412	789.547
118.249	24.643	986.137	788.558
119.264	24.592	985.357	787.639
120.279	24.532	984.855	786.901
121.293	24.692	984.209	787.022
122.308	24.658	983.179	785.981
123.322	24.637	981.966	784.849
124.337	24.398	980.843	782.831
125.352	23.965	978.884	779.302
126.366	23.895	978.425	778.561
127.381	24.651	978.357	781.747
128.395	25.121	977.666	783.179
129.410	25.140	977.508	783.067
130.424	25.015	976.481	781.631
131.439	25.233	975.284	781.554
132.454	25.088	974.354	780.105
133.468	25.054	973.660	779.336
134.483	25.268	972.911	779.596
135.497	25.398	971.916	779.292
136.512	25.435	971.172	778.788
137.527	25.349	970.696	777.963
138.541	25.478	969.750	777.695
139.556	25.455	968.750	776.725
140.570	25.495	968.390	776.542
141.585	25.394	967.156	775.047
142.600	25.477	966.131	774.516
143.614	25.703	965.374	774.813
144.629	25.853	964.725	774.867
145.643	25.508	963.785	772.563
146.658	25.340	962.227	770.526
147.673	25.368	961.097	769.671
148.687	25.235	960.624	768.653
149.702	25.295	959.453	767.905
150.716	25.222	958.749	766.964
151.731	25.300	958.257	766.836
152.746	25.553	957.376	767.140
153.760	25.561	957.087	766.877
154.775	25.629	956.345	766.506
155.789	25.593	955.292	765.438
156.804	25.497	954.427	764.269
157.819	25.618	954.098	764.455
158.833	25.821	952.970	764.344
159.848	25.611	952.414	762.940
160.862	25.592	950.672	761.397
161.877	25.530	950.113	760.617
162.892	25.599	948.693	759.705
163.906	25.538	947.985	758.815
164.921	25.561	947.158	758.183
165.935	25.646	946.530	757.970
166.950	25.584	945.533	756.844
167.964	25.541	944.477	755.751
168.979	25.450	943.307	754.366
169.994	25.488	942.162	753.541
171.008	25.599	942.501	754.214
172.023	25.619	941.583	753.494
173.037	25.505	939.977	751.665
174.052	25.211	939.550	750.030
175.067	25.274	938.681	749.534
176.081	25.390	938.257	749.612
177.096	25.334	937.568	748.763
178.110	25.104	936.503	746.889
179.125	24.898	935.714	745.332
180.140	24.921	935.438	745.145
181.154	25.216	935.319	746.209
182.169	25.508	934.750	746.902
183.183	25.634	934.511	747.169
184.198	25.527	933.703	746.016
185.213	25.505	932.999	745.295
186.227	25.519	932.106	744.572
187.242	25.532	931.928	744.420
188.256	25.699	930.898	744.220
189.271	25.780	930.051	743.812
190.286	25.313	929.150	741.101
191.300	24.686	927.809	737.377
192.315	23.918	926.172	732.848
193.329	23.945	925.816	732.612
194.344	24.864	926.445	736.831
195.359	25.489	926.252	739.183
196.373	25.543	925.744	738.937
197.388	25.391	925.127	737.751
198.402	25.435	924.269	737.185
199.417	25.390	924.287	736.951
200.432	25.187	922.671	734.764
201.446	25.002	922.126	733.506
202.461	25.023	921.624	733.129
203.475	24.289	919.462	728.345
204.490	23.575	918.250	724.407
205.504	24.469	918.788	728.420
206.519	25.025	918.882	730.698
207.534	25.140	918.129	730.500
208.548	25.454	918.117	731.706
209.563	25.400	916.644	730.249
210.577	25.346	916.416	729.783
211.592	25.743	915.909	730.926
212.607	25.593	915.447	729.883
213.621	25.770	914.436	729.732
214.636	25.707	914.003	729.065
215.650	25.548	913.390	727.868
216.665	25.712	912.810	728.005
217.680	25.757	911.633	727.186
218.694	25.136	910.730	723.895
219.709	24.987	910.412	722.973
220.723	25.309	909.946	723.838
221.738	25.496	909.044	723.812
222.753	25.575	908.228	723.417
223.767	25.471	908.162	722.882
224.782	25.705	908.063	723.680
225.796	25.718	907.322	723.075
226.811	25.141	905.652	719.366
227.826	24.379	904.245	715.133
228.840	24.771	903.956	716.411
229.855	24.804	903.077	715.785
230.869	24.288	902.442	713.153
231.884	24.684	902.433	714.667
232.899	25.458	902.710	717.916
233.913	25.398	901.541	716.685
234.928	25.315	901.070	715.915
235.942	25.255	900.804	715.400
236.957	25.011	899.457	713.297
237.972	25.131	898.876	713.250
238.986	24.994	898.609	712.432
240.001	25.212	897.788	712.584
241.015	25.243	897.209	712.183
242.030	25.327	897.264	712.498
243.045	25.570	896.374	712.692
244.059	25.631	895.972	712.548
245.074	25.556	894.706	711.184
246.088	24.995	894.344	708.616
247.103	25.370	893.954	709.724
248.117	26.002	893.771	712.011
249.132	26.117	893.444	712.145
250.147	26.375	892.628	712.446
251.161	26.357	892.481	712.196
252.176	26.336	891.865	711.557
253.190	26.498	891.076	711.504
254.205	26.514	891.060	711.491
255.220	26.631	890.065	711.092
256.234	26.284	889.629	709.316
257.249	26.153	888.595	707.919
258.263	26.312	888.023	708.023
259.278	26.348	887.790	707.914
260.293	26.406	886.959	707.416
261.307	26.442	885.853	706.611
262.322	26.175	885.376	705.125
263.336	25.414	883.519	700.617
264.351	24.399	881.542	695.037
265.366	24.490	881.210	695.067
266.380	25.641	881.705	699.877
267.395	26.007	881.822	701.334
268.409	26.056	880.977	700.790
269.424	26.071	880.995	700.799
270.439	26.311	879.957	700.843
271.453	26.330	879.002	700.093
272.468	26.266	879.452	700.142
273.482	26.533	878.499	700.355
274.497	26.039	877.322	697.443
275.512	25.640	876.374	695.088
276.526	26.074	876.568	696.857
277.541	26.245	876.213	697.174
278.555	25.986	875.465	695.517
279.570	25.980	874.521	694.682
280.585	26.030	874.328	694.660
281.599	26.050	872.933	693.568
282.614	25.400	871.964	690.239
283.628	25.477	871.152	689.831
284.643	25.752	871.713	691.271
285.657	25.344	870.392	688.598
286.672	25.096	869.072	686.542
287.687	25.725	869.412	689.160
288.701	25.813	868.681	688.856
289.716	25.371	868.043	686.600
290.730	25.369	866.997	685.705
291.745	25.054	866.381	683.953
292.760	25.487	866.264	685.454
293.774	26.451	866.448	689.212
294.789	26.606	866.714	689.952
295.803	26.737	865.746	689.619
296.818	26.827	865.250	689.508
297.833	26.300	863.648	686.170
298.847	26.278	862.962	685.478
299.862	26.510	863.082	686.394
300.876	26.806	862.825	687.251
301.891	26.639	862.075	685.960
302.906	26.156	861.088	683.287
303.920	26.475	860.498	683.965
304.935	26.940	860.424	685.602
305.949	26.629	859.806	683.874
306.964	26.461	859.426	682.880
307.979	26.502	858.801	682.476
308.993	26.663	858.723	682.960
310.008	26.816	858.057	682.946
311.022	26.603	856.868	681.139
312.037	26.429	856.369	680.027
313.052	26.157	855.359	678.144
314.066	25.211	853.925	673.398
315.081	24.991	853.008	671.790
316.095	25.773	853.926	675.389
317.110	26.391	853.435	677.256
318.125	25.569	851.687	672.737
319.139	24.470	850.738	667.815
320.154	24.462	850.266	667.357
321.168	25.437	850.185	670.875
322.183	26.010	850.325	673.068
323.197	26.108	850.386	673.421
324.212	26.377	849.976	674.040
325.227	26.522	849.185	673.892
326.241	26.355	848.512	672.679
327.256	26.275	847.871	671.814
328.270	26.276	847.017	671.081
329.285	25.943	846.523	669.394
330.300	25.811	845.674	668.174
331.314	26.072	845.325	668.805
332.329	26.261	845.755	669.790
333.343	26.522	844.982	670.084
334.358	26.610	844.468	669.942
335.373	26.744	844.100	670.086
336.387	26.907	844.169	670.685
337.402	27.097	843.872	671.090
338.416	26.967	843.567	670.309
339.431	26.995	843.375	670.199
340.446	27.245	842.676	670.507
341.460	27.074	842.252	669.481
342.475	26.951	841.559	668.419
343.489	26.996	841.327	668.339
344.504	27.270	841.310	669.277
345.519	27.489	840.960	669.744
346.533	27.584	840.077	669.330
347.548	27.435	839.892	668.575
348.562	27.422	839.227	667.938
349.577	27.399	838.631	667.321
350.592	27.358	838.056	666.656
351.606	27.263	837.193	665.564
352.621	27.211	836.646	664.879
353.635	27.095	835.850	663.765
354.650	26.439	834.349	660.119
355.665	25.584	832.578	655.544
356.679	25.875	832.381	656.390
357.694	26.428	831.770	657.865
358.708	26.429	831.448	657.554
359.723	26.859	831.208	658.868
360.738	27.061	831.124	659.477
361.752	27.057	830.647	659.026
362.767	27.561	830.402	660.602
363.781	27.836	830.022	661.234
364.796	27.709	829.618	660.395
365.810	27.895	829.042	660.552
366.825	27.787	829.234	660.257
367.840	27.462	828.210	658.207
368.854	27.068	826.859	655.654
369.869	27.018	826.849	655.408
370.883	27.083	826.824	655.563
371.898	27.023	826.262	654.846
372.913	27.040	825.758	654.448
373.927	27.182	825.052	654.342
374.942	27.389	824.863	654.877
375.956	27.465	824.185	654.555
376.971	27.508	824.498	654.903
377.986	27.640	823.819	654.778
379.000	27.681	823.195	654.371
380.015	27.573	822.480	653.360
381.029	27.685	821.702	653.082
382.044	27.572	821.483	652.445
383.059	27.792	820.783	652.618
384.073	27.891	820.235	652.480
385.088	27.638	819.724	651.111
386.102	27.536	818.815	649.969
387.117	27.467	818.277	649.238
388.132	27.166	816.793	646.934
389.146	26.686	816.048	644.578
390.161	27.057	816.103	645.884
391.175	27.427	816.390	647.372
392.190	27.049	815.193	645.020
393.205	25.759	812.948	638.616
394.219	24.198	811.373	631.792
395.234	24.194	810.769	631.253
396.248	25.958	812.093	638.481
397.263	27.261	813.611	644.234
398.278	27.033	813.304	643.128
399.292	26.932	812.463	642.050
400.307	27.055	811.654	641.788
401.321	27.035	811.411	641.468
402.336	27.540	811.485	643.253
403.350	27.817	811.366	644.077
404.365	28.088	811.241	644.880
405.380	28.467	810.906	645.891
406.394	28.402	810.315	645.132
407.409	28.257	809.822	644.174
408.423	28.437	809.035	644.123
409.438	28.474	808.521	643.786
410.453	28.617	808.264	644.029
411.467	28.328	808.118	642.841
412.482	28.394	807.595	642.597
413.496	28.539	806.990	642.569
414.511	28.395	806.582	641.683
415.526	28.509	806.435	641.909
416.540	28.165	805.700	640.062
417.555	28.066	805.048	639.144
418.569	28.108	804.459	638.765
419.584	28.118	803.889	638.289
420.599	27.930	803.423	637.208
421.613	111.090	1285.274	1456.153
422.628	95.942	1355.462	1456.273
