DTS Sentinel unit serial number:	SN413079Multiplexer serial number:	ORYXHardware model number:	OX4-SRSoftware version number:	ORYX F/W v4.00 Oryx Data Collector v3.7.2.0data status	okinstallation	princeton_trtdifferential loss correction	single-endedforward channel	channel 1reverse channel	N/Adate	2019/09/14time	08:38:35forward acquisition time	60.00reverse acquisition time	0.00gamma	496.2192k internal	0.2326k external	0.2326temperature offset calibration	1.0076default loss term (dB/km)	0.3790temperature slope calibration	1.0000multiplexer offset coefficient	1.0000multiplexer slope coefficient	1.0000fibre end	0.00T internal ref (°C)	28.81T ext. ref 1 (°C)	3.66T ext. ref 2 (°C)	26.26length (m)	temperature (°C)	Stokes	anti-Stokes-747.200	-200.000	0.020	-0.091
-746.185	153.838	-0.115	0.159
-745.171	9.522	-0.213	-0.162
-744.156	-134.535	0.074	0.009
-743.142	273.081	-0.081	0.144
-742.127	-76.219	-0.449	0.160
-741.112	103.584	-0.053	-0.063
-740.098	19.884	0.162	0.132
-739.083	-101.482	-0.456	0.112
-738.069	-45.753	-0.269	0.134
-737.054	105.893	-0.153	0.183
-736.039	286.131	-0.111	-0.202
-735.025	25.589	-0.120	0.100
-734.010	-48.266	0.151	-0.073
-732.996	-42.284	0.212	-0.109
-731.981	26.545	-0.180	-0.152
-730.966	800.000	0.070	0.239
-729.952	143.437	-0.093	0.125
-728.937	683.948	-0.013	-0.034
-727.923	-98.999	-0.278	0.071
-726.908	-6.742	-0.157	-0.108
-725.894	800.000	0.050	-0.163
-724.879	-77.642	0.089	-0.031
-723.864	-200.000	-0.027	-0.187
-722.850	636.775	-0.121	-0.308
-721.835	800.000	0.035	0.150
-720.821	-192.352	-0.178	0.002
-719.806	1.691	-0.368	0.267
-718.791	-200.000	-0.023	-0.187
-717.777	-100.219	-0.126	-0.031
-716.762	-58.808	-0.093	0.041
-715.748	241.187	-0.134	-0.225
-714.733	-63.709	0.159	0.066
-713.718	68.800	0.123	0.127
-712.704	35.632	-0.159	-0.141
-711.689	310.873	-0.065	-0.123
-710.675	800.000	0.051	0.145
-709.660	239.912	-0.023	0.039
-708.645	-17.410	0.135	0.086
-707.631	800.000	-0.072	-0.219
-706.616	222.652	0.129	0.210
-705.602	800.000	0.054	-0.166
-704.587	-200.000	-0.010	0.120
-703.572	223.640	0.174	0.283
-702.558	-200.000	0.035	0.270
-701.543	800.000	-0.098	-0.294
-700.529	15.248	0.257	-0.203
-699.514	-135.246	-0.220	0.027
-698.499	800.000	0.033	0.129
-697.485	-65.706	0.114	0.046
-696.470	-125.882	0.336	0.051
-695.456	-200.000	-0.061	0.373
-694.441	-87.686	-0.145	0.044
-693.426	-200.000	0.016	0.261
-692.412	800.000	0.070	0.212
-691.397	-53.365	0.162	0.075
-690.383	-86.028	0.078	-0.024
-689.368	-200.000	0.021	-0.106
-688.354	-77.642	-0.091	-0.032
-687.339	50.034	-0.195	0.185
-686.324	101.966	-0.236	0.277
-685.310	191.137	-0.038	-0.057
-684.295	305.746	0.079	-0.148
-683.281	9.748	-0.093	0.071
-682.266	-60.262	-0.313	0.134
-681.251	-86.091	-0.371	-0.115
-680.237	-200.000	0.077	-0.577
-679.222	-53.896	-0.027	-0.013
-678.208	248.428	-0.127	0.216
-677.193	-2.695	0.234	-0.165
-676.178	568.444	-0.036	0.087
-675.164	171.289	0.155	-0.224
-674.149	10.826	0.285	-0.219
-673.135	-167.848	0.488	0.019
-672.120	310.467	0.105	-0.198
-671.105	800.000	-0.054	-0.191
-670.091	182.333	-0.160	-0.238
-669.076	-200.000	0.023	0.320
-668.062	800.000	-0.068	-0.282
-667.047	75.558	0.174	0.185
-666.032	-200.000	0.021	0.173
-665.018	331.484	0.113	0.219
-664.003	144.810	-0.080	-0.108
-662.989	-90.200	0.104	-0.030
-661.974	800.000	-0.019	0.073
-660.959	800.000	0.041	0.170
-659.945	598.799	-0.050	-0.125
-658.930	-200.000	0.008	0.303
-657.916	10.300	0.010	0.008
-656.901	16.005	0.095	0.075
-655.886	-39.428	-0.051	0.027
-654.872	18.211	-0.174	0.139
-653.857	5.129	0.202	-0.149
-652.843	800.000	0.036	-0.124
-651.828	623.531	-0.044	0.112
-650.814	-90.559	0.271	0.079
-649.799	-27.170	0.174	0.102
-648.784	72.460	-0.065	0.068
-647.770	-8.364	-0.068	-0.046
-646.755	-166.710	-0.096	-0.004
-645.741	108.360	-0.131	0.158
-644.726	800.000	0.056	0.168
-643.711	-38.506	0.204	-0.108
-642.697	-200.000	0.009	0.143
-641.682	-5.163	0.270	0.187
-640.668	-92.723	0.326	-0.092
-639.653	43.431	0.085	-0.078
-638.638	-67.939	-0.254	-0.100
-637.624	-59.211	0.080	-0.035
-636.609	800.000	-0.039	0.132
-635.595	223.980	0.077	0.125
-634.580	-200.000	0.003	0.283
-633.565	62.091	-0.045	-0.045
-632.551	95.147	-0.049	0.057
-631.536	-23.032	0.085	0.052
-630.522	65.570	0.038	0.039
-629.507	-81.199	-0.158	-0.052
-628.492	50.295	-0.125	-0.119
-627.478	800.000	0.023	-0.097
-626.463	-121.890	-0.293	0.048
-625.449	-138.460	-0.065	0.007
-624.434	118.242	-0.173	-0.214
-623.419	37.040	-0.065	0.057
-622.405	415.822	0.043	-0.091
-621.390	-55.582	0.039	-0.018
-620.376	64.821	0.151	-0.153
-619.361	160.875	0.205	0.288
-618.346	800.000	0.059	-0.245
-617.332	50.209	0.154	-0.146
-616.317	-177.375	-0.270	-0.007
-615.303	-15.739	0.122	-0.078
-614.288	-119.593	0.126	-0.022
-613.273	-125.129	-0.102	-0.016
-612.259	-200.000	0.013	0.072
-611.244	326.379	-0.019	0.036
-610.230	800.000	-0.091	-0.305
-609.215	800.000	0.112	-0.363
-608.201	157.045	0.218	-0.303
-607.186	66.449	0.112	-0.114
-606.171	247.803	-0.121	-0.205
-605.157	-200.000	0.039	0.374
-604.142	-118.093	-0.106	-0.019
-603.128	-121.872	-0.141	-0.023
-602.113	-174.974	0.238	-0.007
-601.098	-28.326	-0.311	-0.180
-600.084	-109.984	-0.046	-0.010
-599.069	150.458	-0.149	0.202
-598.055	800.000	-0.076	0.251
-597.040	630.820	0.118	-0.300
-596.025	-200.000	-0.021	0.126
-595.011	162.140	0.211	-0.296
-593.996	-200.000	-0.030	-0.242
-592.982	-64.118	-0.107	-0.044
-591.967	-97.787	0.231	-0.060
-590.952	-40.451	-0.239	0.124
-589.938	17.436	0.012	-0.010
-588.923	-200.000	0.003	-0.154
-587.909	800.000	-0.020	0.070
-586.894	800.000	-0.046	0.137
-585.879	-59.712	0.211	-0.091
-584.865	-200.000	0.000	-0.431
-583.850	800.000	-0.071	0.235
-582.836	-16.049	0.120	0.077
-581.821	538.977	-0.076	0.180
-580.806	5.801	0.141	-0.105
-579.792	-19.406	-0.189	-0.117
-578.777	-200.000	0.020	0.131
-577.763	36.762	-0.108	0.095
-576.748	-200.000	0.018	-0.326
-575.733	-60.188	0.056	-0.024
-574.719	-93.296	0.253	0.070
-573.704	176.901	0.022	-0.032
-572.690	-200.000	-0.075	0.463
-571.675	341.575	-0.235	0.459
-570.661	800.000	-0.091	0.258
-569.646	-27.555	-0.102	0.060
-568.631	11.690	0.086	0.066
-567.617	133.273	-0.140	-0.181
-566.602	608.736	-0.059	0.148
-565.588	44.072	0.181	-0.166
-564.573	-78.026	0.108	0.037
-563.558	-96.139	-0.186	0.050
-562.544	-200.000	-0.014	0.138
-561.529	-101.014	0.120	-0.029
-560.515	-35.248	-0.117	0.064
-559.500	-28.560	-0.312	-0.180
-558.485	-200.000	0.050	0.241
-557.471	-3.666	-0.172	-0.120
-556.456	240.974	-0.132	0.220
-555.442	800.000	-0.081	-0.352
-554.427	-98.447	-0.127	-0.033
-553.412	-200.000	0.042	0.256
-552.398	800.000	0.016	0.071
-551.383	106.651	0.188	-0.223
-550.369	-85.715	0.293	0.091
-549.354	221.606	-0.141	0.227
-548.339	-172.378	-0.393	0.013
-547.325	-97.466	-0.176	-0.046
-546.310	-86.391	0.145	-0.044
-545.296	-200.000	-0.110	-0.487
-544.281	-200.000	0.073	-0.416
-543.266	-131.898	-0.141	-0.018
-542.252	-200.000	-0.078	-0.400
-541.237	80.662	-0.077	0.083
-540.223	51.952	-0.319	-0.304
-539.208	800.000	0.052	0.227
-538.193	129.210	0.176	0.225
-537.179	-200.000	-0.001	-0.232
-536.164	800.000	-0.073	0.215
-535.150	309.570	-0.121	0.226
-534.135	800.000	0.103	-0.297
-533.121	-88.966	0.271	-0.080
-532.106	-200.000	-0.072	-0.484
-531.091	-35.806	-0.242	-0.131
-530.077	243.503	-0.115	0.193
-529.062	-35.968	0.075	-0.040
-528.048	-80.885	0.125	-0.041
-527.033	96.849	0.021	-0.025
-526.018	2.893	-0.300	-0.218
-525.004	-89.735	-0.271	-0.079
-523.989	-178.350	0.352	0.008
-522.975	-66.609	0.481	-0.191
-521.960	201.232	-0.056	0.086
-520.945	94.286	-0.121	-0.137
-519.931	195.832	0.057	-0.086
-518.916	196.418	0.214	0.326
-517.902	-25.488	-0.278	-0.164
-516.887	-70.952	0.123	0.046
-515.872	800.000	0.089	0.257
-514.858	27.099	-0.159	0.134
-513.843	262.187	-0.112	-0.194
-512.829	800.000	-0.027	-0.076
-511.814	800.000	-0.097	-0.275
-510.799	-90.685	-0.244	0.070
-509.785	222.036	-0.118	0.190
-508.770	-149.230	-0.288	0.023
-507.756	-73.538	-0.124	0.045
-506.741	175.034	0.230	0.332
-505.726	800.000	0.037	0.135
-504.712	254.275	-0.113	0.194
-503.697	-200.000	-0.001	-0.184
-502.683	61.082	0.052	-0.052
-501.668	169.698	0.062	-0.088
-500.653	-200.000	-0.006	-0.069
-499.639	23.347	0.159	0.131
-498.624	-200.000	0.011	-0.054
-497.610	-9.963	0.400	-0.266
-496.595	800.000	-0.042	0.157
-495.581	27.732	-0.298	0.250
-494.566	309.736	0.042	0.079
-493.551	-161.434	0.068	-0.004
-492.537	800.000	0.012	0.034
-491.522	-45.179	-0.218	-0.108
-490.508	-71.297	0.121	0.045
-489.493	260.058	0.142	0.245
-488.478	-11.278	-0.200	0.131
-487.464	-200.000	0.035	-0.288
-486.449	-200.000	-0.004	0.225
-485.435	-78.229	-0.197	-0.068
-484.420	-168.220	0.126	-0.005
-483.405	-56.954	0.347	-0.153
-482.391	412.939	0.064	-0.135
-481.376	274.081	-0.092	-0.162
-480.362	-75.179	0.062	0.022
-479.347	-108.498	0.038	-0.008
-478.332	-72.264	0.234	-0.087
-477.318	26.662	0.257	0.214
-476.303	-94.259	-0.085	-0.023
-475.289	-9.319	0.242	-0.162
-474.274	117.023	-0.165	0.202
-473.259	-150.474	-0.269	-0.021
-472.245	-150.867	0.285	0.022
-471.230	-200.000	-0.016	-0.125
-470.216	160.980	-0.019	-0.027
-469.201	67.899	-0.111	0.113
-468.186	68.459	0.092	-0.094
-467.172	-176.637	0.304	0.008
-466.157	21.857	-0.344	0.279
-465.143	8.801	-0.292	0.220
-464.128	-105.715	0.101	0.023
-463.113	-132.256	-0.505	0.065
-462.099	-118.304	-0.462	0.082
-461.084	-99.578	0.166	-0.041
-460.070	116.961	0.064	0.079
-459.055	-114.439	-0.062	-0.012
-458.040	800.000	0.042	0.124
-457.026	24.203	0.085	-0.070
-456.011	-130.915	-0.123	-0.016
-454.997	53.841	-0.204	0.195
-453.982	-200.000	-0.005	0.160
-452.968	-200.000	-0.046	0.218
-451.953	800.000	-0.016	-0.053
-450.938	511.049	-0.160	-0.371
-449.924	800.000	-0.127	0.511
-448.909	-200.000	0.048	-0.502
-447.895	-84.356	-0.161	-0.051
-446.880	34.498	-0.062	0.054
-445.865	800.000	-0.072	0.212
-444.851	-112.672	-0.282	0.056
-443.836	-200.000	-0.055	0.247
-442.822	536.141	0.088	0.209
-441.807	-122.327	0.206	0.034
-440.792	-35.293	-0.109	-0.059
-439.778	-139.982	0.085	-0.009
-438.763	800.000	-0.072	-0.210
-437.749	334.497	0.033	0.063
-436.734	303.711	0.051	-0.093
-435.719	800.000	0.038	0.137
-434.705	-10.834	0.171	0.113
-433.690	-200.000	0.014	-0.255
-432.676	35.015	0.132	0.115
-431.661	571.865	0.120	0.291
-430.646	-18.863	-0.280	-0.174
-429.632	800.000	-0.099	-0.289
-428.617	99.145	-0.182	0.209
-427.603	800.000	-0.030	-0.114
-426.588	-44.675	0.057	0.028
-425.573	24.822	-0.173	0.143
-424.559	153.710	0.312	-0.425
-423.544	800.000	-0.086	-0.326
-422.530	-16.935	-0.201	-0.127
-421.515	-72.629	-0.202	0.074
-420.500	-96.204	0.180	0.048
-419.486	-116.196	-0.156	-0.029
-418.471	-143.467	-0.307	0.029
-417.457	539.548	0.065	-0.155
-416.442	-158.745	-0.132	-0.008
-415.428	-56.987	-0.116	0.051
-414.413	-200.000	0.027	-0.298
-413.398	-27.237	-0.222	0.129
-412.384	-111.070	-0.289	0.059
-411.369	49.335	-0.171	-0.160
-410.355	10.062	-0.159	0.120
-409.340	111.207	-0.213	-0.255
-408.325	695.051	-0.098	-0.256
-407.311	-31.392	0.139	-0.078
-406.296	-65.876	-0.093	0.037
-405.282	-200.000	0.003	0.018
-404.267	-200.000	0.085	0.575
-403.252	83.436	-0.086	0.093
-402.238	800.000	0.134	-0.404
-401.223	-104.899	-0.188	0.043
-400.209	175.456	-0.052	0.076
-399.194	-54.293	0.277	0.125
-398.179	-200.000	-0.030	0.359
-397.165	800.000	0.044	-0.138
-396.150	-146.702	-0.061	0.005
-395.136	-112.437	0.211	0.042
-394.121	-82.370	0.297	0.096
-393.106	164.617	0.137	-0.193
-392.092	800.000	0.070	-0.226
-391.077	-88.478	0.159	-0.047
-390.063	-22.709	-0.048	-0.029
-389.048	-200.000	-0.112	-0.506
-388.033	-129.468	0.075	-0.010
-387.019	-52.641	-0.135	-0.062
-386.004	-200.000	0.052	0.304
-384.990	712.524	0.108	-0.283
-383.975	-48.464	-0.423	0.202
-382.960	79.736	0.029	-0.031
-381.946	109.176	-0.272	0.324
-380.931	-200.000	0.042	0.220
-379.917	-121.210	-0.102	0.017
-378.902	224.721	0.129	-0.207
-377.888	-137.385	-0.161	-0.018
-376.873	71.572	0.038	0.039
-375.858	-134.589	0.321	0.039
-374.844	78.061	0.032	-0.034
-373.829	86.240	-0.213	0.233
-372.815	90.907	0.131	-0.146
-371.800	227.222	0.091	0.147
-370.785	-107.898	0.153	0.033
-369.771	-59.484	0.340	-0.145
-368.756	-150.634	0.094	-0.007
-367.742	-96.181	-0.352	0.093
-366.727	800.000	0.013	0.044
-365.712	331.819	0.065	0.125
-364.698	14.210	-0.190	0.147
-363.683	399.198	0.095	-0.197
-362.669	-67.345	-0.195	0.076
-361.654	43.698	0.125	0.114
-360.639	-200.000	-0.008	0.091
-359.625	-96.071	-0.041	0.011
-358.610	130.411	0.211	-0.269
-357.596	275.467	-0.176	0.309
-356.581	315.051	0.135	-0.254
-355.566	-131.747	0.386	0.050
-354.552	-54.697	-0.432	0.194
-353.537	800.000	-0.031	0.114
-352.523	800.000	-0.065	-0.267
-351.508	-102.165	0.390	-0.093
-350.493	23.992	-0.149	0.122
-349.479	62.496	0.042	-0.042
-348.464	-200.000	0.050	0.295
-347.450	44.185	-0.021	0.019
-346.435	-110.035	-0.029	-0.006
-345.420	-71.770	0.531	0.197
-344.406	0.686	0.258	-0.183
-343.391	-92.333	-0.301	0.084
-342.377	66.850	0.153	-0.155
-341.362	-200.000	0.032	-0.323
-340.348	-200.000	-0.066	-0.416
-339.333	-200.000	-0.004	-0.072
-338.318	-65.289	-0.239	0.095
-337.304	217.390	-0.084	-0.133
-336.289	2.987	0.131	0.094
-335.275	-200.000	-0.016	0.109
-334.260	-134.897	0.358	-0.043
-333.245	241.452	-0.077	0.127
-332.231	-7.382	0.188	0.126
-331.216	156.619	0.169	-0.231
-330.202	42.774	0.071	0.064
-329.187	-57.636	-0.145	-0.063
-328.172	800.000	0.066	0.190
-327.158	57.857	-0.146	-0.142
-326.143	-130.585	-0.561	0.075
-325.129	22.599	-0.045	-0.037
-324.114	72.195	0.283	-0.292
-323.099	-124.296	0.570	-0.088
-322.085	-82.407	-0.076	0.025
-321.070	-98.787	0.129	-0.033
-320.056	-200.000	0.034	-0.159
-319.041	-163.591	-0.201	-0.009
-318.026	-200.000	0.004	-0.370
-317.012	161.690	0.131	-0.182
-315.997	-112.384	-0.123	-0.024
-314.983	-76.583	-0.056	-0.019
-313.968	-51.351	0.198	0.092
-312.953	-4.555	-0.193	-0.132
-311.939	-86.851	-0.181	-0.055
-310.924	-69.097	-0.278	0.106
-309.910	-200.000	0.004	0.185
-308.895	403.303	-0.052	0.108
-307.880	-88.826	0.317	0.093
-306.866	-200.000	-0.006	0.028
-305.851	-93.970	-0.205	-0.056
-304.837	15.262	-0.124	-0.097
-303.822	-69.998	0.293	-0.111
-302.807	101.596	0.027	0.032
-301.793	800.000	0.101	0.330
-300.778	98.492	-0.328	-0.375
-299.764	93.824	0.186	0.208
-298.749	81.107	-0.177	-0.189
-297.735	-10.548	0.232	-0.152
-296.720	-158.782	0.255	-0.014
-295.705	7.995	-0.133	-0.099
-294.691	-200.000	0.003	-0.030
-293.676	187.017	0.158	0.233
-292.662	-34.953	0.206	0.111
-291.647	-0.698	0.046	-0.032
-290.632	-167.173	-0.238	-0.010
-289.618	265.966	0.152	-0.262
-288.603	-200.000	0.068	-0.415
-287.589	-47.511	0.090	0.043
-286.574	-26.525	0.054	-0.031
-285.559	800.000	0.055	0.193
-284.545	-79.966	-0.207	0.069
-283.530	-57.187	-0.168	-0.073
-282.516	-40.515	0.324	0.167
-281.501	-200.000	0.009	-0.243
-280.486	82.282	-0.103	-0.110
-279.472	15.673	-0.223	0.174
-278.457	136.369	0.161	-0.208
-277.443	229.042	-0.115	0.187
-276.428	33.037	-0.042	0.036
-275.413	584.111	0.081	-0.197
-274.399	-132.938	0.334	-0.042
-273.384	800.000	-0.055	0.159
-272.370	176.825	0.158	0.228
-271.355	289.278	0.046	-0.083
-270.340	-200.000	0.307	0.001
-269.326	-140.805	0.223	0.023
-268.311	-28.616	-0.123	0.070
-267.297	-200.000	0.043	0.277
-266.282	-29.643	0.311	0.176
-265.267	800.000	0.042	0.175
-264.253	248.649	-0.055	-0.093
-263.238	-89.294	0.270	-0.079
-262.224	-200.000	0.043	-0.252
-261.209	161.500	0.013	-0.018
-260.195	119.756	-0.253	0.310
-259.180	800.000	-0.038	-0.132
-258.165	344.686	-0.087	0.169
-257.151	-46.649	0.049	-0.024
-256.136	-41.091	0.192	-0.098
-255.122	63.717	0.088	0.087
-254.107	-104.150	-0.360	-0.083
-253.092	145.464	0.096	-0.127
-252.078	-200.000	0.037	0.193
-251.063	131.588	-0.018	-0.023
-250.049	-155.631	0.375	-0.024
-249.034	384.295	0.029	-0.059
-248.019	54.864	0.251	0.239
-247.005	-15.717	-0.150	-0.095
-245.990	-173.630	0.384	-0.011
-244.976	-121.200	-0.034	0.006
-243.961	-200.000	0.014	0.137
-242.946	-200.000	0.008	0.152
-241.932	-200.000	-0.037	0.220
-240.917	697.184	-0.124	0.322
-239.903	-9.817	-0.109	-0.072
-238.888	-200.000	0.033	0.257
-237.873	-200.000	0.005	-0.093
-236.859	110.657	-0.054	0.064
-235.844	-33.676	-0.418	-0.228
-234.830	394.518	0.063	-0.129
-233.815	-200.000	-0.011	0.070
-232.800	-57.278	0.142	-0.062
-231.786	113.143	-0.121	-0.145
-230.771	797.448	-0.048	-0.130
-229.757	292.082	-0.102	0.184
-228.742	8.127	0.245	0.182
-227.727	44.951	0.197	0.179
-226.713	442.046	0.124	0.268
-225.698	72.399	0.359	0.369
-224.684	-200.000	0.059	0.260
-223.669	10.453	0.278	-0.209
-222.655	800.000	0.011	-0.041
-221.640	-128.501	-0.307	0.043
-220.625	118.445	-0.009	0.011
-219.611	-144.464	-0.109	0.010
-218.596	-121.276	0.589	0.097
-217.582	-200.000	-0.010	0.395
-216.567	-200.000	0.047	0.224
-215.552	-41.111	0.096	0.049
-214.538	800.000	0.020	-0.085
-213.523	475.752	0.063	-0.142
-212.509	-74.870	0.125	-0.044
-211.494	-144.337	-0.129	-0.012
-210.479	-200.000	-0.012	0.086
-209.465	800.000	-0.069	-0.200
-208.450	318.181	-0.112	-0.210
-207.436	61.042	-0.201	0.197
-206.421	-45.720	-0.160	-0.078
-205.406	-200.000	0.094	0.447
-204.392	130.109	-0.145	-0.183
-203.377	-30.543	0.151	0.084
-202.363	425.125	0.128	0.272
-201.348	-200.000	-0.016	0.161
-200.333	451.618	-0.070	-0.153
-199.319	-118.827	-0.289	-0.050
-198.304	-200.000	-0.036	0.261
-197.290	-67.935	-0.143	0.055
-196.275	438.752	-0.112	-0.241
-195.260	80.830	0.178	0.190
-194.246	-200.000	-0.015	0.087
-193.231	-200.000	0.058	-0.302
-192.217	193.760	-0.044	0.066
-191.202	-132.967	0.093	0.012
-190.187	-111.367	0.133	-0.027
-189.173	-53.608	0.069	-0.031
-188.158	200.386	-0.185	0.280
-187.144	-200.000	-0.007	0.178
-186.129	502.834	-0.089	0.203
-185.114	121.152	-0.091	0.111
-184.100	227.951	-0.128	-0.206
-183.085	755.858	0.116	0.309
-182.071	800.000	0.130	-0.460
-181.056	-200.000	-0.053	-0.391
-180.042	-77.526	0.204	-0.070
-179.027	30.663	0.136	0.115
-178.012	-200.000	-0.009	0.121
-176.998	282.222	0.090	-0.160
-175.983	4.104	0.198	-0.143
-174.969	-21.539	0.247	-0.148
-173.954	28.321	-0.219	-0.183
-172.939	-23.032	0.086	-0.051
-171.925	268.016	-0.215	0.371
-170.910	30.531	-0.280	-0.236
-169.896	800.000	0.050	0.201
-168.881	35.517	0.220	0.191
-167.866	-79.153	0.089	0.030
-166.852	212.001	-0.080	-0.124
-165.837	19.614	0.069	0.054
-164.823	-26.004	0.224	-0.130
-163.808	-99.365	0.332	-0.082
-162.793	-102.964	-0.182	0.042
-161.779	-200.000	-0.074	-0.331
-160.764	-160.519	-0.246	-0.013
-159.750	-77.137	-0.100	-0.034
-158.735	-200.000	-0.131	0.000
-157.720	-16.191	0.184	-0.115
-156.706	10.044	-0.096	-0.072
-155.691	-62.229	-0.086	-0.035
-154.677	-200.000	-0.071	0.377
-153.662	533.280	0.036	-0.083
-152.647	-200.000	-0.022	-0.106
-151.633	420.210	-0.042	-0.089
-150.618	-89.805	0.111	-0.032
-149.604	12.929	-0.077	0.058
-148.589	180.110	-0.178	0.257
-147.574	800.000	-0.147	0.505
-146.560	-21.443	-0.142	0.085
-145.545	51.194	0.305	-0.285
-144.531	800.000	-0.085	0.279
-143.516	-200.000	-0.044	0.201
-142.502	30.339	0.240	0.202
-141.487	-200.000	-0.042	-0.206
-140.472	800.000	0.051	-0.194
-139.458	-200.000	-0.015	-0.230
-138.443	218.345	-0.179	0.281
-137.429	129.978	0.053	0.066
-136.414	-200.000	0.008	0.264
-135.399	-110.742	0.434	0.088
-134.385	-128.902	-0.141	-0.020
-133.370	800.000	0.025	0.103
-132.356	66.386	-0.072	0.072
-131.341	800.000	-0.082	0.273
-130.326	-69.053	0.393	-0.149
-129.312	-158.471	-0.456	-0.026
-128.297	-80.059	0.175	-0.058
-127.283	153.402	0.213	0.287
-126.268	-17.071	0.064	0.040
-125.253	-200.000	-0.036	0.430
-124.239	-96.289	-0.043	0.011
-123.224	-122.408	0.316	0.051
-122.210	7.858	0.234	0.172
-121.195	-109.577	-0.180	0.037
-120.180	-54.308	0.112	-0.050
-119.166	-17.555	0.210	0.130
-118.151	-118.025	-0.131	-0.023
-117.137	-63.669	0.075	-0.030
-116.122	289.331	0.165	0.295
-115.107	-200.000	0.010	0.087
-114.093	800.000	-0.049	-0.184
-113.078	642.139	0.127	-0.319
-112.064	-132.259	0.165	-0.021
-111.049	-87.522	-0.064	-0.019
-110.034	-59.848	0.229	-0.096
-109.020	-65.874	0.423	0.166
-108.005	-52.679	-0.174	-0.079
-106.991	101.540	0.187	-0.214
-105.976	32.123	0.246	-0.208
-104.962	519.886	0.080	-0.185
-103.947	800.000	0.037	-0.124
-102.932	40.585	0.073	-0.065
-101.918	-200.000	-0.014	0.197
-100.903	-52.897	0.135	0.061
-99.889	63.290	0.171	-0.168
-98.874	2.944	-0.124	-0.089
-97.859	-99.257	-0.107	-0.027
-96.845	-200.000	-0.014	0.128
-95.830	800.000	0.055	0.199
-94.816	800.000	-0.058	0.195
-93.801	800.000	0.058	0.224
-92.786	-46.706	0.084	-0.040
-91.772	-200.000	0.066	0.295
-90.757	-71.315	-0.314	-0.116
-89.743	-200.000	-0.021	-0.290
-88.728	-200.000	0.037	0.212
-87.713	-21.279	0.139	0.083
-86.699	-140.236	0.164	0.017
-85.684	117.030	0.090	0.109
-84.670	10.555	0.116	0.087
-83.655	-200.000	-0.006	0.272
-82.640	465.964	0.071	-0.155
-81.626	446.811	0.095	0.206
-80.611	90.540	0.095	-0.104
-79.597	-91.527	0.188	0.053
-78.582	4.549	-0.101	-0.073
-77.567	-200.000	-0.002	-0.189
-76.553	115.055	0.288	-0.345
-75.538	5.139	-0.162	0.117
-74.524	-139.364	-0.118	0.012
-73.509	-200.000	0.002	-0.179
-72.494	-57.064	0.188	0.081
-71.480	800.000	-0.080	-0.271
-70.465	-200.000	-0.021	-0.169
-69.451	148.388	0.182	0.241
-68.436	800.000	-0.076	0.231
-67.422	-81.789	0.228	-0.074
-66.407	-166.126	-0.131	-0.005
-65.392	-3.283	-0.382	0.261
-64.378	131.458	0.002	-0.003
-63.363	136.522	-0.152	-0.194
-62.349	-107.488	0.224	-0.048
-61.334	59.088	-1.096	-1.059
-60.319	-64.124	0.545	0.218
-59.305	800.000	-0.305	-1.124
-58.290	78.101	0.830	0.869
-57.276	800.000	0.542	1.711
-56.261	-200.000	106.214	590.930
-55.246	496.100	1498.427	3381.418
-54.232	175.104	2701.291	3840.619
-53.217	110.041	2177.398	2565.193
-52.203	40.529	1613.241	1426.379
-51.188	32.146	1348.103	1141.243
-50.173	29.213	1306.782	1088.909
-49.159	52.993	1360.783	1277.997
-48.144	53.011	1376.896	1293.186
-47.130	32.317	1331.262	1127.833
-46.115	28.959	1313.336	1092.693
-45.100	28.813	1308.782	1087.995
-44.086	28.732	1305.920	1085.094
-43.071	28.667	1303.442	1082.605
-42.057	28.661	1301.518	1080.930
-41.042	28.687	1299.779	1079.596
-40.027	28.761	1298.140	1078.629
-39.013	28.684	1296.078	1076.422
-37.998	28.774	1294.240	1075.380
-36.984	28.820	1292.406	1074.082
-35.969	28.830	1290.592	1072.587
-34.954	28.823	1289.013	1071.195
-33.940	28.847	1287.938	1070.396
-32.925	28.868	1286.711	1069.457
-31.911	28.934	1285.061	1068.428
-30.896	28.886	1284.141	1067.341
-29.881	28.877	1283.056	1066.341
-28.867	28.899	1281.267	1064.945
-27.852	28.887	1279.593	1063.442
-26.838	28.935	1278.086	1062.424
-25.823	28.945	1277.068	1061.592
-24.809	28.912	1275.386	1059.962
-23.794	28.877	1274.297	1058.812
-22.779	28.880	1272.949	1057.670
-21.765	29.001	1271.575	1057.176
-20.750	28.919	1270.192	1055.517
-19.736	28.825	1268.871	1053.840
-18.721	28.762	1267.527	1052.322
-17.706	28.791	1266.784	1051.826
-16.692	28.733	1265.415	1050.319
-15.677	28.738	1264.266	1049.352
-14.663	28.686	1263.139	1048.075
-13.648	28.827	1261.846	1047.765
-12.633	28.764	1261.369	1046.971
-11.619	28.831	1259.976	1046.155
-10.604	28.730	1259.484	1045.130
-9.590	28.723	1258.466	1044.202
-8.575	28.726	1257.339	1043.240
-7.560	28.704	1256.580	1042.447
-6.546	28.737	1255.465	1041.668
-5.531	28.662	1255.185	1040.970
-4.517	28.674	1254.350	1040.300
-3.502	28.796	1253.182	1039.981
-2.487	28.750	1252.043	1038.733
-1.473	28.883	1248.265	1036.312
-0.458	27.888	1234.385	1019.199
0.556	25.583	1218.001	986.944
1.571	22.205	1224.922	973.789
2.586	21.672	1238.930	981.852
3.600	20.637	1226.661	966.296
4.615	15.279	1154.196	881.050
5.629	7.387	1080.491	785.750
6.644	3.821	1062.111	754.925
7.659	3.529	1060.279	752.132
8.673	3.615	1058.964	751.551
9.688	3.676	1057.963	751.071
10.702	3.975	1055.527	750.728
11.717	8.511	1061.686	777.129
12.731	16.101	1072.931	822.444
13.746	19.672	1076.463	842.526
14.761	19.576	1076.105	841.702
15.775	18.715	1074.179	835.932
16.790	17.693	1071.773	829.016
17.804	17.033	1070.547	824.790
18.819	16.794	1069.714	822.912
19.834	16.564	1068.727	820.963
20.848	16.367	1067.593	819.067
21.863	16.096	1067.146	817.335
22.877	15.901	1066.495	815.823
23.892	16.029	1065.501	815.608
24.907	16.048	1064.620	814.955
25.921	15.919	1063.959	813.751
26.936	15.945	1062.730	812.865
27.950	16.081	1061.013	812.136
28.965	16.198	1059.526	811.490
29.980	16.353	1057.772	810.818
30.994	16.366	1056.736	810.016
32.009	16.419	1055.950	809.592
33.023	16.362	1054.684	808.279
34.038	16.242	1054.154	807.229
35.053	16.211	1053.400	806.429
36.067	16.256	1052.525	805.902
37.082	16.114	1051.835	804.628
38.096	16.240	1050.875	804.421
39.111	16.158	1050.606	803.754
40.126	16.174	1048.499	802.149
41.140	15.996	1047.059	800.129
42.155	15.806	1046.184	798.489
43.169	15.843	1045.089	797.757
44.184	15.946	1044.013	797.351
45.199	15.791	1043.253	795.968
46.213	15.881	1042.475	795.730
47.228	16.071	1041.262	795.629
48.242	16.060	1040.408	794.856
49.257	16.049	1039.343	793.920
50.271	16.095	1038.567	793.472
51.286	16.117	1037.727	792.863
52.301	16.166	1036.662	792.211
53.315	16.119	1035.584	791.095
54.330	15.993	1034.577	789.667
55.344	15.927	1033.929	788.794
56.359	15.962	1032.692	787.945
57.374	15.959	1031.690	787.095
58.388	15.745	1031.341	785.758
59.403	15.788	1030.062	784.916
60.417	15.838	1029.052	784.309
61.432	15.684	1028.869	783.384
62.447	15.813	1027.670	783.001
63.461	15.629	1027.347	781.829
64.476	15.739	1026.176	781.380
65.490	15.700	1025.257	780.434
66.505	15.701	1024.554	779.833
67.520	15.672	1024.081	779.271
68.534	15.649	1023.530	778.676
69.549	15.816	1022.116	778.300
70.563	15.669	1021.635	777.186
71.578	15.587	1020.868	776.155
72.593	15.573	1019.925	775.307
73.607	15.502	1019.610	774.673
74.622	15.532	1018.856	774.170
75.636	15.554	1018.175	773.682
76.651	15.593	1017.581	773.340
77.666	15.710	1016.606	773.073
78.680	15.696	1016.234	772.653
79.695	15.758	1015.232	772.110
80.709	15.842	1015.081	772.313
81.724	15.857	1014.274	771.699
82.739	16.021	1013.278	771.623
83.753	16.043	1012.566	771.114
84.768	16.239	1011.982	771.499
85.782	16.241	1011.325	770.935
86.797	16.256	1010.081	769.987
87.812	16.108	1009.332	768.674
88.826	16.240	1007.931	768.142
89.841	16.214	1007.049	767.284
90.855	16.190	1006.852	766.955
91.870	16.369	1005.768	766.875
92.884	16.349	1004.416	765.684
93.899	16.254	1004.345	765.134
94.914	16.490	1003.055	765.149
95.928	16.333	1002.531	763.971
96.943	16.221	1001.609	762.698
97.957	16.191	1000.897	761.951
98.972	16.234	999.926	761.337
99.987	16.170	999.027	760.301
101.001	16.200	997.913	759.519
102.016	16.238	996.943	758.882
103.030	16.194	996.586	758.348
104.045	16.223	995.370	757.483
105.060	16.120	994.992	756.666
106.074	16.108	993.806	755.644
107.089	15.893	992.111	753.328
108.103	15.792	991.266	752.169
109.118	15.780	990.797	751.693
110.133	15.748	989.684	750.637
111.147	15.896	988.573	750.391
112.162	15.838	987.865	749.528
113.176	15.976	987.414	749.732
114.191	15.922	986.867	749.009
115.206	15.923	986.244	748.474
116.220	15.955	985.011	747.614
117.235	15.911	983.704	746.363
118.249	15.894	983.242	745.872
119.264	15.959	982.279	745.360
120.279	15.785	981.716	744.098
121.293	15.806	980.696	743.351
122.308	15.663	980.174	742.262
123.322	15.760	978.879	741.641
124.337	15.664	977.762	740.307
125.352	15.758	976.431	739.650
126.366	15.671	975.992	738.867
127.381	15.659	975.090	738.066
128.395	15.711	974.156	737.524
129.410	15.881	972.674	737.078
130.424	15.778	972.247	736.240
131.439	15.938	971.621	736.399
132.454	15.916	971.279	735.982
133.468	15.960	969.877	735.046
134.483	15.994	968.950	734.427
135.497	15.877	968.465	733.484
136.512	15.893	967.562	732.802
137.527	15.966	967.306	732.863
138.541	15.908	965.994	731.550
139.556	16.007	965.375	731.449
140.570	16.071	964.795	731.221
141.585	16.254	964.394	731.648
142.600	16.196	963.114	730.360
143.614	16.247	962.433	730.000
144.629	16.392	961.543	729.885
145.643	16.260	960.431	728.408
146.658	16.255	959.105	727.314
147.673	16.099	958.758	726.317
148.687	16.031	957.655	725.124
149.702	15.970	956.972	724.279
150.716	16.013	955.993	723.661
151.731	16.072	955.428	723.419
152.746	16.049	954.724	722.728
153.760	15.967	954.310	721.997
154.775	16.206	953.329	722.212
155.789	16.163	952.936	721.669
156.804	16.313	951.939	721.489
157.819	16.344	951.379	721.134
158.833	16.474	950.663	721.081
159.848	16.444	949.955	720.352
160.862	16.366	948.871	719.138
161.877	16.118	947.741	717.161
162.892	16.098	946.947	716.413
163.906	16.104	946.030	715.681
164.921	15.960	945.595	714.676
165.935	16.151	944.261	714.413
166.950	16.030	943.894	713.560
167.964	16.211	942.937	713.543
168.979	16.169	941.797	712.439
169.994	16.191	940.869	711.764
171.008	16.215	940.760	711.722
172.023	16.391	939.585	711.509
173.037	16.411	939.403	711.394
174.052	16.349	938.457	710.352
175.067	16.105	938.138	709.024
176.081	16.017	937.381	708.018
177.096	16.148	936.769	708.043
178.110	16.310	936.019	708.093
179.125	16.107	935.728	706.958
180.140	16.248	935.255	707.133
181.154	16.379	934.666	707.170
182.169	16.424	934.518	707.185
183.183	16.560	933.484	706.909
184.198	16.483	932.608	705.863
185.213	16.528	931.731	705.324
186.227	16.553	931.161	704.934
187.242	16.524	930.902	704.555
188.256	16.606	930.148	704.260
189.271	16.679	929.481	704.000
190.286	16.427	928.428	702.092
191.300	16.021	927.910	699.950
192.315	16.059	926.794	699.206
193.329	16.160	926.571	699.396
194.344	16.193	926.206	699.192
195.359	16.313	925.506	699.099
196.373	16.548	924.553	699.290
197.388	16.614	924.180	699.220
198.402	16.716	923.695	699.210
199.417	16.761	923.042	698.841
200.432	16.772	923.004	698.795
201.446	16.906	922.309	698.760
202.461	16.807	921.902	697.981
203.475	17.007	920.886	697.975
204.490	16.671	920.220	696.024
205.504	16.630	919.516	695.265
206.519	16.573	918.992	694.571
207.534	16.559	917.833	693.578
208.548	16.725	917.306	693.797
209.563	16.626	916.811	692.957
210.577	16.799	916.011	692.998
211.592	16.913	915.265	692.838
212.607	16.916	914.451	692.174
213.621	16.983	913.685	691.804
214.636	16.838	913.330	690.883
215.650	16.933	912.431	690.529
216.665	17.024	911.840	690.391
217.680	16.979	911.415	689.827
218.694	17.094	910.759	689.734
219.709	16.921	910.353	688.665
220.723	16.805	909.620	687.579
221.738	16.863	908.869	687.185
222.753	16.894	908.066	686.643
223.767	17.144	907.255	686.980
224.782	17.093	907.326	686.765
225.796	17.226	906.645	686.727
226.811	17.120	906.010	685.758
227.826	17.105	905.025	684.893
228.840	17.119	904.163	684.234
229.855	16.996	903.469	683.153
230.869	16.968	903.105	682.708
231.884	16.917	902.369	681.884
232.899	17.021	901.103	681.286
233.913	16.856	900.904	680.413
234.928	16.876	900.145	679.859
235.942	16.928	899.629	679.617
236.957	16.899	899.282	679.180
237.972	16.930	898.555	678.693
238.986	16.776	897.998	677.595
240.001	17.059	897.007	677.919
241.015	16.962	896.814	677.324
242.030	17.068	895.941	677.029
243.045	17.164	895.117	676.729
244.059	17.111	894.818	676.231
245.074	17.228	894.184	676.159
246.088	17.146	893.716	675.419
247.103	17.155	893.500	675.234
248.117	17.222	892.742	674.866
249.132	17.554	892.422	675.881
250.147	17.502	892.030	675.320
251.161	17.625	891.130	675.067
252.176	17.701	890.225	674.619
253.190	17.695	889.649	674.102
254.205	17.739	888.914	673.657
255.220	17.661	888.313	672.836
256.234	17.713	887.897	672.664
257.249	17.721	887.437	672.288
258.263	17.649	886.622	671.330
259.278	17.744	885.707	670.950
260.293	17.743	885.011	670.361
261.307	17.841	884.629	670.398
262.322	17.807	883.790	669.566
263.336	17.854	883.126	669.191
264.351	17.858	882.437	668.623
265.366	17.975	881.740	668.494
266.380	17.826	881.247	667.478
267.395	17.820	880.615	666.917
268.409	17.717	879.798	665.839
269.424	17.781	879.359	665.697
270.439	17.825	878.313	665.017
271.453	17.749	877.243	663.851
272.468	17.874	876.936	664.048
273.482	17.673	876.980	663.240
274.497	17.790	876.071	662.946
275.512	17.792	875.358	662.360
276.526	17.733	874.981	661.784
277.541	17.797	874.518	661.626
278.555	17.995	873.741	661.745
279.570	18.159	873.002	661.762
280.585	17.991	872.807	660.904
281.599	17.911	871.629	659.644
282.614	17.932	870.873	659.097
283.628	17.857	870.522	658.483
284.643	17.737	870.131	657.665
285.657	17.843	869.565	657.587
286.672	18.021	868.463	657.383
287.687	18.093	868.146	657.361
288.701	17.983	867.644	656.500
289.716	18.131	866.948	656.483
290.730	18.064	866.537	655.855
291.745	18.091	865.543	655.152
292.760	18.085	865.189	654.802
293.774	18.197	864.886	654.942
294.789	18.220	863.937	654.256
295.803	17.989	863.375	652.890
296.818	18.060	862.506	652.445
297.833	18.076	862.010	652.072
298.847	18.019	861.398	651.336
299.862	18.034	861.032	651.057
300.876	18.314	860.120	651.374
301.891	18.326	859.617	650.982
302.906	18.243	859.424	650.464
303.920	18.388	858.734	650.434
304.935	18.557	858.351	650.727
305.949	18.486	857.420	649.696
306.964	18.368	856.699	648.644
307.979	18.280	856.620	648.193
308.993	18.516	855.800	648.408
310.008	18.478	855.284	647.818
311.022	18.289	854.965	646.803
312.037	18.346	853.828	646.102
313.052	18.357	853.040	645.490
314.066	18.174	852.758	644.530
315.081	18.165	852.251	644.056
316.095	18.244	851.371	643.632
317.110	18.264	850.723	643.158
318.125	18.289	850.478	643.011
319.139	18.295	849.851	642.503
320.154	18.303	849.682	642.349
321.168	18.333	848.853	641.777
322.183	18.404	848.049	641.379
323.197	18.302	847.750	640.714
324.212	18.392	847.243	640.612
325.227	18.399	846.694	640.163
326.241	18.341	846.270	639.571
327.256	18.297	845.703	638.923
328.270	18.255	845.164	638.301
329.285	18.281	844.696	637.990
330.300	18.330	843.716	637.372
331.314	18.456	843.073	637.301
332.329	18.457	843.152	637.307
333.343	18.656	842.577	637.556
334.358	18.457	842.566	636.751
335.373	18.657	841.736	636.810
336.387	18.574	841.560	636.312
337.402	18.605	841.345	636.209
338.416	18.663	841.086	636.172
339.431	18.683	840.721	635.914
340.446	18.904	840.263	636.328
341.460	18.966	839.785	636.138
342.475	18.879	839.428	635.493
343.489	18.975	839.012	635.474
344.504	18.950	838.452	634.904
345.519	19.090	838.010	635.029
346.533	19.017	837.358	634.208
347.548	18.871	836.679	633.099
348.562	18.841	836.052	632.460
349.577	18.809	835.492	631.861
350.592	18.754	834.709	631.012
351.606	18.748	834.151	630.511
352.621	18.796	833.337	630.017
353.635	18.836	832.758	629.671
354.650	18.780	832.319	629.077
355.665	18.778	832.117	628.862
356.679	18.965	830.909	628.578
357.694	18.946	830.418	628.082
358.708	18.958	830.007	627.760
359.723	19.012	829.112	627.224
360.738	19.005	828.921	626.998
361.752	19.103	827.880	626.512
362.767	19.303	827.209	626.674
363.781	19.161	827.497	626.322
364.796	19.285	826.807	626.195
365.810	19.363	826.846	626.451
366.825	19.365	826.141	625.871
367.840	19.388	825.397	625.335
368.854	19.181	825.120	624.316
369.869	19.240	825.035	624.412
370.883	19.220	824.541	623.911
371.898	19.475	823.512	624.000
372.913	19.346	823.421	623.409
373.927	19.347	822.904	622.964
374.942	19.440	822.341	622.820
375.956	19.369	822.046	622.284
376.971	19.507	821.531	622.337
377.986	19.573	821.211	622.280
379.000	19.572	820.793	621.901
380.015	19.519	820.317	621.297
381.029	19.539	819.745	620.881
382.044	19.548	818.911	620.227
383.059	19.733	818.079	620.205
384.073	19.471	817.757	618.966
385.088	19.496	816.874	618.331
386.102	19.458	816.369	617.760
387.117	19.429	816.039	617.351
388.132	19.414	815.352	616.722
389.146	19.469	815.091	616.669
390.161	19.572	814.537	616.564
391.175	19.617	814.116	616.349
392.190	19.493	813.300	615.236
393.205	19.489	813.081	615.001
394.219	19.427	812.350	614.173
395.234	19.396	812.211	613.902
396.248	19.240	811.828	613.005
397.263	19.214	811.453	612.573
398.278	19.305	810.665	612.248
399.292	19.448	810.263	612.399
400.307	19.374	809.800	611.730
401.321	19.225	809.679	611.060
402.336	19.331	809.501	611.245
403.350	19.510	808.878	611.353
404.365	19.591	808.323	611.168
405.380	19.716	807.688	611.076
406.394	19.903	807.178	611.295
407.409	19.922	806.912	611.106
408.423	19.785	806.845	610.519
409.438	19.881	806.383	610.455
410.453	19.996	805.939	610.471
411.467	19.970	805.234	609.792
412.482	19.952	805.064	609.546
413.496	20.035	805.005	609.738
414.511	19.859	804.661	608.802
415.526	19.916	804.132	608.551
416.540	19.912	803.468	607.978
417.555	20.069	802.717	607.910
418.569	20.090	802.503	607.768
419.584	20.092	802.023	607.354
420.599	20.261	801.283	607.334
421.613	160.122	1371.563	1794.364
422.628	139.008	1454.640	1794.450
