DTS Sentinel unit serial number:	SN413079Multiplexer serial number:	ORYXHardware model number:	OX4-SRSoftware version number:	ORYX F/W v4.00 Oryx Data Collector v3.7.2.0data status	okinstallation	princeton_trtdifferential loss correction	single-endedforward channel	channel 1reverse channel	N/Adate	2019/09/15time	23:02:35forward acquisition time	60.00reverse acquisition time	0.00gamma	496.2192k internal	0.2332k external	0.2332temperature offset calibration	0.9970default loss term (dB/km)	0.3790temperature slope calibration	1.0000multiplexer offset coefficient	1.0000multiplexer slope coefficient	1.0000fibre end	0.00T internal ref (°C)	28.56T ext. ref 1 (°C)	8.99T ext. ref 2 (°C)	22.20length (m)	temperature (°C)	Stokes	anti-Stokes-747.200	-200.000	0.004	-0.115
-746.185	207.703	-0.157	0.247
-745.171	-200.000	0.063	0.292
-744.156	19.608	-0.256	0.207
-743.142	11.148	0.117	0.090
-742.127	-69.012	-0.266	0.103
-741.112	-200.000	0.009	0.173
-740.098	379.246	-0.127	0.261
-739.083	-200.000	-0.008	-0.082
-738.069	800.000	-0.057	0.212
-737.054	167.165	-0.194	-0.278
-736.039	-74.509	-0.348	-0.126
-735.025	-129.314	0.163	0.023
-734.010	617.943	-0.098	-0.248
-732.996	86.770	-0.108	0.120
-731.981	800.000	-0.083	-0.263
-730.966	114.891	-0.210	-0.258
-729.952	800.000	-0.120	-0.422
-728.937	338.382	-0.062	-0.122
-727.923	-200.000	-0.002	-0.196
-726.908	-200.000	0.001	-0.166
-725.894	57.370	-0.163	-0.160
-724.879	23.417	0.202	0.167
-723.864	-82.941	-0.391	-0.127
-722.850	-135.584	0.251	-0.030
-721.835	105.605	-0.362	-0.431
-720.821	-137.084	-0.185	-0.021
-719.806	30.563	-0.286	-0.246
-718.791	257.238	-0.017	-0.029
-717.777	-16.747	-0.108	0.069
-716.762	-200.000	0.002	0.026
-715.748	392.606	-0.164	-0.343
-714.733	100.838	0.106	-0.124
-713.718	-13.166	-0.182	0.119
-712.704	158.551	0.130	-0.182
-711.689	119.906	0.169	-0.211
-710.675	-200.000	-0.007	0.049
-709.660	800.000	0.088	0.355
-708.645	-19.963	0.014	0.009
-707.631	-68.894	0.238	-0.092
-706.616	-60.096	-0.209	-0.089
-705.602	800.000	-0.087	-0.267
-704.587	-84.265	0.190	-0.060
-703.572	-66.835	0.102	0.041
-702.558	-22.665	-0.116	0.070
-701.543	-124.891	-0.434	0.067
-700.529	-33.970	-0.378	-0.209
-699.514	800.000	0.050	0.203
-698.499	-200.000	-0.036	-0.241
-697.485	-200.000	0.009	-0.120
-696.470	-65.002	0.203	-0.082
-695.456	800.000	0.010	-0.040
-694.441	-130.227	-0.440	0.060
-693.426	-61.235	-0.342	0.145
-692.412	-200.000	0.005	-0.040
-691.397	-38.091	0.037	-0.020
-690.383	800.000	-0.072	-0.218
-689.368	-200.000	0.000	-0.013
-688.354	298.070	0.277	0.511
-687.339	4.848	-0.124	-0.092
-686.324	-200.000	0.015	-0.294
-685.310	800.000	0.084	-0.261
-684.295	502.967	-0.071	-0.166
-683.281	74.895	0.192	-0.203
-682.266	301.050	0.070	0.130
-681.251	800.000	-0.040	0.112
-680.237	-120.495	-0.016	-0.003
-679.222	-200.000	0.002	-0.190
-678.208	85.608	-0.210	-0.232
-677.193	332.069	-0.067	0.130
-676.178	-152.322	0.320	-0.023
-675.164	-63.577	-0.339	0.140
-674.149	408.186	-0.134	-0.283
-673.135	-200.000	0.019	-0.329
-672.120	800.000	-0.009	-0.037
-671.105	-200.000	-0.244	-0.001
-670.091	497.208	0.063	0.146
-669.076	-200.000	-0.017	-0.236
-668.062	9.159	-0.167	0.126
-667.047	-200.000	-0.022	-0.254
-666.032	-76.737	0.206	0.072
-665.018	-23.064	0.220	-0.133
-664.003	-200.000	0.003	0.078
-662.989	-138.254	0.203	-0.022
-661.974	-31.497	0.100	0.057
-660.959	-162.990	0.185	-0.009
-659.945	90.364	-0.168	0.189
-658.930	-200.000	-0.030	0.476
-657.916	3.809	-0.061	0.045
-656.901	800.000	0.070	-0.250
-655.886	-200.000	0.043	-0.521
-654.872	531.796	0.062	-0.146
-653.857	-200.000	-0.011	-0.225
-652.843	19.340	-0.063	-0.051
-651.828	-200.000	0.031	-0.203
-650.814	81.777	0.170	-0.185
-649.799	-99.824	-0.275	-0.069
-648.784	800.000	0.068	0.280
-647.770	-115.462	-0.192	0.036
-646.755	436.564	0.059	-0.128
-645.741	-16.921	0.223	0.141
-644.726	-164.327	0.286	-0.013
-643.711	-49.744	0.220	0.105
-642.697	-70.548	0.244	0.092
-641.682	-57.626	0.163	-0.071
-640.668	138.297	0.212	0.279
-639.653	-134.475	-0.106	0.013
-638.638	57.091	-0.520	-0.508
-637.624	-200.000	0.002	-0.069
-636.609	-5.519	-0.144	0.099
-635.595	106.303	0.150	-0.178
-634.580	15.565	0.093	-0.074
-633.565	47.105	-0.102	0.095
-632.551	800.000	0.114	0.359
-631.536	-200.000	-0.001	0.113
-630.522	-158.430	0.349	0.020
-629.507	31.384	-0.161	-0.139
-628.492	-200.000	0.012	-0.177
-627.478	-8.913	0.400	0.268
-626.463	-69.021	-0.137	-0.053
-625.449	-56.212	-0.197	-0.088
-624.434	-58.064	0.075	0.033
-623.419	-200.000	0.026	-0.134
-622.405	-200.000	0.152	0.000
-621.390	-94.721	0.271	0.074
-620.376	-78.021	-0.136	0.047
-619.361	-200.000	0.040	0.176
-618.346	-200.000	0.006	0.071
-617.332	55.849	-0.144	-0.140
-616.317	-14.507	-0.259	0.167
-615.303	22.256	-0.117	-0.095
-614.288	12.347	-0.096	-0.074
-613.273	-100.075	0.188	-0.047
-612.259	-82.711	-0.169	-0.055
-611.244	-113.014	-0.230	-0.045
-610.230	-200.000	-0.001	-0.088
-609.215	-104.783	-0.431	0.099
-608.201	-200.000	0.073	0.380
-607.186	-44.289	0.149	0.075
-606.171	-129.704	0.519	0.072
-605.157	-53.292	-0.211	0.097
-604.142	799.075	0.095	-0.263
-603.128	-89.013	0.152	-0.045
-602.113	-49.081	0.058	-0.028
-601.098	-121.688	-0.404	0.067
-600.084	343.990	-0.029	0.057
-599.069	-29.612	-0.236	-0.135
-598.055	208.380	-0.189	-0.295
-597.040	800.000	-0.019	-0.073
-596.025	2.543	-0.198	-0.144
-595.011	154.542	-0.041	0.056
-593.996	800.000	0.041	-0.118
-592.982	-28.148	0.031	-0.018
-591.967	-200.000	-0.005	0.041
-590.952	727.237	-0.086	0.229
-589.938	-50.665	0.091	0.043
-588.923	800.000	-0.040	0.116
-587.909	-113.899	0.104	-0.020
-586.894	376.037	-0.033	0.066
-585.879	800.000	-0.075	-0.233
-584.865	-67.614	0.370	0.145
-583.850	-162.608	-0.472	0.023
-582.836	232.877	0.146	0.239
-581.821	99.626	-0.137	-0.158
-580.806	-22.669	0.217	0.131
-579.792	-200.000	-0.006	-0.135
-578.777	-200.000	-0.014	-0.181
-577.763	-200.000	0.002	-0.090
-576.748	-200.000	-0.014	-0.127
-575.733	-80.500	-0.080	-0.027
-574.719	-120.296	0.213	-0.036
-573.704	6.378	0.069	-0.051
-572.690	33.352	-0.208	-0.180
-571.675	-200.000	-0.047	-0.234
-570.661	-67.151	-0.039	-0.015
-569.646	-120.953	0.424	-0.071
-568.631	88.383	-0.278	-0.309
-567.617	465.016	-0.068	0.151
-566.602	220.764	-0.095	0.152
-565.588	-57.881	0.060	0.026
-564.573	61.423	0.219	0.218
-563.558	195.835	-0.217	-0.330
-562.544	-176.696	-0.216	-0.006
-561.529	-77.635	-0.173	-0.060
-560.515	-200.000	-0.003	-0.165
-559.500	800.000	-0.109	-0.330
-558.485	92.853	0.271	-0.305
-557.471	64.119	0.354	-0.355
-556.456	-200.000	0.028	-0.184
-555.442	800.000	0.090	0.254
-554.427	356.238	-0.150	-0.299
-553.412	-103.699	0.106	0.025
-552.398	46.621	0.096	-0.089
-551.383	-200.000	-0.025	-0.119
-550.369	336.386	0.099	-0.191
-549.354	800.000	0.110	0.361
-548.339	-121.609	0.431	-0.071
-547.325	499.329	-0.095	-0.218
-546.310	-200.000	-0.010	0.194
-545.296	247.734	-0.241	-0.407
-544.281	800.000	0.066	-0.184
-543.266	2.841	0.071	0.051
-542.252	117.926	0.436	0.536
-541.237	30.088	-0.126	0.107
-540.223	-9.386	0.195	-0.130
-539.208	658.253	0.057	0.146
-538.193	305.274	0.104	0.193
-537.179	-77.583	-0.262	0.090
-536.164	358.171	-0.078	-0.155
-535.150	-111.732	-0.373	0.075
-534.135	-112.668	0.304	-0.060
-533.121	19.428	-0.276	-0.221
-532.106	191.746	0.276	-0.416
-531.091	264.224	0.048	-0.084
-530.077	-200.000	-0.013	-0.234
-529.062	70.359	0.162	-0.167
-528.048	-26.751	0.294	0.171
-527.033	-86.220	-0.245	0.075
-526.018	-117.384	0.106	-0.019
-525.004	75.318	0.108	-0.113
-523.989	800.000	0.111	0.333
-522.975	-5.557	0.119	-0.082
-521.960	-85.473	-0.552	-0.171
-520.945	-116.635	0.086	0.016
-519.931	148.723	-0.120	-0.161
-518.916	669.842	0.111	-0.286
-517.902	-111.009	-0.255	-0.052
-516.887	164.055	0.175	-0.245
-515.872	-200.000	0.075	-0.351
-514.858	220.535	-0.128	0.204
-513.843	-145.855	-0.159	0.014
-512.829	-176.472	0.060	-0.002
-511.814	-80.555	-0.091	-0.030
-510.799	800.000	-0.172	0.523
-509.785	261.537	-0.108	0.187
-508.770	243.710	-0.067	-0.112
-507.756	-146.689	0.525	-0.045
-506.741	-63.450	0.530	-0.217
-505.726	756.348	-0.080	0.215
-504.712	195.491	0.097	-0.146
-503.697	-6.582	0.006	0.004
-502.683	473.112	-0.120	0.270
-501.668	288.472	-0.211	0.381
-500.653	800.000	0.041	0.120
-499.639	-200.000	-0.020	0.362
-498.624	800.000	-0.124	0.521
-497.610	800.000	0.115	-0.475
-496.595	-64.644	0.124	-0.050
-495.581	-172.143	0.209	-0.007
-494.566	36.332	-0.348	0.306
-493.551	151.633	-0.104	0.141
-492.537	-45.136	0.119	0.059
-491.522	386.175	0.239	-0.491
-490.508	-133.413	0.342	0.043
-489.493	207.431	-0.108	0.168
-488.478	17.962	-0.117	-0.093
-487.464	50.797	-0.187	-0.177
-486.449	-154.629	-0.279	0.018
-485.435	800.000	0.058	-0.212
-484.420	245.993	0.092	-0.154
-483.405	269.720	0.067	-0.117
-482.391	115.519	0.078	-0.095
-481.376	5.072	-0.196	0.144
-480.362	247.741	-0.180	-0.303
-479.347	800.000	-0.076	-0.262
-478.332	494.253	0.058	-0.132
-477.318	156.823	0.154	0.212
-476.303	-100.265	-0.146	-0.036
-475.289	-160.765	-0.228	-0.012
-474.274	48.883	-0.294	0.275
-473.259	-200.000	0.031	-0.171
-472.245	800.000	-0.043	-0.150
-471.230	-56.279	0.155	-0.069
-470.216	-13.744	-0.152	0.098
-469.201	110.716	-0.032	0.038
-468.186	-200.000	0.001	-0.391
-467.172	-200.000	-0.038	-0.263
-466.157	-150.184	0.280	0.022
-465.143	800.000	0.051	0.180
-464.128	-117.600	0.122	-0.022
-463.113	-68.807	0.066	-0.025
-462.099	362.418	0.139	0.277
-461.084	200.657	0.126	-0.193
-460.070	-200.000	0.003	0.351
-459.055	57.567	0.364	0.354
-458.040	-200.000	-0.001	0.037
-457.026	100.976	0.198	0.229
-456.011	-20.908	0.021	-0.013
-454.997	335.238	0.109	-0.211
-453.982	370.865	0.013	0.027
-452.968	-200.000	0.032	-0.294
-451.953	9.150	-0.179	0.135
-450.938	-138.827	0.168	0.018
-449.924	-200.000	-0.031	-0.457
-448.909	-97.007	0.247	0.064
-447.895	800.000	0.050	0.214
-446.880	-200.000	0.006	0.162
-445.865	362.470	0.018	0.037
-444.851	-131.590	-0.231	0.030
-443.836	-200.000	0.006	0.226
-442.822	-15.292	0.114	0.072
-441.807	-140.196	0.153	-0.016
-440.792	-200.000	-0.033	-0.146
-439.778	405.028	0.083	-0.173
-438.763	634.918	-0.032	-0.082
-437.749	800.000	-0.057	0.174
-436.734	-100.457	-0.174	0.043
-435.719	-87.949	-0.275	0.082
-434.705	-200.000	0.018	0.202
-433.690	-34.350	0.083	0.045
-432.676	-74.192	0.538	0.194
-431.661	162.141	-0.202	-0.282
-430.646	725.847	0.032	-0.084
-429.632	236.592	0.060	0.098
-428.617	-73.035	0.283	0.103
-427.603	586.054	-0.092	-0.226
-426.588	202.630	0.090	-0.138
-425.573	-200.000	-0.015	0.321
-424.559	221.814	-0.017	-0.026
-423.544	800.000	0.073	-0.239
-422.530	-153.702	-0.486	0.033
-421.515	-200.000	-0.011	-0.246
-420.500	800.000	-0.036	0.139
-419.486	-71.683	0.186	0.069
-418.471	-200.000	0.086	0.388
-417.457	-89.285	0.138	0.040
-416.442	800.000	-0.066	-0.188
-415.428	-200.000	0.007	0.047
-414.413	339.689	-0.097	0.187
-413.398	-29.745	0.078	-0.044
-412.384	70.188	0.158	0.162
-411.369	29.671	-0.230	-0.195
-410.355	-110.944	0.136	-0.028
-409.340	-152.180	-0.337	-0.024
-408.325	1.849	0.114	-0.081
-407.311	-79.062	-0.309	-0.104
-406.296	39.664	0.116	0.103
-405.282	-28.522	-0.083	-0.047
-404.267	-164.323	-0.072	-0.003
-403.252	71.238	0.169	0.174
-402.238	-78.293	0.238	0.081
-401.223	-66.382	-0.169	0.067
-400.209	-132.313	-0.272	-0.035
-399.194	-67.308	0.277	0.108
-398.179	317.132	0.065	0.122
-397.165	64.147	0.133	-0.133
-396.150	324.355	0.100	0.189
-395.136	-125.795	-0.215	-0.032
-394.121	800.000	-0.068	0.228
-393.106	9.145	0.113	-0.085
-392.092	-200.000	-0.018	-0.190
-391.077	-200.000	-0.035	-0.507
-390.063	800.000	-0.029	-0.083
-389.048	154.373	0.077	0.104
-388.033	-15.587	-0.147	0.093
-387.019	242.385	0.144	-0.239
-386.004	-25.054	-0.054	0.032
-384.990	-61.509	-0.054	0.022
-383.975	-200.000	0.015	0.359
-382.960	30.442	-0.266	0.226
-381.946	84.210	-0.078	0.085
-380.931	21.979	0.031	-0.025
-379.917	-129.269	0.105	-0.015
-378.902	496.964	-0.073	0.166
-377.888	-52.974	0.088	0.040
-376.873	161.132	0.158	0.218
-375.858	121.869	0.242	0.299
-374.844	135.903	-0.032	0.041
-373.829	-200.000	-0.002	-0.253
-372.815	210.816	-0.130	0.203
-371.800	-200.000	-0.037	0.249
-370.785	-200.000	-0.021	-0.108
-369.771	75.729	0.133	-0.139
-368.756	-200.000	-0.004	-0.053
-367.742	-138.462	0.142	-0.015
-366.727	328.441	0.203	0.387
-365.712	68.890	0.166	0.169
-364.698	-200.000	0.044	0.300
-363.683	800.000	-0.123	-0.397
-362.669	443.863	0.145	-0.314
-361.654	419.048	0.064	0.135
-360.639	147.523	0.096	-0.128
-359.625	-51.647	0.130	-0.060
-358.610	-79.222	-0.034	-0.012
-357.596	800.000	0.104	0.383
-356.581	-47.943	0.252	0.121
-355.566	-44.057	0.206	-0.103
-354.552	-89.013	-0.437	0.128
-353.537	350.241	0.015	0.029
-352.523	276.531	0.106	0.186
-351.508	800.000	-0.028	0.106
-350.493	184.592	-0.229	-0.336
-349.479	114.933	-0.196	0.237
-348.464	-37.676	-0.285	-0.150
-347.450	195.494	-0.050	-0.075
-346.435	-57.964	0.020	-0.009
-345.420	-98.383	0.294	0.075
-344.406	-200.000	-0.038	0.257
-343.391	-38.476	0.107	0.056
-342.377	50.217	-0.164	-0.153
-341.362	26.164	-0.200	-0.166
-340.348	86.318	-0.259	0.282
-339.333	800.000	-0.108	-0.333
-338.318	-79.162	0.178	0.060
-337.304	382.635	-0.098	0.200
-336.289	800.000	0.080	-0.233
-335.275	648.783	-0.057	0.144
-334.260	-46.547	0.096	0.046
-333.245	-200.000	-0.024	0.164
-332.231	-79.519	0.309	0.103
-331.216	-170.630	-0.330	-0.011
-330.202	309.957	-0.010	-0.018
-329.187	-3.894	-0.253	-0.174
-328.172	225.690	-0.076	0.122
-327.158	62.344	-0.122	0.121
-326.143	-200.000	-0.000	0.226
-325.129	108.514	-0.121	-0.143
-324.114	-105.259	-0.507	0.114
-323.099	-134.881	-0.274	-0.033
-322.085	-200.000	0.005	0.137
-321.070	537.778	0.121	-0.285
-320.056	-200.000	-0.058	-0.317
-319.041	-75.542	-0.289	-0.102
-318.026	707.486	-0.127	0.331
-317.012	-200.000	0.011	0.078
-315.997	-200.000	-0.042	0.260
-314.983	-200.000	-0.010	-0.241
-313.968	-117.316	-0.028	-0.005
-312.953	196.234	-0.087	0.130
-311.939	363.114	0.041	-0.082
-310.924	-7.764	0.177	0.119
-309.910	96.719	0.290	-0.328
-308.895	217.252	0.107	-0.168
-307.880	-65.920	-0.124	0.049
-306.866	210.032	0.345	0.535
-305.851	800.000	-0.036	0.111
-304.837	-66.814	-0.374	0.146
-303.822	3.098	0.211	-0.152
-302.807	-16.261	-0.194	-0.122
-301.793	8.049	0.166	-0.123
-300.778	800.000	-0.039	0.156
-299.764	164.337	-0.222	-0.310
-298.749	-89.334	0.174	0.051
-297.735	264.521	-0.104	0.179
-296.720	-110.110	-0.229	-0.047
-295.705	197.870	-0.205	-0.309
-294.691	321.721	0.100	-0.188
-293.676	-200.000	0.033	-0.167
-292.662	-88.409	-0.121	-0.036
-291.647	117.244	0.115	0.140
-290.632	231.810	0.060	-0.097
-289.618	-17.382	0.185	-0.115
-288.603	-68.729	0.026	0.010
-287.589	59.612	-0.071	0.069
-286.574	-67.875	0.103	-0.040
-285.559	-98.155	-0.167	0.043
-284.545	559.984	-0.119	-0.284
-283.530	-200.000	0.031	-0.162
-282.516	32.744	0.148	-0.126
-281.501	-46.325	0.169	-0.082
-280.486	-184.008	0.187	0.003
-279.472	629.892	0.042	-0.106
-278.457	800.000	-0.024	0.097
-277.443	-200.000	0.035	0.246
-276.428	34.614	-0.367	-0.317
-275.413	391.494	-0.099	0.203
-274.399	-14.796	-0.133	-0.084
-273.384	-200.000	0.014	-0.070
-272.370	-57.924	-0.162	-0.070
-271.355	800.000	0.067	-0.230
-270.340	20.641	-0.058	-0.046
-269.326	63.933	0.232	-0.230
-268.311	533.123	0.105	0.245
-267.297	-70.933	0.334	-0.124
-266.282	249.523	0.032	0.054
-265.267	-200.000	-0.019	0.238
-264.253	30.155	-0.219	0.185
-263.238	90.426	0.131	-0.145
-262.224	234.792	-0.116	-0.189
-261.209	49.011	-0.135	0.125
-260.195	23.628	0.079	-0.064
-259.180	117.552	-0.133	-0.162
-258.165	-200.000	0.021	-0.360
-257.151	-200.000	0.029	0.407
-256.136	-200.000	0.057	-0.340
-255.122	-154.294	-0.325	-0.022
-254.107	-79.973	-0.077	0.026
-253.092	324.893	-0.058	0.110
-252.078	724.266	-0.093	0.244
-251.063	-51.368	0.074	-0.034
-250.049	-30.815	0.243	0.136
-249.034	50.137	0.076	0.071
-248.019	-96.129	0.272	0.071
-247.005	-61.744	0.267	0.111
-245.990	-83.980	-0.324	0.102
-244.976	-25.013	0.175	-0.103
-243.961	451.975	-0.079	0.173
-242.946	160.284	0.165	-0.228
-241.932	84.494	-0.236	0.255
-240.917	800.000	-0.094	0.320
-239.903	-56.601	-0.116	-0.051
-238.888	-76.061	-0.130	-0.045
-237.873	151.507	-0.139	0.187
-236.859	-29.670	0.210	0.118
-235.844	-3.561	-0.253	0.173
-234.830	210.129	-0.043	-0.066
-233.815	308.717	-0.027	0.050
-232.800	-90.560	0.134	0.038
-231.786	-85.248	0.053	-0.016
-230.771	49.663	0.199	0.184
-229.757	136.802	0.138	0.178
-228.742	-200.000	-0.043	0.238
-227.727	-118.264	0.241	0.042
-226.713	-71.856	0.178	-0.065
-225.698	19.876	-0.140	-0.112
-224.684	257.528	-0.220	-0.373
-223.669	-46.634	0.186	-0.090
-222.655	-65.454	-0.375	-0.149
-221.640	-96.721	-0.059	0.015
-220.625	229.770	-0.021	-0.034
-219.611	44.058	0.104	0.094
-218.596	108.958	0.091	-0.108
-217.582	-200.000	-0.041	-0.225
-216.567	210.147	-0.069	0.107
-215.552	800.000	-0.044	-0.162
-214.538	-200.000	-0.001	-0.049
-213.523	-126.439	-0.158	-0.023
-212.509	-49.228	0.006	-0.003
-211.494	-200.000	-0.010	0.067
-210.479	-165.545	0.310	-0.013
-209.465	-200.000	-0.006	0.062
-208.450	-60.808	-0.236	0.099
-207.436	-200.000	0.004	0.111
-206.421	10.757	-0.175	0.131
-205.406	800.000	-0.132	-0.416
-204.392	111.926	0.077	0.092
-203.377	798.833	0.105	-0.284
-202.363	-200.000	-0.009	0.149
-201.348	800.000	0.040	0.118
-200.333	-134.616	0.261	0.031
-199.319	26.772	0.324	0.267
-198.304	-26.721	0.228	0.131
-197.290	12.836	0.140	-0.107
-196.275	-9.798	-0.264	-0.173
-195.260	-62.727	-0.277	0.113
-194.246	641.119	0.024	-0.060
-193.231	137.883	-0.139	-0.180
-192.217	-182.121	0.277	0.005
-191.202	-200.000	-0.045	-0.290
-190.187	-200.000	-0.008	0.146
-189.173	-200.000	-0.025	0.166
-188.158	157.754	-0.230	-0.313
-187.144	-97.790	-0.153	-0.039
-186.129	-59.715	0.192	-0.081
-185.114	571.207	0.080	-0.191
-184.100	114.525	0.215	0.257
-183.085	-23.396	-0.140	0.083
-182.071	2.620	-0.185	-0.132
-181.056	-43.449	0.193	-0.096
-180.042	-91.036	-0.010	0.003
-179.027	-85.199	-0.295	-0.091
-178.012	68.561	-0.096	0.097
-176.998	-49.330	0.235	0.110
-175.983	-59.562	-0.112	0.047
-174.969	199.307	0.255	-0.385
-173.954	-47.249	0.146	-0.070
-172.939	126.586	-0.111	0.138
-171.925	-56.447	-0.261	0.114
-170.910	-132.300	-0.337	0.043
-169.896	-4.228	0.108	-0.074
-168.881	-110.553	-0.332	-0.068
-167.866	-38.947	0.068	0.035
-166.852	574.137	0.022	-0.054
-165.837	38.390	0.103	-0.091
-164.823	-18.463	-0.350	0.215
-163.808	-63.890	0.108	0.044
-162.793	-11.155	-0.341	-0.221
-161.779	-200.000	0.013	-0.229
-160.764	498.700	-0.121	-0.274
-159.750	800.000	0.045	0.175
-158.735	216.806	0.015	-0.023
-157.720	800.000	0.043	0.172
-156.706	-57.669	0.082	0.035
-155.691	144.218	-0.358	0.470
-154.677	583.775	0.062	0.150
-153.662	472.691	0.168	0.373
-152.647	595.779	0.245	0.596
-151.633	-25.478	0.249	0.145
-150.618	-39.207	-0.406	0.210
-149.604	80.095	0.143	0.151
-148.589	-31.066	0.155	0.086
-147.574	-120.973	0.108	0.018
-146.560	-119.890	-0.367	-0.062
-145.545	102.155	-0.019	0.022
-144.531	800.000	0.066	0.241
-143.516	800.000	0.007	-0.026
-142.502	-200.000	0.006	0.149
-141.487	38.692	0.209	0.183
-140.472	38.283	0.162	0.142
-139.458	42.473	-0.066	0.059
-138.443	-17.434	-0.396	0.245
-137.429	800.000	0.069	0.279
-136.414	-200.000	0.097	-0.428
-135.399	-108.606	-0.200	0.042
-134.385	165.355	0.043	-0.059
-133.370	242.240	-0.024	0.039
-132.356	-82.138	0.138	0.044
-131.341	51.483	-0.022	-0.021
-130.326	180.442	0.200	-0.289
-129.312	130.766	0.088	-0.111
-128.297	286.183	-0.181	-0.320
-127.283	-159.698	-0.124	-0.007
-126.268	-112.264	-0.114	-0.022
-125.253	71.621	-0.058	-0.059
-124.239	-200.000	0.095	-0.427
-123.224	800.000	-0.087	-0.366
-122.210	127.867	0.113	-0.141
-121.195	-200.000	-0.024	-0.167
-120.180	800.000	-0.043	-0.146
-119.166	163.114	-0.241	-0.332
-118.151	354.758	0.025	0.049
-117.137	-200.000	0.004	-0.113
-116.122	521.741	-0.017	0.039
-115.107	-200.000	-0.017	-0.080
-114.093	-103.720	-0.135	0.031
-113.078	-190.188	-0.335	-0.004
-112.064	-197.798	-0.254	-0.002
-111.049	-200.000	0.051	-0.241
-110.034	-39.411	0.203	0.104
-109.020	800.000	-0.026	0.109
-108.005	-56.052	-0.204	0.089
-106.991	223.714	0.166	-0.264
-105.976	-200.000	-0.022	0.129
-104.962	-200.000	-0.038	-0.176
-103.947	-53.976	0.134	0.060
-102.932	320.653	0.114	0.213
-101.918	74.926	0.130	0.135
-100.903	-151.286	0.208	-0.015
-99.889	246.423	0.096	-0.158
-98.874	43.613	-0.239	-0.214
-97.859	224.834	-0.116	0.184
-96.845	35.070	-0.246	0.211
-95.830	-41.256	0.246	0.124
-94.816	-92.414	0.180	-0.050
-93.801	184.990	-0.249	0.362
-92.786	-68.873	-0.054	0.020
-91.772	-200.000	-0.014	0.385
-90.757	-116.460	-0.150	0.027
-89.743	100.228	-0.210	0.238
-88.728	-200.000	0.028	-0.185
-87.713	-153.743	0.205	0.014
-86.699	-47.971	0.216	-0.102
-85.684	-109.124	-0.246	-0.051
-84.670	363.807	0.002	0.005
-83.655	800.000	0.032	-0.109
-82.640	-22.886	0.368	-0.218
-81.626	-73.329	-0.086	-0.031
-80.611	-33.047	-0.360	0.196
-79.597	-30.843	0.286	-0.159
-78.582	-200.000	-0.041	-0.346
-77.567	-22.761	0.206	-0.122
-76.553	-86.816	0.162	0.049
-75.538	160.409	0.021	0.029
-74.524	-55.864	-0.303	-0.133
-73.509	789.716	-0.150	-0.404
-72.494	-163.237	-0.030	0.001
-71.480	2.466	-0.132	-0.094
-70.465	-72.188	0.418	0.152
-69.451	205.457	-0.208	0.316
-68.436	260.904	-0.039	-0.067
-67.422	-68.694	-0.224	-0.085
-66.407	588.346	-0.082	-0.198
-65.392	504.124	-0.015	-0.034
-64.378	725.879	0.038	-0.099
-63.363	-91.779	0.396	-0.110
-62.349	193.127	-0.068	0.101
-61.334	29.262	-1.100	-0.915
-60.319	-32.541	0.805	0.439
-59.305	-200.000	-0.207	-1.021
-58.290	138.303	0.956	1.229
-57.276	347.630	0.657	1.268
-56.261	-200.000	110.267	640.018
-55.246	486.450	1484.737	3315.539
-54.232	150.773	2646.761	3523.316
-53.217	106.949	2136.103	2484.448
-52.203	39.805	1594.954	1401.831
-51.188	31.906	1342.931	1132.798
-50.173	28.898	1305.044	1083.108
-49.159	55.771	1359.735	1290.552
-48.144	56.022	1374.144	1305.680
-47.130	32.224	1330.836	1124.323
-46.115	28.645	1313.409	1088.379
-45.100	28.518	1308.355	1083.400
-44.086	28.544	1306.011	1081.565
-43.071	28.329	1304.554	1079.050
-42.057	28.378	1301.989	1077.174
-41.042	28.454	1300.452	1076.305
-40.027	28.441	1298.642	1074.688
-39.013	28.392	1296.995	1072.996
-37.998	28.485	1295.001	1071.851
-36.984	28.484	1293.349	1070.431
-35.969	28.586	1291.274	1069.264
-34.954	28.542	1289.535	1067.528
-33.940	28.546	1288.424	1066.593
-32.925	28.594	1287.075	1065.709
-31.911	28.702	1285.693	1065.149
-30.896	28.617	1284.888	1063.945
-29.881	28.654	1283.156	1062.685
-28.867	28.697	1281.595	1061.600
-27.852	28.672	1280.113	1060.187
-26.838	28.612	1278.697	1058.623
-25.823	28.604	1277.677	1057.690
-24.809	28.680	1276.123	1056.802
-23.794	28.719	1274.681	1055.788
-22.779	28.663	1273.495	1054.445
-21.765	28.668	1272.285	1053.425
-20.750	28.692	1270.649	1052.170
-19.736	28.587	1269.601	1050.661
-18.721	28.556	1268.249	1049.318
-17.706	28.451	1267.114	1047.737
-16.692	28.581	1266.024	1047.542
-15.677	28.403	1265.336	1045.912
-14.663	28.459	1264.312	1045.345
-13.648	28.588	1262.427	1044.480
-12.633	28.436	1262.092	1043.295
-11.619	28.556	1261.037	1043.065
-10.604	28.555	1260.321	1042.424
-9.590	28.521	1258.983	1041.081
-8.575	28.485	1257.983	1040.012
-7.560	28.451	1257.182	1039.117
-6.546	28.572	1256.419	1039.126
-5.531	28.536	1255.844	1038.406
-4.517	28.454	1255.231	1037.394
-3.502	28.542	1254.228	1037.022
-2.487	28.498	1252.896	1035.631
-1.473	28.415	1248.843	1031.774
-0.458	26.764	1234.151	1010.400
0.556	21.507	1217.117	971.880
1.571	17.753	1222.773	955.326
2.586	16.842	1237.744	961.770
3.600	16.805	1226.493	952.734
4.615	14.769	1160.346	890.430
5.629	11.022	1092.871	819.733
6.644	9.176	1075.718	797.639
7.659	9.073	1073.241	795.220
8.673	8.928	1072.164	793.633
9.688	8.794	1071.200	792.186
10.702	9.092	1068.781	791.798
11.717	11.529	1071.020	805.417
12.731	15.307	1076.569	828.214
13.746	17.503	1078.835	840.741
14.761	17.490	1078.147	840.065
15.775	16.497	1076.087	833.492
16.790	15.473	1074.074	826.821
17.804	14.637	1073.019	821.819
18.819	14.223	1071.610	818.631
19.834	13.949	1070.399	816.287
20.848	13.730	1069.795	814.678
21.863	13.553	1069.014	813.141
22.877	13.500	1068.019	812.053
23.892	13.270	1067.497	810.457
24.907	13.330	1066.802	810.155
25.921	13.503	1065.312	809.797
26.936	13.444	1064.570	808.872
27.950	13.495	1063.189	807.998
28.965	13.472	1061.382	806.441
29.980	13.639	1059.661	805.876
30.994	13.676	1058.694	805.248
32.009	13.690	1057.756	804.533
33.023	13.648	1056.474	803.280
34.038	13.572	1055.449	802.065
35.053	13.508	1054.652	801.077
36.067	13.454	1053.950	800.215
37.082	13.562	1052.809	799.798
38.096	13.611	1052.057	799.393
39.111	13.505	1051.722	798.556
40.126	13.412	1050.321	796.974
41.140	13.394	1048.868	795.714
42.155	13.347	1047.291	794.222
43.169	13.185	1046.702	792.928
44.184	13.319	1045.420	792.526
45.199	13.343	1044.332	791.749
46.213	13.498	1042.976	791.392
47.228	13.465	1041.993	790.417
48.242	13.648	1040.644	790.197
49.257	13.559	1039.708	788.992
50.271	13.455	1039.183	788.031
51.286	13.406	1038.247	787.015
52.301	13.408	1037.587	786.456
53.315	13.484	1035.833	785.416
54.330	13.345	1035.304	784.287
55.344	13.299	1034.606	783.473
56.359	13.349	1033.583	782.863
57.374	13.387	1032.502	782.158
58.388	13.313	1031.606	781.059
59.403	13.353	1031.063	780.766
60.417	13.346	1030.228	780.033
61.432	13.233	1029.389	778.795
62.447	13.299	1028.265	778.187
63.461	13.218	1027.584	777.220
64.476	13.275	1026.948	776.941
65.490	13.160	1026.308	775.847
66.505	13.269	1025.659	775.801
67.520	13.337	1024.458	775.140
68.534	13.237	1024.059	774.302
69.549	13.331	1023.110	773.954
70.563	13.255	1022.388	772.986
71.578	13.192	1021.606	772.030
72.593	13.132	1021.246	771.413
73.607	13.201	1020.111	770.808
74.622	13.208	1019.151	770.046
75.636	13.190	1018.925	769.725
76.651	13.280	1018.252	769.567
77.666	13.256	1017.617	768.908
78.680	13.235	1016.679	768.034
79.695	13.268	1015.982	767.593
80.709	13.193	1015.907	767.120
81.724	13.323	1015.032	766.994
82.739	13.438	1014.081	766.739
83.753	13.459	1013.649	766.441
84.768	13.468	1012.833	765.797
85.782	13.734	1011.386	765.863
86.797	13.579	1010.882	764.701
87.812	13.463	1009.891	763.348
88.826	13.561	1008.581	762.743
89.841	13.530	1008.074	762.149
90.855	13.612	1006.515	761.278
91.870	13.641	1006.262	761.154
92.884	13.592	1005.569	760.335
93.899	13.596	1004.736	759.657
94.914	13.735	1003.995	759.668
95.928	13.641	1003.444	758.752
96.943	13.568	1002.456	757.606
97.957	13.600	1001.034	756.610
98.972	13.515	1000.676	755.883
99.987	13.676	999.623	755.755
101.001	13.558	998.566	754.352
102.016	13.647	997.472	753.862
103.030	13.699	996.958	753.644
104.045	13.563	996.488	752.607
105.060	13.537	995.513	751.685
106.074	13.400	994.705	750.388
107.089	13.395	993.508	749.396
108.103	13.369	992.807	748.681
109.118	13.367	991.604	747.699
110.133	13.317	990.900	746.876
111.147	13.260	989.861	745.771
112.162	13.317	989.264	745.512
113.176	13.422	988.444	745.299
114.191	13.419	987.401	744.433
115.206	13.525	986.248	743.978
116.220	13.499	985.729	743.400
117.235	13.473	984.775	742.498
118.249	13.452	983.958	741.724
119.264	13.468	983.012	741.018
120.279	13.428	982.171	740.136
121.293	13.308	981.600	739.108
122.308	13.201	981.197	738.261
123.322	13.318	980.145	737.924
124.337	13.298	978.794	736.753
125.352	13.379	977.345	735.959
126.366	13.305	976.573	734.984
127.381	13.391	975.404	734.421
128.395	13.417	974.716	733.952
129.410	13.464	973.445	733.139
130.424	13.560	972.502	732.789
131.439	13.497	972.066	732.114
132.454	13.429	971.644	731.431
133.468	13.567	970.400	731.041
134.483	13.465	969.808	730.079
135.497	13.420	969.019	729.224
136.512	13.551	968.001	728.968
137.527	13.489	967.133	727.979
138.541	13.465	966.690	727.477
139.556	13.651	965.468	727.307
140.570	13.688	965.036	727.079
141.585	13.556	964.512	726.041
142.600	13.630	963.470	725.517
143.614	13.747	963.116	725.699
144.629	13.723	962.081	724.749
145.643	13.705	961.374	724.076
146.658	13.638	959.947	722.643
147.673	13.661	959.045	722.001
148.687	13.501	957.938	720.405
149.702	13.593	957.289	720.255
150.716	13.558	956.640	719.551
151.731	13.653	955.644	719.151
152.746	13.610	954.719	718.203
153.760	13.735	954.300	718.368
154.775	13.694	953.964	717.872
155.789	13.812	953.288	717.813
156.804	13.746	952.661	716.990
157.819	13.825	951.812	716.630
158.833	13.886	951.125	716.311
159.848	13.930	950.202	715.743
160.862	13.955	949.035	714.909
161.877	13.801	948.195	713.551
162.892	13.601	947.484	712.093
163.906	13.685	946.669	711.778
164.921	13.671	945.707	710.933
165.935	13.690	944.883	710.329
166.950	13.783	943.842	709.883
167.964	13.663	943.347	708.937
168.979	13.714	942.247	708.265
169.994	13.786	941.387	707.863
171.008	13.779	940.776	707.309
172.023	13.843	939.896	706.856
173.037	13.839	939.576	706.536
174.052	13.952	938.624	706.238
175.067	13.742	938.094	704.886
176.081	13.630	937.632	704.000
177.096	13.761	937.135	704.120
178.110	13.809	936.304	703.639
179.125	13.823	935.602	703.106
180.140	13.850	935.148	702.818
181.154	13.879	934.960	702.737
182.169	13.982	934.201	702.539
183.183	14.066	933.555	702.348
184.198	13.996	932.605	701.277
185.213	14.030	931.942	700.857
186.227	14.065	931.506	700.617
187.242	13.997	930.842	699.767
188.256	14.194	930.252	700.092
189.271	14.091	929.365	698.930
190.286	13.943	928.914	697.907
191.300	13.698	927.983	696.115
192.315	13.911	926.766	696.037
193.329	13.785	926.992	695.616
194.344	13.932	925.958	695.394
195.359	13.888	925.503	694.805
196.373	14.102	924.566	694.937
197.388	14.171	924.613	695.199
198.402	14.156	924.103	694.688
199.417	14.236	923.744	694.693
200.432	14.329	922.858	694.352
201.446	14.287	922.350	693.733
202.461	14.282	921.916	693.324
203.475	14.321	921.283	692.950
204.490	14.359	920.522	692.473
205.504	14.310	919.636	691.542
206.519	14.098	919.303	690.350
207.534	14.226	918.499	690.216
208.548	14.217	917.054	689.032
209.563	14.292	916.709	689.024
210.577	14.249	916.196	688.398
211.592	14.478	915.199	688.535
212.607	14.366	914.908	687.793
213.621	14.425	914.116	687.377
214.636	14.423	913.440	686.802
215.650	14.432	912.654	686.186
216.665	14.516	911.990	685.974
217.680	14.405	911.425	685.032
218.694	14.589	910.958	685.376
219.709	14.521	909.805	684.170
220.723	14.663	909.052	684.122
221.738	14.638	908.577	683.605
222.753	14.411	908.262	682.375
223.767	14.613	907.722	682.739
224.782	14.582	906.743	681.813
225.796	14.641	906.553	681.853
226.811	14.615	905.837	681.147
227.826	14.526	905.061	680.138
228.840	14.651	904.281	680.003
229.855	14.641	902.997	678.934
230.869	14.703	902.440	678.710
231.884	14.627	901.964	677.982
232.899	14.569	901.196	677.108
233.913	14.608	900.496	676.682
234.928	14.585	899.723	675.947
235.942	14.596	899.344	675.649
236.957	14.594	898.718	675.109
237.972	14.470	898.218	674.174
238.986	14.526	897.621	673.893
240.001	14.557	897.211	673.650
241.015	14.658	896.202	673.239
242.030	14.728	895.621	673.027
243.045	14.704	895.267	672.603
244.059	14.806	894.309	672.236
245.074	14.870	894.051	672.237
246.088	14.695	893.372	670.966
247.103	14.739	892.694	670.573
248.117	14.971	891.873	670.826
249.132	14.923	891.730	670.469
250.147	15.061	890.711	670.196
251.161	15.112	890.318	670.043
252.176	15.037	889.435	669.022
253.190	15.273	888.733	669.378
254.205	15.104	888.449	668.430
255.220	15.113	887.757	667.882
256.234	15.092	887.290	667.391
257.249	15.137	886.398	666.841
258.263	15.162	885.691	666.349
259.278	15.148	884.917	665.650
260.293	15.239	884.650	665.752
261.307	15.175	884.056	664.991
262.322	15.279	883.176	664.685
263.336	15.294	882.591	664.243
264.351	15.280	881.881	663.595
265.366	15.404	880.969	663.343
266.380	15.353	880.339	662.609
267.395	15.445	879.952	662.621
268.409	15.324	879.007	661.373
269.424	15.407	878.182	661.021
270.439	15.313	877.517	660.092
271.453	15.240	877.151	659.473
272.468	15.297	876.669	659.274
273.482	15.430	875.739	659.039
274.497	15.320	875.823	658.610
275.512	15.446	874.563	658.100
276.526	15.461	874.108	657.758
277.541	15.484	874.011	657.719
278.555	15.540	873.193	657.262
279.570	15.559	872.269	656.583
280.585	15.534	871.878	656.134
281.599	15.683	870.371	655.521
282.614	15.574	870.239	654.940
283.628	15.481	869.880	654.249
284.643	15.472	869.282	653.705
285.657	15.562	868.446	653.369
286.672	15.603	868.115	653.223
287.687	15.562	867.496	652.538
288.701	15.543	866.708	651.815
289.716	15.569	866.221	651.493
290.730	15.567	865.703	651.038
291.745	15.447	865.367	650.262
292.760	15.766	864.744	650.970
293.774	15.822	864.096	650.644
294.789	15.716	863.195	649.498
295.803	15.716	862.347	648.800
296.818	15.658	861.642	647.990
297.833	15.736	861.081	647.809
298.847	15.784	860.577	647.559
299.862	15.863	860.050	647.409
300.876	15.753	859.697	646.665
301.891	15.811	859.389	646.596
302.906	15.819	858.634	646.004
303.920	15.889	858.153	645.852
304.935	16.047	857.235	645.709
305.949	16.008	856.748	645.137
306.964	15.844	856.406	644.194
307.979	16.004	855.621	644.159
308.993	16.012	854.893	643.582
310.008	15.950	854.447	642.953
311.022	16.056	853.735	642.767
312.037	15.977	852.862	641.753
313.052	15.861	852.652	641.095
314.066	15.851	851.964	640.483
315.081	15.880	851.688	640.327
316.095	15.865	851.218	639.862
317.110	15.936	850.542	639.567
318.125	15.943	849.718	638.918
319.139	16.004	849.574	638.982
320.154	16.074	848.310	638.241
321.168	16.046	848.031	637.867
322.183	15.958	847.762	637.278
323.197	16.079	847.068	637.157
324.212	16.117	846.490	636.807
325.227	16.011	845.967	635.957
326.241	16.084	845.367	635.728
327.256	16.162	844.936	635.639
328.270	16.087	844.400	634.897
329.285	16.042	843.941	634.329
330.300	16.026	843.040	633.535
331.314	15.955	842.711	632.965
332.329	16.042	842.548	633.113
333.343	16.234	841.683	633.128
334.358	16.247	841.482	632.967
335.373	16.163	841.104	632.313
336.387	16.183	840.823	632.123
337.402	16.265	840.697	632.278
338.416	16.277	840.195	631.888
339.431	16.353	839.752	631.783
340.446	16.455	839.193	631.690
341.460	16.405	839.013	631.310
342.475	16.483	838.593	631.230
343.489	16.586	837.888	631.029
344.504	16.581	837.499	630.660
345.519	16.538	837.115	630.156
346.533	16.573	836.366	629.668
347.548	16.411	835.989	628.722
348.562	16.421	835.891	628.629
349.577	16.531	834.695	628.086
350.592	16.400	834.217	627.182
351.606	16.280	833.646	626.252
352.621	16.481	832.659	626.202
353.635	16.525	832.274	626.018
354.650	16.595	831.482	625.627
355.665	16.544	830.777	624.854
356.679	16.551	830.538	624.643
357.694	16.646	829.598	624.234
358.708	16.612	828.831	623.475
359.723	16.681	828.146	623.158
360.738	16.657	828.123	622.997
361.752	16.606	827.348	622.171
362.767	16.714	827.050	622.290
363.781	16.777	826.484	622.040
364.796	16.775	826.355	621.882
365.810	16.839	826.062	621.838
366.825	16.928	825.291	621.530
367.840	16.761	824.664	620.390
368.854	16.945	824.265	620.709
369.869	16.730	823.985	619.658
370.883	16.821	823.552	619.611
371.898	16.792	823.365	619.308
372.913	17.018	822.481	619.414
373.927	16.823	822.187	618.425
374.942	16.990	821.693	618.609
375.956	17.156	820.757	618.454
376.971	17.132	820.811	618.353
377.986	17.131	820.343	617.941
379.000	17.155	820.025	617.736
380.015	17.098	819.430	617.024
381.029	17.185	818.760	616.780
382.044	17.273	818.003	616.476
383.059	17.282	817.159	615.816
384.073	17.225	816.875	615.341
385.088	17.006	816.750	614.400
386.102	17.039	816.160	614.021
387.117	16.994	815.383	613.221
388.132	16.955	814.801	612.590
389.146	17.123	814.111	612.620
390.161	17.133	813.828	612.388
391.175	17.172	813.487	612.220
392.190	17.315	812.667	612.061
393.205	17.116	812.049	610.827
394.219	17.085	812.191	610.770
395.234	17.204	811.790	610.840
396.248	17.120	811.153	610.007
397.263	17.148	810.603	609.640
398.278	17.032	810.375	608.997
399.292	17.209	809.854	609.186
400.307	17.044	809.581	608.335
401.321	17.130	809.347	608.414
402.336	17.292	808.187	608.068
403.350	17.317	807.893	607.881
404.365	17.310	807.726	607.679
405.380	17.276	807.039	606.985
406.394	17.374	806.552	606.916
407.409	17.531	806.295	607.230
408.423	17.537	805.984	606.963
409.438	17.551	805.465	606.566
410.453	17.582	805.041	606.304
411.467	17.552	804.682	605.872
412.482	17.676	803.965	605.721
413.496	17.617	803.785	605.321
414.511	17.614	803.458	605.011
415.526	17.621	803.282	604.851
416.540	17.649	802.393	604.227
417.555	17.809	801.768	604.269
418.569	17.568	801.565	603.210
419.584	17.810	801.083	603.652
420.599	17.749	800.622	603.034
421.613	111.024	1294.763	1475.481
422.628	95.622	1366.733	1475.570
