DTS Sentinel unit serial number:	SN413079Multiplexer serial number:	ORYXHardware model number:	OX4-SRSoftware version number:	ORYX F/W v4.00 Oryx Data Collector v3.7.2.0data status	okinstallation	princeton_trtdifferential loss correction	single-endedforward channel	channel 1reverse channel	N/Adate	2019/09/19time	12:46:35forward acquisition time	60.00reverse acquisition time	0.00gamma	496.2192k internal	0.2330k external	0.2330temperature offset calibration	1.0010default loss term (dB/km)	0.3790temperature slope calibration	1.0000multiplexer offset coefficient	1.0000multiplexer slope coefficient	1.0000fibre end	0.00T internal ref (°C)	27.87T ext. ref 1 (°C)	0.89T ext. ref 2 (°C)	26.09length (m)	temperature (°C)	Stokes	anti-Stokes-747.200	-31.922	0.155	-0.087
-746.185	-7.591	-0.399	0.272
-745.171	61.559	-0.109	0.109
-744.156	-136.559	-0.099	0.012
-743.142	800.000	0.025	0.076
-742.127	390.316	-0.049	-0.103
-741.112	-11.823	-0.187	-0.124
-740.098	-200.000	-0.023	0.251
-739.083	800.000	0.070	-0.207
-738.069	3.321	0.204	0.149
-737.054	6.068	-0.340	0.253
-736.039	-73.168	0.137	0.050
-735.025	1.539	-0.066	0.048
-734.010	350.263	-0.039	-0.077
-732.996	-200.000	0.068	-0.424
-731.981	800.000	-0.037	0.149
-730.966	-200.000	-0.013	0.366
-729.952	64.476	-0.024	-0.024
-728.937	-200.000	0.030	-0.164
-727.923	97.579	0.136	-0.158
-726.908	-200.000	0.014	-0.354
-725.894	-66.578	0.265	-0.106
-724.879	34.128	-0.395	-0.346
-723.864	334.958	-0.104	0.202
-722.850	800.000	0.106	-0.332
-721.835	-89.591	-0.328	-0.097
-720.821	-110.414	-0.056	0.012
-719.806	371.119	-0.067	-0.137
-718.791	-37.997	0.116	-0.062
-717.777	62.987	0.292	0.294
-716.762	-200.000	0.017	-0.202
-715.748	800.000	0.134	0.446
-714.733	800.000	-0.034	-0.127
-713.718	450.628	0.052	-0.116
-712.704	205.968	0.210	-0.329
-711.689	-160.395	-0.281	-0.015
-710.675	-200.000	-0.012	-0.441
-709.660	7.058	0.247	-0.185
-708.645	331.657	-0.082	-0.159
-707.631	-150.952	0.127	0.010
-706.616	108.386	-0.126	0.151
-705.602	-13.906	-0.140	-0.091
-704.587	-200.000	-0.029	-0.243
-703.572	-200.000	0.028	0.508
-702.558	454.453	-0.094	0.209
-701.543	84.000	-0.054	0.060
-700.529	171.774	0.098	-0.142
-699.514	800.000	0.142	-0.395
-698.499	-21.477	0.235	-0.144
-697.485	-23.333	-0.304	-0.183
-696.470	800.000	-0.058	0.227
-695.456	-127.016	0.062	0.009
-694.441	-3.671	-0.200	0.140
-693.426	-200.000	0.010	0.061
-692.412	72.789	0.138	0.145
-691.397	-196.420	0.189	0.001
-690.383	95.629	-0.024	-0.027
-689.368	-200.000	0.022	0.217
-688.354	-148.802	0.240	0.020
-687.339	-200.000	0.078	0.399
-686.324	1.931	0.087	-0.063
-685.310	146.849	0.058	0.079
-684.295	406.547	-0.092	0.196
-683.281	595.415	-0.015	0.036
-682.266	10.519	0.072	-0.055
-681.251	-200.000	-0.010	-0.071
-680.237	315.628	-0.132	-0.249
-679.222	-128.634	0.413	-0.059
-678.208	172.982	-0.184	-0.267
-677.193	-151.864	-0.452	0.033
-676.178	-117.733	0.386	-0.070
-675.164	50.997	-0.162	0.154
-674.149	433.429	0.111	-0.243
-673.135	-114.299	-0.186	0.036
-672.120	67.518	0.253	-0.259
-671.105	112.837	-0.068	-0.083
-670.091	-10.766	-0.103	0.069
-669.076	-200.000	0.010	0.294
-668.062	45.567	0.204	-0.190
-667.047	-200.000	-0.006	0.135
-666.032	-96.413	0.260	-0.069
-665.018	-200.000	0.036	-0.348
-664.003	-200.000	-0.050	0.241
-662.989	-45.509	0.360	0.179
-661.974	68.521	-0.052	0.054
-660.959	800.000	-0.078	-0.248
-659.945	41.104	-0.351	-0.318
-658.930	129.226	-0.057	0.073
-657.916	19.602	0.161	0.130
-656.901	-17.832	0.080	0.050
-655.886	-79.161	0.022	0.007
-654.872	-200.000	0.017	0.087
-653.857	724.363	-0.064	-0.171
-652.843	204.488	0.097	-0.152
-651.828	-85.027	-0.222	0.070
-650.814	139.387	-0.245	-0.323
-649.799	800.000	-0.076	0.334
-648.784	-143.674	-0.192	0.018
-647.770	430.964	0.067	-0.146
-646.755	800.000	0.125	0.401
-645.741	-135.208	-0.266	-0.032
-644.726	721.721	-0.092	-0.245
-643.711	-200.000	-0.009	-0.234
-642.697	-136.706	-0.318	-0.037
-641.682	-150.363	0.141	0.011
-640.668	-200.000	0.029	-0.153
-639.653	-2.683	-0.295	-0.207
-638.638	800.000	-0.058	0.228
-637.624	-89.570	0.156	-0.046
-636.609	800.000	0.024	-0.067
-635.595	-200.000	-0.039	0.172
-634.580	70.382	0.135	0.139
-633.565	181.760	0.015	0.023
-632.551	135.229	0.187	0.243
-631.536	79.723	0.174	0.187
-630.522	-52.058	-0.094	0.044
-629.507	236.244	-0.059	0.098
-628.492	91.430	0.132	0.148
-627.478	47.742	0.222	-0.207
-626.463	111.875	0.150	-0.182
-625.449	-80.012	0.101	0.034
-624.434	166.721	-0.118	0.168
-623.419	-90.829	0.270	-0.078
-622.405	269.526	0.165	-0.290
-621.390	-65.265	0.076	0.031
-620.376	-200.000	0.035	-0.239
-619.361	-200.000	-0.009	-0.243
-618.346	603.227	-0.026	0.065
-617.332	1.436	0.175	0.126
-616.317	-100.266	-0.262	0.065
-615.303	-42.381	0.169	-0.086
-614.288	-11.152	0.206	0.136
-613.273	-121.310	0.103	-0.017
-612.259	-70.158	0.203	-0.077
-611.244	-200.000	0.005	-0.094
-610.230	-181.754	-0.365	-0.007
-609.215	-200.000	-0.015	-0.357
-608.201	-79.582	-0.106	0.036
-607.186	-149.632	-0.336	0.027
-606.171	-79.515	0.180	0.061
-605.157	-77.042	0.191	-0.067
-604.142	-149.078	0.092	0.007
-603.128	187.581	0.111	-0.167
-602.113	-28.394	0.214	0.123
-601.098	800.000	0.073	-0.258
-600.084	193.094	-0.092	-0.139
-599.069	471.752	-0.066	-0.149
-598.055	217.248	-0.137	-0.218
-597.040	317.085	-0.088	0.166
-596.025	-200.000	0.046	0.304
-595.011	-25.486	-0.233	-0.138
-593.996	-113.453	-0.235	-0.046
-592.982	-116.368	0.389	-0.072
-591.967	-200.000	0.015	0.243
-590.952	-81.315	-0.213	0.070
-589.938	-51.032	0.238	-0.112
-588.923	800.000	0.062	0.245
-587.909	-72.217	0.372	0.138
-586.894	-168.522	-0.316	0.012
-585.879	399.987	-0.070	-0.147
-584.865	-62.732	0.146	0.060
-583.850	-200.000	-0.006	-0.061
-582.836	800.000	0.060	0.246
-581.821	22.080	-0.317	-0.259
-580.806	29.743	0.206	0.176
-579.792	-200.000	-0.019	-0.332
-578.777	-57.256	-0.239	-0.105
-577.763	282.046	-0.030	0.053
-576.748	-200.000	-0.004	-0.105
-575.733	107.620	0.291	-0.347
-574.719	153.597	0.038	0.053
-573.704	31.979	-0.190	-0.164
-572.690	800.000	-0.091	0.273
-571.675	274.324	0.055	0.098
-570.661	80.200	0.048	-0.052
-569.646	-64.903	0.467	-0.189
-568.631	-80.806	-0.346	0.115
-567.617	642.408	0.116	-0.295
-566.602	53.886	0.024	-0.023
-565.588	350.927	0.106	-0.209
-564.573	104.724	0.072	0.085
-563.558	-200.000	-0.001	0.225
-562.544	53.351	0.091	0.087
-561.529	-74.518	0.394	-0.142
-560.515	208.731	-0.197	-0.308
-559.500	-22.230	0.124	-0.075
-558.485	-54.915	-0.051	-0.023
-557.471	-16.746	0.241	0.152
-556.456	-200.000	-0.041	0.184
-555.442	-97.234	0.200	-0.052
-554.427	145.438	-0.077	-0.103
-553.412	115.358	0.068	-0.083
-552.398	-80.875	0.133	0.044
-551.383	-99.568	-0.422	-0.106
-550.369	-200.000	-0.029	-0.346
-549.354	-81.119	0.220	-0.073
-548.339	199.090	-0.157	-0.240
-547.325	-200.000	0.052	-0.320
-546.310	-84.634	-0.236	-0.074
-545.296	-200.000	-0.013	-0.312
-544.281	-40.365	0.094	-0.049
-543.266	234.828	-0.093	-0.154
-542.252	-38.366	-0.190	0.100
-541.237	136.775	-0.175	0.228
-540.223	-200.000	0.011	0.134
-539.208	114.368	0.086	0.104
-538.193	38.059	0.195	-0.173
-537.179	800.000	0.047	0.185
-536.164	93.014	-0.176	-0.199
-535.150	346.892	0.148	0.290
-534.135	800.000	0.065	-0.183
-533.121	-78.392	0.242	0.083
-532.106	-200.000	-0.015	-0.088
-531.091	161.595	-0.136	-0.190
-530.077	-116.506	-0.144	-0.027
-529.062	-92.077	-0.109	0.031
-528.048	-137.996	-0.309	0.034
-527.033	-102.571	0.112	-0.027
-526.018	-109.755	0.180	0.038
-525.004	-45.315	-0.478	-0.237
-523.989	-200.000	-0.050	-0.431
-522.975	-200.000	0.064	-0.315
-521.960	89.752	-0.060	0.067
-520.945	800.000	-0.076	-0.221
-519.931	-142.928	0.225	0.022
-518.916	177.432	-0.067	0.097
-517.902	146.775	0.131	-0.176
-516.887	-59.223	-0.243	-0.105
-515.872	620.681	-0.087	0.219
-514.858	209.941	-0.033	0.052
-513.843	-158.153	-0.181	0.011
-512.829	-200.000	-0.030	-0.180
-511.814	655.364	-0.062	0.158
-510.799	-35.957	-0.098	0.053
-509.785	-71.027	0.235	0.088
-508.770	221.081	-0.133	0.213
-507.756	-200.000	-0.030	0.254
-506.741	334.977	-0.032	0.061
-505.726	14.453	-0.190	0.148
-504.712	85.999	-0.060	-0.066
-503.697	-200.000	-0.020	0.138
-502.683	387.541	-0.143	0.294
-501.668	-200.000	0.013	0.228
-500.653	-91.849	0.162	-0.046
-499.639	-200.000	0.025	0.214
-498.624	-65.465	0.160	0.064
-497.610	-151.546	-0.217	-0.016
-496.595	165.822	-0.136	-0.192
-495.581	25.535	-0.115	-0.096
-494.566	800.000	-0.048	-0.180
-493.551	506.923	0.148	-0.343
-492.537	-46.232	0.042	-0.020
-491.522	8.183	-0.046	-0.034
-490.508	-200.000	0.018	0.380
-489.493	-49.163	0.227	-0.108
-488.478	72.110	0.301	-0.312
-487.464	544.908	-0.020	-0.048
-486.449	800.000	-0.074	-0.230
-485.435	192.384	-0.110	-0.165
-484.420	-126.782	-0.094	-0.014
-483.405	-66.771	-0.055	0.022
-482.391	-200.000	-0.044	0.265
-481.376	-200.000	0.041	0.492
-480.362	307.974	-0.090	-0.168
-479.347	784.947	0.082	-0.224
-478.332	-171.264	0.336	0.011
-477.318	-154.670	-0.336	-0.022
-476.303	54.171	0.173	0.166
-475.289	-162.511	0.354	0.017
-474.274	-79.911	0.135	-0.045
-473.259	-186.921	0.358	0.005
-472.245	-172.824	0.310	0.010
-471.230	-75.353	-0.195	-0.069
-470.216	347.947	0.128	-0.251
-469.201	-60.406	0.244	-0.103
-468.186	-200.000	0.001	-0.040
-467.172	123.976	-0.214	-0.267
-466.157	272.054	-0.100	-0.176
-465.143	203.475	-0.057	-0.087
-464.128	-169.512	0.297	0.011
-463.113	-17.594	0.207	-0.129
-462.099	-200.000	-0.067	0.325
-461.084	-65.735	0.103	0.041
-460.070	43.193	0.096	-0.087
-459.055	-45.580	-0.140	0.069
-458.040	-200.000	-0.001	0.123
-457.026	61.066	0.156	-0.155
-456.011	-200.000	0.020	-0.124
-454.997	9.593	0.220	-0.166
-453.982	-200.000	0.042	-0.313
-452.968	-158.866	0.185	-0.010
-451.953	72.474	0.184	0.191
-450.938	473.975	-0.058	0.131
-449.924	-82.037	-0.197	0.064
-448.909	-171.704	0.088	0.003
-447.895	-200.000	-0.043	0.205
-446.880	-71.609	0.112	-0.042
-445.865	-200.000	-0.001	0.137
-444.851	-95.213	0.267	-0.072
-443.836	-135.500	-0.462	0.055
-442.822	800.000	-0.056	0.156
-441.807	18.951	0.188	0.150
-440.792	-121.849	0.325	0.053
-439.778	302.679	-0.130	0.239
-438.763	-99.850	-0.207	0.052
-437.749	800.000	0.140	0.407
-436.734	-200.000	-0.014	-0.220
-435.719	-17.297	0.194	0.122
-434.705	-66.079	0.132	0.052
-433.690	800.000	-0.053	0.191
-432.676	785.239	0.038	0.105
-431.661	12.234	-0.075	-0.058
-430.646	121.613	-0.134	-0.166
-429.632	-200.000	-0.033	0.166
-428.617	29.946	0.125	0.106
-427.603	29.010	0.100	0.084
-426.588	-151.754	-0.158	-0.012
-425.573	-200.000	-0.008	-0.461
-424.559	9.983	0.193	0.146
-423.544	182.095	-0.147	0.215
-422.530	144.903	-0.054	-0.072
-421.515	5.848	0.257	0.189
-420.500	50.779	0.418	0.393
-419.486	-150.030	-0.191	0.015
-418.471	-45.448	0.222	-0.109
-417.457	86.197	0.226	-0.248
-416.442	-61.624	-0.118	0.049
-415.428	54.553	-0.070	-0.067
-414.413	800.000	0.170	-0.592
-413.398	-200.000	0.000	0.456
-412.384	-130.271	0.160	0.022
-411.369	-200.000	-0.004	0.059
-410.355	17.587	-0.051	-0.041
-409.340	-9.412	0.242	0.160
-408.325	277.313	-0.038	-0.067
-407.311	-200.000	-0.023	-0.115
-406.296	51.118	0.104	-0.098
-405.282	-200.000	-0.002	0.038
-404.267	800.000	-0.058	-0.208
-403.252	64.334	-0.178	0.179
-402.238	-161.707	-0.074	0.004
-401.223	321.701	0.075	-0.142
-400.209	-200.000	-0.011	0.055
-399.194	164.801	-0.058	-0.081
-398.179	800.000	-0.011	0.047
-397.165	-200.000	0.009	0.076
-396.150	-44.974	0.385	0.190
-395.136	281.321	-0.112	-0.199
-394.121	224.022	0.188	-0.302
-393.106	-200.000	-0.019	0.146
-392.092	84.431	0.111	0.121
-391.077	800.000	0.089	0.266
-390.063	-24.837	0.128	0.076
-389.048	116.898	-0.216	-0.264
-388.033	-200.000	-0.000	-0.214
-387.019	-31.885	-0.251	0.140
-386.004	-5.460	-0.237	-0.161
-384.990	-89.643	-0.344	-0.100
-383.975	-200.000	0.011	-0.048
-382.960	-96.123	0.135	0.036
-381.946	420.082	-0.191	0.407
-380.931	-200.000	0.012	0.114
-379.917	-124.664	0.231	0.036
-378.902	-111.078	-0.146	-0.030
-377.888	-200.000	-0.013	-0.076
-376.873	666.785	-0.075	0.191
-375.858	800.000	-0.098	0.334
-374.844	800.000	0.046	-0.144
-373.829	-104.585	-0.348	-0.080
-372.815	252.904	-0.194	-0.329
-371.800	-51.534	0.106	0.049
-370.785	-170.297	0.250	0.009
-369.771	-200.000	0.053	-0.284
-368.756	-44.143	0.084	-0.042
-367.742	-66.360	-0.227	-0.089
-366.727	800.000	-0.106	-0.344
-365.712	368.702	0.105	0.212
-364.698	245.513	-0.177	0.295
-363.683	-68.264	-0.378	0.146
-362.669	19.549	0.185	-0.147
-361.654	-200.000	0.002	-0.252
-360.639	375.660	-0.135	0.273
-359.625	302.510	-0.091	-0.166
-358.610	34.610	-0.218	0.189
-357.596	-128.001	-0.225	-0.032
-356.581	-69.823	-0.301	-0.114
-355.566	-200.000	-0.010	-0.098
-354.552	-30.039	-0.356	0.201
-353.537	-200.000	-0.002	0.429
-352.523	170.359	-0.090	-0.128
-351.508	-76.554	-0.184	0.064
-350.493	800.000	-0.022	0.087
-349.479	-200.000	-0.003	0.145
-348.464	56.359	-0.172	0.166
-347.450	230.605	0.098	-0.160
-346.435	-11.472	-0.146	0.095
-345.420	589.202	-0.152	-0.372
-344.406	-20.887	0.366	-0.222
-343.391	-33.634	0.470	-0.257
-342.377	123.457	0.023	-0.029
-341.362	800.000	-0.026	-0.087
-340.348	-162.220	0.208	-0.010
-339.333	22.208	0.076	-0.061
-338.318	28.948	0.033	-0.028
-337.304	-200.000	0.001	0.302
-336.289	181.747	-0.193	0.282
-335.275	390.766	0.111	-0.228
-334.260	-44.580	0.040	0.020
-333.245	188.788	0.247	0.366
-332.231	-89.327	-0.164	0.048
-331.216	-200.000	-0.038	-0.520
-330.202	314.262	-0.099	-0.184
-329.187	-77.166	-0.299	0.103
-328.172	800.000	-0.079	0.280
-327.158	-49.003	0.093	0.044
-326.143	6.701	0.255	-0.188
-325.129	-200.000	-0.021	0.224
-324.114	102.931	0.352	-0.408
-323.099	-200.000	-0.022	0.170
-322.085	-21.715	-0.152	0.091
-321.070	61.810	-0.225	0.222
-320.056	466.758	0.031	-0.070
-319.041	16.321	0.250	-0.196
-318.026	-52.551	0.317	-0.145
-317.012	-96.267	-0.216	0.057
-315.997	-14.056	0.213	0.136
-314.983	266.693	-0.141	-0.243
-313.968	641.247	0.087	-0.220
-312.953	153.081	-0.223	-0.302
-311.939	-200.000	0.012	0.072
-310.924	36.240	-0.256	0.223
-309.910	-1.858	-0.383	0.267
-308.895	-177.423	0.328	-0.008
-307.880	405.861	0.097	0.203
-306.866	-86.290	-0.156	-0.047
-305.851	65.304	-0.043	-0.043
-304.837	10.801	-0.139	0.105
-303.822	-200.000	0.017	-0.198
-302.807	26.936	-0.285	0.237
-301.793	-78.719	0.233	0.079
-300.778	63.830	0.191	-0.190
-299.764	638.011	-0.052	-0.131
-298.749	-200.000	-0.003	-0.092
-297.735	-86.955	0.095	0.029
-296.720	10.346	-0.139	-0.104
-295.705	-147.007	-0.101	0.009
-294.691	270.125	-0.232	0.403
-293.676	10.624	-0.154	0.116
-292.662	121.211	-0.195	0.240
-291.647	151.513	0.129	-0.174
-290.632	-200.000	0.007	0.138
-289.618	-86.720	0.194	-0.059
-288.603	-30.542	0.146	0.082
-287.589	-162.916	0.055	0.003
-286.574	69.150	0.210	-0.213
-285.559	-2.521	-0.330	0.229
-284.545	555.015	-0.139	-0.330
-283.530	-200.000	-0.010	0.285
-282.516	800.000	0.040	-0.149
-281.501	800.000	0.036	-0.133
-280.486	-200.000	0.028	-0.233
-279.472	-72.597	0.182	0.067
-278.457	40.870	-0.304	0.271
-277.443	135.230	-0.095	0.122
-276.428	46.220	-0.153	-0.140
-275.413	429.151	-0.132	-0.281
-274.399	16.417	0.190	-0.148
-273.384	108.754	-0.040	-0.048
-272.370	-122.248	-0.221	-0.036
-271.355	800.000	-0.066	0.206
-270.340	17.024	0.118	0.093
-269.326	-151.904	-0.237	-0.017
-268.311	-91.150	0.104	-0.030
-267.297	-200.000	-0.011	-0.126
-266.282	-42.625	0.358	0.180
-265.267	315.519	0.223	0.415
-264.253	-48.520	0.239	0.114
-263.238	-56.897	-0.212	-0.092
-262.224	800.000	0.068	-0.227
-261.209	-58.706	-0.232	0.099
-260.195	308.301	-0.092	0.170
-259.180	-200.000	-0.018	-0.317
-258.165	207.816	0.129	0.199
-257.151	66.672	-0.079	0.080
-256.136	473.551	0.016	-0.035
-255.122	94.436	0.058	-0.065
-254.107	-15.351	0.195	-0.123
-253.092	-200.000	0.002	-0.338
-252.078	-40.413	-0.173	0.089
-251.063	-41.985	-0.082	0.041
-250.049	-82.170	-0.118	-0.038
-249.034	-117.057	-0.466	-0.084
-248.019	-80.836	-0.223	0.073
-247.005	-62.672	0.155	0.063
-245.990	561.352	-0.022	-0.054
-244.976	118.353	0.029	0.035
-243.961	-138.897	-0.110	0.012
-242.946	800.000	0.055	0.218
-241.932	231.584	-0.112	-0.182
-240.917	-41.663	-0.352	-0.179
-239.903	-200.000	-0.030	-0.337
-238.888	-200.000	0.009	-0.085
-237.873	-200.000	0.013	-0.206
-236.859	-200.000	-0.020	0.372
-235.844	-123.343	-0.301	0.047
-234.830	-63.666	-0.278	-0.113
-233.815	-153.052	0.328	0.023
-232.800	-200.000	0.003	0.144
-231.786	-52.142	-0.138	0.063
-230.771	122.711	0.129	0.159
-229.757	-59.102	-0.230	-0.098
-228.742	-104.690	0.183	0.042
-227.727	-51.231	-0.236	0.109
-226.713	384.174	-0.095	0.194
-225.698	59.524	0.159	-0.155
-224.684	800.000	0.117	-0.358
-223.669	800.000	-0.085	0.253
-222.655	294.235	-0.069	0.124
-221.640	209.911	0.158	0.245
-220.625	87.755	0.227	0.248
-219.611	162.116	-0.202	-0.280
-218.596	127.637	-0.149	-0.186
-217.582	-57.391	-0.492	0.213
-216.567	106.650	-0.194	-0.227
-215.552	184.027	-0.129	-0.188
-214.538	800.000	-0.024	-0.093
-213.523	443.104	0.046	-0.099
-212.509	270.788	-0.055	-0.096
-211.494	-200.000	0.009	-0.235
-210.479	-93.381	-0.199	-0.054
-209.465	800.000	0.107	-0.297
-208.450	183.245	0.163	-0.237
-207.436	-61.608	0.091	0.037
-206.421	-200.000	0.029	0.182
-205.406	-78.390	0.171	0.058
-204.392	-118.036	0.241	-0.042
-203.377	-94.369	-0.156	0.042
-202.363	800.000	-0.074	0.247
-201.348	-27.943	0.145	-0.083
-200.333	-33.733	-0.040	0.022
-199.319	-200.000	-0.007	0.088
-198.304	76.993	0.110	0.116
-197.290	-200.000	0.009	0.110
-196.275	172.011	0.190	-0.270
-195.260	399.412	0.089	0.183
-194.246	132.981	0.387	0.492
-193.231	360.504	0.168	0.331
-192.217	-19.180	-0.171	0.105
-191.202	-80.215	0.194	-0.064
-190.187	53.225	0.073	-0.069
-189.173	295.514	0.171	-0.308
-188.158	-97.161	0.140	0.036
-187.144	371.489	-0.079	-0.158
-186.129	50.666	0.385	0.359
-185.114	557.757	0.168	0.399
-184.100	63.819	-0.156	-0.154
-183.085	290.644	-0.190	0.340
-182.071	99.590	0.047	-0.054
-181.056	-100.903	-0.142	-0.034
-180.042	49.301	-0.070	-0.065
-179.027	291.936	0.181	0.324
-178.012	-200.000	-0.005	0.104
-176.998	119.380	-0.231	0.282
-175.983	800.000	-0.067	0.224
-174.969	-200.000	0.028	0.166
-173.954	-94.312	0.105	0.028
-172.939	389.217	-0.200	0.408
-171.925	-39.854	-0.401	-0.206
-170.910	-111.790	-0.049	0.010
-169.896	78.111	0.075	-0.079
-168.881	-72.723	0.322	-0.117
-167.866	8.292	-0.260	-0.192
-166.852	540.934	0.037	-0.088
-165.837	-180.375	-0.133	-0.003
-164.823	65.589	0.248	0.247
-163.808	398.777	0.104	-0.214
-162.793	-148.443	0.149	-0.012
-161.779	-39.422	0.248	0.128
-160.764	19.917	-0.442	0.351
-159.750	-166.055	0.162	0.007
-158.735	-66.080	0.076	0.030
-157.720	-78.394	0.258	-0.087
-156.706	-200.000	0.008	0.476
-155.691	-95.737	-0.204	-0.054
-154.677	-101.140	0.217	0.052
-153.662	-33.964	-0.087	0.047
-152.647	800.000	-0.170	0.465
-151.633	765.495	-0.080	-0.215
-150.618	6.760	0.140	0.103
-149.604	-36.148	0.261	0.139
-148.589	219.515	0.105	-0.165
-147.574	123.488	-0.083	-0.102
-146.560	-173.579	-0.284	0.008
-145.545	-128.106	0.281	0.040
-144.531	97.076	0.034	0.039
-143.516	-112.419	-0.119	0.023
-142.502	16.200	0.199	-0.155
-141.487	197.655	0.154	-0.231
-140.472	-200.000	0.016	-0.103
-139.458	-136.057	0.203	0.023
-138.443	53.432	-0.215	0.203
-137.429	-123.686	-0.150	-0.023
-136.414	-117.467	0.098	0.017
-135.399	105.285	-0.159	0.184
-134.385	-168.041	0.591	-0.023
-133.370	234.343	0.147	0.238
-132.356	-66.808	-0.229	-0.089
-131.341	-200.000	-0.037	0.316
-130.326	-22.385	0.297	-0.177
-129.312	-200.000	-0.019	0.204
-128.297	-103.466	-0.174	0.040
-127.283	-200.000	0.033	0.378
-126.268	-59.734	0.254	-0.107
-125.253	8.371	-0.222	0.164
-124.239	-60.735	-0.491	-0.205
-123.224	800.000	0.006	0.019
-122.210	194.509	0.090	0.134
-121.195	30.030	0.190	-0.159
-120.180	-127.482	0.086	0.012
-119.166	-119.769	0.155	0.026
-118.151	-109.517	-0.142	0.029
-117.137	-200.000	-0.016	0.171
-116.122	800.000	-0.082	0.259
-115.107	97.655	0.351	0.396
-114.093	290.822	-0.107	0.190
-113.078	-200.000	-0.058	-0.258
-112.064	-148.832	-0.166	-0.013
-111.049	-200.000	0.027	-0.234
-110.034	287.072	-0.049	0.088
-109.020	6.817	-0.117	0.086
-108.005	-167.538	0.131	-0.005
-106.991	-49.797	-0.132	-0.062
-105.976	725.998	0.059	0.154
-104.962	73.132	-0.194	0.199
-103.947	149.647	-0.142	0.189
-102.932	459.118	0.160	-0.349
-101.918	-200.000	-0.041	0.250
-100.903	-22.317	-0.193	0.115
-99.889	-28.468	-0.023	0.013
-98.874	-200.000	0.029	0.335
-97.859	-200.000	0.004	0.216
-96.845	21.669	0.248	-0.198
-95.830	-108.799	-0.141	0.030
-94.816	49.306	-0.324	-0.299
-93.801	-200.000	0.044	0.335
-92.786	208.498	0.137	0.210
-91.772	28.354	0.098	-0.081
-90.757	-59.470	-0.524	-0.221
-89.743	322.232	-0.183	0.342
-88.728	-43.086	0.270	-0.134
-87.713	-14.331	-0.258	-0.163
-86.699	79.890	0.116	-0.122
-85.684	-4.698	0.167	-0.113
-84.670	32.862	-0.171	-0.146
-83.655	-114.661	0.066	0.012
-82.640	259.594	0.099	-0.168
-81.626	10.266	0.014	0.010
-80.611	38.869	-0.209	0.183
-79.597	-112.235	0.481	-0.095
-78.582	89.670	-0.269	-0.294
-77.567	132.483	-0.074	-0.093
-76.553	61.815	0.079	0.077
-75.538	800.000	0.067	-0.231
-74.524	800.000	0.050	-0.149
-73.509	-142.751	-0.195	-0.019
-72.494	195.176	-0.209	0.311
-71.480	-69.834	-0.367	-0.138
-70.465	-159.949	-0.110	0.006
-69.451	-200.000	0.026	-0.165
-68.436	108.617	0.085	0.099
-67.422	-183.801	-0.211	-0.004
-66.407	20.026	0.301	0.238
-65.392	153.987	-0.084	-0.112
-64.378	492.650	0.089	0.201
-63.363	396.897	-0.114	0.234
-62.349	-200.000	0.005	0.319
-61.334	5.408	-1.344	-0.972
-60.319	-1.729	0.440	0.304
-59.305	-200.000	0.026	-0.956
-58.290	295.154	0.838	1.503
-57.276	800.000	0.625	1.837
-56.261	-200.000	110.080	591.210
-55.246	407.555	1536.597	3183.118
-54.232	138.647	2737.686	3523.069
-53.217	101.376	2202.178	2513.589
-52.203	39.429	1635.461	1435.587
-51.188	31.111	1374.671	1155.377
-50.173	28.216	1335.201	1104.716
-49.159	53.246	1391.503	1306.192
-48.144	52.952	1406.103	1318.040
-47.130	31.390	1360.898	1145.330
-46.115	28.129	1342.400	1109.967
-45.100	27.948	1337.236	1104.560
-44.086	27.768	1335.270	1101.804
-43.071	27.683	1332.807	1099.215
-42.057	27.726	1330.320	1097.377
-41.042	27.685	1329.068	1096.058
-40.027	27.844	1327.129	1095.364
-39.013	27.873	1325.218	1093.918
-37.998	27.740	1323.584	1091.732
-36.984	27.780	1322.063	1090.676
-35.969	27.861	1320.387	1089.732
-34.954	27.911	1318.308	1088.271
-33.940	27.879	1316.832	1086.819
-32.925	27.839	1315.251	1085.230
-31.911	27.925	1314.159	1084.800
-30.896	28.012	1312.570	1083.960
-29.881	28.033	1311.403	1083.079
-28.867	28.048	1309.763	1081.770
-27.852	27.941	1308.612	1080.144
-26.838	28.051	1306.771	1079.232
-25.823	27.986	1305.669	1077.891
-24.809	27.931	1304.542	1076.598
-23.794	27.892	1302.994	1075.045
-22.779	27.976	1301.634	1074.376
-21.765	27.910	1300.310	1072.854
-20.750	27.992	1299.054	1072.252
-19.736	27.872	1297.924	1070.575
-18.721	27.873	1296.463	1069.332
-17.706	27.796	1295.431	1067.990
-16.692	27.823	1294.609	1067.426
-15.677	27.752	1293.689	1066.214
-14.663	27.814	1292.355	1065.432
-13.648	27.778	1290.919	1063.996
-12.633	27.821	1289.852	1063.325
-11.619	27.904	1288.671	1062.791
-10.604	27.818	1288.419	1062.041
-9.590	27.834	1287.362	1061.222
-8.575	27.797	1286.443	1060.207
-7.560	27.869	1285.239	1059.590
-6.546	27.836	1284.493	1058.743
-5.531	27.819	1283.494	1057.777
-4.517	27.849	1282.909	1057.425
-3.502	27.867	1281.711	1056.502
-2.487	27.737	1281.584	1055.603
-1.473	27.998	1277.049	1053.331
-0.458	27.121	1262.714	1036.464
0.556	23.420	1246.894	1003.041
1.571	19.959	1253.329	988.406
2.586	18.603	1267.670	991.791
3.600	17.375	1254.788	974.596
4.615	12.567	1179.400	890.009
5.629	4.808	1103.778	793.453
6.644	1.096	1084.212	760.716
7.659	0.860	1081.939	757.870
8.673	0.790	1080.897	756.721
9.688	0.835	1079.890	756.174
10.702	1.059	1077.564	755.599
11.717	5.286	1083.814	781.081
12.731	12.648	1093.026	824.648
13.746	16.622	1097.513	847.912
14.761	17.413	1097.756	851.989
15.775	16.671	1096.230	847.015
16.790	15.684	1094.176	840.422
17.804	15.079	1092.461	836.014
18.819	14.490	1091.921	832.584
19.834	14.415	1090.577	831.110
20.848	14.044	1090.255	828.943
21.863	13.823	1089.254	827.006
22.877	13.781	1087.869	825.676
23.892	13.710	1086.824	824.456
24.907	13.667	1086.741	824.103
25.921	13.644	1085.680	823.111
26.936	13.659	1084.995	822.595
27.950	13.790	1083.663	822.160
28.965	13.804	1082.736	821.456
29.980	13.855	1081.665	820.821
30.994	13.934	1080.143	819.984
32.009	13.930	1079.051	819.063
33.023	13.873	1078.005	817.914
34.038	13.829	1076.881	816.773
35.053	13.840	1076.031	816.113
36.067	13.790	1075.399	815.313
37.082	13.782	1074.714	814.685
38.096	13.853	1073.766	814.243
39.111	13.915	1072.655	813.631
40.126	13.743	1071.917	812.158
41.140	13.668	1070.755	810.835
42.155	13.684	1069.315	809.753
43.169	13.569	1068.777	808.714
44.184	13.548	1067.493	807.568
45.199	13.605	1066.028	806.665
46.213	13.641	1065.029	806.013
47.228	13.687	1064.119	805.479
48.242	13.698	1063.121	804.702
49.257	13.650	1062.419	803.867
50.271	13.836	1060.892	803.543
51.286	13.794	1060.347	802.854
52.301	13.758	1059.364	801.864
53.315	13.678	1058.315	800.614
54.330	13.797	1056.972	800.104
55.344	13.793	1056.041	799.309
56.359	13.718	1055.464	798.440
57.374	13.679	1054.560	797.498
58.388	13.652	1053.683	796.633
59.403	13.700	1052.492	795.891
60.417	13.591	1052.036	794.956
61.432	13.670	1051.049	794.518
62.447	13.528	1050.678	793.487
63.461	13.601	1049.439	792.829
64.476	13.628	1048.546	792.211
65.490	13.588	1048.231	791.713
66.505	13.676	1047.121	791.228
67.520	13.631	1046.448	790.434
68.534	13.649	1045.563	789.781
69.549	13.663	1044.891	789.270
70.563	13.596	1044.394	788.507
71.578	13.574	1043.525	787.673
72.593	13.615	1042.612	787.112
73.607	13.606	1041.906	786.467
74.622	13.507	1041.480	785.605
75.636	13.645	1040.819	785.692
76.651	13.523	1039.533	784.074
77.666	13.494	1039.211	783.625
78.680	13.551	1038.569	783.339
79.695	13.609	1037.654	782.856
80.709	13.568	1036.936	782.051
81.724	13.559	1036.430	781.555
82.739	13.714	1035.365	781.413
83.753	13.716	1034.758	780.896
84.768	13.835	1033.632	780.536
85.782	13.774	1032.829	779.575
86.797	13.847	1031.562	778.892
87.812	13.743	1030.921	777.852
88.826	13.713	1030.266	777.150
89.841	13.746	1029.289	776.499
90.855	13.857	1027.895	775.898
91.870	13.811	1027.489	775.308
92.884	13.813	1026.587	774.566
93.899	13.892	1025.402	773.973
94.914	13.891	1024.791	773.438
95.928	13.846	1023.941	772.520
96.943	13.782	1022.927	771.385
97.957	13.894	1021.940	771.096
98.972	13.901	1021.251	770.538
99.987	13.790	1020.555	769.433
101.001	13.922	1019.325	769.046
102.016	13.783	1018.868	767.992
103.030	13.849	1018.203	767.728
104.045	13.730	1017.562	766.624
105.060	13.861	1016.151	766.101
106.074	13.774	1015.186	764.904
107.089	13.747	1014.413	764.128
108.103	13.859	1013.206	763.666
109.118	13.690	1012.631	762.390
110.133	13.677	1011.820	761.649
111.147	13.867	1010.554	761.502
112.162	13.717	1010.088	760.396
113.176	13.845	1008.928	760.042
114.191	13.731	1008.422	759.070
115.206	13.767	1007.525	758.495
116.220	13.806	1006.748	758.018
117.235	13.854	1005.480	757.216
118.249	13.769	1004.739	756.206
119.264	13.899	1004.099	756.250
120.279	13.770	1003.269	754.968
121.293	13.687	1002.502	753.947
122.308	13.855	1001.386	753.805
123.322	13.703	1000.400	752.305
124.337	13.896	998.917	752.000
125.352	13.831	997.960	750.919
126.366	13.833	996.760	749.957
127.381	13.746	995.892	748.845
128.395	13.837	994.995	748.513
129.410	13.933	993.926	748.077
130.424	13.911	993.105	747.293
131.439	13.816	992.517	746.359
132.454	13.846	991.754	745.853
133.468	13.743	991.277	744.965
134.483	13.921	989.876	744.643
135.497	13.921	988.811	743.778
136.512	13.767	988.606	742.869
137.527	13.797	987.329	741.978
138.541	13.954	986.741	742.171
139.556	13.910	986.033	741.375
140.570	13.896	985.652	740.964
141.585	13.956	984.581	740.361
142.600	14.018	983.490	739.749
143.614	13.973	982.627	738.835
144.629	14.064	982.126	738.795
145.643	14.107	981.238	738.254
146.658	13.912	980.235	736.571
147.673	13.807	979.734	735.664
148.687	13.899	978.471	735.054
149.702	13.872	977.427	734.087
150.716	13.953	976.688	733.825
151.731	13.766	976.163	732.540
152.746	13.946	975.511	732.779
153.760	13.960	974.682	732.156
154.775	14.017	974.026	731.849
155.789	14.073	973.464	731.608
156.804	14.002	973.261	731.077
157.819	14.139	971.956	730.634
158.833	14.036	971.245	729.585
159.848	14.137	970.540	729.432
160.862	14.084	969.390	728.270
161.877	14.076	968.485	727.493
162.892	14.009	967.675	726.527
163.906	13.965	966.404	725.314
164.921	14.031	966.003	725.238
165.935	14.139	964.780	724.729
166.950	14.045	964.092	723.738
167.964	14.034	963.244	722.989
168.979	14.127	962.355	722.661
169.994	14.186	960.841	721.715
171.008	14.108	960.453	721.023
172.023	14.141	959.984	720.749
173.037	14.288	959.059	720.627
174.052	14.300	958.125	719.914
175.067	14.134	957.954	719.005
176.081	14.278	956.788	718.688
177.096	14.234	956.346	718.104
178.110	14.148	955.762	717.227
179.125	14.350	955.104	717.542
180.140	14.211	954.758	716.620
181.154	14.248	954.316	716.383
182.169	14.300	953.725	716.100
183.183	14.296	953.236	715.652
184.198	14.327	952.101	714.872
185.213	14.446	951.296	714.711
186.227	14.381	951.086	714.215
187.242	14.440	950.100	713.661
188.256	14.248	949.975	712.684
189.271	14.278	949.159	712.137
190.286	14.290	948.194	711.403
191.300	14.238	947.474	710.577
192.315	14.185	946.898	709.853
193.329	14.267	946.384	709.758
194.344	14.271	945.649	709.161
195.359	14.414	944.812	709.077
196.373	14.395	944.043	708.359
197.388	14.387	944.003	708.231
198.402	14.544	942.963	708.055
199.417	14.652	942.304	707.953
200.432	14.598	941.883	707.345
201.446	14.683	941.351	707.245
202.461	14.498	941.344	706.392
203.475	14.597	940.642	706.221
204.490	14.667	939.682	705.734
205.504	14.627	938.607	704.696
206.519	14.581	937.873	703.888
207.534	14.686	937.085	703.679
208.548	14.619	936.954	703.235
209.563	14.631	936.403	702.811
210.577	14.613	935.512	702.005
211.592	14.666	934.633	701.503
212.607	14.643	933.877	700.780
213.621	14.790	932.885	700.590
214.636	14.849	932.166	700.233
215.650	14.806	931.521	699.508
216.665	14.742	931.316	699.022
217.680	14.830	930.252	698.533
218.694	14.858	929.422	697.963
219.709	14.862	928.777	697.432
220.723	14.798	928.343	696.779
221.738	14.904	927.592	696.595
222.753	14.872	926.791	695.799
223.767	15.004	926.194	695.838
224.782	14.944	925.786	695.222
225.796	14.843	925.704	694.676
226.811	14.901	924.744	694.136
227.826	14.875	923.801	693.259
228.840	14.849	922.738	692.292
229.855	14.914	921.987	691.939
230.869	14.978	921.114	691.486
231.884	14.893	920.517	690.626
232.899	15.039	919.773	690.608
233.913	14.894	919.165	689.494
234.928	14.962	918.527	689.235
235.942	14.944	918.287	688.915
236.957	14.917	917.477	688.137
237.972	15.006	916.658	687.831
238.986	15.041	916.033	687.441
240.001	14.916	915.637	686.572
241.015	14.982	915.067	686.354
242.030	14.968	914.417	685.750
243.045	15.072	913.769	685.628
244.059	15.037	913.466	685.198
245.074	15.163	912.252	684.741
246.088	15.134	911.724	684.166
247.103	15.189	910.909	683.718
248.117	15.260	910.628	683.735
249.132	15.201	910.055	683.004
250.147	15.362	908.733	682.605
251.161	15.310	908.288	681.999
252.176	15.251	907.868	681.385
253.190	15.414	906.956	681.301
254.205	15.292	906.696	680.552
255.220	15.425	905.353	680.022
256.234	15.410	905.174	679.767
257.249	15.412	904.450	679.170
258.263	15.392	904.123	678.786
259.278	15.461	902.729	677.958
260.293	15.503	902.506	677.900
261.307	15.798	901.433	678.223
262.322	15.596	901.268	677.224
263.336	15.665	900.182	676.624
264.351	15.592	899.445	675.718
265.366	15.604	898.833	675.248
266.380	15.578	898.695	674.980
267.395	15.705	897.723	674.699
268.409	15.592	897.214	673.805
269.424	15.698	896.379	673.542
270.439	15.762	895.620	673.169
271.453	15.607	894.813	671.883
272.468	15.623	894.808	671.882
273.482	15.511	894.187	670.909
274.497	15.788	893.234	671.240
275.512	15.787	892.767	670.824
276.526	15.660	892.554	670.101
277.541	15.790	891.267	669.594
278.555	15.763	890.959	669.193
279.570	15.802	890.408	668.877
280.585	15.875	889.512	668.436
281.599	15.996	888.512	668.103
282.614	15.963	888.103	667.607
283.628	15.791	887.794	666.630
284.643	15.884	886.946	666.303
285.657	15.822	886.505	665.668
286.672	15.935	885.845	665.562
287.687	15.819	885.159	664.528
288.701	15.994	884.422	664.606
289.716	15.887	883.949	663.770
290.730	15.972	883.325	663.578
291.745	15.948	882.928	663.127
292.760	16.010	882.073	662.670
293.774	16.170	881.101	662.511
294.789	15.911	880.774	661.188
295.803	15.996	880.018	660.895
296.818	15.906	879.814	660.333
297.833	16.024	878.935	660.075
298.847	16.000	877.924	659.164
299.862	16.109	877.110	658.919
300.876	16.189	876.849	658.977
301.891	16.125	876.386	658.323
302.906	16.296	875.293	658.109
303.920	16.360	874.901	658.006
304.935	16.222	874.463	657.081
305.949	16.275	873.691	656.650
306.964	16.306	872.995	656.187
307.979	16.315	872.806	656.024
308.993	16.318	872.128	655.467
310.008	16.326	871.560	655.014
311.022	16.333	871.060	654.605
312.037	16.344	870.279	654.005
313.052	16.356	869.735	653.585
314.066	16.340	869.261	653.107
315.081	16.486	868.420	652.983
316.095	16.432	867.721	652.190
317.110	16.165	867.722	651.103
318.125	16.405	866.781	651.265
319.139	16.334	866.413	650.659
320.154	16.413	865.881	650.502
321.168	16.319	865.321	649.663
322.183	16.405	864.625	649.413
323.197	16.412	864.227	649.087
324.212	16.365	863.848	648.561
325.227	16.400	863.383	648.290
326.241	16.275	862.893	647.385
327.256	16.507	861.696	647.317
328.270	16.480	861.427	646.957
329.285	16.498	860.654	646.387
330.300	16.399	860.095	645.531
331.314	16.571	859.301	645.536
332.329	16.482	859.350	645.177
333.343	16.652	858.555	645.168
334.358	16.521	858.128	644.291
335.373	16.687	857.648	644.507
336.387	16.601	857.675	644.145
337.402	16.676	857.391	644.159
338.416	16.720	856.722	643.767
339.431	16.685	856.265	643.233
340.446	16.672	855.730	642.725
341.460	16.827	855.351	642.973
342.475	16.718	855.177	642.370
343.489	16.909	854.724	642.697
344.504	16.826	854.015	641.792
345.519	16.923	853.595	641.788
346.533	16.907	853.414	641.534
347.548	16.741	852.493	640.158
348.562	16.717	851.829	639.511
349.577	16.780	851.204	639.224
350.592	16.745	850.883	638.794
351.606	16.840	849.965	638.406
352.621	16.887	849.534	638.202
353.635	16.812	849.041	637.493
354.650	16.851	848.295	637.025
355.665	16.815	847.737	636.414
356.679	16.927	847.082	636.287
357.694	16.886	845.908	635.195
358.708	16.873	845.604	634.861
359.723	17.009	844.641	634.589
360.738	16.967	844.579	634.328
361.752	16.888	843.918	633.482
362.767	16.955	843.208	633.142
363.781	17.159	842.831	633.567
364.796	17.219	842.333	633.358
365.810	17.152	842.078	632.863
366.825	17.170	841.671	632.566
367.840	17.199	841.104	632.193
368.854	17.151	840.575	631.562
369.869	17.264	840.048	631.528
370.883	17.318	839.533	631.285
371.898	17.325	839.144	630.963
372.913	17.266	838.928	630.528
373.927	17.295	838.295	630.101
374.942	17.222	837.591	629.248
375.956	17.441	837.316	629.796
376.971	17.366	837.141	629.329
377.986	17.410	836.473	628.935
379.000	17.419	836.038	628.587
380.015	17.563	835.118	628.371
381.029	17.482	834.556	627.595
382.044	17.416	834.143	626.981
383.059	17.585	833.238	626.872
384.073	17.555	832.792	626.367
385.088	17.491	832.341	625.740
386.102	17.531	831.752	625.388
387.117	17.471	831.440	624.876
388.132	17.577	830.872	624.784
389.146	17.507	830.338	624.069
390.161	17.480	830.047	623.696
391.175	17.643	829.578	623.885
392.190	17.531	828.873	622.892
393.205	17.454	828.767	622.477
394.219	17.500	827.960	621.981
395.234	17.494	828.024	621.951
396.248	17.498	827.483	621.508
397.263	17.638	826.789	621.441
398.278	17.633	826.301	621.000
399.292	17.611	825.901	620.566
400.307	17.586	825.930	620.442
401.321	17.528	825.208	619.632
402.336	17.708	824.600	619.774
403.350	17.687	823.904	619.121
404.365	17.829	823.341	619.159
405.380	17.731	822.882	618.403
406.394	17.836	822.634	618.543
407.409	17.814	822.502	618.309
408.423	17.756	822.119	617.757
409.438	17.996	821.472	618.082
410.453	17.988	820.655	617.384
411.467	17.856	820.753	616.928
412.482	17.963	819.713	616.476
413.496	18.042	819.797	616.771
414.511	18.025	819.188	616.198
415.526	18.045	818.872	615.976
416.540	18.002	818.594	615.558
417.555	18.066	817.913	615.221
418.569	18.126	817.354	614.964
419.584	17.959	817.287	614.258
420.599	17.998	816.743	613.936
421.613	111.807	1295.730	1475.327
422.628	96.798	1365.503	1475.422
