DTS Sentinel unit serial number:	SN413079Multiplexer serial number:	ORYXHardware model number:	OX4-SRSoftware version number:	ORYX F/W v4.00 Oryx Data Collector v3.7.2.0data status	okinstallation	princeton_trtdifferential loss correction	single-endedforward channel	channel 1reverse channel	N/Adate	2019/09/17time	14:18:35forward acquisition time	60.00reverse acquisition time	0.00gamma	496.2192k internal	0.2299k external	0.2299temperature offset calibration	0.9970default loss term (dB/km)	0.3790temperature slope calibration	1.0000multiplexer offset coefficient	1.0000multiplexer slope coefficient	1.0000fibre end	0.00T internal ref (°C)	36.12T ext. ref 1 (°C)	0.40T ext. ref 2 (°C)	33.26length (m)	temperature (°C)	Stokes	anti-Stokes-747.200	800.000	0.007	-0.021
-746.185	189.080	0.437	0.667
-745.171	-30.460	0.435	0.252
-744.156	800.000	-0.043	0.154
-743.142	174.624	-0.151	0.223
-742.127	-200.000	0.018	0.263
-741.112	-27.261	0.206	-0.123
-740.098	800.000	0.079	0.268
-739.083	-200.000	0.022	0.202
-738.069	14.861	-0.179	-0.143
-737.054	71.924	0.166	-0.176
-736.039	376.259	-0.019	-0.039
-735.025	193.794	-0.178	0.275
-734.010	-55.241	-0.303	-0.139
-732.996	-47.055	-0.136	0.068
-731.981	-39.165	0.051	-0.027
-730.966	-119.773	-0.199	0.035
-729.952	-44.197	-0.373	-0.191
-728.937	151.999	0.127	0.177
-727.923	2.009	-0.069	-0.050
-726.908	41.303	-0.365	-0.336
-725.894	94.544	-0.100	-0.116
-724.879	-200.000	0.038	0.266
-723.864	800.000	-0.134	0.480
-722.850	161.797	-0.095	0.136
-721.835	511.209	-0.051	0.121
-720.821	185.477	-0.295	-0.446
-719.806	-17.864	-0.155	0.099
-718.791	-52.909	-0.276	0.130
-717.777	639.940	-0.070	0.181
-716.762	-200.000	0.005	-0.125
-715.748	84.827	0.127	0.142
-714.733	-1.718	-0.115	0.082
-713.718	-195.237	-0.215	0.002
-712.704	3.318	-0.230	0.171
-711.689	242.024	0.216	0.368
-710.675	-200.000	0.105	-0.477
-709.660	230.259	0.046	-0.076
-708.645	208.357	-0.160	-0.255
-707.631	-200.000	0.005	-0.121
-706.616	20.750	-0.171	0.141
-705.602	-9.649	-0.277	-0.188
-704.587	-105.425	0.130	0.030
-703.572	134.878	0.044	-0.058
-702.558	800.000	0.075	0.258
-701.543	-200.000	0.003	0.061
-700.529	-200.000	0.006	0.255
-699.514	-12.230	0.117	-0.078
-698.499	182.246	-0.102	-0.153
-697.485	-200.000	0.003	-0.040
-696.470	-200.000	-0.030	-0.311
-695.456	800.000	-0.120	-0.436
-694.441	-98.087	0.230	-0.060
-693.426	-200.000	0.025	0.252
-692.412	214.884	-0.077	-0.124
-691.397	539.521	-0.107	-0.259
-690.383	-126.921	-0.070	0.010
-689.368	-142.299	-0.415	-0.042
-688.354	522.214	0.071	-0.169
-687.339	-40.542	-0.222	-0.117
-686.324	-200.000	-0.010	0.125
-685.310	31.498	0.292	0.256
-684.295	-200.000	0.041	0.242
-683.281	-116.418	-0.095	-0.018
-682.266	-76.714	0.448	0.160
-681.251	-53.285	0.228	0.107
-680.237	-92.219	-0.535	-0.154
-679.222	-36.397	-0.203	-0.111
-678.208	166.706	0.072	-0.104
-677.193	336.808	-0.023	-0.046
-676.178	800.000	-0.088	-0.340
-675.164	-200.000	-0.042	-0.335
-674.149	-153.111	-0.117	0.008
-673.135	-115.644	-0.300	0.057
-672.120	164.424	0.181	0.259
-671.105	800.000	0.026	0.101
-670.091	176.568	0.157	0.232
-669.076	800.000	-0.029	-0.095
-668.062	-200.000	0.003	0.079
-667.047	-200.000	0.000	0.027
-666.032	-69.375	0.085	-0.033
-665.018	65.493	-0.187	0.193
-664.003	-85.556	-0.297	0.094
-662.989	-8.829	-0.131	-0.089
-661.974	61.618	0.042	-0.043
-660.959	283.700	0.094	-0.171
-659.945	39.596	-0.112	-0.102
-658.930	-92.487	-0.217	0.062
-657.916	694.955	-0.101	-0.271
-656.901	-2.128	-0.185	-0.132
-655.886	-200.000	0.029	-0.270
-654.872	-200.000	0.028	0.198
-653.857	72.466	0.179	0.189
-652.843	-13.788	-0.086	-0.057
-651.828	-23.585	-0.170	-0.104
-650.814	-200.000	0.011	0.122
-649.799	-139.148	-0.047	-0.005
-648.784	-190.022	-0.364	-0.004
-647.770	224.493	0.061	-0.100
-646.755	-120.813	0.121	0.021
-645.741	-133.184	-0.265	0.034
-644.726	588.021	-0.154	0.387
-643.711	-200.000	0.018	-0.198
-642.697	-200.000	0.010	-0.070
-641.682	9.944	-0.183	-0.141
-640.668	800.000	-0.034	0.150
-639.653	-30.903	0.270	-0.155
-638.638	800.000	-0.084	-0.248
-637.624	-0.578	-0.215	0.155
-636.609	-73.755	-0.099	0.037
-635.595	-24.520	-0.048	-0.029
-634.580	800.000	-0.131	-0.476
-633.565	-200.000	0.003	0.225
-632.551	146.109	-0.098	-0.133
-631.536	-78.095	-0.277	0.097
-630.522	-53.332	0.183	-0.085
-629.507	-2.615	-0.364	-0.259
-628.492	16.781	0.138	0.111
-627.478	64.990	0.117	0.120
-626.463	506.722	0.019	0.046
-625.449	193.903	-0.151	-0.232
-624.434	138.022	-0.065	0.087
-623.419	198.271	-0.066	0.102
-622.405	682.016	-0.071	-0.187
-621.390	43.523	-0.109	0.101
-620.376	291.174	0.094	-0.173
-619.361	-59.275	-0.358	0.157
-618.346	249.978	-0.096	-0.166
-617.332	-200.000	-0.034	0.196
-616.317	129.114	-0.169	-0.219
-615.303	-66.111	0.223	-0.090
-614.288	363.558	-0.039	0.079
-613.273	800.000	0.063	0.203
-612.259	287.588	-0.099	0.182
-611.244	-44.294	-0.181	-0.092
-610.230	362.670	0.049	-0.099
-609.215	-115.837	0.191	0.036
-608.201	-200.000	-0.006	-0.085
-607.186	800.000	0.058	0.168
-606.171	-180.041	0.256	0.006
-605.157	7.707	0.030	-0.023
-604.142	-91.040	-0.154	0.045
-603.128	72.083	0.049	-0.051
-602.113	-50.889	0.370	-0.176
-601.098	262.010	-0.049	-0.087
-600.084	202.593	0.141	0.221
-599.069	-39.184	0.168	-0.090
-598.055	-142.362	0.270	0.027
-597.040	-165.666	0.444	-0.020
-596.025	-81.612	-0.550	-0.183
-595.011	-107.191	-0.279	0.062
-593.996	123.808	-0.146	-0.185
-592.982	-1.125	0.189	-0.135
-591.967	-200.000	0.022	-0.144
-590.952	-65.334	0.108	-0.044
-589.938	22.619	-0.204	0.170
-588.923	-200.000	-0.063	-0.320
-587.909	-70.699	0.175	0.067
-586.894	71.122	-0.210	0.220
-585.879	-200.000	0.007	-0.249
-584.865	-200.000	-0.077	-0.423
-583.850	-100.799	0.360	-0.090
-582.836	-13.843	0.244	0.160
-581.821	-94.234	-0.200	-0.056
-580.806	282.472	0.164	0.298
-579.792	-35.241	0.176	-0.097
-578.777	800.000	0.074	0.274
-577.763	800.000	-0.099	-0.310
-576.748	98.164	0.032	0.038
-575.733	-24.177	0.066	0.040
-574.719	800.000	0.045	-0.128
-573.704	495.352	0.082	-0.190
-572.690	-92.552	0.116	-0.033
-571.675	64.881	0.043	-0.044
-570.661	-87.093	-0.120	-0.037
-569.646	15.565	-0.067	0.053
-568.631	83.956	0.076	0.084
-567.617	87.364	-0.150	-0.168
-566.602	298.991	-0.196	-0.366
-565.588	-135.150	0.207	0.025
-564.573	800.000	-0.028	0.093
-563.558	-117.690	-0.119	-0.022
-562.544	-45.380	0.197	0.099
-561.529	-180.388	0.198	0.004
-560.515	7.957	-0.153	0.116
-559.500	-153.072	0.288	0.020
-558.485	-36.648	0.227	-0.123
-557.471	95.015	-0.119	0.137
-556.456	422.245	-0.062	0.135
-555.442	59.308	0.261	0.261
-554.427	-200.000	0.067	0.502
-553.412	800.000	-0.041	0.137
-552.398	-75.695	0.158	-0.057
-551.383	12.404	0.079	-0.061
-550.369	-200.000	0.029	-0.344
-549.354	-185.142	-0.133	0.002
-548.339	725.144	-0.026	0.071
-547.325	800.000	0.036	-0.123
-546.310	800.000	-0.071	0.246
-545.296	-43.055	0.272	0.140
-544.281	-47.810	0.385	0.189
-543.266	-200.000	0.024	0.194
-542.252	140.798	0.201	0.269
-541.237	-200.000	0.020	-0.123
-540.223	-200.000	-0.032	-0.163
-539.208	445.306	-0.067	-0.148
-538.193	4.347	0.098	0.073
-537.179	641.252	0.030	0.077
-536.164	633.753	-0.015	-0.040
-535.150	20.349	-0.083	-0.068
-534.135	651.322	0.097	0.250
-533.121	-200.000	-0.006	-0.116
-532.106	159.829	-0.155	-0.218
-531.091	197.015	0.078	-0.120
-530.077	74.244	-0.172	-0.183
-529.062	-96.086	0.290	0.078
-528.048	208.442	-0.133	0.210
-527.033	273.267	-0.093	-0.167
-526.018	-200.000	-0.000	-0.353
-525.004	-200.000	-0.020	-0.396
-523.989	34.537	-0.212	-0.187
-522.975	498.775	-0.183	0.425
-521.960	207.422	-0.047	-0.074
-520.945	-12.881	-0.017	-0.011
-519.931	418.814	0.062	-0.134
-518.916	-46.089	0.087	0.044
-517.902	-8.997	0.265	-0.180
-516.887	-125.858	-0.069	-0.011
-515.872	87.929	-0.041	-0.046
-514.858	50.930	-0.156	-0.150
-513.843	-111.729	0.433	-0.089
-512.829	45.707	0.018	0.017
-511.814	-200.000	0.040	-0.195
-510.799	-86.171	0.472	-0.147
-509.785	-200.000	-0.029	-0.343
-508.770	-84.181	-0.199	-0.064
-507.756	454.933	0.071	-0.159
-506.741	29.709	0.221	-0.190
-505.726	13.844	-0.294	0.231
-504.712	-56.819	0.270	-0.121
-503.697	171.717	0.188	0.273
-502.683	94.064	0.072	0.082
-501.668	-160.942	0.155	-0.008
-500.653	-73.705	-0.085	0.031
-499.639	-200.000	0.009	-0.075
-498.624	141.221	-0.029	0.039
-497.610	-135.643	-0.251	-0.030
-496.595	310.856	-0.097	-0.183
-495.581	320.350	-0.105	0.202
-494.566	311.033	0.065	0.122
-493.551	732.912	-0.107	-0.289
-492.537	-52.651	0.160	-0.075
-491.522	-164.534	-0.141	-0.006
-490.508	103.105	0.109	0.129
-489.493	800.000	-0.056	0.193
-488.478	561.815	-0.051	-0.125
-487.464	-56.302	-0.267	-0.120
-486.449	800.000	-0.064	-0.182
-485.435	-12.001	0.243	-0.161
-484.420	441.041	-0.135	-0.298
-483.405	332.793	-0.306	0.597
-482.391	-200.000	-0.022	-0.367
-481.376	675.191	0.019	-0.050
-480.362	258.067	-0.063	0.109
-479.347	-200.000	0.005	-0.517
-478.332	-59.187	-0.120	0.052
-477.318	-91.864	-0.361	-0.104
-476.303	34.117	0.167	0.147
-475.289	-200.000	0.007	-0.203
-474.274	-200.000	-0.046	0.307
-473.259	-104.372	-0.177	0.041
-472.245	196.608	-0.141	-0.216
-471.230	-127.152	-0.241	-0.036
-470.216	120.806	0.096	-0.120
-469.201	-38.904	-0.273	0.145
-468.186	115.757	0.182	0.225
-467.172	-33.374	0.121	-0.067
-466.157	-200.000	-0.022	-0.355
-465.143	133.943	0.283	0.369
-464.128	130.571	-0.062	-0.080
-463.113	231.760	0.063	-0.104
-462.099	156.644	0.163	-0.227
-461.084	667.288	-0.096	0.252
-460.070	-156.987	0.127	-0.008
-459.055	61.796	0.014	-0.014
-458.040	24.299	-0.106	0.088
-457.026	420.395	0.094	0.203
-456.011	-166.215	0.302	-0.013
-454.997	39.136	0.159	-0.143
-453.982	426.488	-0.145	-0.314
-452.968	-82.688	-0.326	0.106
-451.953	677.282	0.035	0.092
-450.938	-95.806	0.263	0.071
-449.924	-83.195	-0.055	-0.018
-448.909	800.000	0.027	0.093
-447.895	800.000	-0.042	-0.143
-446.880	-156.489	0.060	-0.004
-445.865	515.796	0.018	-0.042
-444.851	-200.000	-0.002	-0.226
-443.836	107.645	0.066	0.079
-442.822	8.633	-0.256	0.194
-441.807	144.988	-0.072	0.097
-440.792	-200.000	-0.020	0.165
-439.778	-200.000	-0.075	-0.521
-438.763	-192.620	-0.310	0.003
-437.749	-5.064	-0.318	-0.220
-436.734	38.744	0.093	-0.084
-435.719	-200.000	-0.025	-0.223
-434.705	-43.713	0.279	-0.142
-433.690	113.335	0.166	-0.203
-432.676	411.166	-0.050	-0.107
-431.661	51.946	0.422	0.405
-430.646	211.455	-0.047	0.075
-429.632	-200.000	-0.012	0.097
-428.617	-8.333	-0.128	0.087
-427.603	-80.182	-0.035	-0.012
-426.588	426.851	-0.121	-0.262
-425.573	-114.789	-0.312	-0.060
-424.559	8.896	0.323	0.246
-423.544	800.000	-0.043	0.173
-422.530	89.364	0.119	-0.133
-421.515	-197.260	0.253	-0.002
-420.500	573.831	-0.079	-0.194
-419.486	-200.000	0.015	0.109
-418.471	-200.000	-0.044	-0.260
-417.457	-28.147	-0.377	0.219
-416.442	173.752	-0.197	0.287
-415.428	-108.124	-0.102	0.022
-414.413	-38.800	0.110	-0.058
-413.398	800.000	-0.021	0.063
-412.384	-162.724	-0.083	0.004
-411.369	-35.150	0.024	-0.013
-410.355	67.591	0.100	0.103
-409.340	-200.000	0.037	0.361
-408.325	800.000	0.026	-0.079
-407.311	-122.307	-0.102	0.017
-406.296	-44.088	-0.266	-0.135
-405.282	-75.647	0.306	-0.109
-404.267	800.000	-0.022	-0.093
-403.252	302.621	0.132	-0.246
-402.238	-200.000	0.050	0.305
-401.223	800.000	-0.062	-0.183
-400.209	-128.878	0.017	-0.002
-399.194	-200.000	0.004	0.254
-398.179	-1.622	-0.374	0.265
-397.165	33.077	0.084	-0.073
-396.150	13.257	-0.170	-0.132
-395.136	1.736	-0.229	-0.166
-394.121	-65.889	-0.308	-0.124
-393.106	-200.000	-0.003	-0.137
-392.092	51.320	0.112	-0.107
-391.077	800.000	-0.069	0.203
-390.063	-68.445	-0.144	-0.056
-389.048	40.540	0.194	0.176
-388.033	800.000	-0.073	0.228
-387.019	-33.062	-0.181	0.101
-386.004	-127.226	0.408	-0.060
-384.990	-132.227	0.320	-0.042
-383.975	800.000	0.062	-0.239
-382.960	279.874	-0.108	-0.194
-381.946	800.000	-0.043	0.169
-380.931	-75.992	0.136	-0.048
-379.917	49.381	-0.228	-0.215
-378.902	22.692	-0.034	-0.028
-377.888	43.346	-0.096	0.088
-376.873	55.837	-0.112	0.109
-375.858	-40.082	-0.487	0.256
-374.844	-155.048	-0.320	0.021
-373.829	95.380	-0.035	0.040
-372.815	-200.000	-0.073	0.357
-371.800	30.777	0.156	0.134
-370.785	-200.000	-0.081	0.434
-369.771	-96.065	0.202	0.054
-368.756	-85.038	0.049	0.015
-367.742	328.987	-0.115	0.222
-366.727	115.635	-0.234	-0.288
-365.712	-8.214	-0.084	0.057
-364.698	-64.491	0.242	0.099
-363.683	800.000	0.108	-0.333
-362.669	754.621	0.163	-0.443
-361.654	391.480	-0.049	0.101
-360.639	359.891	0.205	-0.411
-359.625	157.654	-0.153	-0.213
-358.610	-200.000	0.046	0.285
-357.596	716.186	0.088	0.234
-356.581	800.000	0.087	0.336
-355.566	-200.000	-0.091	0.414
-354.552	-200.000	-0.030	0.282
-353.537	-78.198	0.038	0.013
-352.523	-152.287	-0.399	0.029
-351.508	800.000	0.013	-0.043
-350.493	-200.000	0.032	0.263
-349.479	89.022	0.183	0.205
-348.464	379.372	-0.042	-0.086
-347.450	-200.000	-0.007	-0.218
-346.435	-90.353	0.210	-0.061
-345.420	800.000	0.069	0.198
-344.406	100.997	0.123	0.144
-343.391	-10.400	-0.131	-0.087
-342.377	143.954	0.175	0.234
-341.362	256.404	-0.211	0.364
-340.348	-98.994	-0.210	-0.053
-339.333	-200.000	0.031	-0.174
-338.318	-10.310	0.120	0.080
-337.304	64.807	-0.083	0.084
-336.289	-200.000	-0.000	0.160
-335.275	86.278	-0.143	-0.159
-334.260	165.951	-0.060	0.086
-333.245	-30.262	-0.132	0.075
-332.231	-13.499	-0.331	0.215
-331.216	-64.430	-0.483	0.197
-330.202	-166.257	-0.042	-0.002
-329.187	42.239	-0.122	-0.111
-328.172	-96.494	0.269	-0.071
-327.158	31.631	0.052	-0.045
-326.143	-129.564	-0.228	-0.032
-325.129	-31.814	0.157	-0.089
-324.114	-200.000	-0.022	-0.232
-323.099	800.000	-0.087	0.345
-322.085	800.000	-0.114	0.422
-321.070	800.000	0.039	-0.140
-320.056	53.225	0.223	0.215
-319.041	226.301	-0.058	0.094
-318.026	24.583	-0.179	-0.148
-317.012	-200.000	-0.008	-0.080
-315.997	26.583	0.175	-0.147
-314.983	-200.000	-0.006	-0.029
-313.968	-200.000	0.036	0.160
-312.953	325.026	-0.170	0.327
-311.939	702.439	-0.122	-0.323
-310.924	800.000	0.024	-0.102
-309.910	800.000	0.032	-0.111
-308.895	-6.028	0.150	0.103
-307.880	-40.183	-0.160	-0.083
-306.866	684.201	0.068	0.178
-305.851	614.534	0.061	-0.154
-304.837	-42.454	0.122	0.062
-303.822	-113.455	-0.199	-0.039
-302.807	-200.000	-0.013	-0.151
-301.793	-200.000	0.035	-0.207
-300.778	-196.711	-0.165	0.001
-299.764	-174.333	0.129	0.004
-298.749	-12.658	0.213	0.140
-297.735	234.793	0.346	-0.573
-296.720	-15.257	0.338	-0.217
-295.705	-107.413	0.048	-0.011
-294.691	796.481	0.064	0.178
-293.676	-200.000	-0.008	0.396
-292.662	218.985	0.116	0.186
-291.647	-33.594	0.241	0.134
-290.632	102.125	0.048	0.056
-289.618	-52.984	-0.219	0.101
-288.603	-57.801	0.263	-0.115
-287.589	81.102	0.182	0.197
-286.574	800.000	-0.032	-0.101
-285.559	171.807	-0.161	0.232
-284.545	800.000	0.048	-0.192
-283.530	-200.000	-0.020	-0.293
-282.516	-200.000	0.028	0.483
-281.501	-46.921	0.046	-0.023
-280.486	104.288	-0.026	-0.031
-279.472	-152.955	-0.107	-0.008
-278.457	-120.029	0.275	-0.047
-277.443	-34.331	-0.120	0.066
-276.428	222.688	0.046	0.074
-275.413	-43.852	-0.320	-0.161
-274.399	-93.125	-0.175	0.049
-273.384	-95.833	0.159	0.042
-272.370	-26.768	-0.118	0.069
-271.355	422.776	-0.085	-0.182
-270.340	-84.368	-0.083	0.026
-269.326	800.000	-0.058	-0.216
-268.311	-82.586	0.290	0.094
-267.297	-200.000	0.011	0.057
-266.282	-142.957	0.170	0.017
-265.267	730.213	0.053	-0.141
-264.253	-15.029	0.131	0.084
-263.238	722.819	0.175	0.466
-262.224	-128.621	-0.393	-0.056
-261.209	-134.552	-0.255	-0.031
-260.195	257.798	0.082	-0.141
-259.180	281.604	0.116	0.208
-258.165	111.017	0.098	-0.118
-257.151	413.283	0.185	0.394
-256.136	-67.365	0.172	0.068
-255.122	247.940	0.110	-0.187
-254.107	-200.000	-0.032	0.358
-253.092	90.351	0.205	-0.230
-252.078	-200.000	0.024	-0.272
-251.063	259.798	0.031	0.054
-250.049	2.718	-0.141	0.102
-249.034	378.261	-0.055	-0.112
-248.019	143.218	0.197	-0.262
-247.005	-92.996	-0.218	-0.061
-245.990	655.125	0.018	-0.046
-244.976	458.770	-0.045	-0.100
-243.961	-200.000	0.030	-0.392
-242.946	-34.183	-0.387	0.212
-241.932	524.809	0.055	-0.130
-240.917	62.575	0.139	0.139
-239.903	-149.553	-0.207	0.016
-238.888	-200.000	0.030	-0.223
-237.873	-108.490	-0.237	0.051
-236.859	24.941	0.173	0.143
-235.844	-50.671	0.067	-0.031
-234.830	-130.339	0.074	-0.010
-233.815	45.068	-0.177	0.163
-232.800	-35.374	-0.308	0.167
-231.786	-200.000	0.270	0.000
-230.771	-114.173	0.100	-0.019
-229.757	-200.000	0.049	0.261
-228.742	-9.166	-0.168	-0.112
-227.727	557.375	-0.114	-0.275
-226.713	251.160	-0.081	0.138
-225.698	50.188	-0.020	0.019
-224.684	97.547	-0.164	0.188
-223.669	80.845	0.209	-0.226
-222.655	-121.610	0.151	0.025
-221.640	-52.430	-0.184	-0.085
-220.625	375.529	-0.025	0.052
-219.611	-137.201	0.270	0.031
-218.596	-120.021	0.338	-0.058
-217.582	-29.407	0.213	0.122
-216.567	-24.626	-0.055	-0.033
-215.552	-100.116	0.125	-0.031
-214.538	800.000	0.078	0.337
-213.523	-15.804	0.123	-0.078
-212.509	-18.972	0.166	0.103
-211.494	-200.000	0.018	0.270
-210.479	95.591	0.129	-0.147
-209.465	58.614	-0.027	0.027
-208.450	324.840	0.114	0.217
-207.436	10.170	0.130	-0.099
-206.421	-200.000	0.057	0.391
-205.406	485.047	-0.047	0.106
-204.392	-143.295	-0.358	0.034
-203.377	-200.000	0.006	-0.131
-202.363	-38.184	0.177	0.094
-201.348	-42.863	0.398	0.202
-200.333	-200.000	-0.049	0.373
-199.319	-200.000	0.003	0.322
-198.304	109.260	-0.189	-0.226
-197.290	-200.000	-0.008	0.345
-196.275	-200.000	-0.015	-0.096
-195.260	-200.000	0.054	-0.312
-194.246	-200.000	-0.000	-0.011
-193.231	800.000	-0.035	-0.132
-192.217	261.348	-0.169	0.292
-191.202	-200.000	0.020	-0.185
-190.187	646.682	-0.163	-0.416
-189.173	-200.000	-0.036	0.175
-188.158	38.696	0.172	-0.153
-187.144	21.178	0.134	-0.109
-186.129	-111.267	-0.079	-0.016
-185.114	-63.638	0.251	-0.103
-184.100	-63.765	0.209	0.086
-183.085	-24.809	0.009	0.006
-182.071	295.994	-0.078	0.144
-181.056	144.516	0.229	0.306
-180.042	-122.790	-0.451	-0.073
-179.027	33.896	0.253	-0.220
-178.012	-200.000	0.034	0.289
-176.998	800.000	0.064	0.257
-175.983	500.157	-0.151	0.347
-174.969	-129.672	0.065	-0.009
-173.954	-102.578	0.139	-0.033
-172.939	-167.382	0.150	0.006
-171.925	70.021	0.179	0.185
-170.910	-124.141	-0.287	-0.045
-169.896	11.890	-0.143	0.110
-168.881	-200.000	0.078	-0.364
-167.866	-43.114	0.200	0.101
-166.852	325.101	-0.053	0.102
-165.837	800.000	0.009	0.029
-164.823	326.893	0.095	-0.182
-163.808	44.876	-0.309	0.284
-162.793	-200.000	0.054	-0.337
-161.779	116.606	-0.104	-0.127
-160.764	424.987	0.198	-0.426
-159.750	101.701	-0.133	-0.155
-158.735	677.161	-0.014	-0.037
-157.720	-27.828	0.086	0.049
-156.706	-65.546	-0.330	-0.132
-155.691	77.423	-0.254	0.270
-154.677	-200.000	-0.017	-0.194
-153.662	-200.000	-0.002	0.077
-152.647	130.116	-0.068	-0.086
-151.633	-155.073	0.147	-0.010
-150.618	800.000	0.038	0.153
-149.604	-39.272	0.063	0.033
-148.589	471.762	-0.117	-0.263
-147.574	211.472	-0.075	-0.118
-146.560	181.297	0.196	0.287
-145.545	-200.000	0.059	-0.308
-144.531	-111.058	0.363	0.074
-143.516	206.109	0.093	0.144
-142.502	800.000	0.026	-0.095
-141.487	-18.285	-0.152	0.094
-140.472	-145.067	0.052	-0.005
-139.458	-200.000	-0.031	0.228
-138.443	111.805	0.147	-0.177
-137.429	-17.957	-0.319	-0.199
-136.414	800.000	0.039	-0.129
-135.399	-18.433	-0.117	0.073
-134.385	-35.788	0.301	-0.163
-133.370	254.262	0.012	0.021
-132.356	120.184	0.351	0.434
-131.341	295.831	0.178	-0.326
-130.326	683.614	0.031	-0.081
-129.312	30.327	0.221	-0.188
-128.297	-117.962	-0.219	-0.039
-127.283	571.921	-0.131	0.318
-126.268	143.874	0.234	0.310
-125.253	-30.423	0.114	-0.064
-124.239	609.537	0.037	-0.093
-123.224	800.000	-0.080	-0.309
-122.210	-47.781	0.249	0.120
-121.195	800.000	-0.064	-0.275
-120.180	-56.012	0.116	0.051
-119.166	-200.000	0.013	0.189
-118.151	419.332	0.132	-0.281
-117.137	-200.000	0.035	-0.156
-116.122	800.000	0.013	-0.044
-115.107	68.091	0.038	0.039
-114.093	-53.155	-0.057	0.026
-113.078	-2.232	0.163	0.114
-112.064	792.379	-0.116	0.318
-111.049	-200.000	0.010	-0.248
-110.034	731.825	-0.060	0.160
-109.020	428.875	-0.029	0.063
-108.005	-200.000	-0.029	0.337
-106.991	52.050	-0.096	0.091
-105.976	800.000	-0.080	-0.260
-104.962	800.000	-0.034	-0.142
-103.947	-31.870	0.156	-0.087
-102.932	51.775	-0.111	0.105
-101.918	-139.479	0.203	-0.022
-100.903	470.822	0.047	0.106
-99.889	-133.804	-0.506	-0.063
-98.874	-200.000	0.013	0.316
-97.859	-200.000	-0.060	0.558
-96.845	-16.352	-0.167	-0.106
-95.830	800.000	-0.083	-0.291
-94.816	-55.536	-0.140	0.063
-93.801	-60.330	0.353	0.149
-92.786	188.150	-0.078	0.115
-91.772	63.617	0.072	0.072
-90.757	-36.256	0.276	-0.148
-89.743	78.512	0.114	0.121
-88.728	-200.000	0.002	-0.109
-87.713	293.727	0.116	-0.210
-86.699	-77.665	0.160	0.055
-85.684	239.305	0.150	-0.249
-84.670	-43.325	0.329	0.166
-83.655	800.000	-0.034	-0.134
-82.640	-61.044	0.234	0.098
-81.626	-139.058	0.124	-0.013
-80.611	-200.000	0.032	-0.212
-79.597	52.735	-0.242	-0.230
-78.582	800.000	-0.043	-0.176
-77.567	98.670	0.120	0.137
-76.553	-89.721	-0.237	0.069
-75.538	-200.000	0.006	0.241
-74.524	28.110	-0.350	0.293
-73.509	-200.000	0.032	-0.416
-72.494	-200.000	-0.009	0.139
-71.480	800.000	0.078	0.303
-70.465	-143.553	0.075	0.007
-69.451	-200.000	-0.078	0.375
-68.436	800.000	0.052	0.198
-67.422	-200.000	-0.003	0.228
-66.407	754.407	-0.077	-0.206
-65.392	-200.000	-0.029	-0.245
-64.378	-200.000	-0.025	0.175
-63.363	77.962	0.246	-0.261
-62.349	-200.000	-0.043	-0.388
-61.334	35.511	-0.740	-0.646
-60.319	53.897	0.645	0.616
-59.305	800.000	-0.237	-0.725
-58.290	800.000	0.283	1.000
-57.276	482.557	0.607	1.370
-56.261	-200.000	89.777	511.282
-55.246	438.775	1426.856	3092.903
-54.232	142.918	2633.232	3477.029
-53.217	109.308	2235.823	2658.412
-52.203	46.868	1672.594	1543.893
-51.188	39.339	1401.895	1246.521
-50.173	36.165	1358.305	1188.191
-49.159	55.578	1403.534	1349.709
-48.144	59.442	1422.168	1391.770
-47.130	40.009	1378.816	1229.973
-46.115	36.192	1361.450	1190.923
-45.100	36.020	1356.378	1185.377
-44.086	36.016	1353.916	1183.157
-43.071	35.965	1351.523	1180.704
-42.057	35.890	1349.313	1178.266
-41.042	36.005	1347.052	1176.953
-40.027	36.056	1345.632	1175.975
-39.013	35.953	1344.015	1173.885
-37.998	36.089	1341.757	1172.697
-36.984	36.169	1339.866	1171.481
-35.969	36.016	1338.309	1169.146
-34.954	36.224	1336.399	1168.690
-33.940	36.160	1334.892	1166.938
-32.925	36.119	1333.622	1165.536
-31.911	36.321	1331.871	1165.178
-30.896	36.294	1330.233	1163.538
-29.881	36.181	1329.296	1161.989
-28.867	36.283	1327.972	1161.399
-27.852	36.228	1325.752	1159.082
-26.838	36.322	1324.309	1158.338
-25.823	36.270	1323.130	1156.951
-24.809	36.279	1321.444	1155.483
-23.794	36.200	1320.192	1153.873
-22.779	36.154	1319.175	1152.661
-21.765	36.211	1317.744	1151.703
-20.750	36.210	1315.992	1150.125
-19.736	35.973	1314.896	1147.706
-18.721	36.109	1313.756	1147.474
-17.706	36.122	1312.098	1146.057
-16.692	36.100	1310.739	1144.694
-15.677	36.079	1310.218	1144.070
-14.663	36.066	1308.752	1142.671
-13.648	36.039	1307.572	1141.431
-12.633	36.042	1307.055	1140.955
-11.619	35.986	1306.205	1139.833
-10.604	36.060	1304.680	1138.897
-9.590	35.967	1304.180	1137.868
-8.575	36.103	1302.811	1137.429
-7.560	36.067	1302.036	1136.494
-6.546	36.059	1301.340	1135.795
-5.531	36.044	1300.227	1134.690
-4.517	36.067	1299.080	1133.778
-3.502	36.013	1298.523	1132.928
-2.487	36.005	1297.629	1132.059
-1.473	36.166	1293.342	1129.217
-0.458	35.138	1278.890	1110.598
0.556	30.228	1260.964	1071.732
1.571	26.090	1265.951	1051.813
2.586	24.206	1280.536	1052.717
3.600	22.941	1268.009	1034.920
4.615	16.680	1190.984	937.414
5.629	6.107	1108.571	817.708
6.644	0.885	1085.346	773.850
7.659	0.346	1082.999	769.359
8.673	0.184	1082.103	767.827
9.688	0.199	1080.246	766.518
10.702	0.433	1078.645	766.504
11.717	6.244	1086.770	801.900
12.731	15.188	1098.869	856.671
13.746	18.148	1101.318	873.651
14.761	17.168	1099.956	867.489
15.775	16.189	1098.272	861.091
16.790	15.139	1095.801	853.729
17.804	14.501	1093.938	848.953
18.819	14.157	1092.980	846.388
19.834	13.816	1092.153	843.939
20.848	13.595	1090.771	841.674
21.863	13.406	1090.008	840.050
22.877	13.161	1089.372	838.242
23.892	13.171	1088.368	837.446
24.907	13.209	1088.256	837.479
25.921	13.232	1086.801	836.400
26.936	13.231	1086.112	835.794
27.950	13.476	1084.609	835.798
28.965	13.320	1084.178	834.608
29.980	13.310	1082.785	833.408
30.994	13.434	1081.653	833.088
32.009	13.429	1080.560	832.145
33.023	13.446	1079.386	831.256
34.038	13.451	1078.606	830.605
35.053	13.291	1077.727	829.052
36.067	13.292	1076.713	828.204
37.082	13.325	1075.934	827.696
38.096	13.333	1075.145	827.059
39.111	13.396	1074.243	826.604
40.126	13.349	1073.281	825.556
41.140	13.303	1071.815	824.128
42.155	13.155	1070.720	822.477
43.169	13.241	1069.648	822.009
44.184	13.211	1068.896	821.209
45.199	13.100	1068.057	819.942
46.213	13.252	1066.839	819.684
47.228	13.253	1066.045	819.006
48.242	13.391	1064.584	818.493
49.257	13.220	1063.831	817.000
50.271	13.344	1063.341	817.164
51.286	13.325	1062.112	816.052
52.301	13.285	1061.224	815.102
53.315	13.263	1059.964	813.953
54.330	13.218	1058.894	812.837
55.344	13.349	1057.505	812.341
56.359	13.225	1057.489	811.649
57.374	13.197	1056.319	810.540
58.388	13.146	1055.547	809.626
59.403	13.151	1054.849	809.045
60.417	13.156	1053.832	808.219
61.432	13.132	1052.844	807.270
62.447	13.163	1052.057	806.748
63.461	13.126	1051.548	806.105
64.476	13.005	1050.884	804.934
65.490	13.175	1049.357	804.524
66.505	13.111	1049.166	803.992
67.520	13.065	1048.429	803.134
68.534	13.223	1047.436	803.070
69.549	13.199	1046.816	802.409
70.563	13.110	1045.927	801.221
71.578	13.108	1045.263	800.636
72.593	13.147	1044.482	800.155
73.607	13.120	1044.036	799.608
74.622	13.135	1043.189	798.964
75.636	13.025	1042.691	797.980
76.651	13.116	1041.696	797.587
77.666	13.075	1041.383	797.080
78.680	13.071	1040.951	796.656
79.695	12.994	1040.272	795.696
80.709	13.195	1039.019	795.635
81.724	13.167	1038.542	795.066
82.739	13.294	1037.585	794.871
83.753	13.302	1036.933	794.341
84.768	13.310	1036.149	793.711
85.782	13.463	1034.683	793.248
86.797	13.338	1034.210	792.218
87.812	13.356	1033.154	791.427
88.826	13.333	1032.078	790.420
89.841	13.292	1031.373	789.614
90.855	13.306	1030.786	789.164
91.870	13.279	1029.822	788.226
92.884	13.406	1028.756	787.945
93.899	13.295	1028.128	786.866
94.914	13.473	1027.314	787.018
95.928	13.439	1026.753	786.359
96.943	13.485	1025.585	785.614
97.957	13.405	1024.482	784.319
98.972	13.429	1023.723	783.785
99.987	13.489	1022.780	783.274
101.001	13.367	1021.808	781.886
102.016	13.400	1020.653	781.088
103.030	13.459	1019.852	780.685
104.045	13.333	1019.452	779.716
105.060	13.488	1018.004	779.267
106.074	13.390	1017.435	778.304
107.089	13.250	1016.136	776.583
108.103	13.316	1015.156	776.072
109.118	13.247	1014.614	775.270
110.133	13.195	1013.659	774.226
111.147	13.257	1013.000	773.943
112.162	13.347	1011.929	773.481
113.176	13.336	1011.043	772.683
114.191	13.309	1010.441	772.027
115.206	13.406	1009.668	771.823
116.220	13.280	1009.013	770.666
117.235	13.335	1007.862	769.972
118.249	13.365	1007.068	769.439
119.264	13.317	1006.162	768.457
120.279	13.257	1005.445	767.559
121.293	13.271	1004.825	767.086
122.308	13.148	1004.232	765.991
123.322	13.198	1002.756	765.033
124.337	13.315	1001.412	764.479
125.352	13.277	1000.517	763.551
126.366	13.372	999.318	763.007
127.381	13.258	998.464	761.763
128.395	13.241	997.682	761.020
129.410	13.347	996.929	760.867
130.424	13.207	995.610	759.148
131.439	13.450	994.806	759.584
132.454	13.469	993.742	758.794
133.468	13.538	993.001	758.477
134.483	13.539	992.150	757.764
135.497	13.430	991.994	757.077
136.512	13.412	990.885	756.081
137.527	13.447	989.894	755.418
138.541	13.408	989.157	754.614
139.556	13.447	988.848	754.486
140.570	13.544	987.879	754.121
141.585	13.596	987.202	753.774
142.600	13.587	985.977	752.732
143.614	13.547	985.146	751.849
144.629	13.521	984.662	751.297
145.643	13.676	983.163	750.790
146.658	13.490	982.486	749.363
147.673	13.513	981.232	748.445
148.687	13.523	980.116	747.574
149.702	13.410	979.939	746.861
150.716	13.448	978.838	746.127
151.731	13.523	978.003	745.761
152.746	13.515	977.462	745.250
153.760	13.516	976.703	744.608
154.775	13.579	976.258	744.486
155.789	13.654	975.774	744.386
156.804	13.635	974.837	743.522
157.819	13.600	974.121	742.752
158.833	13.592	973.797	742.405
159.848	13.804	972.467	742.271
160.862	13.639	971.215	740.517
161.877	13.618	970.519	739.824
162.892	13.506	969.987	738.854
163.906	13.554	969.118	738.341
164.921	13.490	968.386	737.431
165.935	13.683	967.107	737.251
166.950	13.627	966.568	736.526
167.964	13.633	965.559	735.719
168.979	13.660	964.614	735.056
169.994	13.631	963.731	734.187
171.008	13.622	963.229	733.700
172.023	13.632	962.588	733.190
173.037	13.754	961.622	732.929
174.052	13.704	960.820	732.031
175.067	13.682	960.179	731.381
176.081	13.644	959.644	730.741
177.096	13.622	959.035	730.119
178.110	13.634	958.275	729.527
179.125	13.608	957.984	729.127
180.140	13.721	957.053	728.851
181.154	13.767	956.582	728.628
182.169	13.702	956.532	728.241
183.183	13.873	955.661	728.264
184.198	13.858	954.793	727.472
185.213	13.882	953.794	726.752
186.227	13.837	953.582	726.329
187.242	13.910	953.202	726.297
188.256	13.957	951.929	725.466
189.271	13.956	951.001	724.690
190.286	13.807	950.444	723.550
191.300	13.772	949.563	722.665
192.315	13.732	948.880	721.905
193.329	13.602	948.556	721.033
194.344	13.824	947.919	721.449
195.359	13.961	946.985	721.268
196.373	14.002	946.399	720.934
197.388	13.992	946.257	720.721
198.402	14.090	945.552	720.545
199.417	14.090	944.845	719.941
200.432	14.279	944.240	720.235
201.446	14.278	943.491	719.597
202.461	14.054	943.487	718.559
203.475	14.155	943.018	718.575
204.490	14.129	941.680	717.379
205.504	14.039	941.172	716.544
206.519	14.171	940.298	716.383
207.534	14.222	939.505	715.935
208.548	14.090	939.139	715.026
209.563	14.159	938.314	714.629
210.577	14.297	937.393	714.458
211.592	14.298	936.627	713.812
212.607	14.218	936.151	713.047
213.621	14.189	935.477	712.344
214.636	14.241	934.552	711.802
215.650	14.364	933.845	711.726
216.665	14.405	932.890	711.110
217.680	14.352	932.376	710.428
218.694	14.272	931.763	709.557
219.709	14.361	931.086	709.359
220.723	14.256	930.797	708.625
221.738	14.360	929.635	708.122
222.753	14.443	928.640	707.652
223.767	14.448	928.454	707.473
224.782	14.478	927.980	707.174
225.796	14.564	927.047	706.764
226.811	14.555	926.772	706.454
227.826	14.514	925.801	705.480
228.840	14.482	925.068	704.724
229.855	14.481	924.510	704.231
230.869	14.461	923.547	703.351
231.884	14.492	922.428	702.565
232.899	14.389	922.304	701.976
233.913	14.450	921.283	701.394
234.928	14.406	920.724	700.720
235.942	14.430	920.173	700.343
236.957	14.631	919.171	700.361
237.972	14.499	918.860	699.507
238.986	14.353	918.601	698.633
240.001	14.520	917.429	698.381
241.015	14.616	916.830	698.265
242.030	14.638	916.272	697.871
243.045	14.508	915.967	697.032
244.059	14.595	914.963	696.571
245.074	14.710	914.329	696.505
246.088	14.789	913.772	696.351
247.103	14.685	913.519	695.662
248.117	14.738	912.884	695.337
249.132	14.813	912.091	694.982
250.147	14.754	911.602	694.306
251.161	14.864	910.824	694.108
252.176	14.837	910.297	693.532
253.190	14.995	909.259	693.333
254.205	14.997	908.429	692.648
255.220	15.026	907.995	692.378
256.234	14.930	907.605	691.621
257.249	15.043	906.764	691.387
258.263	15.001	906.208	690.727
259.278	14.883	905.457	689.607
260.293	15.035	904.651	689.557
261.307	15.070	904.330	689.396
262.322	15.112	903.897	689.180
263.336	15.071	903.182	688.403
264.351	15.116	902.101	687.703
265.366	15.079	901.768	687.239
266.380	15.141	901.164	686.972
267.395	15.227	900.031	686.399
268.409	15.106	899.667	685.564
269.424	15.041	898.938	684.682
270.439	15.218	897.855	684.520
271.453	15.136	897.249	683.662
272.468	15.197	896.856	683.554
273.482	15.110	896.493	682.862
274.497	15.212	895.576	682.515
275.512	15.209	895.222	682.175
276.526	15.220	894.669	681.737
277.541	15.325	893.829	681.464
278.555	15.375	893.116	681.063
279.570	15.427	892.437	680.694
280.585	15.368	891.729	679.857
281.599	15.300	891.515	679.357
282.614	15.393	890.599	678.974
283.628	15.515	889.710	678.731
284.643	15.403	889.139	677.784
285.657	15.375	888.697	677.272
286.672	15.447	887.943	676.927
287.687	15.360	887.011	675.808
288.701	15.536	886.882	676.360
289.716	15.497	886.064	675.518
290.730	15.549	885.427	675.181
291.745	15.563	885.142	674.963
292.760	15.599	884.276	674.386
293.774	15.494	883.788	673.530
294.789	15.550	883.085	673.160
295.803	15.531	882.413	672.513
296.818	15.699	881.381	672.338
297.833	15.570	880.699	671.243
298.847	15.581	880.524	671.097
299.862	15.562	880.246	670.749
300.876	15.616	879.116	670.043
301.891	15.578	878.965	669.718
302.906	15.778	877.831	669.588
303.920	15.786	877.415	669.244
304.935	15.797	876.625	668.629
305.949	15.880	875.902	668.347
306.964	15.763	875.319	667.378
307.979	15.706	875.098	666.924
308.993	15.814	874.710	666.997
310.008	15.821	873.922	666.365
311.022	15.878	873.030	665.852
312.037	15.838	872.895	665.531
313.052	15.844	871.986	664.804
314.066	15.773	871.533	664.118
315.081	15.799	871.003	663.759
316.095	15.806	870.388	663.261
317.110	15.849	869.998	663.071
318.125	15.813	869.426	662.438
319.139	15.750	869.117	661.892
320.154	15.853	868.308	661.623
321.168	15.823	867.696	660.983
322.183	15.901	866.807	660.551
323.197	15.991	866.299	660.460
324.212	15.998	865.961	660.172
325.227	15.907	865.195	659.172
326.241	16.071	864.613	659.314
327.256	16.014	863.898	658.485
328.270	15.984	863.625	658.103
329.285	15.937	862.801	657.232
330.300	15.914	862.393	656.773
331.314	15.923	861.740	656.253
332.329	15.924	861.787	656.236
333.343	16.033	860.893	655.922
334.358	16.074	860.488	655.714
335.373	16.084	860.132	655.422
336.387	15.975	860.005	654.843
337.402	16.053	859.994	655.079
338.416	16.188	859.022	654.807
339.431	16.187	859.154	654.847
340.446	16.204	858.420	654.293
341.460	16.143	858.045	653.714
342.475	16.298	857.632	653.941
343.489	16.168	857.290	653.119
344.504	16.292	856.344	652.822
345.519	16.394	855.769	652.718
346.533	16.368	855.336	652.229
347.548	16.406	854.784	651.901
348.562	16.371	854.285	651.324
349.577	16.314	853.547	650.485
350.592	16.412	853.036	650.417
351.606	16.420	852.335	649.855
352.621	16.219	851.822	648.634
353.635	16.284	851.551	648.621
354.650	16.389	850.851	648.433
355.665	16.373	849.889	647.582
356.679	16.441	849.268	647.310
357.694	16.420	848.551	646.625
358.708	16.490	847.919	646.354
359.723	16.559	847.255	646.053
360.738	16.519	846.749	645.460
361.752	16.560	846.202	645.143
362.767	16.501	845.520	644.340
363.781	16.688	844.893	644.518
364.796	16.608	844.691	644.000
365.810	16.774	844.084	644.112
366.825	16.718	843.770	643.603
367.840	16.666	843.430	643.090
368.854	16.705	842.471	642.451
369.869	16.662	842.543	642.283
370.883	16.814	841.752	642.200
371.898	16.686	841.564	641.514
372.913	16.714	841.532	641.539
373.927	16.872	840.437	641.246
374.942	16.764	840.122	640.542
375.956	16.781	839.969	640.431
376.971	16.809	839.274	639.950
377.986	16.821	838.755	639.542
379.000	16.893	838.606	639.644
380.015	16.880	837.731	638.874
381.029	16.998	837.019	638.718
382.044	17.066	836.660	638.644
383.059	17.105	835.881	638.138
384.073	17.055	835.542	637.633
385.088	17.058	834.895	637.094
386.102	17.024	834.217	636.394
387.117	16.949	833.441	635.464
388.132	17.080	833.118	635.654
389.146	16.936	832.571	634.640
390.161	17.033	832.016	634.524
391.175	17.135	831.532	634.480
392.190	17.010	831.184	633.694
393.205	17.064	830.554	633.359
394.219	17.017	830.252	632.897
395.234	17.085	830.137	633.004
396.248	16.944	829.417	631.875
397.263	16.967	828.906	631.516
398.278	16.974	828.844	631.440
399.292	16.969	827.964	630.694
400.307	17.157	827.624	631.078
401.321	17.049	827.438	630.477
402.336	17.030	826.598	629.712
403.350	17.241	825.980	629.967
404.365	17.154	825.799	629.451
405.380	17.185	825.136	629.004
406.394	17.314	824.535	628.967
407.409	17.256	824.270	628.495
408.423	17.234	824.483	628.523
409.438	17.406	823.611	628.438
410.453	17.284	823.345	627.727
411.467	17.418	822.768	627.725
412.482	17.472	822.296	627.512
413.496	17.492	821.950	627.264
414.511	17.432	821.417	626.583
415.526	17.482	821.019	626.405
416.540	17.562	820.564	626.298
417.555	17.594	820.119	626.020
418.569	17.599	819.368	625.410
419.584	17.554	819.042	624.942
420.599	17.560	818.459	624.464
421.613	100.500	1282.394	1429.035
422.628	86.627	1349.979	1429.121
