DTS Sentinel unit serial number:	SN413079Multiplexer serial number:	ORYXHardware model number:	OX4-SRSoftware version number:	ORYX F/W v4.00 Oryx Data Collector v3.7.2.0data status	okinstallation	princeton_trtdifferential loss correction	single-endedforward channel	channel 1reverse channel	N/Adate	2019/09/12time	14:56:11forward acquisition time	60.00reverse acquisition time	0.00gamma	496.2192k internal	0.2292k external	0.2292temperature offset calibration	1.0053default loss term (dB/km)	0.3790temperature slope calibration	1.0000multiplexer offset coefficient	1.0000multiplexer slope coefficient	1.0000fibre end	0.00T internal ref (°C)	40.34T ext. ref 1 (°C)	2.32T ext. ref 2 (°C)	37.40length (m)	temperature (°C)	Stokes	anti-Stokes-747.200	-38.593	0.211	-0.114
-746.185	338.832	-0.113	0.226
-745.171	-72.854	-0.338	-0.127
-744.156	-200.000	-0.009	0.207
-743.142	-9.466	0.045	0.031
-742.127	-200.000	-0.000	0.012
-741.112	38.686	-0.100	0.091
-740.098	-57.377	-0.163	0.073
-739.083	800.000	-0.124	0.374
-738.069	5.108	0.033	-0.025
-737.054	165.802	-0.156	-0.226
-736.039	-66.904	-0.059	-0.024
-735.025	116.706	0.133	0.167
-734.010	47.630	-0.256	-0.244
-732.996	-131.866	-0.265	0.035
-731.981	-20.003	-0.325	-0.205
-730.966	295.634	-0.065	0.123
-729.952	225.153	-0.079	0.131
-728.937	-152.014	0.251	-0.019
-727.923	-178.756	-0.412	-0.010
-726.908	-200.000	0.044	0.241
-725.894	-140.082	-0.183	0.020
-724.879	148.974	-0.122	-0.168
-723.864	-165.922	-0.264	-0.012
-722.850	-128.092	-0.115	-0.017
-721.835	8.161	-0.009	-0.007
-720.821	-91.832	0.086	-0.025
-719.806	800.000	-0.091	-0.264
-718.791	484.331	-0.168	-0.390
-717.777	-50.463	-0.126	-0.061
-716.762	800.000	-0.030	0.090
-715.748	-133.429	-0.265	-0.034
-714.733	460.348	-0.041	-0.093
-713.718	-200.000	0.003	-0.256
-712.704	399.300	-0.071	0.153
-711.689	769.972	0.087	-0.241
-710.675	-44.415	0.291	0.149
-709.660	35.589	-0.108	0.097
-708.645	-172.904	0.275	0.009
-707.631	-200.000	-0.017	-0.225
-706.616	-31.081	-0.557	-0.321
-705.602	-129.282	0.148	-0.021
-704.587	-97.821	0.087	-0.023
-703.572	-78.820	0.144	0.050
-702.558	767.820	0.094	-0.262
-701.543	260.562	-0.088	-0.155
-700.529	-200.000	0.082	0.381
-699.514	-150.448	-0.501	0.039
-698.499	-200.000	0.023	0.111
-697.485	-200.000	-0.046	0.308
-696.470	-111.253	0.165	0.034
-695.456	13.874	-0.217	-0.172
-694.441	390.726	0.131	-0.278
-693.426	51.014	-0.233	-0.226
-692.412	-114.021	0.107	-0.021
-691.397	800.000	0.056	-0.237
-690.383	800.000	-0.045	0.198
-689.368	-167.691	-0.323	0.013
-688.354	-122.770	-0.356	-0.059
-687.339	65.409	0.162	-0.168
-686.324	800.000	-0.021	0.078
-685.310	45.487	-0.097	-0.092
-684.295	92.330	-0.096	0.110
-683.281	-133.530	0.224	0.029
-682.266	800.000	-0.103	-0.332
-681.251	-163.323	-0.347	0.017
-680.237	-142.660	-0.368	0.037
-679.222	201.405	-0.025	-0.039
-678.208	-86.608	-0.135	0.042
-677.193	-200.000	0.030	-0.179
-676.178	578.079	0.241	-0.601
-675.164	-68.805	-0.163	0.064
-674.149	174.603	0.217	-0.320
-673.135	210.213	-0.123	-0.197
-672.120	-89.974	0.121	-0.036
-671.105	-87.175	-0.040	-0.012
-670.091	79.818	-0.367	-0.402
-669.076	178.786	-0.090	0.134
-668.062	-129.132	-0.164	0.023
-667.047	130.437	-0.104	-0.136
-666.032	7.470	-0.107	-0.082
-665.018	52.453	0.128	-0.125
-664.003	20.398	-0.277	0.228
-662.989	361.691	-0.071	0.146
-661.974	307.239	-0.121	-0.229
-660.959	244.576	0.150	-0.257
-659.945	-88.427	-0.341	-0.104
-658.930	78.128	0.103	0.112
-657.916	541.733	-0.121	-0.293
-656.901	-200.000	-0.033	-0.161
-655.886	140.161	-0.173	0.233
-654.872	165.369	0.138	0.199
-653.857	-200.000	0.008	-0.102
-652.843	63.114	-0.319	0.326
-651.828	192.524	0.127	-0.195
-650.814	26.750	0.039	0.033
-649.799	280.849	0.145	-0.264
-648.784	131.812	0.138	-0.181
-647.770	478.098	0.079	0.183
-646.755	-200.000	-0.057	-0.492
-645.741	-76.811	0.025	-0.009
-644.726	-33.505	-0.101	-0.057
-643.711	65.178	-0.126	-0.130
-642.697	-8.955	-0.096	0.065
-641.682	-172.784	0.353	0.011
-640.668	10.817	0.054	0.042
-639.653	-167.073	0.290	-0.012
-638.638	152.061	-0.056	0.077
-637.624	800.000	-0.043	0.132
-636.609	339.037	-0.122	0.243
-635.595	-181.143	-0.327	0.007
-634.580	-68.121	0.230	-0.091
-633.565	297.947	-0.084	0.157
-632.551	288.674	-0.019	0.035
-631.536	-162.171	-0.287	0.015
-630.522	65.521	0.176	-0.182
-629.507	-200.000	-0.007	-0.227
-628.492	-157.697	-0.428	0.026
-627.478	16.445	-0.138	0.111
-626.463	344.837	0.120	-0.240
-625.449	-46.804	0.150	-0.075
-624.434	41.090	0.141	-0.129
-623.419	-21.983	-0.045	0.028
-622.405	-27.486	0.465	0.275
-621.390	800.000	-0.033	-0.122
-620.376	-200.000	0.029	-0.398
-619.361	489.500	0.163	0.379
-618.346	800.000	0.051	0.179
-617.332	170.832	0.138	0.202
-616.317	595.019	-0.054	-0.137
-615.303	-200.000	0.009	0.075
-614.288	161.792	0.214	0.305
-613.273	-156.066	-0.071	0.005
-612.259	-109.614	0.043	-0.009
-611.244	593.670	-0.031	-0.077
-610.230	-110.595	0.177	-0.037
-609.215	60.342	0.061	0.061
-608.201	219.400	0.119	-0.193
-607.186	-107.682	0.336	0.075
-606.171	9.171	-0.096	0.074
-605.157	-83.910	-0.059	0.019
-604.142	274.121	0.147	-0.265
-603.128	-14.947	0.161	-0.105
-602.113	-6.842	-0.254	0.176
-601.098	-79.846	-0.217	-0.074
-600.084	3.521	0.010	0.007
-599.069	-200.000	-0.008	-0.049
-598.055	-200.000	0.042	0.265
-597.040	220.579	-0.154	0.251
-596.025	-200.000	-0.011	0.124
-595.011	18.208	-0.180	0.146
-593.996	800.000	-0.067	0.265
-592.982	33.993	0.309	0.274
-591.967	-132.437	0.137	0.018
-590.952	15.891	-0.250	-0.200
-589.938	-47.679	0.317	-0.156
-588.923	231.180	0.132	-0.220
-587.909	-92.541	-0.220	0.063
-586.894	-200.000	-0.024	0.225
-585.879	-200.000	-0.036	-0.408
-584.865	-200.000	-0.049	0.315
-583.850	317.350	0.071	0.137
-582.836	-59.961	-0.139	-0.061
-581.821	-59.430	-0.252	-0.110
-580.806	-200.000	-0.343	0.000
-579.792	-200.000	-0.024	-0.152
-578.777	-77.120	0.111	0.039
-577.763	-53.779	0.088	-0.041
-576.748	58.316	-0.131	0.130
-575.733	-200.000	0.009	0.301
-574.719	-101.786	0.065	-0.016
-573.704	-24.068	-0.265	-0.161
-572.690	71.572	0.068	-0.072
-571.675	-200.000	0.031	-0.221
-570.661	171.798	-0.106	0.154
-569.646	10.945	-0.292	0.227
-568.631	-200.000	0.035	-0.193
-567.617	800.000	0.125	-0.406
-566.602	-54.990	-0.083	-0.038
-565.588	-200.000	0.003	0.176
-564.573	49.766	0.176	0.168
-563.558	-26.385	0.045	-0.027
-562.544	-200.000	-0.176	-0.000
-561.529	-50.801	-0.271	0.129
-560.515	-200.000	0.001	-0.015
-559.500	169.581	0.278	-0.404
-558.485	-137.123	0.092	0.011
-557.471	-77.987	0.106	-0.037
-556.456	408.713	-0.081	-0.173
-555.442	-64.967	0.150	0.062
-554.427	13.687	0.188	-0.149
-553.412	800.000	-0.043	-0.128
-552.398	33.284	-0.031	0.027
-551.383	54.793	-0.154	-0.151
-550.369	-11.443	-0.155	-0.103
-549.354	-200.000	-0.006	-0.134
-548.339	152.433	-0.122	-0.169
-547.325	-55.686	-0.404	0.183
-546.310	368.504	-0.187	-0.385
-545.296	601.685	-0.215	-0.543
-544.281	-82.975	-0.093	0.031
-543.266	-54.418	-0.256	-0.118
-542.252	-119.432	-0.090	0.016
-541.237	-167.674	-0.368	-0.015
-540.223	7.377	-0.283	0.214
-539.208	-200.000	-0.012	0.101
-538.193	-54.655	0.129	0.059
-537.179	167.308	0.183	-0.264
-536.164	-200.000	-0.009	0.381
-535.150	-200.000	0.010	-0.102
-534.135	-120.272	-0.258	0.045
-533.121	-2.925	-0.376	0.267
-532.106	-13.202	-0.036	0.024
-531.091	-83.824	-0.067	0.022
-530.077	800.000	0.051	-0.215
-529.062	87.101	0.340	0.381
-528.048	-70.368	0.132	-0.051
-527.033	800.000	0.067	-0.217
-526.018	68.600	-0.083	-0.087
-525.004	-163.912	0.078	-0.004
-523.989	-18.119	-0.013	0.008
-522.975	101.469	0.325	0.385
-521.960	-66.302	0.193	0.078
-520.945	-51.956	-0.279	0.131
-519.931	-200.000	0.003	0.080
-518.916	-146.035	-0.132	-0.012
-517.902	-87.168	-0.272	0.084
-516.887	41.827	0.189	0.174
-515.872	800.000	-0.121	0.377
-514.858	-149.302	-0.178	0.014
-513.843	291.210	-0.052	0.095
-512.829	800.000	-0.021	-0.076
-511.814	800.000	-0.084	-0.340
-510.799	-200.000	-0.023	-0.241
-509.785	-121.878	-0.263	-0.044
-508.770	800.000	-0.071	-0.271
-507.756	-100.201	0.126	0.032
-506.741	206.616	-0.097	-0.154
-505.726	69.461	-0.064	-0.067
-504.712	38.132	-0.086	0.077
-503.697	-115.424	-0.373	0.071
-502.683	164.617	-0.167	0.239
-501.668	-70.438	0.099	-0.038
-500.653	46.718	0.240	0.226
-499.639	-200.000	0.018	0.293
-498.624	-147.218	0.313	0.027
-497.610	9.107	-0.022	-0.017
-496.595	91.195	-0.035	0.040
-495.581	-200.000	0.000	-0.137
-494.566	-60.070	0.256	-0.111
-493.551	-104.226	0.126	0.030
-492.537	-126.363	0.280	0.042
-491.522	-48.966	0.256	-0.124
-490.508	-107.529	0.098	-0.022
-489.493	169.795	-0.085	-0.124
-488.478	354.522	0.021	-0.041
-487.464	-95.300	-0.212	0.058
-486.449	-26.442	-0.029	-0.017
-485.435	-29.852	-0.271	0.156
-484.420	800.000	0.015	0.060
-483.405	-200.000	-0.016	0.260
-482.391	305.675	-0.019	-0.036
-481.376	377.733	0.228	-0.472
-480.362	-200.000	0.042	0.187
-479.347	-185.566	-0.036	0.001
-478.332	122.391	0.150	-0.190
-477.318	-48.663	0.240	-0.117
-476.303	-108.999	0.074	0.016
-475.289	123.103	-0.321	-0.407
-474.274	-90.820	-0.188	0.055
-473.259	97.728	0.117	-0.136
-472.245	-27.176	-0.100	0.059
-471.230	255.655	0.085	0.147
-470.216	-200.000	0.016	0.321
-469.201	-200.000	-0.018	-0.263
-468.186	28.548	-0.287	0.246
-467.172	349.801	-0.070	0.140
-466.157	-200.000	0.003	0.104
-465.143	-200.000	0.011	-0.122
-464.128	-176.862	-0.313	0.008
-463.113	25.266	-0.239	-0.201
-462.099	-49.627	0.141	-0.068
-461.084	236.208	0.122	0.204
-460.070	-49.201	0.204	-0.098
-459.055	245.648	-0.135	-0.230
-458.040	-83.738	0.255	-0.082
-457.026	52.353	-0.276	-0.266
-456.011	222.318	0.111	0.182
-454.997	800.000	-0.050	-0.154
-453.982	158.598	-0.169	-0.237
-452.968	491.412	0.141	0.326
-451.953	75.710	-0.259	0.277
-450.938	-5.444	-0.137	-0.095
-449.924	-126.934	-0.172	0.026
-448.909	-111.606	0.164	0.034
-447.895	-83.777	-0.156	-0.050
-446.880	185.976	-0.187	0.282
-445.865	-165.971	-0.326	0.014
-444.851	-40.029	0.148	0.078
-443.836	800.000	0.121	0.342
-442.822	-57.142	-0.216	-0.096
-441.807	132.234	0.059	0.076
-440.792	-200.000	-0.019	-0.091
-439.778	58.266	0.150	-0.149
-438.763	-96.153	0.097	-0.026
-437.749	746.829	-0.098	0.267
-436.734	800.000	0.103	0.398
-435.719	-18.062	-0.128	-0.081
-434.705	-200.000	0.031	-0.300
-433.690	541.181	-0.109	-0.262
-432.676	-200.000	0.044	0.282
-431.661	-170.086	-0.280	-0.010
-430.646	-22.142	0.142	0.087
-429.632	-200.000	-0.036	0.225
-428.617	111.906	-0.273	-0.333
-427.603	-13.756	-0.176	-0.115
-426.588	518.588	-0.096	-0.227
-425.573	800.000	-0.024	0.103
-424.559	-77.792	-0.184	-0.064
-423.544	134.727	-0.094	0.124
-422.530	-52.019	0.344	0.162
-421.515	-58.581	-0.245	-0.108
-420.500	-200.000	-0.051	-0.293
-419.486	46.938	0.175	0.165
-418.471	-200.000	-0.019	-0.258
-417.457	557.432	-0.025	0.061
-416.442	800.000	-0.101	0.345
-415.428	71.736	-0.220	0.231
-414.413	95.489	0.153	-0.176
-413.398	-151.462	-0.141	0.011
-412.384	-160.850	-0.052	0.003
-411.369	-97.121	0.289	-0.076
-410.355	-66.337	0.038	0.015
-409.340	-77.841	0.084	-0.029
-408.325	22.374	-0.116	0.096
-407.311	-60.443	-0.076	-0.033
-406.296	-40.689	-0.168	-0.088
-405.282	-34.558	-0.138	-0.076
-404.267	244.412	-0.154	-0.262
-403.252	-200.000	-0.008	-0.305
-402.238	140.168	0.191	-0.254
-401.223	-200.000	-0.049	0.370
-400.209	-35.989	-0.121	-0.066
-399.194	186.696	-0.101	-0.152
-398.179	-41.743	0.251	-0.130
-397.165	-55.182	0.155	-0.070
-396.150	132.636	0.316	-0.412
-395.136	-17.373	0.107	-0.068
-394.121	-200.000	-0.010	-0.133
-393.106	-64.384	0.104	0.043
-392.092	-200.000	-0.030	0.144
-391.077	-94.858	0.140	0.038
-390.063	800.000	0.024	0.091
-389.048	-33.544	-0.230	-0.128
-388.033	94.952	0.105	-0.121
-387.019	319.077	0.074	-0.141
-386.004	-200.000	0.043	-0.201
-384.990	-200.000	-0.032	-0.273
-383.975	-200.000	0.008	0.138
-382.960	14.920	0.308	-0.243
-381.946	139.616	-0.281	-0.373
-380.931	578.878	0.045	-0.112
-379.917	562.814	-0.042	0.103
-378.902	800.000	-0.028	-0.115
-377.888	341.711	-0.086	0.169
-376.873	267.548	0.050	-0.088
-375.858	-106.516	0.422	0.095
-374.844	-200.000	0.016	0.175
-373.829	-27.345	0.179	-0.105
-372.815	800.000	-0.079	0.244
-371.800	-139.121	-0.155	0.017
-370.785	-87.581	-0.096	0.029
-369.771	-200.000	-0.002	0.582
-368.756	-57.775	-0.372	-0.164
-367.742	1.438	0.050	0.036
-366.727	800.000	0.096	-0.276
-365.712	-93.660	0.255	0.071
-364.698	-37.808	0.079	0.042
-363.683	800.000	-0.025	-0.078
-362.669	-200.000	0.046	-0.272
-361.654	517.919	0.148	-0.349
-360.639	146.811	0.104	0.141
-359.625	330.980	0.037	-0.071
-358.610	-200.000	0.038	0.169
-357.596	800.000	0.044	0.157
-356.581	-200.000	-0.079	-0.427
-355.566	-108.383	-0.363	0.079
-354.552	-200.000	-0.005	0.113
-353.537	-148.657	0.436	-0.036
-352.523	-200.000	0.001	0.285
-351.508	34.152	0.094	0.083
-350.493	-200.000	0.006	-0.083
-349.479	800.000	0.126	-0.355
-348.464	331.185	0.070	-0.136
-347.450	-0.529	-0.199	0.142
-346.435	-50.798	-0.130	-0.062
-345.420	-0.393	0.110	-0.079
-344.406	-92.585	-0.342	-0.097
-343.391	800.000	0.075	0.268
-342.377	-39.452	0.212	-0.112
-341.362	41.205	0.249	0.227
-340.348	-95.501	-0.237	-0.064
-339.333	101.310	0.037	0.043
-338.318	236.580	-0.109	0.181
-337.304	150.511	0.059	0.081
-336.289	-200.000	-0.025	-0.165
-335.275	-23.824	0.081	0.049
-334.260	36.670	0.056	-0.050
-333.245	-200.000	-0.010	0.097
-332.231	190.595	-0.139	0.211
-331.216	13.610	0.230	-0.180
-330.202	-120.309	-0.099	0.017
-329.187	-89.127	0.525	0.156
-328.172	-146.613	0.075	-0.007
-327.158	800.000	-0.057	-0.175
-326.143	-108.871	-0.112	-0.024
-325.129	-92.428	-0.289	-0.082
-324.114	-42.661	0.327	0.168
-323.099	7.834	-0.067	0.051
-322.085	-70.040	0.194	-0.074
-321.070	59.674	-0.165	0.164
-320.056	-144.504	-0.049	0.005
-319.041	160.196	-0.176	0.246
-318.026	694.371	-0.191	0.506
-317.012	266.417	0.177	0.311
-315.997	83.396	0.162	0.178
-314.983	-18.823	0.189	-0.118
-313.968	-138.813	0.154	-0.017
-312.953	57.274	-0.071	0.070
-311.939	226.646	-0.073	-0.120
-310.924	-143.385	0.040	-0.004
-309.910	36.469	0.253	-0.225
-308.895	-200.000	-0.002	-0.209
-307.880	3.827	0.137	-0.101
-306.866	-57.776	-0.125	-0.055
-305.851	-136.663	0.091	0.011
-304.837	-170.012	-0.299	-0.011
-303.822	228.620	0.264	0.433
-302.807	-200.000	0.006	0.120
-301.793	148.857	-0.197	0.268
-300.778	167.816	0.033	-0.047
-299.764	-165.877	0.399	0.017
-298.749	14.042	0.103	0.081
-297.735	279.465	-0.058	-0.104
-296.720	-200.000	0.013	0.172
-295.705	-33.145	0.201	-0.112
-294.691	800.000	-0.065	-0.192
-293.676	-64.552	0.185	-0.075
-292.662	-76.881	0.187	-0.066
-291.647	-103.798	0.206	-0.048
-290.632	-171.842	0.191	-0.006
-289.618	-61.596	0.207	0.087
-288.603	283.693	0.181	-0.327
-287.589	-70.273	0.135	-0.052
-286.574	-200.000	-0.046	0.270
-285.559	800.000	0.059	0.237
-284.545	800.000	-0.065	0.180
-283.530	-182.157	-0.449	0.008
-282.516	-125.938	-0.161	-0.024
-281.501	171.966	0.098	0.142
-280.486	-200.000	0.050	0.249
-279.472	-13.549	-0.101	0.066
-278.457	307.019	-0.100	0.187
-277.443	157.054	0.159	0.220
-276.428	96.271	-0.197	0.227
-275.413	-104.427	-0.397	-0.092
-274.399	-200.000	0.006	0.154
-273.384	335.925	-0.208	0.406
-272.370	104.438	-0.198	-0.234
-271.355	-163.880	-0.104	-0.005
-270.340	38.809	-0.258	0.231
-269.326	-41.761	-0.040	-0.020
-268.311	-8.853	-0.248	0.167
-267.297	98.299	0.209	0.242
-266.282	-171.473	0.132	0.004
-265.267	-200.000	0.010	0.122
-264.253	573.666	-0.102	-0.249
-263.238	78.977	-0.058	0.063
-262.224	-108.641	0.114	-0.025
-261.209	202.405	0.086	-0.134
-260.195	88.557	0.117	-0.131
-259.180	5.412	-0.066	-0.049
-258.165	-140.543	0.044	-0.005
-257.151	800.000	0.040	-0.122
-256.136	43.295	0.187	-0.171
-255.122	58.124	0.160	-0.158
-254.107	-200.000	-0.026	0.254
-253.092	581.407	-0.057	0.139
-252.078	248.111	0.149	-0.253
-251.063	-76.483	-0.183	-0.065
-250.049	-81.688	-0.045	-0.015
-249.034	800.000	-0.090	-0.328
-248.019	-200.000	0.050	-0.264
-247.005	51.067	0.267	-0.254
-245.990	6.643	-0.211	-0.158
-244.976	-170.208	-0.113	0.004
-243.961	77.136	-0.174	-0.185
-242.946	135.618	0.155	-0.203
-241.932	-94.320	-0.326	0.089
-240.917	42.277	-0.132	0.120
-239.903	-105.222	0.114	-0.026
-238.888	-200.000	-0.003	0.168
-237.873	-200.000	-0.047	0.354
-236.859	-61.352	0.162	0.068
-235.844	139.262	-0.188	0.248
-234.830	-70.295	0.284	-0.108
-233.815	-200.000	-0.019	0.219
-232.800	669.054	0.099	0.256
-231.786	-200.000	0.022	0.209
-230.771	519.881	-0.071	-0.166
-229.757	79.944	-0.081	0.087
-228.742	-200.000	-0.028	0.162
-227.727	219.043	0.173	0.277
-226.713	-23.920	-0.231	-0.138
-225.698	-17.604	0.132	0.083
-224.684	47.543	0.218	0.204
-223.669	208.326	0.180	-0.282
-222.655	-200.000	0.037	-0.261
-221.640	-9.335	0.122	0.082
-220.625	800.000	-0.086	0.250
-219.611	-44.727	0.289	0.145
-218.596	-165.874	0.338	0.015
-217.582	800.000	0.032	0.093
-216.567	-8.270	0.096	-0.065
-215.552	-97.429	0.145	0.038
-214.538	16.971	0.232	0.185
-213.523	421.832	0.018	0.039
-212.509	-90.111	-0.181	-0.053
-211.494	800.000	-0.097	-0.312
-210.479	-38.033	0.132	-0.070
-209.465	-200.000	0.034	-0.179
-208.450	-6.941	0.088	0.060
-207.436	-79.572	-0.415	0.140
-206.421	-73.949	0.036	-0.013
-205.406	-50.820	-0.475	0.224
-204.392	135.055	0.122	-0.159
-203.377	-82.944	0.174	0.056
-202.363	50.185	-0.068	-0.064
-201.348	-75.565	-0.228	0.081
-200.333	477.907	-0.046	0.104
-199.319	-52.441	0.246	-0.114
-198.304	-140.673	-0.230	0.024
-197.290	-64.186	0.256	-0.105
-196.275	793.003	0.060	0.167
-195.260	-102.114	0.320	0.077
-194.246	-26.757	-0.470	-0.275
-193.231	125.724	0.105	0.133
-192.217	81.336	0.105	-0.114
-191.202	49.769	0.188	0.177
-190.187	426.035	0.079	0.170
-189.173	86.108	-0.196	0.216
-188.158	109.447	0.101	0.121
-187.144	-77.614	0.095	-0.033
-186.129	-200.000	-0.231	0.000
-185.114	508.609	-0.100	-0.234
-184.100	-200.000	-0.002	-0.101
-183.085	408.142	0.053	-0.112
-182.071	217.938	-0.101	0.161
-181.056	-129.437	-0.242	-0.034
-180.042	328.436	-0.083	-0.159
-179.027	-200.000	0.205	-0.001
-178.012	-200.000	0.049	0.245
-176.998	428.681	-0.003	-0.007
-175.983	-65.403	-0.284	-0.114
-174.969	106.728	-0.116	-0.138
-173.954	800.000	-0.004	0.011
-172.939	-57.358	-0.054	-0.024
-171.925	-82.934	0.115	0.037
-170.910	800.000	-0.094	-0.352
-169.896	-200.000	-0.005	-0.607
-168.881	751.810	0.115	-0.311
-167.866	-150.437	0.110	-0.008
-166.852	24.987	0.275	0.228
-165.837	800.000	-0.055	0.199
-164.823	800.000	0.077	0.252
-163.808	-200.000	0.002	0.013
-162.793	-12.965	0.302	-0.196
-161.779	-7.931	-0.064	-0.043
-160.764	55.260	0.107	-0.103
-159.750	150.335	0.018	-0.024
-158.735	-104.776	0.290	-0.067
-157.720	107.861	0.151	0.180
-156.706	800.000	-0.105	-0.293
-155.691	500.285	0.154	0.355
-154.677	176.166	0.080	0.117
-153.662	800.000	-0.037	0.106
-152.647	135.531	-0.078	-0.101
-151.633	64.127	0.105	-0.106
-150.618	106.055	-0.152	0.180
-149.604	240.774	0.182	-0.304
-148.589	-200.000	-0.026	-0.224
-147.574	-120.369	0.361	-0.061
-146.560	-37.562	-0.117	-0.062
-145.545	-200.000	-0.014	-0.090
-144.531	800.000	-0.113	0.391
-143.516	-200.000	0.027	0.204
-142.502	53.900	0.126	-0.121
-141.487	357.428	-0.101	-0.202
-140.472	-181.168	-0.140	0.003
-139.458	-200.000	-0.053	0.271
-138.443	-2.152	-0.043	0.030
-137.429	-200.000	-0.018	0.133
-136.414	-200.000	0.017	0.202
-135.399	361.646	0.152	0.304
-134.385	-56.611	-0.452	-0.200
-133.370	-47.225	0.225	-0.110
-132.356	-4.417	-0.139	-0.096
-131.341	800.000	0.147	-0.556
-130.326	-31.667	0.019	0.011
-129.312	-200.000	0.007	0.041
-128.297	-95.130	-0.098	0.026
-127.283	334.244	0.110	0.212
-126.268	-79.174	0.296	-0.100
-125.253	-111.966	0.342	0.069
-124.239	-23.905	-0.356	0.213
-123.224	-14.394	0.083	-0.053
-122.210	-110.859	-0.088	-0.018
-121.195	-51.711	0.100	-0.047
-120.180	-35.120	0.260	-0.141
-119.166	-104.820	-0.264	-0.061
-118.151	-14.743	-0.273	-0.175
-117.137	302.835	-0.057	0.105
-116.122	-20.257	-0.191	0.117
-115.107	157.903	0.044	-0.061
-114.093	192.030	0.096	-0.145
-113.078	-92.941	-0.107	-0.030
-112.064	708.843	0.105	-0.278
-111.049	-127.274	0.371	-0.054
-110.034	-150.280	0.327	0.025
-109.020	-56.171	0.125	-0.055
-108.005	132.646	0.111	0.143
-106.991	166.835	-0.079	-0.112
-105.976	-47.451	0.087	-0.042
-104.962	19.312	0.152	-0.122
-103.947	-191.083	-0.190	-0.002
-102.932	51.829	0.123	-0.117
-101.918	-200.000	-0.073	-0.331
-100.903	-31.491	-0.181	-0.102
-99.889	800.000	0.038	0.152
-98.874	-134.853	-0.449	0.054
-97.859	-200.000	0.006	0.051
-96.845	301.153	0.253	0.466
-95.830	180.913	0.025	0.037
-94.816	-5.898	-0.172	0.117
-93.801	375.136	-0.131	-0.266
-92.786	-68.797	0.262	-0.101
-91.772	242.499	0.205	0.343
-90.757	-70.632	-0.088	0.033
-89.743	-7.191	-0.071	-0.048
-88.728	-69.491	-0.286	-0.109
-87.713	332.301	-0.052	0.100
-86.699	800.000	-0.023	0.089
-85.684	-99.389	0.035	0.009
-84.670	-30.168	0.113	-0.064
-83.655	472.942	-0.053	0.119
-82.640	800.000	0.016	0.060
-81.626	153.361	0.050	0.069
-80.611	131.445	-0.258	-0.331
-79.597	470.834	-0.197	-0.442
-78.582	-36.553	-0.200	0.108
-77.567	76.130	-0.114	0.120
-76.553	-17.954	0.319	-0.199
-75.538	15.183	0.340	-0.266
-74.524	446.999	-0.116	0.254
-73.509	-103.078	-0.095	0.022
-72.494	-153.450	-0.092	-0.006
-71.480	95.859	0.077	0.088
-70.465	8.706	0.233	0.175
-69.451	-200.000	-0.005	0.039
-68.436	-200.000	-0.021	0.163
-67.422	-139.261	-0.150	0.016
-66.407	69.070	-0.076	0.078
-65.392	77.208	0.135	0.143
-64.378	217.243	0.096	-0.152
-63.363	401.092	0.033	0.069
-62.349	-39.882	0.112	0.058
-61.334	264.350	-0.504	-0.875
-60.319	120.926	0.230	0.285
-59.305	800.000	-0.203	-0.856
-58.290	-200.000	0.072	0.773
-57.276	705.675	0.498	1.309
-56.261	-200.000	76.691	511.631
-55.246	514.785	1329.216	3091.089
-54.232	147.235	2558.400	3430.327
-53.217	116.381	2223.233	2714.752
-52.203	51.852	1671.664	1585.005
-51.188	44.000	1398.610	1276.863
-50.173	40.495	1352.423	1213.249
-49.159	59.120	1387.928	1360.509
-48.144	65.925	1406.745	1420.854
-47.130	44.479	1369.060	1252.638
-46.115	40.508	1352.701	1213.383
-45.100	40.311	1348.129	1208.030
-44.086	40.144	1346.153	1205.199
-43.071	40.120	1343.685	1202.793
-42.057	40.163	1341.234	1200.811
-41.042	40.170	1339.337	1199.110
-40.027	40.328	1337.794	1198.635
-39.013	40.153	1336.550	1196.414
-37.998	40.316	1333.990	1195.058
-36.984	40.270	1332.644	1193.532
-35.969	40.319	1330.798	1192.124
-34.954	40.444	1328.843	1191.077
-33.940	40.453	1327.234	1189.642
-32.925	40.456	1326.703	1189.140
-31.911	40.403	1325.200	1187.424
-30.896	40.347	1323.356	1185.390
-29.881	40.404	1321.863	1184.349
-28.867	40.515	1320.278	1183.545
-27.852	40.487	1319.081	1182.252
-26.838	40.515	1317.180	1180.673
-25.823	40.476	1316.286	1179.589
-24.809	40.507	1314.775	1178.371
-23.794	40.317	1313.773	1176.301
-22.779	40.416	1312.087	1175.333
-21.765	40.453	1310.464	1174.048
-20.750	40.401	1308.872	1172.273
-19.736	40.389	1307.668	1171.074
-18.721	40.239	1306.450	1169.052
-17.706	40.411	1305.208	1168.911
-16.692	40.245	1304.274	1167.046
-15.677	40.327	1303.128	1166.460
-14.663	40.331	1301.976	1165.403
-13.648	40.189	1301.055	1163.697
-12.633	40.206	1299.991	1162.801
-11.619	40.291	1299.090	1162.446
-10.604	40.321	1298.210	1161.788
-9.590	40.254	1297.446	1160.666
-8.575	40.253	1296.552	1159.818
-7.560	40.278	1295.310	1158.806
-6.546	40.243	1294.753	1158.054
-5.531	40.303	1293.449	1157.193
-4.517	40.251	1292.972	1156.415
-3.502	40.359	1291.516	1155.698
-2.487	40.295	1290.611	1154.472
-1.473	40.351	1286.715	1151.263
-0.458	39.276	1272.512	1132.329
0.556	35.899	1253.152	1091.742
1.571	32.092	1257.201	1073.464
2.586	30.795	1272.533	1078.944
3.600	29.053	1260.948	1059.017
4.615	20.733	1182.326	947.796
5.629	8.347	1098.480	817.462
6.644	2.796	1074.620	771.773
7.659	2.305	1071.601	767.076
8.673	2.131	1070.166	765.110
9.688	2.050	1068.712	763.596
10.702	2.399	1067.580	764.464
11.717	9.365	1078.548	807.312
12.731	20.535	1094.308	875.618
13.746	25.504	1099.335	904.642
14.761	25.580	1100.351	905.779
15.775	25.675	1099.459	905.443
16.790	25.455	1098.495	903.463
17.804	25.358	1098.004	902.495
18.819	25.556	1097.390	902.903
19.834	25.535	1097.153	902.523
20.848	25.503	1096.977	902.139
21.863	25.577	1096.182	901.776
22.877	25.517	1095.163	900.555
23.892	25.546	1094.436	900.021
24.907	25.546	1094.402	899.918
25.921	25.487	1093.018	898.405
26.936	25.431	1091.841	897.077
27.950	25.517	1089.993	895.909
28.965	25.268	1088.453	893.324
29.980	25.492	1086.579	892.819
30.994	25.692	1085.925	893.196
32.009	25.614	1084.838	891.836
33.023	25.488	1083.706	890.204
34.038	25.486	1083.035	889.563
35.053	25.501	1082.267	888.927
36.067	25.493	1081.533	888.205
37.082	25.642	1080.892	888.335
38.096	25.731	1079.977	887.943
39.111	25.923	1079.075	888.072
40.126	25.579	1078.227	885.599
41.140	25.317	1076.185	882.559
42.155	25.171	1074.560	880.430
43.169	25.153	1073.793	879.637
44.184	25.157	1073.310	879.180
45.199	25.074	1071.790	877.451
46.213	25.216	1070.912	877.349
47.228	25.407	1070.430	877.812
48.242	25.391	1069.557	876.939
49.257	25.486	1068.693	876.620
50.271	25.586	1067.986	876.446
51.286	25.578	1067.593	876.006
52.301	25.670	1066.359	875.367
53.315	25.525	1065.239	873.663
54.330	25.376	1064.592	872.334
55.344	25.395	1063.786	871.685
56.359	25.362	1063.057	870.855
57.374	25.245	1061.993	869.338
58.388	25.276	1061.061	868.649
59.403	25.177	1060.254	867.431
60.417	24.942	1059.587	865.671
61.432	25.032	1059.190	865.709
62.447	25.299	1058.289	866.183
63.461	25.291	1057.595	865.498
64.476	25.178	1056.517	863.995
65.490	25.014	1055.937	862.658
66.505	25.189	1055.057	862.702
67.520	25.370	1054.328	862.901
68.534	25.084	1053.234	860.553
69.549	24.681	1052.124	857.641
70.563	24.744	1051.267	857.167
71.578	24.846	1050.282	856.776
72.593	24.449	1049.690	854.318
73.607	24.675	1049.069	854.817
74.622	24.999	1048.582	855.892
75.636	25.201	1047.812	856.155
76.651	24.904	1047.291	854.234
77.666	24.792	1046.190	852.727
78.680	25.002	1045.015	852.695
79.695	24.986	1044.710	852.293
80.709	25.118	1044.096	852.344
81.724	25.129	1043.428	851.777
82.739	25.187	1042.790	851.456
83.753	25.502	1041.927	852.167
84.768	25.799	1041.304	852.990
85.782	25.991	1040.507	853.171
86.797	25.755	1039.728	851.342
87.812	25.534	1038.714	849.393
88.826	25.738	1037.882	849.597
89.841	25.783	1037.011	849.020
90.855	25.779	1036.114	848.192
91.870	25.666	1035.206	846.844
92.884	25.713	1033.971	845.982
93.899	25.735	1032.869	845.106
94.914	25.750	1031.986	844.378
95.928	25.591	1031.047	842.790
96.943	25.415	1029.996	841.034
97.957	25.180	1028.972	839.027
98.972	25.116	1027.231	837.230
99.987	25.154	1027.466	837.526
101.001	25.384	1026.949	838.103
102.016	25.521	1025.523	837.506
103.030	25.424	1024.642	836.260
104.045	25.281	1023.818	834.847
105.060	25.107	1022.665	833.024
106.074	25.265	1021.925	833.084
107.089	25.503	1021.615	833.862
108.103	25.411	1020.684	832.600
109.118	25.196	1019.258	830.371
110.133	25.141	1018.262	829.228
111.147	25.094	1017.111	828.000
112.162	24.993	1016.336	826.833
113.176	25.170	1015.678	827.039
114.191	25.138	1015.053	826.310
115.206	24.665	1013.946	823.157
116.220	24.671	1013.031	822.370
117.235	25.017	1012.031	823.077
118.249	24.968	1011.312	822.191
119.264	24.742	1010.849	820.706
120.279	24.894	1009.651	820.357
121.293	25.033	1009.011	820.399
122.308	25.029	1008.008	819.493
123.322	24.845	1007.043	817.799
124.337	24.814	1005.494	816.326
125.352	24.284	1003.973	812.602
126.366	24.217	1002.695	811.193
127.381	24.866	1003.166	814.458
128.395	25.271	1002.701	815.849
129.410	25.423	1002.069	815.951
130.424	25.388	1001.124	814.952
131.439	25.479	1000.174	814.520
132.454	25.482	999.085	813.572
133.468	25.490	997.828	812.516
134.483	25.602	997.449	812.639
135.497	25.643	997.022	812.404
136.512	25.656	996.245	811.758
137.527	25.785	995.257	811.461
138.541	25.816	994.722	811.094
139.556	25.702	993.747	809.714
140.570	25.861	993.064	809.801
141.585	25.934	991.537	808.811
142.600	25.744	990.998	807.451
143.614	25.962	990.333	807.812
144.629	25.928	990.056	807.364
145.643	25.825	988.440	805.514
146.658	25.711	987.011	803.767
147.673	25.661	985.594	802.320
148.687	25.448	985.150	800.938
149.702	25.379	984.106	799.713
150.716	25.497	982.556	798.906
151.731	25.564	982.366	798.977
152.746	25.815	981.465	799.287
153.760	25.898	980.982	799.192
154.775	25.931	980.559	798.923
155.789	25.892	979.623	797.917
156.804	25.811	978.948	796.941
157.819	25.832	977.915	796.122
158.833	25.942	977.389	796.106
159.848	26.054	976.432	795.753
160.862	25.861	974.657	793.386
161.877	25.725	973.825	792.037
162.892	25.852	973.207	792.025
163.906	25.823	972.028	790.870
164.921	25.770	971.049	789.769
165.935	25.941	970.253	789.803
166.950	25.893	969.459	788.874
167.964	25.895	968.232	787.816
168.979	25.676	967.161	785.920
169.994	25.531	966.351	784.558
171.008	25.814	966.068	785.492
172.023	25.874	965.184	784.964
173.037	25.650	964.305	783.208
174.052	25.698	963.198	782.447
175.067	25.502	962.438	780.911
176.081	25.595	962.573	781.352
177.096	25.679	961.268	780.589
178.110	25.318	960.449	778.291
179.125	25.177	959.707	777.009
180.140	25.217	959.101	776.623
181.154	25.432	958.813	777.253
182.169	25.793	958.377	778.392
183.183	25.866	958.542	778.769
184.198	25.792	957.251	777.334
185.213	25.784	956.551	776.660
186.227	25.801	956.220	776.396
187.242	25.728	955.504	775.435
188.256	25.836	954.892	775.331
189.271	25.908	954.160	774.980
190.286	25.558	952.989	772.454
191.300	24.947	951.123	768.254
192.315	24.166	949.445	763.487
193.329	24.124	949.092	762.955
194.344	25.007	949.734	767.187
195.359	25.594	949.857	769.730
196.373	25.780	949.019	769.777
197.388	25.608	948.481	768.539
198.402	25.657	947.707	768.055
199.417	25.796	946.888	767.914
200.432	25.529	946.269	766.208
201.446	25.331	945.456	764.636
202.461	25.414	944.744	764.348
203.475	24.589	942.815	759.213
204.490	23.806	941.062	754.414
205.504	24.697	941.821	758.737
206.519	25.334	941.766	761.328
207.534	25.363	941.594	761.244
208.548	25.875	941.098	762.945
209.563	25.706	940.175	761.417
210.577	25.475	939.840	760.101
211.592	25.890	939.589	761.583
212.607	25.955	938.738	761.101
213.621	25.872	938.320	760.344
214.636	25.984	937.099	759.759
215.650	25.915	936.573	758.974
216.665	25.883	936.055	758.356
217.680	25.934	935.343	757.926
218.694	25.539	933.845	754.986
219.709	25.327	933.208	753.513
220.723	25.605	932.999	754.445
221.738	25.644	932.391	754.048
222.753	25.613	931.888	753.446
223.767	25.817	931.145	753.633
224.782	26.001	931.262	754.428
225.796	26.138	930.012	753.922
226.811	25.514	928.397	749.944
227.826	24.602	927.722	745.530
228.840	24.970	926.673	746.154
229.855	25.085	926.409	746.354
230.869	24.599	925.276	743.353
231.884	24.951	925.528	744.955
232.899	25.709	925.306	747.863
233.913	25.778	924.599	747.509
234.928	25.596	923.931	746.149
235.942	25.640	923.304	745.757
236.957	25.121	923.074	743.354
237.972	25.267	921.988	743.019
238.986	25.402	921.612	743.210
240.001	25.393	920.831	742.476
241.015	25.476	920.616	742.581
242.030	25.785	919.665	743.022
243.045	25.741	919.392	742.557
244.059	25.814	918.990	742.467
245.074	25.747	918.085	741.395
246.088	25.316	917.045	738.716
247.103	25.562	916.979	739.610
248.117	26.121	917.140	741.972
249.132	26.317	916.533	742.220
250.147	26.459	916.420	742.644
251.161	26.705	915.508	742.848
252.176	26.636	915.008	742.095
253.190	26.753	914.223	741.871
254.205	26.888	913.958	742.143
255.220	26.827	913.552	741.499
256.234	26.562	912.467	739.471
257.249	26.614	911.434	738.779
258.263	26.527	911.262	738.221
259.278	26.668	910.487	738.100
260.293	26.817	909.771	738.062
261.307	26.587	909.166	736.569
262.322	26.352	908.213	734.778
263.336	25.810	906.135	730.836
264.351	24.682	904.864	725.172
265.366	24.758	904.306	724.969
266.380	25.838	904.556	729.479
267.395	26.179	904.520	730.765
268.409	26.145	903.691	729.895
269.424	26.457	903.194	730.687
270.439	26.280	902.923	729.691
271.453	26.404	902.478	729.767
272.468	26.560	901.888	729.856
273.482	26.687	901.223	729.762
274.497	26.223	900.388	727.154
275.512	25.821	899.352	724.637
276.526	26.240	899.394	726.293
277.541	26.515	898.810	726.859
278.555	26.272	898.242	725.363
279.570	26.101	897.395	723.929
280.585	26.258	896.788	724.004
281.599	26.150	896.284	723.101
282.614	25.743	894.547	720.006
283.628	25.709	894.040	719.400
284.643	26.006	894.076	720.552
285.657	25.594	892.666	717.708
286.672	25.423	891.601	716.106
287.687	25.967	891.805	718.376
288.701	26.086	891.280	718.364
289.716	25.593	890.625	715.808
290.730	25.645	889.946	715.408
291.745	25.403	888.974	713.602
292.760	25.823	888.463	714.793
293.774	26.609	889.554	718.729
294.789	26.901	888.948	719.336
295.803	27.003	888.429	719.256
296.818	27.064	887.605	718.768
297.833	26.585	886.450	715.872
298.847	26.333	886.041	714.484
299.862	26.813	885.803	716.126
300.876	26.830	885.736	716.074
301.891	26.851	884.592	715.168
302.906	26.310	883.958	712.460
303.920	26.481	883.519	712.718
304.935	26.858	883.157	713.848
305.949	26.875	882.384	713.227
306.964	26.605	881.542	711.422
307.979	26.828	880.985	711.785
308.993	27.118	881.035	712.901
310.008	26.955	880.546	711.803
311.022	26.967	879.095	710.615
312.037	26.696	879.053	709.457
313.052	26.351	877.975	707.172
314.066	25.522	876.345	702.559
315.081	25.144	875.671	700.482
316.095	25.919	876.046	703.747
317.110	26.562	875.877	706.058
318.125	25.770	874.071	701.453
319.139	24.653	872.906	696.109
320.154	24.682	872.416	695.770
321.168	25.472	873.009	699.258
322.183	26.211	872.881	701.967
323.197	26.392	872.486	702.291
324.212	26.653	872.258	703.057
325.227	26.721	871.709	702.817
326.241	26.493	871.170	701.436
327.256	26.428	870.494	700.578
328.270	26.365	869.474	699.451
329.285	26.075	868.742	697.681
330.300	26.019	867.974	696.783
331.314	26.267	867.574	697.359
332.329	26.626	867.788	698.854
333.343	26.757	867.179	698.807
334.358	26.686	866.810	698.176
335.373	26.795	866.407	698.207
336.387	27.070	866.651	699.403
337.402	27.190	866.127	699.380
338.416	27.087	865.814	698.666
339.431	27.333	865.584	699.364
340.446	27.378	865.289	699.239
341.460	27.412	864.607	698.757
342.475	27.000	864.671	697.163
343.489	27.183	863.687	697.011
344.504	27.525	863.336	697.977
345.519	27.701	863.131	698.424
346.533	27.568	863.007	697.752
347.548	27.619	862.093	697.144
348.562	27.616	861.594	696.668
349.577	27.437	861.237	695.634
350.592	27.449	860.068	694.676
351.606	27.339	859.638	693.846
352.621	27.261	858.784	692.798
353.635	27.392	857.871	692.501
354.650	26.669	856.547	688.624
355.665	25.735	854.511	683.382
356.679	26.068	854.727	684.757
357.694	26.648	854.070	686.371
358.708	26.350	853.928	685.065
359.723	26.833	853.608	686.578
360.738	27.239	852.906	687.488
361.752	27.255	852.638	687.273
362.767	27.624	852.374	688.389
363.781	27.807	851.848	688.597
364.796	27.996	851.682	689.113
365.810	28.024	851.280	688.832
366.825	28.016	850.631	688.215
367.840	27.628	850.211	686.354
368.854	27.199	849.402	684.028
369.869	27.348	848.714	683.971
370.883	27.308	848.233	683.376
371.898	27.312	847.965	683.114
372.913	27.260	847.509	682.491
373.927	27.356	847.427	682.722
374.942	27.504	846.975	682.855
375.956	27.662	846.368	682.898
376.971	27.923	845.653	683.234
377.986	27.975	845.285	683.074
379.000	28.113	844.533	682.918
380.015	27.623	844.383	680.908
381.029	27.793	843.586	680.840
382.044	27.804	843.242	680.541
383.059	27.898	842.545	680.269
384.073	27.907	842.243	680.001
385.088	28.028	841.324	679.648
386.102	27.645	840.558	677.544
387.117	27.652	839.897	676.979
388.132	27.363	838.457	674.686
389.146	26.858	837.920	672.324
390.161	27.227	837.712	673.465
391.175	27.581	837.824	674.803
392.190	27.484	836.363	673.209
393.205	26.122	834.284	666.453
394.219	24.636	832.436	659.439
395.234	24.271	832.783	658.308
396.248	25.802	834.254	665.070
397.263	27.296	834.868	671.018
398.278	27.446	834.159	670.938
399.292	27.009	833.904	669.066
400.307	27.086	833.072	668.622
401.321	27.287	832.873	669.144
402.336	27.498	833.260	670.169
403.350	28.122	833.129	672.302
404.365	28.423	832.682	672.986
405.380	28.593	832.201	673.161
406.394	28.698	831.719	673.097
407.409	28.676	831.003	672.379
408.423	28.630	830.749	671.945
409.438	28.700	830.321	671.795
410.453	28.680	830.082	671.467
411.467	28.579	829.323	670.427
412.482	28.725	829.010	670.646
413.496	28.777	828.614	670.455
414.511	28.798	828.126	670.079
415.526	28.664	827.996	669.425
416.540	28.493	827.094	668.014
417.555	28.279	826.374	666.596
418.569	28.232	826.089	666.136
419.584	28.332	825.333	665.831
420.599	28.217	824.809	664.931
421.613	95.929	1267.677	1382.247
422.628	82.828	1332.221	1382.374
