DTS Sentinel unit serial number:	SN413079Multiplexer serial number:	ORYXHardware model number:	OX4-SRSoftware version number:	ORYX F/W v4.00 Oryx Data Collector v3.7.2.0data status	okinstallation	princeton_trtdifferential loss correction	single-endedforward channel	channel 1reverse channel	N/Adate	2019/09/14time	13:34:35forward acquisition time	60.00reverse acquisition time	0.00gamma	496.2192k internal	0.2294k external	0.2294temperature offset calibration	1.0088default loss term (dB/km)	0.3790temperature slope calibration	1.0000multiplexer offset coefficient	1.0000multiplexer slope coefficient	1.0000fibre end	0.00T internal ref (°C)	37.94T ext. ref 1 (°C)	4.91T ext. ref 2 (°C)	32.90length (m)	temperature (°C)	Stokes	anti-Stokes-747.200	800.000	-0.090	0.335
-746.185	-99.972	0.167	0.043
-745.171	67.916	0.156	-0.163
-744.156	-40.372	-0.145	-0.077
-743.142	62.056	-0.155	-0.158
-742.127	-176.847	0.278	0.007
-741.112	119.351	0.073	0.093
-740.098	-94.340	-0.144	-0.040
-739.083	800.000	-0.126	-0.409
-738.069	-65.048	0.235	0.097
-737.054	81.191	0.189	0.209
-736.039	31.457	0.064	0.056
-735.025	-11.695	0.245	0.164
-734.010	339.848	-0.142	-0.283
-732.996	-65.240	-0.315	-0.130
-731.981	800.000	-0.081	0.241
-730.966	212.916	0.194	0.313
-729.952	131.538	0.144	-0.189
-728.937	800.000	0.007	-0.021
-727.923	-104.493	-0.259	0.061
-726.908	-12.636	0.207	-0.138
-725.894	-42.732	-0.252	0.131
-724.879	42.117	-0.256	-0.238
-723.864	79.101	0.126	-0.137
-722.850	800.000	-0.080	-0.261
-721.835	296.754	-0.062	-0.116
-720.821	668.684	-0.140	-0.369
-719.806	218.267	-0.126	0.205
-718.791	11.889	-0.140	0.110
-717.777	-200.000	-0.040	0.264
-716.762	-106.121	0.114	-0.026
-715.748	-3.354	0.228	0.162
-714.733	-79.998	-0.082	-0.028
-713.718	39.897	-0.278	-0.255
-712.704	-200.000	0.060	-0.535
-711.689	-1.853	-0.106	0.076
-710.675	-86.837	0.264	0.082
-709.660	56.220	0.185	0.183
-708.645	109.675	-0.121	0.148
-707.631	-60.666	0.173	-0.075
-706.616	197.641	-0.176	0.275
-705.602	171.863	-0.171	-0.251
-704.587	-157.725	0.103	-0.006
-703.572	-200.000	-0.029	0.207
-702.558	11.929	0.019	0.015
-701.543	-127.594	0.068	0.010
-700.529	-36.442	0.244	-0.134
-699.514	-64.018	-0.187	-0.078
-698.499	-200.000	-0.036	-0.464
-697.485	154.053	0.090	-0.126
-696.470	198.284	0.073	-0.114
-695.456	-200.000	0.023	0.113
-694.441	-99.713	0.196	-0.050
-693.426	-49.085	-0.198	0.097
-692.412	-200.000	-0.001	-0.019
-691.397	-127.845	-0.151	0.022
-690.383	-98.277	0.147	-0.038
-689.368	613.837	0.076	-0.194
-688.354	-93.798	-0.162	0.045
-687.339	478.628	0.153	-0.353
-686.324	-200.000	-0.007	-0.086
-685.310	126.194	0.103	-0.133
-684.295	-96.595	0.180	0.048
-683.281	-200.000	-0.045	0.376
-682.266	-200.000	-0.038	0.344
-681.251	-200.000	-0.003	-0.119
-680.237	15.853	-0.113	0.091
-679.222	124.163	-0.116	0.149
-678.208	9.595	-0.148	0.114
-677.193	224.098	-0.210	-0.345
-676.178	94.765	-0.116	-0.135
-675.164	-93.407	-0.018	-0.005
-674.149	384.890	0.033	0.069
-673.135	413.461	-0.054	-0.118
-672.120	-122.847	0.220	-0.036
-671.105	-184.787	-0.360	-0.006
-670.091	73.907	-0.032	0.034
-669.076	-175.819	-0.205	0.006
-668.062	800.000	-0.011	-0.041
-667.047	-84.483	-0.055	0.018
-666.032	36.564	0.096	0.086
-665.018	34.266	-0.266	0.237
-664.003	-200.000	0.034	-0.279
-662.989	-200.000	-0.000	0.243
-661.974	-200.000	-0.046	0.294
-660.959	139.623	-0.061	-0.082
-659.945	-117.462	-0.264	-0.049
-658.930	-200.000	-0.008	-0.146
-657.916	229.383	0.223	-0.371
-656.901	-51.101	0.103	-0.049
-655.886	-200.000	-0.011	-0.234
-654.872	-79.932	-0.148	-0.051
-653.857	83.609	-0.199	-0.221
-652.843	-80.570	-0.287	0.097
-651.828	-144.714	-0.209	0.020
-650.814	-109.257	0.283	0.061
-649.799	195.794	-0.117	0.181
-648.784	245.283	-0.112	-0.193
-647.770	127.716	0.110	-0.142
-646.755	-119.976	-0.278	-0.049
-645.741	-200.000	0.024	0.176
-644.726	24.187	0.274	-0.231
-643.711	-164.924	-0.156	0.007
-642.697	595.262	0.047	0.118
-641.682	260.420	0.065	-0.115
-640.668	107.511	0.139	-0.168
-639.653	-86.211	-0.240	-0.075
-638.638	-88.192	0.371	0.113
-637.624	7.787	-0.137	-0.104
-636.609	607.272	-0.044	0.112
-635.595	-200.000	0.048	0.249
-634.580	-64.715	0.132	-0.054
-633.565	800.000	-0.091	0.306
-632.551	-75.396	-0.266	0.097
-631.536	207.473	0.098	0.156
-630.522	-59.408	0.229	-0.100
-629.507	-139.143	0.075	0.008
-628.492	188.987	0.077	0.117
-627.478	-91.701	0.142	-0.041
-626.463	-200.000	-0.005	-0.223
-625.449	800.000	0.043	0.160
-624.434	634.995	-0.060	0.155
-623.419	15.985	-0.328	0.263
-622.405	800.000	0.020	0.068
-621.390	226.855	-0.078	-0.128
-620.376	-79.464	0.328	-0.113
-619.361	-5.568	-0.085	-0.060
-618.346	-51.114	0.132	0.063
-617.332	193.696	-0.161	-0.248
-616.317	311.912	-0.141	0.269
-615.303	-200.000	0.007	-0.293
-614.288	-137.028	-0.043	-0.005
-613.273	18.347	-0.356	0.289
-612.259	-119.288	0.223	-0.040
-611.244	522.571	0.056	-0.135
-610.230	7.210	0.061	0.046
-609.215	-91.618	-0.454	0.132
-608.201	119.733	0.168	0.211
-607.186	-168.125	0.131	0.005
-606.171	-200.000	-0.015	-0.113
-605.157	596.010	0.053	-0.134
-604.142	-200.000	0.063	-0.358
-603.128	-126.998	0.215	-0.032
-602.113	-65.365	-0.360	-0.147
-601.098	800.000	-0.081	0.259
-600.084	302.211	-0.158	0.298
-599.069	-200.000	-0.005	-0.333
-598.055	-78.928	-0.225	0.078
-597.040	441.786	-0.077	0.170
-596.025	-55.081	0.350	0.160
-595.011	-200.000	0.039	0.207
-593.996	48.123	-0.126	-0.120
-592.982	800.000	-0.111	-0.402
-591.967	-71.606	-0.171	-0.065
-590.952	-200.000	0.036	-0.258
-589.938	71.299	-0.210	-0.221
-588.923	-81.331	0.290	-0.097
-587.909	-9.066	-0.351	0.239
-586.894	-138.113	-0.338	0.038
-585.879	81.967	-0.156	-0.172
-584.865	-200.000	-0.008	-0.154
-583.850	-148.914	-0.256	-0.021
-582.836	608.507	-0.075	0.189
-581.821	-103.980	0.286	0.068
-580.806	-48.655	-0.437	-0.214
-579.792	196.988	0.051	0.080
-578.777	-200.000	-0.034	-0.236
-577.763	-111.391	-0.085	0.018
-576.748	-200.000	0.057	-0.334
-575.733	-200.000	0.006	-0.029
-574.719	223.810	0.091	0.150
-573.704	-141.038	-0.232	0.024
-572.690	469.730	-0.188	-0.429
-571.675	-63.997	-0.187	-0.078
-570.661	-190.702	-0.086	-0.001
-569.646	-91.146	0.411	-0.120
-568.631	112.793	0.046	0.057
-567.617	-94.698	-0.241	0.067
-566.602	133.225	-0.220	-0.289
-565.588	-162.376	-0.161	0.008
-564.573	197.313	0.050	-0.077
-563.558	-117.536	0.322	0.059
-562.544	800.000	0.055	-0.183
-561.529	800.000	-0.062	-0.223
-560.515	151.679	-0.125	-0.173
-559.500	-200.000	0.035	-0.349
-558.485	-176.466	-0.118	0.003
-557.471	-120.146	0.131	-0.023
-556.456	243.955	0.033	0.056
-555.442	800.000	-0.165	-0.493
-554.427	-44.714	0.071	0.036
-553.412	96.483	0.246	-0.286
-552.398	547.012	0.103	-0.250
-551.383	-143.897	0.254	0.024
-550.369	85.213	0.246	0.274
-549.354	-200.000	-0.033	0.175
-548.339	779.589	-0.076	0.211
-547.325	44.946	-0.131	0.122
-546.310	-88.306	0.404	0.123
-545.296	300.386	0.220	-0.411
-544.281	-47.222	-0.125	-0.062
-543.266	36.514	0.132	0.118
-542.252	-200.000	-0.006	-0.059
-541.237	-200.000	-0.053	-0.359
-540.223	-115.326	-0.092	0.018
-539.208	-10.652	-0.097	0.065
-538.193	25.371	-0.234	-0.197
-537.179	-144.754	-0.281	-0.026
-536.164	-200.000	-0.072	-0.328
-535.150	-93.456	0.080	-0.022
-534.135	800.000	-0.113	0.374
-533.121	-93.334	-0.398	-0.112
-532.106	9.560	-0.156	0.120
-531.091	-66.839	0.279	0.112
-530.077	-200.000	0.026	-0.145
-529.062	-200.000	0.021	-0.272
-528.048	668.342	-0.033	0.088
-527.033	800.000	-0.039	0.168
-526.018	569.098	-0.117	0.289
-525.004	-101.940	0.111	0.027
-523.989	-61.508	0.127	-0.054
-522.975	-29.567	0.202	0.117
-521.960	-172.500	0.436	-0.014
-520.945	87.296	0.098	-0.110
-519.931	21.087	0.146	0.120
-518.916	-167.856	-0.285	0.011
-517.902	-110.621	0.129	-0.027
-516.887	191.010	-0.144	-0.219
-515.872	33.335	-0.119	-0.105
-514.858	13.348	0.216	-0.170
-513.843	-52.265	0.161	-0.076
-512.829	543.900	0.038	-0.092
-511.814	-80.430	0.271	-0.092
-510.799	-200.000	0.014	-0.353
-509.785	-45.954	-0.135	0.068
-508.770	67.703	-0.110	-0.114
-507.756	19.431	-0.080	0.065
-506.741	-73.309	-0.286	-0.106
-505.726	263.639	-0.103	0.181
-504.712	-12.621	0.252	0.166
-503.697	-200.000	-0.079	-0.442
-502.683	715.498	0.049	-0.132
-501.668	-139.179	0.194	0.021
-500.653	40.665	0.274	-0.250
-499.639	-125.856	-0.104	-0.016
-498.624	175.182	0.226	0.332
-497.610	124.812	-0.105	0.134
-496.595	-29.581	-0.252	-0.146
-495.581	265.321	-0.107	-0.189
-494.566	-111.646	-0.543	-0.112
-493.551	-136.340	-0.308	-0.036
-492.537	242.745	-0.104	-0.176
-491.522	-83.943	-0.036	-0.012
-490.508	750.910	0.159	0.434
-489.493	800.000	-0.035	0.100
-488.478	-200.000	0.027	-0.162
-487.464	560.707	-0.193	-0.471
-486.449	155.771	-0.099	-0.138
-485.435	-113.915	-0.497	0.098
-484.420	323.848	-0.131	-0.253
-483.405	800.000	0.048	0.183
-482.391	-200.000	-0.033	-0.357
-481.376	-24.786	0.407	0.245
-480.362	-75.618	-0.021	0.008
-479.347	-21.951	0.084	0.051
-478.332	98.211	0.111	0.130
-477.318	-124.609	0.100	-0.016
-476.303	326.356	-0.206	-0.399
-475.289	-200.000	-0.002	0.096
-474.274	751.682	0.053	0.146
-473.259	-115.942	0.397	0.075
-472.245	-31.421	0.237	0.135
-471.230	-200.000	-0.019	-0.341
-470.216	171.584	0.200	0.290
-469.201	18.682	-0.111	0.090
-468.186	85.713	0.217	-0.242
-467.172	800.000	-0.100	-0.302
-466.157	-200.000	-0.016	0.086
-465.143	209.346	-0.187	0.296
-464.128	-69.381	-0.148	0.057
-463.113	20.659	0.352	0.288
-462.099	289.884	-0.020	-0.037
-461.084	-168.356	-0.398	-0.015
-460.070	-15.661	-0.146	0.094
-459.055	23.179	0.174	0.144
-458.040	-85.114	-0.350	0.111
-457.026	-5.211	-0.171	0.119
-456.011	322.809	0.103	-0.199
-454.997	36.011	0.373	0.332
-453.982	94.879	0.154	0.177
-452.968	800.000	-0.110	0.395
-451.953	-58.914	0.187	0.082
-450.938	203.531	0.170	-0.267
-449.924	288.313	0.173	-0.317
-448.909	-200.000	0.001	-0.254
-447.895	-95.628	-0.414	0.112
-446.880	42.003	0.213	0.195
-445.865	36.236	0.239	0.213
-444.851	-200.000	-0.005	0.025
-443.836	511.800	-0.200	-0.471
-442.822	221.772	0.055	0.089
-441.807	6.261	0.176	-0.132
-440.792	148.124	0.167	0.228
-439.778	604.558	0.070	-0.176
-438.763	-200.000	-0.017	-0.251
-437.749	-7.233	-0.048	-0.033
-436.734	44.004	-0.057	-0.053
-435.719	-80.763	-0.343	0.115
-434.705	-126.372	-0.278	0.042
-433.690	800.000	0.150	0.474
-432.676	800.000	-0.133	0.409
-431.661	-200.000	-0.031	0.301
-430.646	7.260	0.032	0.024
-429.632	-166.712	0.176	-0.007
-428.617	-123.835	-0.173	0.028
-427.603	92.503	-0.213	0.242
-426.588	178.400	-0.167	-0.247
-425.573	-149.333	0.206	-0.017
-424.559	623.039	0.145	-0.368
-423.544	-200.000	-0.019	0.234
-422.530	24.662	0.279	0.233
-421.515	-139.686	-0.226	0.024
-420.500	9.380	-0.142	0.109
-419.486	-11.051	-0.412	0.274
-418.471	727.377	0.052	-0.139
-417.457	314.334	0.115	-0.219
-416.442	-175.462	0.304	-0.008
-415.428	-4.489	0.329	0.229
-414.413	-108.377	-0.174	-0.038
-413.398	-116.257	0.228	0.043
-412.384	-59.592	0.248	0.108
-411.369	84.336	0.106	0.117
-410.355	-110.676	-0.229	0.048
-409.340	-113.957	-0.058	-0.011
-408.325	-200.000	0.007	-0.173
-407.311	103.930	-0.228	-0.270
-406.296	118.657	-0.214	0.267
-405.282	-200.000	0.057	0.254
-404.267	195.695	-0.089	0.136
-403.252	426.988	0.142	0.308
-402.238	208.167	0.192	-0.303
-401.223	800.000	-0.098	0.295
-400.209	60.010	-0.125	-0.124
-399.194	239.223	-0.164	-0.275
-398.179	-53.659	-0.075	-0.035
-397.165	800.000	-0.026	-0.094
-396.150	-101.899	0.402	-0.098
-395.136	10.887	-0.141	0.109
-394.121	800.000	-0.013	0.043
-393.106	-68.062	0.039	-0.016
-392.092	-200.000	-0.034	-0.160
-391.077	314.438	0.172	-0.327
-390.063	-200.000	-0.007	-0.351
-389.048	-200.000	-0.008	-0.145
-388.033	-200.000	0.009	-0.063
-387.019	-9.946	0.166	0.111
-386.004	-92.889	0.260	-0.073
-384.990	421.670	0.027	-0.057
-383.975	345.520	0.188	-0.372
-382.960	-57.551	0.182	-0.081
-381.946	-66.887	-0.152	0.060
-380.931	167.673	-0.132	-0.190
-379.917	446.317	-0.091	-0.202
-378.902	-200.000	-0.020	0.263
-377.888	396.164	0.049	0.103
-376.873	-90.021	-0.418	-0.123
-375.858	-33.724	-0.176	0.098
-374.844	13.256	0.196	-0.153
-373.829	-70.416	0.095	0.036
-372.815	11.775	-0.184	0.142
-371.800	-158.011	0.287	0.017
-370.785	-39.903	0.172	0.091
-369.771	668.112	0.068	-0.176
-368.756	29.733	-0.111	-0.095
-367.742	-186.351	0.268	-0.004
-366.727	-157.501	0.298	-0.018
-365.712	-45.804	-0.241	-0.120
-364.698	-123.518	-0.314	0.050
-363.683	224.433	-0.065	0.105
-362.669	375.301	-0.088	-0.181
-361.654	15.589	0.244	-0.193
-360.639	-63.358	0.194	-0.080
-359.625	-124.492	-0.060	0.009
-358.610	-27.865	0.454	-0.265
-357.596	-10.842	-0.064	0.043
-356.581	800.000	-0.076	0.244
-355.566	392.647	-0.155	-0.325
-354.552	-49.449	0.111	-0.053
-353.537	116.478	0.070	-0.087
-352.523	-7.574	-0.346	0.236
-351.508	283.803	-0.188	-0.339
-350.493	177.512	-0.100	-0.146
-349.479	800.000	0.115	-0.360
-348.464	-134.597	0.128	-0.016
-347.450	-89.398	0.190	0.056
-346.435	-68.287	0.204	-0.080
-345.420	-200.000	0.005	0.065
-344.406	-120.816	0.229	0.039
-343.391	-200.000	-0.007	-0.177
-342.377	-43.780	0.219	0.111
-341.362	381.913	-0.052	-0.107
-340.348	198.308	0.158	0.244
-339.333	-120.728	0.302	-0.051
-338.318	-120.394	-0.266	-0.046
-337.304	-134.804	-0.101	0.012
-336.289	-191.129	-0.121	-0.001
-335.275	800.000	0.136	0.436
-334.260	-109.535	0.196	0.042
-333.245	-30.754	-0.340	0.193
-332.231	366.286	-0.147	-0.297
-331.216	80.766	-0.054	0.059
-330.202	-108.056	0.413	-0.090
-329.187	-143.211	-0.227	0.022
-328.172	-76.164	0.128	0.045
-327.158	-50.528	0.002	-0.001
-326.143	-54.307	-0.271	-0.124
-325.129	-200.000	0.008	0.191
-324.114	800.000	0.082	0.314
-323.099	800.000	-0.118	0.327
-322.085	27.231	-0.130	-0.110
-321.070	-81.063	-0.057	0.019
-320.056	-92.580	0.180	-0.051
-319.041	800.000	0.050	0.176
-318.026	-200.000	-0.011	0.067
-317.012	-200.000	0.019	0.245
-315.997	290.521	-0.256	0.468
-314.983	-12.001	0.140	0.093
-313.968	-107.370	-0.212	0.047
-312.953	36.703	-0.188	0.167
-311.939	32.292	-0.091	0.079
-310.924	-118.831	-0.275	0.049
-309.910	800.000	0.148	-0.475
-308.895	800.000	-0.016	0.050
-307.880	43.811	-0.301	-0.277
-306.866	-51.831	0.358	-0.168
-305.851	-200.000	0.162	0.001
-304.837	467.911	-0.043	0.097
-303.822	-69.766	-0.234	-0.090
-302.807	800.000	-0.093	-0.386
-301.793	71.363	0.273	0.284
-300.778	-63.529	-0.280	-0.115
-299.764	208.583	0.082	-0.128
-298.749	540.624	-0.151	0.362
-297.735	768.040	-0.100	0.274
-296.720	45.375	-0.197	-0.183
-295.705	645.973	0.062	0.158
-294.691	-200.000	0.270	-0.001
-293.676	-156.825	-0.223	0.014
-292.662	188.223	0.092	-0.137
-291.647	68.572	-0.142	-0.147
-290.632	-200.000	0.005	0.058
-289.618	70.136	0.035	-0.036
-288.603	211.890	0.128	0.203
-287.589	-53.415	0.178	0.082
-286.574	-45.313	0.283	0.141
-285.559	508.328	-0.129	0.301
-284.545	442.193	-0.023	0.051
-283.530	69.960	-0.194	0.201
-282.516	-200.000	0.029	0.172
-281.501	-131.814	-0.235	-0.031
-280.486	53.188	-0.080	-0.077
-279.472	-80.392	-0.076	-0.025
-278.457	241.249	0.108	-0.180
-277.443	800.000	-0.148	0.474
-276.428	-122.842	-0.115	-0.019
-275.413	11.432	-0.325	-0.250
-274.399	-134.986	0.124	-0.015
-273.384	-200.000	-0.003	0.049
-272.370	8.299	-0.188	0.142
-271.355	152.119	-0.152	-0.208
-270.340	239.997	-0.210	0.352
-269.326	251.628	-0.150	-0.256
-268.311	-200.000	0.018	0.153
-267.297	-200.000	0.028	0.193
-266.282	-109.883	0.034	-0.007
-265.267	-138.437	0.244	-0.027
-264.253	-129.185	0.300	0.042
-263.238	800.000	0.039	-0.142
-262.224	-10.140	0.132	-0.088
-261.209	-106.015	0.404	0.091
-260.195	638.981	-0.096	0.246
-259.180	-17.140	-0.172	-0.109
-258.165	800.000	0.139	0.437
-257.151	-200.000	-0.025	0.247
-256.136	-169.709	0.302	0.011
-255.122	-200.000	0.013	-0.263
-254.107	708.900	0.033	0.088
-253.092	-8.113	0.238	0.161
-252.078	44.306	0.173	0.159
-251.063	108.219	0.175	0.209
-250.049	307.140	0.117	0.219
-249.034	44.909	0.190	0.176
-248.019	302.772	-0.108	0.200
-247.005	-170.946	0.150	0.005
-245.990	15.318	0.241	0.189
-244.976	-34.873	-0.193	0.106
-243.961	436.075	-0.084	-0.184
-242.946	122.159	0.094	-0.118
-241.932	19.237	0.294	-0.237
-240.917	-61.261	-0.138	0.058
-239.903	-163.353	0.196	-0.009
-238.888	-200.000	0.033	0.515
-237.873	244.630	-0.141	-0.238
-236.859	-116.404	0.143	0.027
-235.844	-119.676	-0.446	-0.077
-234.830	-107.050	-0.203	0.045
-233.815	-59.623	-0.141	-0.061
-232.800	-33.027	-0.038	-0.021
-231.786	54.468	0.056	-0.054
-230.771	160.926	-0.187	0.261
-229.757	-200.000	0.040	-0.251
-228.742	-17.121	0.220	-0.139
-227.727	-125.908	-0.391	-0.059
-226.713	213.703	-0.106	0.167
-225.698	68.667	-0.303	-0.311
-224.684	-200.000	-0.019	-0.146
-223.669	-200.000	-0.212	-0.001
-222.655	-113.864	0.329	0.064
-221.640	108.678	-0.095	-0.114
-220.625	-71.067	0.242	0.091
-219.611	-200.000	-0.005	-0.110
-218.596	271.020	-0.148	0.261
-217.582	583.040	-0.111	0.272
-216.567	2.559	0.045	-0.032
-215.552	15.289	0.143	-0.113
-214.538	-108.276	0.316	0.068
-213.523	14.598	0.200	0.156
-212.509	-29.366	-0.165	-0.095
-211.494	-175.820	-0.098	0.003
-210.479	236.962	0.107	-0.178
-209.465	-200.000	0.011	0.159
-208.450	-200.000	0.009	0.117
-207.436	-31.928	0.317	0.178
-206.421	-200.000	-0.034	-0.180
-205.406	-200.000	0.034	-0.447
-204.392	45.534	0.201	-0.186
-203.377	82.089	-0.105	-0.114
-202.363	-63.428	0.097	-0.040
-201.348	73.130	0.190	0.199
-200.333	-105.001	-0.240	-0.055
-199.319	-200.000	-0.022	-0.200
-198.304	-164.105	-0.358	0.017
-197.290	-90.602	0.318	-0.092
-196.275	-15.561	0.144	0.092
-195.260	47.882	0.138	0.129
-194.246	-200.000	-0.027	0.267
-193.231	-23.268	-0.148	-0.089
-192.217	-200.000	-0.005	0.145
-191.202	62.430	0.100	0.100
-190.187	37.906	-0.224	0.199
-189.173	514.305	0.061	-0.143
-188.158	1.211	0.155	0.112
-187.144	-134.712	-0.201	-0.024
-186.129	26.953	0.015	-0.013
-185.114	-78.152	0.394	-0.136
-184.100	158.153	-0.028	-0.039
-183.085	-48.987	0.479	0.229
-182.071	2.695	0.299	0.217
-181.056	95.942	-0.095	-0.109
-180.042	-200.000	0.024	-0.407
-179.027	-136.658	-0.193	0.022
-178.012	-12.625	-0.070	0.045
-176.998	178.340	0.156	0.228
-175.983	374.490	0.167	0.340
-174.969	-4.025	-0.239	0.166
-173.954	-15.533	0.173	0.110
-172.939	-83.448	-0.075	0.024
-171.925	6.100	-0.340	-0.252
-170.910	199.166	0.069	-0.106
-169.896	-120.164	-0.397	0.068
-168.881	-7.293	0.114	0.077
-167.866	-200.000	-0.013	0.083
-166.852	697.949	0.122	0.322
-165.837	-200.000	0.004	-0.096
-164.823	-110.486	0.088	0.018
-163.808	136.929	0.131	0.171
-162.793	-122.562	0.278	-0.045
-161.779	57.953	-0.062	-0.060
-160.764	800.000	-0.090	0.283
-159.750	157.041	0.134	0.185
-158.735	-142.745	0.213	0.021
-157.720	-70.307	-0.093	0.035
-156.706	-157.157	0.068	0.004
-155.691	-161.221	-0.244	-0.013
-154.677	-48.285	-0.112	-0.054
-153.662	-71.873	0.236	-0.088
-152.647	-149.627	-0.170	-0.013
-151.633	78.793	0.028	-0.029
-150.618	-165.888	-0.257	-0.011
-149.604	289.151	0.060	0.109
-148.589	149.507	-0.112	0.152
-147.574	-4.312	0.071	-0.049
-146.560	-174.154	-0.455	-0.013
-145.545	247.666	-0.101	-0.171
-144.531	-14.180	0.209	0.135
-143.516	800.000	-0.031	0.094
-142.502	-67.372	-0.329	0.129
-141.487	-147.326	-0.094	-0.008
-140.472	456.166	-0.022	-0.048
-139.458	523.731	0.049	0.115
-138.443	-157.235	-0.099	-0.006
-137.429	-200.000	0.010	-0.323
-136.414	-119.820	-0.091	-0.016
-135.399	129.801	0.191	0.245
-134.385	-58.977	0.188	0.081
-133.370	800.000	0.063	0.274
-132.356	-120.808	0.291	-0.049
-131.341	-114.193	0.393	0.076
-130.326	-44.161	0.109	0.055
-129.312	-179.672	-0.471	0.010
-128.297	-200.000	-0.046	0.302
-127.283	-143.727	0.230	-0.022
-126.268	33.418	-0.060	0.052
-125.253	-170.656	0.140	-0.005
-124.239	-67.293	-0.347	-0.136
-123.224	-200.000	-0.009	-0.137
-122.210	174.030	0.262	0.378
-121.195	-199.874	-0.340	-0.002
-120.180	90.186	-0.040	-0.045
-119.166	190.528	-0.282	0.423
-118.151	404.110	0.128	0.270
-117.137	-61.590	0.270	-0.113
-116.122	-74.555	-0.053	-0.019
-115.107	-31.190	-0.118	0.066
-114.093	620.929	-0.189	0.474
-113.078	-200.000	0.041	0.269
-112.064	67.073	-0.030	-0.031
-111.049	-107.309	0.156	-0.034
-110.034	348.875	-0.101	-0.199
-109.020	-200.000	-0.011	0.097
-108.005	428.716	0.078	-0.169
-106.991	-165.263	-0.086	0.004
-105.976	-88.252	-0.368	0.110
-104.962	-96.966	0.096	0.025
-103.947	89.450	0.170	-0.189
-102.932	532.823	-0.018	0.044
-101.918	-8.856	-0.288	-0.193
-100.903	49.464	0.324	0.304
-99.889	-31.102	-0.337	0.189
-98.874	13.941	-0.125	-0.097
-97.859	-114.562	-0.225	-0.043
-96.845	-55.429	-0.099	-0.044
-95.830	-121.972	0.090	-0.015
-94.816	-77.112	-0.224	0.078
-93.801	3.047	0.148	-0.107
-92.786	-68.612	-0.112	-0.043
-91.772	9.480	-0.194	-0.147
-90.757	407.288	-0.043	0.091
-89.743	122.146	-0.044	-0.055
-88.728	-76.494	-0.183	0.064
-87.713	-200.000	-0.020	-0.201
-86.699	11.523	-0.485	-0.371
-85.684	547.179	-0.030	0.072
-84.670	800.000	0.095	-0.307
-83.655	218.520	0.157	-0.250
-82.640	-100.641	-0.295	0.073
-81.626	302.191	-0.165	-0.304
-80.611	-97.123	-0.200	-0.052
-79.597	-157.540	0.308	0.018
-78.582	800.000	0.045	0.153
-77.567	403.730	-0.190	0.398
-76.553	-62.369	-0.358	0.148
-75.538	-104.298	0.371	-0.086
-74.524	-99.414	-0.179	-0.045
-73.509	52.759	-0.235	-0.224
-72.494	-200.000	0.009	0.355
-71.480	-53.163	-0.177	0.081
-70.465	122.674	-0.154	0.192
-69.451	-130.638	0.225	0.030
-68.436	-200.000	-0.023	-0.265
-67.422	119.510	0.213	0.262
-66.407	-63.375	-0.270	-0.111
-65.392	800.000	0.098	-0.397
-64.378	-9.508	-0.064	0.042
-63.363	423.998	-0.089	-0.191
-62.349	105.238	-0.137	0.161
-61.334	228.577	-0.540	-0.876
-60.319	351.414	0.147	0.290
-59.305	-200.000	-0.122	-0.694
-58.290	358.906	0.431	0.858
-57.276	416.807	0.698	1.484
-56.261	-200.000	86.433	498.902
-55.246	518.605	1396.588	3254.709
-54.232	181.014	2614.816	3824.239
-53.217	118.485	2234.276	2744.490
-52.203	48.738	1679.911	1568.056
-51.188	41.219	1410.033	1268.454
-50.173	37.980	1365.877	1208.655
-49.159	56.551	1408.461	1363.435
-48.144	61.261	1426.954	1410.869
-47.130	41.894	1384.609	1249.600
-46.115	38.028	1367.555	1210.247
-45.100	37.907	1362.655	1205.114
-44.086	37.753	1360.166	1201.916
-43.071	37.846	1357.484	1200.067
-42.057	37.671	1355.484	1197.180
-41.042	37.811	1354.066	1196.740
-40.027	37.925	1352.521	1196.026
-39.013	37.887	1350.266	1193.749
-37.998	37.844	1348.925	1192.257
-36.984	37.946	1346.713	1190.874
-35.969	38.005	1344.776	1189.474
-34.954	37.997	1343.201	1187.986
-33.940	37.973	1341.846	1186.591
-32.925	38.067	1340.128	1185.596
-31.911	38.023	1338.708	1184.028
-30.896	37.964	1337.459	1182.517
-29.881	38.046	1336.077	1181.749
-28.867	37.993	1334.641	1180.110
-27.852	37.988	1333.396	1178.934
-26.838	38.098	1331.618	1177.978
-25.823	38.083	1330.452	1176.805
-24.809	38.018	1328.928	1175.019
-23.794	38.039	1327.765	1174.074
-22.779	38.103	1326.168	1173.000
-21.765	38.034	1324.733	1171.267
-20.750	37.988	1323.177	1169.573
-19.736	37.930	1322.215	1168.324
-18.721	37.854	1321.081	1166.822
-17.706	37.951	1319.374	1165.846
-16.692	37.992	1318.142	1164.959
-15.677	37.833	1317.406	1163.313
-14.663	37.794	1316.553	1162.280
-13.648	37.803	1314.897	1160.827
-12.633	37.946	1313.587	1160.475
-11.619	37.860	1313.082	1159.473
-10.604	37.791	1312.394	1158.409
-9.590	37.845	1311.508	1157.903
-8.575	37.814	1310.639	1156.900
-7.560	37.816	1309.484	1155.847
-6.546	37.935	1308.032	1155.225
-5.531	37.845	1307.556	1154.227
-4.517	37.842	1306.400	1153.143
-3.502	37.817	1306.261	1152.829
-2.487	37.906	1304.835	1152.048
-1.473	37.954	1300.796	1148.719
-0.458	36.579	1284.793	1126.540
0.556	33.136	1264.261	1080.861
1.571	28.655	1266.755	1057.155
2.586	27.165	1280.536	1059.879
3.600	25.534	1269.237	1041.002
4.615	19.337	1192.958	944.513
5.629	9.619	1113.226	831.393
6.644	5.074	1090.915	791.634
7.659	4.808	1087.876	788.014
8.673	4.903	1086.618	787.513
9.688	4.876	1085.662	786.613
10.702	5.113	1084.250	786.719
11.717	10.403	1091.671	818.827
12.731	18.736	1103.579	870.087
13.746	21.189	1106.024	884.378
14.761	20.081	1103.572	876.734
15.775	18.860	1101.223	868.622
16.790	17.854	1099.085	861.785
17.804	17.202	1097.397	857.097
18.819	16.727	1096.725	854.101
19.834	16.527	1095.189	851.819
20.848	16.172	1095.009	849.820
21.863	16.040	1094.215	848.461
22.877	16.067	1092.944	847.534
23.892	15.922	1092.512	846.395
24.907	16.000	1091.464	845.902
25.921	16.085	1090.630	845.608
26.936	16.034	1089.377	844.306
27.950	16.057	1087.935	843.228
28.965	16.060	1086.193	841.819
29.980	16.183	1084.615	841.134
30.994	16.354	1083.577	841.106
32.009	16.385	1082.665	840.478
33.023	16.304	1081.734	839.279
34.038	16.191	1080.667	837.817
35.053	16.153	1079.987	837.025
36.067	16.068	1078.999	835.765
37.082	16.213	1078.423	835.962
38.096	16.207	1077.202	834.914
39.111	16.375	1076.194	834.887
40.126	16.188	1075.086	833.033
41.140	15.906	1074.236	830.909
42.155	15.878	1072.708	829.517
43.169	15.809	1071.450	828.130
44.184	15.843	1070.470	827.464
45.199	15.818	1069.357	826.407
46.213	15.846	1068.492	825.807
47.228	16.067	1067.313	825.905
48.242	16.078	1066.225	825.040
49.257	16.017	1065.213	823.890
50.271	16.120	1064.176	823.516
51.286	16.138	1063.677	823.147
52.301	16.135	1062.270	821.968
53.315	16.018	1061.281	820.561
54.330	15.932	1060.253	819.274
55.344	15.952	1059.273	818.545
56.359	15.987	1058.472	818.020
57.374	15.813	1057.932	816.689
58.388	15.820	1056.825	815.796
59.403	15.714	1056.507	814.963
60.417	15.926	1054.923	814.694
61.432	15.853	1054.181	813.695
62.447	15.757	1053.698	812.789
63.461	15.673	1053.263	811.977
64.476	15.693	1051.756	810.837
65.490	15.796	1050.800	810.524
66.505	15.767	1050.850	810.354
67.520	15.936	1049.685	810.194
68.534	15.755	1049.262	808.929
69.549	15.871	1047.848	808.320
70.563	15.638	1047.152	806.598
71.578	15.684	1046.393	806.159
72.593	15.630	1045.760	805.344
73.607	15.590	1044.899	804.415
74.622	15.534	1044.389	803.686
75.636	15.592	1043.681	803.348
76.651	15.617	1042.990	802.864
77.666	15.628	1042.218	802.252
78.680	15.769	1041.471	802.277
79.695	15.717	1040.951	801.556
80.709	15.729	1040.435	801.144
81.724	15.808	1039.660	800.856
82.739	15.946	1038.992	800.925
83.753	16.057	1038.198	800.771
84.768	16.153	1037.180	800.371
85.782	16.347	1036.335	800.567
86.797	16.315	1035.165	799.441
87.812	16.089	1034.435	797.736
88.826	16.181	1033.419	797.316
89.841	16.136	1032.633	796.426
90.855	16.267	1031.875	796.392
91.870	16.250	1031.392	795.865
92.884	16.308	1030.280	795.212
93.899	16.262	1029.200	794.092
94.914	16.398	1028.072	793.791
95.928	16.352	1027.692	793.209
96.943	16.284	1026.515	791.914
97.957	16.174	1026.231	791.106
98.972	16.197	1025.134	790.302
99.987	16.202	1024.243	789.564
101.001	16.330	1022.853	789.025
102.016	16.216	1022.238	787.945
103.030	16.284	1021.258	787.440
104.045	16.255	1020.832	786.906
105.060	16.126	1019.624	785.306
106.074	15.922	1018.735	783.601
107.089	15.810	1017.497	782.058
108.103	15.827	1016.576	781.358
109.118	15.867	1015.243	780.450
110.133	15.751	1014.667	779.403
111.147	15.710	1014.320	778.875
112.162	15.786	1013.622	778.624
113.176	15.968	1012.228	778.325
114.191	16.051	1011.766	778.284
115.206	16.010	1010.796	777.281
116.220	15.894	1010.072	776.118
117.235	15.917	1008.995	775.332
118.249	16.047	1007.843	774.975
119.264	15.975	1007.064	773.976
120.279	15.937	1006.453	773.264
121.293	15.896	1005.656	772.393
122.308	15.780	1004.624	771.000
123.322	15.800	1003.579	770.223
124.337	15.685	1002.880	769.091
125.352	15.810	1001.559	768.582
126.366	15.697	1001.240	767.752
127.381	15.759	999.991	767.010
128.395	15.739	998.600	765.783
129.410	15.823	997.681	765.393
130.424	15.889	996.762	764.922
131.439	16.119	995.915	765.248
132.454	15.978	995.794	764.448
133.468	15.939	995.200	763.746
134.483	16.022	993.997	763.132
135.497	15.974	992.937	762.032
136.512	16.106	992.194	761.991
137.527	16.013	991.609	761.056
138.541	16.076	990.738	760.605
139.556	16.225	989.670	760.390
140.570	16.233	989.145	759.955
141.585	16.365	988.304	759.835
142.600	16.429	987.607	759.517
143.614	16.303	986.899	758.340
144.629	16.404	985.991	758.031
145.643	16.396	984.829	757.033
146.658	16.176	983.935	755.296
147.673	16.125	982.948	754.242
148.687	16.095	982.322	753.560
149.702	16.064	981.306	752.575
150.716	16.038	980.796	752.003
151.731	16.064	980.019	751.454
152.746	16.120	979.084	750.920
153.760	16.163	978.743	750.784
154.775	16.367	977.675	750.807
155.789	16.247	977.175	749.821
156.804	16.292	976.551	749.478
157.819	16.189	976.259	748.729
158.833	16.405	975.110	748.738
159.848	16.395	974.629	748.262
160.862	16.433	973.278	747.326
161.877	16.219	972.036	745.359
162.892	16.042	971.478	744.086
163.906	16.165	970.392	743.729
164.921	16.140	969.374	742.774
165.935	16.196	968.601	742.364
166.950	16.361	967.468	742.151
167.964	16.237	967.088	741.252
168.979	16.204	966.235	740.386
169.994	16.204	965.145	739.488
171.008	16.407	964.198	739.582
172.023	16.442	963.408	739.065
173.037	16.510	963.035	739.012
174.052	16.408	962.536	738.116
175.067	16.260	961.324	736.476
176.081	16.209	960.902	735.866
177.096	16.182	960.378	735.283
178.110	16.292	959.691	735.169
179.125	16.306	959.057	734.678
180.140	16.264	958.573	734.061
181.154	16.516	957.876	734.556
182.169	16.473	957.576	734.076
183.183	16.690	956.505	734.133
184.198	16.669	955.906	733.515
185.213	16.526	955.546	732.556
186.227	16.684	954.618	732.461
187.242	16.618	954.170	731.770
188.256	16.663	953.480	731.368
189.271	16.711	952.460	730.730
190.286	16.430	951.651	728.833
191.300	16.167	950.819	726.997
192.315	16.263	950.079	726.782
193.329	16.235	949.918	726.474
194.344	16.226	949.402	725.973
195.359	16.377	948.587	725.935
196.373	16.573	947.780	726.097
197.388	16.535	948.085	726.104
198.402	16.753	947.316	726.382
199.417	16.724	946.604	725.648
200.432	16.965	945.624	725.866
201.446	16.912	945.164	725.222
202.461	17.026	944.807	725.370
203.475	17.004	944.055	724.633
204.490	16.801	943.239	723.079
205.504	16.696	942.300	721.848
206.519	16.664	941.728	721.210
207.534	16.728	940.609	720.560
208.548	16.801	940.245	720.527
209.563	16.651	939.915	719.573
210.577	16.868	938.557	719.393
211.592	17.009	937.901	719.425
212.607	17.040	937.514	719.194
213.621	16.900	937.011	718.152
214.636	16.918	936.059	717.436
215.650	16.912	935.435	716.865
216.665	17.006	934.675	716.618
217.680	17.014	933.976	716.055
218.694	17.038	933.308	715.577
219.709	16.995	932.836	714.974
220.723	16.953	931.821	713.954
221.738	17.106	931.066	713.955
222.753	16.956	930.242	712.632
223.767	17.059	929.946	712.773
224.782	17.226	929.356	712.958
225.796	17.120	928.847	712.060
226.811	17.129	928.182	711.524
227.826	17.049	927.353	710.491
228.840	17.152	926.436	710.160
229.855	17.089	925.620	709.206
230.869	17.076	924.997	708.610
231.884	16.982	923.937	707.347
232.899	16.946	923.333	706.672
233.913	17.016	922.617	706.351
234.928	16.751	922.167	704.840
235.942	16.917	921.749	705.149
236.957	16.963	920.808	704.559
237.972	16.910	920.565	704.092
238.986	17.124	919.626	704.199
240.001	17.007	918.779	703.003
241.015	17.000	918.563	702.744
242.030	17.114	917.745	702.528
243.045	17.218	917.297	702.554
244.059	17.091	916.570	701.408
245.074	17.174	916.111	701.339
246.088	17.252	915.630	701.232
247.103	17.191	914.972	700.414
248.117	17.348	914.801	700.866
249.132	17.417	914.140	700.584
250.147	17.637	913.453	700.902
251.161	17.642	912.767	700.332
252.176	17.688	912.546	700.289
253.190	17.683	911.314	699.263
254.205	17.634	910.974	698.737
255.220	17.767	910.075	698.531
256.234	17.860	909.216	698.190
257.249	17.825	908.731	697.612
258.263	17.623	908.265	696.368
259.278	17.693	907.243	695.809
260.293	17.621	907.116	695.358
261.307	17.819	906.438	695.583
262.322	17.870	905.624	695.106
263.336	18.018	904.921	695.104
264.351	17.902	904.278	694.080
265.366	18.001	903.551	693.860
266.380	17.940	902.784	692.962
267.395	17.831	902.205	692.015
268.409	17.790	901.667	691.376
269.424	17.890	900.480	690.810
270.439	17.791	899.717	689.763
271.453	17.815	899.079	689.310
272.468	17.818	898.750	689.009
273.482	17.767	898.144	688.277
274.497	17.862	897.254	687.918
275.512	17.841	896.718	687.361
276.526	17.766	896.110	686.529
277.541	17.847	896.185	686.854
278.555	17.948	895.427	686.618
279.570	18.120	894.553	686.579
280.585	18.110	893.805	685.904
281.599	17.933	893.289	684.736
282.614	17.962	892.321	684.051
283.628	17.883	891.811	683.282
284.643	17.924	891.298	682.994
285.657	17.890	890.901	682.494
286.672	18.118	889.861	682.543
287.687	18.105	889.131	681.873
288.701	18.169	888.276	681.411
289.716	17.998	888.191	680.604
290.730	18.072	887.564	680.360
291.745	18.252	886.680	680.339
292.760	18.030	886.295	679.098
293.774	18.262	885.640	679.460
294.789	18.172	884.910	678.482
295.803	18.085	884.373	677.664
296.818	18.086	883.476	676.922
297.833	18.178	882.868	676.762
298.847	18.325	882.069	676.667
299.862	18.290	881.349	675.918
300.876	18.256	881.016	675.469
301.891	18.386	880.294	675.368
302.906	18.326	880.105	674.926
303.920	18.487	879.588	675.103
304.935	18.511	878.980	674.672
305.949	18.398	878.586	673.867
306.964	18.466	877.565	673.291
307.979	18.341	877.170	672.438
308.993	18.428	876.208	671.983
310.008	18.494	875.788	671.859
311.022	18.429	875.415	671.259
312.037	18.378	875.064	670.731
313.052	18.222	874.198	669.398
314.066	18.260	873.259	668.767
315.081	18.339	872.720	668.603
316.095	18.309	872.083	667.938
317.110	18.251	871.458	667.177
318.125	18.211	871.396	666.914
319.139	18.263	870.971	666.730
320.154	18.375	870.104	666.443
321.168	18.277	869.906	665.853
322.183	18.339	868.921	665.281
323.197	18.469	868.553	665.444
324.212	18.428	868.054	664.846
325.227	18.383	867.003	663.808
326.241	18.425	866.761	663.726
327.256	18.339	866.577	663.191
328.270	18.392	865.803	662.747
329.285	18.375	865.240	662.192
330.300	18.449	864.159	661.592
331.314	18.491	863.726	661.364
332.329	18.678	863.513	661.862
333.343	18.647	863.202	661.446
334.358	18.467	862.804	660.390
335.373	18.644	862.524	660.796
336.387	18.475	862.325	659.938
337.402	18.693	862.074	660.524
338.416	18.858	861.571	660.715
339.431	18.970	860.547	660.301
340.446	18.850	860.589	659.813
341.460	18.973	860.169	659.906
342.475	18.933	859.716	659.347
343.489	18.906	859.436	658.971
344.504	18.980	858.658	658.599
345.519	19.077	858.272	658.615
346.533	19.002	857.793	657.905
347.548	18.964	856.828	656.960
348.562	18.993	856.379	656.668
349.577	18.771	855.969	655.448
350.592	18.683	855.251	654.506
351.606	18.830	854.357	654.323
352.621	18.751	854.035	653.717
353.635	18.779	853.222	653.144
354.650	18.935	852.380	653.035
355.665	19.017	851.897	652.917
356.679	18.971	851.166	652.127
357.694	18.929	850.586	651.463
358.708	19.110	850.040	651.674
359.723	18.890	849.525	650.388
360.738	19.047	848.769	650.346
361.752	19.100	848.267	650.104
362.767	19.153	847.638	649.763
363.781	19.226	847.214	649.658
364.796	19.333	846.752	649.650
365.810	19.410	846.559	649.731
366.825	19.393	846.185	649.326
367.840	19.323	845.776	648.688
368.854	19.331	845.159	648.190
369.869	19.256	844.585	647.409
370.883	19.375	844.301	647.582
371.898	19.394	843.736	647.164
372.913	19.372	843.643	646.950
373.927	19.370	842.820	646.254
374.942	19.410	842.312	645.959
375.956	19.412	842.083	645.732
376.971	19.591	841.113	645.603
377.986	19.678	840.751	645.592
379.000	19.570	840.591	645.007
380.015	19.425	840.253	644.149
381.029	19.711	839.257	644.395
382.044	19.652	838.716	643.705
383.059	19.723	838.327	643.615
384.073	19.599	837.575	642.519
385.088	19.507	836.868	641.578
386.102	19.554	836.205	641.187
387.117	19.450	835.773	640.411
388.132	19.448	835.183	639.895
389.146	19.456	834.960	639.696
390.161	19.469	834.758	639.535
391.175	19.664	833.683	639.377
392.190	19.634	833.097	638.758
393.205	19.531	832.699	638.015
394.219	19.603	832.512	638.085
395.234	19.452	831.564	636.743
396.248	19.546	831.398	636.905
397.263	19.484	830.763	636.134
398.278	19.409	830.582	635.664
399.292	19.540	830.165	635.769
400.307	19.463	829.759	635.119
401.321	19.500	829.059	634.664
402.336	19.545	828.435	634.295
403.350	19.584	827.803	633.898
404.365	19.681	827.992	634.343
405.380	19.723	827.416	633.999
406.394	19.902	826.771	634.107
407.409	19.901	826.925	634.163
408.423	19.898	826.363	633.667
409.438	19.942	825.849	633.377
410.453	20.002	825.672	633.403
411.467	20.104	824.692	632.968
412.482	20.153	824.399	632.868
413.496	20.152	823.907	632.430
414.511	20.067	823.748	631.942
415.526	20.075	823.409	631.654
416.540	20.118	822.504	631.061
417.555	20.096	822.133	630.642
418.569	20.180	821.855	630.677
419.584	20.275	821.254	630.506
420.599	20.101	820.835	629.497
421.613	152.760	1367.990	1776.959
422.628	133.061	1447.739	1777.085
