DTS Sentinel unit serial number:	SN413079Multiplexer serial number:	ORYXHardware model number:	OX4-SRSoftware version number:	ORYX F/W v4.00 Oryx Data Collector v3.7.2.0data status	okinstallation	princeton_trtdifferential loss correction	single-endedforward channel	channel 1reverse channel	N/Adate	2019/09/16time	06:58:35forward acquisition time	60.00reverse acquisition time	0.00gamma	496.2192k internal	0.2331k external	0.2331temperature offset calibration	0.9985default loss term (dB/km)	0.3790temperature slope calibration	1.0000multiplexer offset coefficient	1.0000multiplexer slope coefficient	1.0000fibre end	0.00T internal ref (°C)	27.36T ext. ref 1 (°C)	11.48T ext. ref 2 (°C)	21.76length (m)	temperature (°C)	Stokes	anti-Stokes-747.200	-68.870	-0.215	-0.084
-746.185	-200.000	0.019	0.194
-745.171	-32.458	0.115	-0.064
-744.156	429.915	-0.027	-0.059
-743.142	800.000	0.060	0.226
-742.127	-158.510	-0.384	0.022
-741.112	-200.000	0.040	0.262
-740.098	-53.726	-0.168	0.077
-739.083	236.216	0.083	-0.137
-738.069	-15.516	-0.354	0.227
-737.054	-200.000	-0.081	0.379
-736.039	-113.449	-0.193	-0.038
-735.025	800.000	-0.034	0.132
-734.010	800.000	0.096	-0.296
-732.996	800.000	-0.140	-0.500
-731.981	11.750	-0.119	-0.092
-730.966	-125.695	0.106	-0.016
-729.952	-120.628	-0.146	0.025
-728.937	-17.168	-0.199	-0.126
-727.923	-200.000	0.026	0.185
-726.908	800.000	-0.028	0.123
-725.894	108.522	-0.164	-0.197
-724.879	-3.907	0.226	-0.158
-723.864	682.152	0.053	-0.139
-722.850	-200.000	0.007	-0.312
-721.835	-132.518	-0.229	0.030
-720.821	-200.000	-0.031	0.288
-719.806	800.000	0.089	0.293
-718.791	158.067	-0.070	-0.097
-717.777	-95.245	-0.035	0.010
-716.762	262.475	-0.053	-0.092
-715.748	20.642	-0.190	-0.154
-714.733	-39.375	-0.206	-0.109
-713.718	-124.908	-0.202	0.031
-712.704	74.687	-0.067	-0.071
-711.689	-16.786	-0.270	0.172
-710.675	68.137	-0.218	0.224
-709.660	-200.000	-0.013	-0.128
-708.645	-200.000	0.031	-0.276
-707.631	-12.926	-0.277	-0.181
-706.616	112.675	0.054	-0.065
-705.602	-200.000	0.004	-0.094
-704.587	-200.000	-0.070	-0.410
-703.572	-126.179	0.129	0.019
-702.558	149.880	-0.080	0.109
-701.543	317.340	-0.105	-0.199
-700.529	7.826	0.150	-0.113
-699.514	179.932	0.060	0.088
-698.499	-161.231	0.338	-0.018
-697.485	-162.727	0.143	0.007
-696.470	-84.068	-0.215	0.069
-695.456	-119.297	0.080	0.014
-694.441	89.227	0.127	0.142
-693.426	-200.000	-0.021	0.101
-692.412	-19.956	0.146	0.091
-691.397	-200.000	-0.011	-0.133
-690.383	1.221	0.201	-0.145
-689.368	-200.000	0.015	0.096
-688.354	-117.451	0.218	-0.040
-687.339	-126.511	-0.113	-0.017
-686.324	11.536	-0.162	-0.125
-685.310	-173.116	-0.099	-0.003
-684.295	-64.875	-0.350	-0.142
-683.281	-18.248	-0.150	-0.094
-682.266	430.018	-0.054	-0.117
-681.251	-200.000	-0.020	-0.231
-680.237	624.200	-0.053	0.134
-679.222	2.613	-0.238	0.173
-678.208	-200.000	0.012	-0.141
-677.193	-200.000	-0.013	-0.378
-676.178	20.242	-0.392	-0.317
-675.164	104.173	0.008	0.010
-674.149	-134.806	-0.180	-0.022
-673.135	-186.080	-0.158	-0.002
-672.120	16.468	0.093	-0.074
-671.105	800.000	-0.053	0.201
-670.091	-169.946	0.222	-0.008
-669.076	-109.619	-0.434	0.092
-668.062	-41.083	-0.077	-0.040
-667.047	-200.000	-0.035	-0.227
-666.032	-63.203	0.324	0.134
-665.018	221.721	0.036	-0.058
-664.003	-200.000	-0.057	0.319
-662.989	-144.391	-0.074	-0.007
-661.974	8.611	0.243	0.183
-660.959	-200.000	0.002	-0.059
-659.945	-48.677	-0.087	-0.042
-658.930	-106.266	0.333	-0.075
-657.916	-200.000	-0.013	-0.074
-656.901	110.486	0.150	-0.181
-655.886	396.586	0.136	0.285
-654.872	-49.904	0.365	-0.174
-653.857	49.464	0.221	-0.208
-652.843	-80.535	-0.299	-0.100
-651.828	-61.356	-0.174	0.073
-650.814	34.419	-0.208	0.182
-649.799	-200.000	-0.041	0.240
-648.784	-88.155	0.041	0.012
-647.770	-16.978	0.102	-0.065
-646.755	20.609	0.205	0.166
-645.741	118.639	-0.229	-0.284
-644.726	56.848	-0.158	-0.154
-643.711	-51.917	0.030	0.014
-642.697	-8.442	0.195	0.132
-641.682	-161.519	-0.283	0.015
-640.668	-69.590	0.113	0.043
-639.653	-26.366	-0.218	0.128
-638.638	-131.053	0.152	-0.020
-637.624	223.898	0.191	-0.309
-636.609	-158.590	0.212	0.012
-635.595	345.388	-0.174	-0.342
-634.580	800.000	-0.092	-0.275
-633.565	105.198	-0.253	-0.299
-632.551	-117.319	0.281	-0.051
-631.536	-200.000	0.008	0.175
-630.522	81.013	0.185	-0.200
-629.507	-163.706	-0.133	0.006
-628.492	58.145	-0.202	-0.198
-627.478	-6.658	-0.087	-0.059
-626.463	-157.468	-0.072	0.004
-625.449	140.057	-0.124	0.164
-624.434	-200.000	-0.032	-0.153
-623.419	427.208	0.134	0.290
-622.405	157.653	-0.203	-0.281
-621.390	-64.088	-0.157	0.064
-620.376	800.000	-0.029	-0.104
-619.361	18.697	0.080	-0.064
-618.346	1.543	-0.207	-0.149
-617.332	-173.657	-0.165	0.005
-616.317	-0.925	0.132	0.093
-615.303	109.872	-0.253	-0.304
-614.288	-200.000	-0.062	-0.393
-613.273	800.000	-0.060	0.206
-612.259	-147.438	0.248	-0.021
-611.244	-108.279	0.182	0.039
-610.230	170.806	0.156	0.224
-609.215	43.743	-0.117	-0.107
-608.201	97.596	-0.111	0.128
-607.186	7.149	0.233	-0.174
-606.171	-98.157	-0.382	0.098
-605.157	-62.442	-0.267	-0.111
-604.142	-200.000	-0.073	0.408
-603.128	-132.079	0.231	-0.030
-602.113	-85.935	-0.231	-0.072
-601.098	-200.000	0.016	0.350
-600.084	440.155	-0.035	0.077
-599.069	11.465	0.143	0.109
-598.055	800.000	0.052	0.227
-597.040	179.492	-0.141	0.207
-596.025	-131.750	0.248	0.033
-595.011	800.000	-0.045	-0.139
-593.996	523.075	-0.130	0.305
-592.982	-200.000	-0.050	0.260
-591.967	92.798	0.127	0.144
-590.952	107.584	-0.201	0.240
-589.938	-22.916	-0.272	0.164
-588.923	-144.705	0.457	0.042
-587.909	58.176	-0.120	-0.118
-586.894	39.370	-0.280	-0.251
-585.879	800.000	-0.029	-0.081
-584.865	14.038	0.210	-0.163
-583.850	-9.963	0.116	-0.077
-582.836	-45.880	-0.167	-0.082
-581.821	800.000	-0.041	0.125
-580.806	-34.899	-0.153	0.084
-579.792	-129.681	-0.077	-0.011
-578.777	98.895	-0.238	0.275
-577.763	-123.500	-0.460	0.073
-576.748	133.641	0.259	0.336
-575.733	79.404	-0.060	-0.064
-574.719	-200.000	0.032	-0.202
-573.704	800.000	-0.106	0.449
-572.690	-151.719	-0.163	-0.012
-571.675	186.907	-0.083	-0.123
-570.661	-129.698	0.083	-0.011
-569.646	-181.796	-0.199	-0.004
-568.631	111.022	-0.220	-0.264
-567.617	272.338	0.056	-0.099
-566.602	156.811	-0.114	0.157
-565.588	50.598	-0.158	-0.150
-564.573	-200.000	0.044	-0.512
-563.558	188.870	-0.059	0.088
-562.544	-200.000	0.012	0.122
-561.529	-109.974	0.054	-0.011
-560.515	-200.000	-0.049	0.314
-559.500	-99.779	-0.159	0.040
-558.485	-200.000	-0.040	0.221
-557.471	-166.668	-0.034	0.001
-556.456	-200.000	0.006	-0.080
-555.442	224.161	-0.008	0.012
-554.427	-164.372	0.100	-0.005
-553.412	800.000	-0.088	0.366
-552.398	-18.389	-0.323	0.202
-551.383	478.927	-0.077	-0.173
-550.369	158.860	-0.184	-0.255
-549.354	-50.052	0.220	-0.104
-548.339	663.553	0.141	0.364
-547.325	-200.000	-0.017	-0.280
-546.310	153.913	0.196	-0.268
-545.296	-47.787	0.155	0.075
-544.281	-33.919	-0.199	0.110
-543.266	-106.466	-0.185	-0.041
-542.252	-33.829	0.258	0.142
-541.237	38.974	0.127	0.113
-540.223	-200.000	-0.012	-0.147
-539.208	105.404	0.167	-0.197
-538.193	112.108	0.094	0.114
-537.179	-200.000	-0.054	-0.375
-536.164	-200.000	-0.002	-0.050
-535.150	149.107	-0.053	-0.072
-534.135	128.644	-0.185	-0.235
-533.121	195.063	0.171	0.259
-532.106	255.068	-0.199	-0.340
-531.091	231.739	0.072	0.118
-530.077	11.553	-0.140	-0.107
-529.062	9.727	-0.203	-0.154
-528.048	-200.000	0.019	-0.132
-527.033	-98.856	-0.099	0.025
-526.018	134.460	0.164	0.212
-525.004	800.000	-0.019	-0.071
-523.989	316.169	-0.021	-0.040
-522.975	196.983	0.054	0.082
-521.960	-57.850	0.250	0.109
-520.945	-200.000	-0.004	0.098
-519.931	624.012	0.090	0.227
-518.916	-38.576	-0.104	0.055
-517.902	-181.421	0.305	0.006
-516.887	-50.235	0.282	-0.133
-515.872	-83.972	0.187	-0.059
-514.858	144.368	-0.129	-0.171
-513.843	-25.478	0.139	-0.082
-512.829	-116.153	-0.335	0.062
-511.814	-200.000	0.038	-0.283
-510.799	-200.000	-0.008	0.266
-509.785	-130.172	-0.381	-0.052
-508.770	38.035	0.092	-0.081
-507.756	732.707	0.125	0.334
-506.741	-45.274	-0.195	0.096
-505.726	-200.000	0.019	0.331
-504.712	408.390	0.035	-0.074
-503.697	204.352	-0.100	-0.155
-502.683	151.619	-0.158	0.215
-501.668	-62.741	-0.200	-0.083
-500.653	-200.000	0.002	-0.143
-499.639	268.435	0.116	0.203
-498.624	8.110	-0.156	0.117
-497.610	-78.849	0.167	0.057
-496.595	-83.948	0.013	-0.004
-495.581	-200.000	0.000	0.004
-494.566	-200.000	-0.054	-0.304
-493.551	149.604	0.130	-0.176
-492.537	-97.135	0.252	0.066
-491.522	-68.161	-0.296	-0.115
-490.508	-12.959	-0.220	0.143
-489.493	-145.539	0.078	-0.007
-488.478	-10.999	0.186	-0.122
-487.464	-45.987	0.092	-0.045
-486.449	29.766	-0.226	-0.192
-485.435	-33.793	0.295	0.162
-484.420	-167.061	0.052	0.002
-483.405	-157.833	0.354	-0.021
-482.391	-170.601	-0.235	-0.008
-481.376	42.486	-0.191	0.173
-480.362	-200.000	0.016	-0.171
-479.347	-200.000	0.060	-0.287
-478.332	-187.148	-0.302	-0.004
-477.318	70.259	-0.093	-0.096
-476.303	-200.000	-0.022	0.314
-475.289	-200.000	-0.064	0.331
-474.274	-78.449	0.364	0.124
-473.259	-55.625	0.214	-0.096
-472.245	-51.683	-0.144	-0.067
-471.230	246.278	0.115	-0.193
-470.216	-20.113	0.267	0.164
-469.201	99.419	-0.216	-0.249
-468.186	14.165	0.366	-0.284
-467.172	-42.966	-0.095	0.048
-466.157	-0.504	0.291	-0.205
-465.143	288.484	0.051	0.093
-464.128	-200.000	0.036	0.260
-463.113	-43.050	0.238	0.120
-462.099	35.561	-0.210	0.184
-461.084	87.051	-0.216	0.238
-460.070	255.786	0.086	-0.146
-459.055	-95.501	0.364	0.097
-458.040	327.633	-0.057	0.109
-457.026	-170.214	-0.151	-0.005
-456.011	-200.000	-0.035	0.157
-454.997	800.000	0.059	0.245
-453.982	30.695	0.284	0.242
-452.968	338.702	0.013	0.024
-451.953	32.414	0.244	-0.209
-450.938	18.400	-0.091	0.072
-449.924	800.000	0.064	0.179
-448.909	-104.432	-0.283	0.065
-447.895	253.492	0.143	0.243
-446.880	-109.048	-0.258	0.055
-445.865	406.005	-0.081	-0.171
-444.851	-138.444	-0.133	-0.015
-443.836	-164.862	0.412	-0.018
-442.822	-167.269	-0.365	-0.015
-441.807	742.009	0.018	0.047
-440.792	-94.527	0.279	-0.076
-439.778	-86.400	-0.114	-0.035
-438.763	800.000	0.010	-0.031
-437.749	-130.619	-0.056	0.007
-436.734	-200.000	0.006	0.142
-435.719	-36.124	0.287	-0.154
-434.705	152.520	-0.087	-0.118
-433.690	157.073	0.217	0.299
-432.676	423.887	0.034	-0.072
-431.661	44.216	-0.117	0.107
-430.646	-200.000	-0.012	-0.079
-429.632	-0.946	-0.349	0.246
-428.617	50.455	-0.336	-0.316
-427.603	-136.419	0.198	0.023
-426.588	16.965	0.179	-0.141
-425.573	-200.000	-0.120	0.000
-424.559	101.274	0.197	0.228
-423.544	-200.000	-0.023	-0.111
-422.530	-172.147	-0.110	-0.004
-421.515	-43.288	0.249	0.125
-420.500	1.898	0.104	-0.074
-419.486	-83.715	-0.084	0.027
-418.471	24.332	0.320	0.263
-417.457	-115.927	-0.123	-0.023
-416.442	-70.689	0.140	-0.053
-415.428	-44.448	-0.274	-0.136
-414.413	311.432	-0.071	0.132
-413.398	46.795	-0.095	-0.087
-412.384	14.825	0.295	-0.229
-411.369	-116.141	-0.135	0.025
-410.355	181.162	-0.059	0.086
-409.340	-200.000	0.055	0.286
-408.325	-200.000	0.022	0.356
-407.311	-166.472	0.359	0.015
-406.296	-94.941	-0.238	-0.064
-405.282	719.935	-0.130	-0.343
-404.267	154.219	0.134	-0.183
-403.252	800.000	-0.072	-0.257
-402.238	85.002	0.092	0.100
-401.223	334.447	0.166	0.319
-400.209	9.151	-0.338	-0.254
-399.194	-36.636	-0.228	-0.122
-398.179	-52.784	-0.255	-0.117
-397.165	-62.723	0.428	0.176
-396.150	18.272	-0.170	0.135
-395.136	-200.000	-0.020	-0.136
-394.121	203.816	-0.079	-0.122
-393.106	-200.000	-0.055	-0.311
-392.092	-10.931	-0.079	0.052
-391.077	-200.000	0.018	0.166
-390.063	-200.000	-0.026	0.511
-389.048	-158.214	0.067	0.004
-388.033	36.835	0.077	-0.067
-387.019	78.730	-0.121	-0.128
-386.004	100.768	0.271	-0.312
-384.990	800.000	0.012	-0.038
-383.975	-26.819	0.279	0.162
-382.960	126.781	0.102	-0.128
-381.946	-200.000	-0.009	-0.094
-380.931	46.107	0.194	0.178
-379.917	660.451	0.018	-0.046
-378.902	-82.915	-0.134	0.043
-377.888	-97.333	0.235	0.061
-376.873	-200.000	-0.011	-0.140
-375.858	-200.000	0.014	0.357
-374.844	-148.517	0.200	0.016
-373.829	-45.687	-0.230	0.113
-372.815	132.722	0.131	-0.167
-371.800	483.433	0.047	-0.105
-370.785	-162.670	0.161	-0.008
-369.771	-200.000	0.055	-0.283
-368.756	14.948	-0.112	0.087
-367.742	474.132	-0.081	0.182
-366.727	550.678	-0.182	-0.434
-365.712	-122.374	0.301	-0.049
-364.698	-4.087	0.144	0.099
-363.683	270.269	-0.145	-0.253
-362.669	483.136	-0.052	-0.118
-361.654	365.726	-0.021	0.042
-360.639	-114.476	0.252	-0.048
-359.625	524.242	0.136	-0.318
-358.610	255.837	0.108	-0.184
-357.596	-82.029	-0.225	-0.073
-356.581	89.387	0.081	-0.089
-355.566	537.915	-0.069	-0.163
-354.552	-62.966	-0.027	-0.011
-353.537	-200.000	0.001	0.223
-352.523	-1.600	0.203	-0.142
-351.508	-66.598	0.223	-0.088
-350.493	-43.833	0.041	0.021
-349.479	-132.039	-0.236	-0.030
-348.464	59.503	0.186	0.182
-347.450	52.208	-0.150	-0.142
-346.435	16.573	-0.123	0.096
-345.420	800.000	-0.045	-0.143
-344.406	24.233	-0.101	-0.083
-343.391	148.046	0.213	-0.285
-342.377	-27.915	-0.068	0.039
-341.362	-96.834	-0.157	0.041
-340.348	349.799	0.025	0.050
-339.333	-200.000	-0.043	-0.233
-338.318	-117.261	-0.202	0.036
-337.304	800.000	0.055	-0.200
-336.289	-48.078	-0.182	-0.087
-335.275	800.000	-0.097	0.372
-334.260	-3.503	-0.210	-0.144
-333.245	800.000	-0.063	-0.210
-332.231	800.000	0.069	0.234
-331.216	69.890	0.233	-0.238
-330.202	800.000	-0.080	-0.264
-329.187	800.000	0.097	-0.277
-328.172	800.000	-0.040	-0.148
-327.158	171.871	0.179	-0.255
-326.143	-149.421	0.209	-0.016
-325.129	-200.000	-0.055	0.288
-324.114	-153.167	0.121	0.008
-323.099	-5.209	-0.075	0.051
-322.085	800.000	0.009	0.028
-321.070	492.085	0.119	-0.269
-320.056	133.885	0.076	0.097
-319.041	-142.049	0.309	-0.030
-318.026	-61.271	-0.174	-0.072
-317.012	0.748	0.161	-0.114
-315.997	-117.925	0.071	-0.013
-314.983	37.522	-0.048	0.042
-313.968	-3.646	-0.168	0.116
-312.953	-31.481	-0.172	0.096
-311.939	-21.844	-0.068	-0.041
-310.924	-116.122	0.570	-0.105
-309.910	179.610	-0.362	-0.524
-308.895	-200.000	0.022	0.142
-307.880	6.927	0.172	-0.126
-306.866	-137.006	-0.133	0.015
-305.851	-103.681	0.045	0.010
-304.837	24.022	0.221	-0.180
-303.822	131.676	-0.121	-0.153
-302.807	211.441	-0.110	-0.172
-301.793	61.638	-0.108	0.106
-300.778	376.791	0.163	0.330
-299.764	285.214	0.056	-0.100
-298.749	-45.934	-0.144	0.070
-297.735	800.000	-0.072	0.214
-296.720	119.804	0.139	-0.171
-295.705	-80.068	0.273	-0.091
-294.691	216.643	0.132	0.207
-293.676	800.000	0.026	0.075
-292.662	-200.000	-0.002	-0.079
-291.647	-38.611	-0.169	-0.088
-290.632	-33.772	0.164	0.089
-289.618	222.239	0.132	0.210
-288.603	-200.000	-0.024	-0.273
-287.589	90.146	-0.066	-0.073
-286.574	194.408	0.074	0.111
-285.559	262.837	0.224	0.384
-284.545	800.000	-0.079	0.290
-283.530	-82.706	-0.198	-0.063
-282.516	553.316	0.050	0.119
-281.501	-200.000	-0.044	0.195
-280.486	-84.579	-0.172	-0.054
-279.472	224.656	0.118	-0.189
-278.457	-67.787	-0.137	0.053
-277.443	-115.370	0.196	-0.036
-276.428	-119.919	0.159	-0.027
-275.413	94.065	0.123	-0.138
-274.399	-200.000	0.026	-0.160
-273.384	-200.000	0.067	-0.309
-272.370	-91.114	-0.266	0.075
-271.355	175.647	-0.185	0.265
-270.340	-92.163	0.304	0.085
-269.326	-29.648	0.247	-0.139
-268.311	80.901	-0.080	0.085
-267.297	-31.351	0.096	0.053
-266.282	800.000	0.112	0.384
-265.267	41.481	0.201	-0.180
-264.253	310.119	-0.099	0.183
-263.238	38.433	0.067	-0.059
-262.224	122.232	-0.216	-0.267
-261.209	-200.000	-0.036	0.405
-260.195	-200.000	0.034	0.296
-259.180	-200.000	0.024	-0.172
-258.165	318.207	0.164	-0.306
-257.151	142.373	0.086	0.113
-256.136	640.236	-0.125	0.313
-255.122	2.541	0.139	-0.099
-254.107	238.410	-0.173	-0.283
-253.092	560.769	-0.099	0.235
-252.078	800.000	-0.114	0.387
-251.063	-47.758	-0.174	-0.083
-250.049	-160.461	0.095	-0.005
-249.034	96.645	-0.100	0.113
-248.019	-200.000	0.009	0.041
-247.005	153.635	0.044	0.059
-245.990	133.136	0.112	0.143
-244.976	-200.000	0.023	0.269
-243.961	-176.709	0.278	0.007
-242.946	-73.863	-0.215	-0.077
-241.932	-61.726	0.264	0.109
-240.917	-63.328	-0.279	0.113
-239.903	315.411	0.179	-0.333
-238.888	47.273	0.220	0.202
-237.873	-200.000	0.070	-0.356
-236.859	-59.356	0.151	0.064
-235.844	229.380	0.092	0.148
-234.830	86.521	-0.181	-0.197
-233.815	139.260	0.078	0.102
-232.800	450.618	0.040	0.087
-231.786	-6.508	0.298	0.200
-230.771	288.523	-0.054	-0.096
-229.757	192.992	0.237	-0.354
-228.742	3.707	-0.104	-0.075
-227.727	164.480	0.107	-0.148
-226.713	79.857	-0.131	0.139
-225.698	-200.000	-0.009	-0.179
-224.684	510.684	0.066	0.152
-223.669	104.495	-0.072	0.084
-222.655	79.025	0.073	-0.077
-221.640	217.265	-0.052	0.081
-220.625	-107.578	0.511	-0.110
-219.611	-56.826	0.067	-0.029
-218.596	570.476	-0.088	0.211
-217.582	29.141	0.231	0.193
-216.567	-200.000	0.017	-0.195
-215.552	200.993	0.145	0.220
-214.538	476.707	0.055	-0.122
-213.523	89.015	0.140	-0.153
-212.509	366.101	-0.104	0.207
-211.494	800.000	0.082	-0.237
-210.479	-4.833	-0.196	-0.133
-209.465	-77.889	-0.145	0.049
-208.450	-6.545	-0.217	0.146
-207.436	-191.615	-0.118	-0.001
-206.421	-71.690	-0.513	0.188
-205.406	59.692	0.155	0.151
-204.392	113.467	-0.211	-0.253
-203.377	-124.737	0.407	-0.062
-202.363	-164.330	-0.265	-0.012
-201.348	-11.180	-0.442	0.287
-200.333	-80.128	0.175	0.058
-199.319	-29.207	-0.159	0.090
-198.304	-200.000	0.005	0.110
-197.290	152.167	-0.306	-0.411
-196.275	233.275	0.036	-0.058
-195.260	-6.735	0.111	-0.075
-194.246	-200.000	0.047	-0.288
-193.231	-12.574	-0.047	0.030
-192.217	189.581	-0.068	0.100
-191.202	-96.800	-0.225	-0.058
-190.187	-129.719	-0.139	0.019
-189.173	800.000	-0.115	0.365
-188.158	338.820	0.086	0.164
-187.144	658.182	-0.052	0.131
-186.129	204.466	0.034	-0.052
-185.114	4.195	-0.131	0.094
-184.100	89.194	0.259	0.284
-183.085	-48.817	0.091	0.043
-182.071	-27.600	-0.309	0.177
-181.056	-200.000	0.023	0.378
-180.042	-180.749	0.219	-0.004
-179.027	-76.942	0.180	0.062
-178.012	-54.008	0.299	-0.134
-176.998	82.010	-0.045	-0.048
-175.983	-109.891	-0.392	-0.081
-174.969	-42.692	-0.367	0.184
-173.954	-74.380	0.193	-0.069
-172.939	26.790	0.111	-0.092
-171.925	-124.480	0.219	-0.034
-170.910	-170.586	-0.444	0.015
-169.896	800.000	0.020	-0.061
-168.881	-19.147	0.255	0.156
-167.866	-200.000	-0.009	0.405
-166.852	-200.000	0.019	0.179
-165.837	800.000	-0.088	-0.362
-164.823	-200.000	0.022	-0.214
-163.808	-82.081	-0.367	0.118
-162.793	3.451	-0.148	-0.106
-161.779	70.432	-0.191	0.194
-160.764	-135.600	-0.484	-0.057
-159.750	-112.577	0.279	-0.055
-158.735	235.205	0.015	-0.024
-157.720	-8.753	-0.117	-0.077
-156.706	-24.445	0.131	-0.077
-155.691	800.000	0.043	0.169
-154.677	-137.373	-0.279	-0.031
-153.662	-139.359	0.279	-0.029
-152.647	-200.000	0.021	-0.203
-151.633	-12.625	0.207	-0.133
-150.618	126.326	0.165	0.206
-149.604	-74.857	0.330	0.116
-148.589	-171.815	0.202	-0.007
-147.574	98.534	-0.190	0.215
-146.560	-47.943	0.146	-0.069
-145.545	-122.674	-0.189	0.030
-144.531	463.761	-0.076	-0.168
-143.516	-48.785	-0.421	-0.199
-142.502	-135.944	-0.150	0.017
-141.487	-181.109	0.156	-0.003
-140.472	800.000	0.057	0.230
-139.458	-200.000	-0.025	0.162
-138.443	572.380	0.105	-0.253
-137.429	16.696	0.122	-0.095
-136.414	-200.000	-0.009	-0.082
-135.399	199.148	-0.137	0.207
-134.385	-200.000	0.022	-0.101
-133.370	-119.876	-0.399	0.067
-132.356	-28.757	0.189	0.107
-131.341	67.660	0.077	0.078
-130.326	-10.934	-0.114	-0.074
-129.312	2.969	0.143	0.102
-128.297	31.681	0.221	0.187
-127.283	-163.787	0.191	0.009
-126.268	-200.000	0.025	-0.151
-125.253	-23.785	0.390	0.229
-124.239	-41.132	0.181	0.092
-123.224	57.593	-0.090	0.087
-122.210	-118.003	0.195	0.034
-121.195	-200.000	0.029	0.211
-120.180	62.648	-0.184	0.181
-119.166	-200.000	-0.053	0.269
-118.151	126.204	0.277	0.344
-117.137	800.000	0.010	-0.031
-116.122	800.000	0.036	0.111
-115.107	259.851	-0.052	0.089
-114.093	-80.738	-0.116	-0.038
-113.078	-134.879	0.179	-0.021
-112.064	-147.928	-0.060	-0.005
-111.049	-135.746	0.138	0.016
-110.034	147.632	-0.137	0.182
-109.020	-200.000	0.045	0.379
-108.005	-195.142	0.144	0.001
-106.991	-200.000	0.032	-0.225
-105.976	-200.000	0.021	-0.165
-104.962	207.282	-0.131	0.201
-103.947	22.678	0.090	-0.072
-102.932	17.133	0.085	-0.066
-101.918	-108.960	-0.267	0.056
-100.903	216.343	-0.101	0.157
-99.889	234.429	0.140	0.226
-98.874	-107.166	-0.194	-0.042
-97.859	-79.673	-0.106	-0.035
-96.845	-48.005	0.179	0.085
-95.830	129.893	-0.188	0.236
-94.816	-200.000	0.005	-0.119
-93.801	407.084	0.065	0.134
-92.786	530.040	-0.017	-0.040
-91.772	-200.000	-0.016	0.490
-90.757	-193.779	-0.257	0.002
-89.743	265.007	-0.111	-0.189
-88.728	-200.000	0.008	0.356
-87.713	-7.772	0.259	0.172
-86.699	23.995	0.335	0.271
-85.684	-107.711	0.407	0.087
-84.670	-183.837	-0.274	-0.005
-83.655	-21.597	-0.260	0.156
-82.640	38.181	-0.258	-0.225
-81.626	-62.407	0.317	-0.129
-80.611	-23.659	0.117	0.069
-79.597	-200.000	0.013	0.159
-78.582	-123.468	0.214	-0.033
-77.567	438.254	-0.097	-0.207
-76.553	-149.155	-0.269	0.021
-75.538	800.000	0.134	0.368
-74.524	-104.867	-0.248	-0.056
-73.509	-37.040	0.228	0.120
-72.494	51.789	-0.289	-0.270
-71.480	211.258	0.141	0.217
-70.465	-90.372	0.146	-0.042
-69.451	-90.613	0.233	0.066
-68.436	237.355	0.058	0.093
-67.422	157.605	0.190	-0.258
-66.407	-140.657	-0.251	0.025
-65.392	-77.244	0.137	0.047
-64.378	-129.096	-0.113	-0.016
-63.363	-2.198	0.113	0.078
-62.349	191.972	0.175	0.259
-61.334	192.897	-0.853	-1.263
-60.319	171.326	0.627	0.882
-59.305	196.760	-0.555	-0.828
-58.290	269.601	0.501	0.862
-57.276	182.872	1.091	1.578
-56.261	-200.000	113.946	643.537
-55.246	463.252	1511.492	3307.205
-54.232	146.292	2679.807	3523.685
-53.217	103.375	2159.244	2480.935
-52.203	38.784	1603.916	1402.696
-51.188	30.563	1349.550	1130.452
-50.173	27.681	1311.930	1081.829
-49.159	55.390	1367.306	1295.734
-48.144	53.929	1381.586	1300.411
-47.130	30.944	1336.981	1122.042
-46.115	27.448	1319.780	1086.737
-45.100	27.251	1314.561	1081.227
-44.086	27.235	1311.854	1078.863
-43.071	27.186	1309.873	1076.905
-42.057	27.218	1307.793	1075.338
-41.042	27.220	1306.135	1073.944
-40.027	27.230	1304.630	1072.725
-39.013	27.188	1302.726	1070.866
-37.998	27.314	1300.508	1069.742
-36.984	27.240	1299.307	1068.276
-35.969	27.355	1297.180	1067.160
-34.954	27.464	1295.197	1066.125
-33.940	27.436	1294.073	1064.993
-32.925	27.432	1292.964	1064.018
-31.911	27.426	1291.387	1062.638
-30.896	27.458	1289.676	1061.376
-29.881	27.503	1288.270	1060.440
-28.867	27.479	1286.957	1059.175
-27.852	27.549	1285.320	1058.194
-26.838	27.375	1284.614	1056.562
-25.823	27.389	1282.739	1055.062
-24.809	27.433	1281.421	1054.189
-23.794	27.279	1280.829	1052.767
-22.779	27.497	1278.941	1052.432
-21.765	27.479	1277.555	1051.150
-20.750	27.388	1276.741	1049.911
-19.736	27.435	1275.182	1048.860
-18.721	27.327	1274.460	1047.599
-17.706	27.295	1273.128	1046.279
-16.692	27.324	1271.620	1045.169
-15.677	27.184	1271.600	1044.302
-14.663	27.368	1269.162	1043.317
-13.648	27.333	1268.373	1042.428
-12.633	27.320	1267.513	1041.603
-11.619	27.239	1266.726	1040.449
-10.604	27.308	1265.649	1039.917
-9.590	27.288	1264.765	1039.038
-8.575	27.335	1263.738	1038.419
-7.560	27.309	1262.672	1037.355
-6.546	27.356	1261.756	1036.831
-5.531	27.348	1260.937	1036.069
-4.517	27.352	1260.467	1035.668
-3.502	27.291	1259.799	1034.726
-2.487	27.290	1258.001	1033.205
-1.473	27.229	1254.318	1029.791
-0.458	25.729	1239.628	1009.288
0.556	21.063	1222.533	972.438
1.571	17.504	1229.346	957.785
2.586	16.844	1244.095	965.433
3.600	17.009	1233.062	957.716
4.615	15.623	1167.507	899.307
5.629	12.997	1100.977	834.718
6.644	11.626	1084.604	815.396
7.659	11.469	1082.424	812.903
8.673	11.389	1081.321	811.607
9.688	11.456	1079.496	810.494
10.702	11.622	1077.528	809.767
11.717	13.181	1078.810	818.388
12.731	15.958	1082.207	834.672
13.746	17.741	1083.551	844.471
14.761	17.613	1083.993	844.106
15.775	16.611	1081.994	837.520
16.790	15.649	1079.847	831.028
17.804	14.945	1077.524	825.693
18.819	14.457	1076.939	822.762
19.834	14.126	1076.074	820.401
20.848	13.950	1075.078	818.697
21.863	13.672	1074.201	816.591
22.877	13.633	1073.242	815.599
23.892	13.439	1072.954	814.350
24.907	13.519	1071.939	813.904
25.921	13.594	1071.008	813.492
26.936	13.586	1069.776	812.443
27.950	13.613	1068.140	811.264
28.965	13.715	1066.776	810.654
29.980	13.792	1065.259	809.806
30.994	13.896	1063.881	809.194
32.009	13.874	1062.893	808.262
33.023	13.879	1061.786	807.375
34.038	13.732	1060.995	805.988
35.053	13.688	1060.367	805.222
36.067	13.756	1058.847	804.331
37.082	13.697	1058.578	803.766
38.096	13.734	1057.788	803.277
39.111	13.831	1056.644	802.803
40.126	13.737	1055.503	801.414
41.140	13.668	1054.307	800.102
42.155	13.421	1053.575	798.284
43.169	13.551	1052.529	798.044
44.184	13.540	1051.265	796.964
45.199	13.488	1050.040	795.714
46.213	13.626	1049.035	795.545
47.228	13.617	1048.166	794.771
48.242	13.610	1047.203	793.939
49.257	13.618	1046.297	793.221
50.271	13.636	1045.498	792.628
51.286	13.798	1043.694	791.965
52.301	13.609	1043.463	790.820
53.315	13.663	1042.134	789.999
54.330	13.642	1040.774	788.798
55.344	13.633	1040.132	788.201
56.359	13.741	1039.042	787.817
57.374	13.656	1038.053	786.595
58.388	13.660	1037.282	785.959
59.403	13.421	1037.076	784.598
60.417	13.393	1035.961	783.556
61.432	13.501	1034.973	783.250
62.447	13.458	1034.094	782.311
63.461	13.335	1033.485	781.201
64.476	13.403	1032.499	780.709
65.490	13.394	1031.752	780.030
66.505	13.425	1030.987	779.526
67.520	13.575	1030.079	779.477
68.534	13.447	1029.670	778.499
69.549	13.457	1028.582	777.652
70.563	13.468	1028.121	777.289
71.578	13.328	1027.602	776.172
72.593	13.336	1026.780	775.517
73.607	13.436	1026.177	775.463
74.622	13.503	1025.243	775.000
75.636	13.424	1024.689	774.145
76.651	13.298	1024.059	773.012
77.666	13.319	1023.786	772.837
78.680	13.366	1022.667	772.140
79.695	13.506	1022.032	772.248
80.709	13.572	1021.035	771.734
81.724	13.449	1020.678	770.823
82.739	13.611	1019.911	770.928
83.753	13.564	1019.432	770.281
84.768	13.750	1018.171	770.123
85.782	13.738	1017.653	769.605
86.797	13.719	1016.294	768.424
87.812	13.702	1015.536	767.702
88.826	13.634	1014.372	766.440
89.841	13.765	1013.562	766.363
90.855	13.870	1012.242	765.786
91.870	13.714	1011.921	764.757
92.884	13.769	1011.084	764.306
93.899	13.793	1010.475	763.889
94.914	13.827	1009.485	763.229
95.928	13.906	1008.753	762.973
96.943	13.726	1008.080	761.571
97.957	13.884	1006.748	761.221
98.972	13.813	1005.858	760.153
99.987	13.761	1005.265	759.403
101.001	13.703	1004.402	758.416
102.016	13.830	1003.085	757.936
103.030	13.757	1002.697	757.241
104.045	13.812	1001.763	756.721
105.060	13.729	1001.229	755.871
106.074	13.559	999.928	754.047
107.089	13.567	999.091	753.387
108.103	13.717	997.886	753.094
109.118	13.580	997.061	751.781
110.133	13.594	995.792	750.822
111.147	13.629	994.990	750.308
112.162	13.560	994.521	749.580
113.176	13.641	993.302	748.960
114.191	13.692	993.072	748.948
115.206	13.691	992.164	748.193
116.220	13.606	991.089	746.932
117.235	13.741	989.905	746.582
118.249	13.753	988.993	745.882
119.264	13.593	988.563	744.773
120.279	13.690	987.579	744.404
121.293	13.630	986.644	743.363
122.308	13.635	985.494	742.451
123.322	13.522	984.952	741.473
124.337	13.499	983.600	740.289
125.352	13.587	982.646	739.894
126.366	13.570	981.642	738.997
127.381	13.519	980.737	738.025
128.395	13.594	979.739	737.543
129.410	13.633	978.826	736.961
130.424	13.736	977.920	736.675
131.439	13.647	977.529	735.917
132.454	13.713	976.676	735.502
133.468	13.856	975.313	735.044
134.483	13.780	974.786	734.249
135.497	13.780	973.888	733.504
136.512	13.738	973.275	732.795
137.527	13.926	972.223	732.764
138.541	13.811	971.563	731.696
139.556	13.817	970.895	731.157
140.570	13.796	970.699	730.852
141.585	14.032	969.349	730.808
142.600	13.963	968.745	729.985
143.614	13.954	967.941	729.275
144.629	13.969	967.016	728.578
145.643	14.025	965.610	727.702
146.658	13.934	965.167	726.903
147.673	13.891	964.116	725.860
148.687	13.808	963.037	724.621
149.702	13.716	962.650	723.863
150.716	13.761	962.088	723.572
151.731	13.824	960.667	722.714
152.746	13.849	960.000	722.259
153.760	13.884	959.522	721.986
154.775	13.995	959.000	722.012
155.789	13.978	958.343	721.379
156.804	13.973	957.765	720.861
157.819	13.967	956.886	720.111
158.833	14.016	956.257	719.784
159.848	14.111	955.093	719.253
160.862	14.061	954.366	718.430
161.877	13.895	953.243	716.804
162.892	13.955	952.135	716.162
163.906	13.898	951.253	715.191
164.921	13.988	950.851	715.214
165.935	13.924	949.794	714.082
166.950	13.979	948.690	713.423
167.964	14.000	947.754	712.748
168.979	13.906	947.158	711.833
169.994	14.028	946.403	711.725
171.008	14.037	945.320	710.885
172.023	14.063	944.864	710.591
173.037	14.193	944.026	710.453
174.052	14.090	943.260	709.374
175.067	14.101	942.565	708.837
176.081	14.116	941.858	708.306
177.096	14.085	941.350	707.729
178.110	14.015	941.211	707.262
179.125	13.979	940.722	706.680
180.140	14.133	939.900	706.655
181.154	14.114	939.138	705.940
182.169	14.143	938.906	705.826
183.183	14.135	938.272	705.251
184.198	14.240	937.419	704.993
185.213	14.214	936.891	704.424
186.227	14.274	936.138	704.048
187.242	14.264	935.596	703.537
188.256	14.445	934.486	703.403
189.271	14.385	934.069	702.772
190.286	14.100	933.547	701.117
191.300	14.099	932.443	700.222
192.315	14.074	931.917	699.660
193.329	14.135	931.323	699.408
194.344	14.096	930.784	698.777
195.359	14.231	929.943	698.652
196.373	14.335	929.540	698.725
197.388	14.305	929.418	698.443
198.402	14.522	928.392	698.521
199.417	14.530	927.992	698.192
200.432	14.669	927.262	698.160
201.446	14.595	927.163	697.714
202.461	14.639	926.569	697.392
203.475	14.614	925.765	696.620
204.490	14.571	924.927	695.747
205.504	14.618	924.181	695.322
206.519	14.478	923.750	694.352
207.534	14.556	922.742	693.857
208.548	14.519	922.004	693.086
209.563	14.454	921.836	692.631
210.577	14.597	920.537	692.184
211.592	14.699	919.889	692.060
212.607	14.775	919.167	691.768
213.621	14.735	918.420	690.980
214.636	14.655	918.073	690.331
215.650	14.774	917.112	690.035
216.665	14.767	916.213	689.270
217.680	14.819	915.917	689.202
218.694	14.654	915.281	687.981
219.709	14.651	915.012	687.705
220.723	14.807	913.697	687.299
221.738	14.647	913.212	686.217
222.753	14.953	912.142	686.607
223.767	14.921	911.989	686.299
224.782	14.863	911.678	685.769
225.796	14.903	911.247	685.544
226.811	14.886	910.184	684.615
227.826	14.734	909.698	683.566
228.840	14.954	908.571	683.558
229.855	14.902	907.605	682.562
230.869	14.945	906.919	682.160
231.884	14.762	906.753	681.228
232.899	14.760	905.594	680.290
233.913	14.963	904.889	680.526
234.928	14.722	904.659	679.313
235.942	14.663	904.128	678.613
236.957	14.810	903.708	678.834
237.972	14.715	902.824	677.723
238.986	14.929	902.025	677.932
240.001	14.968	901.495	677.632
241.015	14.882	901.046	676.887
242.030	15.019	900.255	676.788
243.045	14.877	899.825	675.830
244.059	15.023	899.148	675.850
245.074	14.959	898.482	675.031
246.088	15.252	897.427	675.359
247.103	15.028	897.067	674.126
248.117	15.169	896.853	674.475
249.132	15.268	896.128	674.267
250.147	15.395	895.516	674.258
251.161	15.310	894.996	673.466
252.176	15.364	893.944	672.831
253.190	15.239	893.568	671.986
254.205	15.473	892.623	672.153
255.220	15.427	892.200	671.593
256.234	15.370	891.655	670.896
257.249	15.385	890.917	670.340
258.263	15.471	890.167	670.061
259.278	15.471	889.274	669.329
260.293	15.524	888.833	669.148
261.307	15.539	888.003	668.525
262.322	15.572	887.911	668.527
263.336	15.585	887.146	667.945
264.351	15.730	886.315	667.834
265.366	15.766	885.418	667.242
266.380	15.611	885.280	666.464
267.395	15.704	884.288	666.029
268.409	15.667	883.336	665.104
269.424	15.533	882.684	664.024
270.439	15.522	882.066	663.460
271.453	15.574	881.388	663.096
272.468	15.637	880.779	662.826
273.482	15.605	880.287	662.273
274.497	15.540	879.866	661.640
275.512	15.684	879.183	661.634
276.526	15.702	878.663	661.258
277.541	15.633	878.400	660.728
278.555	15.733	877.640	660.493
279.570	15.812	877.109	660.342
280.585	15.792	876.081	659.431
281.599	15.890	874.806	658.797
282.614	15.801	874.403	658.088
283.628	15.825	874.008	657.827
284.643	15.777	873.551	657.237
285.657	15.676	873.088	656.436
286.672	15.773	872.393	656.232
287.687	15.768	871.648	655.597
288.701	15.809	871.438	655.538
289.716	15.792	870.865	654.985
290.730	15.922	869.901	654.707
291.745	16.085	869.042	654.633
292.760	16.001	868.879	654.129
293.774	15.991	868.211	653.529
294.789	15.983	867.554	652.946
295.803	15.885	866.867	651.989
296.818	15.959	865.898	651.489
297.833	15.963	865.263	650.971
298.847	15.977	864.706	650.547
299.862	16.015	864.217	650.269
300.876	16.015	863.973	650.028
301.891	16.069	863.249	649.633
302.906	16.081	862.928	649.380
303.920	16.199	862.261	649.274
304.935	16.293	861.595	649.079
305.949	16.230	861.075	648.389
306.964	16.125	860.459	647.461
307.979	16.150	859.582	646.841
308.993	16.225	859.606	647.090
310.008	16.310	858.464	646.499
311.022	16.089	858.318	645.484
312.037	16.312	857.527	645.684
313.052	16.204	857.224	644.988
314.066	16.204	856.242	644.193
315.081	16.136	855.845	643.577
316.095	16.061	855.470	642.953
317.110	16.256	854.527	642.929
318.125	16.063	854.510	642.125
319.139	16.124	853.720	641.704
320.154	16.148	853.385	641.489
321.168	16.295	852.868	641.601
322.183	16.286	852.360	641.129
323.197	16.279	851.856	640.667
324.212	16.209	851.473	640.055
325.227	16.339	850.462	639.730
326.241	16.255	850.093	639.080
327.256	16.259	849.247	638.401
328.270	16.220	848.815	637.874
329.285	16.309	847.834	637.415
330.300	16.222	847.517	636.792
331.314	16.398	846.808	636.868
332.329	16.377	846.555	636.540
333.343	16.418	846.349	636.486
334.358	16.549	845.837	636.538
335.373	16.542	845.236	636.001
336.387	16.589	844.816	635.804
337.402	16.606	844.555	635.617
338.416	16.621	844.471	635.553
339.431	16.678	843.814	635.216
340.446	16.699	843.347	634.887
341.460	16.584	843.555	634.557
342.475	16.703	842.341	634.032
343.489	16.716	842.357	634.039
344.504	16.874	841.634	634.028
345.519	16.793	841.235	633.371
346.533	16.830	840.616	632.985
347.548	16.811	840.330	632.642
348.562	16.828	838.973	631.629
349.577	16.682	839.007	631.056
350.592	16.624	838.293	630.244
351.606	16.690	837.818	630.079
352.621	16.739	837.145	629.699
353.635	16.737	836.514	629.160
354.650	16.776	835.756	628.678
355.665	16.724	835.215	628.025
356.679	16.869	834.629	628.065
357.694	16.898	833.704	627.423
358.708	16.823	833.180	626.692
359.723	16.788	832.803	626.226
360.738	16.946	831.915	626.086
361.752	16.969	831.524	625.820
362.767	17.002	831.241	625.676
363.781	16.963	830.824	625.161
364.796	17.047	830.335	625.046
365.810	17.193	829.649	625.015
366.825	17.305	829.178	625.013
367.840	17.170	828.915	624.266
368.854	17.095	828.221	623.410
369.869	17.121	828.179	623.422
370.883	17.065	827.679	622.783
371.898	17.216	827.326	623.016
372.913	17.370	826.467	622.877
373.927	17.376	826.373	622.773
374.942	17.152	826.172	621.748
375.956	17.252	825.237	621.355
376.971	17.419	824.624	621.447
377.986	17.452	824.044	621.076
379.000	17.349	823.770	620.441
380.015	17.447	823.392	620.459
381.029	17.328	822.706	619.451
382.044	17.436	822.191	619.402
383.059	17.391	821.850	618.926
384.073	17.457	821.015	618.484
385.088	17.389	820.367	617.693
386.102	17.529	819.810	617.726
387.117	17.316	819.629	616.766
388.132	17.196	819.166	615.926
389.146	17.372	818.535	616.033
390.161	17.452	818.380	616.153
391.175	17.432	817.416	615.300
392.190	17.388	817.262	614.970
393.205	17.446	816.451	614.516
394.219	17.353	816.128	613.881
395.234	17.422	815.500	613.602
396.248	17.342	815.287	613.101
397.263	17.258	814.953	612.495
398.278	17.319	814.668	612.445
399.292	17.424	813.979	612.251
400.307	17.406	813.499	611.770
401.321	17.490	812.894	611.562
402.336	17.500	812.481	611.233
403.350	17.449	812.020	610.651
404.365	17.482	811.851	610.589
405.380	17.514	811.582	610.445
406.394	17.764	810.564	610.522
407.409	17.772	810.011	610.078
408.423	17.697	810.210	609.907
409.438	17.876	809.610	610.040
410.453	17.797	809.192	609.389
411.467	17.791	808.870	609.072
412.482	17.759	808.286	608.465
413.496	17.897	807.922	608.630
414.511	17.927	807.570	608.416
415.526	17.967	806.899	608.000
416.540	17.934	806.578	607.585
417.555	17.865	806.253	607.041
418.569	17.892	805.807	606.749
419.584	18.122	805.016	606.917
420.599	18.145	804.526	606.575
421.613	111.540	1294.663	1475.965
422.628	96.215	1366.046	1476.056
