DTS Sentinel unit serial number:	SN413079Multiplexer serial number:	ORYXHardware model number:	OX4-SRSoftware version number:	ORYX F/W v4.00 Oryx Data Collector v3.7.2.0data status	okinstallation	princeton_trtdifferential loss correction	single-endedforward channel	channel 1reverse channel	N/Adate	2019/09/19time	14:46:35forward acquisition time	60.00reverse acquisition time	0.00gamma	496.2192k internal	0.2318k external	0.2318temperature offset calibration	1.0019default loss term (dB/km)	0.3790temperature slope calibration	1.0000multiplexer offset coefficient	1.0000multiplexer slope coefficient	1.0000fibre end	0.00T internal ref (°C)	32.69T ext. ref 1 (°C)	1.10T ext. ref 2 (°C)	29.66length (m)	temperature (°C)	Stokes	anti-Stokes-747.200	-101.769	0.538	0.132
-746.185	-48.768	-0.176	0.086
-745.171	228.214	-0.012	-0.021
-744.156	-191.381	0.070	-0.001
-743.142	-35.533	0.160	-0.088
-742.127	-53.926	0.122	0.056
-741.112	-44.367	-0.220	-0.112
-740.098	-177.841	0.160	0.004
-739.083	-120.594	0.116	0.020
-738.069	-74.272	-0.369	0.135
-737.054	-6.183	-0.243	-0.168
-736.039	-72.706	-0.068	0.025
-735.025	-200.000	-0.006	-0.234
-734.010	527.558	-0.057	0.135
-732.996	-90.868	0.254	-0.074
-731.981	800.000	-0.004	0.015
-730.966	518.100	-0.215	-0.509
-729.952	220.329	0.143	-0.231
-728.937	247.492	0.064	0.109
-727.923	10.753	-0.171	0.132
-726.908	-140.008	0.329	0.035
-725.894	-200.000	0.012	-0.248
-724.879	-38.465	0.031	-0.017
-723.864	-200.000	0.065	0.346
-722.850	-139.664	-0.049	0.005
-721.835	-25.300	-0.240	-0.144
-720.821	-200.000	0.032	-0.445
-719.806	-24.470	-0.190	-0.114
-718.791	-200.000	0.001	0.028
-717.777	593.023	-0.047	-0.118
-716.762	-42.705	-0.389	0.200
-715.748	86.228	-0.128	0.143
-714.733	-200.000	0.054	-0.254
-713.718	-130.330	0.173	0.024
-712.704	800.000	-0.111	-0.313
-711.689	106.479	-0.244	-0.292
-710.675	28.216	0.151	-0.129
-709.660	-62.412	-0.107	-0.045
-708.645	738.870	-0.054	0.147
-707.631	-200.000	0.007	0.148
-706.616	-164.605	-0.114	0.005
-705.602	-42.652	-0.353	0.181
-704.587	-200.000	-0.010	-0.306
-703.572	480.239	-0.148	0.338
-702.558	791.479	0.093	0.259
-701.543	677.972	-0.005	-0.014
-700.529	32.349	0.055	-0.048
-699.514	44.864	0.078	0.073
-698.499	-200.000	-0.021	0.105
-697.485	-200.000	0.054	0.245
-696.470	95.924	-0.166	-0.192
-695.456	-129.887	0.130	0.018
-694.441	218.967	0.095	0.153
-693.426	321.718	0.135	0.260
-692.412	800.000	0.092	0.281
-691.397	-24.995	-0.450	0.270
-690.383	-20.069	-0.319	0.199
-689.368	339.807	-0.053	0.103
-688.354	800.000	0.045	0.154
-687.339	-160.320	0.406	-0.022
-686.324	800.000	-0.048	0.137
-685.310	106.935	-0.311	0.373
-684.295	112.440	0.140	0.170
-683.281	65.347	-0.091	0.093
-682.266	358.108	0.104	-0.210
-681.251	-21.566	0.234	-0.144
-680.237	23.713	0.129	-0.107
-679.222	11.022	0.297	-0.229
-678.208	-138.100	0.152	-0.017
-677.193	-10.842	0.158	0.105
-676.178	170.542	-0.173	0.250
-675.164	800.000	0.102	0.302
-674.149	271.084	-0.082	-0.145
-673.135	-47.608	-0.086	0.042
-672.120	-200.000	-0.011	-0.336
-671.105	-200.000	-0.013	-0.246
-670.091	-165.212	-0.254	0.011
-669.076	-200.000	0.023	-0.304
-668.062	109.787	-0.072	-0.088
-667.047	76.633	-0.222	0.238
-666.032	-200.000	0.033	0.339
-665.018	-142.444	0.152	-0.015
-664.003	171.396	-0.073	-0.105
-662.989	184.278	0.031	-0.047
-661.974	-158.525	0.156	0.009
-660.959	-200.000	0.025	0.206
-659.945	-43.419	0.119	0.060
-658.930	-75.105	0.215	-0.078
-657.916	237.334	0.092	-0.154
-656.901	-200.000	0.032	-0.232
-655.886	31.676	0.174	-0.151
-654.872	168.984	0.114	-0.164
-653.857	-200.000	0.001	-0.130
-652.843	-153.817	-0.146	-0.010
-651.828	304.852	0.079	0.147
-650.814	-128.671	-0.219	-0.031
-649.799	800.000	-0.098	-0.393
-648.784	209.893	0.110	0.174
-647.770	385.422	-0.157	-0.326
-646.755	-52.107	-0.321	-0.150
-645.741	-200.000	-0.021	0.232
-644.726	800.000	0.092	0.288
-643.711	176.117	0.138	0.202
-642.697	12.071	0.081	0.063
-641.682	-94.171	-0.024	0.007
-640.668	-18.042	-0.148	-0.094
-639.653	-200.000	-0.047	-0.215
-638.638	-110.696	0.120	-0.025
-637.624	-200.000	0.024	0.299
-636.609	-200.000	-0.001	0.243
-635.595	800.000	-0.079	0.241
-634.580	399.816	-0.041	-0.086
-633.565	332.793	0.127	0.248
-632.551	-200.000	-0.020	-0.117
-631.536	17.010	-0.254	-0.203
-630.522	375.835	0.039	-0.081
-629.507	800.000	0.021	-0.087
-628.492	117.057	-0.083	0.102
-627.478	708.023	0.072	-0.193
-626.463	-200.000	-0.001	-0.318
-625.449	3.847	-0.128	-0.095
-624.434	-49.390	-0.322	-0.155
-623.419	62.864	0.173	0.175
-622.405	443.005	0.113	-0.249
-621.390	11.196	0.051	0.039
-620.376	-1.760	0.173	0.123
-619.361	159.331	0.030	-0.042
-618.346	-95.257	-0.184	-0.050
-617.332	800.000	0.049	-0.182
-616.317	349.780	0.061	-0.121
-615.303	40.207	-0.124	0.113
-614.288	135.144	-0.194	0.254
-613.273	-200.000	0.006	0.100
-612.259	-142.420	0.280	0.028
-611.244	-51.414	0.297	-0.140
-610.230	800.000	0.039	-0.159
-609.215	-15.985	0.079	-0.050
-608.201	69.581	-0.084	-0.087
-607.186	-200.000	0.004	-0.164
-606.171	-200.000	-0.003	-0.182
-605.157	3.815	0.285	-0.210
-604.142	-60.476	-0.077	-0.033
-603.128	130.970	-0.253	-0.326
-602.113	-99.266	0.094	0.024
-601.098	-66.920	-0.170	-0.068
-600.084	800.000	0.099	0.418
-599.069	-200.000	-0.016	0.172
-598.055	22.514	0.381	-0.313
-597.040	-11.717	0.152	0.100
-596.025	-94.082	-0.305	0.084
-595.011	800.000	-0.055	-0.178
-593.996	9.147	0.258	-0.196
-592.982	800.000	-0.044	-0.172
-591.967	8.248	-0.260	-0.197
-590.952	-88.419	0.362	0.109
-589.938	800.000	0.048	-0.182
-588.923	-121.665	0.058	-0.010
-587.909	800.000	-0.042	-0.134
-586.894	-44.403	-0.108	0.054
-585.879	616.632	0.060	0.152
-584.865	-74.864	-0.216	-0.078
-583.850	-64.335	0.389	-0.159
-582.836	800.000	-0.083	0.256
-581.821	-200.000	-0.005	-0.026
-580.806	20.107	0.192	0.156
-579.792	-138.139	0.197	-0.022
-578.777	-43.077	0.209	0.107
-577.763	800.000	-0.113	0.419
-576.748	-71.841	-0.364	-0.136
-575.733	-144.031	0.240	-0.023
-574.719	-111.259	0.183	-0.038
-573.704	-200.000	-0.007	-0.057
-572.690	-86.596	-0.196	0.060
-571.675	487.197	0.075	-0.171
-570.661	37.255	-0.227	-0.202
-569.646	-10.148	0.175	0.117
-568.631	18.812	0.254	-0.204
-567.617	-43.442	0.186	-0.094
-566.602	359.782	0.097	-0.195
-565.588	-94.281	-0.367	0.101
-564.573	278.360	-0.085	-0.152
-563.558	11.484	0.396	-0.305
-562.544	-95.699	0.238	-0.064
-561.529	-200.000	-0.051	0.326
-560.515	-143.884	0.146	0.014
-559.500	-200.000	0.003	0.078
-558.485	800.000	-0.032	0.111
-557.471	-18.439	0.153	0.096
-556.456	-200.000	-0.014	-0.179
-555.442	800.000	0.037	-0.112
-554.427	200.015	-0.180	0.277
-553.412	-113.810	-0.147	0.029
-552.398	280.720	0.094	-0.169
-551.383	16.818	-0.145	0.116
-550.369	-25.280	0.241	0.143
-549.354	235.231	0.023	0.037
-548.339	162.118	0.084	0.119
-547.325	-200.000	0.036	0.230
-546.310	-78.568	0.420	0.144
-545.296	800.000	-0.042	0.179
-544.281	203.539	-0.034	0.053
-543.266	-177.049	-0.229	-0.006
-542.252	-75.285	0.321	-0.115
-541.237	-176.570	-0.103	-0.003
-540.223	-6.896	0.242	0.165
-539.208	800.000	0.035	0.143
-538.193	141.860	-0.100	0.133
-537.179	-45.880	0.243	-0.121
-536.164	-144.038	-0.305	-0.029
-535.150	-140.071	-0.156	-0.016
-534.135	14.549	0.152	0.119
-533.121	-75.006	-0.385	0.138
-532.106	465.145	-0.115	-0.258
-531.091	-84.259	-0.378	-0.120
-530.077	95.778	-0.185	-0.212
-529.062	347.207	0.014	-0.028
-528.048	-99.741	0.358	0.090
-527.033	132.796	0.276	-0.357
-526.018	-200.000	0.024	-0.239
-525.004	-138.320	0.185	0.021
-523.989	40.299	0.149	0.135
-522.975	-50.703	0.204	0.096
-521.960	800.000	-0.022	0.083
-520.945	-180.991	-0.259	0.005
-519.931	-200.000	-0.045	0.324
-518.916	800.000	0.055	-0.221
-517.902	293.498	0.202	-0.370
-516.887	-149.084	-0.120	0.010
-515.872	93.161	-0.123	0.139
-514.858	-200.000	-0.001	0.283
-513.843	-58.117	-0.191	-0.084
-512.829	-200.000	0.011	-0.218
-511.814	-33.114	-0.309	-0.172
-510.799	28.934	-0.125	0.106
-509.785	-123.094	0.045	0.007
-508.770	-114.768	-0.511	-0.098
-507.756	205.163	-0.026	0.040
-506.741	330.670	-0.096	-0.185
-505.726	-58.148	-0.246	0.108
-504.712	86.001	0.218	0.241
-503.697	-200.000	0.040	0.328
-502.683	445.212	0.026	-0.058
-501.668	800.000	-0.120	0.374
-500.653	-200.000	-0.002	-0.157
-499.639	493.919	0.119	-0.274
-498.624	124.385	-0.048	0.060
-497.610	-85.045	-0.333	0.105
-496.595	149.039	-0.141	0.192
-495.581	72.397	0.131	0.137
-494.566	-193.060	0.097	-0.001
-493.551	-170.823	-0.420	0.014
-492.537	65.627	-0.229	0.232
-491.522	150.092	0.138	0.188
-490.508	-76.670	-0.122	0.043
-489.493	800.000	-0.054	0.212
-488.478	-140.886	-0.441	0.045
-487.464	-200.000	0.042	0.254
-486.449	-67.572	-0.163	0.064
-485.435	-200.000	0.048	-0.265
-484.420	-200.000	0.006	-0.159
-483.405	-83.007	0.143	0.046
-482.391	22.873	0.219	-0.179
-481.376	540.088	-0.043	-0.103
-480.362	152.434	0.073	0.101
-479.347	-200.000	0.003	-0.146
-478.332	-200.000	-0.052	-0.278
-477.318	-200.000	-0.042	-0.227
-476.303	-200.000	-0.026	0.289
-475.289	800.000	0.058	0.252
-474.274	-121.545	0.259	0.043
-473.259	800.000	0.047	-0.158
-472.245	-200.000	-0.034	-0.155
-471.230	800.000	-0.035	0.147
-470.216	97.608	0.144	-0.165
-469.201	800.000	0.082	0.332
-468.186	148.968	0.122	-0.165
-467.172	296.778	-0.097	-0.178
-466.157	-71.415	-0.384	-0.144
-465.143	-200.000	0.003	-0.302
-464.128	-37.819	-0.170	-0.091
-463.113	-53.550	0.179	0.082
-462.099	295.927	-0.124	-0.227
-461.084	-200.000	0.024	0.243
-460.070	-122.139	0.181	0.030
-459.055	19.389	0.104	0.084
-458.040	-200.000	0.001	-0.090
-457.026	-43.626	-0.160	0.081
-456.011	-200.000	0.016	0.340
-454.997	-200.000	0.019	-0.115
-453.982	-149.854	-0.231	-0.018
-452.968	-200.000	0.028	0.159
-451.953	501.577	-0.075	0.174
-450.938	-85.727	-0.115	-0.036
-449.924	160.730	0.145	0.203
-448.909	-161.205	0.307	-0.016
-447.895	81.829	0.120	0.129
-446.880	710.568	0.049	-0.129
-445.865	-200.000	-0.016	0.070
-444.851	344.946	-0.143	-0.281
-443.836	68.946	-0.076	0.078
-442.822	-124.125	0.105	0.017
-441.807	-122.911	-0.289	0.047
-440.792	36.521	-0.143	0.126
-439.778	28.062	0.127	-0.107
-438.763	-200.000	0.008	-0.400
-437.749	92.523	-0.198	-0.223
-436.734	-38.228	-0.290	-0.154
-435.719	-59.200	-0.118	-0.051
-434.705	146.076	0.164	-0.220
-433.690	128.713	-0.022	-0.028
-432.676	-167.208	-0.125	0.005
-431.661	-145.483	0.159	0.014
-430.646	800.000	-0.106	0.327
-429.632	54.121	0.129	-0.124
-428.617	-200.000	-0.038	-0.238
-427.603	207.205	-0.171	0.267
-426.588	-200.000	0.031	0.138
-425.573	-107.277	0.213	0.047
-424.559	-78.909	-0.165	0.056
-423.544	800.000	0.056	-0.220
-422.530	-123.591	0.110	0.017
-421.515	800.000	0.159	0.489
-420.500	-112.869	0.263	-0.052
-419.486	285.716	-0.024	-0.043
-418.471	-200.000	-0.026	-0.230
-417.457	-132.158	-0.402	0.052
-416.442	-114.635	-0.299	-0.057
-415.428	770.746	0.028	-0.076
-414.413	-47.036	0.360	-0.175
-413.398	124.687	0.156	0.196
-412.384	-129.438	-0.266	-0.037
-411.369	253.866	0.094	-0.160
-410.355	11.525	0.088	-0.067
-409.340	-25.808	0.141	0.083
-408.325	-43.046	0.177	0.090
-407.311	-120.059	0.192	-0.033
-406.296	-49.407	-0.046	-0.022
-405.282	-200.000	-0.031	-0.178
-404.267	135.480	0.118	-0.153
-403.252	-200.000	0.050	-0.434
-402.238	54.832	0.113	0.109
-401.223	-0.546	0.182	0.129
-400.209	574.584	0.039	-0.096
-399.194	353.947	0.073	-0.145
-398.179	141.072	0.095	0.126
-397.165	-96.670	-0.031	0.008
-396.150	-48.814	0.135	-0.065
-395.136	-21.641	0.442	0.269
-394.121	-55.099	-0.404	-0.182
-393.106	-29.688	-0.281	-0.160
-392.092	616.313	-0.087	-0.217
-391.077	800.000	-0.037	-0.112
-390.063	-85.413	0.065	0.020
-389.048	326.266	0.056	-0.106
-388.033	800.000	-0.047	-0.199
-387.019	79.604	-0.084	0.090
-386.004	-153.083	0.144	0.010
-384.990	260.659	0.068	-0.118
-383.975	-200.000	0.007	-0.456
-382.960	8.670	-0.054	-0.041
-381.946	-94.150	0.061	-0.017
-380.931	-200.000	-0.005	-0.325
-379.917	-48.481	0.378	0.181
-378.902	-200.000	-0.012	-0.670
-377.888	-200.000	0.016	-0.100
-376.873	-10.151	-0.283	-0.188
-375.858	800.000	-0.037	-0.103
-374.844	87.753	0.320	0.354
-373.829	176.668	-0.316	0.459
-372.815	-54.854	0.390	0.175
-371.800	-200.000	-0.005	0.128
-370.785	5.208	-0.178	0.131
-369.771	21.277	-0.213	-0.173
-368.756	-200.000	0.043	-0.190
-367.742	800.000	-0.029	-0.113
-366.727	91.333	-0.154	0.172
-365.712	800.000	-0.071	-0.298
-364.698	-109.249	-0.267	0.057
-363.683	-200.000	-0.061	0.323
-362.669	-11.014	-0.286	0.188
-361.654	-135.019	0.426	0.051
-360.639	-200.000	-0.161	0.001
-359.625	-11.791	-0.149	-0.097
-358.610	800.000	0.066	0.231
-357.596	53.268	0.085	0.081
-356.581	-200.000	-0.022	0.325
-355.566	-200.000	-0.012	-0.180
-354.552	-6.876	0.102	0.069
-353.537	-54.320	0.211	-0.095
-352.523	-111.989	-0.201	-0.040
-351.508	150.527	-0.144	-0.195
-350.493	161.207	0.041	-0.057
-349.479	-200.000	0.002	0.065
-348.464	95.722	0.139	0.159
-347.450	-43.645	0.342	0.172
-346.435	164.539	0.083	-0.117
-345.420	800.000	0.044	-0.160
-344.406	-200.000	0.016	-0.180
-343.391	-81.396	0.171	-0.056
-342.377	-200.000	0.028	-0.166
-341.362	-200.000	0.012	0.078
-340.348	-101.486	0.176	-0.043
-339.333	-7.786	0.137	0.092
-338.318	131.516	-0.163	0.209
-337.304	-200.000	-0.004	0.118
-336.289	-93.483	-0.089	0.025
-335.275	800.000	0.031	-0.110
-334.260	-158.501	0.052	0.003
-333.245	51.474	-0.138	0.131
-332.231	800.000	-0.067	0.249
-331.216	800.000	-0.089	0.299
-330.202	-77.575	-0.271	-0.094
-329.187	-15.030	-0.098	0.063
-328.172	800.000	-0.095	-0.351
-327.158	95.988	-0.151	-0.171
-326.143	-4.067	-0.193	0.133
-325.129	89.272	0.193	0.214
-324.114	-200.000	0.006	0.057
-323.099	240.376	-0.114	-0.190
-322.085	-62.862	0.176	-0.072
-321.070	-55.787	-0.122	0.054
-320.056	-39.075	-0.144	-0.075
-319.041	-200.000	0.031	0.617
-318.026	-200.000	0.009	0.135
-317.012	35.205	0.197	0.172
-315.997	148.526	-0.096	0.129
-314.983	-126.203	0.163	0.024
-313.968	-59.599	0.123	0.052
-312.953	190.992	0.101	-0.152
-311.939	170.256	0.082	0.117
-310.924	36.205	-0.220	0.193
-309.910	118.747	-0.088	0.108
-308.895	156.793	-0.160	0.219
-307.880	-40.534	-0.269	-0.139
-306.866	262.395	0.023	0.040
-305.851	-200.000	0.023	-0.280
-304.837	86.768	0.176	0.193
-303.822	386.100	0.041	-0.084
-302.807	321.833	-0.080	-0.152
-301.793	688.329	-0.063	0.165
-300.778	-200.000	-0.009	0.246
-299.764	107.894	-0.185	-0.219
-298.749	0.520	0.216	0.153
-297.735	-126.968	0.099	-0.015
-296.720	-200.000	-0.027	0.446
-295.705	-161.521	-0.490	-0.025
-294.691	-96.275	0.275	-0.072
-293.676	-200.000	-0.009	-0.065
-292.662	-84.502	-0.227	-0.071
-291.647	-72.434	0.500	0.184
-290.632	152.874	-0.146	0.199
-289.618	-200.000	-0.020	-0.114
-288.603	416.110	-0.146	0.310
-287.589	658.105	-0.076	0.195
-286.574	-28.953	-0.248	-0.142
-285.559	509.985	-0.062	0.143
-284.545	-158.016	0.192	-0.011
-283.530	-89.227	-0.237	-0.069
-282.516	29.528	-0.106	0.089
-281.501	800.000	-0.161	0.601
-280.486	-200.000	-0.043	-0.196
-279.472	85.523	0.169	-0.185
-278.457	-200.000	-0.021	0.256
-277.443	-57.790	-0.327	0.142
-276.428	-133.503	-0.296	0.037
-275.413	-53.201	-0.310	-0.142
-274.399	149.471	-0.145	-0.195
-273.384	-38.176	0.173	-0.091
-272.370	-200.000	0.026	-0.206
-271.355	-200.000	0.014	0.085
-270.340	-113.237	-0.133	0.026
-269.326	347.797	0.233	-0.456
-268.311	800.000	-0.043	-0.121
-267.297	419.709	0.099	0.212
-266.282	485.842	0.074	0.168
-265.267	-56.816	0.166	-0.073
-264.253	-29.095	0.076	-0.043
-263.238	-78.659	0.200	0.068
-262.224	-200.000	-0.022	0.250
-261.209	108.868	-0.078	-0.093
-260.195	800.000	0.068	-0.266
-259.180	13.206	-0.165	0.127
-258.165	26.659	-0.151	0.125
-257.151	-148.631	-0.153	0.012
-256.136	-200.000	0.005	-0.062
-255.122	-200.000	0.028	-0.378
-254.107	382.235	-0.152	-0.309
-253.092	40.686	0.024	0.021
-252.078	-200.000	-0.001	-0.103
-251.063	671.099	0.064	-0.165
-250.049	16.093	-0.113	-0.088
-249.034	621.985	0.034	-0.085
-248.019	-82.506	-0.042	0.014
-247.005	97.702	-0.021	-0.024
-245.990	-200.000	-0.042	-0.220
-244.976	-157.558	0.465	0.028
-243.961	752.577	0.092	-0.248
-242.946	118.968	-0.233	-0.286
-241.932	641.222	-0.218	0.551
-240.917	800.000	0.091	-0.360
-239.903	-144.920	-0.266	-0.024
-238.888	765.514	0.111	-0.299
-237.873	-200.000	-0.012	-0.239
-236.859	45.309	0.413	0.378
-235.844	-10.146	0.070	0.046
-234.830	27.719	-0.226	0.189
-233.815	5.105	0.268	-0.196
-232.800	123.088	-0.077	-0.096
-231.786	-64.856	0.352	0.141
-230.771	-200.000	-0.034	0.293
-229.757	21.326	-0.304	0.245
-228.742	-200.000	-0.015	0.129
-227.727	-150.301	-0.245	0.019
-226.713	-16.704	0.114	-0.071
-225.698	-4.299	0.143	-0.098
-224.684	-200.000	0.002	-0.351
-223.669	203.220	0.187	0.286
-222.655	-32.306	0.338	0.187
-221.640	174.767	0.024	0.034
-220.625	-115.671	0.240	0.045
-219.611	255.715	0.067	-0.114
-218.596	-70.933	0.108	0.040
-217.582	17.052	-0.279	-0.219
-216.567	-200.000	-0.020	-0.308
-215.552	679.745	0.140	0.361
-214.538	-158.041	0.129	-0.008
-213.523	130.648	-0.209	0.266
-212.509	-89.102	0.185	0.054
-211.494	672.391	-0.054	0.138
-210.479	-66.238	-0.060	-0.024
-209.465	800.000	0.068	-0.262
-208.450	49.088	-0.039	-0.036
-207.436	-44.169	-0.158	0.079
-206.421	-87.947	-0.082	0.024
-205.406	29.308	0.275	-0.232
-204.392	99.580	-0.034	0.038
-203.377	-147.574	0.211	-0.018
-202.363	-89.977	0.171	0.049
-201.348	-143.221	-0.124	-0.012
-200.333	153.360	0.190	0.257
-199.319	-144.333	-0.151	-0.014
-198.304	-39.096	0.214	-0.111
-197.290	16.689	-0.290	-0.228
-196.275	-200.000	0.019	0.304
-195.260	42.537	0.185	-0.167
-194.246	42.811	-0.149	0.135
-193.231	-36.528	-0.176	-0.094
-192.217	35.155	-0.096	0.084
-191.202	-2.898	-0.280	0.194
-190.187	-200.000	0.001	-0.091
-189.173	-29.733	0.285	-0.161
-188.158	800.000	-0.070	0.302
-187.144	-41.094	-0.106	0.054
-186.129	21.913	0.061	-0.049
-185.114	-200.000	-0.014	0.126
-184.100	-200.000	-0.037	0.281
-183.085	-90.142	0.191	0.055
-182.071	-200.000	0.000	0.143
-181.056	-38.004	0.255	-0.134
-180.042	-170.729	0.125	-0.004
-179.027	-144.813	-0.082	0.007
-178.012	-62.838	-0.019	-0.008
-176.998	-31.789	-0.223	-0.124
-175.983	-200.000	-0.033	0.163
-174.969	273.775	0.022	-0.038
-173.954	-200.000	-0.045	0.245
-172.939	-115.700	0.339	-0.063
-171.925	-121.281	0.212	0.035
-170.910	-27.323	0.392	0.226
-169.896	-200.000	-0.010	-0.256
-168.881	-200.000	-0.017	-0.197
-167.866	-6.957	0.199	-0.134
-166.852	98.222	-0.268	0.305
-165.837	-200.000	-0.000	0.159
-164.823	-6.611	0.021	0.014
-163.808	239.958	0.115	0.190
-162.793	-81.465	-0.267	0.087
-161.779	-10.946	0.180	0.117
-160.764	437.838	-0.093	0.201
-159.750	35.902	0.187	-0.163
-158.735	-4.119	0.268	0.184
-157.720	-17.870	-0.043	0.027
-156.706	-200.000	0.042	-0.261
-155.691	672.153	0.039	0.101
-154.677	-144.891	-0.154	-0.014
-153.662	-132.073	-0.207	0.027
-152.647	-121.941	-0.201	-0.033
-151.633	-37.379	-0.228	-0.121
-150.618	97.050	-0.112	-0.127
-149.604	-114.001	0.229	-0.044
-148.589	-38.157	0.163	0.085
-147.574	295.882	0.091	0.165
-146.560	2.830	-0.095	0.068
-145.545	-64.075	0.174	-0.070
-144.531	3.620	-0.118	-0.085
-143.516	58.954	0.220	-0.214
-142.502	14.461	-0.118	-0.091
-141.487	87.966	-0.128	-0.140
-140.472	-94.021	-0.130	-0.035
-139.458	31.143	-0.101	0.086
-138.443	99.761	0.193	0.221
-137.429	-200.000	-0.035	0.170
-136.414	-200.000	0.028	0.184
-135.399	-68.304	0.334	0.128
-134.385	-137.377	-0.269	-0.030
-133.370	72.719	0.180	0.186
-132.356	800.000	0.080	-0.324
-131.341	125.598	0.042	-0.052
-130.326	-200.000	0.025	-0.165
-129.312	-97.090	-0.103	-0.027
-128.297	211.648	-0.096	-0.149
-127.283	-158.603	0.147	0.008
-126.268	-200.000	-0.006	-0.155
-125.253	-110.957	-0.094	0.019
-124.239	-102.885	0.261	0.061
-123.224	136.735	-0.037	-0.047
-122.210	-29.161	-0.014	-0.008
-121.195	-142.626	-0.166	0.016
-120.180	584.209	-0.015	-0.038
-119.166	-9.516	0.202	-0.133
-118.151	-40.199	0.113	0.058
-117.137	107.853	-0.156	0.183
-116.122	-2.363	-0.036	-0.025
-115.107	800.000	0.020	-0.069
-114.093	-152.109	0.458	0.033
-113.078	-112.745	-0.336	0.066
-112.064	800.000	0.083	-0.288
-111.049	-147.345	-0.137	0.011
-110.034	-53.658	-0.253	-0.114
-109.020	-36.843	0.110	0.058
-108.005	-81.931	0.159	-0.051
-106.991	509.495	0.029	0.067
-105.976	-200.000	0.032	-0.148
-104.962	715.049	-0.035	-0.091
-103.947	-59.629	0.248	0.105
-102.932	114.832	0.216	0.260
-101.918	-129.174	0.381	0.052
-100.903	212.884	-0.036	-0.055
-99.889	57.672	0.132	-0.127
-98.874	-194.002	-0.342	-0.003
-97.859	-66.112	0.230	-0.090
-96.845	-161.993	0.396	-0.020
-95.830	6.829	-0.147	-0.108
-94.816	239.939	-0.193	-0.317
-93.801	-74.239	0.179	0.064
-92.786	-200.000	-0.039	0.339
-91.772	-177.255	0.026	0.001
-90.757	-200.000	0.014	0.388
-89.743	0.365	0.153	-0.108
-88.728	-44.240	-0.148	0.073
-87.713	59.885	-0.204	-0.198
-86.699	-117.199	-0.276	0.049
-85.684	51.042	0.195	-0.183
-84.670	298.827	-0.097	-0.176
-83.655	-200.000	-0.006	0.110
-82.640	-153.749	0.114	0.008
-81.626	-37.882	-0.110	0.058
-80.611	197.123	-0.132	-0.199
-79.597	794.358	-0.045	-0.123
-78.582	800.000	-0.108	0.341
-77.567	-57.751	-0.127	0.055
-76.553	53.336	0.195	-0.185
-75.538	-12.199	0.280	-0.180
-74.524	800.000	-0.038	0.125
-73.509	348.604	0.161	-0.313
-72.494	-99.995	0.274	-0.067
-71.480	-132.183	-0.404	-0.052
-70.465	48.594	-0.021	0.019
-69.451	-33.071	-0.391	0.214
-68.436	-40.900	-0.332	0.169
-67.422	-90.728	-0.324	-0.092
-66.407	-14.294	0.319	0.203
-65.392	65.276	-0.270	0.269
-64.378	82.364	-0.248	0.266
-63.363	380.347	0.047	0.094
-62.349	800.000	0.044	0.129
-61.334	135.475	-0.768	-0.985
-60.319	134.342	0.317	0.405
-59.305	-200.000	0.037	-0.908
-58.290	193.231	0.624	0.930
-57.276	419.396	0.782	1.650
-56.261	-200.000	95.355	541.288
-55.246	476.384	1435.809	3197.175
-54.232	147.403	2642.189	3505.117
-53.217	109.471	2213.358	2611.992
-52.203	44.531	1652.895	1496.274
-51.188	36.243	1383.041	1200.638
-50.173	32.903	1340.303	1143.301
-49.159	54.640	1385.959	1316.396
-48.144	56.286	1402.965	1342.611
-47.130	36.381	1362.259	1183.254
-46.115	32.954	1344.620	1147.116
-45.100	32.706	1339.964	1141.597
-44.086	32.624	1337.399	1138.870
-43.071	32.528	1335.245	1136.408
-42.057	32.538	1333.105	1134.606
-41.042	32.650	1331.056	1133.489
-40.027	32.752	1329.443	1132.682
-39.013	32.588	1327.993	1130.421
-37.998	32.625	1325.830	1128.755
-36.984	32.658	1324.531	1127.800
-35.969	32.660	1322.403	1125.954
-34.954	32.752	1321.083	1125.335
-33.940	32.718	1319.499	1123.739
-32.925	32.825	1317.848	1122.929
-31.911	32.777	1316.496	1121.446
-30.896	32.797	1315.005	1120.249
-29.881	32.806	1313.919	1119.334
-28.867	32.750	1312.325	1117.601
-27.852	32.878	1310.326	1116.609
-26.838	32.782	1309.377	1115.186
-25.823	32.758	1308.164	1113.968
-24.809	32.791	1306.333	1112.560
-23.794	32.718	1305.419	1111.311
-22.779	32.734	1304.287	1110.395
-21.765	32.772	1302.502	1109.053
-20.750	32.768	1301.343	1108.001
-19.736	32.514	1300.418	1105.676
-18.721	32.609	1299.396	1105.324
-17.706	32.651	1298.145	1104.460
-16.692	32.732	1296.818	1103.758
-15.677	32.684	1295.449	1102.270
-14.663	32.682	1294.460	1101.372
-13.648	32.567	1293.358	1099.722
-12.633	32.697	1292.117	1099.382
-11.619	32.651	1291.379	1098.442
-10.604	32.567	1290.924	1097.520
-9.590	32.587	1289.732	1096.579
-8.575	32.638	1288.553	1095.830
-7.560	32.639	1287.846	1095.191
-6.546	32.649	1286.897	1094.401
-5.531	32.574	1286.084	1093.230
-4.517	32.554	1285.570	1092.634
-3.502	32.582	1284.448	1091.800
-2.487	32.564	1283.395	1090.758
-1.473	32.703	1279.444	1088.160
-0.458	31.751	1264.842	1070.262
0.556	27.794	1246.647	1032.141
1.571	23.345	1251.659	1010.878
2.586	21.538	1265.072	1011.188
3.600	20.090	1252.641	992.874
4.615	14.548	1177.063	902.966
5.629	5.730	1098.549	797.935
6.644	1.419	1078.173	761.492
7.659	0.947	1075.648	757.279
8.673	0.966	1074.884	756.768
9.688	1.050	1073.155	755.903
10.702	1.153	1071.643	755.288
11.717	5.887	1077.665	783.135
12.731	13.349	1087.931	827.997
13.746	17.077	1091.876	849.624
14.761	17.589	1091.770	852.024
15.775	16.772	1090.260	846.689
16.790	15.826	1087.958	840.110
17.804	15.179	1086.687	835.825
18.819	14.827	1085.134	832.805
19.834	14.419	1084.642	830.318
20.848	14.247	1083.628	828.615
21.863	13.996	1082.656	826.549
22.877	13.869	1081.967	825.317
23.892	13.750	1081.011	823.926
24.907	13.755	1080.555	823.527
25.921	13.808	1079.536	822.944
26.936	13.860	1078.422	822.277
27.950	13.849	1077.706	821.604
28.965	13.850	1076.780	820.830
29.980	14.029	1074.735	820.082
30.994	14.118	1073.879	819.796
32.009	13.996	1073.412	818.764
33.023	14.047	1071.988	817.861
34.038	13.940	1071.035	816.530
35.053	13.921	1070.712	816.121
36.067	13.880	1069.710	815.083
37.082	13.995	1068.842	814.914
38.096	13.847	1068.500	813.854
39.111	13.935	1067.106	813.154
40.126	13.828	1065.972	811.692
41.140	13.922	1064.729	811.137
42.155	13.738	1064.059	809.655
43.169	13.791	1062.627	808.752
44.184	13.744	1061.757	807.788
45.199	13.803	1060.737	807.226
46.213	13.795	1059.528	806.198
47.228	13.870	1058.320	805.574
48.242	13.859	1057.546	804.858
49.257	13.812	1056.684	803.901
50.271	13.925	1055.792	803.699
51.286	13.904	1054.739	802.725
52.301	14.009	1054.019	802.612
53.315	13.879	1052.800	800.988
54.330	13.774	1052.149	799.916
55.344	13.878	1051.074	799.529
56.359	13.822	1050.378	798.657
57.374	13.896	1049.246	798.083
58.388	13.896	1048.331	797.314
59.403	13.869	1047.220	796.273
60.417	13.849	1046.600	795.634
61.432	13.811	1046.111	795.007
62.447	13.711	1045.289	793.835
63.461	13.669	1044.915	793.280
64.476	13.771	1043.394	792.542
65.490	13.628	1043.082	791.554
66.505	13.841	1042.084	791.741
67.520	13.854	1041.118	791.000
68.534	13.702	1040.863	790.011
69.549	13.864	1039.517	789.689
70.563	13.734	1039.152	788.725
71.578	13.748	1038.392	788.145
72.593	13.732	1037.349	787.209
73.607	13.744	1036.811	786.788
74.622	13.767	1036.151	786.325
75.636	13.794	1035.132	785.612
76.651	13.863	1034.102	785.088
77.666	13.668	1034.385	784.308
78.680	13.698	1033.212	783.491
79.695	13.811	1032.186	783.177
80.709	13.827	1031.726	782.837
81.724	13.797	1030.977	782.054
82.739	13.858	1030.578	781.970
83.753	13.913	1029.880	781.633
84.768	13.907	1028.502	780.488
85.782	13.911	1027.558	779.720
86.797	13.884	1026.752	778.913
87.812	13.837	1026.108	778.137
88.826	13.860	1025.218	777.502
89.841	13.887	1023.923	776.575
90.855	13.901	1023.376	776.156
91.870	13.968	1022.447	775.695
92.884	13.889	1021.665	774.665
93.899	14.025	1020.371	774.251
94.914	14.037	1019.917	773.895
95.928	14.084	1018.983	773.336
96.943	14.048	1017.940	772.306
97.957	13.936	1017.384	771.296
98.972	13.968	1016.359	770.602
99.987	13.939	1015.476	769.729
101.001	13.903	1014.476	768.736
102.016	14.059	1013.335	768.524
103.030	14.063	1012.987	768.211
104.045	14.072	1012.187	767.579
105.060	13.910	1011.535	766.269
106.074	13.994	1010.454	765.769
107.089	13.936	1009.234	764.508
108.103	13.960	1008.222	763.787
109.118	13.993	1007.192	763.090
110.133	13.902	1006.745	762.265
111.147	13.886	1005.741	761.366
112.162	13.893	1004.550	760.428
113.176	13.880	1003.810	759.740
114.191	14.019	1003.369	759.974
115.206	13.887	1002.801	758.875
116.220	13.827	1002.112	758.011
117.235	13.856	1001.000	757.237
118.249	13.873	1000.435	756.818
119.264	13.773	999.558	755.635
120.279	14.007	998.495	755.829
121.293	13.969	997.794	755.056
122.308	13.837	997.058	753.831
123.322	13.945	996.026	753.476
124.337	13.970	994.714	752.529
125.352	13.887	993.541	751.203
126.366	13.862	992.670	750.365
127.381	13.880	991.357	749.385
128.395	14.143	990.566	749.907
129.410	13.990	990.080	748.784
130.424	13.903	989.001	747.512
131.439	14.095	987.892	747.470
132.454	14.014	987.575	746.798
133.468	14.040	986.697	746.187
134.483	14.035	985.424	745.136
135.497	13.959	984.855	744.296
136.512	14.029	983.859	743.794
137.527	13.998	982.850	742.824
138.541	14.035	982.342	742.541
139.556	13.966	981.599	741.607
140.570	14.062	980.834	741.390
141.585	14.196	979.428	740.857
142.600	14.160	978.491	739.926
143.614	14.085	977.967	739.130
144.629	14.137	977.011	738.571
145.643	14.092	976.448	737.881
146.658	14.152	975.118	737.075
147.673	14.029	974.118	735.709
148.687	14.101	973.630	735.597
149.702	14.097	972.409	734.593
150.716	14.158	971.860	734.381
151.731	14.055	971.129	733.309
152.746	14.069	970.645	732.941
153.760	14.070	969.926	732.338
154.775	14.168	969.044	732.039
155.789	14.200	968.625	731.798
156.804	14.137	967.700	730.758
157.819	14.177	967.185	730.479
158.833	14.286	966.685	730.513
159.848	14.329	965.462	729.715
160.862	14.212	964.544	728.444
161.877	14.235	963.867	727.969
162.892	14.264	962.790	727.217
163.906	14.152	962.003	726.068
164.921	14.089	961.339	725.231
165.935	14.200	960.409	724.948
166.950	14.249	959.446	724.369
167.964	14.170	958.776	723.455
168.979	14.305	957.516	723.028
169.994	14.163	956.931	721.907
171.008	14.276	956.184	721.769
172.023	14.132	955.510	720.574
173.037	14.310	954.548	720.553
174.052	14.432	953.704	720.379
175.067	14.364	953.429	719.814
176.081	14.269	952.529	718.659
177.096	14.389	951.880	718.623
178.110	14.317	951.245	717.773
179.125	14.342	950.965	717.606
180.140	14.297	950.210	716.777
181.154	14.378	949.940	716.857
182.169	14.371	949.301	716.284
183.183	14.509	948.296	716.053
184.198	14.495	947.634	715.433
185.213	14.493	947.082	714.942
186.227	14.602	946.000	714.530
187.242	14.512	945.829	713.953
188.256	14.597	945.349	713.890
189.271	14.562	944.130	712.756
190.286	14.525	943.440	712.017
191.300	14.456	942.762	711.145
192.315	14.391	942.659	710.726
193.329	14.422	941.536	709.952
194.344	14.558	941.087	710.127
195.359	14.551	940.047	709.250
196.373	14.605	939.537	709.033
197.388	14.701	939.056	709.015
198.402	14.663	938.691	708.514
199.417	14.778	937.775	708.247
200.432	14.764	937.189	707.683
201.446	14.749	936.973	707.393
202.461	14.756	936.341	706.882
203.475	14.856	935.832	706.860
204.490	14.812	935.126	706.080
205.504	14.756	934.211	705.089
206.519	14.673	933.584	704.202
207.534	14.844	932.735	704.221
208.548	14.726	932.122	703.200
209.563	14.852	931.422	703.138
210.577	14.766	931.180	702.531
211.592	14.869	930.289	702.229
212.607	14.896	929.291	701.530
213.621	14.955	928.105	700.819
214.636	14.837	928.293	700.403
215.650	14.889	927.195	699.731
216.665	14.995	926.347	699.472
217.680	14.980	925.998	699.082
218.694	15.019	924.923	698.374
219.709	15.040	924.655	698.196
220.723	14.973	923.836	697.237
221.738	15.113	922.900	697.052
222.753	15.010	922.621	696.353
223.767	15.055	922.084	696.069
224.782	15.152	921.144	695.704
225.796	15.086	920.832	695.131
226.811	15.209	919.725	694.743
227.826	15.077	919.250	693.776
228.840	15.224	918.276	693.590
229.855	15.080	917.498	692.344
230.869	15.258	916.678	692.399
231.884	15.101	916.389	691.473
232.899	15.157	915.320	690.834
233.913	15.187	914.633	690.381
234.928	15.029	914.343	689.450
235.942	15.063	913.492	688.886
236.957	15.267	912.928	689.238
237.972	15.121	912.656	688.373
238.986	15.216	911.831	688.079
240.001	15.225	910.962	687.400
241.015	15.186	910.128	686.548
242.030	15.154	909.702	686.038
243.045	15.283	909.202	686.127
244.059	15.240	908.989	685.729
245.074	15.293	907.903	685.067
246.088	15.377	907.062	684.714
247.103	15.422	906.483	684.398
248.117	15.402	906.082	683.953
249.132	15.390	905.634	683.506
250.147	15.525	904.398	683.063
251.161	15.508	903.928	682.577
252.176	15.655	903.097	682.487
253.190	15.594	902.407	681.657
254.205	15.640	902.045	681.509
255.220	15.611	901.565	680.972
256.234	15.595	900.651	680.153
257.249	15.568	900.362	679.768
258.263	15.707	899.166	679.366
259.278	15.513	898.795	678.241
260.293	15.607	898.372	678.241
261.307	15.806	897.687	678.469
262.322	15.827	896.858	677.867
263.336	15.872	896.070	677.390
264.351	15.925	895.161	676.855
265.366	15.852	894.743	676.188
266.380	15.726	894.339	675.317
267.395	15.809	893.321	674.822
268.409	15.884	892.795	674.662
269.424	15.797	892.277	673.864
270.439	15.759	891.261	672.885
271.453	15.816	890.514	672.490
272.468	15.803	890.320	672.233
273.482	15.910	889.634	672.082
274.497	15.976	888.816	671.669
275.512	15.915	888.406	671.054
276.526	15.893	888.146	670.711
277.541	15.897	887.400	670.107
278.555	15.975	886.865	669.953
279.570	15.924	886.504	669.416
280.585	15.887	885.348	668.337
281.599	16.010	884.288	667.967
282.614	16.013	883.828	667.572
283.628	15.933	883.107	666.652
284.643	16.032	882.661	666.648
285.657	16.065	882.002	666.223
286.672	16.061	881.341	665.646
287.687	16.147	880.383	665.202
288.701	16.114	880.461	665.074
289.716	16.239	879.601	664.856
290.730	16.050	879.164	663.724
291.745	16.138	878.565	663.558
292.760	16.190	877.626	662.995
293.774	16.159	877.062	662.389
294.789	16.243	876.384	662.151
295.803	16.294	875.462	661.596
296.818	16.104	875.269	660.644
297.833	16.096	874.575	660.031
298.847	16.332	873.692	660.231
299.862	16.243	873.277	659.508
300.876	16.345	872.954	659.606
301.891	16.188	872.487	658.580
302.906	16.379	871.635	658.626
303.920	16.322	871.267	658.065
304.935	16.550	870.294	658.162
305.949	16.336	869.877	656.954
306.964	16.480	869.021	656.809
307.979	16.497	868.635	656.525
308.993	16.426	868.231	655.887
310.008	16.523	867.487	655.644
311.022	16.657	866.663	655.481
312.037	16.366	866.442	654.130
313.052	16.435	865.866	653.902
314.066	16.362	865.429	653.233
315.081	16.360	864.700	652.617
316.095	16.430	864.180	652.438
317.110	16.492	863.265	651.928
318.125	16.490	862.878	651.570
319.139	16.437	862.395	650.945
320.154	16.569	862.033	651.120
321.168	16.640	861.377	650.841
322.183	16.611	860.697	650.157
323.197	16.581	860.062	649.507
324.212	16.476	859.900	648.923
325.227	16.583	859.130	648.694
326.241	16.549	858.600	648.107
327.256	16.646	857.989	647.960
328.270	16.719	857.330	647.683
329.285	16.564	857.000	646.785
330.300	16.639	856.051	646.299
331.314	16.603	855.918	646.004
332.329	16.786	855.241	646.133
333.343	16.777	854.588	645.548
334.358	16.646	854.863	645.198
335.373	16.727	854.184	644.938
336.387	16.837	853.556	644.826
337.402	16.835	853.503	644.720
338.416	16.917	853.018	644.608
339.431	16.764	852.584	643.644
340.446	16.862	852.298	643.741
341.460	16.890	851.774	643.396
342.475	17.003	851.109	643.265
343.489	17.015	850.923	643.111
344.504	16.976	850.575	642.646
345.519	16.890	850.084	641.893
346.533	16.954	849.527	641.655
347.548	17.036	848.761	641.331
348.562	16.911	848.476	640.587
349.577	17.097	847.586	640.561
350.592	16.981	846.923	639.564
351.606	16.961	846.546	639.146
352.621	17.040	845.575	638.656
353.635	16.988	845.035	637.994
354.650	17.123	844.217	637.828
355.665	17.084	843.675	637.217
356.679	17.132	842.885	636.744
357.694	17.213	842.472	636.677
358.708	17.188	841.566	635.844
359.723	17.181	841.344	635.595
360.738	17.110	840.773	634.840
361.752	17.150	840.136	634.453
362.767	17.308	839.572	634.561
363.781	17.198	839.015	633.673
364.796	17.244	838.603	633.478
365.810	17.447	838.094	633.794
366.825	17.416	837.813	633.408
367.840	17.376	837.222	632.759
368.854	17.464	836.551	632.520
369.869	17.464	835.905	631.978
370.883	17.460	835.624	631.695
371.898	17.404	835.583	631.401
372.913	17.319	835.573	631.020
373.927	17.457	834.542	630.696
374.942	17.327	834.257	629.946
375.956	17.327	834.105	629.774
376.971	17.457	833.487	629.732
377.986	17.377	833.097	629.088
379.000	17.640	832.577	629.608
380.015	17.781	831.264	629.082
381.029	17.683	830.897	628.389
382.044	17.652	830.493	627.913
383.059	17.776	830.033	627.966
384.073	17.745	829.161	627.136
385.088	17.595	828.747	626.217
386.102	17.702	828.220	626.155
387.117	17.658	827.771	625.597
388.132	17.645	827.158	625.033
389.146	17.693	826.825	624.901
390.161	17.812	825.852	624.545
391.175	17.802	825.646	624.298
392.190	17.835	825.271	624.080
393.205	17.668	824.805	623.061
394.219	17.800	824.324	623.126
395.234	17.829	823.831	622.803
396.248	17.777	823.480	622.295
397.263	17.789	823.122	622.010
398.278	17.701	822.948	621.505
399.292	17.663	822.615	621.060
400.307	17.729	821.937	620.735
401.321	17.802	821.198	620.387
402.336	17.790	820.976	620.119
403.350	17.846	820.308	619.765
404.365	18.000	820.015	620.046
405.380	17.852	819.706	619.223
406.394	18.030	818.718	619.066
407.409	18.053	818.152	618.665
408.423	18.088	817.857	618.516
409.438	17.955	818.142	618.195
410.453	17.988	817.432	617.723
411.467	18.094	816.660	617.465
412.482	18.055	816.507	617.154
413.496	18.159	815.961	617.063
414.511	18.266	815.605	617.123
415.526	18.129	815.174	616.250
416.540	18.215	814.447	615.957
417.555	18.298	813.887	615.776
418.569	18.130	814.119	615.294
419.584	18.160	813.431	614.827
420.599	18.231	812.696	614.471
421.613	108.327	1289.096	1457.122
422.628	93.592	1358.492	1457.244
