DTS Sentinel unit serial number:	SN413079Multiplexer serial number:	ORYXHardware model number:	OX4-SRSoftware version number:	ORYX F/W v4.00 Oryx Data Collector v3.7.2.0data status	okinstallation	princeton_trtdifferential loss correction	single-endedforward channel	channel 1reverse channel	N/Adate	2019/09/18time	16:58:35forward acquisition time	60.00reverse acquisition time	0.00gamma	496.2192k internal	0.2292k external	0.2292temperature offset calibration	0.9997default loss term (dB/km)	0.3790temperature slope calibration	1.0000multiplexer offset coefficient	1.0000multiplexer slope coefficient	1.0000fibre end	0.00T internal ref (°C)	40.06T ext. ref 1 (°C)	0.86T ext. ref 2 (°C)	35.15length (m)	temperature (°C)	Stokes	anti-Stokes-747.200	275.135	-0.088	0.161
-746.185	800.000	-0.032	0.132
-745.171	-127.163	-0.346	-0.052
-744.156	800.000	0.140	0.555
-743.142	45.613	-0.063	0.059
-742.127	-200.000	0.292	0.000
-741.112	-79.881	0.445	-0.153
-740.098	692.088	0.108	0.289
-739.083	661.720	0.051	0.134
-738.069	-84.747	-0.211	0.068
-737.054	800.000	0.042	-0.171
-736.039	89.073	-0.234	-0.266
-735.025	-200.000	0.068	0.348
-734.010	-200.000	0.010	-0.285
-732.996	-200.000	-0.040	-0.247
-731.981	-197.914	-0.411	-0.003
-730.966	-45.057	-0.310	0.158
-729.952	-167.946	0.356	-0.014
-728.937	103.197	0.098	-0.117
-727.923	164.940	0.190	-0.274
-726.908	589.910	-0.097	-0.244
-725.894	-99.871	0.278	-0.071
-724.879	-59.851	0.458	0.200
-723.864	-98.597	0.059	-0.015
-722.850	46.708	0.174	-0.165
-721.835	-23.482	0.105	-0.064
-720.821	-200.000	0.033	0.305
-719.806	80.557	-0.228	-0.251
-718.791	51.694	-0.102	-0.100
-717.777	-200.000	0.067	0.312
-716.762	-91.330	-0.131	0.038
-715.748	-200.000	0.035	0.248
-714.733	278.988	-0.065	0.119
-713.718	-161.983	0.426	-0.022
-712.704	12.358	-0.211	-0.167
-711.689	339.028	-0.185	-0.368
-710.675	-34.460	0.396	-0.222
-709.660	43.096	0.174	-0.163
-708.645	114.724	-0.071	0.089
-707.631	21.671	0.114	0.095
-706.616	456.952	-0.052	0.118
-705.602	44.516	-0.168	0.157
-704.587	-200.000	0.015	0.069
-703.572	800.000	0.059	0.192
-702.558	199.319	-0.052	0.081
-701.543	800.000	-0.105	-0.315
-700.529	-30.803	0.106	0.061
-699.514	-195.162	-0.191	-0.001
-698.499	682.098	-0.097	-0.258
-697.485	49.797	-0.120	-0.116
-696.470	-164.174	-0.049	-0.002
-695.456	-69.998	0.220	-0.086
-694.441	-200.000	-0.011	0.447
-693.426	73.215	-0.126	-0.135
-692.412	-29.576	-0.043	-0.025
-691.397	800.000	0.081	-0.284
-690.383	-152.325	-0.243	-0.018
-689.368	-200.000	-0.005	0.162
-688.354	305.863	-0.098	0.186
-687.339	-85.518	0.177	-0.056
-686.324	251.767	-0.176	-0.307
-685.310	-43.121	0.067	-0.035
-684.295	54.641	-0.290	0.285
-683.281	-54.967	-0.250	-0.115
-682.266	-173.366	-0.209	0.006
-681.251	236.380	-0.048	0.081
-680.237	-48.406	-0.193	-0.095
-679.222	-75.070	0.206	0.075
-678.208	-26.718	-0.442	0.264
-677.193	350.075	-0.164	-0.331
-676.178	-85.304	-0.260	-0.083
-675.164	-200.000	-0.019	0.145
-674.149	-200.000	0.025	-0.288
-673.135	-96.035	0.159	0.043
-672.120	261.619	-0.180	-0.318
-671.105	180.475	-0.118	-0.177
-670.091	-200.000	0.010	0.059
-669.076	-111.413	0.323	-0.067
-668.062	-136.501	-0.208	0.025
-667.047	800.000	0.039	0.171
-666.032	800.000	-0.031	-0.106
-665.018	-200.000	-0.028	-0.180
-664.003	53.379	-0.203	-0.199
-662.989	-43.451	0.280	0.144
-661.974	-200.000	-0.021	-0.165
-660.959	149.674	-0.110	-0.153
-659.945	-133.129	-0.112	0.014
-658.930	273.909	-0.228	-0.411
-657.916	-117.820	-0.159	-0.029
-656.901	-43.560	0.061	0.031
-655.886	-110.036	0.151	0.032
-654.872	-109.730	-0.108	-0.023
-653.857	800.000	0.051	0.190
-652.843	40.854	-0.243	0.224
-651.828	-34.742	-0.205	0.114
-650.814	122.543	0.023	-0.029
-649.799	19.352	0.371	-0.304
-648.784	-153.155	0.193	0.014
-647.770	-134.046	-0.445	0.056
-646.755	-106.496	0.372	-0.085
-645.741	-200.000	0.046	0.279
-644.726	-101.257	-0.183	0.046
-643.711	-200.000	0.014	-0.063
-642.697	-121.993	-0.224	0.038
-641.682	800.000	-0.058	-0.194
-640.668	132.763	0.175	-0.230
-639.653	-200.000	-0.012	-0.092
-638.638	-200.000	0.016	0.077
-637.624	-194.325	-0.099	0.001
-636.609	-102.647	0.029	-0.007
-635.595	-178.720	-0.188	-0.004
-634.580	256.423	0.145	-0.255
-633.565	-200.000	0.015	0.073
-632.551	95.551	-0.128	-0.149
-631.536	-200.000	-0.045	0.416
-630.522	-36.197	0.082	0.045
-629.507	-34.507	0.171	-0.095
-628.492	66.190	0.065	0.067
-627.478	571.169	-0.051	-0.126
-626.463	744.565	-0.052	-0.141
-625.449	-152.749	-0.216	0.016
-624.434	6.573	-0.051	-0.039
-623.419	98.737	-0.208	0.245
-622.405	-87.020	-0.348	0.108
-621.390	-93.855	0.218	-0.061
-620.376	-200.000	-0.069	-0.520
-619.361	-125.489	-0.294	-0.046
-618.346	-79.860	-0.308	-0.105
-617.332	255.930	-0.044	0.076
-616.317	4.367	-0.187	-0.140
-615.303	203.176	-0.117	-0.185
-614.288	800.000	-0.032	0.106
-613.273	-50.077	0.365	0.176
-612.259	163.983	0.120	0.172
-611.244	157.018	0.346	-0.487
-610.230	214.359	-0.026	-0.042
-609.215	402.794	-0.100	-0.213
-608.201	-114.839	0.043	-0.008
-607.186	-101.128	-0.177	0.044
-606.171	-200.000	-0.287	-0.001
-605.157	148.011	-0.232	-0.318
-604.142	738.310	-0.114	-0.310
-603.128	82.736	0.172	-0.191
-602.113	59.916	0.056	0.056
-601.098	192.366	0.068	-0.104
-600.084	-200.000	0.029	0.207
-599.069	34.388	0.189	-0.168
-598.055	124.048	0.248	0.317
-597.040	-102.869	0.401	0.097
-596.025	-200.000	0.016	-0.141
-595.011	-200.000	-0.020	-0.098
-593.996	22.244	0.077	0.064
-592.982	-123.991	0.281	0.045
-591.967	34.796	0.239	0.213
-590.952	133.199	-0.220	-0.289
-589.938	65.426	-0.278	-0.286
-588.923	-11.274	0.168	-0.112
-587.909	549.896	-0.074	-0.180
-586.894	-89.025	0.176	0.053
-585.879	164.133	0.106	0.152
-584.865	-200.000	0.033	-0.149
-583.850	-200.000	-0.012	-0.138
-582.836	-200.000	0.018	-0.237
-581.821	-96.978	-0.432	-0.115
-580.806	-106.826	-0.284	0.064
-579.792	-200.000	0.038	0.218
-578.777	-200.000	-0.005	-0.081
-577.763	341.783	0.064	0.128
-576.748	-89.675	0.130	-0.039
-575.733	800.000	0.046	-0.181
-574.719	-7.426	0.132	-0.091
-573.704	800.000	0.059	-0.212
-572.690	-200.000	0.017	-0.290
-571.675	31.797	0.086	-0.075
-570.661	800.000	0.090	0.390
-569.646	11.166	-0.069	0.054
-568.631	526.675	-0.080	-0.191
-567.617	800.000	0.031	-0.123
-566.602	167.882	-0.117	0.169
-565.588	46.628	0.145	-0.137
-564.573	52.283	-0.102	0.099
-563.558	-119.824	0.244	0.043
-562.544	100.865	0.210	0.248
-561.529	-200.000	-0.009	0.155
-560.515	800.000	-0.080	-0.344
-559.500	0.826	-0.154	0.112
-558.485	71.906	0.094	-0.100
-557.471	363.940	-0.149	0.305
-556.456	800.000	-0.072	-0.246
-555.442	800.000	0.032	-0.127
-554.427	-122.030	-0.252	0.042
-553.412	41.226	-0.127	-0.117
-552.398	-77.698	-0.112	0.039
-551.383	-94.223	0.350	-0.097
-550.369	-11.325	0.173	-0.116
-549.354	128.098	-0.074	-0.096
-548.339	-8.165	-0.107	-0.073
-547.325	-150.072	0.043	0.003
-546.310	-200.000	-0.018	0.111
-545.296	164.815	-0.087	0.125
-544.281	75.152	-0.038	0.040
-543.266	-110.468	0.294	-0.062
-542.252	241.285	0.160	-0.272
-541.237	246.686	-0.158	0.270
-540.223	773.554	0.046	0.127
-539.208	-56.280	0.310	-0.140
-538.193	-200.000	-0.062	0.633
-537.179	-200.000	0.023	0.167
-536.164	-71.525	0.126	0.048
-535.150	349.016	-0.055	0.110
-534.135	419.827	0.054	-0.118
-533.121	-200.000	-0.006	-0.194
-532.106	28.824	-0.039	0.034
-531.091	17.741	-0.080	0.065
-530.077	143.627	0.129	-0.174
-529.062	-200.000	0.014	0.070
-528.048	207.579	0.068	0.107
-527.033	800.000	0.095	0.268
-526.018	72.013	0.191	0.202
-525.004	-136.579	-0.164	-0.019
-523.989	-75.455	-0.313	0.113
-522.975	-200.000	-0.008	0.263
-521.960	65.157	-0.257	-0.263
-520.945	334.733	0.168	-0.329
-519.931	800.000	0.067	0.197
-518.916	-200.000	0.005	0.206
-517.902	800.000	0.087	0.296
-516.887	30.158	0.042	-0.037
-515.872	-75.632	0.161	0.058
-514.858	-200.000	0.028	0.191
-513.843	-133.029	-0.011	0.001
-512.829	-116.401	0.104	0.019
-511.814	121.034	-0.243	0.306
-510.799	-57.916	0.132	0.058
-509.785	800.000	0.066	0.216
-508.770	-200.000	-0.032	0.193
-507.756	-99.795	0.265	0.067
-506.741	-57.836	-0.206	-0.091
-505.726	64.608	-0.099	0.101
-504.712	-200.000	0.043	-0.242
-503.697	-23.770	0.130	-0.079
-502.683	-137.054	-0.195	0.023
-501.668	-200.000	-0.009	0.122
-500.653	-173.612	-0.264	0.008
-499.639	-98.575	0.474	0.123
-498.624	11.165	0.115	0.089
-497.610	-40.548	-0.301	0.158
-496.595	14.620	0.142	0.112
-495.581	-120.277	0.172	0.030
-494.566	800.000	-0.142	-0.527
-493.551	-101.594	-0.072	-0.018
-492.537	15.657	-0.037	0.030
-491.522	-200.000	-0.023	0.292
-490.508	81.160	-0.090	0.099
-489.493	-133.824	-0.100	-0.013
-488.478	741.171	-0.031	0.085
-487.464	369.507	-0.138	0.282
-486.449	233.406	0.163	0.271
-485.435	-200.000	0.016	0.273
-484.420	84.564	-0.130	0.144
-483.405	463.951	0.057	0.128
-482.391	26.494	-0.273	-0.231
-481.376	-82.225	-0.236	-0.078
-480.362	-200.000	0.058	0.295
-479.347	-7.993	0.222	0.151
-478.332	-12.402	0.233	0.154
-477.318	-200.000	0.039	-0.264
-476.303	153.499	0.303	0.420
-475.289	-104.311	-0.415	0.098
-474.274	63.019	0.273	-0.277
-473.259	232.565	-0.018	0.030
-472.245	209.279	-0.072	-0.115
-471.230	47.647	0.108	0.102
-470.216	-60.254	-0.161	-0.070
-469.201	67.665	-0.078	-0.080
-468.186	800.000	0.078	-0.301
-467.172	166.615	0.080	0.115
-466.157	800.000	-0.077	-0.335
-465.143	-200.000	-0.022	-0.488
-464.128	79.075	-0.136	-0.147
-463.113	194.070	0.117	-0.179
-462.099	433.282	-0.057	0.125
-461.084	61.276	-0.333	0.335
-460.070	101.612	0.130	0.154
-459.055	174.572	-0.137	0.201
-458.040	38.913	0.200	0.181
-457.026	-200.000	0.062	0.411
-456.011	99.096	-0.092	-0.108
-454.997	-92.195	0.595	-0.170
-453.982	-105.305	-0.235	0.054
-452.968	10.082	-0.081	0.062
-451.953	-106.802	0.262	0.059
-450.938	-200.000	-0.028	-0.172
-449.924	128.090	-0.068	0.087
-448.909	-127.293	-0.177	0.026
-447.895	70.622	-0.259	0.271
-446.880	-1.078	0.146	0.104
-445.865	2.471	0.227	-0.166
-444.851	80.662	-0.398	0.434
-443.836	-200.000	-0.016	0.226
-442.822	-153.131	-0.204	-0.014
-441.807	-104.944	-0.207	0.048
-440.792	9.746	-0.168	-0.129
-439.778	-111.793	0.216	-0.044
-438.763	66.683	0.098	-0.101
-437.749	-200.000	0.005	0.106
-436.734	-183.661	0.210	0.004
-435.719	-200.000	0.004	0.295
-434.705	721.029	-0.035	-0.095
-433.690	27.095	-0.182	0.155
-432.676	-118.326	0.215	-0.039
-431.661	-46.407	-0.275	0.136
-430.646	-19.226	-0.297	-0.187
-429.632	-200.000	-0.006	-0.232
-428.617	115.412	-0.277	-0.342
-427.603	-40.911	0.445	0.233
-426.588	-62.960	0.188	-0.078
-425.573	-151.071	0.260	0.020
-424.559	142.707	-0.120	0.161
-423.544	36.760	-0.192	0.171
-422.530	-139.676	-0.334	-0.036
-421.515	-53.060	-0.385	0.179
-420.500	-153.430	0.353	0.025
-419.486	-84.805	0.205	0.065
-418.471	795.053	0.082	0.228
-417.457	-83.821	0.194	-0.063
-416.442	-173.270	-0.374	-0.012
-415.428	-33.607	-0.051	-0.029
-414.413	-84.729	-0.100	0.032
-413.398	-88.067	-0.217	-0.066
-412.384	-180.378	0.413	-0.009
-411.369	-200.000	-0.006	-0.063
-410.355	-27.912	0.156	-0.091
-409.340	-200.000	0.002	0.008
-408.325	-138.797	-0.177	0.020
-407.311	800.000	-0.041	0.127
-406.296	-38.143	0.170	-0.091
-405.282	246.207	-0.214	0.365
-404.267	43.546	0.153	-0.142
-403.252	-200.000	-0.004	-0.091
-402.238	-95.660	0.115	0.031
-401.223	-200.000	0.015	0.101
-400.209	-103.777	-0.246	0.058
-399.194	-41.315	-0.084	-0.044
-398.179	-98.626	-0.382	-0.098
-397.165	76.944	0.274	0.294
-396.150	577.669	0.041	-0.102
-395.136	155.524	0.154	-0.214
-394.121	484.111	0.110	-0.253
-393.106	-141.950	0.591	-0.060
-392.092	-94.240	-0.119	-0.033
-391.077	-117.218	0.040	-0.007
-390.063	47.270	-0.069	0.065
-389.048	-200.000	-0.005	-0.195
-388.033	16.514	0.224	0.178
-387.019	199.480	0.267	-0.414
-386.004	-200.000	-0.031	-0.200
-384.990	676.451	-0.014	0.038
-383.975	-200.000	-0.034	0.198
-382.960	557.937	0.106	0.258
-381.946	-166.092	0.088	0.004
-380.931	152.585	0.058	0.080
-379.917	425.757	0.214	0.464
-378.902	-107.071	0.151	-0.034
-377.888	85.789	0.141	0.157
-376.873	309.145	-0.067	-0.127
-375.858	-200.000	0.017	0.128
-374.844	139.785	-0.155	0.207
-373.829	172.904	0.203	0.295
-372.815	800.000	-0.026	-0.080
-371.800	18.580	-0.068	0.055
-370.785	33.451	-0.162	0.141
-369.771	-101.658	-0.116	-0.028
-368.756	115.206	-0.168	-0.206
-367.742	-42.627	0.219	0.112
-366.727	-57.871	-0.449	0.198
-365.712	-200.000	-0.047	0.231
-364.698	-134.957	-0.232	0.028
-363.683	123.961	0.070	-0.088
-362.669	252.716	0.262	-0.451
-361.654	6.768	-0.210	-0.158
-360.639	5.146	0.046	0.034
-359.625	-12.524	-0.304	-0.200
-358.610	-101.589	0.167	0.041
-357.596	155.664	0.193	0.268
-356.581	214.723	0.175	0.279
-355.566	-84.730	-0.059	0.019
-354.552	-200.000	0.008	-0.061
-353.537	-200.000	0.023	0.416
-352.523	168.818	-0.080	0.114
-351.508	-200.000	0.020	0.118
-350.493	-23.633	0.189	0.114
-349.479	-200.000	0.009	-0.173
-348.464	-66.052	-0.344	-0.138
-347.450	112.661	0.213	-0.260
-346.435	-120.966	0.114	-0.019
-345.420	19.411	0.174	-0.141
-344.406	107.671	0.156	0.188
-343.391	-200.000	0.024	-0.139
-342.377	-15.366	0.342	-0.220
-341.362	405.959	0.136	-0.290
-340.348	-43.566	0.054	0.027
-339.333	12.542	0.214	0.166
-338.318	-92.240	0.218	0.062
-337.304	175.681	0.024	-0.034
-336.289	-200.000	0.009	0.437
-335.275	800.000	-0.059	-0.191
-334.260	-47.943	-0.088	-0.043
-333.245	403.205	-0.204	-0.433
-332.231	-119.540	0.258	-0.045
-331.216	-197.330	0.106	-0.001
-330.202	703.325	-0.062	-0.165
-329.187	142.110	0.079	-0.105
-328.172	-200.000	-0.017	-0.099
-327.158	-200.000	-0.041	0.326
-326.143	75.162	-0.237	-0.252
-325.129	-89.621	0.488	-0.144
-324.114	800.000	-0.059	-0.190
-323.099	-75.483	-0.139	-0.050
-322.085	143.955	-0.078	-0.105
-321.070	-188.461	0.266	-0.003
-320.056	141.757	-0.228	-0.305
-319.041	-88.220	-0.086	0.026
-318.026	-76.007	-0.150	0.053
-317.012	-54.157	0.025	-0.012
-315.997	-77.328	0.313	-0.110
-314.983	-65.267	-0.300	0.122
-313.968	-49.284	-0.252	-0.121
-312.953	-200.000	-0.004	0.041
-311.939	-200.000	0.005	-0.148
-310.924	-123.804	-0.198	-0.031
-309.910	-118.049	0.095	-0.017
-308.895	288.270	-0.033	-0.060
-307.880	-96.059	0.212	0.057
-306.866	206.587	-0.115	-0.180
-305.851	44.373	-0.343	0.317
-304.837	335.039	-0.143	0.278
-303.822	-200.000	0.006	-0.248
-302.807	125.813	0.213	-0.271
-301.793	-75.355	-0.090	-0.032
-300.778	132.338	-0.070	-0.091
-299.764	-7.115	0.269	0.184
-298.749	-133.641	-0.251	-0.032
-297.735	204.842	-0.010	0.016
-296.720	34.735	0.180	-0.158
-295.705	92.135	-0.263	-0.298
-294.691	-167.557	-0.161	-0.006
-293.676	295.721	-0.040	0.074
-292.662	-147.559	-0.045	0.004
-291.647	-27.745	-0.072	0.042
-290.632	800.000	0.061	-0.214
-289.618	-200.000	0.004	-0.095
-288.603	-200.000	-0.001	-0.025
-287.589	404.076	-0.062	-0.132
-286.574	97.983	-0.281	0.325
-285.559	-153.876	-0.227	-0.016
-284.545	-62.306	0.219	-0.091
-283.530	182.889	0.233	-0.346
-282.516	83.184	0.084	-0.092
-281.501	-200.000	0.005	-0.073
-280.486	-50.392	-0.377	-0.179
-279.472	-200.000	0.034	0.344
-278.457	-200.000	0.071	-0.470
-277.443	-2.438	0.108	-0.076
-276.428	-39.308	-0.461	0.243
-275.413	-96.827	-0.013	-0.003
-274.399	-37.540	-0.312	-0.167
-273.384	19.407	-0.197	-0.159
-272.370	-129.746	-0.069	-0.010
-271.355	800.000	-0.069	0.270
-270.340	153.127	-0.045	-0.062
-269.326	-90.911	-0.290	0.084
-268.311	465.999	0.071	-0.159
-267.297	-61.572	0.254	0.107
-266.282	226.982	0.132	-0.216
-265.267	182.570	0.018	-0.026
-264.253	800.000	0.056	-0.211
-263.238	-200.000	0.035	-0.161
-262.224	-200.000	0.037	0.372
-261.209	-113.182	0.116	-0.023
-260.195	560.531	0.040	0.097
-259.180	88.473	0.053	0.059
-258.165	-200.000	0.019	0.113
-257.151	-200.000	0.006	0.058
-256.136	800.000	0.026	-0.080
-255.122	-68.598	-0.207	-0.080
-254.107	131.924	-0.095	0.123
-253.092	-64.343	-0.088	0.036
-252.078	-125.757	-0.311	0.047
-251.063	206.453	0.140	-0.218
-250.049	-200.000	-0.013	0.065
-249.034	336.092	-0.176	0.343
-248.019	-46.520	0.222	0.109
-247.005	-2.458	-0.377	0.265
-245.990	163.019	0.167	0.235
-244.976	-35.779	0.259	0.141
-243.961	2.321	0.127	0.092
-242.946	12.601	-0.119	0.092
-241.932	166.230	-0.213	-0.303
-240.917	-36.432	-0.176	-0.095
-239.903	800.000	-0.061	-0.242
-238.888	67.950	-0.062	-0.064
-237.873	283.126	-0.044	0.079
-236.859	70.442	-0.092	-0.095
-235.844	-130.276	-0.179	-0.024
-234.830	-76.235	0.039	0.014
-233.815	151.836	0.069	0.094
-232.800	-171.967	0.169	0.006
-231.786	-54.723	0.157	-0.071
-230.771	-50.157	-0.092	-0.044
-229.757	177.529	0.180	-0.263
-228.742	536.167	0.079	-0.188
-227.727	104.879	-0.296	0.350
-226.713	-25.942	-0.220	-0.130
-225.698	-191.796	-0.233	0.002
-224.684	-112.338	0.118	0.024
-223.669	-108.547	-0.195	-0.042
-222.655	-200.000	0.011	0.090
-221.640	-200.000	0.039	-0.210
-220.625	-42.577	-0.146	-0.074
-219.611	-15.663	-0.032	0.021
-218.596	-33.489	-0.189	0.104
-217.582	29.753	0.414	0.354
-216.567	54.125	-0.204	0.197
-215.552	-200.000	-0.037	-0.208
-214.538	-17.328	0.159	-0.101
-213.523	45.355	-0.138	-0.128
-212.509	-82.467	0.096	-0.031
-211.494	-200.000	0.004	0.289
-210.479	-31.644	0.439	0.247
-209.465	-80.475	0.253	0.085
-208.450	-73.326	0.052	0.019
-207.436	-113.766	-0.080	-0.016
-206.421	-36.959	0.248	0.133
-205.406	211.132	0.126	0.198
-204.392	-45.012	-0.229	0.114
-203.377	-126.271	0.208	-0.031
-202.363	-86.057	0.495	-0.153
-201.348	208.636	-0.042	-0.067
-200.333	-74.190	-0.277	-0.100
-199.319	-111.058	0.349	-0.072
-198.304	-158.589	-0.085	0.005
-197.290	-22.114	-0.150	0.091
-196.275	-200.000	0.011	-0.188
-195.260	280.884	0.033	-0.060
-194.246	-91.911	0.329	0.093
-193.231	-200.000	0.043	-0.215
-192.217	-200.000	0.066	-0.418
-191.202	-200.000	0.016	-0.438
-190.187	244.999	0.186	0.313
-189.173	284.346	-0.026	0.047
-188.158	136.147	-0.168	-0.219
-187.144	0.936	0.186	-0.133
-186.129	87.837	0.046	-0.051
-185.114	94.952	-0.058	0.067
-184.100	-60.147	-0.179	-0.077
-183.085	-200.000	0.053	0.237
-182.071	-82.429	-0.108	0.035
-181.056	-200.000	0.052	-0.323
-180.042	-131.592	-0.117	0.015
-179.027	-83.266	0.138	0.045
-178.012	117.544	-0.071	0.088
-176.998	586.139	0.020	-0.050
-175.983	-200.000	0.006	-0.287
-174.969	-147.291	0.230	0.020
-173.954	21.711	0.223	-0.181
-172.939	800.000	0.080	0.228
-171.925	-200.000	-0.050	-0.321
-170.910	-200.000	-0.052	0.253
-169.896	227.999	0.143	-0.233
-168.881	425.311	0.099	-0.214
-167.866	-152.074	0.061	0.004
-166.852	-200.000	-0.008	-0.034
-165.837	-200.000	-0.012	0.431
-164.823	195.790	0.105	0.160
-163.808	-200.000	-0.015	0.074
-162.793	-125.679	-0.286	0.043
-161.779	-33.422	0.111	-0.062
-160.764	-59.681	-0.246	0.105
-159.750	-136.550	-0.222	-0.026
-158.735	800.000	-0.081	0.295
-157.720	160.280	-0.121	0.169
-156.706	362.681	0.028	0.056
-155.691	481.242	-0.095	0.215
-154.677	-177.109	-0.116	-0.003
-153.662	-200.000	-0.042	0.194
-152.647	-129.178	-0.070	-0.010
-151.633	-200.000	0.039	-0.233
-150.618	-189.997	0.284	0.003
-149.604	800.000	0.071	0.205
-148.589	157.705	0.293	0.405
-147.574	-62.355	0.179	0.074
-146.560	716.682	0.085	0.225
-145.545	133.218	0.095	-0.123
-144.531	125.251	0.104	-0.131
-143.516	137.684	0.051	0.067
-142.502	-39.549	0.239	-0.125
-141.487	-120.184	-0.553	0.095
-140.472	37.056	0.153	-0.135
-139.458	-119.306	0.113	-0.020
-138.443	76.019	0.194	0.205
-137.429	800.000	0.020	-0.074
-136.414	-137.128	-0.194	-0.022
-135.399	63.819	0.029	-0.029
-134.385	-131.471	0.444	0.059
-133.370	482.864	-0.138	0.314
-132.356	-146.226	-0.197	-0.017
-131.341	244.881	0.087	-0.146
-130.326	-200.000	0.020	0.222
-129.312	-122.408	0.209	0.034
-128.297	-133.822	-0.114	-0.014
-127.283	81.224	0.113	0.121
-126.268	-144.750	-0.146	0.013
-125.253	-111.105	0.265	-0.054
-124.239	41.941	0.206	-0.187
-123.224	-57.523	0.101	-0.044
-122.210	800.000	-0.118	0.327
-121.195	29.850	-0.119	-0.101
-120.180	8.457	0.214	-0.161
-119.166	127.194	0.159	0.201
-118.151	-200.000	0.064	-0.338
-117.137	-35.886	0.174	-0.094
-116.122	-156.826	0.209	0.013
-115.107	-62.235	0.019	0.008
-114.093	-71.194	-0.326	0.122
-113.078	77.673	-0.274	-0.292
-112.064	-141.329	-0.200	0.020
-111.049	600.296	0.096	0.237
-110.034	-8.059	0.240	0.161
-109.020	145.860	-0.216	-0.289
-108.005	-32.455	-0.253	-0.141
-106.991	-200.000	0.011	-0.112
-105.976	280.361	0.164	-0.293
-104.962	-68.557	0.179	-0.069
-103.947	5.051	-0.146	0.108
-102.932	-56.661	-0.236	0.104
-101.918	-200.000	0.005	-0.303
-100.903	800.000	0.045	-0.174
-99.889	-24.278	0.246	-0.146
-98.874	-30.737	-0.106	-0.060
-97.859	-200.000	0.044	0.243
-96.845	-61.407	0.105	-0.044
-95.830	-37.899	0.282	-0.150
-94.816	-181.197	0.314	-0.006
-93.801	-71.408	0.320	0.119
-92.786	192.981	0.169	-0.255
-91.772	-88.655	-0.180	-0.054
-90.757	-23.276	0.331	0.199
-89.743	124.926	0.086	0.108
-88.728	-79.966	0.122	0.041
-87.713	-200.000	0.040	-0.408
-86.699	223.454	0.057	0.092
-85.684	548.089	-0.118	0.281
-84.670	-102.836	-0.025	0.006
-83.655	-0.575	-0.146	0.104
-82.640	-175.461	0.153	0.004
-81.626	-160.450	0.451	0.024
-80.611	5.647	0.073	-0.054
-79.597	-74.845	-0.184	0.066
-78.582	149.430	-0.087	0.117
-77.567	85.425	0.038	-0.041
-76.553	-200.000	0.018	0.084
-75.538	747.073	-0.090	0.242
-74.524	800.000	0.042	0.154
-73.509	-40.944	0.156	0.080
-72.494	-174.452	-0.249	0.007
-71.480	667.908	0.129	0.333
-70.465	42.502	0.353	-0.320
-69.451	151.628	0.150	-0.204
-68.436	800.000	-0.078	-0.251
-67.422	-66.803	-0.108	0.043
-66.407	-89.522	0.413	0.121
-65.392	179.548	0.130	-0.190
-64.378	-52.094	-0.127	0.059
-63.363	800.000	-0.031	-0.114
-62.349	800.000	0.032	-0.138
-61.334	-19.155	-0.969	-0.600
-60.319	-200.000	0.017	0.204
-59.305	-200.000	0.012	-0.904
-58.290	344.483	0.393	0.768
-57.276	800.000	0.405	1.535
-56.261	-200.000	77.605	513.165
-55.246	493.634	1348.115	3080.905
-54.232	141.788	2600.990	3433.654
-53.217	112.850	2265.364	2734.023
-52.203	51.443	1707.199	1615.515
-51.188	43.714	1430.514	1304.087
-50.173	40.287	1384.769	1240.901
-49.159	57.816	1421.548	1385.223
-48.144	63.846	1440.082	1441.385
-47.130	44.131	1401.724	1280.272
-46.115	40.180	1385.066	1240.302
-45.100	39.930	1380.403	1234.514
-44.086	39.860	1378.050	1231.927
-43.071	39.875	1375.896	1230.044
-42.057	39.928	1372.928	1227.669
-41.042	39.986	1371.479	1226.687
-40.027	39.983	1370.183	1225.461
-39.013	39.977	1368.563	1223.928
-37.998	39.988	1366.443	1222.049
-36.984	39.970	1364.489	1220.143
-35.969	39.966	1362.661	1218.432
-34.954	40.036	1361.037	1217.363
-33.940	40.086	1359.503	1216.250
-32.925	40.197	1358.044	1215.579
-31.911	40.180	1356.877	1214.381
-30.896	40.228	1354.996	1212.944
-29.881	40.246	1353.634	1211.792
-28.867	40.179	1352.213	1210.060
-27.852	40.161	1350.446	1208.322
-26.838	40.189	1348.885	1207.048
-25.823	40.142	1347.471	1205.445
-24.809	40.296	1345.794	1204.838
-23.794	40.063	1345.164	1202.808
-22.779	40.161	1343.488	1201.853
-21.765	40.053	1342.438	1200.210
-20.750	40.109	1340.624	1198.880
-19.736	39.996	1339.306	1196.970
-18.721	39.976	1338.221	1195.833
-17.706	39.983	1337.242	1194.957
-16.692	40.085	1335.152	1193.657
-15.677	39.943	1334.380	1192.058
-14.663	40.076	1333.112	1191.684
-13.648	39.988	1332.306	1190.384
-12.633	39.945	1331.502	1189.358
-11.619	40.023	1330.589	1188.967
-10.604	40.056	1329.610	1188.244
-9.590	40.017	1328.698	1187.149
-8.575	40.000	1327.546	1185.968
-7.560	39.963	1326.886	1185.109
-6.546	40.045	1325.880	1184.655
-5.531	40.040	1325.062	1183.847
-4.517	39.968	1324.024	1182.441
-3.502	39.995	1323.193	1181.813
-2.487	40.171	1321.396	1181.213
-1.473	40.078	1318.235	1177.786
-0.458	38.914	1303.067	1157.332
0.556	33.661	1282.400	1110.402
1.571	28.239	1283.626	1079.490
2.586	25.581	1297.506	1075.201
3.600	23.401	1284.585	1051.482
4.615	16.639	1205.949	949.230
5.629	6.405	1122.832	830.034
6.644	1.293	1098.094	785.277
7.659	0.760	1095.819	780.829
8.673	0.662	1095.097	779.737
9.688	0.727	1093.747	779.042
10.702	0.889	1092.152	778.671
11.717	5.946	1099.259	809.806
12.731	14.271	1110.900	861.554
13.746	17.793	1114.204	882.292
14.761	17.552	1113.038	880.043
15.775	16.611	1111.437	873.841
16.790	15.681	1109.372	867.347
17.804	14.987	1107.567	862.284
18.819	14.466	1106.479	858.675
19.834	14.237	1105.401	856.586
20.848	13.955	1104.561	854.407
21.863	13.756	1103.715	852.655
22.877	13.535	1102.754	850.700
23.892	13.515	1101.937	849.895
24.907	13.573	1100.858	849.286
25.921	13.550	1100.214	848.597
26.936	13.608	1099.644	848.378
27.950	13.643	1098.534	847.624
28.965	13.760	1096.881	846.871
29.980	13.780	1096.038	846.250
30.994	13.687	1094.967	844.871
32.009	13.898	1093.613	844.824
33.023	13.723	1093.029	843.410
34.038	13.761	1092.123	842.829
35.053	13.754	1091.138	841.961
36.067	13.708	1090.014	840.786
37.082	13.761	1089.258	840.397
38.096	13.849	1088.543	840.218
39.111	13.857	1087.393	839.291
40.126	13.574	1086.803	837.334
41.140	13.499	1085.315	835.737
42.155	13.679	1083.807	835.405
43.169	13.530	1082.853	833.845
44.184	13.525	1082.570	833.532
45.199	13.512	1081.046	832.218
46.213	13.562	1079.758	831.402
47.228	13.619	1078.845	830.911
48.242	13.632	1077.596	829.945
49.257	13.596	1076.608	828.930
50.271	13.696	1075.464	828.476
51.286	13.697	1074.794	827.890
52.301	13.633	1073.944	826.841
53.315	13.689	1072.779	826.151
54.330	13.612	1071.949	825.053
55.344	13.766	1070.430	824.578
56.359	13.624	1069.500	823.084
57.374	13.575	1069.003	822.387
58.388	13.609	1067.996	821.707
59.403	13.466	1067.267	820.365
60.417	13.447	1066.698	819.762
61.432	13.508	1065.708	819.229
62.447	13.553	1064.560	818.496
63.461	13.419	1064.551	817.756
64.476	13.547	1062.999	817.121
65.490	13.463	1062.382	816.163
66.505	13.432	1061.616	815.348
67.520	13.426	1061.547	815.193
68.534	13.497	1060.161	814.406
69.549	13.464	1059.631	813.763
70.563	13.499	1058.585	813.060
71.578	13.402	1057.948	812.026
72.593	13.415	1056.793	811.128
73.607	13.385	1056.691	810.832
74.622	13.435	1055.799	810.321
75.636	13.489	1055.155	810.021
76.651	13.575	1053.768	809.305
77.666	13.397	1053.754	808.349
78.680	13.597	1052.576	808.353
79.695	13.497	1052.180	807.487
80.709	13.510	1051.511	806.965
81.724	13.483	1050.942	806.328
82.739	13.547	1050.115	805.932
83.753	13.642	1049.095	805.540
84.768	13.697	1048.289	805.117
85.782	13.656	1047.596	804.316
86.797	13.671	1046.541	803.509
87.812	13.563	1045.539	802.144
88.826	13.689	1044.347	801.764
89.841	13.699	1043.439	801.049
90.855	13.668	1042.570	800.160
91.870	13.757	1041.492	799.693
92.884	13.622	1040.916	798.526
93.899	13.779	1040.017	798.520
94.914	13.761	1039.362	797.862
95.928	13.733	1038.066	796.665
96.943	13.671	1037.616	795.950
97.957	13.751	1036.776	795.617
98.972	13.780	1035.316	794.565
99.987	13.667	1034.700	793.483
101.001	13.691	1033.621	792.698
102.016	13.719	1032.809	792.141
103.030	13.706	1032.069	791.441
104.045	13.647	1031.624	790.746
105.060	13.732	1030.470	790.200
106.074	13.486	1029.649	788.328
107.089	13.598	1028.726	788.082
108.103	13.542	1027.969	787.168
109.118	13.685	1026.477	786.636
110.133	13.549	1025.785	785.391
111.147	13.696	1024.783	785.248
112.162	13.717	1023.907	784.609
113.176	13.755	1022.892	783.939
114.191	13.718	1022.570	783.449
115.206	13.714	1021.715	782.708
116.220	13.739	1020.368	781.721
117.235	13.712	1019.726	781.035
118.249	13.610	1018.921	779.869
119.264	13.731	1018.302	779.894
120.279	13.579	1017.674	778.632
121.293	13.680	1016.623	778.234
122.308	13.636	1015.955	777.444
123.322	13.729	1014.553	776.738
124.337	13.679	1013.419	775.567
125.352	13.585	1012.557	774.400
126.366	13.608	1011.246	773.439
127.381	13.690	1009.974	772.779
128.395	13.738	1009.514	772.583
129.410	13.715	1008.262	771.448
130.424	13.706	1007.612	770.839
131.439	13.770	1006.699	770.370
132.454	13.873	1005.588	769.929
133.468	13.859	1004.900	769.273
134.483	13.815	1004.198	768.460
135.497	13.795	1002.979	767.370
136.512	13.914	1002.434	767.435
137.527	13.736	1001.943	766.166
138.541	13.875	1000.726	765.809
139.556	13.764	1000.092	764.746
140.570	13.757	999.640	764.301
141.585	13.887	998.579	764.018
142.600	13.939	997.838	763.624
143.614	14.039	996.666	763.118
144.629	14.054	996.070	762.665
145.643	13.947	994.940	761.242
146.658	13.868	994.088	760.161
147.673	13.821	993.101	759.124
148.687	13.840	992.224	758.472
149.702	13.779	991.530	757.596
150.716	13.709	990.994	756.799
151.731	13.842	989.742	756.381
152.746	13.854	989.251	755.993
153.760	13.804	988.829	755.379
154.775	13.851	988.209	755.051
155.789	13.907	987.457	754.665
156.804	13.941	986.775	754.233
157.819	13.949	985.916	753.546
158.833	13.979	985.079	752.974
159.848	13.997	984.435	752.497
160.862	14.070	982.912	751.598
161.877	13.959	982.404	750.642
162.892	14.036	981.409	750.161
163.906	14.066	980.097	749.226
164.921	13.866	980.022	748.202
165.935	13.938	978.995	747.676
166.950	14.007	978.127	747.255
167.964	13.946	977.040	746.086
168.979	14.052	976.189	745.847
169.994	14.092	975.268	745.253
171.008	14.030	974.649	744.439
172.023	14.110	974.096	744.311
173.037	14.137	972.990	743.518
174.052	14.167	972.221	742.999
175.067	13.980	971.898	741.849
176.081	14.118	970.869	741.615
177.096	14.015	970.470	740.787
178.110	14.079	969.478	740.249
179.125	14.136	969.075	740.131
180.140	14.241	968.643	740.202
181.154	14.056	968.426	739.147
182.169	14.125	967.635	738.786
183.183	14.430	966.389	739.122
184.198	14.322	966.423	738.602
185.213	14.244	965.559	737.531
186.227	14.259	964.496	736.722
187.242	14.384	963.688	736.590
188.256	14.384	963.204	736.156
189.271	14.364	962.469	735.438
190.286	14.361	961.453	734.587
191.300	14.119	961.393	733.409
192.315	14.041	960.545	732.351
193.329	14.274	959.936	732.847
194.344	14.228	959.190	732.014
195.359	14.324	958.481	731.826
196.373	14.295	958.245	731.455
197.388	14.445	957.123	731.193
198.402	14.529	956.705	731.178
199.417	14.404	956.449	730.366
200.432	14.455	955.627	729.900
201.446	14.499	955.233	729.727
202.461	14.582	954.333	729.336
203.475	14.549	953.879	728.780
204.490	14.510	953.373	728.162
205.504	14.534	952.491	727.527
206.519	14.584	951.810	727.159
207.534	14.560	950.934	726.321
208.548	14.467	950.578	725.582
209.563	14.599	949.475	725.248
210.577	14.421	949.479	724.412
211.592	14.575	948.195	724.039
212.607	14.746	947.443	724.143
213.621	14.746	946.513	723.369
214.636	14.669	945.746	722.384
215.650	14.667	945.413	722.055
216.665	14.727	944.450	721.517
217.680	14.837	943.681	721.339
218.694	14.862	943.228	721.037
219.709	14.785	942.774	720.296
220.723	14.746	942.052	719.510
221.738	14.770	941.264	718.948
222.753	14.766	940.486	718.275
223.767	14.914	939.927	718.421
224.782	14.900	939.057	717.632
225.796	14.857	938.854	717.226
226.811	14.912	937.797	716.593
227.826	14.859	937.214	715.857
228.840	14.972	936.084	715.412
229.855	14.728	935.709	714.022
230.869	14.912	934.664	713.947
231.884	14.898	933.903	713.240
232.899	14.965	933.147	712.886
233.913	14.754	932.920	711.750
234.928	14.849	931.590	711.078
235.942	14.888	931.600	711.187
236.957	14.831	931.064	710.475
237.972	14.885	930.205	709.983
238.986	14.875	929.381	709.250
240.001	15.002	928.749	709.246
241.015	14.867	928.448	708.378
242.030	14.902	927.907	708.052
243.045	14.950	926.854	707.388
244.059	14.916	926.517	706.926
245.074	15.058	925.377	706.591
246.088	15.068	924.918	706.220
247.103	15.113	924.167	705.774
248.117	15.138	923.973	705.669
249.132	15.268	923.192	705.558
250.147	15.334	922.338	705.121
251.161	15.206	922.013	704.273
252.176	15.286	921.244	703.958
253.190	15.266	920.124	702.955
254.205	15.456	919.495	703.210
255.220	15.325	919.169	702.350
256.234	15.385	918.598	702.101
257.249	15.226	917.898	700.838
258.263	15.391	917.111	700.868
259.278	15.421	915.979	700.066
260.293	15.454	915.585	699.838
261.307	15.455	915.158	699.455
262.322	15.427	914.373	698.674
263.336	15.590	913.105	698.322
264.351	15.519	912.344	697.384
265.366	15.664	911.842	697.541
266.380	15.534	911.820	696.923
267.395	15.408	911.307	695.946
268.409	15.427	910.258	695.162
269.424	15.497	909.638	694.916
270.439	15.459	908.507	693.833
271.453	15.581	907.932	693.839
272.468	15.548	907.523	693.329
273.482	15.559	906.851	692.801
274.497	15.612	906.077	692.364
275.512	15.697	905.355	692.100
276.526	15.575	905.075	691.324
277.541	15.633	904.573	691.120
278.555	15.721	903.704	690.754
279.570	15.815	903.171	690.674
280.585	15.701	902.561	689.677
281.599	15.784	901.761	689.345
282.614	15.670	901.345	688.498
283.628	15.716	900.483	687.968
284.643	15.669	899.944	687.302
285.657	15.736	899.662	687.302
286.672	15.742	898.521	686.393
287.687	15.779	898.177	686.220
288.701	15.874	897.411	685.959
289.716	16.016	896.589	685.848
290.730	16.001	896.122	685.371
291.745	15.965	895.657	684.809
292.760	15.992	895.139	684.462
293.774	16.145	894.230	684.325
294.789	15.994	893.551	683.134
295.803	15.880	892.902	682.115
296.818	15.898	892.121	681.531
297.833	16.012	891.475	681.438
298.847	15.994	890.838	680.818
299.862	16.126	890.165	680.779
300.876	16.092	889.440	680.024
301.891	16.178	888.483	679.581
302.906	16.160	888.639	679.565
303.920	16.135	888.129	679.016
304.935	16.138	887.345	678.369
305.949	16.228	886.670	678.155
306.964	16.109	886.535	677.512
307.979	16.151	885.450	676.790
308.993	16.283	884.871	676.820
310.008	16.389	884.130	676.618
311.022	16.282	883.681	675.784
312.037	16.252	883.149	675.196
313.052	16.321	882.432	674.865
314.066	16.084	882.290	673.749
315.081	16.177	881.195	673.226
316.095	16.303	880.575	673.195
317.110	16.178	880.316	672.440
318.125	16.314	879.748	672.486
319.139	16.363	879.436	672.384
320.154	16.200	879.148	671.458
321.168	16.335	878.129	671.156
322.183	16.276	877.311	670.239
323.197	16.323	876.831	669.998
324.212	16.531	876.097	670.202
325.227	16.402	875.879	669.463
326.241	16.367	875.398	668.897
327.256	16.265	875.390	668.429
328.270	16.358	873.844	667.556
329.285	16.503	873.228	667.599
330.300	16.324	873.175	666.792
331.314	16.341	872.753	666.479
332.329	16.315	872.034	665.769
333.343	16.475	871.266	665.754
334.358	16.545	871.008	665.773
335.373	16.307	870.904	664.697
336.387	16.528	870.193	664.967
337.402	16.642	869.938	665.160
338.416	16.558	869.632	664.538
339.431	16.541	869.172	664.059
340.446	16.596	868.438	663.656
341.460	16.667	868.131	663.641
342.475	16.636	868.046	663.396
343.489	16.808	866.920	663.152
344.504	16.741	866.560	662.554
345.519	16.788	866.347	662.518
346.533	16.771	865.675	661.877
347.548	16.769	865.348	661.561
348.562	16.705	864.639	660.710
349.577	16.743	864.201	660.466
350.592	16.811	863.299	659.983
351.606	16.801	862.688	659.418
352.621	16.699	862.174	658.572
353.635	16.775	861.613	658.380
354.650	16.784	860.893	657.808
355.665	16.859	860.089	657.426
356.679	16.755	859.502	656.514
357.694	16.857	859.150	656.582
358.708	16.831	858.144	655.657
359.723	16.922	857.362	655.353
360.738	16.889	857.008	654.896
361.752	16.922	856.417	654.513
362.767	16.905	856.069	654.123
363.781	16.916	855.735	653.854
364.796	17.032	855.019	653.695
365.810	17.129	854.148	653.345
366.825	17.080	854.015	652.999
367.840	17.031	853.698	652.508
368.854	16.976	853.267	651.908
369.869	17.258	852.305	652.198
370.883	17.144	851.992	651.464
371.898	17.147	851.905	651.353
372.913	17.185	851.437	651.082
373.927	17.135	850.813	650.355
374.942	17.281	850.216	650.400
375.956	17.223	850.039	649.984
376.971	17.337	849.317	649.813
377.986	17.474	848.866	649.934
379.000	17.393	848.471	649.264
380.015	17.340	847.660	648.385
381.029	17.394	846.965	647.998
382.044	17.365	846.572	647.533
383.059	17.486	845.841	647.377
384.073	17.483	845.679	647.182
385.088	17.414	845.163	646.469
386.102	17.369	844.521	645.750
387.117	17.381	844.023	645.356
388.132	17.384	843.247	644.718
389.146	17.437	842.620	644.382
390.161	17.438	841.989	643.848
391.175	17.473	841.570	643.600
392.190	17.662	840.731	643.615
393.205	17.526	840.430	642.816
394.219	17.532	840.330	642.706
395.234	17.458	839.912	642.050
396.248	17.486	839.250	641.590
397.263	17.518	838.912	641.399
398.278	17.432	838.599	640.776
399.292	17.385	838.160	640.206
400.307	17.545	837.794	640.476
401.321	17.511	837.398	639.988
402.336	17.538	836.542	639.375
403.350	17.629	836.050	639.287
404.365	17.633	835.922	639.148
405.380	17.758	835.321	639.099
406.394	17.669	834.581	638.144
407.409	17.753	834.423	638.279
408.423	17.702	834.313	637.948
409.438	17.834	833.791	637.987
410.453	17.746	833.236	637.175
411.467	17.937	832.437	637.224
412.482	17.847	832.026	636.514
413.496	17.890	831.657	636.337
414.511	17.989	831.509	636.535
415.526	18.038	830.826	636.138
416.540	17.886	830.429	635.212
417.555	17.970	829.824	635.009
418.569	17.969	829.591	634.768
419.584	17.956	829.126	634.309
420.599	18.065	828.452	634.142
421.613	94.284	1271.304	1385.598
422.628	81.327	1335.858	1385.706
