DTS Sentinel unit serial number:	SN413079Multiplexer serial number:	ORYXHardware model number:	OX4-SRSoftware version number:	ORYX F/W v4.00 Oryx Data Collector v3.7.2.0data status	okinstallation	princeton_trtdifferential loss correction	single-endedforward channel	channel 1reverse channel	N/Adate	2019/09/11time	12:20:11forward acquisition time	60.00reverse acquisition time	0.00gamma	496.2192k internal	0.2293k external	0.2293temperature offset calibration	0.9938default loss term (dB/km)	0.3790temperature slope calibration	1.0000multiplexer offset coefficient	1.0000multiplexer slope coefficient	1.0000fibre end	0.00T internal ref (°C)	40.08T ext. ref 1 (°C)	0.19T ext. ref 2 (°C)	38.40length (m)	temperature (°C)	Stokes	anti-Stokes-747.200	-80.527	0.468	-0.160
-746.185	-114.079	0.565	0.112
-745.171	82.600	0.205	0.228
-744.156	10.114	0.130	0.101
-743.142	-200.000	0.050	-0.418
-742.127	32.719	0.145	-0.128
-741.112	-200.000	-0.009	-0.206
-740.098	-183.329	-0.224	0.004
-739.083	179.736	0.047	0.071
-738.069	-200.000	-0.022	0.251
-737.054	800.000	-0.050	0.146
-736.039	44.838	-0.130	0.123
-735.025	-200.000	-0.008	0.241
-734.010	290.770	0.082	-0.153
-732.996	245.299	-0.239	-0.410
-731.981	-99.036	-0.070	0.018
-730.966	800.000	-0.050	-0.149
-729.952	-84.441	-0.349	-0.113
-728.937	-113.142	-0.089	0.018
-727.923	408.177	0.029	0.062
-726.908	-110.506	-0.350	-0.074
-725.894	595.318	-0.125	-0.316
-724.879	-73.323	0.082	0.031
-723.864	-159.501	-0.230	-0.013
-722.850	256.295	-0.190	0.334
-721.835	-147.224	-0.677	0.059
-720.821	47.596	-0.081	-0.077
-719.806	152.477	-0.185	-0.258
-718.791	-200.000	0.031	-0.186
-717.777	-200.000	0.009	-0.280
-716.762	-74.632	-0.156	-0.058
-715.748	-15.443	-0.144	0.094
-714.733	-109.208	-0.345	0.075
-713.718	-24.857	-0.197	0.120
-712.704	-97.068	0.045	-0.012
-711.689	-53.623	0.248	0.116
-710.675	-68.655	0.160	0.063
-709.660	-40.935	-0.106	-0.056
-708.645	41.677	0.119	0.110
-707.631	-47.810	-0.069	0.034
-706.616	354.207	0.109	0.220
-705.602	-66.366	0.221	-0.090
-704.587	-135.735	-0.137	-0.017
-703.572	88.640	-0.052	-0.059
-702.558	-99.987	0.084	-0.021
-701.543	609.208	-0.160	0.408
-700.529	-173.219	-0.421	-0.013
-699.514	-200.000	0.041	-0.358
-698.499	800.000	0.009	-0.027
-697.485	-0.410	-0.197	-0.143
-696.470	94.734	0.100	0.116
-695.456	9.687	0.211	-0.163
-694.441	-65.657	-0.264	-0.108
-693.426	-128.077	-0.103	-0.015
-692.412	-200.000	0.022	-0.190
-691.397	33.834	-0.130	-0.115
-690.383	38.776	0.286	-0.260
-689.368	47.711	0.183	-0.174
-688.354	175.403	-0.125	0.185
-687.339	40.673	0.066	-0.060
-686.324	96.316	0.119	-0.139
-685.310	800.000	-0.071	0.262
-684.295	800.000	0.034	0.102
-683.281	-115.072	-0.093	0.018
-682.266	79.729	-0.311	-0.341
-681.251	-121.226	-0.172	0.029
-680.237	-197.291	-0.149	-0.001
-679.222	-200.000	0.045	0.207
-678.208	74.531	0.327	-0.351
-677.193	-22.634	0.307	0.189
-676.178	-41.725	0.206	0.108
-675.164	352.201	-0.093	0.189
-674.149	446.252	-0.037	-0.082
-673.135	-200.000	0.000	0.071
-672.120	758.401	-0.037	-0.103
-671.105	-200.000	-0.023	-0.216
-670.091	257.574	-0.127	0.223
-669.076	712.976	0.043	0.116
-668.062	-116.007	-0.153	0.029
-667.047	-134.354	-0.237	0.030
-666.032	-71.962	-0.091	-0.035
-665.018	-200.000	-0.031	-0.140
-664.003	-68.261	0.022	0.009
-662.989	-61.069	0.058	-0.025
-661.974	243.860	-0.050	-0.086
-660.959	-200.000	0.010	-0.443
-659.945	-49.996	-0.161	0.078
-658.930	-200.000	0.016	0.088
-657.916	-200.000	-0.032	-0.200
-656.901	125.370	-0.131	0.169
-655.886	386.992	-0.048	0.102
-654.872	-94.502	-0.228	0.063
-653.857	-93.621	0.294	-0.083
-652.843	697.417	0.095	-0.253
-651.828	-99.025	0.412	0.106
-650.814	58.218	-0.095	-0.095
-649.799	-89.717	-0.206	-0.061
-648.784	-200.000	-0.001	-0.052
-647.770	-200.000	0.046	-0.359
-646.755	-159.787	-0.455	0.026
-645.741	-106.104	0.109	0.025
-644.726	34.242	-0.164	0.145
-643.711	159.651	-0.086	-0.123
-642.697	800.000	-0.124	-0.420
-641.682	-125.333	-0.466	0.073
-640.668	-200.000	-0.025	0.144
-639.653	-85.404	-0.221	-0.070
-638.638	25.720	0.289	-0.245
-637.624	-200.000	0.021	0.115
-636.609	-168.113	-0.097	-0.004
-635.595	508.696	-0.120	-0.284
-634.580	68.832	-0.069	0.072
-633.565	-38.420	-0.391	-0.211
-632.551	-200.000	0.009	-0.054
-631.536	-70.125	-0.078	-0.030
-630.522	125.374	0.161	0.207
-629.507	438.180	0.046	-0.102
-628.492	194.260	0.057	-0.088
-627.478	-133.387	0.125	-0.016
-626.463	800.000	0.060	0.199
-625.449	-26.285	0.321	0.192
-624.434	41.094	0.289	0.266
-623.419	-28.989	0.046	-0.027
-622.405	104.397	-0.042	0.050
-621.390	2.237	0.230	-0.169
-620.376	0.927	0.211	0.154
-619.361	-160.081	0.186	0.010
-618.346	789.255	-0.061	0.171
-617.332	-91.534	-0.153	-0.044
-616.317	33.794	-0.225	0.200
-615.303	-200.000	-0.070	0.379
-614.288	-16.741	0.058	-0.037
-613.273	-110.282	0.256	-0.054
-612.259	54.493	-0.166	0.163
-611.244	-200.000	-0.056	-0.290
-610.230	64.845	-0.215	0.221
-609.215	-127.547	-0.016	-0.002
-608.201	-200.000	-0.012	-0.203
-607.186	-161.200	0.248	-0.013
-606.171	60.574	-0.196	0.197
-605.157	106.157	-0.168	-0.202
-604.142	800.000	0.087	-0.250
-603.128	-200.000	-0.012	-0.129
-602.113	800.000	-0.072	-0.212
-601.098	-200.000	-0.027	0.192
-600.084	235.477	0.101	-0.170
-599.069	-40.397	0.163	-0.086
-598.055	-133.344	-0.217	0.028
-597.040	24.716	0.142	-0.119
-596.025	364.442	-0.118	-0.241
-595.011	-37.910	-0.207	-0.112
-593.996	-200.000	-0.039	0.318
-592.982	-200.000	0.055	0.460
-591.967	-173.771	-0.236	-0.007
-590.952	-127.744	-0.095	0.014
-589.938	24.734	-0.368	0.310
-588.923	-89.179	-0.440	0.132
-587.909	-158.281	-0.080	0.005
-586.894	800.000	-0.075	-0.312
-585.879	-200.000	0.083	0.374
-584.865	265.410	-0.075	0.132
-583.850	-200.000	0.002	-0.174
-582.836	83.464	-0.165	-0.183
-581.821	30.665	-0.316	-0.275
-580.806	-67.449	-0.045	-0.018
-579.792	24.346	0.001	0.001
-578.777	9.761	0.059	0.045
-577.763	800.000	0.039	-0.119
-576.748	22.748	0.038	-0.031
-575.733	-41.290	-0.060	-0.032
-574.719	800.000	-0.085	-0.248
-573.704	46.401	-0.254	-0.239
-572.690	-200.000	-0.008	-0.244
-571.675	-200.000	0.023	-0.543
-570.661	-66.365	-0.206	-0.083
-569.646	602.406	0.065	0.164
-568.631	-99.558	-0.351	0.090
-567.617	-57.380	0.218	0.097
-566.602	449.931	-0.112	-0.251
-565.588	-80.925	-0.293	-0.099
-564.573	-200.000	-0.000	0.029
-563.558	-71.793	0.249	0.094
-562.544	800.000	0.065	0.186
-561.529	-49.281	-0.132	0.064
-560.515	-59.892	0.222	-0.096
-559.500	800.000	-0.118	-0.444
-558.485	-200.000	0.031	-0.199
-557.471	-196.803	-0.354	0.002
-556.456	219.006	0.034	-0.055
-555.442	800.000	-0.060	-0.262
-554.427	-57.784	0.131	0.058
-553.412	-17.230	-0.110	-0.070
-552.398	-87.188	0.507	-0.156
-551.383	-200.000	-0.034	-0.367
-550.369	115.639	-0.131	-0.163
-549.354	198.102	-0.152	-0.235
-548.339	144.887	-0.186	0.253
-547.325	-200.000	0.024	0.360
-546.310	-80.517	0.210	-0.071
-545.296	-168.493	-0.111	0.004
-544.281	-53.249	0.337	-0.157
-543.266	800.000	-0.044	-0.193
-542.252	-118.940	0.143	-0.025
-541.237	41.587	-0.276	0.254
-540.223	6.982	0.222	0.168
-539.208	800.000	0.086	0.250
-538.193	237.222	-0.208	0.350
-537.179	-97.154	0.401	-0.106
-536.164	-69.882	-0.493	0.191
-535.150	800.000	-0.031	0.094
-534.135	-0.589	0.126	-0.091
-533.121	-200.000	-0.003	0.127
-532.106	-94.589	-0.069	0.019
-531.091	800.000	-0.154	0.487
-530.077	45.088	-0.212	0.198
-529.062	-200.000	-0.018	-0.150
-528.048	-66.485	0.328	-0.132
-527.033	19.995	-0.137	-0.112
-526.018	-41.212	0.263	-0.137
-525.004	-115.424	-0.242	0.046
-523.989	-105.500	-0.318	0.073
-522.975	-0.521	0.090	-0.065
-521.960	-119.643	-0.364	0.064
-520.945	430.484	-0.062	0.136
-519.931	800.000	0.033	-0.117
-518.916	13.887	-0.250	0.197
-517.902	41.768	-0.292	0.268
-516.887	-106.903	-0.307	0.069
-515.872	-200.000	0.009	-0.043
-514.858	49.524	-0.178	0.170
-513.843	-121.520	-0.146	0.025
-512.829	-44.434	0.077	0.039
-511.814	-33.531	0.251	0.141
-510.799	-154.181	-0.303	0.021
-509.785	-50.183	0.176	0.084
-508.770	-72.152	0.335	0.126
-507.756	124.038	-0.204	0.260
-506.741	-20.517	-0.038	-0.023
-505.726	-200.000	0.002	0.144
-504.712	196.261	0.200	-0.308
-503.697	-124.659	0.245	-0.039
-502.683	-16.058	0.130	-0.084
-501.668	-91.803	-0.207	0.059
-500.653	-2.478	-0.044	-0.031
-499.639	800.000	0.035	-0.135
-498.624	-148.370	-0.048	-0.004
-497.610	-25.306	-0.189	-0.113
-496.595	2.944	0.224	0.165
-495.581	-118.759	-0.097	-0.017
-494.566	800.000	0.063	0.189
-493.551	-82.146	0.272	0.090
-492.537	800.000	0.109	-0.323
-491.522	14.673	0.059	-0.047
-490.508	800.000	0.055	-0.229
-489.493	-82.541	-0.014	0.005
-488.478	94.708	0.118	-0.136
-487.464	-90.079	0.333	-0.098
-486.449	-78.880	0.152	-0.052
-485.435	34.812	0.142	-0.126
-484.420	52.243	-0.201	-0.194
-483.405	204.346	-0.266	-0.417
-482.391	-14.649	-0.183	-0.119
-481.376	176.089	-0.088	0.130
-480.362	22.981	0.370	0.308
-479.347	8.212	-0.186	-0.142
-478.332	-132.624	0.091	-0.012
-477.318	-77.211	-0.092	-0.032
-476.303	383.687	-0.069	-0.143
-475.289	-61.690	0.167	-0.071
-474.274	211.345	-0.026	0.042
-473.259	-200.000	0.405	0.002
-472.245	-141.662	0.182	0.019
-471.230	284.681	0.081	0.148
-470.216	800.000	-0.046	0.132
-469.201	518.854	0.023	-0.055
-468.186	-112.866	-0.635	0.127
-467.172	800.000	0.019	-0.065
-466.157	-200.000	-0.024	0.143
-465.143	234.849	0.042	0.070
-464.128	214.463	0.269	0.431
-463.113	800.000	-0.071	-0.205
-462.099	-200.000	0.056	-0.257
-461.084	-27.032	0.256	-0.151
-460.070	166.868	-0.129	0.186
-459.055	-200.000	-0.020	0.156
-458.040	-31.907	-0.225	0.128
-457.026	-20.157	-0.102	-0.064
-456.011	-200.000	0.005	0.038
-454.997	145.278	0.078	0.106
-453.982	-23.017	0.268	0.163
-452.968	568.787	-0.089	-0.220
-451.953	-156.137	-0.458	0.029
-450.938	-110.937	-0.420	-0.087
-449.924	312.078	0.053	0.101
-448.909	-134.019	0.214	0.027
-447.895	-93.598	0.287	0.080
-446.880	-40.138	-0.153	0.081
-445.865	800.000	-0.054	-0.158
-444.851	-104.670	0.054	0.013
-443.836	166.361	0.094	0.135
-442.822	33.344	0.176	-0.155
-441.807	-57.997	0.127	0.056
-440.792	764.758	-0.039	-0.106
-439.778	54.588	0.193	-0.188
-438.763	-32.875	-0.165	0.093
-437.749	-165.065	0.413	-0.019
-436.734	-15.532	0.189	0.122
-435.719	-64.802	0.293	0.120
-434.705	800.000	-0.060	-0.188
-433.690	121.497	-0.114	-0.144
-432.676	31.291	0.019	0.016
-431.661	-89.129	0.244	0.073
-430.646	800.000	-0.062	0.180
-429.632	120.113	-0.195	-0.244
-428.617	57.267	0.155	-0.153
-427.603	82.811	-0.202	-0.221
-426.588	800.000	0.033	0.134
-425.573	290.553	-0.104	0.191
-424.559	338.972	-0.140	0.275
-423.544	-42.360	-0.054	0.028
-422.530	800.000	-0.012	0.039
-421.515	244.063	-0.124	-0.210
-420.500	-15.389	-0.113	-0.073
-419.486	1.448	0.333	-0.242
-418.471	-104.388	-0.073	0.017
-417.457	-27.618	0.052	-0.031
-416.442	-168.369	0.281	0.011
-415.428	800.000	0.062	0.202
-414.413	-46.486	-0.167	-0.083
-413.398	-200.000	-0.041	-0.247
-412.384	800.000	0.038	-0.131
-411.369	-16.651	0.154	0.099
-410.355	-200.000	-0.005	0.213
-409.340	302.575	0.032	-0.060
-408.325	-200.000	-0.010	0.079
-407.311	-99.624	0.063	-0.016
-406.296	35.888	-0.285	-0.253
-405.282	-40.325	-0.144	0.075
-404.267	614.629	-0.085	-0.215
-403.252	-200.000	0.019	-0.213
-402.238	-64.150	0.240	0.099
-401.223	-28.115	-0.146	0.085
-400.209	-15.433	-0.435	0.281
-399.194	-4.564	0.294	-0.205
-398.179	121.530	-0.132	0.166
-397.165	800.000	0.038	0.132
-396.150	119.252	-0.136	-0.170
-395.136	-8.673	0.152	0.103
-394.121	-119.372	0.093	-0.016
-393.106	-200.000	-0.009	0.173
-392.092	-200.000	-0.008	-0.235
-391.077	14.172	-0.235	-0.185
-390.063	-109.906	-0.156	-0.033
-389.048	-109.205	0.328	-0.070
-388.033	800.000	-0.075	-0.244
-387.019	-46.807	-0.351	0.173
-386.004	35.843	0.199	-0.177
-384.990	183.514	0.164	0.244
-383.975	285.320	-0.077	0.139
-382.960	-76.135	-0.221	-0.079
-381.946	-96.150	-0.192	-0.051
-380.931	21.458	-0.104	-0.086
-379.917	-29.782	0.298	0.172
-378.902	18.546	0.123	-0.099
-377.888	21.638	-0.091	0.075
-376.873	-133.151	-0.150	0.019
-375.858	3.218	-0.128	-0.094
-374.844	193.090	0.096	-0.147
-373.829	116.784	0.048	-0.060
-372.815	-106.825	0.217	0.049
-371.800	-5.442	0.145	0.100
-370.785	4.154	-0.110	-0.081
-369.771	-150.528	0.145	0.011
-368.756	589.578	0.056	-0.140
-367.742	761.919	0.079	-0.215
-366.727	62.829	0.118	0.119
-365.712	39.597	-0.130	-0.118
-364.698	134.614	0.091	0.120
-363.683	-109.159	-0.191	-0.041
-362.669	77.990	-0.313	-0.336
-361.654	-128.074	-0.260	0.037
-360.639	-200.000	0.048	-0.221
-359.625	-93.665	0.262	-0.073
-358.610	31.392	-0.209	-0.181
-357.596	-200.000	-0.069	0.320
-356.581	252.808	0.067	-0.116
-355.566	-29.219	-0.140	0.081
-354.552	82.035	0.229	0.250
-353.537	-200.000	0.054	-0.239
-352.523	-123.719	0.393	0.063
-351.508	-9.576	-0.173	-0.116
-350.493	800.000	0.094	0.329
-349.479	800.000	0.008	0.027
-348.464	-113.024	0.280	-0.056
-347.450	-8.808	-0.084	0.057
-346.435	800.000	0.041	0.120
-345.420	800.000	0.013	-0.046
-344.406	-164.408	0.377	0.017
-343.391	-200.000	-0.031	0.339
-342.377	-200.000	-0.012	-0.179
-341.362	543.458	0.110	0.265
-340.348	99.828	0.076	-0.088
-339.333	800.000	-0.104	0.331
-338.318	-200.000	0.009	0.495
-337.304	-72.535	-0.233	-0.087
-336.289	-108.106	-0.190	0.041
-335.275	390.554	0.095	0.198
-334.260	-11.347	0.072	0.048
-333.245	-132.726	0.118	0.015
-332.231	49.682	-0.166	0.157
-331.216	800.000	-0.031	0.110
-330.202	-200.000	-0.035	0.290
-329.187	-136.097	-0.178	0.021
-328.172	292.024	0.022	0.040
-327.158	75.940	-0.156	-0.166
-326.143	-132.184	0.259	-0.034
-325.129	11.026	-0.245	-0.188
-324.114	251.119	-0.155	-0.266
-323.099	-85.793	0.256	0.080
-322.085	-178.724	0.335	0.008
-321.070	260.600	0.043	-0.074
-320.056	-200.000	0.003	0.200
-319.041	-10.048	-0.221	-0.148
-318.026	-2.326	-0.245	0.173
-317.012	-200.000	0.024	-0.321
-315.997	341.151	0.194	-0.381
-314.983	-200.000	0.053	0.236
-313.968	-88.692	0.070	0.021
-312.953	24.745	-0.213	0.177
-311.939	-200.000	0.056	-0.426
-310.924	-200.000	-0.014	-0.259
-309.910	-114.085	0.357	-0.069
-308.895	-26.382	0.137	0.081
-307.880	348.335	-0.021	0.041
-306.866	-156.442	-0.288	0.018
-305.851	159.817	0.042	0.058
-304.837	-111.225	0.165	-0.034
-303.822	475.149	-0.059	0.134
-302.807	-200.000	-0.008	0.041
-301.793	37.977	0.093	0.083
-300.778	-1.303	0.110	0.078
-299.764	-20.430	-0.068	0.042
-298.749	451.516	0.121	0.268
-297.735	-144.015	-0.094	-0.009
-296.720	783.498	0.151	0.416
-295.705	83.453	-0.091	0.099
-294.691	-200.000	0.021	0.100
-293.676	-174.962	-0.285	0.008
-292.662	800.000	0.153	0.427
-291.647	-98.838	-0.230	-0.059
-290.632	101.990	0.189	0.222
-289.618	800.000	-0.071	-0.211
-288.603	-200.000	-0.015	-0.144
-287.589	-57.580	-0.484	-0.213
-286.574	-200.000	0.033	-0.239
-285.559	43.253	0.078	-0.071
-284.545	800.000	0.075	-0.249
-283.530	-6.447	-0.088	0.061
-282.516	300.789	0.117	0.216
-281.501	312.346	0.128	0.242
-280.486	231.857	0.085	0.141
-279.472	5.610	0.156	0.116
-278.457	662.213	0.067	0.174
-277.443	800.000	0.156	0.440
-276.428	156.334	0.026	-0.035
-275.413	256.816	0.098	0.169
-274.399	-116.478	-0.041	0.008
-273.384	79.018	-0.160	-0.172
-272.370	0.448	-0.114	0.082
-271.355	95.320	-0.156	0.178
-270.340	-40.631	0.107	0.056
-269.326	115.387	-0.028	-0.034
-268.311	800.000	-0.033	-0.117
-267.297	-152.122	0.132	0.010
-266.282	-60.910	0.116	-0.049
-265.267	97.573	-0.112	-0.130
-264.253	-67.076	0.163	0.064
-263.238	183.817	0.029	-0.043
-262.224	-120.735	0.220	-0.037
-261.209	-181.944	0.389	0.007
-260.195	-33.375	0.152	-0.084
-259.180	-104.342	0.174	0.040
-258.165	-200.000	0.025	0.155
-257.151	-147.992	-0.069	-0.006
-256.136	-104.932	0.390	-0.090
-255.122	-78.040	-0.122	0.042
-254.107	138.471	0.093	0.123
-253.092	-40.062	0.134	0.070
-252.078	-56.373	0.015	-0.007
-251.063	-25.467	0.197	-0.117
-250.049	785.266	-0.121	0.333
-249.034	-200.000	-0.025	-0.178
-248.019	-200.000	0.369	-0.001
-247.005	-91.825	0.201	0.057
-245.990	-42.277	0.204	-0.104
-244.976	-200.000	-0.008	-0.258
-243.961	-100.458	0.160	-0.040
-242.946	-200.000	0.035	0.293
-241.932	-73.523	-0.186	-0.068
-240.917	-106.027	0.282	-0.064
-239.903	-200.000	-0.056	-0.374
-238.888	-200.000	-0.001	0.101
-237.873	-200.000	-0.007	0.081
-236.859	-47.892	-0.310	0.151
-235.844	-184.939	-0.230	-0.004
-234.830	87.558	-0.213	-0.237
-233.815	800.000	-0.040	0.163
-232.800	198.232	-0.176	-0.270
-231.786	289.764	-0.045	0.081
-230.771	800.000	0.083	-0.335
-229.757	435.030	0.028	0.062
-228.742	-39.723	0.073	-0.038
-227.727	279.594	0.085	0.153
-226.713	144.431	0.094	0.125
-225.698	-200.000	0.013	0.197
-224.684	174.338	-0.090	0.131
-223.669	-150.789	-0.134	-0.010
-222.655	44.721	0.137	0.127
-221.640	248.665	0.137	-0.232
-220.625	-137.585	-0.255	-0.029
-219.611	761.470	0.006	-0.015
-218.596	300.860	-0.055	0.101
-217.582	-200.000	-0.035	0.568
-216.567	42.967	0.167	0.153
-215.552	52.016	-0.096	-0.092
-214.538	800.000	-0.073	0.280
-213.523	23.735	-0.081	0.067
-212.509	696.340	0.130	-0.343
-211.494	-200.000	-0.035	0.240
-210.479	9.343	0.268	-0.203
-209.465	14.863	0.176	0.138
-208.450	-118.888	0.208	-0.037
-207.436	195.407	-0.061	-0.093
-206.421	800.000	-0.078	-0.307
-205.406	-65.890	-0.173	-0.069
-204.392	54.571	0.220	-0.213
-203.377	-200.000	0.011	-0.153
-202.363	111.081	0.097	0.117
-201.348	31.084	0.167	0.143
-200.333	-34.289	-0.207	-0.114
-199.319	107.956	0.053	0.063
-198.304	401.781	-0.093	-0.195
-197.290	720.972	0.174	-0.462
-196.275	-200.000	-0.028	-0.270
-195.260	-12.601	-0.115	0.075
-194.246	72.513	0.317	-0.330
-193.231	-136.574	-0.016	0.002
-192.217	800.000	-0.106	0.326
-191.202	91.115	0.193	0.217
-190.187	124.540	-0.132	0.166
-189.173	800.000	0.103	0.323
-188.158	-78.632	0.055	-0.019
-187.144	217.311	-0.204	0.325
-186.129	23.051	-0.030	0.024
-185.114	800.000	0.067	-0.216
-184.100	80.734	0.197	0.212
-183.085	-33.285	-0.202	-0.112
-182.071	215.096	-0.083	0.131
-181.056	-38.708	0.119	-0.063
-180.042	-13.439	-0.120	-0.078
-179.027	-119.324	0.082	-0.014
-178.012	50.147	0.175	0.166
-176.998	-34.066	0.115	-0.063
-175.983	152.811	-0.041	0.056
-174.969	78.353	0.175	0.187
-173.954	68.515	-0.083	-0.085
-172.939	-42.266	0.074	0.038
-171.925	800.000	0.106	-0.388
-170.910	237.713	-0.034	-0.057
-169.896	-200.000	0.021	-0.121
-168.881	-73.001	-0.177	-0.065
-167.866	120.052	-0.135	0.168
-166.852	-115.910	0.314	-0.059
-165.837	-200.000	0.020	-0.301
-164.823	-200.000	-0.271	-0.000
-163.808	21.712	0.116	0.095
-162.793	30.691	-0.151	-0.129
-161.779	-155.638	0.081	-0.005
-160.764	-9.780	0.356	-0.237
-159.750	-30.987	-0.130	0.074
-158.735	-99.288	0.236	0.060
-157.720	800.000	-0.073	0.260
-156.706	147.959	-0.049	-0.066
-155.691	-78.101	0.211	0.073
-154.677	-80.357	-0.293	-0.098
-153.662	800.000	-0.048	0.177
-152.647	11.161	0.055	-0.042
-151.633	800.000	0.034	0.123
-150.618	-16.259	-0.243	0.154
-149.604	-21.193	-0.019	-0.012
-148.589	-200.000	-0.004	0.054
-147.574	466.449	0.087	0.194
-146.560	-82.074	-0.266	0.087
-145.545	29.953	0.329	-0.280
-144.531	237.561	0.086	0.142
-143.516	-200.000	-0.045	0.242
-142.502	-143.677	0.259	0.025
-141.487	639.539	0.104	-0.265
-140.472	-200.000	-0.049	-0.374
-139.458	800.000	-0.124	-0.479
-138.443	-200.000	0.049	-0.247
-137.429	172.368	0.131	0.188
-136.414	-82.902	0.120	-0.039
-135.399	43.687	0.066	-0.060
-134.385	81.695	-0.150	-0.162
-133.370	75.479	-0.143	0.151
-132.356	67.620	-0.291	-0.297
-131.341	-72.924	-0.194	-0.071
-130.326	-100.331	0.135	-0.033
-129.312	-145.342	0.502	-0.045
-128.297	-200.000	-0.008	-0.200
-127.283	-165.325	-0.203	0.009
-126.268	475.957	0.086	-0.193
-125.253	800.000	0.066	-0.237
-124.239	91.025	-0.224	-0.250
-123.224	-12.248	0.343	0.224
-122.210	-200.000	-0.020	0.113
-121.195	-79.927	-0.077	0.026
-120.180	-200.000	-0.022	0.137
-119.166	16.447	0.211	-0.167
-118.151	460.850	0.131	0.290
-117.137	800.000	-0.156	0.525
-116.122	800.000	-0.010	-0.030
-115.107	43.085	-0.248	-0.226
-114.093	452.236	0.045	-0.099
-113.078	-51.663	0.455	0.212
-112.064	418.641	-0.072	-0.153
-111.049	-200.000	-0.031	0.436
-110.034	-108.928	-0.257	0.055
-109.020	183.864	-0.197	0.290
-108.005	-136.115	0.125	-0.015
-106.991	-60.392	-0.177	0.075
-105.976	88.424	0.261	-0.290
-104.962	265.907	0.068	0.118
-103.947	-81.543	0.051	0.017
-102.932	504.337	-0.044	-0.102
-101.918	800.000	-0.018	-0.060
-100.903	59.651	0.161	0.158
-99.889	-200.000	0.044	-0.409
-98.874	-200.000	0.027	-0.129
-97.859	-126.191	-0.212	-0.032
-96.845	-200.000	-0.001	0.374
-95.830	-200.000	0.025	0.331
-94.816	-163.397	-0.153	0.007
-93.801	-93.825	0.118	-0.032
-92.786	-134.882	-0.282	0.034
-91.772	166.113	0.233	0.330
-90.757	800.000	-0.113	-0.314
-89.743	-153.489	0.128	-0.009
-88.728	120.492	0.114	0.142
-87.713	45.411	-0.213	-0.196
-86.699	389.719	0.079	0.164
-85.684	-200.000	-0.008	-0.187
-84.670	-56.352	-0.254	0.113
-83.655	104.033	0.111	0.130
-82.640	800.000	-0.049	-0.154
-81.626	-200.000	-0.021	-0.142
-80.611	267.678	0.044	0.077
-79.597	-200.000	0.042	-0.237
-78.582	-9.508	0.242	0.161
-77.567	21.726	0.216	-0.176
-76.553	-35.609	0.444	-0.240
-75.538	72.256	-0.342	0.355
-74.524	-200.000	0.069	0.319
-73.509	-149.179	0.103	0.008
-72.494	-200.000	-0.014	-0.193
-71.480	-200.000	-0.004	0.107
-70.465	800.000	0.075	-0.266
-69.451	23.014	0.204	0.166
-68.436	-85.083	0.186	0.058
-67.422	800.000	-0.118	-0.331
-66.407	327.106	0.131	-0.250
-65.392	112.769	0.055	-0.066
-64.378	-166.870	0.384	0.016
-63.363	-112.729	0.153	-0.030
-62.349	20.540	0.148	-0.120
-61.334	59.308	-0.807	-0.792
-60.319	-153.738	0.512	0.035
-59.305	370.294	0.284	-0.573
-58.290	38.473	0.616	0.547
-57.276	-200.000	0.284	1.547
-56.261	-200.000	75.951	496.307
-55.246	510.165	1344.356	3112.897
-54.232	142.610	2596.893	3434.525
-53.217	114.680	2250.128	2730.702
-52.203	51.913	1691.275	1603.124
-51.188	43.861	1413.179	1288.531
-50.173	40.237	1367.362	1224.344
-49.159	58.345	1402.144	1368.856
-48.144	64.868	1421.102	1427.972
-47.130	44.151	1384.267	1263.778
-46.115	40.218	1367.761	1224.384
-45.100	39.967	1362.859	1218.401
-44.086	39.787	1360.792	1215.397
-43.071	39.943	1357.962	1213.781
-42.057	39.831	1355.905	1211.204
-41.042	39.941	1353.718	1209.881
-40.027	39.883	1352.750	1208.612
-39.013	39.946	1350.504	1206.939
-37.998	39.930	1348.660	1205.146
-36.984	40.004	1346.964	1204.035
-35.969	40.164	1344.813	1203.037
-34.954	40.110	1343.133	1201.161
-33.940	40.109	1341.893	1199.996
-32.925	40.147	1340.047	1198.525
-31.911	40.224	1338.587	1197.638
-30.896	40.172	1337.217	1196.051
-29.881	40.273	1335.982	1195.508
-28.867	40.209	1334.189	1193.473
-27.852	40.227	1332.853	1192.341
-26.838	40.220	1331.490	1191.028
-25.823	40.294	1329.797	1189.910
-24.809	40.228	1328.535	1188.339
-23.794	40.108	1327.180	1186.360
-22.779	40.037	1325.969	1184.804
-21.765	40.253	1324.090	1184.374
-20.750	40.112	1323.386	1182.851
-19.736	40.063	1321.906	1181.188
-18.721	39.998	1320.508	1179.507
-17.706	39.992	1319.415	1178.448
-16.692	40.083	1318.201	1177.857
-15.677	40.063	1316.951	1176.579
-14.663	40.003	1315.741	1175.094
-13.648	39.946	1314.696	1173.774
-12.633	40.038	1313.335	1173.060
-11.619	40.055	1312.824	1172.656
-10.604	39.950	1311.924	1171.182
-9.590	39.998	1310.817	1170.431
-8.575	39.969	1310.047	1169.524
-7.560	40.031	1308.358	1168.339
-6.546	39.972	1307.947	1167.578
-5.531	39.969	1307.460	1167.080
-4.517	40.040	1306.216	1166.341
-3.502	39.970	1305.453	1165.197
-2.487	39.974	1304.335	1164.181
-1.473	40.149	1300.857	1162.056
-0.458	39.400	1286.000	1144.390
0.556	34.401	1266.880	1107.163
1.571	30.789	1271.586	1090.072
2.586	29.759	1286.774	1096.891
3.600	27.821	1274.603	1075.018
4.615	18.911	1194.732	958.138
5.629	6.240	1108.383	822.896
6.644	0.520	1083.758	775.224
7.659	0.198	1080.733	771.342
8.673	0.039	1079.130	769.317
9.688	-0.006	1077.874	768.123
10.702	0.441	1077.412	770.010
11.717	8.147	1089.582	818.302
12.731	19.092	1105.045	886.519
13.746	22.558	1108.646	907.203
14.761	22.300	1107.710	905.029
15.775	22.217	1107.203	904.110
16.790	21.966	1106.446	902.120
17.804	21.974	1105.547	901.351
18.819	22.006	1105.186	901.141
19.834	22.126	1104.508	901.125
20.848	22.157	1104.481	901.182
21.863	22.044	1103.955	900.091
22.877	22.029	1103.006	899.162
23.892	21.870	1102.448	897.814
24.907	22.085	1101.550	898.104
25.921	21.932	1100.684	896.537
26.936	22.012	1099.049	895.532
27.950	22.036	1096.827	893.765
28.965	21.809	1095.592	891.525
29.980	21.990	1093.898	890.988
30.994	21.952	1093.264	890.198
32.009	22.026	1091.817	889.315
33.023	21.852	1090.450	887.245
34.038	21.815	1090.170	886.750
35.053	22.092	1088.753	886.918
36.067	21.954	1088.494	885.935
37.082	21.969	1087.697	885.283
38.096	22.227	1086.989	885.926
39.111	22.330	1086.133	885.668
40.126	22.079	1084.443	882.951
41.140	21.745	1082.912	879.950
42.155	21.557	1081.265	877.589
43.169	21.699	1079.935	877.147
44.184	21.669	1079.266	876.375
45.199	21.530	1078.270	874.793
46.213	21.701	1077.651	875.069
47.228	21.858	1076.455	874.804
48.242	21.848	1075.570	873.956
49.257	21.978	1074.811	873.908
50.271	22.087	1074.045	873.751
51.286	22.153	1072.951	873.112
52.301	22.159	1072.098	872.369
53.315	21.980	1071.264	870.727
54.330	21.711	1071.083	869.166
55.344	21.991	1069.803	869.439
56.359	22.050	1068.633	868.706
57.374	21.671	1067.192	865.584
58.388	21.808	1067.182	866.173
59.403	21.664	1065.985	864.418
60.417	21.642	1065.069	863.490
61.432	21.702	1064.210	863.013
62.447	21.874	1063.376	863.105
63.461	21.861	1062.789	862.488
64.476	21.748	1061.460	860.776
65.490	21.666	1060.456	859.486
66.505	21.951	1059.469	860.008
67.520	21.858	1059.399	859.419
68.534	21.455	1058.354	856.521
69.549	21.254	1057.121	854.462
70.563	21.292	1055.773	853.483
71.578	21.325	1055.380	853.254
72.593	21.143	1054.281	851.401
73.607	21.278	1053.636	851.460
74.622	21.580	1053.065	852.395
75.636	21.607	1052.582	852.060
76.651	21.450	1051.670	850.487
77.666	21.499	1050.907	850.030
78.680	21.498	1050.122	849.314
79.695	21.636	1049.724	849.586
80.709	21.627	1048.943	848.837
81.724	21.518	1048.127	847.574
82.739	21.717	1047.126	847.654
83.753	22.108	1046.482	848.943
84.768	22.174	1046.175	848.941
85.782	22.394	1044.869	848.867
86.797	22.303	1044.222	847.825
87.812	22.043	1042.996	845.504
88.826	22.215	1041.852	845.332
89.841	22.272	1040.682	844.577
90.855	22.333	1039.932	844.191
91.870	22.126	1039.434	842.715
92.884	22.102	1037.868	841.259
93.899	22.029	1036.744	839.924
94.914	22.240	1035.808	840.099
95.928	21.982	1035.200	838.301
96.943	21.905	1033.617	836.575
97.957	21.507	1032.811	833.953
98.972	21.537	1031.455	832.926
99.987	21.749	1030.659	833.221
101.001	22.037	1029.790	833.811
102.016	22.016	1029.013	833.009
103.030	21.798	1028.192	831.236
104.045	21.800	1026.941	830.163
105.060	21.593	1026.129	828.454
106.074	21.871	1025.253	828.988
107.089	21.995	1025.014	829.305
108.103	22.059	1023.243	828.098
109.118	21.823	1022.125	826.010
110.133	21.786	1021.191	825.010
111.147	21.565	1020.109	823.021
112.162	21.574	1018.740	821.888
113.176	21.599	1018.459	821.706
114.191	21.668	1017.216	820.952
115.206	21.275	1016.136	818.170
116.220	21.327	1014.927	817.364
117.235	21.547	1014.544	818.014
118.249	21.391	1013.708	816.539
119.264	21.372	1012.708	815.572
120.279	21.417	1011.881	815.046
121.293	21.512	1011.150	814.827
122.308	21.433	1010.372	813.759
123.322	21.404	1009.427	812.793
124.337	21.312	1008.215	811.315
125.352	20.787	1006.289	807.260
126.366	20.820	1004.871	806.204
127.381	21.623	1004.867	809.845
128.395	21.976	1004.937	811.463
129.410	22.124	1003.891	811.227
130.424	22.027	1003.309	810.238
131.439	22.033	1001.953	809.103
132.454	21.937	1001.148	807.939
133.468	21.967	1000.186	807.228
134.483	22.094	999.508	807.192
135.497	22.374	998.574	807.650
136.512	22.313	997.631	806.537
137.527	22.391	996.948	806.271
138.541	22.297	996.329	805.270
139.556	22.374	995.059	804.526
140.570	22.347	994.551	803.917
141.585	22.462	993.393	803.435
142.600	22.208	992.923	801.827
143.614	22.459	991.909	802.082
144.629	22.657	990.838	802.045
145.643	22.543	989.430	800.317
146.658	22.236	988.340	797.972
147.673	22.190	986.765	796.418
148.687	22.085	986.125	795.356
149.702	22.049	984.973	794.196
150.716	21.998	984.328	793.372
151.731	22.144	983.438	793.247
152.746	22.365	983.120	793.915
153.760	22.415	982.475	793.553
154.775	22.407	981.761	792.869
155.789	22.475	980.790	792.319
156.804	22.373	979.798	790.988
157.819	22.482	978.955	790.726
158.833	22.598	978.038	790.436
159.848	22.508	977.314	789.379
160.862	22.384	976.008	787.701
161.877	22.380	975.050	786.840
162.892	22.441	974.010	786.201
163.906	22.354	973.026	784.952
164.921	22.372	972.215	784.309
165.935	22.337	971.453	783.469
166.950	22.507	970.122	783.080
167.964	22.326	969.390	781.615
168.979	22.337	968.181	780.622
169.994	22.160	967.452	779.179
171.008	22.433	967.065	780.007
172.023	22.474	965.893	779.177
173.037	22.226	964.873	777.190
174.052	22.094	964.068	775.888
175.067	22.204	963.215	775.617
176.081	22.251	962.703	775.345
177.096	22.185	962.025	774.437
178.110	21.900	961.013	772.301
179.125	21.787	960.441	771.274
180.140	21.868	959.927	771.150
181.154	21.879	959.680	770.934
182.169	22.169	959.866	772.290
183.183	22.348	959.022	772.325
184.198	22.212	958.262	771.050
185.213	22.145	957.539	770.108
186.227	22.381	956.583	770.300
187.242	22.396	955.778	769.651
188.256	22.315	955.551	769.047
189.271	22.453	954.459	768.700
190.286	22.303	953.081	766.871
191.300	21.533	952.002	762.583
192.315	20.876	949.992	758.045
193.329	20.854	949.875	757.788
194.344	21.696	950.389	761.795
195.359	22.276	949.963	763.907
196.373	22.308	949.826	763.867
197.388	22.137	948.884	762.300
198.402	22.198	948.030	761.810
199.417	22.264	947.739	761.797
200.432	22.172	946.353	760.215
201.446	21.906	945.851	758.596
202.461	21.911	944.969	757.845
203.475	21.253	942.791	753.194
204.490	20.367	941.637	748.385
205.504	21.125	942.648	752.395
206.519	21.879	942.247	755.255
207.534	21.844	942.165	754.972
208.548	22.328	941.270	756.267
209.563	22.110	940.496	754.643
210.577	22.078	939.797	753.877
211.592	22.466	939.495	755.233
212.607	22.436	938.462	754.207
213.621	22.524	937.646	753.861
214.636	22.398	937.628	753.242
215.650	22.297	936.553	751.881
216.665	22.454	935.970	752.016
217.680	22.491	935.239	751.518
218.694	22.005	934.062	748.434
219.709	22.028	933.171	747.754
220.723	22.144	932.656	747.770
221.738	22.260	932.574	748.129
222.753	22.282	931.736	747.486
223.767	22.428	931.086	747.519
224.782	22.541	931.182	748.009
225.796	22.606	930.419	747.603
226.811	21.981	928.558	743.397
227.826	21.291	927.503	739.568
228.840	21.610	926.614	740.143
229.855	21.544	925.934	739.255
230.869	21.064	925.270	736.634
231.884	21.612	925.412	738.995
232.899	22.281	925.446	741.780
233.913	22.209	924.301	740.490
234.928	22.094	923.755	739.503
235.942	22.216	923.109	739.434
236.957	21.894	922.141	737.242
237.972	21.796	921.984	736.639
238.986	22.053	920.967	736.839
240.001	21.939	920.534	735.950
241.015	22.122	919.821	736.080
242.030	22.314	919.262	736.371
243.045	22.285	919.213	736.146
244.059	22.374	918.602	735.965
245.074	22.182	917.512	734.224
246.088	21.908	916.369	732.100
247.103	22.142	915.786	732.544
248.117	22.705	916.248	735.198
249.132	22.849	915.963	735.506
250.147	22.948	915.066	735.131
251.161	23.274	914.322	735.822
252.176	23.096	913.749	734.556
253.190	23.174	913.333	734.481
254.205	23.281	913.118	734.687
255.220	23.279	912.319	733.974
256.234	23.171	911.327	732.664
257.249	23.019	910.444	731.258
258.263	23.088	909.955	731.088
259.278	23.172	909.345	730.879
260.293	23.162	909.131	730.601
261.307	23.006	908.201	729.143
262.322	22.891	907.037	727.671
263.336	22.222	905.160	723.353
264.351	21.214	903.163	717.550
265.366	21.251	902.837	717.382
266.380	22.262	904.135	722.505
267.395	22.858	902.977	723.958
268.409	22.736	902.252	722.814
269.424	22.916	902.211	723.455
270.439	22.882	901.472	722.657
271.453	23.018	901.213	722.945
272.468	23.247	900.467	723.219
273.482	23.348	899.801	723.031
274.497	22.905	898.783	720.342
275.512	22.544	897.902	718.100
276.526	22.874	898.138	719.573
277.541	23.093	897.834	720.157
278.555	22.879	896.590	718.224
279.570	22.608	895.823	716.446
280.585	22.919	895.206	717.151
281.599	22.841	894.028	715.827
282.614	22.186	892.995	712.283
283.628	22.241	892.796	712.285
284.643	22.633	892.413	713.501
285.657	22.357	890.928	711.138
286.672	22.043	890.120	709.160
287.687	22.499	890.247	711.041
288.701	22.775	889.667	711.629
289.716	22.152	889.011	708.530
290.730	22.151	888.501	708.058
291.745	21.937	887.652	706.455
292.760	22.340	887.286	707.725
293.774	23.102	887.984	711.281
294.789	23.556	887.333	712.524
295.803	23.577	886.516	711.887
296.818	23.671	885.896	711.705
297.833	23.249	884.612	708.918
298.847	23.006	883.857	707.278
299.862	23.243	884.244	708.476
300.876	23.638	883.492	709.389
301.891	23.489	882.702	708.097
302.906	22.977	882.125	705.527
303.920	23.207	881.520	705.899
304.935	23.539	881.239	706.935
305.949	23.371	880.953	705.972
306.964	23.231	880.016	704.602
307.979	23.282	879.469	704.304
308.993	23.746	878.875	705.610
310.008	23.637	878.366	704.706
311.022	23.347	877.683	702.945
312.037	23.287	876.999	702.098
313.052	22.984	876.081	700.103
314.066	22.241	874.516	695.849
315.081	21.843	873.592	693.480
316.095	22.819	873.867	697.495
317.110	23.182	874.054	699.018
318.125	22.511	872.295	694.900
319.139	21.332	870.691	688.919
320.154	21.329	870.773	688.909
321.168	22.212	870.934	692.456
322.183	22.882	870.706	694.850
323.197	22.998	870.892	695.393
324.212	23.174	870.382	695.617
325.227	23.313	869.848	695.674
326.241	23.257	868.817	694.570
327.256	23.228	868.106	693.826
328.270	23.006	867.653	692.534
329.285	22.836	866.457	690.852
330.300	22.559	865.708	689.109
331.314	22.856	865.773	690.261
332.329	23.323	865.240	691.598
333.343	23.338	865.517	691.819
334.358	23.395	864.450	691.125
335.373	23.450	864.138	691.030
336.387	23.751	864.185	692.180
337.402	23.895	864.243	692.728
338.416	23.605	863.867	691.236
339.431	23.794	863.335	691.483
340.446	23.895	862.842	691.419
341.460	23.889	862.249	690.861
342.475	23.736	861.652	689.726
343.489	23.784	861.396	689.647
344.504	23.992	861.241	690.269
345.519	24.151	860.770	690.446
346.533	24.130	860.374	689.987
347.548	24.157	860.011	689.739
348.562	24.105	858.916	688.600
349.577	23.957	858.767	687.846
350.592	24.037	857.844	687.356
351.606	24.254	856.823	687.311
352.621	23.925	856.433	685.671
353.635	23.911	855.422	684.747
354.650	23.380	853.957	681.471
355.665	22.271	852.303	675.831
356.679	22.755	852.314	677.641
357.694	23.106	851.921	678.617
358.708	23.156	850.948	677.974
359.723	23.573	850.908	679.479
360.738	23.870	850.608	680.313
361.752	23.903	850.323	680.152
362.767	24.349	849.954	681.503
363.781	24.489	849.684	681.760
364.796	24.557	848.919	681.346
365.810	24.539	849.088	681.351
366.825	24.547	848.234	680.637
367.840	24.269	847.668	679.064
368.854	23.789	846.623	676.341
369.869	23.904	846.333	676.484
370.883	23.941	845.576	675.962
371.898	23.836	844.841	674.913
372.913	23.930	845.015	675.350
373.927	23.935	844.688	675.048
374.942	24.200	844.363	675.735
375.956	24.163	843.650	674.964
376.971	24.241	843.726	675.260
377.986	24.498	843.012	675.602
379.000	24.444	842.386	674.837
380.015	24.261	842.087	673.848
381.029	24.336	841.148	673.318
382.044	24.563	840.336	673.464
383.059	24.354	840.176	672.490
384.073	24.585	839.497	672.756
385.088	24.561	838.595	671.884
386.102	24.354	838.033	670.594
387.117	24.263	837.429	669.710
388.132	23.946	836.077	667.380
389.146	23.478	835.437	665.055
390.161	23.758	835.308	665.943
391.175	24.070	835.556	667.251
392.190	23.853	834.382	665.444
393.205	22.516	832.150	658.610
394.219	21.048	830.154	651.494
395.234	21.033	830.212	651.426
396.248	22.562	831.436	658.042
397.263	24.063	832.269	664.250
398.278	23.985	832.052	663.726
399.292	23.826	831.095	662.310
400.307	23.760	830.680	661.677
401.321	23.956	830.218	661.977
402.336	24.404	829.999	663.414
403.350	24.650	830.243	664.462
404.365	24.996	829.964	665.465
405.380	25.171	829.749	665.885
406.394	25.344	828.690	665.619
407.409	25.195	828.355	664.737
408.423	24.828	828.289	663.266
409.438	25.180	827.748	664.077
410.453	25.170	827.350	663.661
411.467	25.167	826.532	662.936
412.482	25.149	826.403	662.708
413.496	25.171	826.070	662.463
414.511	25.223	825.611	662.229
415.526	25.206	825.319	661.874
416.540	24.948	824.409	660.132
417.555	24.859	823.709	659.186
418.569	24.750	823.285	658.389
419.584	24.758	823.035	658.160
420.599	24.619	822.642	657.275
421.613	94.178	1265.768	1386.444
422.628	81.176	1330.339	1386.572
