DTS Sentinel unit serial number:	SN413079Multiplexer serial number:	ORYXHardware model number:	OX4-SRSoftware version number:	ORYX F/W v4.00 Oryx Data Collector v3.7.2.0data status	okinstallation	princeton_trtdifferential loss correction	single-endedforward channel	channel 1reverse channel	N/Adate	2019/09/18time	08:58:35forward acquisition time	60.00reverse acquisition time	0.00gamma	496.2192k internal	0.2335k external	0.2335temperature offset calibration	0.9974default loss term (dB/km)	0.3790temperature slope calibration	1.0000multiplexer offset coefficient	1.0000multiplexer slope coefficient	1.0000fibre end	0.00T internal ref (°C)	25.00T ext. ref 1 (°C)	0.23T ext. ref 2 (°C)	21.56length (m)	temperature (°C)	Stokes	anti-Stokes-747.200	-83.409	-0.102	0.033
-746.185	-19.224	0.180	-0.113
-745.171	-200.000	0.005	-0.077
-744.156	-123.868	-0.027	0.004
-743.142	-102.691	-0.078	0.019
-742.127	800.000	-0.121	0.385
-741.112	-200.000	0.036	0.178
-740.098	17.482	-0.263	0.210
-739.083	327.611	0.182	-0.350
-738.069	180.465	-0.170	0.251
-737.054	-200.000	0.006	0.156
-736.039	188.408	-0.255	0.383
-735.025	227.449	0.109	0.179
-734.010	171.499	0.069	-0.099
-732.996	-28.182	-0.338	-0.196
-731.981	-69.298	-0.119	-0.046
-730.966	416.625	-0.147	0.315
-729.952	-19.678	-0.198	0.123
-728.937	69.082	0.114	-0.118
-727.923	-200.000	-0.032	-0.142
-726.908	677.005	0.141	0.367
-725.894	142.280	0.066	-0.088
-724.879	-4.460	-0.254	-0.176
-723.864	-122.313	-0.072	0.012
-722.850	-200.000	-0.017	-0.350
-721.835	-76.644	-0.342	-0.121
-720.821	244.033	-0.076	-0.129
-719.806	800.000	-0.002	0.007
-718.791	1.243	-0.095	-0.068
-717.777	-200.000	0.012	-0.164
-716.762	-200.000	0.006	0.095
-715.748	262.222	0.139	0.243
-714.733	-200.000	-0.024	0.156
-713.718	800.000	-0.075	-0.213
-712.704	63.558	-0.207	-0.208
-711.689	-107.761	0.308	0.067
-710.675	168.480	-0.121	-0.173
-709.660	-82.640	-0.169	-0.055
-708.645	-14.462	-0.116	-0.075
-707.631	-67.716	-0.004	-0.001
-706.616	83.630	-0.155	0.170
-705.602	1.820	0.246	0.178
-704.587	-199.493	-0.279	-0.001
-703.572	17.854	-0.383	-0.306
-702.558	-185.396	0.050	0.001
-701.543	346.456	-0.034	-0.068
-700.529	-200.000	-0.004	-0.348
-699.514	63.156	-0.188	0.189
-698.499	248.062	0.175	-0.297
-697.485	18.888	-0.227	-0.182
-696.470	5.402	0.220	0.163
-695.456	205.201	0.095	0.149
-694.441	37.312	0.140	-0.125
-693.426	-37.130	0.026	-0.014
-692.412	-186.535	0.293	0.004
-691.397	395.328	0.092	0.192
-690.383	-174.337	0.109	0.003
-689.368	466.149	-0.098	-0.220
-688.354	-30.015	-0.239	0.136
-687.339	108.434	0.178	-0.213
-686.324	17.501	-0.185	-0.148
-685.310	-72.344	0.437	0.162
-684.295	6.066	-0.279	0.207
-683.281	-74.050	-0.037	-0.013
-682.266	-165.171	0.204	-0.009
-681.251	-89.257	-0.153	0.045
-680.237	-116.355	-0.126	0.023
-679.222	-76.541	0.212	-0.075
-678.208	148.157	-0.223	-0.302
-677.193	101.796	-0.065	-0.076
-676.178	-108.589	0.263	-0.057
-675.164	-104.544	-0.226	0.052
-674.149	606.123	0.076	0.191
-673.135	371.025	0.117	0.238
-672.120	-127.874	-0.180	0.026
-671.105	-44.342	0.136	0.068
-670.091	-200.000	-0.047	-0.205
-669.076	-200.000	-0.050	0.334
-668.062	-7.419	0.096	0.065
-667.047	-200.000	0.034	-0.208
-666.032	273.936	-0.066	0.117
-665.018	-81.703	-0.413	-0.136
-664.003	259.347	0.189	-0.326
-662.989	-4.380	0.091	-0.063
-661.974	800.000	-0.018	-0.066
-660.959	-200.000	-0.000	-0.036
-659.945	85.644	-0.048	0.053
-658.930	-107.819	0.208	-0.045
-657.916	-200.000	-0.014	-0.246
-656.901	280.094	0.130	-0.233
-655.886	452.300	-0.071	0.158
-654.872	22.942	-0.268	-0.220
-653.857	-92.110	-0.179	-0.051
-652.843	-58.114	0.215	-0.094
-651.828	335.559	-0.164	-0.318
-650.814	647.214	-0.068	-0.175
-649.799	-64.784	-0.152	-0.062
-648.784	800.000	0.159	-0.543
-647.770	-51.737	-0.093	-0.043
-646.755	-34.666	0.195	0.106
-645.741	-12.539	-0.328	0.214
-644.726	405.816	0.122	0.257
-643.711	-126.428	-0.321	-0.048
-642.697	37.331	-0.382	0.338
-641.682	35.111	0.335	0.293
-640.668	-139.470	-0.175	0.019
-639.653	-200.000	0.009	-0.120
-638.638	-200.000	0.012	-0.324
-637.624	800.000	-0.042	0.172
-636.609	330.483	-0.061	0.117
-635.595	-200.000	-0.013	0.111
-634.580	-157.707	-0.197	0.012
-633.565	-113.599	0.139	-0.027
-632.551	-52.453	-0.218	0.101
-631.536	-200.000	0.010	-0.112
-630.522	-105.430	0.139	0.032
-629.507	800.000	-0.116	-0.412
-628.492	-27.110	-0.175	0.102
-627.478	-91.744	-0.205	-0.058
-626.463	-143.800	-0.097	-0.009
-625.449	-76.102	0.258	0.091
-624.434	159.788	0.112	-0.156
-623.419	-200.000	0.033	0.182
-622.405	-200.000	0.551	0.000
-621.390	800.000	0.122	0.454
-620.376	62.129	-0.172	-0.171
-619.361	58.036	0.166	-0.163
-618.346	287.067	0.102	-0.185
-617.332	-75.116	-0.171	-0.061
-616.317	-45.167	0.290	-0.144
-615.303	259.304	0.222	-0.383
-614.288	-200.000	0.006	-0.165
-613.273	-106.624	0.175	-0.039
-612.259	-200.000	-0.006	0.191
-611.244	344.502	0.088	0.173
-610.230	-137.712	-0.121	-0.014
-609.215	77.919	0.089	0.094
-608.201	-68.648	-0.350	-0.135
-607.186	-38.104	-0.050	0.027
-606.171	86.226	-0.143	0.158
-605.157	15.419	0.173	0.136
-604.142	321.808	0.032	-0.060
-603.128	32.866	-0.183	0.159
-602.113	800.000	-0.029	0.102
-601.098	691.256	-0.131	-0.342
-600.084	43.908	-0.028	0.025
-599.069	12.685	0.200	-0.154
-598.055	-145.942	-0.284	0.025
-597.040	116.612	0.071	0.086
-596.025	-200.000	0.033	-0.222
-595.011	-109.785	0.054	-0.011
-593.996	80.465	0.175	0.188
-592.982	-144.063	-0.068	-0.006
-591.967	145.283	-0.136	0.182
-590.952	-162.606	-0.112	0.006
-589.938	-200.000	-0.011	0.232
-588.923	19.766	-0.208	-0.167
-587.909	315.811	-0.086	-0.162
-586.894	13.391	-0.317	0.245
-585.879	797.769	-0.106	0.291
-584.865	800.000	0.082	0.293
-583.850	-95.280	0.289	0.078
-582.836	5.010	-0.241	0.177
-581.821	57.464	-0.190	0.186
-580.806	220.072	0.201	0.321
-579.792	194.640	0.107	0.162
-578.777	-200.000	0.004	0.082
-577.763	7.027	-0.208	-0.155
-576.748	10.999	-0.319	-0.243
-575.733	-109.810	0.173	-0.036
-574.719	800.000	-0.046	-0.156
-573.704	-77.581	0.260	-0.090
-572.690	91.130	0.083	-0.092
-571.675	-200.000	-0.081	0.367
-570.661	-200.000	-0.011	-0.247
-569.646	84.886	-0.165	-0.180
-568.631	-70.548	0.146	0.055
-567.617	431.915	-0.098	0.211
-566.602	20.283	-0.229	0.185
-565.588	-200.000	-0.023	-0.109
-564.573	-91.764	0.186	-0.053
-563.558	-143.486	-0.483	-0.046
-562.544	319.303	-0.108	-0.204
-561.529	207.270	0.095	0.148
-560.515	631.763	-0.044	0.110
-559.500	119.612	-0.208	0.257
-558.485	-10.566	0.187	0.123
-557.471	231.921	0.026	0.043
-556.456	61.995	-0.296	0.294
-555.442	400.493	-0.055	0.115
-554.427	453.206	0.148	0.326
-553.412	-200.000	-0.031	0.165
-552.398	-138.469	-0.364	-0.040
-551.383	-200.000	0.052	-0.237
-550.369	-101.399	0.214	0.052
-549.354	-200.000	-0.010	-0.128
-548.339	16.481	-0.127	-0.100
-547.325	-31.999	0.230	-0.128
-546.310	277.556	0.168	0.297
-545.296	206.857	0.123	-0.191
-544.281	76.612	0.168	-0.178
-543.266	-125.728	0.162	-0.024
-542.252	40.816	-0.206	-0.185
-541.237	32.028	-0.265	-0.227
-540.223	474.004	0.070	-0.158
-539.208	800.000	-0.048	0.185
-538.193	661.161	-0.026	-0.066
-537.179	122.306	-0.142	-0.176
-536.164	-173.692	-0.201	0.006
-535.150	137.962	-0.209	-0.272
-534.135	67.793	-0.271	-0.276
-533.121	81.080	-0.215	-0.232
-532.106	79.308	0.187	-0.199
-531.091	800.000	-0.131	-0.372
-530.077	800.000	0.130	-0.373
-529.062	26.106	0.257	-0.213
-528.048	-186.418	-0.241	0.003
-527.033	-23.095	0.111	0.067
-526.018	-62.880	0.258	-0.106
-525.004	-200.000	-0.008	-0.474
-523.989	-23.445	-0.162	-0.097
-522.975	800.000	0.127	0.435
-521.960	-158.417	0.055	0.003
-520.945	-3.650	-0.007	0.005
-519.931	214.675	-0.036	0.057
-518.916	237.452	-0.110	0.182
-517.902	-123.924	-0.085	0.013
-516.887	0.044	0.316	-0.224
-515.872	800.000	-0.037	-0.108
-514.858	-53.924	0.150	-0.068
-513.843	-200.000	0.037	0.207
-512.829	-200.000	-0.012	0.099
-511.814	212.521	0.153	-0.241
-510.799	-200.000	0.004	-0.201
-509.785	-103.203	0.179	-0.042
-508.770	-1.508	-0.245	0.172
-507.756	-89.336	0.093	0.027
-506.741	353.648	0.131	-0.259
-505.726	-89.936	0.224	0.065
-504.712	60.548	0.064	-0.063
-503.697	-101.799	-0.433	-0.104
-502.683	-49.393	-0.298	-0.141
-501.668	-200.000	0.010	-0.277
-500.653	-200.000	0.033	-0.239
-499.639	-200.000	0.006	-0.067
-498.624	8.626	-0.136	0.102
-497.610	-80.779	0.172	-0.057
-496.595	-117.993	0.046	-0.008
-495.581	-129.858	0.358	-0.049
-494.566	-97.300	0.356	0.092
-493.551	-182.294	-0.351	-0.007
-492.537	46.944	0.097	-0.090
-491.522	-34.672	0.098	0.053
-490.508	689.141	-0.089	-0.233
-489.493	135.382	0.054	0.069
-488.478	92.701	0.243	-0.273
-487.464	510.368	-0.155	-0.360
-486.449	321.585	-0.179	0.338
-485.435	620.933	0.119	0.297
-484.420	68.582	0.177	-0.180
-483.405	-178.993	-0.211	-0.005
-482.391	-200.000	0.010	0.119
-481.376	-200.000	-0.034	0.155
-480.362	214.360	-0.172	-0.271
-479.347	3.242	-0.090	-0.065
-478.332	-39.633	0.177	0.092
-477.318	4.099	0.218	-0.159
-476.303	-61.137	-0.482	-0.202
-475.289	-200.000	0.026	-0.267
-474.274	-200.000	-0.005	0.107
-473.259	-92.122	-0.077	0.022
-472.245	-200.000	0.018	-0.123
-471.230	165.747	0.108	0.151
-470.216	410.899	-0.162	0.341
-469.201	-89.691	-0.418	0.122
-468.186	311.519	0.143	-0.266
-467.172	201.488	0.037	-0.056
-466.157	90.285	-0.065	-0.072
-465.143	29.540	0.205	-0.173
-464.128	-200.000	-0.001	-0.051
-463.113	800.000	0.024	-0.083
-462.099	-80.777	0.434	-0.143
-461.084	-200.000	-0.013	-0.115
-460.070	172.479	0.260	0.372
-459.055	82.825	-0.184	-0.198
-458.040	-200.000	-0.028	0.165
-457.026	36.213	-0.148	0.130
-456.011	371.458	-0.054	-0.109
-454.997	-200.000	-0.041	0.352
-453.982	74.141	-0.216	0.225
-452.968	-159.995	0.170	0.009
-451.953	54.266	-0.145	0.139
-450.938	800.000	-0.108	-0.303
-449.924	396.412	0.131	0.272
-448.909	-105.181	0.373	0.085
-447.895	-123.941	-0.273	-0.043
-446.880	-200.000	-0.326	0.001
-445.865	-25.554	0.114	0.067
-444.851	-54.108	-0.172	0.078
-443.836	-27.638	0.202	-0.116
-442.822	-34.654	0.098	0.053
-441.807	-31.341	0.048	0.027
-440.792	233.457	-0.165	0.270
-439.778	-200.000	-0.033	-0.158
-438.763	154.746	-0.063	-0.086
-437.749	-65.389	0.323	-0.129
-436.734	-38.687	-0.284	0.149
-435.719	800.000	0.048	0.134
-434.705	16.222	0.020	-0.016
-433.690	49.706	0.345	0.323
-432.676	120.697	-0.150	-0.185
-431.661	800.000	0.071	0.282
-430.646	272.811	-0.062	0.109
-429.632	152.748	-0.087	-0.119
-428.617	-116.918	0.355	0.064
-427.603	-200.000	0.003	-0.022
-426.588	54.367	0.075	-0.071
-425.573	21.515	-0.148	-0.119
-424.559	-2.680	-0.274	0.190
-423.544	389.641	-0.101	0.207
-422.530	-109.242	-0.076	0.016
-421.515	-47.152	-0.113	0.055
-420.500	18.880	-0.215	0.171
-419.486	800.000	-0.084	-0.335
-418.471	178.809	0.275	0.399
-417.457	-63.309	0.204	0.083
-416.442	-200.000	-0.030	0.156
-415.428	267.127	-0.060	-0.104
-414.413	400.725	0.129	-0.269
-413.398	-2.425	0.025	-0.018
-412.384	26.428	0.125	-0.104
-411.369	-200.000	-0.000	-0.160
-410.355	-28.543	0.256	-0.146
-409.340	800.000	-0.066	0.183
-408.325	-107.896	-0.233	0.050
-407.311	-200.000	0.055	-0.384
-406.296	-192.907	-0.278	-0.002
-405.282	-14.299	-0.109	0.070
-404.267	-200.000	-0.061	-0.268
-403.252	-200.000	-0.004	-0.270
-402.238	-200.000	-0.087	-0.441
-401.223	129.649	-0.244	0.309
-400.209	-137.980	0.237	0.026
-399.194	-57.696	-0.259	0.112
-398.179	40.231	-0.109	0.097
-397.165	-81.745	-0.276	0.090
-396.150	23.516	0.113	0.092
-395.136	-200.000	-0.013	0.097
-394.121	-200.000	-0.065	0.281
-393.106	239.255	0.229	0.377
-392.092	201.452	0.074	0.112
-391.077	299.136	0.256	-0.467
-390.063	800.000	-0.073	0.213
-389.048	53.973	-0.115	0.110
-388.033	-200.000	0.024	-0.276
-387.019	-200.000	-0.049	0.379
-386.004	464.390	0.104	0.229
-384.990	396.033	0.141	0.291
-383.975	-171.484	0.154	0.005
-382.960	-7.967	0.188	-0.126
-381.946	-140.138	0.153	0.016
-380.931	542.518	-0.147	-0.348
-379.917	-200.000	0.028	-0.195
-378.902	475.082	-0.217	-0.485
-377.888	76.421	0.129	0.136
-376.873	150.027	-0.086	-0.116
-375.858	-73.696	0.064	-0.023
-374.844	-200.000	-0.001	-0.197
-373.829	-200.000	-0.027	-0.182
-372.815	-200.000	-0.024	0.596
-371.800	276.987	-0.089	0.157
-370.785	297.686	0.100	-0.182
-369.771	-118.075	0.162	-0.029
-368.756	262.599	0.128	0.220
-367.742	-90.222	-0.157	-0.045
-366.727	195.820	0.023	-0.035
-365.712	800.000	0.036	0.151
-364.698	-83.447	0.328	-0.104
-363.683	-3.864	-0.319	-0.219
-362.669	-13.708	0.141	-0.090
-361.654	-200.000	0.006	0.077
-360.639	181.952	0.134	0.195
-359.625	-200.000	-0.026	-0.205
-358.610	149.738	0.148	-0.198
-357.596	314.873	-0.069	-0.129
-356.581	-200.000	-0.054	0.394
-355.566	321.559	-0.124	0.234
-354.552	-17.942	-0.089	-0.055
-353.537	287.521	0.127	-0.227
-352.523	-4.477	-0.172	0.118
-351.508	-16.061	-0.208	0.131
-350.493	14.712	-0.083	-0.064
-349.479	800.000	-0.031	0.121
-348.464	-152.887	-0.437	0.031
-347.450	116.828	0.244	0.296
-346.435	-200.000	-0.054	0.369
-345.420	-79.925	0.137	-0.046
-344.406	507.187	0.083	0.191
-343.391	-122.931	-0.339	0.054
-342.377	56.582	0.209	-0.201
-341.362	-27.979	0.148	0.085
-340.348	131.131	-0.082	0.104
-339.333	-134.894	0.232	0.028
-338.318	54.964	0.218	-0.208
-337.304	800.000	0.046	-0.185
-336.289	-57.208	-0.276	0.120
-335.275	-106.907	-0.223	0.049
-334.260	-94.027	0.209	-0.057
-333.245	800.000	-0.034	0.134
-332.231	-200.000	-0.017	0.321
-331.216	800.000	0.081	-0.257
-330.202	-155.499	0.296	0.019
-329.187	-178.545	-0.216	0.005
-328.172	-200.000	-0.036	-0.172
-327.158	-138.605	0.048	-0.005
-326.143	76.522	-0.105	-0.110
-325.129	-103.773	0.299	0.069
-324.114	800.000	0.145	0.474
-323.099	13.297	-0.150	0.115
-322.085	800.000	-0.021	0.060
-321.070	91.039	0.260	-0.288
-320.056	73.877	0.050	0.052
-319.041	800.000	0.009	0.029
-318.026	-113.220	-0.329	-0.064
-317.012	800.000	0.074	-0.213
-315.997	146.821	-0.073	-0.097
-314.983	139.947	0.101	-0.131
-313.968	37.211	0.138	0.120
-312.953	800.000	-0.102	-0.282
-311.939	-74.735	-0.232	0.082
-310.924	-35.161	0.202	0.109
-309.910	-200.000	-0.034	0.194
-308.895	-54.129	-0.372	0.167
-307.880	160.352	-0.210	-0.289
-306.866	99.718	0.012	-0.014
-305.851	-55.401	-0.083	-0.037
-304.837	-81.823	0.108	0.035
-303.822	-152.143	0.160	0.011
-302.807	-4.170	0.173	-0.118
-301.793	286.387	-0.061	0.109
-300.778	-94.167	-0.400	-0.108
-299.764	767.588	0.099	-0.265
-298.749	175.912	0.090	-0.130
-297.735	449.591	0.076	-0.166
-296.720	-80.299	0.386	0.127
-295.705	-135.181	0.231	0.027
-294.691	38.641	-0.093	0.082
-293.676	-200.000	0.017	0.079
-292.662	59.120	0.262	-0.254
-291.647	264.472	0.048	-0.082
-290.632	-20.299	-0.103	-0.062
-289.618	216.354	0.139	0.218
-288.603	-200.000	0.055	0.339
-287.589	-91.210	-0.081	-0.023
-286.574	-26.061	0.052	-0.030
-285.559	77.812	-0.182	0.191
-284.545	195.578	0.095	0.143
-283.530	256.334	-0.149	0.253
-282.516	-200.000	-0.011	-0.205
-281.501	-68.617	0.250	0.096
-280.486	800.000	-0.065	0.250
-279.472	160.513	0.113	-0.155
-278.457	-67.700	0.048	-0.019
-277.443	80.171	-0.335	0.356
-276.428	544.570	0.135	0.317
-275.413	326.737	-0.108	0.204
-274.399	-200.000	0.007	-0.182
-273.384	-41.640	-0.282	-0.143
-272.370	92.688	0.185	0.206
-271.355	145.922	-0.144	-0.190
-270.340	-20.287	0.150	0.091
-269.326	369.631	-0.056	-0.112
-268.311	-200.000	0.050	-0.646
-267.297	-102.111	0.171	-0.041
-266.282	75.463	-0.052	0.054
-265.267	463.180	0.099	0.219
-264.253	-103.098	0.148	-0.035
-263.238	-200.000	0.043	0.206
-262.224	-117.673	-0.173	0.031
-261.209	449.461	0.029	0.064
-260.195	-94.235	-0.170	-0.046
-259.180	-89.480	-0.051	-0.015
-258.165	-200.000	-0.007	0.118
-257.151	-50.282	0.147	-0.069
-256.136	-200.000	-0.053	-0.327
-255.122	586.008	-0.072	-0.174
-254.107	162.079	0.212	0.293
-253.092	170.855	0.171	-0.242
-252.078	800.000	-0.030	-0.101
-251.063	-200.000	0.132	-0.641
-250.049	-141.330	-0.490	0.049
-249.034	68.028	0.254	0.256
-248.019	-66.502	-0.211	-0.083
-247.005	81.999	0.011	0.012
-245.990	344.450	-0.117	0.225
-244.976	-200.000	-0.065	0.292
-243.961	19.991	0.207	-0.165
-242.946	302.386	-0.079	0.145
-241.932	800.000	-0.176	0.544
-240.917	-45.540	-0.100	-0.049
-239.903	-72.100	-0.132	0.048
-238.888	30.497	-0.079	0.066
-237.873	-200.000	-0.010	-0.078
-236.859	-112.917	0.065	-0.013
-235.844	9.113	0.187	0.139
-234.830	800.000	-0.117	0.396
-233.815	800.000	0.055	0.179
-232.800	-200.000	0.011	0.062
-231.786	-92.902	-0.173	-0.047
-230.771	0.536	0.184	-0.130
-229.757	136.965	-0.261	-0.335
-228.742	23.680	-0.035	0.029
-227.727	608.570	-0.085	-0.208
-226.713	-8.113	0.127	-0.084
-225.698	-149.218	-0.422	-0.033
-224.684	-26.671	0.277	-0.159
-223.669	-121.040	0.278	-0.046
-222.655	329.387	-0.106	-0.200
-221.640	245.262	0.159	0.264
-220.625	673.980	-0.144	0.369
-219.611	-131.701	0.134	-0.017
-218.596	358.200	0.080	0.157
-217.582	-136.933	0.084	-0.009
-216.567	553.780	0.157	-0.371
-215.552	-48.328	-0.207	0.098
-214.538	-109.659	0.171	0.036
-213.523	-162.740	-0.121	0.006
-212.509	-200.000	-0.008	0.083
-211.494	-200.000	-0.025	0.142
-210.479	-90.814	0.240	-0.068
-209.465	-16.326	-0.111	0.070
-208.450	369.348	-0.032	0.064
-207.436	252.970	0.129	0.216
-206.421	-73.421	0.037	-0.013
-205.406	111.792	-0.108	0.128
-204.392	-7.740	-0.059	0.039
-203.377	800.000	0.087	0.284
-202.363	-145.756	-0.220	-0.019
-201.348	129.814	-0.089	-0.112
-200.333	-59.296	-0.211	0.089
-199.319	268.294	0.051	0.087
-198.304	800.000	-0.078	-0.330
-197.290	800.000	-0.022	0.086
-196.275	800.000	-0.043	-0.152
-195.260	-32.230	-0.027	-0.015
-194.246	88.603	-0.184	0.201
-193.231	-200.000	0.010	-0.103
-192.217	-106.037	-0.257	-0.057
-191.202	-169.338	0.309	0.011
-190.187	-200.000	-0.001	-0.286
-189.173	800.000	-0.058	-0.234
-188.158	-125.323	0.190	-0.028
-187.144	-130.662	-0.180	-0.024
-186.129	159.676	0.119	-0.163
-185.114	73.549	0.198	0.203
-184.100	800.000	0.046	-0.173
-183.085	-116.226	0.203	-0.037
-182.071	-158.314	-0.189	-0.011
-181.056	62.044	0.135	-0.133
-180.042	-38.498	-0.331	0.172
-179.027	519.328	-0.118	0.271
-178.012	122.287	0.073	0.090
-176.998	-40.887	0.322	0.164
-175.983	158.295	0.128	0.174
-174.969	-200.000	0.022	0.315
-173.954	567.107	0.033	0.079
-172.939	-200.000	-0.012	-0.076
-171.925	-134.414	0.287	-0.035
-170.910	423.859	0.144	-0.303
-169.896	-22.826	-0.085	0.050
-168.881	140.754	0.116	0.150
-167.866	-200.000	-0.031	-0.149
-166.852	-200.000	-0.044	0.352
-165.837	84.570	0.153	0.164
-164.823	234.089	0.245	-0.396
-163.808	55.203	0.080	-0.076
-162.793	-22.242	0.273	-0.163
-161.779	-61.776	0.100	-0.041
-160.764	103.357	-0.068	-0.079
-159.750	3.792	0.091	-0.065
-158.735	-131.482	-0.344	0.045
-157.720	-104.626	0.254	0.057
-156.706	-131.682	0.171	-0.022
-155.691	212.888	0.046	-0.071
-154.677	154.074	0.262	-0.353
-153.662	13.712	0.135	-0.103
-152.647	-10.379	0.131	-0.085
-151.633	314.852	0.025	-0.046
-150.618	-200.000	0.023	0.156
-149.604	-103.726	0.042	-0.010
-148.589	-200.000	0.001	0.131
-147.574	93.310	0.067	-0.075
-146.560	116.782	-0.110	0.132
-145.545	800.000	0.063	0.176
-144.531	22.041	0.365	-0.292
-143.516	800.000	-0.104	-0.303
-142.502	31.702	-0.106	0.089
-141.487	-133.730	-0.229	-0.028
-140.472	-200.000	-0.001	-0.052
-139.458	196.902	0.114	-0.171
-138.443	-71.289	-0.127	-0.047
-137.429	800.000	-0.076	-0.235
-136.414	60.459	-0.060	0.059
-135.399	-158.445	0.039	-0.002
-134.385	800.000	0.077	0.228
-133.370	144.180	0.023	-0.030
-132.356	417.698	-0.181	0.379
-131.341	11.441	0.223	0.168
-130.326	-200.000	0.043	0.215
-129.312	585.477	-0.173	-0.416
-128.297	676.085	0.119	-0.304
-127.283	159.782	-0.119	0.163
-126.268	10.450	-0.357	0.267
-125.253	800.000	0.123	-0.379
-124.239	102.216	0.113	0.130
-123.224	-125.591	0.377	-0.056
-122.210	-56.439	0.273	0.119
-121.195	800.000	0.058	-0.164
-120.180	-60.377	0.206	-0.086
-119.166	-55.884	-0.284	-0.124
-118.151	411.277	0.060	-0.125
-117.137	-94.928	-0.154	0.041
-116.122	187.468	0.103	-0.151
-115.107	729.031	-0.029	0.076
-114.093	-68.862	0.133	-0.050
-113.078	81.197	-0.194	-0.206
-112.064	732.284	0.114	0.299
-111.049	-162.210	0.519	0.025
-110.034	149.406	-0.101	0.133
-109.020	-200.000	-0.026	-0.324
-108.005	-200.000	-0.003	-0.183
-106.991	458.964	0.041	0.090
-105.976	-200.000	0.026	-0.293
-104.962	-200.000	0.065	0.348
-103.947	70.353	-0.047	-0.047
-102.932	-38.283	-0.116	-0.060
-101.918	-200.000	0.117	-0.675
-100.903	22.975	0.275	-0.221
-99.889	205.622	0.207	-0.316
-98.874	80.670	-0.218	0.230
-97.859	800.000	-0.026	-0.072
-96.845	-200.000	0.021	0.101
-95.830	80.209	-0.185	-0.195
-94.816	679.701	0.089	0.228
-93.801	-40.257	0.279	0.142
-92.786	61.239	-0.137	0.133
-91.772	715.525	0.145	-0.377
-90.757	-200.000	0.005	-0.227
-89.743	-200.000	0.019	0.333
-88.728	-97.822	-0.192	-0.049
-87.713	220.503	-0.034	0.053
-86.699	-200.000	0.003	-0.112
-85.684	-47.790	-0.105	-0.050
-84.670	-93.244	-0.079	0.021
-83.655	-4.695	-0.033	0.022
-82.640	63.552	-0.130	-0.127
-81.626	-200.000	-0.018	0.078
-80.611	140.051	0.091	0.117
-79.597	-65.775	0.133	-0.052
-78.582	592.294	0.145	-0.350
-77.567	-117.240	-0.012	0.002
-76.553	186.537	-0.116	0.169
-75.538	-200.000	-0.003	0.291
-74.524	31.833	0.151	-0.127
-73.509	-140.186	0.210	0.022
-72.494	4.322	0.189	-0.136
-71.480	-28.775	-0.254	0.143
-70.465	-200.000	0.010	0.315
-69.451	284.979	0.190	0.335
-68.436	354.035	0.112	0.218
-67.422	333.585	-0.107	-0.203
-66.407	-62.230	-0.410	-0.167
-65.392	-40.597	-0.174	0.088
-64.378	-32.065	0.126	0.069
-63.363	800.000	0.033	0.122
-62.349	-200.000	0.033	0.373
-61.334	55.002	-0.968	-0.915
-60.319	114.575	0.546	0.651
-59.305	-200.000	-0.004	-0.965
-58.290	800.000	0.453	1.487
-57.276	567.283	0.488	1.159
-56.261	-200.000	120.293	622.364
-55.246	397.723	1566.306	3203.301
-54.232	140.367	2736.701	3531.919
-53.217	96.306	2176.034	2433.771
-52.203	36.139	1605.227	1382.485
-51.188	28.204	1346.628	1111.749
-50.173	25.536	1307.599	1063.727
-49.159	51.334	1371.106	1272.835
-48.144	49.368	1383.885	1272.725
-47.130	28.454	1335.114	1103.579
-46.115	25.154	1316.972	1068.906
-45.100	24.958	1311.587	1063.327
-44.086	24.886	1309.453	1061.126
-43.071	24.765	1307.312	1058.636
-42.057	24.777	1304.665	1056.521
-41.042	24.774	1303.270	1055.330
-40.027	24.893	1301.596	1054.634
-39.013	24.868	1300.165	1053.289
-37.998	24.902	1298.290	1051.927
-36.984	25.048	1296.351	1051.166
-35.969	24.952	1294.609	1049.154
-34.954	25.064	1292.613	1048.149
-33.940	25.091	1291.321	1047.219
-32.925	25.091	1290.263	1046.318
-31.911	25.131	1288.259	1044.886
-30.896	25.058	1287.358	1043.684
-29.881	25.058	1286.286	1042.778
-28.867	25.127	1284.342	1041.558
-27.852	25.112	1283.040	1040.378
-26.838	25.039	1282.073	1039.126
-25.823	25.084	1280.522	1038.089
-24.809	24.988	1279.393	1036.577
-23.794	25.080	1277.840	1035.810
-22.779	24.953	1277.086	1034.425
-21.765	25.111	1275.376	1033.910
-20.750	25.195	1273.323	1032.688
-19.736	24.992	1272.730	1030.996
-18.721	24.917	1271.400	1029.449
-17.706	24.999	1269.925	1028.680
-16.692	24.972	1269.167	1027.876
-15.677	24.971	1268.244	1027.082
-14.663	24.919	1266.866	1025.623
-13.648	24.938	1266.013	1025.000
-12.633	24.933	1264.680	1023.855
-11.619	25.040	1263.703	1023.632
-10.604	25.049	1262.941	1023.029
-9.590	24.905	1262.006	1021.408
-8.575	24.977	1260.690	1020.713
-7.560	24.899	1260.291	1019.907
-6.546	24.887	1259.622	1019.252
-5.531	24.876	1258.956	1018.614
-4.517	24.983	1257.727	1018.184
-3.502	24.922	1257.030	1017.233
-2.487	24.916	1255.960	1016.294
-1.473	25.032	1251.886	1013.614
-0.458	23.858	1237.436	995.303
0.556	19.435	1222.055	962.344
1.571	16.159	1230.388	950.393
2.586	15.372	1245.072	957.161
3.600	15.192	1232.563	946.444
4.615	11.093	1159.626	868.531
5.629	3.862	1086.470	777.419
6.644	0.464	1068.346	747.567
7.659	0.202	1066.195	744.704
8.673	0.103	1065.680	743.785
9.688	0.162	1064.431	743.140
10.702	0.447	1061.852	742.679
11.717	4.720	1067.587	767.742
12.731	12.016	1076.992	810.637
13.746	15.958	1081.955	833.855
14.761	16.821	1081.922	838.026
15.775	15.963	1080.806	832.846
16.790	14.982	1078.416	826.088
17.804	14.351	1077.089	821.886
18.819	14.068	1075.588	819.272
19.834	13.828	1074.857	817.464
20.848	13.546	1074.207	815.509
21.863	13.299	1073.049	813.343
22.877	13.159	1072.038	811.814
23.892	13.173	1071.647	811.517
24.907	13.141	1071.272	811.002
25.921	13.139	1070.162	810.081
26.936	13.278	1069.438	810.145
27.950	13.235	1068.276	808.982
28.965	13.199	1067.487	808.136
29.980	13.434	1065.580	807.769
30.994	13.339	1064.695	806.560
32.009	13.397	1063.463	805.841
33.023	13.315	1062.779	804.852
34.038	13.304	1061.830	804.010
35.053	13.346	1060.936	803.463
36.067	13.169	1060.401	802.127
37.082	13.457	1058.760	802.211
38.096	13.335	1058.430	801.298
39.111	13.347	1057.563	800.631
40.126	13.169	1056.411	798.828
41.140	13.168	1055.184	797.823
42.155	13.101	1054.182	796.675
43.169	13.132	1053.045	795.890
44.184	13.094	1052.067	794.901
45.199	13.102	1050.704	793.836
46.213	13.196	1049.664	793.432
47.228	13.131	1048.780	792.381
48.242	13.121	1047.907	791.606
49.257	13.147	1047.122	791.065
50.271	13.175	1046.525	790.680
51.286	13.225	1045.123	789.791
52.301	13.358	1043.928	789.453
53.315	13.255	1043.033	788.215
54.330	13.092	1042.357	786.858
55.344	13.225	1040.869	786.295
56.359	13.186	1040.182	785.524
57.374	13.219	1039.386	785.007
58.388	13.175	1038.040	783.714
59.403	13.078	1038.073	783.212
60.417	13.204	1036.697	782.698
61.432	13.138	1036.266	781.991
62.447	13.177	1035.020	781.169
63.461	12.981	1034.698	779.930
64.476	13.069	1033.324	779.237
65.490	12.962	1033.174	778.552
66.505	13.146	1032.056	778.505
67.520	13.021	1031.517	777.443
68.534	13.060	1031.008	777.177
69.549	13.045	1030.229	776.447
70.563	13.161	1028.751	775.808
71.578	13.111	1027.977	774.924
72.593	13.056	1027.669	774.366
73.607	13.110	1026.494	773.664
74.622	12.898	1026.685	772.747
75.636	13.009	1025.463	772.276
76.651	13.092	1024.890	772.164
77.666	12.956	1024.459	771.135
78.680	13.087	1023.406	770.889
79.695	12.939	1023.142	769.928
80.709	13.012	1022.620	769.808
81.724	13.131	1021.439	769.406
82.739	13.123	1020.658	768.714
83.753	13.211	1020.110	768.639
84.768	13.236	1019.300	768.081
85.782	13.467	1017.540	767.756
86.797	13.283	1017.326	766.674
87.812	13.225	1016.102	765.415
88.826	13.157	1015.276	764.412
89.841	13.212	1014.159	763.758
90.855	13.247	1013.486	763.343
91.870	13.235	1012.874	762.761
92.884	13.249	1012.011	762.108
93.899	13.358	1010.556	761.447
94.914	13.453	1010.232	761.572
95.928	13.394	1009.332	760.553
96.943	13.313	1008.495	759.483
97.957	13.377	1007.651	759.075
98.972	13.438	1006.617	758.508
99.987	13.350	1005.835	757.448
101.001	13.286	1004.927	756.405
102.016	13.309	1004.512	756.129
103.030	13.270	1003.411	755.058
104.045	13.258	1002.801	754.478
105.060	13.365	1001.390	753.834
106.074	13.234	1000.796	752.727
107.089	13.275	999.229	751.669
108.103	13.230	998.725	751.017
109.118	13.289	997.750	750.484
110.133	13.219	997.034	749.563
111.147	13.214	996.133	748.795
112.162	13.240	995.122	748.090
113.176	13.338	994.135	747.722
114.191	13.291	993.544	747.002
115.206	13.100	993.104	745.742
116.220	13.386	991.803	745.987
117.235	13.140	991.174	744.341
118.249	13.337	990.073	744.334
119.264	13.271	989.272	743.368
120.279	13.312	988.690	743.049
121.293	13.247	987.734	741.972
122.308	13.303	986.947	741.570
123.322	13.212	986.073	740.436
124.337	13.341	984.903	740.071
125.352	13.252	983.691	738.698
126.366	13.279	982.779	738.069
127.381	13.194	981.872	736.943
128.395	13.162	981.176	736.212
129.410	13.153	980.117	735.311
130.424	13.284	979.161	735.113
131.439	13.290	978.166	734.327
132.454	13.293	977.579	733.837
133.468	13.346	976.960	733.539
134.483	13.276	976.070	732.495
135.497	13.325	975.062	731.892
136.512	13.393	974.416	731.643
137.527	13.344	973.776	730.881
138.541	13.230	973.185	729.870
139.556	13.371	972.005	729.542
140.570	13.296	971.542	728.800
141.585	13.536	970.610	729.091
142.600	13.361	970.357	728.067
143.614	13.534	968.682	727.508
144.629	13.411	968.243	726.572
145.643	13.421	967.013	725.630
146.658	13.414	966.270	724.978
147.673	13.408	965.482	724.297
148.687	13.470	964.614	723.852
149.702	13.502	963.603	723.167
150.716	13.532	962.758	722.603
151.731	13.333	962.772	721.682
152.746	13.357	961.779	720.974
153.760	13.421	961.163	720.728
154.775	13.427	960.444	720.152
155.789	13.503	959.849	719.974
156.804	13.576	958.880	719.499
157.819	13.496	958.947	719.139
158.833	13.617	957.875	718.797
159.848	13.641	957.110	718.262
160.862	13.473	956.087	716.705
161.877	13.491	955.115	715.990
162.892	13.474	954.163	715.140
163.906	13.540	953.242	714.672
164.921	13.428	952.697	713.718
165.935	13.696	951.334	713.786
166.950	13.601	950.579	712.748
167.964	13.461	950.259	711.840
168.979	13.510	949.115	711.132
169.994	13.678	948.201	711.103
171.008	13.813	947.323	710.962
172.023	13.759	946.762	710.249
173.037	13.712	946.334	709.660
174.052	13.867	945.536	709.665
175.067	13.679	944.833	708.271
176.081	13.585	943.973	707.164
177.096	13.714	943.362	707.190
178.110	13.722	942.930	706.841
179.125	13.623	942.171	705.785
180.140	13.732	941.743	705.869
181.154	13.780	940.999	705.450
182.169	13.823	940.493	705.193
183.183	13.780	940.209	704.734
184.198	13.815	939.249	704.099
185.213	13.851	938.404	703.557
186.227	13.912	938.063	703.500
187.242	13.900	937.386	702.878
188.256	14.039	936.272	702.568
189.271	14.047	935.609	702.043
190.286	13.827	935.080	700.655
191.300	13.752	934.345	699.724
192.315	13.694	933.600	698.858
193.329	13.829	932.849	698.803
194.344	13.806	932.578	698.443
195.359	13.909	931.794	698.227
196.373	13.870	930.895	697.326
197.388	13.982	930.467	697.415
198.402	14.051	930.202	697.446
199.417	14.242	928.951	697.245
200.432	14.025	928.834	696.188
201.446	14.139	928.701	696.502
202.461	14.234	927.935	696.263
203.475	14.193	927.055	695.373
204.490	14.168	926.717	694.951
205.504	14.121	925.553	693.820
206.519	14.059	925.156	693.204
207.534	14.163	924.548	693.119
208.548	14.002	923.843	691.858
209.563	14.225	923.061	692.141
210.577	14.153	922.271	691.190
211.592	14.233	921.640	690.985
212.607	14.377	920.674	690.796
213.621	14.358	920.325	690.398
214.636	14.194	919.932	689.359
215.650	14.297	918.853	688.916
216.665	14.293	918.384	688.488
217.680	14.471	917.180	688.259
218.694	14.321	916.785	687.284
219.709	14.267	916.066	686.462
220.723	14.422	915.383	686.526
221.738	14.418	914.681	685.923
222.753	14.444	913.468	685.059
223.767	14.425	913.322	684.813
224.782	14.498	912.565	684.484
225.796	14.426	912.467	684.055
226.811	14.482	911.776	683.706
227.826	14.475	910.751	682.849
228.840	14.531	909.889	682.368
229.855	14.446	909.504	681.673
230.869	14.404	908.829	680.935
231.884	14.421	907.837	680.200
232.899	14.415	907.308	679.722
233.913	14.527	906.371	679.416
234.928	14.378	905.923	678.410
235.942	14.431	905.598	678.323
236.957	14.528	904.842	678.093
237.972	14.397	904.447	677.202
238.986	14.415	903.604	676.585
240.001	14.536	902.576	676.247
241.015	14.455	902.469	675.776
242.030	14.685	901.534	675.949
243.045	14.636	900.895	675.212
244.059	14.584	900.274	674.475
245.074	14.659	900.194	674.659
246.088	14.674	899.162	673.886
247.103	14.807	898.125	673.589
248.117	14.748	898.165	673.321
249.132	14.756	897.370	672.697
250.147	14.784	896.788	672.312
251.161	14.766	896.384	671.878
252.176	14.861	895.579	671.597
253.190	14.877	894.915	671.105
254.205	14.900	894.474	670.807
255.220	14.990	893.627	670.474
256.234	14.853	893.578	669.828
257.249	14.987	892.087	669.187
258.263	14.984	891.090	668.367
259.278	15.020	890.661	668.129
260.293	14.947	890.347	667.543
261.307	15.034	889.646	667.307
262.322	15.024	889.184	666.860
263.336	15.068	888.406	666.392
264.351	14.995	887.668	665.491
265.366	15.262	886.881	665.902
266.380	15.316	885.930	665.344
267.395	15.134	885.929	664.561
268.409	15.192	884.480	663.647
269.424	15.127	884.122	663.062
270.439	15.375	883.103	663.220
271.453	15.114	882.985	662.039
272.468	15.146	882.531	661.767
273.482	15.283	881.793	661.696
274.497	15.159	881.239	660.731
275.512	15.312	880.358	660.616
276.526	15.170	880.154	659.846
277.541	15.360	879.626	660.140
278.555	15.274	878.953	659.237
279.570	15.354	878.699	659.304
280.585	15.370	877.868	658.683
281.599	15.279	876.944	657.578
282.614	15.425	875.907	657.312
283.628	15.420	875.767	657.128
284.643	15.376	874.685	656.088
285.657	15.355	874.425	655.752
286.672	15.478	873.686	655.621
287.687	15.404	873.650	655.247
288.701	15.295	872.726	654.069
289.716	15.616	871.656	654.460
290.730	15.520	871.123	653.630
291.745	15.494	870.988	653.370
292.760	15.616	870.292	653.263
293.774	15.716	869.085	652.686
294.789	15.588	868.950	652.032
295.803	15.602	868.160	651.437
296.818	15.473	867.796	650.603
297.833	15.477	866.850	649.853
298.847	15.532	866.060	649.416
299.862	15.619	865.520	649.290
300.876	15.627	865.206	649.030
301.891	15.613	864.555	648.427
302.906	15.610	864.070	647.994
303.920	15.674	863.993	648.127
304.935	15.839	862.501	647.587
305.949	15.761	861.936	646.805
306.964	15.637	861.957	646.287
307.979	15.797	861.176	646.257
308.993	15.749	860.712	645.668
310.008	15.759	860.187	645.257
311.022	15.986	859.077	645.234
312.037	15.782	858.761	644.158
313.052	15.813	858.001	643.652
314.066	15.884	857.696	643.639
315.081	15.750	857.121	642.637
316.095	15.912	856.098	642.432
317.110	15.943	855.409	641.975
318.125	15.815	855.359	641.393
319.139	15.947	854.806	641.424
320.154	15.838	854.753	640.911
321.168	15.998	853.525	640.543
322.183	15.986	852.896	639.968
323.197	15.995	852.669	639.776
324.212	15.851	852.259	638.867
325.227	15.925	851.460	638.490
326.241	15.924	851.000	638.087
327.256	15.935	850.746	637.881
328.270	15.896	850.252	637.307
329.285	15.997	849.144	636.801
330.300	16.122	848.712	636.893
331.314	15.901	848.437	635.797
332.329	16.089	847.921	636.061
333.343	16.270	847.324	636.239
334.358	15.927	847.049	634.683
335.373	16.122	846.571	635.006
336.387	15.965	846.588	634.371
337.402	16.121	846.429	634.783
338.416	16.124	845.711	634.198
339.431	16.188	845.255	634.040
340.446	16.289	844.590	633.867
341.460	16.194	844.585	633.448
342.475	16.210	843.843	632.895
343.489	16.342	843.613	633.162
344.504	16.460	842.768	632.916
345.519	16.387	842.399	632.308
346.533	16.328	841.809	631.590
347.548	16.512	841.336	631.867
348.562	16.422	840.726	631.017
349.577	16.345	840.149	630.239
350.592	16.465	839.383	630.058
351.606	16.458	838.774	629.516
352.621	16.463	838.312	629.134
353.635	16.311	837.972	628.258
354.650	16.453	837.138	628.105
355.665	16.539	836.354	627.781
356.679	16.541	835.796	627.313
357.694	16.418	835.026	626.222
358.708	16.387	834.660	625.780
359.723	16.524	833.909	625.666
360.738	16.469	833.477	625.084
361.752	16.573	832.622	624.772
362.767	16.582	832.205	624.437
363.781	16.725	831.653	624.494
364.796	16.659	831.537	624.109
365.810	16.629	831.305	623.769
366.825	16.777	830.451	623.618
367.840	16.649	830.254	622.943
368.854	16.686	829.407	622.388
369.869	16.706	829.130	622.200
370.883	16.767	828.650	622.008
371.898	16.772	828.534	621.883
372.913	16.834	827.963	621.630
373.927	16.808	827.402	621.056
374.942	16.692	826.887	620.192
375.956	16.877	826.767	620.723
376.971	17.004	825.770	620.384
377.986	16.888	825.841	619.957
379.000	17.039	824.960	619.794
380.015	17.028	824.546	619.387
381.029	17.036	824.147	619.061
382.044	17.008	823.808	618.650
383.059	17.135	822.652	618.190
384.073	17.075	822.303	617.656
385.088	17.083	821.584	617.090
386.102	16.923	821.659	616.511
387.117	16.933	820.896	615.918
388.132	16.915	820.240	615.306
389.146	16.950	819.924	615.141
390.161	17.069	818.907	614.756
391.175	17.150	818.698	614.836
392.190	17.192	817.997	614.410
393.205	17.075	817.822	613.798
394.219	17.138	817.461	613.703
395.234	17.169	816.991	613.407
396.248	16.933	816.847	612.394
397.263	17.083	816.117	612.331
398.278	17.061	815.802	611.964
399.292	17.058	815.080	611.355
400.307	17.034	814.634	610.880
401.321	17.007	814.491	610.622
402.336	17.146	813.911	610.635
403.350	17.245	813.723	610.793
404.365	17.217	812.877	610.004
405.380	17.224	812.457	609.662
406.394	17.481	811.576	609.865
407.409	17.368	811.252	609.165
408.423	17.292	811.350	608.913
409.438	17.503	810.669	609.100
410.453	17.449	810.156	608.469
411.467	17.598	809.706	608.609
412.482	17.474	809.229	607.756
413.496	17.476	809.083	607.597
414.511	17.481	808.938	607.455
415.526	17.581	808.488	607.419
416.540	17.550	807.771	606.714
417.555	17.544	807.223	606.228
418.569	17.517	806.913	605.848
419.584	17.517	806.635	605.586
420.599	17.558	806.161	605.320
421.613	112.720	1298.029	1484.667
422.628	97.295	1369.641	1484.765
