DTS Sentinel unit serial number:	SN413079Multiplexer serial number:	ORYXHardware model number:	OX4-SRSoftware version number:	ORYX F/W v4.00 Oryx Data Collector v3.7.2.0data status	okinstallation	princeton_trtdifferential loss correction	single-endedforward channel	channel 1reverse channel	N/Adate	2019/09/13time	13:26:35forward acquisition time	60.00reverse acquisition time	0.00gamma	496.2192k internal	0.2304k external	0.2304temperature offset calibration	1.0164default loss term (dB/km)	0.3790temperature slope calibration	1.0000multiplexer offset coefficient	1.0000multiplexer slope coefficient	1.0000fibre end	0.00T internal ref (°C)	35.00T ext. ref 1 (°C)	4.57T ext. ref 2 (°C)	31.04length (m)	temperature (°C)	Stokes	anti-Stokes-747.200	365.539	-0.102	-0.208
-746.185	-200.000	-0.024	0.181
-745.171	295.836	0.133	0.248
-744.156	59.241	-0.194	0.194
-743.142	224.187	-0.025	-0.040
-742.127	800.000	0.082	-0.341
-741.112	-200.000	0.016	-0.167
-740.098	-24.371	0.075	0.046
-739.083	27.951	-0.171	0.146
-738.069	77.506	0.298	0.323
-737.054	-200.000	-0.001	-0.026
-736.039	21.546	-0.271	0.224
-735.025	-200.000	0.040	-0.331
-734.010	-133.883	0.244	-0.031
-732.996	-125.424	0.368	-0.057
-731.981	-106.013	0.394	-0.090
-730.966	-61.213	-0.166	0.071
-729.952	-200.000	-0.011	-0.332
-728.937	-152.502	-0.254	-0.018
-727.923	-200.000	0.003	-0.117
-726.908	85.195	0.190	-0.212
-725.894	-200.000	-0.046	-0.290
-724.879	547.650	-0.034	0.083
-723.864	-200.000	-0.019	-0.219
-722.850	53.409	0.081	-0.079
-721.835	-200.000	0.017	0.211
-720.821	137.481	0.175	-0.233
-719.806	-90.466	-0.345	-0.102
-718.791	128.218	0.044	-0.057
-717.777	9.784	0.018	-0.014
-716.762	-200.000	0.003	-0.288
-715.748	-200.000	-0.023	-0.199
-714.733	800.000	0.057	-0.252
-713.718	-121.043	0.239	-0.041
-712.704	74.638	-0.116	-0.124
-711.689	41.848	-0.363	-0.335
-710.675	-101.275	-0.112	-0.028
-709.660	97.585	-0.175	0.204
-708.645	222.322	-0.166	-0.271
-707.631	60.003	-0.142	0.143
-706.616	95.217	-0.048	-0.056
-705.602	212.779	-0.181	-0.291
-704.587	393.486	0.085	-0.180
-703.572	276.943	-0.067	-0.122
-702.558	-92.176	0.354	0.102
-701.543	-109.593	0.083	-0.018
-700.529	-52.034	0.112	0.053
-699.514	53.995	0.278	0.272
-698.499	800.000	0.035	-0.121
-697.485	6.302	-0.267	0.201
-696.470	-47.491	-0.063	0.031
-695.456	-76.706	0.336	-0.120
-694.441	-126.029	0.090	-0.014
-693.426	-200.000	-0.021	-0.308
-692.412	-122.541	-0.281	-0.046
-691.397	-64.079	-0.205	0.085
-690.383	-77.975	0.080	0.028
-689.368	-34.357	-0.199	-0.111
-688.354	-154.009	-0.108	0.007
-687.339	-111.191	0.049	-0.010
-686.324	-200.000	-0.022	0.125
-685.310	24.723	0.178	0.149
-684.295	-195.270	-0.108	-0.001
-683.281	-170.205	0.189	-0.007
-682.266	-200.000	0.056	0.278
-681.251	-200.000	-0.011	-0.115
-680.237	800.000	-0.011	0.033
-679.222	800.000	-0.041	-0.116
-678.208	-84.014	-0.261	-0.084
-677.193	9.943	0.189	-0.146
-676.178	-75.755	0.312	0.112
-675.164	-148.750	0.127	-0.010
-674.149	-200.000	0.015	0.278
-673.135	50.503	-0.084	-0.080
-672.120	-40.014	-0.251	-0.133
-671.105	57.571	0.238	-0.237
-670.091	241.381	0.078	-0.132
-669.076	-83.510	-0.420	-0.136
-668.062	-153.085	-0.155	0.011
-667.047	-200.000	-0.010	-0.370
-666.032	18.199	0.032	0.026
-665.018	678.538	0.136	-0.358
-664.003	-200.000	0.003	-0.184
-662.989	13.321	-0.127	-0.100
-661.974	800.000	0.024	-0.085
-660.959	-200.000	0.025	0.207
-659.945	361.202	-0.194	-0.395
-658.930	-112.304	0.232	-0.047
-657.916	-9.094	0.127	-0.086
-656.901	37.529	-0.084	0.076
-655.886	-67.708	-0.111	-0.044
-654.872	25.342	-0.166	-0.140
-653.857	-52.851	-0.369	-0.173
-652.843	247.994	0.289	-0.496
-651.828	-114.625	-0.190	-0.037
-650.814	486.759	0.031	0.071
-649.799	-200.000	-0.025	0.294
-648.784	800.000	0.139	-0.400
-647.770	-0.112	-0.113	-0.082
-646.755	112.693	-0.028	-0.034
-645.741	-67.027	0.069	0.028
-644.726	800.000	0.075	0.321
-643.711	228.327	-0.047	-0.077
-642.697	-200.000	0.039	-0.202
-641.682	32.344	-0.311	0.272
-640.668	302.542	0.180	-0.338
-639.653	713.826	-0.080	0.216
-638.638	634.375	-0.021	-0.055
-637.624	37.288	0.096	-0.086
-636.609	-200.000	0.038	0.252
-635.595	-74.082	0.208	-0.076
-634.580	114.541	-0.061	-0.075
-633.565	80.519	0.051	-0.056
-632.551	367.143	0.040	-0.082
-631.536	182.977	-0.113	-0.169
-630.522	-200.000	-0.012	-0.301
-629.507	600.820	0.078	-0.197
-628.492	73.218	0.072	0.077
-627.478	-200.000	0.051	-0.322
-626.463	-94.804	0.369	-0.102
-625.449	-67.200	-0.378	-0.151
-624.434	-187.740	0.297	-0.004
-623.419	-133.168	-0.134	-0.017
-622.405	-58.022	-0.401	0.178
-621.390	-135.952	-0.121	0.014
-620.376	51.767	0.028	0.027
-619.361	-200.000	-0.052	-0.305
-618.346	-123.713	-0.023	0.004
-617.332	-128.008	0.157	-0.023
-616.317	800.000	-0.014	-0.041
-615.303	231.768	-0.027	0.046
-614.288	-174.102	0.134	-0.004
-613.273	800.000	0.164	0.484
-612.259	800.000	0.031	0.099
-611.244	7.788	-0.151	-0.115
-610.230	46.780	-0.120	0.113
-609.215	-85.951	0.249	0.078
-608.201	-60.414	0.243	-0.105
-607.186	165.270	0.121	-0.173
-606.171	-200.000	-0.033	0.325
-605.157	-163.699	-0.332	0.016
-604.142	-200.000	-0.017	-0.121
-603.128	-5.724	0.249	0.173
-602.113	-56.778	-0.098	-0.044
-601.098	-200.000	-0.037	-0.252
-600.084	-168.469	-0.285	0.011
-599.069	-44.424	0.219	0.111
-598.055	-200.000	0.029	-0.193
-597.040	-118.437	-0.398	-0.071
-596.025	-86.967	0.233	0.072
-595.011	800.000	-0.098	-0.338
-593.996	584.547	-0.117	-0.291
-592.982	13.777	-0.078	-0.061
-591.967	111.688	0.079	0.097
-590.952	-121.278	-0.188	0.032
-589.938	-23.158	-0.179	0.109
-588.923	513.130	0.069	-0.163
-587.909	-85.865	-0.082	0.026
-586.894	367.648	-0.058	0.119
-585.879	-22.193	0.174	-0.107
-584.865	343.040	0.133	0.264
-583.850	275.916	0.190	0.342
-582.836	-200.000	-0.008	0.046
-581.821	34.878	-0.089	0.079
-580.806	-5.279	-0.171	0.119
-579.792	423.766	-0.047	0.102
-578.777	-200.000	-0.024	-0.259
-577.763	51.296	-0.223	0.214
-576.748	-115.117	0.089	-0.017
-575.733	-7.203	-0.164	-0.113
-574.719	142.361	-0.065	0.087
-573.704	19.760	-0.042	-0.034
-572.690	800.000	-0.015	0.048
-571.675	-135.307	-0.209	-0.025
-570.661	-179.705	-0.085	-0.002
-569.646	-200.000	-0.018	0.095
-568.631	-200.000	-0.036	-0.473
-567.617	-161.716	0.180	0.009
-566.602	19.105	-0.151	-0.122
-565.588	800.000	0.076	0.250
-564.573	6.217	-0.069	-0.051
-563.558	98.735	-0.157	0.183
-562.544	800.000	0.108	-0.345
-561.529	-200.000	-0.015	0.289
-560.515	685.276	-0.056	-0.149
-559.500	-72.292	0.325	-0.122
-558.485	-78.444	-0.203	0.070
-557.471	10.063	-0.090	-0.069
-556.456	-200.000	-0.022	-0.112
-555.442	467.672	0.054	0.122
-554.427	-102.173	-0.210	-0.051
-553.412	-200.000	0.004	-0.106
-552.398	102.394	0.070	-0.083
-551.383	146.671	0.147	0.199
-550.369	-200.000	-0.038	-0.177
-549.354	-91.624	-0.207	0.060
-548.339	800.000	0.014	0.056
-547.325	-48.594	-0.270	-0.131
-546.310	20.369	-0.355	0.290
-545.296	-152.455	-0.461	0.033
-544.281	-38.753	-0.243	0.130
-543.266	431.768	-0.184	0.402
-542.252	111.484	0.053	-0.065
-541.237	800.000	0.093	-0.288
-540.223	9.477	-0.259	-0.198
-539.208	-111.663	0.427	-0.087
-538.193	-55.307	-0.114	-0.052
-537.179	-28.687	-0.143	0.083
-536.164	32.347	0.277	-0.241
-535.150	372.342	-0.126	-0.259
-534.135	179.484	0.075	0.111
-533.121	-164.884	-0.153	-0.007
-532.106	-163.226	-0.075	0.004
-531.091	800.000	0.070	0.207
-530.077	-0.501	0.288	-0.206
-529.062	-57.450	-0.271	-0.120
-528.048	800.000	-0.146	0.438
-527.033	-190.871	-0.260	-0.003
-526.018	523.623	0.072	-0.172
-525.004	139.116	-0.092	-0.123
-523.989	-48.669	-0.213	0.103
-522.975	-178.014	0.313	-0.008
-521.960	-200.000	0.013	-0.097
-520.945	800.000	-0.054	0.232
-519.931	110.415	0.267	-0.324
-518.916	16.633	-0.072	0.057
-517.902	-200.000	0.006	-0.093
-516.887	12.617	-0.129	-0.101
-515.872	230.107	0.088	0.145
-514.858	57.818	-0.285	-0.281
-513.843	-143.746	-0.113	-0.011
-512.829	800.000	-0.075	-0.228
-511.814	-170.370	0.116	-0.004
-510.799	237.942	0.139	0.234
-509.785	-200.000	0.017	-0.374
-508.770	-200.000	-0.019	-0.205
-507.756	-200.000	-0.001	-0.076
-506.741	331.681	0.133	-0.260
-505.726	-200.000	-0.029	-0.148
-504.712	-51.546	-0.323	-0.152
-503.697	-200.000	0.002	0.223
-502.683	-200.000	-0.053	0.252
-501.668	-21.934	-0.384	0.235
-500.653	-11.589	0.300	0.199
-499.639	-150.016	0.217	-0.017
-498.624	692.334	0.015	0.040
-497.610	283.296	0.097	-0.176
-496.595	800.000	-0.039	-0.150
-495.581	37.429	-0.206	0.184
-494.566	-12.527	-0.244	0.161
-493.551	49.112	-0.047	-0.044
-492.537	-159.096	0.082	-0.005
-491.522	-40.385	0.093	0.049
-490.508	256.827	-0.103	0.179
-489.493	293.933	-0.105	0.194
-488.478	-58.665	-0.274	-0.120
-487.464	724.235	-0.115	-0.308
-486.449	-200.000	0.012	0.095
-485.435	211.642	-0.107	-0.169
-484.420	-135.130	-0.207	0.025
-483.405	800.000	-0.053	0.229
-482.391	-66.358	-0.276	-0.111
-481.376	-52.848	0.254	-0.118
-480.362	91.912	-0.159	0.180
-479.347	-200.000	-0.028	-0.384
-478.332	204.491	-0.047	-0.073
-477.318	-41.830	-0.371	0.192
-476.303	483.352	-0.056	0.128
-475.289	-95.410	0.401	-0.108
-474.274	265.607	0.154	-0.271
-473.259	-112.168	-0.165	0.033
-472.245	116.948	-0.148	-0.183
-471.230	-132.111	-0.275	-0.036
-470.216	-6.614	-0.170	0.117
-469.201	-200.000	-0.094	0.416
-468.186	-15.152	0.167	-0.107
-467.172	800.000	-0.136	0.393
-466.157	-18.324	-0.215	0.135
-465.143	800.000	0.075	0.331
-464.128	-200.000	-0.041	-0.265
-463.113	-102.762	-0.157	-0.038
-462.099	-42.442	0.338	0.174
-461.084	575.755	0.160	-0.393
-460.070	-109.009	-0.245	0.053
-459.055	-200.000	-0.008	-0.195
-458.040	73.879	-0.041	0.043
-457.026	485.769	0.084	-0.192
-456.011	800.000	0.102	-0.296
-454.997	419.148	0.155	-0.333
-453.982	598.617	0.044	-0.110
-452.968	163.987	0.120	0.170
-451.953	224.717	0.063	0.103
-450.938	-200.000	0.013	-0.136
-449.924	800.000	-0.104	0.351
-448.909	800.000	0.021	0.077
-447.895	-200.000	-0.145	-0.001
-446.880	-39.091	-0.278	0.147
-445.865	-21.044	-0.064	-0.039
-444.851	136.049	-0.086	0.112
-443.836	164.707	0.189	0.268
-442.822	66.273	-0.152	-0.155
-441.807	-48.198	-0.105	0.051
-440.792	93.657	-0.228	0.260
-439.778	-12.190	0.139	-0.092
-438.763	-200.000	-0.005	-0.277
-437.749	203.495	0.132	0.206
-436.734	73.655	0.117	-0.123
-435.719	800.000	0.042	0.134
-434.705	109.860	-0.019	-0.023
-433.690	275.841	0.071	0.127
-432.676	7.406	-0.322	-0.242
-431.661	-200.000	0.021	0.256
-430.646	-86.370	0.351	-0.108
-429.632	-65.042	0.170	0.069
-428.617	-14.892	0.236	0.152
-427.603	-83.374	0.129	-0.042
-426.588	-200.000	0.004	-0.039
-425.573	-31.470	-0.039	0.022
-424.559	-11.826	-0.170	0.112
-423.544	66.127	0.046	0.047
-422.530	237.974	0.116	-0.194
-421.515	-69.741	0.196	0.075
-420.500	-200.000	-0.090	0.457
-419.486	-200.000	-0.056	0.271
-418.471	91.489	0.249	0.282
-417.457	-200.000	0.003	0.049
-416.442	51.538	-0.205	0.196
-415.428	91.683	-0.064	0.073
-414.413	53.384	-0.096	-0.093
-413.398	-111.634	0.133	0.027
-412.384	-73.825	0.180	0.066
-411.369	-131.246	0.042	-0.006
-410.355	-200.000	-0.002	-0.295
-409.340	-154.379	-0.076	-0.005
-408.325	-109.413	-0.248	-0.053
-407.311	-195.500	-0.495	-0.004
-406.296	-143.656	0.096	-0.009
-405.282	-27.002	-0.115	-0.068
-404.267	40.667	0.264	0.239
-403.252	-9.317	-0.046	0.031
-402.238	130.534	-0.116	-0.149
-401.223	540.226	-0.101	-0.242
-400.209	14.394	0.052	0.041
-399.194	-79.256	0.102	-0.035
-398.179	800.000	-0.059	-0.257
-397.165	800.000	-0.046	-0.140
-396.150	-110.807	0.230	-0.048
-395.136	-193.337	0.247	-0.002
-394.121	55.778	0.053	-0.051
-393.106	216.786	0.075	-0.120
-392.092	362.938	-0.204	0.411
-391.077	69.727	0.179	0.186
-390.063	-90.364	-0.244	0.071
-389.048	-200.000	0.026	-0.128
-388.033	-200.000	-0.034	0.188
-387.019	-178.530	0.182	0.004
-386.004	-163.471	-0.167	0.008
-384.990	-23.226	-0.058	0.035
-383.975	42.823	-0.160	0.146
-382.960	-146.462	-0.309	0.027
-381.946	571.378	0.032	0.077
-380.931	129.939	0.183	0.235
-379.917	-41.947	0.375	0.193
-378.902	800.000	-0.046	-0.181
-377.888	-23.329	0.126	0.076
-376.873	224.587	-0.149	0.241
-375.858	-143.534	0.220	-0.021
-374.844	711.847	0.165	-0.438
-373.829	383.192	0.059	0.121
-372.815	-200.000	0.018	0.429
-371.800	-55.725	-0.352	-0.158
-370.785	12.586	0.144	0.111
-369.771	-200.000	0.006	0.185
-368.756	-200.000	0.007	-0.080
-367.742	-10.181	-0.252	-0.168
-366.727	170.219	-0.097	-0.140
-365.712	321.479	-0.106	-0.203
-364.698	51.951	0.165	0.158
-363.683	-163.849	0.090	-0.004
-362.669	39.456	-0.153	-0.137
-361.654	3.768	0.012	0.009
-360.639	392.556	0.086	-0.179
-359.625	193.874	-0.134	-0.203
-358.610	310.224	-0.097	-0.182
-357.596	800.000	-0.017	-0.071
-356.581	-144.761	-0.099	-0.009
-355.566	165.307	-0.042	-0.060
-354.552	-79.596	-0.223	-0.076
-353.537	-14.035	-0.148	-0.096
-352.523	274.255	-0.229	-0.406
-351.508	800.000	0.080	-0.294
-350.493	-96.735	0.330	-0.087
-349.479	-41.915	-0.070	-0.036
-348.464	-200.000	-0.007	0.148
-347.450	-65.759	-0.294	0.118
-346.435	6.499	0.180	0.134
-345.420	362.344	0.171	-0.344
-344.406	-137.206	-0.260	-0.030
-343.391	-182.089	-0.130	-0.002
-342.377	129.393	0.090	-0.115
-341.362	-200.000	0.014	-0.134
-340.348	77.300	0.134	-0.143
-339.333	-60.772	0.366	-0.155
-338.318	41.070	-0.225	-0.203
-337.304	-79.874	0.212	0.072
-336.289	29.642	-0.213	0.182
-335.275	96.715	-0.021	0.024
-334.260	-18.598	-0.095	0.059
-333.245	-200.000	0.018	0.320
-332.231	161.433	0.035	-0.049
-331.216	212.518	0.098	0.155
-330.202	21.191	0.035	-0.029
-329.187	288.707	-0.081	0.147
-328.172	-200.000	0.016	-0.278
-327.158	186.010	0.091	-0.135
-326.143	-6.971	-0.177	-0.120
-325.129	800.000	-0.017	-0.048
-324.114	-67.792	-0.253	-0.099
-323.099	-115.379	0.492	0.093
-322.085	-95.788	-0.207	-0.055
-321.070	-41.900	-0.195	-0.100
-320.056	-200.000	-0.080	0.405
-319.041	-24.395	-0.076	0.045
-318.026	-200.000	0.041	-0.203
-317.012	-200.000	0.012	-0.079
-315.997	42.397	0.135	0.123
-314.983	-200.000	0.043	0.286
-313.968	-200.000	0.002	-0.043
-312.953	726.137	-0.061	-0.164
-311.939	17.789	-0.122	-0.098
-310.924	165.997	0.089	0.125
-309.910	-0.203	-0.080	0.057
-308.895	-200.000	-0.026	0.230
-307.880	300.009	-0.149	-0.275
-306.866	-27.966	0.198	-0.115
-305.851	800.000	-0.064	-0.223
-304.837	-200.000	0.030	-0.204
-303.822	-111.176	0.110	-0.023
-302.807	-200.000	-0.057	0.331
-301.793	69.986	-0.122	-0.126
-300.778	-127.144	0.389	0.057
-299.764	-200.000	0.001	-0.139
-298.749	-67.318	0.447	-0.176
-297.735	329.822	-0.053	0.101
-296.720	92.171	0.042	-0.047
-295.705	648.478	-0.142	-0.364
-294.691	-92.672	0.126	0.035
-293.676	-112.665	0.378	-0.075
-292.662	-137.697	0.073	-0.008
-291.647	-200.000	-0.053	0.426
-290.632	-13.336	-0.120	-0.078
-289.618	72.010	0.198	-0.206
-288.603	-185.980	0.045	0.001
-287.589	-30.864	0.216	0.122
-286.574	91.273	0.211	0.237
-285.559	53.824	0.090	0.086
-284.545	-109.692	0.290	-0.061
-283.530	88.110	0.133	0.148
-282.516	91.365	0.320	-0.360
-281.501	-200.000	-0.010	-0.335
-280.486	-31.438	-0.090	-0.051
-279.472	-200.000	0.002	0.070
-278.457	-5.014	0.031	-0.021
-277.443	-121.224	0.408	-0.068
-276.428	-117.535	-0.174	0.031
-275.413	-42.762	0.051	0.026
-274.399	216.999	-0.131	0.209
-273.384	-65.240	-0.522	0.210
-272.370	-166.901	-0.299	-0.012
-271.355	-76.697	-0.271	-0.095
-270.340	541.655	-0.097	0.230
-269.326	-20.232	0.112	-0.069
-268.311	-41.964	0.106	0.054
-267.297	-200.000	-0.048	0.352
-266.282	-200.000	-0.025	0.216
-265.267	-108.382	0.315	-0.068
-264.253	589.511	-0.122	-0.300
-263.238	-155.697	-0.156	0.010
-262.224	76.073	0.084	0.089
-261.209	621.905	-0.110	0.277
-260.195	-92.823	-0.100	0.028
-259.180	251.579	0.170	-0.289
-258.165	333.854	-0.136	0.264
-257.151	800.000	0.029	-0.090
-256.136	500.165	-0.052	-0.121
-255.122	800.000	-0.078	0.311
-254.107	169.737	0.013	-0.019
-253.092	-15.366	-0.206	-0.131
-252.078	-60.300	0.265	0.113
-251.063	-43.805	0.187	-0.094
-250.049	335.401	0.218	0.421
-249.034	-22.492	-0.205	-0.124
-248.019	112.283	0.195	-0.235
-247.005	-85.262	-0.287	-0.090
-245.990	-123.106	-0.304	0.049
-244.976	-67.558	-0.129	-0.051
-243.961	103.451	-0.048	0.056
-242.946	271.304	-0.065	-0.114
-241.932	36.775	-0.122	-0.107
-240.917	-193.675	0.164	0.001
-239.903	249.910	0.079	0.134
-238.888	800.000	-0.040	0.136
-237.873	-200.000	-0.052	0.233
-236.859	-157.977	0.214	-0.013
-235.844	-44.145	-0.232	-0.116
-234.830	-47.508	-0.383	0.186
-233.815	25.020	-0.058	0.048
-232.800	-59.747	-0.124	0.053
-231.786	288.190	0.152	0.275
-230.771	37.226	0.140	0.124
-229.757	-178.917	0.280	-0.006
-228.742	642.333	0.222	0.566
-227.727	-200.000	0.030	0.196
-226.713	28.861	0.224	-0.190
-225.698	87.180	-0.299	-0.330
-224.684	24.352	0.370	-0.305
-223.669	-200.000	-0.039	-0.420
-222.655	53.429	-0.183	-0.175
-221.640	215.110	0.015	-0.023
-220.625	69.584	0.142	0.146
-219.611	-113.095	0.323	-0.064
-218.596	469.204	-0.052	0.117
-217.582	-115.995	0.370	0.069
-216.567	-83.385	0.062	0.020
-215.552	208.393	-0.135	-0.210
-214.538	582.609	0.083	-0.203
-213.523	-37.099	-0.168	0.090
-212.509	-170.594	0.217	-0.008
-211.494	306.009	-0.083	0.153
-210.479	800.000	0.128	0.434
-209.465	-200.000	-0.004	0.201
-208.450	800.000	0.019	-0.073
-207.436	603.248	0.066	0.164
-206.421	800.000	0.127	0.494
-205.406	-87.278	-0.147	-0.045
-204.392	-53.682	0.323	0.147
-203.377	-44.919	0.241	-0.120
-202.363	-60.233	0.270	-0.115
-201.348	48.649	0.069	0.065
-200.333	403.060	0.008	-0.018
-199.319	191.968	0.084	0.127
-198.304	-56.851	0.328	0.145
-197.290	557.053	-0.062	0.148
-196.275	90.243	-0.130	0.145
-195.260	171.962	0.131	-0.188
-194.246	-92.474	0.261	0.073
-193.231	-92.397	0.243	-0.068
-192.217	-4.959	0.168	0.116
-191.202	-55.155	-0.144	0.064
-190.187	115.782	0.185	-0.225
-189.173	-37.588	0.177	0.094
-188.158	-151.230	0.206	-0.015
-187.144	800.000	0.055	-0.220
-186.129	800.000	0.064	-0.179
-185.114	-197.875	0.410	-0.002
-184.100	57.068	-0.070	0.068
-183.085	-200.000	-0.029	0.605
-182.071	-200.000	-0.052	0.256
-181.056	317.959	0.029	0.055
-180.042	-117.205	-0.116	-0.021
-179.027	327.876	0.066	0.126
-178.012	-46.938	-0.148	-0.072
-176.998	-65.009	-0.167	-0.067
-175.983	84.639	0.185	-0.202
-174.969	771.635	-0.079	-0.215
-173.954	-158.080	-0.166	0.010
-172.939	-23.974	-0.232	0.138
-171.925	-2.382	0.246	-0.172
-170.910	563.022	-0.023	0.054
-169.896	266.249	0.081	-0.141
-168.881	-115.160	0.337	0.063
-167.866	57.227	-0.126	-0.123
-166.852	800.000	0.028	-0.088
-165.837	-92.878	0.250	-0.070
-164.823	-86.543	0.121	-0.037
-163.808	-85.117	0.362	-0.113
-162.793	66.029	0.342	0.345
-161.779	22.087	0.075	-0.061
-160.764	-87.601	0.171	0.051
-159.750	56.726	-0.068	-0.066
-158.735	28.724	-0.158	0.133
-157.720	113.089	0.080	-0.097
-156.706	469.494	-0.051	-0.115
-155.691	90.669	-0.069	0.077
-154.677	800.000	-0.102	0.333
-153.662	544.925	-0.066	0.158
-152.647	-53.965	0.128	0.058
-151.633	444.919	-0.034	-0.075
-150.618	-64.985	-0.379	-0.152
-149.604	367.380	-0.076	0.152
-148.589	-114.137	-0.429	-0.083
-147.574	183.124	0.172	-0.253
-146.560	75.719	-0.444	-0.467
-145.545	67.184	0.069	-0.070
-144.531	-64.156	0.041	-0.017
-143.516	140.686	-0.101	-0.133
-142.502	125.598	-0.100	-0.126
-141.487	-86.616	0.066	-0.020
-140.472	230.011	-0.095	-0.155
-139.458	274.299	0.146	-0.258
-138.443	-151.113	-0.210	0.016
-137.429	-113.900	0.260	-0.050
-136.414	800.000	-0.046	0.158
-135.399	582.457	-0.098	0.239
-134.385	-117.167	-0.121	0.022
-133.370	-42.082	0.040	0.020
-132.356	-9.992	0.176	-0.116
-131.341	464.790	0.034	-0.075
-130.326	140.467	0.172	0.226
-129.312	21.560	-0.089	0.072
-128.297	247.269	0.087	-0.147
-127.283	491.344	0.117	-0.267
-126.268	81.243	0.136	-0.146
-125.253	-159.306	0.370	-0.021
-124.239	-80.947	-0.284	0.094
-123.224	800.000	0.150	0.438
-122.210	-64.798	-0.287	-0.115
-121.195	239.525	0.075	0.124
-120.180	546.180	-0.028	0.066
-119.166	-160.420	0.172	-0.009
-118.151	-200.000	-0.025	-0.247
-117.137	-67.696	0.102	-0.040
-116.122	-200.000	-0.015	0.150
-115.107	90.099	0.280	0.311
-114.093	405.613	-0.066	-0.138
-113.078	97.839	0.197	-0.225
-112.064	276.678	0.175	-0.309
-111.049	-33.797	-0.108	-0.059
-110.034	-55.575	-0.337	-0.150
-109.020	-200.000	-0.026	-0.126
-108.005	-136.648	-0.245	-0.028
-106.991	800.000	0.059	-0.240
-105.976	-90.012	0.255	0.074
-104.962	-134.859	0.225	-0.027
-103.947	800.000	-0.160	0.599
-102.932	-200.000	0.011	0.231
-101.918	-200.000	0.010	0.066
-100.903	-112.534	0.168	-0.033
-99.889	-34.765	-0.092	0.050
-98.874	315.316	0.110	0.206
-97.859	-200.000	-0.007	-0.070
-96.845	29.878	-0.181	-0.154
-95.830	131.532	0.125	-0.160
-94.816	133.970	0.223	-0.287
-93.801	-146.588	-0.304	-0.026
-92.786	19.173	0.257	-0.205
-91.772	-200.000	0.038	-0.296
-90.757	-200.000	-0.059	0.429
-89.743	-22.517	-0.243	0.146
-88.728	206.333	0.158	0.244
-87.713	800.000	-0.050	-0.208
-86.699	-164.937	-0.035	0.002
-85.684	478.894	-0.075	0.169
-84.670	800.000	0.134	0.478
-83.655	247.613	0.074	-0.124
-82.640	-200.000	-0.053	-0.390
-81.626	172.957	-0.071	0.101
-80.611	-200.000	-0.044	0.470
-79.597	-182.416	0.450	-0.008
-78.582	800.000	-0.085	-0.295
-77.567	-101.930	0.440	0.105
-76.553	-124.169	0.119	0.018
-75.538	-30.597	0.207	-0.116
-74.524	-10.981	-0.458	-0.300
-73.509	109.187	-0.303	0.360
-72.494	-6.062	0.013	0.009
-71.480	-30.335	0.039	0.022
-70.465	50.043	-0.089	-0.083
-69.451	13.259	0.178	0.137
-68.436	800.000	0.063	-0.237
-67.422	129.699	0.113	0.144
-66.407	-76.641	-0.147	-0.051
-65.392	-12.209	-0.380	0.247
-64.378	-77.693	0.070	-0.024
-63.363	-126.785	0.248	0.036
-62.349	-114.522	-0.384	0.073
-61.334	54.504	-0.910	-0.869
-60.319	259.648	0.255	0.436
-59.305	-200.000	0.090	-0.919
-58.290	208.410	0.389	0.603
-57.276	227.670	0.782	1.261
-56.261	-200.000	94.956	560.852
-55.246	633.271	1383.517	3475.429
-54.232	185.484	2606.338	3836.248
-53.217	122.930	2197.475	2726.285
-52.203	46.866	1647.730	1517.719
-51.188	38.428	1381.298	1219.939
-50.173	35.195	1338.369	1162.406
-49.159	55.446	1387.086	1330.275
-48.144	59.833	1404.766	1374.247
-47.130	38.835	1359.519	1203.010
-46.115	35.100	1341.604	1164.455
-45.100	34.903	1337.258	1159.441
-44.086	34.976	1334.214	1157.196
-43.071	34.825	1332.094	1154.403
-42.057	34.815	1329.641	1152.167
-41.042	34.939	1327.880	1151.345
-40.027	34.907	1326.156	1149.612
-39.013	34.875	1324.468	1147.907
-37.998	34.929	1322.528	1146.504
-36.984	35.044	1320.411	1145.314
-35.969	35.006	1319.227	1144.013
-34.954	35.144	1316.834	1142.717
-33.940	35.123	1315.530	1141.412
-32.925	35.067	1314.368	1140.030
-31.911	35.108	1312.956	1139.000
-30.896	35.112	1311.409	1137.640
-29.881	35.035	1310.618	1136.449
-28.867	35.001	1308.864	1134.681
-27.852	35.069	1307.363	1133.741
-26.838	35.177	1305.738	1132.924
-25.823	35.102	1304.742	1131.573
-24.809	35.132	1302.982	1130.179
-23.794	35.092	1301.899	1128.959
-22.779	35.077	1300.340	1127.472
-21.765	34.988	1299.705	1126.354
-20.750	35.065	1298.215	1125.470
-19.736	34.943	1296.838	1123.512
-18.721	34.996	1295.382	1122.520
-17.706	34.992	1293.733	1121.019
-16.692	34.985	1292.727	1120.064
-15.677	34.927	1291.865	1118.936
-14.663	34.969	1290.520	1117.970
-13.648	34.948	1289.314	1116.760
-12.633	34.887	1288.598	1115.737
-11.619	34.976	1287.927	1115.632
-10.604	34.980	1287.135	1114.924
-9.590	34.890	1285.840	1113.235
-8.575	34.895	1285.066	1112.552
-7.560	34.948	1284.141	1112.016
-6.546	34.851	1283.243	1110.628
-5.531	34.909	1282.226	1110.038
-4.517	34.859	1281.359	1108.958
-3.502	34.844	1280.914	1108.440
-2.487	34.852	1279.834	1107.511
-1.473	34.930	1275.273	1103.967
-0.458	33.695	1259.861	1083.533
0.556	31.679	1240.317	1039.911
1.571	27.258	1243.763	1018.026
2.586	25.611	1258.003	1020.257
3.600	23.799	1245.755	1000.049
4.615	17.947	1171.631	909.393
5.629	9.106	1094.721	805.445
6.644	4.921	1073.756	769.321
7.659	4.545	1070.881	765.344
8.673	4.377	1069.182	763.237
9.688	4.419	1067.704	762.318
10.702	4.945	1067.131	764.422
11.717	10.772	1075.483	799.071
12.731	19.190	1087.076	849.297
13.746	22.352	1090.206	867.280
14.761	21.896	1089.648	864.513
15.775	21.022	1087.830	858.692
16.790	20.020	1085.567	851.900
17.804	19.405	1083.854	847.463
18.819	19.182	1082.677	845.371
19.834	18.948	1081.919	843.557
20.848	18.804	1081.162	842.185
21.863	18.622	1081.184	841.237
22.877	18.528	1080.053	839.825
23.892	18.549	1079.066	839.083
24.907	18.403	1078.712	838.018
25.921	18.322	1077.383	836.520
26.936	18.307	1076.290	835.520
27.950	18.449	1074.843	835.017
28.965	18.581	1073.289	834.378
29.980	18.734	1071.896	833.964
30.994	18.817	1070.665	833.336
32.009	18.751	1070.332	832.682
33.023	18.828	1068.861	831.835
34.038	18.632	1067.653	829.873
35.053	18.466	1067.038	828.520
36.067	18.590	1065.566	827.902
37.082	18.486	1065.232	827.068
38.096	18.847	1064.389	828.083
39.111	18.664	1063.659	826.561
40.126	18.428	1062.435	824.399
41.140	18.286	1060.801	822.376
42.155	18.224	1059.777	821.211
43.169	18.032	1058.531	819.256
44.184	18.046	1057.619	818.541
45.199	18.130	1056.831	818.265
46.213	18.245	1055.728	817.886
47.228	18.338	1055.194	817.845
48.242	18.567	1053.847	817.819
49.257	18.383	1053.246	816.406
50.271	18.587	1052.171	816.470
51.286	18.645	1051.278	815.980
52.301	18.528	1050.554	814.788
53.315	18.361	1049.465	813.083
54.330	18.335	1048.082	811.813
55.344	18.267	1047.315	810.825
56.359	18.411	1046.283	810.639
57.374	18.283	1045.840	809.616
58.388	18.224	1044.424	808.172
59.403	18.145	1043.849	807.279
60.417	18.239	1043.049	807.035
61.432	18.132	1042.580	806.094
62.447	17.961	1041.439	804.337
63.461	17.963	1040.504	803.553
64.476	17.934	1039.803	802.803
65.490	17.872	1038.668	801.567
66.505	18.003	1037.618	801.298
67.520	18.027	1037.716	801.418
68.534	17.901	1036.749	800.006
69.549	17.955	1036.015	799.625
70.563	17.848	1035.093	798.342
71.578	17.693	1034.048	796.740
72.593	17.856	1033.217	796.789
73.607	17.646	1032.946	795.530
74.622	17.837	1032.548	796.045
75.636	17.884	1031.500	795.385
76.651	17.957	1030.857	795.159
77.666	17.847	1029.880	793.824
78.680	17.915	1029.262	793.591
79.695	17.951	1028.850	793.370
80.709	18.082	1028.305	793.492
81.724	18.111	1027.819	793.178
82.739	18.147	1027.011	792.653
83.753	18.425	1026.573	793.531
84.768	18.692	1025.590	793.935
85.782	18.868	1025.173	794.358
86.797	18.840	1023.800	793.095
87.812	18.592	1023.042	791.293
88.826	18.574	1022.226	790.510
89.841	18.642	1021.480	790.176
90.855	18.843	1019.825	789.750
91.870	18.717	1019.555	788.892
92.884	18.775	1018.796	788.499
93.899	18.768	1017.819	787.642
94.914	18.954	1016.934	787.739
95.928	18.756	1016.408	786.356
96.943	18.752	1015.004	785.181
97.957	18.753	1013.643	784.063
98.972	18.632	1013.754	783.528
99.987	18.721	1012.948	783.242
101.001	18.654	1011.675	781.882
102.016	18.642	1010.675	780.987
103.030	18.761	1010.108	781.019
104.045	18.643	1009.414	779.879
105.060	18.660	1007.690	778.555
106.074	18.344	1006.714	776.300
107.089	18.197	1005.480	774.611
108.103	18.029	1004.857	773.305
109.118	17.961	1003.697	772.036
110.133	17.946	1002.786	771.199
111.147	17.997	1002.186	770.899
112.162	18.035	1001.323	770.339
113.176	18.214	1000.718	770.612
114.191	18.319	999.428	770.022
115.206	18.344	999.181	769.875
116.220	18.073	998.246	767.872
117.235	18.179	997.239	767.504
118.249	18.111	996.450	766.523
119.264	18.108	995.327	765.581
120.279	18.029	994.435	764.471
121.293	18.066	993.815	764.095
122.308	17.892	992.916	762.558
123.322	17.858	991.809	761.489
124.337	17.872	990.667	760.604
125.352	17.810	989.470	759.343
126.366	17.871	988.566	758.851
127.381	17.841	987.545	757.872
128.395	17.859	986.805	757.316
129.410	18.051	985.979	757.467
130.424	18.071	985.473	757.096
131.439	18.204	984.780	757.089
132.454	18.283	983.977	756.752
133.468	18.355	982.944	756.210
134.483	18.278	982.335	755.334
135.497	18.412	981.453	755.178
136.512	18.238	980.545	753.647
137.527	18.260	979.738	753.055
138.541	18.478	978.814	753.239
139.556	18.416	978.565	752.708
140.570	18.530	978.191	752.853
141.585	18.615	977.319	752.489
142.600	18.703	976.201	751.945
143.614	18.764	976.002	751.995
144.629	18.820	974.755	751.211
145.643	18.759	973.555	749.955
146.658	18.450	972.890	748.029
147.673	18.524	971.327	747.080
148.687	18.266	970.652	745.375
149.702	18.279	969.521	744.494
150.716	18.292	968.389	743.615
151.731	18.334	967.904	743.363
152.746	18.304	967.521	742.872
153.760	18.369	967.133	742.789
154.775	18.533	966.410	742.877
155.789	18.538	965.514	742.144
156.804	18.521	964.828	741.477
157.819	18.623	964.145	741.331
158.833	18.864	963.584	741.872
159.848	18.912	962.916	741.500
160.862	18.675	961.686	739.467
161.877	18.308	960.755	737.106
162.892	18.376	959.478	736.354
163.906	18.384	958.269	735.394
164.921	18.301	957.618	734.472
165.935	18.466	956.652	734.374
166.950	18.608	955.928	734.360
167.964	18.420	955.613	733.249
168.979	18.320	954.250	731.712
169.994	18.377	953.452	731.277
171.008	18.417	952.689	730.801
172.023	18.746	952.127	731.705
173.037	18.702	951.824	731.223
174.052	18.668	950.633	730.097
175.067	18.288	949.674	727.679
176.081	18.313	948.943	727.162
177.096	18.198	948.552	726.311
178.110	18.442	947.719	726.643
179.125	18.387	947.272	726.002
180.140	18.527	946.823	726.189
181.154	18.765	946.343	726.763
182.169	18.768	946.133	726.549
183.183	18.815	945.446	726.155
184.198	18.792	944.553	725.309
185.213	18.828	943.820	724.835
186.227	18.730	943.267	723.931
187.242	18.913	942.868	724.333
188.256	19.115	942.129	724.552
189.271	18.986	941.631	723.561
190.286	18.804	939.948	721.440
191.300	18.326	939.207	718.802
192.315	18.091	939.092	717.664
193.329	18.235	938.308	717.604
194.344	18.493	937.806	718.239
195.359	18.718	937.133	718.599
196.373	18.742	936.705	718.308
197.388	18.827	936.722	718.615
198.402	19.001	936.393	719.028
199.417	19.034	935.588	718.482
200.432	19.306	934.833	718.972
201.446	19.425	934.191	718.913
202.461	19.285	934.223	718.288
203.475	19.251	933.391	717.443
204.490	19.000	932.439	715.606
205.504	19.005	931.234	714.637
206.519	18.983	930.552	713.959
207.534	18.839	930.096	712.949
208.548	18.999	929.534	713.120
209.563	19.038	928.357	712.315
210.577	18.986	928.092	711.832
211.592	19.153	927.813	712.245
212.607	19.257	926.780	711.819
213.621	19.218	925.950	710.959
214.636	19.255	925.198	710.472
215.650	19.169	924.536	709.547
216.665	19.262	924.171	709.584
217.680	19.304	923.701	709.335
218.694	19.330	922.826	708.709
219.709	19.249	922.215	707.842
220.723	19.326	920.932	707.110
221.738	19.397	920.344	706.887
222.753	19.294	919.902	706.065
223.767	19.331	919.566	705.897
224.782	19.486	919.132	706.135
225.796	19.508	918.701	705.830
226.811	19.428	917.771	704.725
227.826	19.337	916.726	703.492
228.840	19.421	915.545	702.864
229.855	19.373	914.812	702.044
230.869	19.180	914.639	701.064
231.884	19.212	913.771	700.464
232.899	19.065	913.057	699.260
233.913	19.130	912.064	698.701
234.928	19.020	911.416	697.696
235.942	19.030	911.083	697.422
236.957	19.094	910.843	697.434
237.972	19.030	910.127	696.568
238.986	19.083	909.247	696.044
240.001	19.089	908.653	695.553
241.015	19.135	908.078	695.239
242.030	19.228	907.708	695.269
243.045	19.277	907.091	694.930
244.059	19.338	906.613	694.748
245.074	19.442	906.122	694.730
246.088	19.440	905.511	694.193
247.103	19.554	904.951	694.157
248.117	19.677	904.920	694.570
249.132	19.930	904.095	694.891
250.147	20.167	903.510	695.328
251.161	20.321	902.787	695.330
252.176	20.149	902.408	694.288
253.190	20.204	901.609	693.831
254.205	20.213	901.126	693.434
255.220	20.196	900.119	692.529
256.234	20.145	899.742	691.975
257.249	20.345	898.810	691.994
258.263	20.114	898.304	690.623
259.278	20.195	897.502	690.268
260.293	20.195	897.109	689.905
261.307	20.312	896.851	690.111
262.322	20.299	895.996	689.339
263.336	20.205	895.636	688.627
264.351	20.165	894.416	687.469
265.366	20.484	893.690	688.116
266.380	20.276	893.189	686.847
267.395	20.249	892.519	686.162
268.409	20.150	891.905	685.238
269.424	20.184	890.800	684.464
270.439	20.099	889.927	683.397
271.453	19.986	889.247	682.370
272.468	20.107	888.820	682.455
273.482	20.104	888.547	682.175
274.497	20.153	887.382	681.411
275.512	20.204	886.490	680.869
276.526	20.168	886.417	680.611
277.541	20.141	886.372	680.409
278.555	20.192	885.758	680.077
279.570	20.547	885.424	681.153
280.585	20.268	884.517	679.301
281.599	20.278	883.188	678.262
282.614	20.191	882.693	677.480
283.628	20.272	881.925	677.147
284.643	20.232	881.720	676.776
285.657	20.237	880.890	676.095
286.672	20.134	880.348	675.220
287.687	20.208	879.710	674.957
288.701	20.233	879.109	674.536
289.716	20.351	878.426	674.408
290.730	20.317	877.997	673.889
291.745	20.403	877.317	673.640
292.760	20.327	877.063	673.090
293.774	20.657	876.046	673.530
294.789	20.401	875.694	672.206
295.803	20.364	874.911	671.404
296.818	20.391	873.851	670.637
297.833	20.274	873.423	669.798
298.847	20.373	872.623	669.507
299.862	20.362	872.602	669.386
300.876	20.561	872.014	669.646
301.891	20.757	871.008	669.565
302.906	20.797	870.693	669.420
303.920	20.909	870.561	669.687
304.935	20.882	870.037	669.121
305.949	20.876	869.030	668.266
306.964	20.596	868.349	666.608
307.979	20.679	867.957	666.569
308.993	20.769	867.475	666.485
310.008	20.835	867.240	666.496
311.022	20.626	866.366	664.966
312.037	20.593	865.532	664.143
313.052	20.430	864.976	663.033
314.066	20.302	864.342	662.001
315.081	20.520	863.453	662.093
316.095	20.375	863.166	661.263
317.110	20.395	862.366	660.665
318.125	20.395	861.872	660.231
319.139	20.279	861.555	659.487
320.154	20.534	860.808	659.827
321.168	20.446	860.638	659.300
322.183	20.560	859.671	658.935
323.197	20.593	859.358	658.762
324.212	20.645	858.791	658.468
325.227	20.538	858.000	657.395
326.241	20.399	858.016	656.825
327.256	20.411	857.006	656.037
328.270	20.568	856.372	656.088
329.285	20.524	855.737	655.377
330.300	20.466	855.517	654.932
331.314	20.607	855.184	655.152
332.329	20.660	854.661	654.891
333.343	20.727	854.378	654.869
334.358	20.728	853.833	654.395
335.373	20.765	853.787	654.443
336.387	20.894	853.237	654.448
337.402	20.965	853.113	654.562
338.416	21.073	852.605	654.521
339.431	21.109	852.037	654.159
340.446	21.212	851.963	654.433
341.460	21.363	851.377	654.490
342.475	21.180	850.987	653.445
343.489	21.412	850.526	653.901
344.504	21.350	850.272	653.419
345.519	21.305	850.049	653.020
346.533	21.322	849.076	652.278
347.548	21.165	848.297	651.036
348.562	21.018	847.630	649.921
349.577	20.910	846.889	648.890
350.592	20.853	846.497	648.322
351.606	20.843	845.513	647.473
352.621	20.908	844.884	647.177
353.635	20.933	844.611	647.001
354.650	21.086	843.554	646.702
355.665	21.024	843.287	646.210
356.679	21.073	842.641	645.841
357.694	21.201	842.029	645.787
358.708	21.197	841.188	645.071
359.723	21.227	840.604	644.676
360.738	21.137	840.227	643.997
361.752	21.208	839.320	643.506
362.767	21.353	839.154	643.859
363.781	21.606	838.827	644.481
364.796	21.624	838.518	644.255
365.810	21.778	838.057	644.408
366.825	21.714	837.436	643.637
367.840	21.572	837.279	642.938
368.854	21.613	836.665	642.561
369.869	21.429	836.238	641.501
370.883	21.372	835.731	640.846
371.898	21.646	835.683	641.756
372.913	21.795	835.204	641.879
373.927	21.522	834.571	640.337
374.942	21.673	833.831	640.264
375.956	21.855	833.590	640.687
376.971	21.810	833.359	640.288
377.986	21.886	832.850	640.118
379.000	21.724	832.553	639.243
380.015	21.912	831.172	638.812
381.029	21.676	831.481	638.131
382.044	21.811	830.300	637.659
383.059	21.946	829.952	637.826
384.073	21.754	829.304	636.573
385.088	21.683	828.402	635.568
386.102	21.591	827.694	634.636
387.117	21.617	826.814	634.000
388.132	21.522	826.648	633.472
389.146	21.764	826.066	633.844
390.161	21.690	825.784	633.306
391.175	21.754	825.841	633.523
392.190	21.761	824.751	632.658
393.205	21.638	824.058	631.624
394.219	21.689	823.635	631.430
395.234	21.518	823.390	630.570
396.248	21.385	823.001	629.737
397.263	21.397	822.137	629.063
398.278	21.395	821.581	628.575
399.292	21.541	821.634	629.086
400.307	21.348	821.179	627.988
401.321	21.743	820.192	628.594
402.336	21.699	820.006	628.239
403.350	21.541	819.917	627.548
404.365	21.927	819.321	628.419
405.380	21.953	818.747	628.017
406.394	22.069	818.284	628.019
407.409	22.117	817.954	627.882
408.423	22.174	817.745	627.869
409.438	22.270	817.410	627.900
410.453	22.210	817.100	627.391
411.467	22.264	816.576	627.129
412.482	22.458	815.895	627.239
413.496	22.478	815.703	627.109
414.511	22.318	815.612	626.411
415.526	22.249	815.346	625.908
416.540	22.300	814.420	625.322
417.555	22.217	813.920	624.590
418.569	22.270	813.552	624.439
419.584	22.419	812.970	624.466
420.599	22.368	812.715	624.033
421.613	159.055	1369.762	1788.563
422.628	138.462	1450.950	1788.656
