DTS Sentinel unit serial number:	SN413079Multiplexer serial number:	ORYXHardware model number:	OX4-SRSoftware version number:	ORYX F/W v4.00 Oryx Data Collector v3.7.2.0data status	okinstallation	princeton_trtdifferential loss correction	single-endedforward channel	channel 1reverse channel	N/Adate	2019/09/19time	06:22:35forward acquisition time	60.00reverse acquisition time	0.00gamma	496.2192k internal	0.2343k external	0.2343temperature offset calibration	1.0018default loss term (dB/km)	0.3790temperature slope calibration	1.0000multiplexer offset coefficient	1.0000multiplexer slope coefficient	1.0000fibre end	0.00T internal ref (°C)	19.06T ext. ref 1 (°C)	0.57T ext. ref 2 (°C)	12.73length (m)	temperature (°C)	Stokes	anti-Stokes-747.200	-33.795	0.441	-0.243
-746.185	105.580	-0.180	0.213
-745.171	800.000	-0.061	-0.240
-744.156	74.095	-0.341	0.358
-743.142	-150.940	0.175	0.013
-742.127	-200.000	-0.006	0.157
-741.112	-4.718	0.053	-0.036
-740.098	180.319	-0.210	0.309
-739.083	-131.262	0.040	0.005
-738.069	-200.000	-0.050	0.340
-737.054	-34.925	-0.111	-0.061
-736.039	-166.901	0.145	-0.006
-735.025	39.097	-0.128	0.114
-734.010	204.244	0.105	0.163
-732.996	800.000	0.067	-0.217
-731.981	-200.000	-0.048	0.401
-730.966	-129.916	-0.236	0.032
-729.952	-94.029	-0.275	0.075
-728.937	309.597	-0.136	-0.254
-727.923	-156.272	0.201	0.013
-726.908	-34.653	-0.197	-0.108
-725.894	249.131	-0.060	0.101
-724.879	164.694	-0.172	-0.243
-723.864	-7.635	0.350	-0.237
-722.850	800.000	-0.039	0.143
-721.835	133.784	0.066	-0.086
-720.821	434.407	-0.022	0.049
-719.806	-30.820	0.132	0.075
-718.791	-129.560	-0.046	0.006
-717.777	20.393	-0.158	0.128
-716.762	28.110	0.272	-0.230
-715.748	-108.020	-0.197	0.043
-714.733	-101.070	-0.197	0.048
-713.718	455.258	-0.040	-0.090
-712.704	56.625	0.163	0.158
-711.689	-200.000	-0.060	-0.278
-710.675	-59.879	-0.111	0.048
-709.660	-200.000	0.004	-0.209
-708.645	238.516	-0.046	-0.076
-707.631	46.593	-0.159	0.148
-706.616	-85.236	0.274	-0.086
-705.602	800.000	0.059	-0.224
-704.587	105.276	-0.086	0.102
-703.572	-143.398	-0.419	0.040
-702.558	92.687	-0.209	0.236
-701.543	-47.469	-0.086	0.042
-700.529	-200.000	0.026	-0.255
-699.514	95.252	-0.090	0.102
-698.499	362.103	-0.124	0.248
-697.485	280.326	0.144	0.257
-696.470	34.510	-0.324	0.282
-695.456	8.270	-0.014	0.010
-694.441	-133.672	-0.288	-0.036
-693.426	-157.245	-0.105	0.006
-692.412	59.479	-0.072	0.071
-691.397	800.000	-0.061	0.213
-690.383	213.959	-0.095	0.150
-689.368	173.459	0.105	-0.152
-688.354	-108.228	-0.060	-0.013
-687.339	-82.869	0.131	0.042
-686.324	381.384	-0.161	-0.330
-685.310	-200.000	-0.023	-0.299
-684.295	85.489	-0.168	0.184
-683.281	285.961	-0.256	0.462
-682.266	-26.290	-0.212	0.124
-681.251	-200.000	0.047	0.257
-680.237	-200.000	0.021	0.150
-679.222	-116.244	-0.046	0.008
-678.208	-12.875	0.328	0.213
-677.193	800.000	0.065	-0.191
-676.178	-117.707	0.293	0.053
-675.164	-76.393	0.120	0.042
-674.149	128.179	0.209	-0.265
-673.135	178.139	0.190	0.277
-672.120	112.422	-0.208	0.251
-671.105	507.531	-0.202	0.468
-670.091	-97.514	-0.279	-0.072
-669.076	186.206	0.073	-0.108
-668.062	-87.544	0.181	-0.054
-667.047	-20.125	-0.174	0.107
-666.032	172.662	-0.131	0.188
-665.018	800.000	-0.083	0.284
-664.003	79.898	0.079	-0.084
-662.989	800.000	-0.021	0.062
-661.974	246.080	0.099	-0.166
-660.959	800.000	-0.047	-0.155
-659.945	13.275	-0.169	0.131
-658.930	243.031	-0.124	-0.208
-657.916	31.673	-0.083	-0.072
-656.901	-111.451	-0.591	-0.120
-655.886	0.388	-0.055	-0.039
-654.872	205.412	0.137	-0.213
-653.857	-48.513	0.188	0.090
-652.843	-200.000	-0.001	-0.042
-651.828	-200.000	0.020	0.195
-650.814	-46.113	-0.123	0.060
-649.799	-200.000	0.010	-0.173
-648.784	-45.644	0.243	0.120
-647.770	-54.268	-0.461	-0.209
-646.755	-200.000	0.181	-0.000
-645.741	220.636	0.069	0.111
-644.726	39.785	-0.246	-0.220
-643.711	240.978	0.089	0.148
-642.697	303.635	-0.119	-0.219
-641.682	-111.012	-0.194	-0.040
-640.668	-200.000	0.055	0.266
-639.653	-200.000	0.015	-0.144
-638.638	-110.919	-0.172	-0.035
-637.624	-30.810	-0.116	0.066
-636.609	103.153	-0.113	-0.132
-635.595	-200.000	0.011	-0.188
-634.580	-113.945	-0.171	-0.033
-633.565	-200.000	0.013	-0.220
-632.551	127.595	0.054	0.068
-631.536	222.709	0.061	0.097
-630.522	94.101	-0.072	-0.081
-629.507	-151.548	-0.402	-0.030
-628.492	260.766	0.184	0.318
-627.478	207.021	0.035	0.054
-626.463	-200.000	0.002	0.020
-625.449	-69.628	0.356	0.136
-624.434	-36.920	0.227	-0.122
-623.419	98.601	-0.220	-0.253
-622.405	360.240	-0.053	-0.106
-621.390	-108.909	0.162	0.034
-620.376	98.837	-0.093	-0.107
-619.361	-133.497	0.140	0.018
-618.346	-76.934	0.192	-0.067
-617.332	-65.018	0.120	-0.048
-616.317	498.388	0.023	-0.053
-615.303	72.214	0.184	-0.190
-614.288	-20.744	-0.006	0.004
-613.273	147.881	-0.159	-0.214
-612.259	451.779	-0.075	0.165
-611.244	516.749	-0.077	0.180
-610.230	532.966	-0.102	-0.242
-609.215	219.122	-0.159	0.253
-608.201	-189.094	0.223	0.003
-607.186	-200.000	-0.011	0.156
-606.171	-200.000	0.043	0.310
-605.157	-62.099	0.215	0.089
-604.142	-200.000	-0.004	-0.161
-603.128	-73.192	0.188	-0.068
-602.113	800.000	-0.051	-0.158
-601.098	311.401	0.061	0.115
-600.084	315.474	0.168	0.315
-599.069	-7.631	0.159	-0.107
-598.055	-57.074	-0.348	-0.153
-597.040	29.511	0.040	0.034
-596.025	-127.008	-0.573	-0.084
-595.011	-38.701	0.250	-0.131
-593.996	800.000	0.040	0.123
-592.982	-15.520	-0.162	-0.103
-591.967	-200.000	0.013	-0.287
-590.952	800.000	0.066	-0.215
-589.938	218.638	-0.025	-0.040
-588.923	4.493	-0.094	-0.068
-587.909	375.313	0.031	0.063
-586.894	218.432	-0.085	0.135
-585.879	114.534	0.239	0.289
-584.865	-33.083	0.265	0.146
-583.850	629.815	-0.118	-0.298
-582.836	57.043	0.176	0.171
-581.821	162.876	0.138	0.192
-580.806	-2.002	-0.037	0.026
-579.792	4.343	-0.085	0.062
-578.777	800.000	-0.115	0.418
-577.763	64.535	0.066	-0.066
-576.748	155.470	-0.129	0.176
-575.733	364.366	-0.107	0.215
-574.719	31.590	-0.272	-0.233
-573.704	800.000	-0.037	-0.135
-572.690	-61.421	0.214	-0.090
-571.675	74.528	-0.166	-0.174
-570.661	-22.955	-0.137	0.082
-569.646	141.161	0.089	0.117
-568.631	-89.031	0.113	-0.033
-567.617	-200.000	0.017	0.097
-566.602	779.044	0.029	-0.080
-565.588	91.899	0.094	0.105
-564.573	166.911	0.066	-0.093
-563.558	-13.275	-0.190	-0.123
-562.544	800.000	0.111	-0.405
-561.529	275.994	-0.121	-0.214
-560.515	104.820	-0.213	-0.250
-559.500	154.202	0.086	0.117
-558.485	42.937	-0.387	0.351
-557.471	-200.000	-0.001	-0.050
-556.456	-110.695	-0.163	-0.034
-555.442	-200.000	-0.018	0.372
-554.427	153.105	-0.113	0.154
-553.412	-1.224	0.040	-0.028
-552.398	-150.111	-0.369	-0.029
-551.383	-89.039	0.021	0.006
-550.369	-200.000	-0.041	0.198
-549.354	-145.961	-0.425	0.037
-548.339	262.124	-0.134	0.231
-547.325	238.451	-0.154	0.254
-546.310	241.991	-0.165	0.274
-545.296	445.490	0.130	0.283
-544.281	-74.020	0.052	-0.019
-543.266	222.137	0.151	-0.242
-542.252	-132.459	-0.141	0.018
-541.237	-76.326	-0.257	-0.090
-540.223	-200.000	-0.018	-0.102
-539.208	-5.166	0.104	0.071
-538.193	-192.547	-0.307	0.003
-537.179	-100.012	-0.478	-0.118
-536.164	800.000	-0.106	0.310
-535.150	-28.245	0.191	-0.109
-534.135	-200.000	-0.008	0.039
-533.121	-39.904	0.124	0.064
-532.106	73.515	0.383	0.398
-531.091	-83.229	-0.282	0.090
-530.077	-63.644	0.157	-0.064
-529.062	29.389	0.241	-0.203
-528.048	-200.000	0.017	0.371
-527.033	-109.296	0.154	0.032
-526.018	-85.269	-0.162	0.050
-525.004	8.784	0.247	0.185
-523.989	-200.000	0.019	-0.119
-522.975	-132.621	-0.169	-0.022
-521.960	800.000	0.042	-0.154
-520.945	27.714	0.305	-0.255
-519.931	-5.392	-0.138	0.094
-518.916	-200.000	-0.010	-0.086
-517.902	-105.185	-0.119	-0.027
-516.887	137.698	-0.166	0.216
-515.872	-200.000	0.026	0.172
-514.858	52.332	0.066	-0.063
-513.843	380.002	0.043	0.088
-512.829	-88.444	-0.218	-0.064
-511.814	361.024	-0.072	-0.143
-510.799	-200.000	0.008	0.181
-509.785	-39.849	0.223	0.116
-508.770	-77.805	-0.123	-0.042
-507.756	-84.250	0.449	-0.141
-506.741	-200.000	0.015	-0.141
-505.726	268.252	-0.146	-0.254
-504.712	135.726	-0.147	0.189
-503.697	800.000	0.045	-0.192
-502.683	-95.824	-0.163	0.043
-501.668	-200.000	-0.005	0.116
-500.653	-110.706	0.091	-0.019
-499.639	-110.911	0.492	0.100
-498.624	233.004	0.052	0.084
-497.610	31.823	0.089	-0.076
-496.595	228.231	0.140	-0.226
-495.581	800.000	-0.116	0.342
-494.566	-8.304	0.358	-0.239
-493.551	171.185	-0.279	-0.397
-492.537	-200.000	0.043	0.384
-491.522	71.837	0.301	0.310
-490.508	-200.000	-0.024	-0.411
-489.493	-38.701	0.289	-0.151
-488.478	-200.000	-0.062	-0.295
-487.464	373.953	0.067	0.136
-486.449	-20.126	0.133	0.081
-485.435	10.153	-0.054	0.041
-484.420	592.673	-0.065	0.160
-483.405	-200.000	-0.005	0.070
-482.391	800.000	-0.020	0.078
-481.376	-50.216	0.113	0.053
-480.362	52.612	0.225	-0.213
-479.347	-81.467	0.040	-0.013
-478.332	-12.840	-0.280	-0.180
-477.318	-200.000	0.009	0.063
-476.303	573.203	-0.036	0.088
-475.289	-200.000	0.003	-0.261
-474.274	-200.000	-0.091	-0.454
-473.259	172.608	-0.117	-0.166
-472.245	-200.000	-0.014	0.070
-471.230	-53.867	0.148	0.067
-470.216	-58.694	0.112	0.048
-469.201	41.042	-0.074	-0.066
-468.186	292.583	-0.129	0.233
-467.172	30.989	0.063	-0.053
-466.157	12.111	-0.078	0.060
-465.143	-111.443	-0.329	0.066
-464.128	-89.440	0.156	-0.045
-463.113	-200.000	0.020	0.225
-462.099	800.000	-0.026	-0.079
-461.084	-18.421	0.250	-0.155
-460.070	-58.637	-0.245	-0.105
-459.055	-58.283	0.476	-0.205
-458.040	84.052	0.230	-0.249
-457.026	-83.738	-0.104	-0.033
-456.011	354.874	0.150	-0.294
-454.997	70.147	-0.165	-0.168
-453.982	-67.096	0.106	0.041
-452.968	536.853	0.099	-0.234
-451.953	231.932	0.056	0.090
-450.938	99.352	0.032	0.037
-449.924	163.270	0.087	-0.121
-448.909	-200.000	-0.046	0.199
-447.895	-200.000	0.064	0.368
-446.880	251.941	0.174	-0.293
-445.865	-200.000	0.017	-0.251
-444.851	800.000	0.033	-0.099
-443.836	-69.533	-0.340	0.129
-442.822	13.175	0.291	0.223
-441.807	-94.006	0.159	-0.043
-440.792	-200.000	-0.020	-0.191
-439.778	-200.000	-0.032	-0.250
-438.763	-41.098	0.093	0.047
-437.749	-90.457	0.137	-0.039
-436.734	-130.340	0.128	0.017
-435.719	-40.281	0.349	0.180
-434.705	-62.004	0.188	0.078
-433.690	-200.000	0.023	-0.199
-432.676	-156.777	0.207	0.013
-431.661	286.647	-0.144	-0.257
-430.646	-200.000	0.039	-0.320
-429.632	-200.000	0.036	0.353
-428.617	-36.219	-0.474	-0.253
-427.603	115.600	0.240	-0.291
-426.588	-143.835	0.140	-0.013
-425.573	355.273	0.053	-0.105
-424.559	18.720	0.138	0.109
-423.544	-79.083	-0.065	-0.022
-422.530	9.771	0.310	-0.233
-421.515	-200.000	0.015	-0.128
-420.500	-188.070	0.153	0.002
-419.486	45.687	0.087	-0.080
-418.471	-66.090	-0.257	-0.101
-417.457	-152.070	0.223	-0.016
-416.442	51.804	-0.278	0.262
-415.428	-71.401	0.146	0.054
-414.413	39.676	0.206	0.183
-413.398	44.930	0.043	0.039
-412.384	-18.321	-0.071	-0.044
-411.369	510.587	0.145	-0.333
-410.355	556.078	-0.126	-0.300
-409.340	-200.000	0.087	-0.395
-408.325	-106.363	-0.321	0.071
-407.311	185.991	0.079	-0.115
-406.296	400.957	-0.152	-0.314
-405.282	-200.000	0.011	0.119
-404.267	663.505	0.020	0.051
-403.252	800.000	0.075	0.292
-402.238	228.943	0.225	0.362
-401.223	-72.322	-0.382	-0.140
-400.209	33.816	0.184	-0.158
-399.194	64.321	-0.203	0.202
-398.179	800.000	-0.101	-0.328
-397.165	56.715	0.193	0.186
-396.150	-81.555	-0.316	0.102
-395.136	115.212	0.048	0.057
-394.121	-59.507	0.121	-0.051
-393.106	39.958	-0.119	0.105
-392.092	20.467	-0.096	0.077
-391.077	-58.059	0.127	0.055
-390.063	-79.274	0.195	-0.065
-389.048	-67.996	-0.278	0.107
-388.033	-200.000	-0.071	0.425
-387.019	-39.744	-0.242	0.125
-386.004	800.000	-0.034	0.141
-384.990	-200.000	-0.017	0.293
-383.975	-29.493	0.096	0.054
-382.960	-95.824	0.073	-0.019
-381.946	8.213	0.148	-0.110
-380.931	-121.646	-0.425	-0.070
-379.917	-41.471	-0.192	-0.098
-378.902	-200.000	-0.061	-0.267
-377.888	800.000	0.009	-0.031
-376.873	-200.000	0.012	0.185
-375.858	143.639	0.111	-0.146
-374.844	91.972	0.224	-0.249
-373.829	-43.825	0.125	0.062
-372.815	-61.621	-0.165	0.068
-371.800	-64.717	0.178	0.071
-370.785	800.000	0.061	0.193
-369.771	-200.000	0.068	0.415
-368.756	5.929	-0.265	0.194
-367.742	-92.249	0.339	-0.094
-366.727	-91.184	0.079	-0.022
-365.712	-92.344	0.137	0.038
-364.698	-114.580	0.274	0.052
-363.683	3.852	-0.059	-0.042
-362.669	-200.000	-0.018	0.149
-361.654	-200.000	0.002	-0.069
-360.639	-200.000	0.004	-0.316
-359.625	-200.000	0.003	-0.394
-358.610	-163.080	-0.025	0.001
-357.596	-30.255	0.206	-0.116
-356.581	-92.018	0.200	-0.056
-355.566	-184.781	-0.218	0.003
-354.552	57.018	-0.252	-0.243
-353.537	21.332	0.127	0.101
-352.523	83.194	-0.025	-0.026
-351.508	800.000	0.072	0.293
-350.493	-142.009	-0.254	-0.025
-349.479	800.000	-0.020	0.070
-348.464	-129.573	-0.207	0.028
-347.450	218.047	0.101	0.159
-346.435	69.984	-0.079	-0.081
-345.420	236.080	0.102	0.167
-344.406	-90.456	0.195	-0.056
-343.391	-24.813	-0.355	-0.208
-342.377	-12.151	0.245	-0.158
-341.362	392.517	-0.049	0.101
-340.348	79.043	0.131	0.138
-339.333	-120.845	0.045	-0.007
-338.318	69.747	0.084	0.085
-337.304	-32.644	-0.055	0.030
-336.289	373.878	-0.051	0.102
-335.275	309.657	0.074	-0.136
-334.260	107.832	-0.094	-0.111
-333.245	-81.679	-0.132	-0.043
-332.231	-200.000	0.063	0.303
-331.216	-82.281	-0.096	-0.031
-330.202	60.523	0.220	0.214
-329.187	-105.276	0.059	0.013
-328.172	-98.741	0.231	0.058
-327.158	-71.227	-0.305	0.113
-326.143	91.226	0.136	0.151
-325.129	-200.000	0.002	0.112
-324.114	-200.000	0.030	-0.164
-323.099	-72.006	0.138	0.051
-322.085	-200.000	-0.046	0.227
-321.070	65.815	0.136	-0.136
-320.056	200.396	-0.281	0.425
-319.041	-59.511	0.050	0.021
-318.026	-80.634	-0.120	-0.039
-317.012	-200.000	0.032	-0.194
-315.997	224.488	0.102	-0.163
-314.983	334.939	0.105	0.200
-313.968	344.216	0.131	-0.253
-312.953	-12.790	-0.097	0.062
-311.939	-200.000	-0.023	0.164
-310.924	-57.970	-0.243	0.104
-309.910	-200.000	0.017	0.270
-308.895	-86.016	-0.260	0.079
-307.880	-85.756	-0.409	-0.125
-306.866	289.709	-0.012	-0.022
-305.851	-50.746	-0.182	0.084
-304.837	201.368	0.088	0.133
-303.822	-141.521	0.269	-0.027
-302.807	14.408	-0.211	0.162
-301.793	-200.000	0.012	-0.162
-300.778	94.454	0.151	0.168
-299.764	197.008	0.115	0.172
-298.749	800.000	-0.012	-0.040
-297.735	407.368	0.035	0.074
-296.720	641.116	-0.088	0.220
-295.705	309.469	0.118	0.218
-294.691	39.842	0.281	0.248
-293.676	-105.592	-0.291	-0.065
-292.662	-55.600	-0.347	-0.153
-291.647	-200.000	-0.072	0.389
-290.632	-158.277	0.425	0.024
-289.618	-200.000	-0.004	-0.159
-288.603	-24.544	0.026	0.015
-287.589	-100.098	-0.085	0.021
-286.574	-145.091	-0.483	0.043
-285.559	11.394	-0.237	-0.179
-284.545	-200.000	0.000	-0.175
-283.530	-200.000	0.004	-0.023
-282.516	-200.000	0.032	0.446
-281.501	800.000	-0.028	0.093
-280.486	-87.995	0.047	-0.014
-279.472	276.484	-0.083	-0.144
-278.457	-60.662	-0.449	-0.187
-277.443	-158.635	-0.071	0.004
-276.428	800.000	-0.122	-0.472
-275.413	-67.764	-0.177	-0.068
-274.399	492.279	-0.082	-0.186
-273.384	-150.717	0.091	0.007
-272.370	-200.000	0.006	0.078
-271.355	270.467	-0.166	0.288
-270.340	-94.118	0.195	0.052
-269.326	-67.757	0.312	-0.120
-268.311	168.627	-0.129	-0.181
-267.297	499.966	0.091	-0.206
-266.282	-84.424	-0.157	0.049
-265.267	2.557	0.198	-0.141
-264.253	7.940	0.122	0.090
-263.238	72.852	-0.210	0.216
-262.224	-6.231	0.246	-0.165
-261.209	-93.687	-0.055	0.015
-260.195	-200.000	0.006	-0.154
-259.180	-200.000	-0.017	-0.153
-258.165	126.637	0.181	0.225
-257.151	800.000	0.051	0.176
-256.136	-167.856	0.039	0.001
-255.122	17.077	0.180	0.140
-254.107	-200.000	-0.022	0.347
-253.092	22.712	0.341	0.274
-252.078	35.770	-0.441	0.380
-251.063	382.928	0.159	-0.321
-250.049	-97.816	-0.251	-0.064
-249.034	71.947	-0.047	0.048
-248.019	800.000	0.029	-0.091
-247.005	800.000	0.034	-0.108
-245.990	-88.855	0.274	-0.080
-244.976	55.951	-0.182	0.173
-243.961	39.559	0.163	0.143
-242.946	-4.721	0.040	0.027
-241.932	-112.404	-0.111	-0.022
-240.917	751.562	-0.087	0.231
-239.903	34.037	0.184	0.157
-238.888	-56.435	-0.137	-0.060
-237.873	-32.910	0.334	-0.182
-236.859	-20.716	-0.219	0.132
-235.844	-111.310	0.145	-0.029
-234.830	-200.000	-0.019	0.098
-233.815	-124.414	-0.164	-0.025
-232.800	34.208	0.070	0.060
-231.786	144.197	-0.113	0.147
-230.771	296.271	0.082	0.147
-229.757	182.180	0.121	-0.174
-228.742	800.000	-0.054	-0.226
-227.727	84.627	-0.167	-0.180
-226.713	-105.613	0.281	-0.063
-225.698	117.088	-0.111	0.134
-224.684	-56.062	0.265	0.116
-223.669	22.607	-0.264	0.212
-222.655	-37.227	-0.162	0.085
-221.640	80.360	0.038	-0.040
-220.625	-87.324	-0.215	0.064
-219.611	362.251	0.175	-0.344
-218.596	-200.000	-0.006	-0.306
-217.582	800.000	-0.040	0.165
-216.567	-14.882	-0.217	-0.137
-215.552	-138.655	0.198	0.021
-214.538	56.852	0.179	-0.171
-213.523	800.000	-0.098	-0.285
-212.509	-95.222	0.213	0.056
-211.494	-84.340	0.154	-0.048
-210.479	-148.103	-0.278	-0.023
-209.465	-41.840	-0.126	0.063
-208.450	-200.000	-0.020	-0.305
-207.436	18.525	-0.302	-0.237
-206.421	-124.013	-0.270	-0.042
-205.406	-200.000	0.016	0.341
-204.392	187.100	-0.162	0.237
-203.377	-177.985	-0.128	0.003
-202.363	152.847	0.051	0.068
-201.348	-200.000	0.074	0.421
-200.333	800.000	-0.137	-0.440
-199.319	8.704	0.257	-0.190
-198.304	-192.328	0.403	-0.004
-197.290	-7.704	0.050	-0.033
-196.275	-43.878	0.249	0.123
-195.260	342.705	0.055	-0.106
-194.246	-16.918	0.185	-0.114
-193.231	139.543	-0.332	0.428
-192.217	-67.073	0.335	0.130
-191.202	136.905	0.223	-0.286
-190.187	-200.000	-0.048	0.228
-189.173	-170.096	0.264	-0.009
-188.158	272.577	-0.131	0.227
-187.144	-52.845	0.079	-0.036
-186.129	-135.691	0.213	0.025
-185.114	-128.410	-0.433	-0.060
-184.100	603.184	-0.125	-0.304
-183.085	-153.046	-0.090	-0.006
-182.071	16.805	-0.100	-0.077
-181.056	142.694	0.171	-0.222
-180.042	83.910	0.080	-0.085
-179.027	133.237	-0.227	-0.287
-178.012	-200.000	-0.016	0.171
-176.998	-200.000	-0.007	-0.215
-175.983	228.159	0.189	-0.301
-174.969	23.955	-0.091	-0.074
-173.954	-50.299	0.090	0.042
-172.939	-99.271	0.111	0.027
-171.925	112.632	0.180	-0.213
-170.910	63.373	-0.233	-0.228
-169.896	-200.000	-0.012	0.091
-168.881	319.534	0.183	-0.340
-167.866	-114.054	-0.176	0.033
-166.852	800.000	0.068	0.221
-165.837	-158.485	0.255	-0.014
-164.823	-138.859	0.159	0.017
-163.808	-26.988	0.113	-0.064
-162.793	-90.641	-0.279	0.079
-161.779	236.160	0.164	0.265
-160.764	-99.197	-0.067	-0.016
-159.750	105.879	-0.041	-0.047
-158.735	-65.644	-0.291	-0.114
-157.720	171.370	0.157	0.220
-156.706	-122.179	-0.314	-0.050
-155.691	-7.674	-0.290	0.192
-154.677	-41.541	0.250	0.126
-153.662	-107.493	-0.461	-0.099
-152.647	592.469	0.027	0.066
-151.633	262.212	-0.170	0.288
-150.618	-116.257	0.341	-0.062
-149.604	15.022	-0.177	0.136
-148.589	-56.446	0.072	-0.031
-147.574	800.000	-0.074	0.210
-146.560	-84.295	0.246	-0.076
-145.545	78.903	-0.174	0.182
-144.531	295.255	0.221	0.396
-143.516	-153.565	0.088	-0.006
-142.502	37.395	0.154	-0.133
-141.487	237.683	0.178	0.288
-140.472	73.461	0.267	0.273
-139.458	-83.477	0.121	0.038
-138.443	181.085	0.176	0.253
-137.429	-200.000	-0.056	-0.247
-136.414	-23.667	0.042	0.025
-135.399	-200.000	-0.051	-0.251
-134.385	-200.000	0.006	0.192
-133.370	-34.237	0.112	-0.060
-132.356	-136.552	-0.084	-0.009
-131.341	800.000	-0.162	0.487
-130.326	-132.821	-0.204	0.025
-129.312	-180.222	0.295	0.006
-128.297	-200.000	-0.006	-0.218
-127.283	-200.000	0.003	0.183
-126.268	16.173	-0.233	0.180
-125.253	-81.415	0.321	0.103
-124.239	78.100	0.082	0.085
-123.224	800.000	0.052	0.170
-122.210	-200.000	-0.019	-0.149
-121.195	88.739	0.035	-0.038
-120.180	-5.875	0.061	-0.041
-119.166	-1.306	0.099	-0.068
-118.151	-72.530	0.214	-0.077
-117.137	800.000	-0.037	0.148
-116.122	-200.000	0.023	0.176
-115.107	106.478	0.137	0.159
-114.093	17.582	-0.276	-0.214
-113.078	167.924	-0.194	0.270
-112.064	29.875	-0.101	0.084
-111.049	-94.574	-0.264	0.070
-110.034	-200.000	0.010	-0.134
-109.020	227.958	-0.128	-0.204
-108.005	-200.000	0.013	-0.152
-106.991	-109.110	-0.074	0.015
-105.976	-200.000	-0.060	-0.313
-104.962	709.222	-0.078	-0.202
-103.947	-171.869	0.326	-0.010
-102.932	-60.861	0.205	-0.085
-101.918	-127.563	0.102	-0.014
-100.903	2.953	0.179	0.127
-99.889	202.940	0.107	0.161
-98.874	422.026	0.057	-0.119
-97.859	36.239	0.196	-0.169
-96.845	123.741	0.092	0.112
-95.830	23.625	0.304	0.244
-94.816	127.405	0.104	0.128
-93.801	194.498	0.021	0.031
-92.786	-33.393	-0.083	0.045
-91.772	218.663	-0.228	-0.356
-90.757	-200.000	0.285	0.000
-89.743	800.000	-0.077	0.300
-88.728	800.000	0.071	-0.246
-87.713	-200.000	0.068	0.462
-86.699	256.223	-0.071	-0.118
-85.684	800.000	0.023	0.081
-84.670	305.649	0.204	0.369
-83.655	275.438	0.143	0.247
-82.640	-170.225	-0.121	-0.004
-81.626	-200.000	0.010	-0.100
-80.611	800.000	-0.042	-0.127
-79.597	-50.020	-0.137	0.063
-78.582	-200.000	0.060	0.327
-77.567	281.641	-0.163	0.285
-76.553	-22.275	0.319	0.189
-75.538	800.000	0.085	-0.285
-74.524	-128.027	-0.179	0.025
-73.509	-78.769	0.150	-0.050
-72.494	800.000	0.051	0.200
-71.480	9.655	0.011	-0.008
-70.465	166.767	0.031	0.042
-69.451	-131.043	0.189	-0.025
-68.436	-18.715	0.246	-0.150
-67.422	168.701	0.210	-0.292
-66.407	800.000	0.060	0.178
-65.392	50.782	-0.353	0.326
-64.378	13.581	0.161	-0.122
-63.363	143.090	-0.179	0.232
-62.349	-83.996	-0.126	-0.039
-61.334	118.562	-1.070	-1.288
-60.319	83.872	0.838	0.892
-59.305	570.917	-0.559	-1.325
-58.290	163.388	1.050	1.439
-57.276	336.754	0.669	1.267
-56.261	-200.000	135.296	626.784
-55.246	344.413	1631.096	3118.712
-54.232	138.170	2766.863	3535.826
-53.217	81.181	2152.102	2265.073
-52.203	29.642	1588.628	1317.345
-51.188	22.050	1341.661	1066.592
-50.173	20.158	1307.869	1028.474
-49.159	47.103	1381.083	1252.137
-48.144	42.286	1389.943	1230.649
-47.130	22.049	1338.785	1064.135
-46.115	19.255	1320.161	1032.567
-45.100	19.040	1314.702	1026.973
-44.086	19.011	1312.041	1024.682
-43.071	19.010	1309.668	1022.780
-42.057	18.980	1307.570	1020.924
-41.042	18.990	1306.023	1019.736
-40.027	18.976	1304.445	1018.381
-39.013	18.999	1302.767	1017.166
-37.998	18.928	1301.012	1015.338
-36.984	18.941	1299.486	1014.180
-35.969	19.151	1297.596	1013.904
-34.954	19.133	1295.804	1012.355
-33.940	19.127	1294.360	1011.155
-32.925	19.122	1293.384	1010.322
-31.911	19.194	1291.548	1009.267
-30.896	19.214	1290.257	1008.336
-29.881	19.169	1288.910	1006.980
-28.867	19.199	1287.315	1005.869
-27.852	19.123	1285.951	1004.320
-26.838	19.148	1284.683	1003.439
-25.823	19.129	1283.446	1002.320
-24.809	19.199	1281.717	1001.336
-23.794	19.047	1280.608	999.546
-22.779	19.102	1279.505	998.968
-21.765	19.150	1278.615	998.511
-20.750	19.192	1276.761	997.267
-19.736	19.050	1275.606	995.505
-18.721	19.001	1274.095	993.999
-17.706	19.006	1273.124	993.236
-16.692	19.072	1272.288	992.921
-15.677	19.098	1271.026	992.046
-14.663	19.056	1269.837	990.840
-13.648	18.971	1268.622	989.365
-12.633	18.949	1267.959	988.679
-11.619	18.971	1267.020	988.033
-10.604	19.007	1266.387	987.710
-9.590	18.939	1266.216	987.148
-8.575	19.011	1264.394	986.100
-7.560	18.948	1263.260	984.816
-6.546	18.939	1262.743	984.324
-5.531	19.041	1261.752	984.090
-4.517	19.028	1261.007	983.400
-3.502	18.954	1260.485	982.528
-2.487	19.063	1259.578	982.403
-1.473	18.903	1254.828	977.753
-0.458	17.247	1239.677	956.597
0.556	12.908	1224.155	920.211
1.571	9.526	1232.200	907.154
2.586	8.833	1247.956	914.718
3.600	9.213	1235.010	907.292
4.615	7.006	1163.818	843.162
5.629	2.603	1096.782	772.369
6.644	0.748	1081.388	752.236
7.659	0.441	1079.924	749.629
8.673	0.484	1078.960	749.103
9.688	0.608	1077.416	748.580
10.702	0.755	1074.723	747.370
11.717	3.316	1077.022	761.575
12.731	9.300	1084.842	796.767
13.746	14.947	1092.451	830.395
14.761	17.002	1094.935	842.422
15.775	16.422	1093.786	838.585
16.790	15.523	1091.418	832.246
17.804	14.740	1089.942	827.170
18.819	14.570	1088.407	825.088
19.834	14.405	1087.712	823.675
20.848	14.064	1087.141	821.485
21.863	13.835	1085.912	819.351
22.877	13.704	1084.869	817.848
23.892	13.683	1084.385	817.307
24.907	13.530	1084.377	816.472
25.921	13.738	1083.274	816.596
26.936	13.710	1082.377	815.707
27.950	13.636	1081.765	814.813
28.965	13.852	1079.935	814.422
29.980	13.779	1078.473	812.889
30.994	13.822	1077.829	812.543
32.009	13.906	1076.665	812.003
33.023	13.776	1075.657	810.539
34.038	13.833	1074.516	809.884
35.053	13.765	1073.774	808.919
36.067	13.840	1072.881	808.540
37.082	13.758	1071.954	807.374
38.096	13.758	1071.300	806.809
39.111	13.756	1070.540	806.157
40.126	13.750	1069.250	805.085
41.140	13.698	1067.819	803.684
42.155	13.617	1066.673	802.359
43.169	13.703	1066.011	802.203
44.184	13.534	1064.875	800.463
45.199	13.657	1064.144	800.434
46.213	13.651	1063.038	799.504
47.228	13.668	1061.745	798.542
48.242	13.615	1060.313	797.138
49.257	13.626	1059.644	796.621
50.271	13.665	1058.574	795.932
51.286	13.745	1057.673	795.567
52.301	13.704	1056.689	794.562
53.315	13.639	1055.968	793.638
54.330	13.808	1054.262	793.092
55.344	13.724	1053.827	792.296
56.359	13.686	1053.127	791.517
57.374	13.686	1052.357	790.867
58.388	13.566	1051.696	789.729
59.403	13.475	1050.803	788.556
60.417	13.661	1049.522	788.410
61.432	13.507	1049.200	787.363
62.447	13.430	1048.425	786.347
63.461	13.540	1047.643	786.213
64.476	13.575	1046.305	785.307
65.490	13.637	1044.999	784.548
66.505	13.516	1044.443	783.488
67.520	13.707	1043.874	783.898
68.534	13.626	1043.382	783.074
69.549	13.460	1043.226	782.103
70.563	13.615	1041.892	781.765
71.578	13.440	1041.169	780.330
72.593	13.545	1040.396	780.177
73.607	13.542	1039.571	779.475
74.622	13.449	1039.274	778.744
75.636	13.536	1038.424	778.450
76.651	13.555	1037.772	777.981
77.666	13.540	1036.715	777.051
78.680	13.485	1035.884	776.098
79.695	13.509	1035.572	775.911
80.709	13.602	1034.865	775.747
81.724	13.631	1033.965	775.139
82.739	13.616	1033.532	774.674
83.753	13.651	1032.535	774.024
84.768	13.694	1031.287	773.218
85.782	13.763	1030.589	772.950
86.797	13.673	1029.913	771.954
87.812	13.628	1028.744	770.803
88.826	13.665	1027.680	770.108
89.841	13.647	1026.822	769.315
90.855	13.843	1025.999	769.537
91.870	13.705	1025.292	768.298
92.884	13.735	1024.156	767.517
93.899	13.800	1023.430	767.209
94.914	13.836	1022.592	766.678
95.928	13.807	1021.674	765.788
96.943	13.814	1020.566	764.920
97.957	13.684	1020.202	763.985
98.972	13.816	1018.890	763.537
99.987	13.813	1018.109	762.871
101.001	13.787	1017.190	761.997
102.016	13.764	1016.491	761.300
103.030	13.684	1016.070	760.550
104.045	13.804	1014.597	759.933
105.060	13.722	1014.295	759.261
106.074	13.639	1013.463	758.191
107.089	13.700	1012.125	757.403
108.103	13.664	1011.290	756.547
109.118	13.702	1010.525	756.082
110.133	13.594	1009.759	754.950
111.147	13.603	1008.751	754.168
112.162	13.613	1008.023	753.604
113.176	13.722	1006.831	753.141
114.191	13.598	1006.437	752.215
115.206	13.811	1005.466	752.389
116.220	13.635	1004.984	751.163
117.235	13.808	1003.631	750.869
118.249	13.703	1002.922	749.799
119.264	13.864	1002.096	749.844
120.279	13.838	1001.066	748.889
121.293	13.813	1000.744	748.468
122.308	13.680	999.868	747.146
123.322	13.607	998.460	745.703
124.337	13.708	997.446	745.332
125.352	13.622	996.544	744.208
126.366	13.737	994.666	743.251
127.381	13.741	994.260	742.902
128.395	13.678	993.482	741.972
129.410	13.587	992.488	740.756
130.424	13.632	991.597	740.229
131.439	13.796	990.767	740.275
132.454	13.714	989.726	739.068
133.468	13.718	989.009	738.481
134.483	13.843	988.271	738.422
135.497	13.822	987.493	737.682
136.512	13.695	987.110	736.768
137.527	13.716	985.872	735.870
138.541	13.857	985.216	735.940
139.556	13.732	984.689	734.930
140.570	13.715	983.827	734.145
141.585	13.895	983.103	734.334
142.600	14.022	981.538	733.665
143.614	13.963	981.021	732.951
144.629	14.051	979.805	732.368
145.643	13.861	979.502	731.238
146.658	13.953	978.491	730.824
147.673	13.874	977.527	729.691
148.687	13.974	976.570	729.352
149.702	13.970	975.885	728.758
150.716	13.987	974.753	727.920
151.731	13.905	974.299	727.161
152.746	13.926	973.444	726.550
153.760	13.988	972.985	726.414
154.775	14.102	972.417	726.424
155.789	13.947	972.042	725.402
156.804	13.960	971.354	724.879
157.819	14.043	970.570	724.592
158.833	13.967	969.985	723.760
159.848	14.126	968.958	723.623
160.862	14.051	967.889	722.434
161.877	14.017	966.886	721.475
162.892	14.029	966.083	720.864
163.906	13.930	965.547	719.969
164.921	14.094	964.884	720.124
165.935	14.194	963.083	719.146
166.950	14.026	962.622	718.012
167.964	14.063	961.928	717.594
168.979	14.042	961.010	716.754
169.994	14.135	959.970	716.316
171.008	13.969	959.401	715.112
172.023	14.092	958.633	715.005
173.037	14.191	957.475	714.504
174.052	14.153	957.028	713.945
175.067	14.068	956.449	713.084
176.081	14.018	955.835	712.351
177.096	14.081	955.329	712.179
178.110	14.204	954.674	712.152
179.125	14.129	954.432	711.590
180.140	14.283	953.763	711.687
181.154	14.305	952.885	711.061
182.169	14.271	952.467	710.541
183.183	14.273	951.721	709.932
184.198	14.424	950.536	709.629
185.213	14.347	950.177	708.970
186.227	14.448	949.442	708.787
187.242	14.370	948.740	707.871
188.256	14.472	948.263	707.883
189.271	14.341	947.814	706.928
190.286	14.342	946.538	705.921
191.300	14.390	945.657	705.403
192.315	14.245	944.963	704.212
193.329	14.264	945.087	704.319
194.344	14.311	944.423	703.963
195.359	14.357	943.575	703.461
196.373	14.326	943.113	702.924
197.388	14.457	942.534	702.982
198.402	14.477	941.916	702.544
199.417	14.465	941.259	701.943
200.432	14.473	940.835	701.596
201.446	14.588	940.364	701.666
202.461	14.631	939.444	701.100
203.475	14.663	938.897	700.766
204.490	14.591	937.928	699.675
205.504	14.593	937.244	699.114
206.519	14.615	936.507	698.591
207.534	14.572	935.988	697.966
208.548	14.530	935.306	697.220
209.563	14.577	934.727	696.920
210.577	14.589	934.202	696.517
211.592	14.778	933.093	696.416
212.607	14.718	932.967	696.012
213.621	14.652	931.882	694.865
214.636	14.866	930.690	694.807
215.650	14.724	930.506	694.016
216.665	14.831	929.419	693.588
217.680	14.821	929.006	693.179
218.694	14.942	927.800	692.719
219.709	14.817	927.540	691.946
220.723	14.791	926.684	691.139
221.738	14.845	926.119	690.880
222.753	14.785	925.570	690.157
223.767	14.791	925.236	689.874
224.782	15.034	924.164	690.017
225.796	14.966	923.911	689.484
226.811	14.939	923.170	688.760
227.826	14.903	922.343	687.935
228.840	14.955	921.866	687.733
229.855	14.915	920.966	686.834
230.869	14.847	920.474	686.129
231.884	14.976	919.495	685.867
232.899	14.953	918.745	685.152
233.913	14.857	918.468	684.493
234.928	14.889	917.306	683.695
235.942	14.695	917.278	682.820
236.957	14.913	916.582	683.133
237.972	15.011	915.671	682.792
238.986	14.945	915.128	682.062
240.001	14.920	914.678	681.564
241.015	14.977	913.911	681.163
242.030	15.181	913.070	681.306
243.045	15.135	912.221	680.425
244.059	15.145	911.815	680.102
245.074	15.177	911.096	679.634
246.088	15.046	910.667	678.725
247.103	15.156	909.801	678.466
248.117	15.186	909.341	678.184
249.132	15.134	908.914	677.595
250.147	15.314	908.023	677.596
251.161	15.274	907.619	677.075
252.176	15.460	906.607	677.007
253.190	15.484	905.902	676.521
254.205	15.473	905.150	675.854
255.220	15.273	904.817	674.740
256.234	15.475	904.341	675.140
257.249	15.523	903.362	674.539
258.263	15.460	902.825	673.826
259.278	15.368	902.222	672.947
260.293	15.542	901.362	672.943
261.307	15.361	901.074	671.946
262.322	15.554	900.278	672.062
263.336	15.711	899.245	671.861
264.351	15.688	898.406	671.083
265.366	15.615	898.259	670.624
266.380	15.602	897.520	669.962
267.395	15.636	896.435	669.224
268.409	15.534	895.914	668.371
269.424	15.646	895.201	668.226
270.439	15.469	894.479	666.923
271.453	15.647	893.554	666.883
272.468	15.674	893.324	666.760
273.482	15.785	892.551	666.564
274.497	15.838	891.732	666.103
275.512	15.714	891.341	665.260
276.526	15.758	890.960	665.090
277.541	15.658	890.656	664.410
278.555	15.758	890.009	664.262
279.570	15.847	889.067	663.855
280.585	15.852	888.315	663.251
281.599	15.892	887.586	662.808
282.614	15.851	886.968	662.125
283.628	15.838	886.139	661.399
284.643	15.961	885.660	661.462
285.657	15.856	885.182	660.638
286.672	15.939	884.746	660.577
287.687	15.900	883.864	659.707
288.701	15.920	883.618	659.545
289.716	15.890	882.839	658.785
290.730	15.899	882.500	658.511
291.745	15.971	881.608	658.070
292.760	15.955	881.210	657.650
293.774	15.980	880.308	657.016
294.789	16.038	879.868	656.857
295.803	15.987	879.082	656.015
296.818	16.026	878.247	655.485
297.833	15.926	877.611	654.560
298.847	16.141	877.010	654.890
299.862	16.029	876.547	654.053
300.876	16.174	875.918	654.086
301.891	16.099	875.644	653.535
302.906	16.301	874.729	653.577
303.920	16.229	874.265	652.893
304.935	16.365	873.529	652.809
305.949	16.324	872.720	651.990
306.964	16.383	872.174	651.751
307.979	16.161	871.970	650.685
308.993	16.254	871.169	650.389
310.008	16.264	870.704	650.023
311.022	16.335	869.898	649.637
312.037	16.367	869.399	649.330
313.052	16.070	869.269	648.034
314.066	16.370	868.214	648.340
315.081	16.322	867.691	647.710
316.095	16.392	867.238	647.582
317.110	16.390	866.669	647.091
318.125	16.448	866.019	646.771
319.139	16.459	865.848	646.627
320.154	16.427	865.294	646.035
321.168	16.314	864.654	645.070
322.183	16.496	863.515	644.855
323.197	16.477	863.478	644.698
324.212	16.612	862.539	644.453
325.227	16.473	861.960	643.438
326.241	16.478	861.647	643.164
327.256	16.515	860.991	642.761
328.270	16.439	860.736	642.224
329.285	16.444	860.173	641.765
330.300	16.641	859.363	641.852
331.314	16.537	858.872	641.035
332.329	16.585	858.344	640.766
333.343	16.613	857.831	640.429
334.358	16.601	857.363	639.981
335.373	16.661	857.009	639.885
336.387	16.792	856.660	640.064
337.402	16.572	856.842	639.311
338.416	16.632	856.334	639.102
339.431	16.785	855.306	638.855
340.446	16.693	855.313	638.458
341.460	16.717	854.998	638.254
342.475	16.645	854.518	637.571
343.489	16.754	853.907	637.466
344.504	16.871	853.225	637.341
345.519	16.829	852.973	636.938
346.533	16.804	852.517	636.450
347.548	16.840	851.970	636.120
348.562	16.716	851.415	635.185
349.577	16.877	850.661	635.169
350.592	16.750	850.392	634.435
351.606	16.828	849.601	634.081
352.621	16.765	848.723	633.136
353.635	16.833	848.280	633.001
354.650	16.989	847.635	633.048
355.665	16.992	846.630	632.249
356.679	16.975	846.221	631.827
357.694	16.876	845.537	630.891
358.708	16.849	844.992	630.329
359.723	16.949	844.271	630.107
360.738	16.892	843.752	629.451
361.752	16.913	843.438	629.241
362.767	17.059	842.381	628.937
363.781	17.087	842.061	628.747
364.796	17.145	841.619	628.575
365.810	17.165	841.286	628.343
366.825	17.126	840.936	627.884
367.840	17.263	840.317	627.872
368.854	17.272	839.775	627.445
369.869	17.240	839.702	627.216
370.883	17.277	839.046	626.806
371.898	17.254	838.595	626.330
372.913	17.246	838.612	626.257
373.927	17.269	837.536	625.483
374.942	17.268	837.255	625.214
375.956	17.355	836.872	625.193
376.971	17.354	836.497	624.855
377.986	17.431	836.382	624.996
379.000	17.394	835.690	624.288
380.015	17.381	834.952	623.635
381.029	17.449	834.410	623.422
382.044	17.383	833.688	622.587
383.059	17.450	833.382	622.548
384.073	17.505	832.626	622.127
385.088	17.488	832.138	621.648
386.102	17.538	831.576	621.353
387.117	17.451	830.742	620.360
388.132	17.570	829.915	620.122
389.146	17.461	829.901	619.658
390.161	17.623	829.408	619.825
391.175	17.567	828.827	619.132
392.190	17.428	828.314	618.189
393.205	17.571	827.862	618.316
394.219	17.617	827.604	618.236
395.234	17.522	827.184	617.522
396.248	17.576	826.468	617.129
397.263	17.586	826.141	616.865
398.278	17.503	825.910	616.339
399.292	17.538	825.406	616.036
400.307	17.731	824.665	616.125
401.321	17.607	824.503	615.502
402.336	17.453	824.083	614.577
403.350	17.555	823.490	614.450
404.365	17.709	822.957	614.551
405.380	17.766	822.353	614.251
406.394	17.732	821.992	613.806
407.409	17.565	821.914	613.093
408.423	17.865	821.045	613.469
409.438	17.935	820.770	613.458
410.453	17.845	820.411	612.815
411.467	17.881	819.957	612.549
412.482	17.819	819.947	612.266
413.496	17.917	819.400	612.153
414.511	17.940	818.870	611.786
415.526	17.898	818.184	611.070
416.540	18.044	817.620	611.115
417.555	18.057	817.259	610.840
418.569	18.065	816.630	610.341
419.584	18.126	816.038	610.064
420.599	18.125	815.940	609.932
421.613	116.000	1301.878	1493.621
422.628	100.533	1372.607	1493.677
