DTS Sentinel unit serial number:	SN413079Multiplexer serial number:	ORYXHardware model number:	OX4-SRSoftware version number:	ORYX F/W v4.00 Oryx Data Collector v3.7.2.0data status	okinstallation	princeton_trtdifferential loss correction	single-endedforward channel	channel 1reverse channel	N/Adate	2019/09/16time	20:10:35forward acquisition time	60.00reverse acquisition time	0.00gamma	496.2192k internal	0.2322k external	0.2322temperature offset calibration	0.9958default loss term (dB/km)	0.3790temperature slope calibration	1.0000multiplexer offset coefficient	1.0000multiplexer slope coefficient	1.0000fibre end	0.00T internal ref (°C)	33.09T ext. ref 1 (°C)	0.09T ext. ref 2 (°C)	26.65length (m)	temperature (°C)	Stokes	anti-Stokes-747.200	-123.709	0.115	0.018
-746.185	-200.000	0.008	0.080
-745.171	189.325	-0.108	-0.163
-744.156	95.827	-0.200	0.231
-743.142	-187.346	0.141	0.002
-742.127	155.659	-0.441	0.614
-741.112	-20.558	-0.231	0.143
-740.098	-181.868	-0.099	-0.002
-739.083	-83.886	0.042	0.013
-738.069	-200.000	-0.000	-0.062
-737.054	-82.149	-0.101	-0.033
-736.039	-112.359	-0.272	0.055
-735.025	-17.550	0.430	0.273
-734.010	-110.647	-0.256	-0.053
-732.996	104.899	0.018	-0.022
-731.981	-200.000	0.035	0.189
-730.966	-60.828	0.319	0.136
-729.952	49.076	-0.237	-0.225
-728.937	-159.788	-0.328	-0.018
-727.923	-198.599	-0.308	-0.002
-726.908	-56.966	-0.147	-0.066
-725.894	736.380	-0.075	-0.203
-724.879	4.540	-0.152	-0.112
-723.864	209.672	0.171	-0.271
-722.850	-79.003	-0.458	-0.157
-721.835	-78.948	-0.161	0.055
-720.821	81.610	-0.114	-0.125
-719.806	-200.000	0.005	0.050
-718.791	138.596	-0.053	-0.071
-717.777	-200.000	0.001	-0.029
-716.762	68.999	0.073	-0.076
-715.748	62.866	0.313	-0.316
-714.733	-192.249	-0.109	-0.001
-713.718	-200.000	0.002	-0.069
-712.704	-57.218	-0.217	-0.096
-711.689	800.000	0.114	-0.338
-710.675	-162.453	0.291	-0.015
-709.660	-200.000	0.045	0.287
-708.645	47.472	-0.160	0.151
-707.631	-127.686	-0.257	-0.037
-706.616	198.822	0.041	-0.063
-705.602	-114.913	-0.116	-0.022
-704.587	-200.000	0.008	0.164
-703.572	800.000	0.161	-0.464
-702.558	106.825	-0.017	0.020
-701.543	800.000	-0.136	-0.482
-700.529	161.462	0.174	0.245
-699.514	800.000	0.082	0.232
-698.499	34.941	-0.281	0.248
-697.485	-88.331	0.227	0.069
-696.470	57.126	0.151	-0.149
-695.456	-113.408	-0.241	-0.048
-694.441	-111.054	-0.326	-0.067
-693.426	6.111	-0.057	-0.043
-692.412	188.102	0.119	-0.179
-691.397	206.559	0.237	0.372
-690.383	-200.000	-0.008	0.278
-689.368	-200.000	0.014	-0.080
-688.354	-28.636	-0.227	-0.132
-687.339	-200.000	0.007	-0.177
-686.324	-182.477	-0.048	0.001
-685.310	26.330	0.179	0.150
-684.295	168.785	-0.124	0.179
-683.281	597.991	0.101	-0.251
-682.266	204.123	-0.149	-0.233
-681.251	201.748	0.053	-0.082
-680.237	89.673	0.062	-0.070
-679.222	-149.661	-0.127	-0.010
-678.208	-200.000	-0.012	-0.195
-677.193	-87.036	-0.284	-0.087
-676.178	-200.000	-0.003	0.119
-675.164	-200.000	0.032	-0.297
-674.149	-53.207	-0.182	-0.084
-673.135	-200.000	0.004	-0.049
-672.120	97.063	-0.130	0.151
-671.105	10.674	0.133	0.102
-670.091	-91.542	0.377	-0.108
-669.076	800.000	-0.053	-0.219
-668.062	-200.000	-0.076	-0.546
-667.047	109.326	0.087	-0.105
-666.032	-200.000	0.016	0.194
-665.018	-18.596	-0.297	-0.187
-664.003	46.066	-0.253	-0.236
-662.989	45.858	-0.109	-0.101
-661.974	13.268	-0.139	-0.108
-660.959	800.000	-0.108	0.412
-659.945	-59.200	-0.228	-0.099
-658.930	-151.550	0.488	0.036
-657.916	-200.000	0.001	-0.200
-656.901	-200.000	-0.021	0.184
-655.886	800.000	-0.030	-0.128
-654.872	-101.113	-0.231	0.057
-653.857	800.000	0.077	0.227
-652.843	147.358	-0.251	0.340
-651.828	-181.140	-0.037	0.001
-650.814	-200.000	-0.015	-0.312
-649.799	-200.000	-0.058	-0.269
-648.784	-22.659	-0.418	-0.254
-647.770	-200.000	0.017	-0.237
-646.755	630.797	-0.104	0.264
-645.741	-29.258	0.151	0.087
-644.726	-200.000	-0.001	-0.027
-643.711	-34.809	0.286	-0.157
-642.697	-200.000	0.003	-0.122
-641.682	800.000	-0.131	0.407
-640.668	-149.518	0.299	-0.024
-639.653	-200.000	-0.007	0.353
-638.638	139.700	-0.135	0.179
-637.624	-200.000	-0.084	0.492
-636.609	194.528	-0.133	-0.203
-635.595	-71.167	-0.111	0.042
-634.580	-94.208	0.129	-0.036
-633.565	-150.167	-0.232	0.018
-632.551	-149.268	0.202	0.016
-631.536	-172.768	-0.156	-0.005
-630.522	-151.430	-0.052	0.004
-629.507	152.137	0.308	-0.423
-628.492	-107.499	-0.203	0.045
-627.478	42.102	0.088	-0.081
-626.463	-200.000	-0.017	-0.250
-625.449	800.000	0.025	0.084
-624.434	319.146	0.025	-0.048
-623.419	180.318	-0.005	-0.007
-622.405	-200.000	-0.025	0.310
-621.390	621.132	0.086	-0.216
-620.376	-15.047	0.230	0.148
-619.361	-65.973	0.282	0.113
-618.346	-200.000	-0.016	-0.168
-617.332	-200.000	-0.045	-0.317
-616.317	-200.000	-0.004	-0.302
-615.303	-110.550	0.122	0.026
-614.288	-170.417	0.193	-0.007
-613.273	228.782	-0.139	0.228
-612.259	19.960	-0.126	-0.102
-611.244	215.431	-0.183	-0.292
-610.230	-200.000	0.082	-0.487
-609.215	-200.000	0.010	-0.282
-608.201	-3.443	0.087	-0.061
-607.186	-37.544	-0.049	-0.026
-606.171	-200.000	-0.019	-0.155
-605.157	-49.412	-0.269	0.129
-604.142	-29.749	0.239	0.137
-603.128	-200.000	0.060	-0.294
-602.113	-184.198	0.105	-0.002
-601.098	168.350	-0.074	0.105
-600.084	-64.701	0.062	0.025
-599.069	-200.000	0.033	0.236
-598.055	426.659	0.037	-0.079
-597.040	800.000	-0.128	0.459
-596.025	-27.413	0.137	-0.080
-595.011	522.383	0.061	-0.145
-593.996	6.712	-0.406	-0.303
-592.982	800.000	-0.068	-0.241
-591.967	800.000	-0.069	-0.253
-590.952	-200.000	-0.051	0.322
-589.938	-83.434	0.164	-0.053
-588.923	-143.270	-0.435	-0.042
-587.909	-200.000	0.045	0.313
-586.894	-31.359	-0.154	-0.087
-585.879	-133.526	-0.326	-0.041
-584.865	556.564	0.201	0.486
-583.850	-200.000	0.009	-0.076
-582.836	1.396	0.232	-0.167
-581.821	800.000	-0.048	0.190
-580.806	-48.469	-0.023	-0.011
-579.792	-200.000	0.046	0.273
-578.777	-72.911	0.276	0.102
-577.763	-200.000	-0.018	-0.315
-576.748	800.000	-0.095	-0.316
-575.733	168.674	0.030	-0.043
-574.719	571.613	0.102	0.250
-573.704	800.000	-0.098	0.417
-572.690	95.674	-0.120	-0.138
-571.675	-77.211	-0.364	-0.127
-570.661	800.000	-0.102	-0.334
-569.646	-93.961	-0.218	0.060
-568.631	-100.388	-0.234	-0.058
-567.617	-200.000	0.014	0.218
-566.602	800.000	0.083	-0.277
-565.588	-93.587	-0.159	-0.044
-564.573	85.361	-0.178	-0.196
-563.558	-95.973	-0.107	-0.028
-562.544	228.477	-0.227	0.371
-561.529	-200.000	-0.014	0.281
-560.515	48.699	0.144	0.136
-559.500	-21.799	-0.354	0.216
-558.485	-154.054	-0.348	0.024
-557.471	-178.062	-0.269	0.006
-556.456	-58.577	0.128	0.056
-555.442	800.000	-0.084	0.299
-554.427	190.038	-0.171	0.258
-553.412	-60.742	-0.226	0.096
-552.398	-34.516	-0.348	-0.191
-551.383	71.989	-0.269	-0.281
-550.369	-30.916	0.264	-0.149
-549.354	800.000	-0.037	0.131
-548.339	-200.000	-0.019	-0.291
-547.325	-200.000	-0.066	0.396
-546.310	-200.000	-0.014	0.303
-545.296	-200.000	-0.033	-0.294
-544.281	164.952	0.200	0.283
-543.266	37.137	-0.099	-0.088
-542.252	102.740	-0.086	-0.101
-541.237	-73.719	-0.098	0.036
-540.223	23.788	-0.050	0.042
-539.208	15.378	0.211	0.166
-538.193	588.108	0.117	0.289
-537.179	-109.553	0.134	0.028
-536.164	800.000	0.040	-0.152
-535.150	800.000	0.030	0.131
-534.135	-124.242	0.205	0.032
-533.121	247.828	-0.093	-0.157
-532.106	-108.742	0.124	-0.027
-531.091	-68.964	0.081	0.031
-530.077	-79.206	-0.103	0.035
-529.062	-169.067	0.472	-0.018
-528.048	-75.085	0.229	-0.082
-527.033	79.983	-0.220	0.237
-526.018	524.890	-0.057	0.135
-525.004	183.525	-0.089	0.131
-523.989	110.327	0.053	0.064
-522.975	172.140	-0.170	0.244
-521.960	800.000	-0.083	0.248
-520.945	-38.944	-0.128	0.067
-519.931	-164.948	0.156	0.007
-518.916	-175.388	0.069	-0.002
-517.902	35.642	-0.210	0.185
-516.887	800.000	0.039	-0.157
-515.872	-134.911	0.324	-0.039
-514.858	-193.082	0.252	0.002
-513.843	-106.706	-0.145	-0.032
-512.829	-200.000	0.018	0.240
-511.814	800.000	-0.142	0.414
-510.799	238.074	-0.114	0.189
-509.785	-128.062	0.337	0.048
-508.770	274.619	-0.160	0.284
-507.756	800.000	-0.036	-0.134
-506.741	80.966	-0.136	-0.147
-505.726	-97.455	0.134	-0.035
-504.712	-89.791	0.306	-0.090
-503.697	-200.000	0.004	0.140
-502.683	190.801	0.150	-0.225
-501.668	70.371	-0.194	-0.200
-500.653	-200.000	-0.024	-0.189
-499.639	544.210	-0.094	-0.224
-498.624	-114.948	0.318	-0.061
-497.610	-137.211	0.220	-0.025
-496.595	-139.865	0.103	-0.011
-495.581	475.986	0.090	0.204
-494.566	-34.252	-0.037	-0.020
-493.551	-200.000	-0.109	-0.489
-492.537	435.599	0.045	-0.099
-491.522	-200.000	0.020	-0.097
-490.508	199.052	0.189	-0.289
-489.493	131.042	-0.022	-0.028
-488.478	319.091	0.027	-0.051
-487.464	192.801	-0.124	0.187
-486.449	-200.000	0.013	0.202
-485.435	8.364	-0.098	0.074
-484.420	-0.471	0.211	-0.150
-483.405	-104.637	-0.312	0.072
-482.391	-53.333	-0.213	-0.098
-481.376	96.131	-0.164	-0.187
-480.362	-200.000	0.070	-0.318
-479.347	-200.000	0.004	-0.300
-478.332	1.182	0.168	-0.120
-477.318	-5.235	-0.057	-0.039
-476.303	472.676	-0.046	0.105
-475.289	800.000	0.027	-0.104
-474.274	-139.838	-0.148	-0.016
-473.259	-123.438	-0.491	0.078
-472.245	268.861	-0.097	0.170
-471.230	414.290	-0.037	0.078
-470.216	-200.000	0.014	0.137
-469.201	800.000	0.076	0.220
-468.186	237.982	0.069	0.115
-467.172	-200.000	0.050	0.263
-466.157	-62.012	0.287	0.120
-465.143	-73.024	-0.240	0.088
-464.128	65.305	0.170	0.172
-463.113	243.768	-0.174	-0.292
-462.099	85.425	0.110	0.121
-461.084	342.716	0.079	-0.155
-460.070	-88.996	-0.171	-0.051
-459.055	800.000	-0.053	0.216
-458.040	-76.399	0.173	0.061
-457.026	103.654	-0.108	-0.127
-456.011	-113.014	0.140	0.028
-454.997	-72.317	0.172	0.063
-453.982	-200.000	-0.030	-0.137
-452.968	-37.987	0.075	0.040
-451.953	120.791	0.114	0.142
-450.938	-79.357	0.240	-0.081
-449.924	24.783	-0.036	-0.030
-448.909	-120.663	0.090	-0.015
-447.895	-200.000	0.027	0.179
-446.880	800.000	0.033	0.118
-445.865	-26.109	-0.356	-0.209
-444.851	-29.893	-0.115	0.065
-443.836	134.729	0.172	-0.223
-442.822	-52.773	-0.318	-0.147
-441.807	20.549	-0.061	-0.049
-440.792	112.131	0.152	-0.183
-439.778	800.000	-0.117	0.384
-438.763	166.218	-0.106	-0.149
-437.749	85.508	-0.128	0.140
-436.734	-200.000	-0.003	0.079
-435.719	22.288	-0.162	0.132
-434.705	-111.930	-0.186	-0.037
-433.690	-136.938	0.145	0.017
-432.676	471.779	0.098	-0.220
-431.661	-17.061	-0.271	0.171
-430.646	-200.000	-0.008	0.312
-429.632	39.322	0.187	-0.167
-428.617	-56.988	-0.098	-0.043
-427.603	144.652	0.251	-0.335
-426.588	-75.580	-0.260	-0.092
-425.573	126.777	0.110	0.139
-424.559	-200.000	0.018	0.233
-423.544	-185.216	-0.279	0.004
-422.530	-7.191	-0.072	0.048
-421.515	-200.000	0.083	0.434
-420.500	800.000	-0.026	-0.096
-419.486	306.021	0.212	0.394
-418.471	652.520	0.083	0.212
-417.457	-75.161	0.223	-0.079
-416.442	20.697	-0.080	-0.065
-415.428	28.665	0.075	-0.064
-414.413	8.907	-0.237	-0.179
-413.398	610.009	-0.131	-0.327
-412.384	-68.976	-0.167	0.064
-411.369	161.313	0.181	-0.252
-410.355	-172.362	0.117	-0.004
-409.340	-13.441	0.299	-0.193
-408.325	800.000	0.058	-0.205
-407.311	-61.925	-0.249	0.104
-406.296	-85.062	-0.290	-0.090
-405.282	511.220	0.120	0.278
-404.267	-25.505	-0.266	-0.156
-403.252	-16.733	-0.315	-0.199
-402.238	-71.434	0.320	-0.120
-401.223	166.448	-0.125	-0.176
-400.209	-144.535	-0.214	0.020
-399.194	685.279	0.085	-0.222
-398.179	-32.967	0.196	-0.109
-397.165	272.022	0.055	0.097
-396.150	-57.171	-0.096	0.042
-395.136	-16.207	0.124	-0.079
-394.121	131.350	0.040	-0.052
-393.106	-200.000	-0.019	0.173
-392.092	-41.530	0.251	-0.128
-391.077	-171.721	-0.212	-0.007
-390.063	-29.173	-0.405	0.231
-389.048	220.079	0.245	0.391
-388.033	149.605	-0.111	0.149
-387.019	-127.504	0.120	0.017
-386.004	-12.845	0.204	0.133
-384.990	369.838	0.185	-0.373
-383.975	145.379	0.191	0.254
-382.960	-200.000	0.042	-0.228
-381.946	800.000	-0.061	-0.225
-380.931	-115.014	-0.205	-0.039
-379.917	176.582	0.138	-0.201
-378.902	357.693	0.212	-0.422
-377.888	49.622	-0.213	-0.200
-376.873	312.319	0.142	0.265
-375.858	-71.645	0.347	0.129
-374.844	-134.699	0.150	-0.018
-373.829	-177.316	0.373	0.009
-372.815	-61.049	0.286	-0.120
-371.800	-110.242	0.175	0.036
-370.785	38.507	0.082	0.072
-369.771	800.000	-0.104	0.331
-368.756	161.866	0.234	0.327
-367.742	-36.569	0.267	0.143
-366.727	-53.028	-0.189	-0.086
-365.712	-41.007	-0.225	-0.116
-364.698	-54.402	-0.438	0.198
-363.683	387.212	0.035	-0.072
-362.669	343.697	-0.139	0.272
-361.654	73.510	0.106	0.110
-360.639	-47.254	0.257	0.125
-359.625	17.310	-0.187	0.148
-358.610	-57.869	0.256	-0.111
-357.596	82.507	-0.143	0.155
-356.581	162.649	0.102	-0.142
-355.566	-93.446	-0.252	-0.069
-354.552	-75.975	0.068	-0.024
-353.537	-128.214	0.181	-0.026
-352.523	-200.000	0.025	-0.130
-351.508	171.496	-0.301	-0.430
-350.493	-200.000	0.102	-0.546
-349.479	-200.000	0.015	0.238
-348.464	-85.304	0.374	-0.116
-347.450	22.530	0.256	-0.208
-346.435	-95.798	0.111	0.030
-345.420	757.795	0.040	-0.109
-344.406	-132.965	-0.116	0.015
-343.391	-70.324	-0.140	0.053
-342.377	800.000	0.048	0.134
-341.362	-105.460	0.064	-0.015
-340.348	-59.425	-0.304	-0.130
-339.333	-200.000	-0.008	-0.184
-338.318	-200.000	-0.003	-0.194
-337.304	156.457	0.131	-0.179
-336.289	-71.459	-0.095	-0.035
-335.275	226.644	-0.092	-0.149
-334.260	-139.657	-0.222	-0.024
-333.245	-27.542	0.305	-0.176
-332.231	800.000	0.064	0.183
-331.216	57.626	0.041	0.040
-330.202	218.098	-0.062	-0.099
-329.187	159.665	-0.105	-0.145
-328.172	-43.851	-0.347	0.173
-327.158	352.658	0.146	0.288
-326.143	707.005	-0.072	0.188
-325.129	-200.000	0.001	-0.011
-324.114	-84.878	-0.330	-0.103
-323.099	-200.000	0.047	-0.312
-322.085	-56.731	0.052	0.023
-321.070	-77.870	0.265	0.091
-320.056	-86.334	-0.123	0.038
-319.041	208.249	0.110	-0.170
-318.026	303.216	-0.138	-0.254
-317.012	-57.601	0.523	-0.228
-315.997	800.000	0.044	-0.138
-314.983	800.000	-0.087	0.270
-313.968	-46.905	0.152	0.074
-312.953	-5.232	-0.090	-0.061
-311.939	56.322	0.261	-0.252
-310.924	-14.767	-0.028	0.018
-309.910	-53.160	-0.263	-0.120
-308.895	-115.060	-0.271	-0.051
-307.880	92.526	-0.179	0.200
-306.866	-36.217	-0.241	0.129
-305.851	22.831	-0.147	-0.120
-304.837	-64.362	0.171	-0.069
-303.822	-200.000	0.002	-0.015
-302.807	18.986	-0.157	0.125
-301.793	-127.682	0.371	-0.053
-300.778	-163.176	0.165	-0.008
-299.764	15.149	0.096	-0.074
-298.749	24.256	0.115	0.095
-297.735	-60.317	-0.388	-0.164
-296.720	-175.084	0.311	0.009
-295.705	329.597	-0.071	-0.136
-294.691	-77.443	0.360	0.124
-293.676	800.000	0.041	-0.152
-292.662	43.803	0.312	-0.284
-291.647	38.333	0.190	-0.168
-290.632	-55.463	-0.179	0.079
-289.618	-32.072	-0.243	0.135
-288.603	-87.940	0.202	0.060
-287.589	685.077	0.088	0.228
-286.574	42.395	0.109	-0.098
-285.559	-200.000	0.027	0.357
-284.545	-102.531	0.238	-0.056
-283.530	571.024	-0.155	-0.375
-282.516	800.000	0.096	-0.333
-281.501	66.003	0.180	-0.181
-280.486	-57.816	0.076	0.033
-279.472	19.995	-0.206	-0.164
-278.457	800.000	0.010	-0.036
-277.443	639.036	0.084	-0.212
-276.428	-66.219	-0.306	-0.121
-275.413	-61.958	-0.341	0.141
-274.399	-69.463	0.257	0.098
-273.384	58.311	-0.175	-0.170
-272.370	206.366	-0.130	0.201
-271.355	196.746	0.220	0.333
-270.340	-37.386	-0.172	-0.091
-269.326	34.170	0.233	0.201
-268.311	100.460	0.213	0.245
-267.297	-73.488	0.207	0.075
-266.282	-68.925	0.225	0.086
-265.267	800.000	0.082	-0.294
-264.253	800.000	0.075	0.207
-263.238	-79.963	-0.086	-0.029
-262.224	-99.232	0.102	-0.026
-261.209	-200.000	0.014	0.094
-260.195	452.696	-0.103	-0.225
-259.180	-122.722	0.138	0.022
-258.165	108.729	0.057	0.068
-257.151	152.470	-0.120	0.162
-256.136	-115.136	0.130	0.024
-255.122	741.169	0.073	0.195
-254.107	203.416	-0.066	-0.101
-253.092	-53.853	0.214	0.097
-252.078	167.534	-0.153	0.215
-251.063	365.086	0.089	0.178
-250.049	24.126	0.297	-0.243
-249.034	-144.732	0.070	0.006
-248.019	595.163	0.149	0.366
-247.005	-200.000	0.000	0.352
-245.990	-200.000	0.010	0.187
-244.976	215.117	-0.170	0.266
-243.961	184.186	-0.167	0.245
-242.946	-190.151	0.079	-0.001
-241.932	99.713	-0.030	0.034
-240.917	-200.000	0.034	-0.156
-239.903	-75.348	0.249	-0.088
-238.888	-200.000	-0.041	0.197
-237.873	-194.625	-0.209	-0.002
-236.859	22.849	0.164	0.134
-235.844	-200.000	-0.014	-0.097
-234.830	800.000	0.037	0.149
-233.815	-200.000	-0.039	0.173
-232.800	267.957	0.062	-0.108
-231.786	-19.054	0.305	0.188
-230.771	225.636	-0.100	0.161
-229.757	73.227	-0.078	0.081
-228.742	-200.000	0.008	-0.449
-227.727	-75.064	-0.221	0.078
-226.713	61.898	0.045	-0.044
-225.698	161.021	0.305	0.422
-224.684	-98.221	0.332	-0.084
-223.669	47.274	-0.213	-0.197
-222.655	-200.000	-0.004	0.190
-221.640	90.027	0.190	0.210
-220.625	-200.000	-0.020	0.148
-219.611	46.064	-0.281	-0.257
-218.596	-166.507	-0.423	-0.017
-217.582	-132.944	-0.331	0.042
-216.567	26.080	0.095	0.079
-215.552	-130.596	-0.302	-0.040
-214.538	3.568	0.156	-0.113
-213.523	-20.078	0.060	-0.037
-212.509	-200.000	-0.004	-0.161
-211.494	71.320	-0.110	0.113
-210.479	-200.000	-0.028	0.190
-209.465	264.336	-0.166	-0.285
-208.450	-21.576	-0.133	-0.080
-207.436	-200.000	0.038	-0.340
-206.421	-7.734	-0.094	-0.063
-205.406	-163.249	-0.200	-0.009
-204.392	-48.296	0.307	-0.147
-203.377	-200.000	-0.029	0.300
-202.363	-142.038	0.059	0.006
-201.348	-88.790	-0.268	0.079
-200.333	-75.752	0.334	0.117
-199.319	34.472	0.112	0.097
-198.304	-96.815	-0.228	0.059
-197.290	35.858	-0.050	-0.044
-196.275	437.894	-0.068	-0.147
-195.260	124.125	-0.045	-0.055
-194.246	227.884	-0.153	0.246
-193.231	-200.000	0.088	-0.392
-192.217	-13.402	-0.118	-0.076
-191.202	285.252	0.043	-0.077
-190.187	-75.594	-0.340	-0.119
-189.173	-64.136	-0.102	0.041
-188.158	-54.181	0.360	-0.162
-187.144	-200.000	0.032	-0.146
-186.129	800.000	0.019	-0.064
-185.114	68.274	0.250	0.253
-184.100	-103.399	-0.396	0.092
-183.085	374.183	-0.043	0.087
-182.071	-200.000	-0.013	-0.598
-181.056	8.668	0.326	0.242
-180.042	-169.088	-0.178	0.007
-179.027	-55.726	0.212	0.094
-178.012	-106.131	0.182	-0.040
-176.998	216.660	-0.141	-0.222
-175.983	800.000	-0.046	0.145
-174.969	130.551	0.106	-0.134
-173.954	-149.302	0.073	-0.006
-172.939	-129.622	0.051	-0.007
-171.925	182.243	-0.040	0.059
-170.910	-71.538	0.076	-0.028
-169.896	39.337	-0.046	0.041
-168.881	-126.448	-0.283	0.042
-167.866	-166.060	0.214	-0.009
-166.852	88.924	-0.282	0.310
-165.837	-180.514	0.268	-0.005
-164.823	-104.357	0.147	0.034
-163.808	-134.662	-0.510	-0.061
-162.793	800.000	0.050	0.165
-161.779	-200.000	0.040	0.185
-160.764	203.502	0.073	0.112
-159.750	-200.000	0.004	-0.123
-158.735	-113.459	0.276	-0.053
-157.720	-200.000	-0.036	0.184
-156.706	-200.000	0.032	-0.457
-155.691	-8.561	0.244	0.162
-154.677	-41.052	-0.288	-0.147
-153.662	-186.741	-0.287	-0.004
-152.647	-111.940	0.146	0.029
-151.633	-200.000	-0.041	0.270
-150.618	6.503	-0.056	0.041
-149.604	113.336	0.157	-0.188
-148.589	-15.507	-0.209	0.132
-147.574	74.009	0.149	-0.155
-146.560	-184.348	0.320	0.005
-145.545	-200.000	0.016	0.136
-144.531	800.000	-0.059	-0.173
-143.516	208.729	0.096	-0.148
-142.502	10.314	0.292	-0.219
-141.487	800.000	0.042	0.150
-140.472	800.000	-0.040	-0.147
-139.458	469.585	-0.057	-0.127
-138.443	-85.886	0.305	0.093
-137.429	-200.000	0.021	0.221
-136.414	337.441	0.108	0.207
-135.399	-200.000	-0.001	0.168
-134.385	156.375	-0.042	0.057
-133.370	-68.067	-0.142	0.055
-132.356	190.116	-0.092	-0.136
-131.341	-115.736	-0.258	0.048
-130.326	18.130	0.184	0.145
-129.312	-158.397	0.456	-0.026
-128.297	-198.429	-0.183	0.001
-127.283	-200.000	0.033	0.436
-126.268	-73.746	0.206	0.074
-125.253	-101.164	-0.370	-0.089
-124.239	-169.369	0.352	0.013
-123.224	75.242	-0.174	-0.181
-122.210	76.688	-0.089	0.094
-121.195	-57.438	-0.184	-0.080
-120.180	-200.000	-0.050	-0.349
-119.166	-200.000	0.027	0.127
-118.151	-200.000	0.022	0.171
-117.137	87.991	-0.084	0.092
-116.122	800.000	-0.101	0.381
-115.107	519.612	-0.181	0.419
-114.093	68.784	-0.023	-0.023
-113.078	-91.467	0.116	-0.033
-112.064	269.425	-0.064	-0.110
-111.049	-200.000	-0.026	-0.206
-110.034	-200.000	0.020	-0.163
-109.020	-67.249	-0.103	-0.040
-108.005	-200.000	-0.030	0.150
-106.991	-60.716	-0.240	-0.100
-105.976	144.200	0.041	0.054
-104.962	154.970	-0.214	-0.290
-103.947	-4.781	-0.021	0.014
-102.932	-60.006	0.078	0.033
-101.918	104.898	-0.233	-0.270
-100.903	99.545	-0.170	-0.194
-99.889	124.758	0.148	0.183
-98.874	-200.000	0.011	-0.218
-97.859	-9.710	0.264	-0.173
-96.845	589.944	-0.159	-0.385
-95.830	-200.000	-0.014	0.266
-94.816	-112.282	-0.177	0.035
-93.801	320.541	0.127	-0.238
-92.786	-63.686	-0.301	-0.122
-91.772	-200.000	0.050	0.228
-90.757	-113.381	0.268	-0.052
-89.743	10.831	-0.065	0.049
-88.728	-193.158	-0.122	0.001
-87.713	119.653	0.064	0.078
-86.699	-90.856	-0.147	-0.042
-85.684	-200.000	0.006	0.198
-84.670	-200.000	-0.004	0.099
-83.655	-58.792	-0.233	0.099
-82.640	-112.552	0.257	-0.050
-81.626	-155.137	-0.249	-0.016
-80.611	-67.481	0.076	0.029
-79.597	165.719	0.211	0.293
-78.582	-13.976	-0.260	-0.165
-77.567	-36.155	-0.049	0.026
-76.553	-32.319	0.289	-0.159
-75.538	-62.681	0.224	-0.092
-74.524	-106.369	-0.183	-0.040
-73.509	-120.668	0.223	-0.037
-72.494	800.000	-0.057	-0.215
-71.480	49.995	0.267	-0.248
-70.465	14.426	0.347	0.266
-69.451	-75.669	-0.169	-0.059
-68.436	154.898	0.202	0.274
-67.422	59.383	-0.152	0.147
-66.407	-104.073	-0.173	-0.040
-65.392	-153.082	0.047	-0.003
-64.378	92.911	-0.173	-0.192
-63.363	-3.398	-0.180	0.123
-62.349	-196.655	0.403	-0.003
-61.334	12.656	-1.029	-0.781
-60.319	309.265	0.257	0.472
-59.305	694.311	-0.400	-1.033
-58.290	689.231	0.372	0.957
-57.276	280.598	0.652	1.147
-56.261	-200.000	93.608	565.464
-55.246	565.926	1360.017	3244.258
-54.232	164.979	2523.812	3504.060
-53.217	114.093	2137.841	2557.628
-52.203	44.757	1606.492	1453.272
-51.188	36.651	1344.907	1167.902
-50.173	33.389	1303.142	1112.466
-49.159	55.927	1348.848	1286.441
-48.144	58.001	1366.030	1315.135
-47.130	36.808	1325.705	1151.980
-46.115	33.306	1308.374	1116.263
-45.100	33.048	1303.479	1110.526
-44.086	32.974	1301.295	1108.188
-43.071	33.010	1298.883	1106.300
-42.057	32.949	1296.914	1104.220
-41.042	32.959	1294.836	1102.468
-40.027	33.003	1293.587	1101.620
-39.013	33.032	1291.568	1100.025
-37.998	33.045	1289.551	1098.336
-36.984	33.114	1287.799	1097.204
-35.969	33.120	1286.530	1096.115
-34.954	33.185	1284.313	1094.554
-33.940	33.063	1283.411	1093.038
-32.925	33.180	1282.579	1092.962
-31.911	33.176	1280.591	1091.201
-30.896	33.130	1279.323	1089.810
-29.881	33.108	1278.118	1088.615
-28.867	33.342	1276.112	1088.211
-27.852	33.223	1275.021	1086.554
-26.838	33.318	1273.153	1085.463
-25.823	33.139	1272.033	1083.438
-24.809	33.207	1271.050	1082.951
-23.794	33.195	1269.574	1081.579
-22.779	33.164	1268.141	1080.138
-21.765	33.173	1267.122	1079.281
-20.750	33.156	1265.888	1078.089
-19.736	33.076	1264.637	1076.522
-18.721	33.087	1263.389	1075.479
-17.706	32.938	1262.701	1074.004
-16.692	33.085	1261.123	1073.454
-15.677	33.011	1260.010	1072.045
-14.663	33.072	1258.860	1071.370
-13.648	33.051	1257.848	1070.347
-12.633	33.099	1256.940	1069.802
-11.619	33.061	1256.138	1068.864
-10.604	32.968	1255.365	1067.641
-9.590	32.979	1254.533	1066.951
-8.575	32.992	1253.295	1065.928
-7.560	32.940	1252.809	1065.181
-6.546	32.977	1251.903	1064.578
-5.531	33.013	1250.916	1063.900
-4.517	32.994	1249.906	1062.889
-3.502	33.043	1249.079	1062.417
-2.487	33.045	1248.239	1061.676
-1.473	32.874	1244.303	1057.326
-0.458	31.306	1228.563	1035.229
0.556	25.611	1210.402	994.398
1.571	21.651	1215.406	976.390
2.586	20.657	1229.392	981.927
3.600	20.113	1218.602	970.182
4.615	14.843	1146.165	884.609
5.629	5.308	1068.729	777.518
6.644	0.452	1048.151	738.741
7.659	0.032	1045.841	734.997
8.673	-0.070	1045.012	733.853
9.688	-0.043	1043.330	732.738
10.702	0.322	1041.628	733.252
11.717	5.794	1048.907	765.063
12.731	14.620	1060.652	816.941
13.746	18.015	1063.767	835.908
14.761	17.228	1062.027	830.621
15.775	16.083	1059.957	823.339
16.790	15.025	1057.717	816.367
17.804	14.358	1056.236	811.902
18.819	14.055	1055.345	809.668
19.834	13.748	1054.482	807.442
20.848	13.486	1053.544	805.377
21.863	13.214	1052.852	803.457
22.877	13.070	1051.796	801.880
23.892	13.118	1050.933	801.381
24.907	13.160	1050.495	801.182
25.921	13.108	1050.186	800.623
26.936	13.150	1049.038	799.883
27.950	13.121	1048.062	798.926
28.965	13.349	1046.491	798.761
29.980	13.367	1045.624	798.113
30.994	13.397	1044.960	797.680
32.009	13.440	1043.456	796.671
33.023	13.358	1042.813	795.712
34.038	13.326	1041.803	794.720
35.053	13.270	1041.353	794.035
36.067	13.206	1040.004	792.629
37.082	13.316	1038.895	792.242
38.096	13.416	1038.400	792.271
39.111	13.153	1038.116	790.729
40.126	13.250	1036.345	789.773
41.140	13.093	1035.388	788.222
42.155	12.971	1034.384	786.809
43.169	13.042	1033.521	786.418
44.184	13.002	1032.213	785.166
45.199	12.940	1031.447	784.216
46.213	13.129	1030.409	784.257
47.228	13.119	1029.402	783.374
48.242	13.310	1027.794	782.985
49.257	13.215	1027.201	782.013
50.271	13.278	1026.400	781.631
51.286	13.145	1026.072	780.684
52.301	13.339	1024.517	780.351
53.315	13.238	1023.246	778.835
54.330	13.164	1022.460	777.823
55.344	13.132	1021.718	777.037
56.359	13.015	1020.951	775.836
57.374	13.135	1020.413	775.919
58.388	13.051	1019.651	774.877
59.403	13.166	1018.474	774.452
60.417	13.055	1017.615	773.215
61.432	12.936	1017.127	772.218
62.447	12.994	1016.195	771.713
63.461	12.985	1015.322	770.940
64.476	12.887	1014.466	769.765
65.490	13.087	1013.579	769.953
66.505	13.035	1013.075	769.263
67.520	13.070	1012.129	768.639
68.534	13.010	1011.732	767.988
69.549	13.049	1010.476	767.151
70.563	13.014	1009.880	766.468
71.578	12.953	1009.054	765.491
72.593	12.968	1008.424	765.011
73.607	12.986	1007.592	764.396
74.622	12.974	1007.183	763.966
75.636	12.974	1005.922	762.940
76.651	12.983	1005.364	762.488
77.666	12.955	1004.696	761.789
78.680	12.876	1004.311	761.064
79.695	12.921	1003.776	760.796
80.709	13.086	1003.153	761.021
81.724	13.097	1002.064	760.176
82.739	13.210	1001.302	760.051
83.753	13.179	1000.859	759.503
84.768	13.392	999.755	759.577
85.782	13.405	998.770	758.823
86.797	13.198	998.437	757.553
87.812	13.162	997.340	756.490
88.826	13.224	996.260	755.887
89.841	13.110	995.551	754.760
90.855	13.233	994.885	754.750
91.870	13.389	993.929	754.669
92.884	13.372	992.999	753.820
93.899	13.300	992.363	752.943
94.914	13.369	991.338	752.412
95.928	13.399	990.736	752.023
96.943	13.318	989.854	750.922
97.957	13.293	988.972	750.071
98.972	13.369	987.981	749.595
99.987	13.341	987.188	748.804
101.001	13.250	986.426	747.746
102.016	13.319	985.216	747.076
103.030	13.304	985.010	746.786
104.045	13.348	984.082	746.216
105.060	13.415	982.807	745.485
106.074	13.266	981.667	743.881
107.089	13.192	980.871	742.880
108.103	13.138	979.990	741.905
109.118	13.111	979.397	741.271
110.133	13.097	978.608	740.544
111.147	13.080	977.492	739.558
112.162	13.154	976.352	738.958
113.176	13.107	976.218	738.581
114.191	13.176	975.470	738.260
115.206	13.265	974.666	737.983
116.220	13.263	973.488	737.018
117.235	13.399	972.283	736.648
118.249	13.216	971.927	735.499
119.264	13.202	970.935	734.621
120.279	13.096	970.351	733.643
121.293	13.112	969.492	732.997
122.308	13.059	968.512	731.955
123.322	13.134	967.577	731.518
124.337	13.143	966.549	730.715
125.352	13.082	965.906	729.893
126.366	13.070	964.733	728.890
127.381	13.121	963.500	728.120
128.395	13.223	962.597	727.822
129.410	13.240	961.424	726.945
130.424	13.238	960.516	726.188
131.439	13.254	960.540	726.210
132.454	13.232	959.530	725.284
133.468	13.332	958.553	724.922
134.483	13.392	957.748	724.512
135.497	13.300	957.042	723.511
136.512	13.282	956.219	722.744
137.527	13.312	955.276	722.101
138.541	13.321	954.667	721.615
139.556	13.304	954.200	721.125
140.570	13.459	953.104	720.908
141.585	13.435	952.218	720.071
142.600	13.502	951.515	719.763
143.614	13.475	950.522	718.834
144.629	13.533	949.969	718.602
145.643	13.524	948.831	717.640
146.658	13.493	947.821	716.677
147.673	13.288	947.544	715.517
148.687	13.221	946.643	714.483
149.702	13.320	945.347	713.870
150.716	13.418	944.609	713.672
151.731	13.253	944.547	712.851
152.746	13.441	943.196	712.579
153.760	13.408	942.912	712.157
154.775	13.421	942.531	711.863
155.789	13.394	941.762	711.104
156.804	13.649	940.580	711.241
157.819	13.565	940.418	710.695
158.833	13.536	939.811	710.051
159.848	13.641	938.577	709.506
160.862	13.516	937.675	708.228
161.877	13.491	937.036	707.575
162.892	13.514	935.977	706.808
163.906	13.424	935.141	705.732
164.921	13.318	934.674	704.867
165.935	13.328	933.686	704.101
166.950	13.580	932.417	704.152
167.964	13.495	931.982	703.400
168.979	13.402	931.088	702.270
169.994	13.496	930.335	702.036
171.008	13.489	930.318	701.933
172.023	13.591	929.001	701.307
173.037	13.728	928.317	701.308
174.052	13.560	927.170	699.674
175.067	13.462	927.317	699.305
176.081	13.593	926.444	699.140
177.096	13.515	925.698	698.185
178.110	13.603	925.118	698.056
179.125	13.624	924.413	697.552
180.140	13.543	924.100	696.914
181.154	13.652	923.252	696.671
182.169	13.632	923.468	696.689
183.183	13.837	922.304	696.610
184.198	13.785	921.826	695.969
185.213	13.798	920.789	695.177
186.227	13.758	920.310	694.588
187.242	13.843	919.575	694.328
188.256	13.939	918.735	694.031
189.271	13.917	917.832	693.196
190.286	13.682	917.378	691.813
191.300	13.659	916.720	691.158
192.315	13.730	915.733	690.650
193.329	13.740	915.258	690.270
194.344	13.647	914.709	689.411
195.359	13.619	914.438	689.028
196.373	13.822	913.871	689.384
197.388	13.991	912.838	689.242
198.402	13.931	912.898	688.979
199.417	13.908	912.229	688.316
200.432	14.030	911.606	688.293
201.446	14.015	911.005	687.715
202.461	14.059	910.599	687.530
203.475	14.073	910.036	687.102
204.490	14.069	909.552	686.657
205.504	13.943	908.901	685.585
206.519	13.980	907.502	684.621
207.534	14.057	906.933	684.452
208.548	14.083	906.142	683.901
209.563	14.127	905.842	683.793
210.577	14.198	905.473	683.745
211.592	14.164	904.586	682.877
212.607	14.370	903.228	682.635
213.621	14.062	903.147	681.249
214.636	14.217	902.472	681.319
215.650	14.172	901.915	680.651
216.665	14.319	900.765	680.323
217.680	14.282	900.428	679.860
218.694	14.286	899.821	679.356
219.709	14.255	899.058	678.593
220.723	14.323	898.251	678.200
221.738	14.193	897.836	677.301
222.753	14.241	897.603	677.261
223.767	14.313	896.602	676.737
224.782	14.320	896.372	676.530
225.796	14.368	895.809	676.241
226.811	14.431	894.852	675.714
227.826	14.261	894.498	674.699
228.840	14.241	893.828	674.053
229.855	14.424	892.533	673.755
230.869	14.358	891.694	672.796
231.884	14.412	890.919	672.371
232.899	14.361	890.335	671.665
233.913	14.306	889.890	671.047
234.928	14.366	889.611	671.019
235.942	14.325	888.434	669.908
236.957	14.462	888.162	670.195
237.972	14.303	887.620	669.088
238.986	14.283	886.962	668.452
240.001	14.362	886.364	668.260
241.015	14.347	885.896	667.786
242.030	14.339	885.280	667.231
243.045	14.495	884.498	667.208
244.059	14.535	883.507	666.561
245.074	14.572	883.436	666.595
246.088	14.420	882.973	665.581
247.103	14.595	882.094	665.558
248.117	14.527	881.730	664.952
249.132	14.619	881.559	665.129
250.147	14.793	880.200	664.738
251.161	14.866	879.551	664.479
252.176	14.779	879.271	663.866
253.190	14.908	878.189	663.500
254.205	14.902	878.057	663.317
255.220	14.929	877.208	662.723
256.234	14.857	876.579	661.908
257.249	14.950	875.562	661.449
258.263	14.806	875.021	660.409
259.278	14.943	874.319	660.364
260.293	14.811	874.129	659.639
261.307	14.960	873.283	659.530
262.322	15.016	872.623	659.196
263.336	15.017	871.635	658.394
264.351	15.165	870.756	658.254
265.366	15.058	870.625	657.676
266.380	15.173	870.097	657.670
267.395	15.259	868.883	657.031
268.409	15.125	868.375	656.063
269.424	14.987	867.948	655.144
270.439	15.136	867.024	654.970
271.453	15.030	866.510	654.112
272.468	15.050	866.285	653.963
273.482	15.082	865.568	653.485
274.497	15.094	864.725	652.840
275.512	15.169	864.323	652.771
276.526	15.089	864.056	652.198
277.541	15.176	863.590	652.127
278.555	15.282	862.375	651.567
279.570	15.125	862.159	650.736
280.585	15.244	861.696	650.790
281.599	15.289	860.354	649.893
282.614	15.081	860.032	648.786
283.628	15.206	859.585	648.874
284.643	15.247	859.079	648.595
285.657	15.329	858.272	648.244
286.672	15.384	857.590	647.884
287.687	15.442	856.842	647.487
288.701	15.451	856.416	647.143
289.716	15.495	855.931	646.890
290.730	15.305	855.499	645.771
291.745	15.441	854.393	645.402
292.760	15.495	854.063	645.306
293.774	15.562	853.479	645.062
294.789	15.402	853.090	644.097
295.803	15.394	852.437	643.519
296.818	15.394	851.796	642.975
297.833	15.545	850.750	642.708
298.847	15.639	849.996	642.441
299.862	15.442	849.985	641.624
300.876	15.458	849.372	641.166
301.891	15.592	848.837	641.214
302.906	15.687	848.215	641.050
303.920	15.805	847.558	640.946
304.935	15.656	847.143	640.009
305.949	15.569	846.426	639.079
306.964	15.794	845.500	639.178
307.979	15.618	845.375	638.361
308.993	15.803	844.649	638.458
310.008	15.815	844.050	637.992
311.022	15.763	843.628	637.419
312.037	15.707	842.789	636.517
313.052	15.677	842.310	635.989
314.066	15.760	841.511	635.641
315.081	15.641	841.350	635.016
316.095	15.844	840.343	634.963
317.110	15.790	839.841	634.323
318.125	15.764	839.361	633.807
319.139	15.761	839.392	633.765
320.154	15.750	838.908	633.302
321.168	15.864	837.663	632.732
322.183	15.880	837.273	632.443
323.197	15.821	837.260	632.157
324.212	15.859	836.786	631.885
325.227	15.803	836.298	631.249
326.241	15.748	835.923	630.705
327.256	15.713	834.958	629.788
328.270	15.729	834.469	629.424
329.285	15.817	833.943	629.300
330.300	15.789	833.582	628.871
331.314	15.834	832.800	628.390
332.329	15.883	832.561	628.339
333.343	16.006	831.703	628.093
334.358	15.929	831.383	627.511
335.373	16.100	830.824	627.670
336.387	16.047	830.876	627.454
337.402	16.056	830.581	627.211
338.416	16.031	830.520	627.015
339.431	16.214	829.571	626.924
340.446	16.163	829.233	626.425
341.460	16.203	828.909	626.273
342.475	16.167	828.754	625.964
343.489	16.221	828.222	625.709
344.504	16.238	827.384	625.085
345.519	16.300	827.028	624.989
346.533	16.287	826.460	624.456
347.548	16.239	826.196	624.025
348.562	16.186	825.471	623.227
349.577	16.228	824.686	622.730
350.592	16.325	824.238	622.696
351.606	16.296	823.680	622.115
352.621	16.247	823.260	621.561
353.635	16.179	822.567	620.731
354.650	16.188	821.948	620.241
355.665	16.434	821.080	620.435
356.679	16.342	820.410	619.538
357.694	16.451	819.752	619.385
358.708	16.299	819.434	618.534
359.723	16.424	818.772	618.437
360.738	16.463	818.077	617.999
361.752	16.579	817.332	617.808
362.767	16.493	816.710	616.965
363.781	16.572	816.524	617.059
364.796	16.608	816.124	616.834
365.810	16.499	815.963	616.260
366.825	16.681	815.435	616.473
367.840	16.698	814.899	616.074
368.854	16.656	814.455	615.528
369.869	16.746	813.678	615.216
370.883	16.738	813.385	614.909
371.898	16.751	813.146	614.723
372.913	16.759	812.761	614.406
373.927	16.733	812.155	613.800
374.942	16.731	812.185	613.761
375.956	16.812	811.509	613.490
376.971	16.820	811.231	613.255
377.986	17.033	810.608	613.496
379.000	16.891	810.171	612.599
380.015	16.827	809.613	611.893
381.029	16.735	809.186	611.181
382.044	16.799	808.574	610.896
383.059	16.832	807.958	610.497
384.073	16.907	807.228	610.162
385.088	16.894	806.725	609.680
386.102	16.772	806.239	608.819
387.117	16.869	805.961	608.906
388.132	16.967	805.097	608.550
389.146	16.942	804.466	607.932
390.161	17.016	803.674	607.543
391.175	17.012	803.522	607.360
392.190	17.064	802.811	606.953
393.205	16.875	802.773	606.195
394.219	17.000	802.332	606.255
395.234	16.974	802.092	605.930
396.248	16.919	801.260	605.050
397.263	17.115	800.879	605.407
398.278	16.867	800.843	604.444
399.292	16.871	800.525	604.163
400.307	16.987	799.852	604.016
401.321	16.959	799.154	603.336
402.336	17.015	798.771	603.193
403.350	17.048	798.533	603.074
404.365	17.083	797.795	602.589
405.380	17.148	797.487	602.532
406.394	17.158	796.715	601.933
407.409	17.243	796.372	601.922
408.423	17.363	796.142	602.120
409.438	17.224	795.864	601.364
410.453	17.310	795.507	601.346
411.467	17.343	795.120	601.117
412.482	17.389	794.727	600.927
413.496	17.332	794.454	600.468
414.511	17.408	794.125	600.435
415.526	17.480	793.643	600.270
416.540	17.556	792.960	599.969
417.555	17.423	792.425	599.040
418.569	17.438	792.126	598.817
419.584	17.352	791.622	598.080
420.599	17.530	791.233	598.359
421.613	107.400	1286.737	1456.102
422.628	92.153	1358.918	1456.199
