DTS Sentinel unit serial number:	SN413079Multiplexer serial number:	ORYXHardware model number:	OX4-SRSoftware version number:	ORYX F/W v4.00 Oryx Data Collector v3.7.2.0data status	okinstallation	princeton_trtdifferential loss correction	single-endedforward channel	channel 1reverse channel	N/Adate	2019/09/16time	00:34:35forward acquisition time	60.00reverse acquisition time	0.00gamma	496.2192k internal	0.2334k external	0.2334temperature offset calibration	0.9971default loss term (dB/km)	0.3790temperature slope calibration	1.0000multiplexer offset coefficient	1.0000multiplexer slope coefficient	1.0000fibre end	0.00T internal ref (°C)	27.53T ext. ref 1 (°C)	9.58T ext. ref 2 (°C)	21.62length (m)	temperature (°C)	Stokes	anti-Stokes-747.200	800.000	-0.037	0.124
-746.185	145.024	-0.229	0.308
-745.171	-107.719	-0.435	0.096
-744.156	78.521	0.143	0.154
-743.142	-70.373	0.236	0.090
-742.127	-12.241	-0.460	-0.302
-741.112	-8.906	-0.066	0.044
-740.098	800.000	0.087	0.265
-739.083	314.591	-0.201	0.380
-738.069	28.490	-0.073	0.062
-737.054	-200.000	0.028	-0.459
-736.039	800.000	-0.055	-0.173
-735.025	162.609	0.265	-0.374
-734.010	4.559	0.158	-0.116
-732.996	167.366	-0.149	0.212
-731.981	70.940	-0.170	-0.177
-730.966	661.661	-0.051	-0.132
-729.952	-200.000	0.001	-0.282
-728.937	753.150	-0.110	-0.298
-727.923	-72.555	0.029	-0.011
-726.908	800.000	0.124	-0.441
-725.894	89.774	0.105	0.117
-724.879	40.686	0.088	0.080
-723.864	-200.000	-0.002	-0.099
-722.850	800.000	0.004	0.014
-721.835	-100.404	-0.098	0.024
-720.821	24.709	-0.062	0.051
-719.806	-9.006	0.197	-0.132
-718.791	102.591	-0.150	0.176
-717.777	66.701	-0.079	-0.081
-716.762	55.214	-0.203	-0.197
-715.748	586.719	0.031	0.076
-714.733	3.359	0.346	0.253
-713.718	86.021	0.037	0.041
-712.704	217.243	0.025	-0.040
-711.689	85.578	-0.133	0.147
-710.675	800.000	0.014	0.061
-709.660	24.133	0.124	0.103
-708.645	95.668	0.164	-0.187
-707.631	11.241	0.062	-0.047
-706.616	-126.673	-0.122	0.018
-705.602	-200.000	0.023	0.165
-704.587	92.606	-0.095	0.108
-703.572	47.871	0.252	0.236
-702.558	205.094	0.181	-0.282
-701.543	-51.737	0.155	0.072
-700.529	-200.000	-0.013	-0.135
-699.514	2.794	0.092	-0.067
-698.499	-132.512	-0.215	0.028
-697.485	-200.000	0.001	-0.011
-696.470	-200.000	0.013	-0.111
-695.456	64.080	-0.186	-0.187
-694.441	12.546	-0.172	0.133
-693.426	-200.000	0.024	0.205
-692.412	-93.697	-0.158	-0.044
-691.397	624.109	-0.119	0.301
-690.383	-200.000	0.017	-0.165
-689.368	13.652	-0.137	-0.107
-688.354	-94.196	0.168	0.046
-687.339	-149.293	-0.119	-0.010
-686.324	627.389	-0.116	-0.294
-685.310	365.814	-0.047	0.096
-684.295	-83.741	-0.078	-0.025
-683.281	152.312	-0.171	0.235
-682.266	800.000	0.063	-0.252
-681.251	-178.362	-0.139	0.003
-680.237	-200.000	-0.026	0.124
-679.222	-25.932	0.051	-0.030
-678.208	341.314	-0.051	0.100
-677.193	800.000	0.078	0.255
-676.178	708.517	0.052	0.137
-675.164	232.146	-0.095	0.156
-674.149	38.022	0.103	0.092
-673.135	-157.529	-0.161	-0.010
-672.120	-118.749	-0.075	0.013
-671.105	-7.448	0.325	-0.220
-670.091	299.968	-0.056	0.103
-669.076	151.096	-0.095	0.129
-668.062	1.880	-0.123	-0.089
-667.047	574.068	0.103	-0.251
-666.032	800.000	0.091	-0.357
-665.018	-153.486	-0.097	-0.007
-664.003	413.830	0.078	-0.166
-662.989	296.323	0.190	-0.349
-661.974	-200.000	-0.073	0.425
-660.959	111.400	0.282	0.340
-659.945	-2.232	-0.286	-0.201
-658.930	-121.321	0.108	0.018
-657.916	-29.178	-0.122	-0.070
-656.901	-200.000	0.027	0.167
-655.886	-71.027	0.154	-0.058
-654.872	30.739	0.236	0.202
-653.857	-172.859	0.029	-0.001
-652.843	800.000	0.041	0.175
-651.828	307.046	-0.051	0.095
-650.814	-56.450	-0.144	0.064
-649.799	-109.674	-0.027	-0.006
-648.784	55.773	0.123	-0.119
-647.770	-200.000	0.064	-0.473
-646.755	800.000	0.018	-0.059
-645.741	-72.411	0.076	0.028
-644.726	142.829	-0.071	0.094
-643.711	158.975	-0.200	-0.278
-642.697	-149.646	0.213	0.017
-641.682	-200.000	-0.021	0.121
-640.668	800.000	0.058	0.208
-639.653	-67.590	-0.148	0.058
-638.638	99.430	-0.294	0.340
-637.624	315.514	0.116	0.220
-636.609	225.579	-0.196	-0.318
-635.595	20.755	-0.099	-0.080
-634.580	-151.826	0.194	0.014
-633.565	-200.000	-0.009	0.065
-632.551	-200.000	-0.092	-0.534
-631.536	203.639	-0.144	-0.222
-630.522	-30.099	-0.039	0.022
-629.507	380.999	-0.070	-0.143
-628.492	-48.264	0.531	-0.256
-627.478	507.646	-0.093	0.215
-626.463	533.271	0.023	-0.054
-625.449	-20.745	0.222	-0.136
-624.434	431.201	0.151	0.328
-623.419	-200.000	-0.030	-0.152
-622.405	-200.000	-0.023	0.116
-621.390	192.696	0.084	0.127
-620.376	262.894	-0.130	0.226
-619.361	648.452	-0.147	-0.377
-618.346	-144.338	0.144	-0.013
-617.332	-150.502	0.050	0.004
-616.317	98.349	-0.140	0.161
-615.303	-110.290	0.135	-0.028
-614.288	774.667	-0.030	-0.082
-613.273	40.777	-0.086	-0.078
-612.259	-80.812	-0.387	-0.128
-611.244	-12.796	0.165	-0.108
-610.230	-200.000	0.015	0.576
-609.215	-200.000	-0.004	-0.054
-608.201	88.143	0.112	0.124
-607.186	204.367	0.118	-0.183
-606.171	96.568	0.179	0.205
-605.157	-200.000	-0.320	-0.001
-604.142	179.871	-0.096	-0.141
-603.128	-17.498	0.080	-0.050
-602.113	687.452	-0.172	-0.450
-601.098	366.001	0.060	0.121
-600.084	78.649	-0.233	-0.249
-599.069	800.000	0.003	-0.011
-598.055	-200.000	-0.049	0.332
-597.040	800.000	-0.128	0.363
-596.025	800.000	0.063	0.258
-595.011	-200.000	0.003	-0.236
-593.996	123.092	0.331	-0.414
-592.982	539.616	0.039	-0.094
-591.967	-200.000	-0.046	0.344
-590.952	800.000	0.039	-0.155
-589.938	-200.000	-0.054	-0.350
-588.923	202.447	-0.198	-0.305
-587.909	99.892	0.159	-0.184
-586.894	-33.080	-0.233	-0.129
-585.879	427.047	0.171	-0.369
-584.865	704.301	0.069	-0.181
-583.850	-30.956	-0.190	0.107
-582.836	137.569	-0.182	0.238
-581.821	225.626	-0.179	-0.290
-580.806	-200.000	0.017	0.149
-579.792	-123.381	-0.041	0.007
-578.777	120.337	-0.194	-0.240
-577.763	665.412	0.105	-0.270
-576.748	-23.437	0.141	0.084
-575.733	-166.415	0.064	-0.003
-574.719	-200.000	0.004	-0.119
-573.704	335.511	0.134	0.260
-572.690	66.976	0.140	-0.142
-571.675	-75.760	0.195	-0.069
-570.661	125.892	-0.045	-0.057
-569.646	224.969	-0.095	0.153
-568.631	-200.000	-0.012	0.314
-567.617	800.000	0.031	-0.099
-566.602	-0.153	0.111	0.079
-565.588	-200.000	-0.032	-0.145
-564.573	35.499	0.245	-0.214
-563.558	800.000	-0.024	0.097
-562.544	-91.588	0.319	-0.091
-561.529	-55.613	0.066	-0.029
-560.515	265.372	-0.071	0.124
-559.500	-138.642	0.211	0.023
-558.485	90.648	0.203	0.227
-557.471	-131.525	-0.075	-0.010
-556.456	600.893	0.148	-0.367
-555.442	108.812	-0.114	0.137
-554.427	-120.804	-0.243	0.041
-553.412	800.000	0.054	-0.223
-552.398	-126.718	0.023	-0.003
-551.383	276.688	-0.099	0.175
-550.369	-14.188	-0.321	0.207
-549.354	558.915	0.111	0.267
-548.339	247.789	0.126	-0.213
-547.325	200.148	0.222	-0.341
-546.310	-64.601	-0.113	0.046
-545.296	-163.748	0.206	0.010
-544.281	-200.000	-0.022	0.282
-543.266	-98.854	-0.063	0.016
-542.252	-47.799	-0.327	0.158
-541.237	186.590	0.202	0.300
-540.223	-200.000	0.010	-0.140
-539.208	-200.000	0.007	0.066
-538.193	19.367	0.094	-0.075
-537.179	213.619	0.223	-0.352
-536.164	-17.024	-0.198	0.125
-535.150	-148.131	-0.141	-0.012
-534.135	-136.224	-0.204	0.024
-533.121	-35.212	0.262	0.142
-532.106	313.167	0.036	-0.068
-531.091	246.862	0.190	0.320
-530.077	-80.862	-0.304	-0.101
-529.062	-200.000	-0.049	0.254
-528.048	50.633	-0.141	0.133
-527.033	-200.000	0.039	0.205
-526.018	200.926	0.097	-0.148
-525.004	-95.948	-0.267	0.071
-523.989	-200.000	-0.014	-0.223
-522.975	-65.142	0.108	-0.044
-521.960	-176.285	0.086	-0.002
-520.945	174.569	-0.140	0.202
-519.931	-25.657	0.262	-0.154
-518.916	-190.325	0.407	0.004
-517.902	-137.166	-0.331	-0.038
-516.887	36.327	-0.316	0.277
-515.872	-200.000	0.002	0.164
-514.858	-105.667	-0.188	0.042
-513.843	-200.000	-0.074	0.393
-512.829	800.000	-0.063	0.207
-511.814	-180.687	0.146	-0.003
-510.799	-200.000	0.008	-0.257
-509.785	-107.582	-0.179	-0.039
-508.770	-200.000	0.016	0.094
-507.756	-200.000	0.004	-0.124
-506.741	318.401	0.055	0.103
-505.726	37.980	-0.044	0.039
-504.712	-200.000	-0.045	-0.264
-503.697	-173.813	-0.226	-0.007
-502.683	-129.272	0.316	-0.044
-501.668	-200.000	0.038	0.171
-500.653	88.626	-0.183	-0.203
-499.639	57.473	-0.060	0.058
-498.624	14.177	0.144	0.112
-497.610	-52.863	0.140	-0.064
-496.595	-119.819	0.306	-0.052
-495.581	25.667	-0.354	0.293
-494.566	-7.839	-0.229	0.154
-493.551	-200.000	0.082	-0.390
-492.537	79.142	0.116	-0.124
-491.522	-200.000	0.000	-0.142
-490.508	-17.356	0.185	-0.116
-489.493	800.000	0.093	-0.347
-488.478	-9.205	0.263	0.175
-487.464	-83.513	-0.297	-0.094
-486.449	-164.807	0.037	-0.002
-485.435	531.550	-0.057	-0.135
-484.420	155.078	0.062	0.085
-483.405	62.321	-0.371	0.369
-482.391	-200.000	0.025	-0.121
-481.376	166.833	0.072	0.101
-480.362	-200.000	-0.020	0.242
-479.347	391.394	-0.079	0.163
-478.332	-39.787	-0.208	-0.108
-477.318	768.668	0.073	-0.197
-476.303	40.862	-0.188	0.169
-475.289	800.000	0.055	-0.231
-474.274	800.000	-0.012	-0.049
-473.259	162.809	-0.208	-0.291
-472.245	-156.547	-0.200	-0.012
-471.230	54.858	0.089	-0.085
-470.216	-67.413	-0.359	0.140
-469.201	800.000	0.092	0.356
-468.186	70.027	0.038	-0.039
-467.172	92.971	-0.105	-0.118
-466.157	-25.097	0.180	0.106
-465.143	33.236	0.096	0.083
-464.128	-13.191	-0.109	-0.070
-463.113	-200.000	-0.016	-0.095
-462.099	113.444	-0.194	0.234
-461.084	573.658	0.027	0.066
-460.070	-58.941	-0.192	0.082
-459.055	-102.421	0.268	0.064
-458.040	800.000	-0.049	-0.162
-457.026	70.080	0.172	0.177
-456.011	-200.000	0.002	0.015
-454.997	36.626	-0.182	0.160
-453.982	-35.141	-0.081	0.044
-452.968	129.388	0.052	-0.067
-451.953	197.132	0.111	0.168
-450.938	-24.324	-0.194	0.115
-449.924	-11.570	0.144	-0.094
-448.909	475.404	0.121	0.271
-447.895	-35.399	-0.093	0.050
-446.880	473.438	0.042	-0.093
-445.865	100.604	0.048	0.055
-444.851	-200.000	0.029	0.169
-443.836	800.000	-0.026	0.105
-442.822	108.853	-0.271	0.322
-441.807	-85.010	-0.079	0.024
-440.792	-29.493	0.124	-0.070
-439.778	746.828	-0.079	0.210
-438.763	-110.555	0.057	0.012
-437.749	81.249	-0.076	-0.082
-436.734	-200.000	0.104	-0.524
-435.719	-138.649	0.100	0.011
-434.705	-200.000	0.040	-0.270
-433.690	-200.000	0.022	0.320
-432.676	-123.355	-0.151	0.024
-431.661	12.801	0.245	-0.188
-430.646	-71.306	-0.257	-0.096
-429.632	114.998	0.206	-0.249
-428.617	-33.497	0.159	0.087
-427.603	-7.072	-0.181	-0.122
-426.588	-126.416	0.375	0.055
-425.573	-200.000	-0.048	-0.278
-424.559	534.789	-0.165	0.389
-423.544	-137.728	0.032	0.004
-422.530	-96.337	-0.163	0.043
-421.515	-108.026	0.334	0.072
-420.500	608.967	0.013	0.032
-419.486	-58.920	0.150	-0.064
-418.471	7.835	0.198	0.147
-417.457	-66.255	-0.397	0.157
-416.442	25.556	0.149	0.123
-415.428	-2.744	0.207	0.144
-414.413	800.000	0.098	-0.277
-413.398	-63.002	0.199	-0.082
-412.384	-200.000	0.037	0.191
-411.369	-71.407	0.248	-0.092
-410.355	357.470	-0.029	0.057
-409.340	41.819	-0.179	-0.161
-408.325	6.448	0.048	0.035
-407.311	-59.073	-0.192	-0.082
-406.296	589.702	0.094	-0.229
-405.282	85.179	-0.093	0.101
-404.267	133.284	-0.073	0.094
-403.252	-135.201	-0.150	-0.018
-402.238	-147.466	0.379	-0.032
-401.223	-137.863	0.232	-0.026
-400.209	-29.513	-0.033	0.019
-399.194	221.334	0.070	-0.111
-398.179	-200.000	-0.019	0.338
-397.165	-151.218	0.148	-0.011
-396.150	800.000	0.039	-0.117
-395.136	109.200	0.259	-0.307
-394.121	174.912	0.039	-0.056
-393.106	800.000	0.103	-0.373
-392.092	-55.041	-0.186	-0.083
-391.077	264.756	0.015	-0.026
-390.063	72.794	0.068	0.071
-389.048	-200.000	-0.066	-0.648
-388.033	800.000	-0.048	0.156
-387.019	520.192	-0.189	0.438
-386.004	-200.000	-0.007	0.098
-384.990	183.929	0.121	0.177
-383.975	32.179	0.093	-0.080
-382.960	295.626	-0.107	0.194
-381.946	-200.000	-0.047	0.286
-380.931	-159.087	-0.273	-0.015
-379.917	99.823	0.298	0.342
-378.902	-60.618	-0.127	-0.053
-377.888	800.000	0.045	0.162
-376.873	800.000	-0.114	0.434
-375.858	-200.000	-0.004	-0.065
-374.844	-128.511	-0.142	-0.020
-373.829	138.461	0.013	0.017
-372.815	-125.910	0.083	0.012
-371.800	-82.227	0.320	-0.103
-370.785	-200.000	0.077	0.344
-369.771	23.938	0.172	0.140
-368.756	-83.339	-0.334	0.106
-367.742	70.565	0.140	-0.144
-366.727	-109.970	0.089	0.018
-365.712	20.538	0.152	-0.122
-364.698	-87.175	0.313	-0.094
-363.683	-85.461	-0.062	-0.019
-362.669	110.326	-0.094	0.112
-361.654	-200.000	-0.022	-0.152
-360.639	-131.138	-0.183	0.024
-359.625	-200.000	-0.027	0.179
-358.610	-105.622	0.133	-0.030
-357.596	-112.354	-0.148	0.029
-356.581	800.000	0.140	0.403
-355.566	800.000	-0.126	0.386
-354.552	-100.857	0.453	0.110
-353.537	-99.384	0.141	0.035
-352.523	-37.184	0.193	-0.102
-351.508	800.000	0.078	-0.300
-350.493	-71.084	-0.023	0.009
-349.479	92.764	-0.163	-0.182
-348.464	-23.342	-0.077	-0.046
-347.450	19.560	0.196	-0.156
-346.435	34.725	0.080	-0.069
-345.420	-119.065	0.275	-0.048
-344.406	635.989	-0.095	-0.238
-343.391	-40.032	0.107	-0.055
-342.377	-46.398	-0.166	-0.081
-341.362	-135.951	-0.329	-0.038
-340.348	-149.019	-0.256	-0.020
-339.333	-81.646	-0.221	0.072
-338.318	-22.503	-0.506	0.303
-337.304	-200.000	0.017	-0.236
-336.289	-200.000	0.012	0.154
-335.275	237.884	-0.061	0.100
-334.260	-157.596	0.266	0.016
-333.245	800.000	-0.039	-0.110
-332.231	176.479	0.154	-0.222
-331.216	-10.424	0.217	-0.142
-330.202	800.000	0.046	-0.150
-329.187	798.094	-0.124	0.339
-328.172	-23.069	-0.217	0.130
-327.158	-89.047	-0.313	0.092
-326.143	-84.063	0.326	0.102
-325.129	56.168	-0.119	-0.115
-324.114	32.823	0.343	0.293
-323.099	-71.101	-0.203	-0.075
-322.085	-200.000	0.013	-0.246
-321.070	166.498	0.210	-0.295
-320.056	800.000	0.074	0.217
-319.041	133.469	-0.089	-0.114
-318.026	-53.689	0.339	-0.153
-317.012	48.813	0.119	-0.110
-315.997	600.854	-0.155	-0.382
-314.983	800.000	-0.072	0.245
-313.968	-28.943	-0.306	-0.174
-312.953	-200.000	0.051	0.260
-311.939	-9.789	-0.380	0.250
-310.924	800.000	-0.026	0.102
-309.910	-182.649	-0.306	-0.006
-308.895	-141.003	0.497	0.050
-307.880	-59.692	-0.065	0.027
-306.866	800.000	-0.059	0.163
-305.851	-200.000	0.012	0.064
-304.837	247.057	0.149	-0.249
-303.822	-120.246	0.125	0.021
-302.807	-40.797	-0.219	-0.112
-301.793	-103.196	0.117	-0.027
-300.778	90.593	-0.133	-0.147
-299.764	-139.610	0.292	0.031
-298.749	-200.000	-0.017	-0.128
-297.735	-200.000	-0.061	-0.643
-296.720	-13.495	0.388	0.249
-295.705	111.372	0.121	-0.144
-294.691	-5.260	-0.171	0.116
-293.676	-6.320	0.207	0.139
-292.662	-187.344	0.468	-0.006
-291.647	-200.000	-0.007	0.188
-290.632	-12.384	-0.067	-0.043
-289.618	311.793	0.083	0.154
-288.603	183.333	0.177	-0.258
-287.589	143.432	-0.074	-0.097
-286.574	800.000	-0.089	-0.295
-285.559	-128.760	0.263	-0.037
-284.545	-19.169	-0.120	-0.074
-283.530	-137.647	0.209	-0.023
-282.516	-143.287	0.074	0.007
-281.501	800.000	-0.091	0.392
-280.486	404.857	-0.026	-0.054
-279.472	-104.588	-0.432	0.098
-278.457	101.034	0.076	0.088
-277.443	62.685	0.127	-0.125
-276.428	800.000	-0.032	0.122
-275.413	253.952	-0.154	-0.260
-274.399	800.000	0.120	-0.354
-273.384	-89.603	-0.023	0.007
-272.370	-109.757	-0.180	-0.037
-271.355	81.924	-0.230	0.245
-270.340	-3.024	0.360	0.248
-269.326	-108.287	-0.192	-0.041
-268.311	676.807	-0.013	0.032
-267.297	101.767	0.063	0.072
-266.282	-97.207	0.285	0.073
-265.267	-142.326	0.245	0.024
-264.253	-66.663	-0.481	-0.188
-263.238	-173.794	-0.355	0.010
-262.224	-59.779	0.166	-0.070
-261.209	64.841	-0.056	0.056
-260.195	-2.606	-0.163	-0.113
-259.180	-36.521	-0.161	-0.085
-258.165	401.928	-0.037	-0.077
-257.151	-153.944	-0.117	-0.008
-256.136	800.000	-0.064	0.275
-255.122	-200.000	0.052	0.241
-254.107	234.476	-0.138	-0.225
-253.092	-83.158	0.309	-0.098
-252.078	51.788	-0.127	-0.119
-251.063	102.580	0.082	0.094
-250.049	-38.284	0.197	0.103
-249.034	565.219	0.090	0.215
-248.019	41.544	0.196	0.175
-247.005	411.256	0.094	0.197
-245.990	43.458	-0.146	0.131
-244.976	-19.326	-0.148	-0.090
-243.961	42.951	-0.221	-0.199
-242.946	113.926	-0.181	0.217
-241.932	-82.283	0.249	-0.080
-240.917	622.675	-0.065	0.162
-239.903	52.864	-0.093	0.088
-238.888	194.356	0.084	-0.126
-237.873	-49.462	0.076	-0.036
-236.859	-37.540	-0.226	-0.119
-235.844	-23.104	-0.270	-0.160
-234.830	-33.303	-0.055	-0.030
-233.815	425.945	0.058	0.123
-232.800	-144.528	-0.217	-0.020
-231.786	359.283	-0.083	0.164
-230.771	63.870	-0.040	0.040
-229.757	-200.000	0.025	-0.259
-228.742	-200.000	-0.020	-0.091
-227.727	-1.460	-0.273	-0.189
-226.713	351.115	0.069	-0.135
-225.698	-134.667	0.281	0.034
-224.684	-200.000	0.060	-0.431
-223.669	155.968	-0.148	-0.201
-222.655	-149.212	0.170	-0.013
-221.640	146.740	-0.238	0.315
-220.625	114.259	-0.217	-0.260
-219.611	78.881	0.094	0.099
-218.596	-129.532	-0.210	0.029
-217.582	-24.524	0.221	0.130
-216.567	-145.438	0.242	-0.021
-215.552	-72.872	-0.150	-0.054
-214.538	-157.106	-0.189	-0.011
-213.523	-71.057	-0.303	-0.112
-212.509	128.743	-0.210	-0.264
-211.494	-14.362	-0.147	0.093
-210.479	-132.311	-0.367	-0.047
-209.465	-105.574	0.179	0.040
-208.450	-145.444	0.245	0.022
-207.436	800.000	0.021	0.077
-206.421	204.430	-0.091	-0.139
-205.406	-62.649	0.483	0.197
-204.392	800.000	-0.049	-0.186
-203.377	-165.963	0.293	0.012
-202.363	-200.000	-0.000	-0.104
-201.348	-7.508	-0.183	0.122
-200.333	-94.710	-0.213	-0.057
-199.319	27.427	-0.280	0.232
-198.304	-85.639	0.480	0.147
-197.290	72.432	-0.058	0.059
-196.275	-200.000	-0.027	0.144
-195.260	118.420	0.084	-0.102
-194.246	19.380	-0.264	-0.209
-193.231	-112.396	-0.566	0.111
-192.217	4.612	0.266	0.192
-191.202	380.601	-0.085	-0.171
-190.187	-91.615	0.214	0.060
-189.173	-200.000	-0.009	0.159
-188.158	-200.000	-0.026	-0.121
-187.144	-140.878	0.186	0.019
-186.129	-182.336	0.219	0.004
-185.114	-168.864	0.141	-0.005
-184.100	15.448	-0.114	-0.088
-183.085	277.917	-0.166	0.290
-182.071	122.383	-0.027	0.033
-181.056	89.717	0.198	0.217
-180.042	-173.418	0.185	-0.006
-179.027	-94.722	-0.204	-0.054
-178.012	800.000	0.061	-0.173
-176.998	9.736	-0.253	0.188
-175.983	-119.465	-0.070	-0.012
-174.969	-20.445	0.146	0.088
-173.954	-200.000	0.031	-0.161
-172.939	-52.047	0.234	-0.107
-171.925	-20.967	-0.041	0.025
-170.910	800.000	-0.072	-0.254
-169.896	1.169	0.071	-0.050
-168.881	547.566	0.089	0.209
-167.866	-113.492	-0.205	0.039
-166.852	800.000	0.080	0.239
-165.837	96.888	-0.086	0.097
-164.823	35.143	-0.245	-0.211
-163.808	-38.411	-0.454	-0.236
-162.793	-50.491	0.255	0.118
-161.779	-27.733	-0.153	-0.087
-160.764	-110.012	0.252	-0.052
-159.750	46.403	0.054	0.049
-158.735	-84.959	0.222	0.068
-157.720	8.531	0.096	-0.071
-156.706	422.810	-0.041	0.086
-155.691	-97.762	-0.230	-0.059
-154.677	-200.000	0.024	0.278
-153.662	135.089	0.108	0.138
-152.647	-99.561	0.302	0.074
-151.633	-98.039	-0.221	-0.056
-150.618	-49.829	0.040	0.019
-149.604	60.626	-0.207	0.201
-148.589	525.126	0.123	-0.284
-147.574	189.429	-0.063	0.093
-146.560	297.167	0.169	0.305
-145.545	178.597	0.101	0.145
-144.531	-200.000	-0.004	-0.044
-143.516	-139.470	-0.229	0.024
-142.502	-200.000	-0.029	0.142
-141.487	-177.403	0.401	-0.010
-140.472	-200.000	-0.065	-0.339
-139.458	-97.047	0.070	0.018
-138.443	-13.325	0.129	0.082
-137.429	93.477	0.048	-0.053
-136.414	146.379	-0.198	0.261
-135.399	-30.442	-0.225	-0.125
-134.385	-200.000	0.038	0.293
-133.370	-6.880	0.074	-0.049
-132.356	800.000	-0.032	-0.097
-131.341	108.139	-0.061	-0.071
-130.326	-200.000	-0.013	0.336
-129.312	316.420	-0.099	0.184
-128.297	-104.567	0.235	0.053
-127.283	-140.827	-0.385	-0.039
-126.268	-37.018	-0.208	0.109
-125.253	-105.083	-0.268	-0.060
-124.239	-26.810	-0.114	0.066
-123.224	497.191	0.010	0.022
-122.210	12.757	-0.268	0.203
-121.195	62.107	0.105	-0.102
-120.180	17.260	-0.200	-0.156
-119.166	106.975	0.174	-0.203
-118.151	199.319	0.088	-0.132
-117.137	56.185	0.288	-0.275
-116.122	7.858	0.228	0.167
-115.107	322.491	0.072	-0.134
-114.093	48.536	0.234	-0.215
-113.078	125.019	-0.299	-0.369
-112.064	-44.098	-0.184	0.091
-111.049	-76.307	0.178	0.061
-110.034	358.463	0.217	0.425
-109.020	-4.058	0.069	0.047
-108.005	-200.000	-0.084	-0.549
-106.991	288.535	0.043	-0.076
-105.976	-48.199	-0.050	0.024
-104.962	-200.000	-0.023	-0.208
-103.947	-15.825	-0.339	0.212
-102.932	-22.154	-0.218	-0.129
-101.918	290.343	-0.077	-0.137
-100.903	-139.977	0.166	0.017
-99.889	251.340	0.163	-0.271
-98.874	-84.451	-0.108	0.034
-97.859	254.510	0.055	0.092
-96.845	112.873	-0.167	-0.198
-95.830	-200.000	0.014	0.158
-94.816	-101.666	0.066	0.016
-93.801	38.455	-0.127	-0.111
-92.786	-62.919	-0.087	-0.035
-91.772	52.870	-0.252	-0.237
-90.757	800.000	-0.069	-0.281
-89.743	-43.356	-0.256	0.127
-88.728	-200.000	0.062	0.350
-87.713	-60.390	-0.105	-0.044
-86.699	784.309	-0.073	-0.197
-85.684	349.671	-0.164	0.318
-84.670	-107.837	-0.276	0.059
-83.655	131.367	0.178	-0.224
-82.640	-111.003	-0.253	0.051
-81.626	140.544	0.060	-0.078
-80.611	626.157	-0.081	0.200
-79.597	1.386	-0.077	0.054
-78.582	-60.417	-0.149	0.062
-77.567	-200.000	-0.002	0.035
-76.553	800.000	-0.013	-0.042
-75.538	77.863	0.157	0.164
-74.524	141.842	-0.088	0.115
-73.509	800.000	0.057	0.157
-72.494	221.132	0.149	0.235
-71.480	-200.000	0.051	-0.258
-70.465	34.278	0.175	-0.150
-69.451	557.679	-0.080	0.189
-68.436	-153.950	-0.123	-0.008
-67.422	800.000	0.035	-0.101
-66.407	800.000	0.042	0.146
-65.392	-91.033	0.224	-0.063
-64.378	767.273	0.030	-0.080
-63.363	-51.091	0.219	0.101
-62.349	-78.796	0.263	0.088
-61.334	-17.698	-1.207	-0.742
-60.319	6.944	0.381	0.278
-59.305	-200.000	-0.194	-0.921
-58.290	439.912	0.640	1.369
-57.276	218.603	0.819	1.280
-56.261	-200.000	113.512	652.313
-55.246	486.349	1496.218	3337.287
-54.232	150.148	2655.607	3525.187
-53.217	104.584	2138.636	2464.489
-52.203	38.766	1591.315	1389.768
-51.188	30.785	1339.209	1121.694
-50.173	27.911	1301.162	1072.929
-49.159	55.168	1357.068	1283.074
-48.144	54.061	1371.234	1289.801
-47.130	30.982	1327.622	1112.986
-46.115	27.626	1309.539	1077.983
-45.100	27.412	1304.948	1072.900
-44.086	27.402	1302.178	1070.520
-43.071	27.248	1300.322	1068.047
-42.057	27.210	1298.485	1066.275
-41.042	27.391	1296.492	1065.651
-40.027	27.344	1294.512	1063.708
-39.013	27.329	1293.331	1062.610
-37.998	27.384	1290.806	1060.813
-36.984	27.517	1289.311	1060.316
-35.969	27.500	1287.650	1058.807
-34.954	27.513	1285.368	1056.968
-33.940	27.683	1284.184	1056.936
-32.925	27.572	1283.255	1055.488
-31.911	27.696	1281.534	1054.745
-30.896	27.634	1279.969	1053.057
-29.881	27.651	1278.768	1052.126
-28.867	27.564	1277.675	1050.681
-27.852	27.639	1275.966	1049.668
-26.838	27.661	1274.516	1048.560
-25.823	27.588	1273.136	1046.966
-24.809	27.604	1272.058	1046.129
-23.794	27.596	1270.631	1044.864
-22.779	27.598	1269.607	1043.995
-21.765	27.549	1268.267	1042.571
-20.750	27.617	1266.629	1041.572
-19.736	27.610	1265.255	1040.360
-18.721	27.518	1264.439	1039.122
-17.706	27.564	1263.398	1038.492
-16.692	27.529	1261.589	1036.761
-15.677	27.463	1261.262	1036.076
-14.663	27.574	1259.895	1035.546
-13.648	27.439	1259.097	1034.081
-12.633	27.452	1257.829	1033.069
-11.619	27.472	1257.181	1032.608
-10.604	27.468	1256.587	1032.058
-9.590	27.471	1255.398	1031.058
-8.575	27.441	1254.156	1029.827
-7.560	27.456	1253.555	1029.381
-6.546	27.518	1252.396	1028.736
-5.531	27.420	1251.554	1027.452
-4.517	27.376	1250.996	1026.706
-3.502	27.537	1250.091	1026.825
-2.487	27.559	1248.993	1026.012
-1.473	27.510	1244.603	1022.086
-0.458	25.860	1229.952	1000.859
0.556	20.807	1213.199	963.690
1.571	17.123	1219.754	948.277
2.586	16.348	1234.648	955.386
3.600	16.343	1223.469	946.626
4.615	14.776	1157.610	887.274
5.629	11.409	1091.001	819.269
6.644	9.810	1074.488	798.882
7.659	9.507	1072.128	795.560
8.673	9.488	1070.997	794.558
9.688	9.506	1069.709	793.622
10.702	9.644	1067.303	792.443
11.717	11.756	1069.459	804.369
12.731	15.073	1074.681	824.591
13.746	17.336	1076.942	837.407
14.761	17.411	1076.473	837.339
15.775	16.368	1074.782	830.823
16.790	15.544	1071.773	824.379
17.804	14.625	1070.791	819.045
18.819	14.308	1069.364	816.326
19.834	14.057	1068.313	814.222
20.848	13.769	1067.859	812.395
21.863	13.593	1066.657	810.544
22.877	13.379	1066.090	808.998
23.892	13.508	1064.936	808.681
24.907	13.461	1064.491	808.041
25.921	13.619	1062.854	807.499
26.936	13.520	1062.333	806.548
27.950	13.596	1060.757	805.649
28.965	13.516	1059.447	804.196
29.980	13.682	1057.679	803.588
30.994	13.850	1056.289	803.270
32.009	13.725	1055.903	802.304
33.023	13.690	1054.853	801.264
34.038	13.649	1053.523	799.988
35.053	13.519	1052.657	798.631
36.067	13.531	1051.616	797.830
37.082	13.487	1051.127	797.173
38.096	13.703	1049.968	797.265
39.111	13.607	1049.796	796.601
40.126	13.593	1048.124	795.194
41.140	13.482	1047.126	793.835
42.155	13.328	1045.859	792.065
43.169	13.264	1045.286	791.256
44.184	13.313	1044.213	790.607
45.199	13.302	1043.080	789.631
46.213	13.342	1042.060	788.978
47.228	13.535	1041.019	789.040
48.242	13.539	1039.760	788.033
49.257	13.429	1038.775	786.697
50.271	13.596	1037.652	786.567
51.286	13.616	1036.826	785.964
52.301	13.506	1036.565	785.179
53.315	13.526	1034.976	783.999
54.330	13.468	1033.920	782.858
55.344	13.588	1032.705	782.433
56.359	13.532	1032.352	781.831
57.374	13.491	1031.262	780.744
58.388	13.414	1030.516	779.747
59.403	13.425	1029.112	778.666
60.417	13.440	1028.319	778.072
61.432	13.408	1028.107	777.692
62.447	13.361	1027.139	776.666
63.461	13.379	1026.360	776.096
64.476	13.335	1025.287	775.011
65.490	13.349	1024.272	774.240
66.505	13.294	1023.809	773.564
67.520	13.261	1023.001	772.731
68.534	13.371	1022.260	772.617
69.549	13.197	1022.022	771.553
70.563	13.375	1020.741	771.348
71.578	13.397	1020.001	770.823
72.593	13.268	1019.482	769.763
73.607	13.297	1018.736	769.265
74.622	13.144	1018.405	768.239
75.636	13.250	1017.583	768.044
76.651	13.188	1017.050	767.283
77.666	13.284	1016.104	766.949
78.680	13.192	1015.633	766.098
79.695	13.256	1014.791	765.692
80.709	13.319	1014.087	765.384
81.724	13.405	1013.396	765.194
82.739	13.420	1012.643	764.623
83.753	13.492	1012.538	764.813
84.768	13.654	1011.073	764.383
85.782	13.639	1009.980	763.422
86.797	13.569	1009.616	762.755
87.812	13.612	1008.397	761.964
88.826	13.451	1007.508	760.487
89.841	13.580	1006.335	760.125
90.855	13.672	1005.511	759.857
91.870	13.595	1004.868	758.953
92.884	13.708	1003.758	758.561
93.899	13.704	1003.150	758.017
94.914	13.803	1002.447	757.872
95.928	13.734	1001.809	757.008
96.943	13.662	1000.708	755.782
97.957	13.672	1000.291	755.445
98.972	13.579	998.995	753.975
99.987	13.659	997.861	753.415
101.001	13.619	997.251	752.710
102.016	13.591	996.378	751.854
103.030	13.701	995.527	751.644
104.045	13.599	995.293	750.940
105.060	13.767	993.419	750.218
106.074	13.444	992.928	748.324
107.089	13.422	991.912	747.389
108.103	13.433	990.792	746.529
109.118	13.419	989.747	745.612
110.133	13.373	989.066	744.829
111.147	13.429	988.131	744.310
112.162	13.524	987.115	743.905
113.176	13.504	986.432	743.232
114.191	13.519	986.042	742.942
115.206	13.609	985.282	742.709
116.220	13.414	984.171	740.930
117.235	13.524	982.975	740.458
118.249	13.452	982.166	739.460
119.264	13.605	980.919	739.138
120.279	13.443	980.654	738.152
121.293	13.454	980.031	737.668
122.308	13.518	978.606	736.813
123.322	13.369	977.768	735.457
124.337	13.472	976.516	734.906
125.352	13.413	975.209	733.594
126.366	13.356	974.656	732.863
127.381	13.458	973.602	732.457
128.395	13.489	972.642	731.806
129.410	13.428	971.733	730.790
130.424	13.588	970.703	730.656
131.439	13.596	970.471	730.448
132.454	13.566	969.629	729.620
133.468	13.564	968.692	728.840
134.483	13.610	967.635	728.185
135.497	13.577	966.992	727.490
136.512	13.620	965.968	726.843
137.527	13.532	965.180	725.801
138.541	13.669	964.314	725.686
139.556	13.671	963.843	725.275
140.570	13.693	963.427	724.992
141.585	13.766	962.658	724.670
142.600	13.748	961.635	723.759
143.614	13.738	960.835	723.050
144.629	13.838	960.105	722.870
145.643	13.778	959.272	721.919
146.658	13.792	958.080	721.018
147.673	13.758	957.270	720.196
148.687	13.651	956.111	718.800
149.702	13.549	955.650	717.946
150.716	13.667	954.845	717.789
151.731	13.700	954.166	717.355
152.746	13.662	953.471	716.609
153.760	13.693	952.424	715.890
154.775	13.673	952.753	715.988
155.789	13.897	951.678	716.081
156.804	13.705	950.988	714.674
157.819	13.833	950.181	714.552
158.833	13.802	949.391	713.762
159.848	13.818	948.982	713.462
160.862	13.830	948.068	712.761
161.877	13.655	946.799	710.993
162.892	13.799	945.815	710.812
163.906	13.692	945.341	709.932
164.921	13.715	944.435	709.290
165.935	13.761	943.075	708.399
166.950	13.838	942.152	707.974
167.964	13.819	941.330	707.213
168.979	13.800	940.703	706.598
169.994	13.781	939.971	705.906
171.008	13.951	939.194	705.979
172.023	13.895	938.570	705.210
173.037	13.948	937.460	704.540
174.052	13.943	936.762	703.934
175.067	13.731	937.133	703.248
176.081	13.847	935.227	702.249
177.096	13.790	934.993	701.769
178.110	13.869	934.697	701.818
179.125	13.847	933.915	701.076
180.140	13.948	933.539	701.160
181.154	13.942	933.243	700.847
182.169	14.016	932.442	700.497
183.183	13.986	931.924	699.920
184.198	14.108	930.728	699.471
185.213	14.104	930.049	698.885
186.227	14.226	929.412	698.855
187.242	14.261	928.925	698.576
188.256	14.287	928.106	698.005
189.271	14.061	927.644	696.648
190.286	13.989	926.813	695.663
191.300	13.982	926.114	695.047
192.315	13.905	925.740	694.383
193.329	13.956	924.805	693.834
194.344	13.966	924.066	693.257
195.359	13.960	923.813	692.984
196.373	14.109	923.124	693.025
197.388	14.258	922.504	693.119
198.402	14.292	922.047	692.856
199.417	14.246	921.781	692.402
200.432	14.369	921.303	692.492
201.446	14.416	920.752	692.215
202.461	14.534	919.767	691.900
203.475	14.305	919.478	690.672
204.490	14.117	918.958	689.441
205.504	14.385	918.070	689.825
206.519	14.403	917.026	689.053
207.534	14.382	916.219	688.300
208.548	14.229	915.840	687.324
209.563	14.318	915.069	687.049
210.577	14.359	914.350	686.618
211.592	14.351	913.910	686.196
212.607	14.591	912.856	686.329
213.621	14.416	912.330	685.152
214.636	14.417	911.924	684.795
215.650	14.621	910.715	684.663
216.665	14.473	910.570	683.886
217.680	14.720	909.283	683.870
218.694	14.571	908.812	682.845
219.709	14.529	908.671	682.507
220.723	14.598	907.313	681.707
221.738	14.612	907.214	681.631
222.753	14.677	906.238	681.103
223.767	14.740	905.873	681.024
224.782	14.690	905.357	680.371
225.796	14.866	904.647	680.496
226.811	14.826	903.693	679.554
227.826	14.606	903.165	678.205
228.840	14.681	902.452	677.913
229.855	14.662	901.606	677.138
230.869	14.561	901.177	676.348
231.884	14.733	899.802	675.955
232.899	14.581	899.642	675.157
233.913	14.732	898.771	675.055
234.928	14.641	898.293	674.268
235.942	14.513	897.685	673.236
236.957	14.692	896.830	673.256
237.972	14.728	896.327	672.964
238.986	14.559	896.238	672.157
240.001	14.711	895.363	672.052
241.015	14.668	894.524	671.193
242.030	14.724	893.833	670.839
243.045	14.642	893.906	670.505
244.059	14.817	892.596	670.162
245.074	14.743	891.867	669.259
246.088	14.793	891.563	669.175
247.103	14.899	890.652	668.854
248.117	14.893	890.352	668.547
249.132	14.960	889.784	668.330
250.147	15.056	889.350	668.326
251.161	15.140	888.565	668.013
252.176	15.218	887.851	667.729
253.190	15.174	887.267	667.052
254.205	15.150	886.571	666.378
255.220	15.279	885.896	666.325
256.234	15.305	885.056	665.737
257.249	15.170	884.693	664.868
258.263	15.140	883.761	663.988
259.278	15.218	883.134	663.768
260.293	15.294	882.609	663.618
261.307	15.401	881.810	663.379
262.322	15.401	881.516	663.099
263.336	15.493	880.077	662.321
264.351	15.466	879.732	661.898
265.366	15.482	879.171	661.481
266.380	15.374	879.019	660.881
267.395	15.367	878.022	660.044
268.409	15.372	877.242	659.420
269.424	15.508	876.452	659.303
270.439	15.367	875.890	658.269
271.453	15.448	875.107	657.940
272.468	15.395	874.609	657.300
273.482	15.467	874.013	657.073
274.497	15.366	873.637	656.338
275.512	15.254	873.287	655.579
276.526	15.430	872.602	655.693
277.541	15.325	872.274	654.978
278.555	15.570	871.841	655.554
279.570	15.549	871.203	654.936
280.585	15.736	869.998	654.699
281.599	15.500	869.542	653.378
282.614	15.549	868.652	652.841
283.628	15.576	868.194	652.545
284.643	15.526	867.535	651.800
285.657	15.675	866.806	651.771
286.672	15.670	866.108	651.167
287.687	15.654	865.790	650.808
288.701	15.736	865.266	650.678
289.716	15.651	864.503	649.716
290.730	15.751	863.669	649.420
291.745	15.789	863.325	649.248
292.760	15.741	862.907	648.691
293.774	15.767	862.117	648.141
294.789	15.826	861.243	647.652
295.803	15.780	860.595	646.930
296.818	15.812	859.822	646.417
297.833	15.770	859.161	645.700
298.847	15.803	858.571	645.327
299.862	15.781	858.164	644.878
300.876	15.848	857.942	644.912
301.891	15.810	857.153	644.117
302.906	16.114	856.373	644.634
303.920	15.883	856.117	643.502
304.935	16.063	855.345	643.552
305.949	16.125	854.867	643.374
306.964	16.048	854.036	642.399
307.979	16.049	853.853	642.206
308.993	16.001	853.346	641.585
310.008	16.045	852.768	641.263
311.022	16.176	851.731	640.923
312.037	16.028	851.741	640.313
313.052	16.003	851.008	639.609
314.066	15.897	850.327	638.639
315.081	16.008	849.777	638.589
316.095	16.004	849.088	638.001
317.110	16.002	848.768	637.695
318.125	15.906	848.925	637.392
319.139	15.906	848.016	636.656
320.154	16.100	847.241	636.749
321.168	16.108	846.712	636.324
322.183	16.089	846.355	635.930
323.197	16.241	845.541	635.833
324.212	15.970	845.605	634.804
325.227	16.133	844.493	634.527
326.241	16.225	843.805	634.301
327.256	16.124	843.667	633.760
328.270	16.024	843.141	632.936
329.285	16.101	842.263	632.506
330.300	16.099	841.683	632.008
331.314	16.203	841.292	632.048
332.329	16.215	840.664	631.566
333.343	16.237	840.370	631.373
334.358	16.277	840.180	631.324
335.373	16.306	839.589	630.932
336.387	16.407	838.868	630.712
337.402	16.222	839.234	630.238
338.416	16.303	838.854	630.200
339.431	16.471	837.765	629.951
340.446	16.549	837.581	630.051
341.460	16.550	837.111	629.643
342.475	16.544	836.799	629.330
343.489	16.687	836.069	629.258
344.504	16.620	836.128	628.997
345.519	16.583	835.412	628.267
346.533	16.587	834.626	627.633
347.548	16.614	834.157	627.325
348.562	16.477	833.881	626.554
349.577	16.521	833.127	626.097
350.592	16.598	831.990	625.471
351.606	16.572	831.455	624.916
352.621	16.457	831.275	624.303
353.635	16.530	830.609	624.014
354.650	16.659	830.042	624.011
355.665	16.633	829.405	623.379
356.679	16.688	828.445	622.807
357.694	16.622	828.013	622.184
358.708	16.733	827.553	622.189
359.723	16.649	827.313	621.647
360.738	16.681	826.549	621.136
361.752	16.862	825.540	620.984
362.767	16.808	825.178	620.459
363.781	16.953	824.580	620.486
364.796	16.896	824.308	620.018
365.810	16.820	824.156	619.571
366.825	17.122	823.319	619.988
367.840	17.084	823.103	619.634
368.854	16.942	822.689	618.747
369.869	16.811	822.432	618.022
370.883	16.883	822.113	617.991
371.898	16.886	821.628	617.584
372.913	16.901	821.254	617.302
373.927	16.967	820.682	617.057
374.942	17.048	820.127	616.879
375.956	17.156	819.617	616.833
376.971	17.082	819.259	616.242
377.986	17.246	818.768	616.413
379.000	17.212	817.999	615.655
380.015	17.305	817.333	615.435
381.029	17.300	817.005	615.117
382.044	17.214	816.577	614.428
383.059	17.202	816.084	613.959
384.073	17.096	815.708	613.241
385.088	17.206	814.549	612.713
386.102	17.123	814.167	612.070
387.117	17.237	813.738	612.105
388.132	17.099	813.342	611.256
389.146	17.262	812.417	611.091
390.161	17.300	812.199	611.013
391.175	17.279	812.040	610.761
392.190	17.161	811.589	609.945
393.205	17.111	810.509	608.900
394.219	17.146	810.303	608.818
395.234	17.088	810.452	608.665
396.248	17.170	809.579	608.252
397.263	17.142	809.363	607.935
398.278	17.244	808.740	607.780
399.292	17.235	808.248	607.323
400.307	17.121	808.063	606.722
401.321	17.202	807.319	606.398
402.336	17.332	806.945	606.527
403.350	17.191	806.655	605.753
404.365	17.251	806.530	605.819
405.380	17.380	805.658	605.571
406.394	17.364	804.936	604.917
407.409	17.446	804.774	605.035
408.423	17.544	804.315	604.983
409.438	17.618	803.839	604.836
410.453	17.446	803.491	603.908
411.467	17.707	802.695	604.182
412.482	17.632	802.699	603.865
413.496	17.738	802.243	603.845
414.511	17.663	802.010	603.350
415.526	17.809	801.143	603.160
416.540	17.647	801.011	602.436
417.555	17.596	800.873	602.098
418.569	17.734	800.020	601.890
419.584	17.790	799.607	601.723
420.599	17.703	799.576	601.340
421.613	111.633	1295.448	1477.459
422.628	96.147	1367.646	1477.561
