DTS Sentinel unit serial number:	SN413079Multiplexer serial number:	ORYXHardware model number:	OX4-SRSoftware version number:	ORYX F/W v4.00 Oryx Data Collector v3.7.2.0data status	okinstallation	princeton_trtdifferential loss correction	single-endedforward channel	channel 1reverse channel	N/Adate	2019/09/17time	14:46:35forward acquisition time	60.00reverse acquisition time	0.00gamma	496.2192k internal	0.2296k external	0.2296temperature offset calibration	0.9971default loss term (dB/km)	0.3790temperature slope calibration	1.0000multiplexer offset coefficient	1.0000multiplexer slope coefficient	1.0000fibre end	0.00T internal ref (°C)	36.97T ext. ref 1 (°C)	0.39T ext. ref 2 (°C)	34.04length (m)	temperature (°C)	Stokes	anti-Stokes-747.200	-200.000	0.046	0.229
-746.185	90.402	-0.305	0.349
-745.171	313.919	-0.104	-0.201
-744.156	152.785	0.078	-0.108
-743.142	-134.894	0.296	-0.037
-742.127	800.000	0.034	0.128
-741.112	-88.163	-0.234	0.072
-740.098	800.000	0.071	0.242
-739.083	306.449	0.273	0.519
-738.069	-200.000	0.001	0.136
-737.054	-200.000	-0.033	-0.160
-736.039	-144.046	0.084	-0.008
-735.025	-97.268	-0.151	0.040
-734.010	-0.042	-0.091	-0.066
-732.996	-44.796	-0.198	0.101
-731.981	165.719	-0.052	-0.076
-730.966	44.670	0.216	-0.203
-729.952	686.436	0.068	-0.182
-728.937	284.843	0.027	-0.049
-727.923	624.284	-0.055	0.143
-726.908	770.953	0.106	-0.294
-725.894	-4.069	-0.231	-0.164
-724.879	86.344	-0.115	0.129
-723.864	-39.644	-0.296	-0.158
-722.850	42.404	0.141	0.131
-721.835	35.163	0.099	-0.088
-720.821	-200.000	-0.002	-0.063
-719.806	206.807	0.024	0.038
-718.791	18.136	0.152	-0.123
-717.777	800.000	0.056	0.226
-716.762	397.747	-0.223	0.477
-715.748	-200.000	-0.025	-0.179
-714.733	-4.823	-0.182	0.128
-713.718	156.766	0.080	-0.113
-712.704	87.421	0.383	-0.433
-711.689	-51.434	0.129	0.061
-710.675	-200.000	-0.050	-0.241
-709.660	141.450	0.141	-0.191
-708.645	35.941	-0.176	0.158
-707.631	1.143	-0.041	-0.030
-706.616	525.012	0.027	-0.064
-705.602	-161.271	-0.209	0.011
-704.587	81.972	0.077	0.086
-703.572	-104.567	0.406	-0.096
-702.558	-102.775	-0.325	0.079
-701.543	-200.000	0.028	-0.157
-700.529	800.000	-0.045	-0.187
-699.514	-17.620	-0.075	-0.048
-698.499	800.000	-0.072	0.241
-697.485	25.777	-0.226	-0.192
-696.470	27.502	0.194	0.167
-695.456	418.115	-0.118	0.257
-694.441	295.525	-0.150	-0.280
-693.426	-200.000	0.053	-0.283
-692.412	-200.000	-0.019	0.143
-691.397	-5.155	-0.217	-0.152
-690.383	800.000	-0.055	-0.188
-689.368	440.628	-0.036	0.080
-688.354	80.001	-0.112	-0.122
-687.339	139.606	-0.003	-0.004
-686.324	-200.000	0.009	-0.161
-685.310	-200.000	-0.063	0.293
-684.295	484.553	-0.121	0.280
-683.281	800.000	0.047	-0.181
-682.266	240.525	0.044	-0.074
-681.251	48.553	-0.221	0.211
-680.237	-180.936	0.204	0.004
-679.222	135.884	-0.177	-0.235
-678.208	-200.000	0.028	-0.402
-677.193	-75.274	-0.072	0.026
-676.178	-200.000	0.010	0.243
-675.164	470.863	-0.074	-0.169
-674.149	20.621	-0.246	0.203
-673.135	-7.529	-0.255	-0.176
-672.120	-200.000	-0.056	-0.280
-671.105	-143.853	0.187	-0.018
-670.091	-157.550	0.167	-0.010
-669.076	-74.496	0.263	0.096
-668.062	-200.000	0.007	0.047
-667.047	800.000	-0.064	-0.186
-666.032	42.222	-0.265	0.245
-665.018	800.000	0.108	0.401
-664.003	-200.000	0.001	0.058
-662.989	-200.000	-0.020	-0.264
-661.974	89.193	0.075	0.085
-660.959	-69.054	0.277	0.108
-659.945	-159.955	0.230	0.013
-658.930	134.135	0.137	0.181
-657.916	-120.005	0.324	0.057
-656.901	245.086	0.068	0.117
-655.886	-88.300	-0.222	-0.068
-654.872	184.235	-0.097	-0.146
-653.857	-18.228	0.305	-0.194
-652.843	-200.000	-0.040	0.236
-651.828	-119.285	0.381	0.068
-650.814	-200.000	-0.012	0.243
-649.799	-114.011	0.097	-0.019
-648.784	-200.000	-0.024	-0.135
-647.770	-70.056	-0.035	0.014
-646.755	-200.000	-0.059	-0.324
-645.741	130.789	0.174	0.227
-644.726	-112.506	0.283	0.058
-643.711	30.910	-0.277	0.242
-642.697	-162.997	-0.212	-0.010
-641.682	69.837	0.055	-0.058
-640.668	32.090	-0.233	0.204
-639.653	-55.555	-0.239	-0.109
-638.638	-200.000	0.001	0.140
-637.624	186.824	-0.174	0.263
-636.609	190.976	-0.079	0.121
-635.595	800.000	0.032	0.122
-634.580	105.481	0.172	-0.207
-633.565	-156.429	0.139	0.009
-632.551	35.266	0.136	-0.121
-631.536	46.005	0.301	-0.283
-630.522	217.703	0.082	-0.133
-629.507	-39.105	-0.036	0.019
-628.492	-143.141	-0.308	-0.030
-627.478	-200.000	-0.157	0.001
-626.463	800.000	0.045	-0.143
-625.449	236.729	0.254	0.428
-624.434	61.581	-0.201	0.203
-623.419	800.000	0.060	0.226
-622.405	-200.000	0.008	0.042
-621.390	567.670	0.093	-0.230
-620.376	-200.000	-0.021	-0.167
-619.361	-11.194	-0.101	-0.068
-618.346	-200.000	0.033	0.231
-617.332	209.589	-0.120	-0.191
-616.317	734.419	0.076	0.207
-615.303	-200.000	-0.048	-0.450
-614.288	162.112	-0.097	0.138
-613.273	6.929	-0.504	0.382
-612.259	422.260	0.080	-0.174
-611.244	-42.048	-0.378	0.197
-610.230	-78.619	0.368	-0.128
-609.215	-24.997	-0.193	0.117
-608.201	267.905	-0.265	-0.472
-607.186	-122.929	-0.125	0.020
-606.171	19.603	-0.259	-0.212
-605.157	-92.539	-0.353	-0.101
-604.142	458.768	0.042	0.094
-603.128	-167.334	-0.282	-0.012
-602.113	-200.000	-0.055	-0.341
-601.098	16.907	-0.186	-0.150
-600.084	475.379	-0.146	0.334
-599.069	-200.000	-0.008	-0.159
-598.055	31.421	0.104	0.090
-597.040	-110.652	0.178	0.037
-596.025	-45.932	-0.102	0.051
-595.011	-200.000	-0.006	-0.260
-593.996	-1.041	-0.169	-0.121
-592.982	175.162	-0.088	0.130
-591.967	392.813	0.078	-0.164
-590.952	-192.167	-0.065	0.001
-589.938	-200.000	0.039	0.207
-588.923	-200.000	-0.016	-0.113
-587.909	-104.421	0.173	0.041
-586.894	498.401	0.026	0.061
-585.879	724.697	0.036	0.096
-584.865	159.172	-0.074	0.105
-583.850	-83.423	0.152	0.049
-582.836	-200.000	0.021	0.182
-581.821	676.124	0.091	0.240
-580.806	-80.386	0.222	0.075
-579.792	215.218	-0.078	0.126
-578.777	-175.046	0.217	0.006
-577.763	800.000	0.112	0.322
-576.748	131.232	0.111	-0.145
-575.733	-100.970	0.387	0.096
-574.719	-7.429	0.288	-0.198
-573.704	-140.420	-0.158	0.017
-572.690	-72.122	-0.077	-0.029
-571.675	-69.089	-0.081	0.032
-570.661	-43.500	0.330	-0.169
-569.646	629.060	0.071	0.183
-568.631	-54.627	-0.190	-0.087
-567.617	-143.216	-0.150	0.015
-566.602	-200.000	0.058	0.541
-565.588	-104.869	-0.454	0.106
-564.573	-127.323	0.248	0.037
-563.558	43.859	-0.055	-0.051
-562.544	140.478	-0.173	0.231
-561.529	-200.000	0.013	-0.065
-560.515	297.748	-0.038	0.071
-559.500	72.379	-0.072	-0.076
-558.485	773.847	0.032	-0.087
-557.471	-66.826	0.249	0.100
-556.456	-5.402	0.115	-0.080
-555.442	308.769	0.147	0.279
-554.427	233.162	0.056	-0.094
-553.412	-35.094	0.115	-0.063
-552.398	800.000	0.069	-0.206
-551.383	-34.229	-0.154	0.086
-550.369	109.924	0.066	0.081
-549.354	-58.895	0.151	0.066
-548.339	13.165	0.230	0.181
-547.325	250.805	-0.026	-0.045
-546.310	-5.922	0.167	0.116
-545.296	92.137	-0.243	-0.277
-544.281	-67.509	0.281	0.112
-543.266	-200.000	-0.011	-0.051
-542.252	226.625	0.033	-0.054
-541.237	-200.000	-0.034	-0.150
-540.223	74.368	-0.024	0.026
-539.208	404.065	0.016	-0.035
-538.193	193.017	-0.018	-0.028
-537.179	73.609	-0.140	0.148
-536.164	162.378	-0.064	0.091
-535.150	13.105	-0.251	0.197
-534.135	-65.419	0.196	0.080
-533.121	800.000	0.060	-0.242
-532.106	427.028	-0.143	-0.312
-531.091	-10.831	0.243	0.162
-530.077	55.124	0.225	-0.221
-529.062	-139.863	-0.074	-0.008
-528.048	120.143	0.138	0.173
-527.033	148.843	-0.072	-0.098
-526.018	22.457	-0.151	-0.125
-525.004	-200.000	0.000	0.096
-523.989	60.381	0.018	-0.018
-522.975	-47.200	0.188	0.093
-521.960	15.162	-0.119	0.094
-520.945	800.000	0.073	-0.297
-519.931	-200.000	-0.018	0.233
-518.916	-6.101	-0.041	-0.028
-517.902	50.899	0.125	0.120
-516.887	273.461	-0.140	0.251
-515.872	800.000	0.098	0.309
-514.858	-35.468	0.386	0.212
-513.843	-27.788	0.193	-0.113
-512.829	-97.596	-0.207	0.054
-511.814	-12.480	0.139	-0.092
-510.799	-67.508	-0.300	0.119
-509.785	-11.025	-0.392	-0.262
-508.770	60.850	-0.177	-0.177
-507.756	-51.378	-0.101	-0.048
-506.741	-109.273	0.104	-0.022
-505.726	-200.000	-0.033	-0.199
-504.712	122.552	-0.214	0.270
-503.697	95.800	-0.134	-0.155
-502.683	283.637	0.107	-0.194
-501.668	-126.124	-0.262	-0.040
-500.653	219.255	-0.124	0.201
-499.639	-61.127	0.159	-0.068
-498.624	-65.627	0.201	-0.081
-497.610	723.000	-0.066	-0.178
-496.595	31.674	0.125	-0.109
-495.581	-3.983	-0.162	-0.113
-494.566	-159.853	-0.202	0.011
-493.551	351.091	0.030	0.061
-492.537	-54.880	0.171	-0.078
-491.522	160.928	-0.081	-0.114
-490.508	-200.000	0.052	-0.248
-489.493	-72.681	0.091	0.034
-488.478	-39.093	-0.054	-0.029
-487.464	-200.000	0.041	0.426
-486.449	191.034	0.171	-0.260
-485.435	-108.581	-0.300	0.065
-484.420	-46.902	0.067	0.033
-483.405	-200.000	0.001	0.006
-482.391	-200.000	0.009	-0.159
-481.376	512.015	-0.031	0.074
-480.362	-200.000	-0.018	-0.190
-479.347	22.965	0.318	-0.264
-478.332	42.504	-0.119	-0.110
-477.318	-200.000	0.103	-0.481
-476.303	-200.000	-0.009	-0.078
-475.289	800.000	-0.106	0.340
-474.274	87.088	-0.054	0.061
-473.259	173.403	0.095	0.138
-472.245	-141.834	0.085	0.009
-471.230	83.397	-0.261	-0.288
-470.216	475.972	0.079	-0.180
-469.201	800.000	-0.078	-0.263
-468.186	-65.168	-0.067	0.027
-467.172	139.792	0.127	-0.169
-466.157	-187.595	0.082	-0.001
-465.143	92.533	0.062	0.071
-464.128	714.168	-0.124	-0.331
-463.113	-63.013	-0.230	-0.096
-462.099	237.236	0.177	-0.296
-461.084	-89.692	-0.112	-0.033
-460.070	-140.157	0.099	-0.010
-459.055	-69.263	-0.159	0.062
-458.040	388.429	-0.082	-0.171
-457.026	168.047	0.220	0.316
-456.011	800.000	-0.041	0.159
-454.997	38.998	-0.172	0.155
-453.982	325.265	-0.099	0.191
-452.968	156.914	0.103	0.143
-451.953	-7.933	-0.372	-0.253
-450.938	-44.900	-0.088	-0.045
-449.924	-177.816	0.210	-0.005
-448.909	-168.162	-0.243	0.010
-447.895	-74.048	-0.132	-0.048
-446.880	800.000	0.059	-0.174
-445.865	-169.614	-0.229	0.008
-444.851	541.992	0.019	-0.046
-443.836	378.974	0.074	-0.154
-442.822	-66.405	0.265	0.106
-441.807	-78.769	0.297	-0.102
-440.792	107.565	-0.120	-0.144
-439.778	6.658	-0.104	0.078
-438.763	800.000	0.063	-0.208
-437.749	-94.688	-0.219	0.060
-436.734	231.293	0.159	-0.263
-435.719	-82.453	0.040	0.013
-434.705	-130.904	0.029	0.004
-433.690	123.928	-0.209	-0.264
-432.676	380.802	0.130	-0.269
-431.661	-127.624	0.330	0.048
-430.646	-38.563	-0.120	-0.064
-429.632	46.313	-0.306	0.286
-428.617	-66.031	0.082	-0.033
-427.603	-76.988	0.111	-0.039
-426.588	181.287	-0.078	0.116
-425.573	-31.647	-0.117	0.066
-424.559	353.337	-0.138	0.277
-423.544	1.571	-0.426	0.310
-422.530	-120.892	0.287	-0.049
-421.515	-62.630	0.108	0.045
-420.500	103.499	-0.132	0.157
-419.486	-200.000	0.014	0.188
-418.471	-200.000	-0.008	0.224
-417.457	-50.809	0.250	0.118
-416.442	-200.000	0.008	-0.075
-415.428	26.552	-0.133	-0.113
-414.413	-118.960	-0.145	0.026
-413.398	35.449	0.201	0.178
-412.384	109.450	-0.139	-0.168
-411.369	32.085	-0.106	-0.092
-410.355	97.912	0.108	-0.125
-409.340	143.858	0.031	-0.041
-408.325	198.839	0.125	0.193
-407.311	-13.034	-0.043	0.028
-406.296	386.356	-0.113	0.235
-405.282	-114.122	0.103	0.020
-404.267	77.620	0.413	-0.443
-403.252	21.420	-0.073	-0.060
-402.238	-71.291	0.317	0.120
-401.223	114.752	-0.067	0.082
-400.209	-63.504	-0.116	0.048
-399.194	-98.786	0.041	-0.010
-398.179	16.575	0.117	0.093
-397.165	800.000	-0.070	-0.218
-396.150	-83.873	0.349	-0.112
-395.136	299.030	0.041	-0.077
-394.121	-10.383	-0.036	-0.024
-393.106	-64.117	-0.175	0.072
-392.092	-68.346	-0.292	0.114
-391.077	-113.234	0.092	0.018
-390.063	-19.082	-0.139	-0.087
-389.048	13.191	-0.152	-0.119
-388.033	38.372	-0.329	-0.295
-387.019	-69.515	0.142	-0.055
-386.004	500.282	-0.031	-0.071
-384.990	-24.391	-0.067	0.040
-383.975	-200.000	-0.004	-0.153
-382.960	-131.209	-0.209	-0.028
-381.946	185.010	-0.092	0.138
-380.931	291.873	-0.170	0.311
-379.917	-170.434	-0.054	-0.002
-378.902	-200.000	0.015	0.087
-377.888	-73.291	0.317	0.117
-376.873	-99.908	-0.134	-0.034
-375.858	-100.153	-0.280	0.070
-374.844	334.592	0.081	0.157
-373.829	189.885	-0.012	-0.018
-372.815	367.278	0.057	-0.116
-371.800	-178.907	0.129	-0.003
-370.785	800.000	-0.123	0.467
-369.771	5.408	0.085	0.063
-368.756	-72.195	0.277	0.104
-367.742	-66.602	0.241	0.096
-366.727	294.654	-0.045	0.084
-365.712	168.360	-0.116	0.167
-364.698	-20.121	0.012	0.007
-363.683	-58.615	-0.250	0.109
-362.669	-72.079	0.256	0.096
-361.654	124.422	0.205	-0.260
-360.639	65.973	0.095	0.097
-359.625	-150.658	-0.201	-0.015
-358.610	514.770	0.081	-0.191
-357.596	178.683	0.044	0.065
-356.581	-17.413	-0.094	0.060
-355.566	147.417	-0.144	-0.195
-354.552	-17.868	-0.087	-0.055
-353.537	-18.008	0.211	0.133
-352.523	362.230	-0.026	0.053
-351.508	0.919	-0.293	-0.211
-350.493	50.641	0.077	0.073
-349.479	207.958	0.077	0.121
-348.464	-56.142	-0.404	-0.181
-347.450	-200.000	-0.020	-0.355
-346.435	800.000	-0.043	0.157
-345.420	720.079	0.070	-0.188
-344.406	-200.000	0.045	-0.287
-343.391	-17.422	-0.227	-0.143
-342.377	-87.447	-0.129	0.039
-341.362	-134.086	0.171	-0.021
-340.348	504.967	0.047	-0.109
-339.333	-17.596	-0.319	-0.202
-338.318	-200.000	-0.033	0.261
-337.304	-13.055	0.180	-0.118
-336.289	89.115	-0.099	0.111
-335.275	-84.079	0.200	0.064
-334.260	-200.000	-0.014	-0.088
-333.245	301.511	-0.034	-0.063
-332.231	333.023	0.166	0.323
-331.216	118.443	-0.163	0.203
-330.202	-92.777	0.131	0.037
-329.187	-200.000	-0.053	-0.236
-328.172	51.307	0.026	-0.025
-327.158	-37.017	-0.079	-0.042
-326.143	152.156	-0.243	0.333
-325.129	-121.598	0.306	-0.051
-324.114	-0.502	0.065	0.046
-323.099	-91.926	0.191	-0.054
-322.085	-79.208	-0.095	-0.032
-321.070	-121.388	0.040	0.007
-320.056	22.832	-0.167	0.137
-319.041	-42.509	0.246	0.126
-318.026	-116.713	-0.157	-0.029
-317.012	-12.153	0.398	-0.262
-315.997	-71.190	0.108	0.041
-314.983	-172.505	-0.034	0.001
-313.968	-196.165	-0.141	0.001
-312.953	268.340	0.167	0.293
-311.939	409.451	-0.121	-0.258
-310.924	800.000	0.074	0.290
-309.910	183.861	-0.062	0.092
-308.895	-68.308	-0.100	-0.039
-307.880	61.020	0.283	-0.282
-306.866	459.070	0.099	-0.220
-305.851	26.401	-0.047	-0.040
-304.837	30.650	-0.106	0.091
-303.822	-200.000	0.009	-0.256
-302.807	-200.000	-0.044	-0.384
-301.793	-173.825	-0.211	-0.006
-300.778	143.612	0.134	-0.179
-299.764	-124.155	0.114	0.018
-298.749	139.318	-0.201	-0.265
-297.735	354.033	-0.099	-0.198
-296.720	-200.000	0.052	-0.305
-295.705	-2.307	0.082	0.058
-294.691	215.049	0.118	-0.188
-293.676	-200.000	0.092	-0.617
-292.662	800.000	-0.060	-0.250
-291.647	761.023	-0.054	-0.146
-290.632	-200.000	0.001	0.217
-289.618	-140.385	0.327	0.034
-288.603	-135.369	0.138	0.017
-287.589	-116.282	0.036	0.007
-286.574	-56.695	-0.105	-0.047
-285.559	-90.200	0.329	0.096
-284.545	392.036	-0.167	0.349
-283.530	223.773	0.118	0.191
-282.516	-116.404	-0.152	0.028
-281.501	-200.000	0.002	0.127
-280.486	-99.706	0.236	0.059
-279.472	-141.589	0.404	-0.041
-278.457	42.783	-0.126	0.116
-277.443	800.000	-0.056	0.190
-276.428	-200.000	0.020	0.161
-275.413	-35.584	0.062	0.034
-274.399	-114.656	0.160	0.031
-273.384	193.206	0.017	-0.025
-272.370	-200.000	0.026	-0.190
-271.355	800.000	-0.073	-0.241
-270.340	42.499	-0.259	-0.236
-269.326	-200.000	0.028	0.178
-268.311	-62.514	-0.179	0.075
-267.297	-29.076	-0.136	0.078
-266.282	41.855	0.354	0.322
-265.267	180.897	0.036	-0.054
-264.253	83.029	-0.093	-0.102
-263.238	227.166	-0.095	-0.154
-262.224	-129.316	0.154	0.021
-261.209	249.884	0.091	0.155
-260.195	-125.431	0.063	0.010
-259.180	597.329	-0.104	-0.258
-258.165	774.128	-0.170	0.466
-257.151	-200.000	-0.010	-0.081
-256.136	118.838	0.048	0.060
-255.122	-155.666	-0.048	0.003
-254.107	800.000	0.085	0.287
-253.092	-63.158	0.250	0.103
-252.078	-200.000	-0.039	0.279
-251.063	-47.127	0.341	-0.167
-250.049	83.571	0.269	0.294
-249.034	-165.187	-0.287	0.013
-248.019	-119.215	-0.179	-0.031
-247.005	31.172	0.060	0.052
-245.990	145.480	-0.120	0.161
-244.976	13.518	-0.130	-0.101
-243.961	81.676	0.250	0.271
-242.946	67.151	0.420	0.429
-241.932	-166.172	-0.242	0.010
-240.917	307.177	0.045	0.083
-239.903	-200.000	-0.001	0.015
-238.888	34.609	0.126	0.110
-237.873	-130.488	0.198	-0.027
-236.859	56.220	-0.186	0.181
-235.844	359.496	-0.081	-0.161
-234.830	126.838	-0.113	-0.143
-233.815	-132.268	-0.114	-0.015
-232.800	-42.380	0.124	-0.064
-231.786	36.289	0.274	0.242
-230.771	93.714	0.133	0.151
-229.757	42.095	0.114	-0.103
-228.742	-200.000	-0.132	0.000
-227.727	-89.052	-0.226	0.067
-226.713	-66.620	0.410	0.163
-225.698	445.360	-0.158	0.347
-224.684	464.190	0.060	-0.135
-223.669	310.099	0.161	-0.301
-222.655	156.000	-0.177	-0.245
-221.640	-140.222	-0.296	0.031
-220.625	-150.975	0.028	-0.002
-219.611	333.981	-0.080	0.154
-218.596	-75.778	-0.139	-0.049
-217.582	307.234	-0.204	-0.380
-216.567	800.000	-0.084	-0.284
-215.552	-200.000	0.022	0.146
-214.538	-83.125	0.142	0.046
-213.523	-200.000	-0.040	0.233
-212.509	-200.000	0.025	-0.235
-211.494	-145.717	0.294	-0.026
-210.479	-200.000	0.058	0.297
-209.465	-121.134	-0.164	0.028
-208.450	192.610	0.170	0.256
-207.436	215.116	-0.182	0.288
-206.421	-200.000	-0.011	0.147
-205.406	-200.000	-0.016	0.238
-204.392	-56.947	0.218	-0.096
-203.377	-200.000	0.017	-0.180
-202.363	-177.832	-0.114	-0.003
-201.348	-200.000	-0.044	-0.310
-200.333	395.171	-0.139	-0.289
-199.319	800.000	-0.101	0.438
-198.304	800.000	0.023	0.064
-197.290	489.435	-0.125	-0.286
-196.275	443.686	-0.042	-0.093
-195.260	256.246	0.079	0.135
-194.246	47.869	0.182	-0.170
-193.231	678.701	0.074	-0.193
-192.217	110.117	-0.129	0.155
-191.202	-105.631	-0.178	0.040
-190.187	-63.839	0.211	0.086
-189.173	-52.536	0.207	0.096
-188.158	-48.427	0.140	0.068
-187.144	510.665	-0.084	0.196
-186.129	240.019	0.072	0.121
-185.114	-200.000	0.029	-0.279
-184.100	-67.428	-0.268	-0.105
-183.085	-190.370	-0.200	-0.002
-182.071	-85.523	-0.090	-0.028
-181.056	81.742	0.133	-0.144
-180.042	-119.518	0.171	0.030
-179.027	800.000	-0.020	0.085
-178.012	800.000	-0.063	0.194
-176.998	-115.683	-0.114	0.021
-175.983	-174.903	0.220	0.006
-174.969	190.737	0.182	0.274
-173.954	-121.691	0.161	0.027
-172.939	800.000	0.017	0.071
-171.925	-113.374	-0.286	-0.056
-170.910	441.133	0.185	-0.404
-169.896	27.420	-0.122	-0.102
-168.881	794.420	-0.039	0.108
-167.866	-200.000	-0.026	-0.327
-166.852	-114.691	-0.364	-0.070
-165.837	-200.000	-0.021	-0.092
-164.823	798.358	-0.053	0.145
-163.808	-200.000	-0.003	0.199
-162.793	-181.630	0.179	0.003
-161.779	198.747	-0.056	-0.086
-160.764	-150.186	-0.241	-0.019
-159.750	79.341	0.099	0.106
-158.735	-200.000	0.343	-0.001
-157.720	121.508	0.171	-0.213
-156.706	287.717	0.091	0.164
-155.691	124.881	-0.090	0.113
-154.677	101.587	0.206	-0.240
-153.662	122.506	-0.072	0.090
-152.647	-43.252	-0.055	-0.028
-151.633	-44.960	0.209	0.104
-150.618	8.984	-0.103	0.077
-149.604	-200.000	0.010	0.055
-148.589	237.833	-0.220	0.364
-147.574	-200.000	0.337	0.001
-146.560	-121.283	-0.119	-0.020
-145.545	-42.724	0.053	-0.027
-144.531	-37.293	0.278	0.148
-143.516	-87.119	0.222	-0.067
-142.502	-7.647	0.106	0.071
-141.487	-200.000	-0.050	0.292
-140.472	98.712	-0.113	-0.130
-139.458	-200.000	-0.002	0.123
-138.443	800.000	0.037	-0.139
-137.429	-39.049	-0.306	0.161
-136.414	-200.000	-0.007	0.228
-135.399	22.782	0.080	0.066
-134.385	-113.618	0.103	-0.020
-133.370	800.000	0.038	0.137
-132.356	131.919	0.172	-0.220
-131.341	251.050	-0.208	-0.352
-130.326	-114.447	0.149	-0.029
-129.312	385.272	0.085	-0.176
-128.297	-91.058	0.154	0.044
-127.283	-177.705	0.207	0.005
-126.268	15.268	0.144	-0.113
-125.253	13.937	0.126	0.098
-124.239	25.098	0.137	0.113
-123.224	-115.034	0.130	0.025
-122.210	-82.852	-0.262	0.084
-121.195	-200.000	-0.032	-0.374
-120.180	800.000	-0.052	-0.180
-119.166	-79.087	-0.382	-0.129
-118.151	34.400	0.069	-0.060
-117.137	166.928	-0.048	0.068
-116.122	91.673	-0.123	-0.138
-115.107	-66.602	-0.329	-0.130
-114.093	94.066	0.113	0.128
-113.078	-2.246	-0.347	0.243
-112.064	-12.060	0.221	-0.144
-111.049	-200.000	0.012	0.085
-110.034	354.830	0.109	0.216
-109.020	-76.313	-0.051	0.018
-108.005	12.401	0.382	0.294
-106.991	40.996	0.164	0.148
-105.976	68.528	0.121	0.124
-104.962	129.607	-0.119	-0.151
-103.947	-71.938	0.342	0.127
-102.932	-35.114	0.136	-0.074
-101.918	-176.678	0.232	-0.006
-100.903	375.601	0.197	0.401
-99.889	-41.587	-0.227	0.116
-98.874	-9.277	0.183	-0.122
-97.859	-96.861	0.221	-0.058
-96.845	-180.835	0.238	-0.005
-95.830	-100.693	-0.133	-0.033
-94.816	800.000	-0.124	0.386
-93.801	-143.290	0.016	0.002
-92.786	13.074	0.161	-0.124
-91.772	-159.788	-0.239	0.013
-90.757	450.803	0.180	-0.396
-89.743	91.476	0.238	-0.266
-88.728	800.000	-0.033	0.102
-87.713	-6.439	0.247	0.168
-86.699	-170.149	0.243	0.009
-85.684	-104.798	0.177	-0.041
-84.670	-4.523	0.380	-0.261
-83.655	671.856	-0.063	0.164
-82.640	9.404	0.370	0.279
-81.626	-139.307	0.145	-0.016
-80.611	-9.048	-0.162	-0.108
-79.597	333.218	-0.166	0.320
-78.582	-174.893	0.195	0.005
-77.567	-24.492	0.040	-0.024
-76.553	258.842	-0.200	-0.343
-75.538	-113.585	-0.277	-0.054
-74.524	74.164	-0.191	-0.199
-73.509	-114.345	-0.268	0.051
-72.494	-105.852	-0.140	-0.032
-71.480	448.751	-0.084	-0.185
-70.465	-169.052	0.282	-0.010
-69.451	13.381	0.174	0.134
-68.436	-115.866	0.559	-0.104
-67.422	469.712	-0.147	-0.329
-66.407	-136.938	0.375	-0.043
-65.392	-86.328	0.160	-0.049
-64.378	567.915	-0.142	-0.342
-63.363	338.929	-0.092	-0.177
-62.349	35.739	0.210	0.184
-61.334	-2.279	-0.745	-0.520
-60.319	800.000	0.157	0.465
-59.305	800.000	-0.283	-0.968
-58.290	725.857	0.438	1.162
-57.276	105.979	1.026	1.207
-56.261	-200.000	88.314	502.375
-55.246	421.457	1428.419	3046.765
-54.232	140.205	2645.233	3469.992
-53.217	107.857	2249.010	2664.253
-52.203	47.480	1682.420	1559.520
-51.188	40.156	1410.058	1260.558
-50.173	36.936	1366.024	1201.225
-49.159	56.244	1409.440	1361.237
-48.144	60.248	1428.423	1404.701
-47.130	40.882	1385.910	1243.317
-46.115	37.154	1368.149	1204.254
-45.100	36.771	1363.559	1197.798
-44.086	36.850	1360.720	1195.748
-43.071	36.958	1357.746	1193.751
-42.057	36.810	1355.994	1191.253
-41.042	36.890	1354.453	1190.341
-40.027	36.808	1352.703	1188.255
-39.013	36.884	1351.148	1187.306
-37.998	36.921	1348.963	1185.566
-36.984	36.956	1346.827	1183.858
-35.969	36.955	1345.093	1182.277
-34.954	37.096	1343.120	1181.356
-33.940	37.135	1341.338	1179.981
-32.925	37.023	1340.558	1178.567
-31.911	37.034	1339.218	1177.407
-30.896	37.079	1337.601	1176.213
-29.881	37.088	1336.120	1174.917
-28.867	37.151	1334.528	1173.849
-27.852	37.211	1332.653	1172.522
-26.838	37.062	1331.957	1170.960
-25.823	37.024	1330.152	1169.097
-24.809	37.052	1328.553	1167.815
-23.794	37.086	1327.392	1166.953
-22.779	37.033	1326.275	1165.606
-21.765	37.053	1324.692	1164.290
-20.750	36.989	1323.749	1163.030
-19.736	36.965	1321.931	1161.245
-18.721	36.857	1320.838	1159.589
-17.706	36.865	1319.365	1158.300
-16.692	36.836	1318.418	1157.249
-15.677	36.877	1316.789	1156.014
-14.663	36.869	1316.007	1155.239
-13.648	36.885	1314.662	1154.105
-12.633	36.989	1313.429	1153.597
-11.619	36.892	1312.808	1152.430
-10.604	36.919	1311.876	1151.727
-9.590	36.875	1310.907	1150.568
-8.575	36.829	1310.285	1149.703
-7.560	36.938	1308.693	1148.908
-6.546	36.835	1308.455	1148.043
-5.531	36.905	1307.381	1147.470
-4.517	36.918	1306.154	1146.421
-3.502	36.816	1305.507	1145.208
-2.487	36.905	1304.217	1144.551
-1.473	37.080	1300.318	1142.117
-0.458	36.156	1286.157	1124.251
0.556	31.325	1266.776	1084.267
1.571	26.866	1270.633	1061.443
2.586	25.031	1284.759	1062.282
3.600	23.798	1273.040	1045.253
4.615	17.409	1195.539	946.123
5.629	6.374	1112.237	822.737
6.644	0.870	1088.781	777.103
7.659	0.269	1086.389	772.251
8.673	0.234	1085.253	771.194
9.688	0.190	1083.863	769.913
10.702	0.634	1081.953	770.755
11.717	6.453	1090.770	806.832
12.731	15.778	1102.939	863.851
13.746	18.523	1105.488	879.880
14.761	17.343	1103.279	871.995
15.775	16.262	1100.713	864.359
16.790	15.232	1098.601	857.361
17.804	14.520	1097.092	852.468
18.819	14.234	1095.800	849.928
19.834	13.870	1095.245	847.562
20.848	13.636	1093.795	845.173
21.863	13.423	1093.335	843.657
22.877	13.243	1092.638	842.126
23.892	13.268	1091.565	841.351
24.907	13.081	1091.583	840.344
25.921	13.260	1090.815	840.587
26.936	13.286	1089.317	839.492
27.950	13.334	1088.333	838.900
28.965	13.416	1087.178	838.352
29.980	13.390	1086.174	837.371
30.994	13.482	1084.724	836.646
32.009	13.530	1084.338	836.513
33.023	13.454	1083.150	835.141
34.038	13.434	1082.161	834.203
35.053	13.336	1081.342	833.006
36.067	13.499	1079.935	832.668
37.082	13.414	1079.544	831.867
38.096	13.274	1079.093	830.742
39.111	13.425	1077.999	830.582
40.126	13.234	1077.056	828.826
41.140	13.281	1075.455	827.757
42.155	13.303	1073.908	826.599
43.169	13.178	1073.317	825.449
44.184	13.161	1072.049	824.316
45.199	13.072	1071.086	823.060
46.213	13.174	1070.172	822.789
47.228	13.294	1069.080	822.474
48.242	13.363	1067.868	821.811
49.257	13.276	1066.658	820.376
50.271	13.324	1066.201	820.190
51.286	13.305	1065.134	819.204
52.301	13.354	1064.207	818.659
53.315	13.255	1063.205	817.331
54.330	13.250	1062.138	816.410
55.344	13.236	1061.176	815.530
56.359	13.228	1060.232	814.696
57.374	13.130	1059.647	813.688
58.388	13.202	1058.509	813.097
59.403	13.055	1057.972	811.890
60.417	13.151	1057.053	811.586
61.432	13.174	1056.093	810.886
62.447	13.145	1055.282	810.052
63.461	13.163	1054.066	809.138
64.476	13.047	1053.808	808.299
65.490	12.970	1052.783	807.064
66.505	13.287	1051.685	807.701
67.520	13.266	1051.075	807.059
68.534	13.132	1050.623	805.985
69.549	13.194	1049.867	805.635
70.563	13.188	1049.015	804.882
71.578	13.144	1048.247	804.008
72.593	13.098	1047.577	803.199
73.607	13.071	1046.749	802.362
74.622	13.114	1046.019	801.939
75.636	13.076	1045.469	801.262
76.651	13.074	1044.774	800.646
77.666	13.149	1043.665	800.089
78.680	13.160	1043.372	799.848
79.695	13.077	1042.594	798.783
80.709	13.210	1041.983	798.883
81.724	13.179	1041.305	798.144
82.739	13.173	1040.341	797.307
83.753	13.211	1039.726	796.947
84.768	13.456	1038.532	797.144
85.782	13.316	1037.826	795.855
86.797	13.336	1037.067	795.297
87.812	13.226	1036.247	794.069
88.826	13.328	1034.850	793.418
89.841	13.326	1034.046	792.724
90.855	13.325	1033.185	791.988
91.870	13.343	1032.468	791.454
92.884	13.416	1031.590	791.062
93.899	13.369	1030.904	790.241
94.914	13.532	1029.696	790.024
95.928	13.498	1028.803	789.107
96.943	13.504	1028.290	788.670
97.957	13.301	1027.302	786.878
98.972	13.476	1026.151	786.756
99.987	13.449	1025.113	785.763
101.001	13.444	1024.227	784.993
102.016	13.416	1023.577	784.292
103.030	13.497	1022.545	783.816
104.045	13.489	1021.870	783.189
105.060	13.487	1020.896	782.365
106.074	13.352	1020.255	781.168
107.089	13.260	1019.259	779.901
108.103	13.312	1018.127	779.210
109.118	13.400	1017.358	778.970
110.133	13.265	1016.658	777.728
111.147	13.228	1015.416	776.534
112.162	13.342	1014.719	776.467
113.176	13.241	1014.140	775.481
114.191	13.313	1013.259	775.076
115.206	13.447	1012.177	774.810
116.220	13.126	1011.854	772.991
117.235	13.411	1010.429	773.165
118.249	13.334	1009.576	772.087
119.264	13.399	1008.963	771.851
120.279	13.269	1008.331	770.693
121.293	13.201	1007.642	769.783
122.308	13.313	1006.286	769.198
123.322	13.217	1005.585	768.148
124.337	13.245	1004.131	767.099
125.352	13.274	1003.030	766.326
126.366	13.210	1002.253	765.366
127.381	13.312	1000.943	764.769
128.395	13.309	1000.397	764.272
129.410	13.370	999.268	763.626
130.424	13.414	998.287	763.009
131.439	13.447	997.760	762.693
132.454	13.437	997.089	762.066
133.468	13.460	996.209	761.433
134.483	13.446	994.971	760.351
135.497	13.491	994.404	760.058
136.512	13.386	994.089	759.267
137.527	13.431	992.868	758.475
138.541	13.421	991.958	757.669
139.556	13.455	991.517	757.421
140.570	13.451	990.944	756.898
141.585	13.420	989.610	755.668
142.600	13.632	988.193	755.488
143.614	13.552	987.864	754.804
144.629	13.618	987.206	754.533
145.643	13.550	986.277	753.449
146.658	13.592	984.749	752.408
147.673	13.446	984.161	751.225
148.687	13.501	983.506	750.909
149.702	13.421	982.634	749.818
150.716	13.376	981.776	748.891
151.731	13.546	980.602	748.697
152.746	13.437	980.095	747.751
153.760	13.444	979.430	747.208
154.775	13.504	979.019	747.101
155.789	13.666	978.183	747.129
156.804	13.589	977.572	746.248
157.819	13.635	977.246	746.138
158.833	13.656	976.291	745.439
159.848	13.694	975.347	744.823
160.862	13.718	974.603	744.295
161.877	13.690	973.587	743.327
162.892	13.521	972.497	741.674
163.906	13.478	971.548	740.691
164.921	13.434	971.053	740.054
165.935	13.540	969.823	739.526
166.950	13.589	969.021	739.064
167.964	13.631	967.759	738.225
168.979	13.774	967.067	738.265
169.994	13.562	966.602	736.902
171.008	13.625	965.606	736.360
172.023	13.690	965.112	736.206
173.037	13.792	964.038	735.774
174.052	13.698	963.494	734.878
175.067	13.594	962.772	733.799
176.081	13.644	961.869	733.271
177.096	13.607	961.839	733.019
178.110	13.658	960.832	732.412
179.125	13.783	959.969	732.239
180.140	13.731	960.085	732.036
181.154	13.618	959.691	731.168
182.169	13.763	958.207	730.616
183.183	13.812	958.085	730.673
184.198	13.804	957.292	729.965
185.213	13.851	956.195	729.273
186.227	13.886	955.704	728.986
187.242	13.842	955.275	728.403
188.256	13.840	954.639	727.843
189.271	13.817	953.938	727.146
190.286	13.761	952.948	726.080
191.300	13.599	952.691	725.111
192.315	13.816	951.594	725.162
193.329	13.791	951.333	724.787
194.344	13.836	950.465	724.260
195.359	13.925	949.371	723.748
196.373	13.829	949.372	723.269
197.388	13.880	949.013	723.152
198.402	14.000	948.064	722.889
199.417	14.049	947.786	722.823
200.432	14.122	946.862	722.374
201.446	14.218	946.168	722.197
202.461	14.217	945.974	721.980
203.475	14.104	945.648	721.176
204.490	14.150	944.619	720.527
205.504	14.088	943.740	719.524
206.519	14.088	942.816	718.759
207.534	14.050	942.126	718.004
208.548	14.131	941.417	717.750
209.563	14.102	940.631	716.961
210.577	13.944	940.826	716.364
211.592	14.273	939.085	716.393
212.607	14.300	938.432	715.946
213.621	14.216	937.738	714.995
214.636	14.250	937.152	714.628
215.650	14.256	936.524	714.112
216.665	14.390	935.737	714.026
217.680	14.375	935.280	713.547
218.694	14.363	934.371	712.739
219.709	14.393	933.758	712.337
220.723	14.367	933.003	711.587
221.738	14.343	932.717	711.204
222.753	14.379	931.417	710.304
223.767	14.420	931.280	710.311
224.782	14.498	930.681	710.125
225.796	14.524	930.088	709.716
226.811	14.341	929.600	708.505
227.826	14.551	928.492	708.491
228.840	14.494	927.832	707.681
229.855	14.438	926.515	706.378
230.869	14.425	926.156	705.987
231.884	14.457	925.372	705.460
232.899	14.453	925.093	705.170
233.913	14.478	923.938	704.331
234.928	14.440	923.403	703.699
235.942	14.478	922.789	703.333
236.957	14.508	921.994	702.789
237.972	14.513	921.660	702.494
238.986	14.502	920.744	701.687
240.001	14.510	920.192	701.236
241.015	14.546	919.441	700.754
242.030	14.358	919.345	699.828
243.045	14.582	918.652	700.183
244.059	14.680	917.591	699.722
245.074	14.664	917.420	699.463
246.088	14.632	916.849	698.832
247.103	14.697	915.326	697.881
248.117	14.817	915.151	698.184
249.132	14.716	914.910	697.519
250.147	14.851	913.965	697.301
251.161	14.909	913.252	696.934
252.176	14.894	912.302	696.086
253.190	14.840	912.353	695.838
254.205	14.967	911.323	695.520
255.220	14.903	910.659	694.685
256.234	15.031	909.967	694.627
257.249	14.867	909.613	693.615
258.263	14.871	909.156	693.224
259.278	15.007	908.156	692.961
260.293	15.044	907.532	692.579
261.307	15.044	907.286	692.329
262.322	15.257	906.217	692.330
263.336	15.123	905.470	691.148
264.351	15.159	904.521	690.510
265.366	15.103	904.075	689.878
266.380	15.158	903.767	689.807
267.395	15.191	902.713	689.078
268.409	15.188	901.843	688.339
269.424	15.295	901.108	688.156
270.439	15.071	900.506	686.717
271.453	15.148	899.910	686.519
272.468	15.200	899.010	685.985
273.482	15.223	898.601	685.705
274.497	15.177	897.880	684.904
275.512	15.183	897.763	684.781
276.526	15.212	897.305	684.490
277.541	15.159	896.634	683.702
278.555	15.366	895.742	683.805
279.570	15.356	894.898	683.059
280.585	15.213	894.567	682.163
281.599	15.272	893.739	681.710
282.614	15.268	892.977	681.054
283.628	15.384	892.225	680.890
284.643	15.421	891.330	680.296
285.657	15.456	891.155	680.246
286.672	15.370	890.433	679.287
287.687	15.408	889.433	678.616
288.701	15.512	888.904	678.571
289.716	15.462	888.351	677.890
290.730	15.397	888.120	677.392
291.745	15.472	887.346	677.044
292.760	15.448	886.911	676.556
293.774	15.582	886.164	676.464
294.789	15.563	885.290	675.661
295.803	15.588	884.725	675.269
296.818	15.566	883.860	674.462
297.833	15.645	883.007	674.068
298.847	15.641	882.266	673.428
299.862	15.607	882.151	673.144
300.876	15.638	881.443	672.669
301.891	15.604	880.982	672.120
302.906	15.659	880.300	671.761
303.920	15.780	879.688	671.718
304.935	15.757	878.849	670.926
305.949	15.862	878.124	670.731
306.964	15.748	878.059	670.169
307.979	15.807	877.233	669.711
308.993	15.815	876.711	669.287
310.008	15.889	875.943	668.933
311.022	15.803	875.482	668.183
312.037	15.708	874.823	667.243
313.052	15.800	874.455	667.269
314.066	15.682	873.614	666.098
315.081	15.752	873.208	666.010
316.095	15.851	872.748	665.992
317.110	15.831	871.782	665.117
318.125	15.771	871.656	664.724
319.139	15.697	870.941	663.827
320.154	15.741	870.639	663.713
321.168	15.992	870.256	664.350
322.183	15.884	869.194	663.055
323.197	15.890	868.959	662.843
324.212	15.919	868.005	662.170
325.227	16.013	867.532	662.120
326.241	15.790	867.072	660.833
327.256	15.932	866.230	660.692
328.270	15.872	866.006	660.228
329.285	15.803	865.362	659.407
330.300	15.896	864.813	659.293
331.314	15.879	864.212	658.711
332.329	15.976	863.738	658.673
333.343	16.113	863.140	658.693
334.358	15.936	862.804	657.687
335.373	16.063	862.381	657.801
336.387	16.005	862.049	657.263
337.402	16.098	861.670	657.278
338.416	16.111	861.761	657.339
339.431	16.124	861.182	656.893
340.446	16.249	860.329	656.667
341.460	16.309	860.009	656.598
342.475	16.233	859.448	655.818
343.489	16.410	858.826	655.971
344.504	16.451	858.648	655.937
345.519	16.372	858.297	655.306
346.533	16.435	857.452	654.846
347.548	16.259	856.910	653.692
348.562	16.325	856.255	653.392
349.577	16.154	856.175	652.612
350.592	16.274	855.661	652.626
351.606	16.252	854.476	651.579
352.621	16.297	853.674	651.083
353.635	16.253	853.413	650.655
354.650	16.332	852.859	650.479
355.665	16.425	851.958	650.092
356.679	16.385	851.267	649.356
357.694	16.495	850.599	649.212
358.708	16.450	850.083	648.585
359.723	16.418	849.502	647.963
360.738	16.380	849.500	647.759
361.752	16.480	848.345	647.204
362.767	16.530	847.658	646.812
363.781	16.600	847.043	646.553
364.796	16.673	846.750	646.551
365.810	16.649	846.260	646.031
366.825	16.694	846.270	646.150
367.840	16.690	845.568	645.542
368.854	16.515	845.035	644.412
369.869	16.657	844.488	644.480
370.883	16.549	844.216	643.804
371.898	16.696	843.493	643.756
372.913	16.822	843.269	644.006
373.927	16.831	842.705	643.552
374.942	16.658	842.466	642.656
375.956	16.790	841.902	642.669
376.971	16.885	841.339	642.543
377.986	16.872	840.960	642.145
379.000	17.014	840.268	642.098
380.015	17.004	839.739	641.601
381.029	16.986	839.138	641.016
382.044	16.972	838.522	640.438
383.059	17.051	837.935	640.229
384.073	16.795	837.850	639.142
385.088	16.999	837.183	639.346
386.102	16.946	836.417	638.504
387.117	16.847	835.907	637.687
388.132	16.974	835.198	637.565
389.146	17.086	834.422	637.339
390.161	17.046	834.129	636.908
391.175	17.064	833.561	636.483
392.190	17.120	833.115	636.299
393.205	17.035	832.890	635.751
394.219	16.970	832.552	635.193
395.234	17.036	832.011	634.971
396.248	17.004	831.477	634.387
397.263	16.986	830.882	633.809
398.278	17.074	830.656	633.911
399.292	16.925	830.406	633.108
400.307	17.026	829.913	633.051
401.321	17.042	829.169	632.489
402.336	17.059	828.764	632.188
403.350	16.999	828.326	631.573
404.365	17.143	827.897	631.728
405.380	17.240	827.347	631.610
406.394	17.191	826.486	630.715
407.409	17.207	826.022	630.365
408.423	17.329	826.116	630.835
409.438	17.293	825.491	630.167
410.453	17.326	824.970	629.836
411.467	17.341	824.603	629.554
412.482	17.408	824.149	629.402
413.496	17.510	823.996	629.607
414.511	17.458	823.759	629.176
415.526	17.362	822.910	628.118
416.540	17.393	822.781	628.080
417.555	17.526	821.676	627.671
418.569	17.401	821.655	627.137
419.584	17.344	821.313	626.610
420.599	17.482	820.715	626.607
421.613	99.404	1279.613	1421.987
422.628	85.728	1346.469	1422.105
