DTS Sentinel unit serial number:	SN413079Multiplexer serial number:	ORYXHardware model number:	OX4-SRSoftware version number:	ORYX F/W v4.00 Oryx Data Collector v3.7.2.0data status	okinstallation	princeton_trtdifferential loss correction	single-endedforward channel	channel 1reverse channel	N/Adate	2019/09/19time	12:02:35forward acquisition time	60.00reverse acquisition time	0.00gamma	496.2192k internal	0.2337k external	0.2337temperature offset calibration	1.0014default loss term (dB/km)	0.3790temperature slope calibration	1.0000multiplexer offset coefficient	1.0000multiplexer slope coefficient	1.0000fibre end	0.00T internal ref (°C)	26.08T ext. ref 1 (°C)	0.84T ext. ref 2 (°C)	22.04length (m)	temperature (°C)	Stokes	anti-Stokes-747.200	-72.642	0.203	0.075
-746.185	148.085	-0.045	0.061
-745.171	-59.294	0.164	-0.071
-744.156	201.306	0.040	0.062
-743.142	-63.919	-0.108	-0.044
-742.127	343.895	-0.267	0.525
-741.112	91.415	-0.090	-0.102
-740.098	45.223	-0.149	-0.137
-739.083	-2.100	0.275	0.194
-738.069	31.690	-0.220	0.190
-737.054	25.740	-0.448	-0.374
-736.039	-58.143	-0.038	-0.017
-735.025	-33.128	0.097	0.054
-734.010	-200.000	0.008	-0.208
-732.996	678.046	0.117	-0.304
-731.981	287.750	-0.241	-0.437
-730.966	-200.000	-0.015	0.100
-729.952	800.000	0.042	-0.172
-728.937	19.542	-0.163	0.132
-727.923	800.000	-0.087	-0.241
-726.908	-34.968	-0.277	0.152
-725.894	66.217	0.266	0.271
-724.879	-71.159	-0.077	0.029
-723.864	-58.818	-0.297	-0.129
-722.850	311.322	-0.064	0.120
-721.835	800.000	0.057	-0.181
-720.821	30.790	-0.078	-0.067
-719.806	185.274	-0.239	-0.356
-718.791	-200.000	-0.017	-0.090
-717.777	12.871	0.225	0.174
-716.762	-200.000	0.096	-0.449
-715.748	-90.541	0.170	0.049
-714.733	332.767	0.103	-0.200
-713.718	99.372	-0.136	0.158
-712.704	58.261	-0.082	0.081
-711.689	763.592	0.125	-0.339
-710.675	-38.768	-0.206	0.109
-709.660	-114.037	0.108	0.021
-708.645	-139.876	-0.217	-0.023
-707.631	-6.494	0.115	0.079
-706.616	-23.514	-0.081	0.049
-705.602	756.527	-0.131	-0.355
-704.587	309.673	0.067	-0.126
-703.572	44.281	0.215	-0.197
-702.558	-15.117	-0.334	0.214
-701.543	-200.000	0.042	0.275
-700.529	20.903	0.152	-0.123
-699.514	-10.280	-0.365	-0.243
-698.499	115.514	0.070	-0.086
-697.485	48.485	-0.110	-0.103
-696.470	757.810	0.043	-0.118
-695.456	-158.182	-0.330	-0.019
-694.441	-116.888	0.265	0.049
-693.426	-90.707	-0.173	-0.050
-692.412	472.040	0.215	-0.486
-691.397	-87.456	-0.043	0.013
-690.383	-150.841	-0.095	-0.007
-689.368	254.280	-0.093	0.159
-688.354	-100.880	-0.337	0.083
-687.339	-200.000	-0.046	0.263
-686.324	-200.000	-0.013	0.089
-685.310	-154.377	0.229	0.015
-684.295	-73.678	0.319	-0.116
-683.281	-200.000	0.025	-0.256
-682.266	-143.026	0.215	0.021
-681.251	-200.000	0.025	0.437
-680.237	-127.336	0.176	-0.026
-679.222	-200.000	0.002	0.099
-678.208	-45.306	-0.253	-0.126
-677.193	153.375	-0.030	0.040
-676.178	800.000	-0.029	-0.122
-675.164	-200.000	0.015	-0.180
-674.149	800.000	-0.045	-0.180
-673.135	-110.543	0.335	-0.069
-672.120	-200.000	-0.032	-0.228
-671.105	94.940	-0.154	-0.175
-670.091	-3.500	0.146	-0.102
-669.076	800.000	0.136	-0.399
-668.062	-8.818	0.107	0.072
-667.047	-125.242	-0.323	0.050
-666.032	-17.369	-0.052	0.033
-665.018	-45.435	0.152	0.076
-664.003	23.843	0.268	0.221
-662.989	72.422	0.166	-0.173
-661.974	36.505	0.206	-0.182
-660.959	-200.000	-0.037	-0.181
-659.945	89.636	-0.208	-0.232
-658.930	6.372	0.151	-0.112
-657.916	15.725	0.092	-0.073
-656.901	-86.646	-0.040	0.012
-655.886	116.342	-0.242	-0.296
-654.872	800.000	-0.067	0.275
-653.857	-80.351	0.071	-0.024
-652.843	-78.500	-0.093	-0.032
-651.828	-200.000	-0.026	-0.269
-650.814	-131.302	0.383	0.051
-649.799	-68.794	-0.168	0.065
-648.784	100.594	-0.071	-0.083
-647.770	-200.000	0.055	0.436
-646.755	-136.700	0.031	-0.004
-645.741	13.203	0.165	-0.128
-644.726	-200.000	-0.117	0.570
-643.711	269.856	0.147	0.258
-642.697	315.654	0.064	-0.120
-641.682	-116.765	-0.057	-0.010
-640.668	-12.159	0.115	0.075
-639.653	33.873	-0.119	0.104
-638.638	-40.875	0.114	-0.059
-637.624	-33.676	-0.272	0.150
-636.609	-107.392	-0.135	-0.030
-635.595	371.800	-0.119	0.242
-634.580	-185.143	-0.137	-0.002
-633.565	-50.075	-0.407	0.193
-632.551	-200.000	-0.000	-0.389
-631.536	800.000	-0.072	-0.293
-630.522	-200.000	0.004	-0.101
-629.507	-58.773	-0.228	0.099
-628.492	238.587	0.061	-0.102
-627.478	201.220	0.081	-0.124
-626.463	1.800	-0.035	-0.025
-625.449	-160.528	-0.093	-0.005
-624.434	-25.686	-0.059	-0.035
-623.419	34.480	-0.203	-0.177
-622.405	-200.000	0.027	-0.170
-621.390	-1.325	-0.141	-0.099
-620.376	-200.000	0.012	-0.205
-619.361	-188.298	0.193	-0.002
-618.346	750.978	0.050	0.134
-617.332	383.752	0.148	-0.304
-616.317	-200.000	0.022	-0.226
-615.303	800.000	-0.040	0.124
-614.288	-82.456	-0.298	0.097
-613.273	-137.652	0.299	0.034
-612.259	66.301	0.230	0.233
-611.244	42.356	-0.159	0.144
-610.230	486.721	0.017	0.038
-609.215	565.313	0.211	-0.512
-608.201	-200.000	0.014	-0.339
-607.186	500.932	-0.106	-0.245
-606.171	-200.000	0.000	0.352
-605.157	-200.000	0.047	-0.271
-604.142	-81.221	-0.257	-0.085
-603.128	-85.576	-0.346	-0.107
-602.113	-131.051	-0.187	0.025
-601.098	-200.000	-0.005	-0.175
-600.084	64.882	0.275	0.277
-599.069	-142.758	0.179	0.017
-598.055	-184.400	-0.203	-0.003
-597.040	442.302	0.091	0.198
-596.025	-200.000	0.002	-0.100
-595.011	75.961	-0.321	-0.339
-593.996	800.000	-0.050	0.195
-592.982	216.706	-0.017	0.027
-591.967	-90.677	0.238	-0.069
-590.952	-116.796	-0.231	0.042
-589.938	800.000	-0.052	0.229
-588.923	-118.163	0.080	-0.014
-587.909	-179.867	0.212	0.005
-586.894	-129.718	-0.208	-0.029
-585.879	179.972	-0.219	-0.320
-584.865	-200.000	0.014	0.179
-583.850	16.103	-0.236	-0.185
-582.836	6.627	0.024	-0.018
-581.821	-200.000	0.008	0.099
-580.806	-3.433	-0.276	0.192
-579.792	800.000	-0.052	0.223
-578.777	-92.579	0.067	0.019
-577.763	-200.000	0.035	-0.242
-576.748	-78.406	0.209	-0.072
-575.733	-200.000	0.018	-0.166
-574.719	168.347	-0.194	-0.276
-573.704	800.000	-0.031	0.098
-572.690	-156.602	0.200	-0.012
-571.675	301.499	0.188	-0.347
-570.661	-200.000	0.033	-0.505
-569.646	221.427	-0.100	-0.161
-568.631	-108.327	0.177	0.038
-567.617	-175.143	-0.163	-0.005
-566.602	24.793	0.139	-0.115
-565.588	-200.000	0.379	-0.000
-564.573	235.589	-0.087	-0.143
-563.558	-200.000	-0.050	-0.270
-562.544	70.547	-0.142	0.146
-561.529	395.296	-0.039	0.081
-560.515	-155.758	-0.304	0.019
-559.500	-200.000	0.030	0.221
-558.485	-62.096	0.074	-0.031
-557.471	-54.868	0.110	-0.049
-556.456	105.087	0.143	0.168
-555.442	800.000	0.106	-0.430
-554.427	242.306	0.197	-0.328
-553.412	66.248	-0.105	-0.107
-552.398	4.307	-0.111	0.081
-551.383	-200.000	0.010	0.106
-550.369	69.963	0.156	-0.160
-549.354	92.038	0.147	0.165
-548.339	50.424	0.111	0.105
-547.325	-59.795	-0.280	-0.119
-546.310	-150.525	-0.318	-0.024
-545.296	243.995	-0.261	-0.436
-544.281	-127.475	-0.405	-0.059
-543.266	208.710	-0.050	-0.077
-542.252	-65.503	0.157	-0.063
-541.237	51.591	-0.158	-0.149
-540.223	-200.000	-0.021	0.150
-539.208	-200.000	0.012	0.080
-538.193	195.418	0.176	-0.267
-537.179	-157.176	0.198	0.012
-536.164	-140.551	0.184	-0.019
-535.150	73.651	0.107	-0.112
-534.135	-82.673	-0.065	0.021
-533.121	659.000	0.076	-0.194
-532.106	179.793	0.124	0.181
-531.091	-136.131	-0.258	0.030
-530.077	191.656	0.057	0.086
-529.062	-55.647	0.437	0.195
-528.048	-200.000	0.006	0.030
-527.033	449.033	-0.010	-0.021
-526.018	-150.567	-0.245	0.019
-525.004	-44.763	-0.136	-0.067
-523.989	800.000	-0.046	0.178
-522.975	316.918	0.063	0.119
-521.960	-200.000	-0.069	-0.394
-520.945	7.737	-0.191	-0.143
-519.931	700.340	0.095	-0.249
-518.916	120.699	-0.256	0.317
-517.902	651.928	0.042	-0.108
-516.887	-70.053	-0.354	0.134
-515.872	-200.000	0.035	0.195
-514.858	-39.258	-0.308	0.161
-513.843	-127.509	-0.039	0.006
-512.829	-115.594	0.193	0.036
-511.814	-81.260	0.163	0.053
-510.799	-71.320	0.175	-0.065
-509.785	365.006	0.117	-0.234
-508.770	-67.446	-0.282	0.110
-507.756	-45.608	-0.329	-0.162
-506.741	-200.000	0.030	0.162
-505.726	68.229	-0.283	0.288
-504.712	-200.000	-0.001	0.050
-503.697	68.777	0.103	0.105
-502.683	122.943	-0.067	-0.083
-501.668	-130.435	0.197	0.026
-500.653	-37.373	0.285	-0.151
-499.639	-129.238	0.364	0.050
-498.624	-63.876	0.021	0.009
-497.610	26.702	-0.054	0.045
-496.595	800.000	-0.082	0.293
-495.581	-200.000	0.062	-0.279
-494.566	40.290	-0.095	-0.085
-493.551	304.829	0.148	-0.273
-492.537	-200.000	-0.033	-0.407
-491.522	-61.545	0.306	-0.128
-490.508	122.412	0.093	-0.115
-489.493	260.389	0.189	-0.326
-488.478	73.581	-0.042	0.044
-487.464	-20.973	0.233	0.142
-486.449	-47.815	0.096	0.046
-485.435	-89.316	-0.305	0.089
-484.420	-31.610	-0.185	-0.103
-483.405	-147.266	-0.201	-0.017
-482.391	-103.710	-0.141	0.033
-481.376	296.185	0.135	-0.246
-480.362	439.999	0.073	0.159
-479.347	800.000	-0.023	-0.094
-478.332	800.000	-0.099	-0.331
-477.318	16.781	-0.247	0.194
-476.303	66.045	-0.125	0.126
-475.289	-125.143	-0.177	0.027
-474.274	101.214	0.093	-0.108
-473.259	-69.307	-0.237	0.090
-472.245	-164.587	0.347	-0.016
-471.230	73.354	-0.126	-0.131
-470.216	-38.335	-0.167	0.088
-469.201	-106.094	0.458	0.102
-468.186	-171.325	0.123	0.004
-467.172	-12.321	0.280	0.182
-466.157	-200.000	-0.043	0.409
-465.143	260.446	0.142	-0.244
-464.128	4.597	0.090	-0.065
-463.113	66.698	-0.066	0.067
-462.099	399.996	0.080	-0.167
-461.084	-67.401	-0.375	-0.146
-460.070	20.135	-0.114	0.092
-459.055	93.749	-0.050	-0.057
-458.040	-157.284	0.224	0.013
-457.026	-89.631	-0.151	0.044
-456.011	-142.035	0.256	-0.025
-454.997	-154.588	-0.192	-0.013
-453.982	759.191	-0.063	-0.169
-452.968	252.075	-0.056	-0.095
-451.953	-64.647	-0.109	0.044
-450.938	-38.450	-0.030	0.016
-449.924	625.261	0.040	0.099
-448.909	701.861	0.058	-0.152
-447.895	800.000	-0.043	0.150
-446.880	83.936	0.264	0.286
-445.865	76.082	0.176	0.185
-444.851	193.131	-0.096	-0.144
-443.836	-54.115	0.176	0.079
-442.822	-72.125	-0.350	-0.129
-441.807	-7.431	0.135	-0.091
-440.792	-31.333	-0.254	0.142
-439.778	-200.000	-0.017	0.094
-438.763	-77.453	-0.174	0.060
-437.749	154.532	-0.092	-0.125
-436.734	3.806	0.281	-0.203
-435.719	465.859	-0.143	-0.317
-434.705	-13.693	-0.121	-0.078
-433.690	-120.842	-0.044	0.007
-432.676	-167.846	-0.104	-0.004
-431.661	172.920	-0.114	0.163
-430.646	325.812	0.114	0.216
-429.632	-147.178	-0.234	0.020
-428.617	800.000	0.069	0.216
-427.603	-70.465	-0.255	-0.096
-426.588	77.938	0.154	-0.163
-425.573	425.699	-0.039	0.084
-424.559	-91.846	-0.147	0.041
-423.544	800.000	0.084	0.297
-422.530	-5.247	0.157	-0.107
-421.515	242.472	0.198	-0.329
-420.500	-54.155	-0.150	-0.068
-419.486	-151.279	-0.198	0.015
-418.471	-200.000	0.003	0.113
-417.457	-53.541	-0.221	0.100
-416.442	-7.687	0.148	0.099
-415.428	148.920	-0.253	0.339
-414.413	37.219	0.231	-0.203
-413.398	-159.302	0.146	0.008
-412.384	-64.865	0.086	0.035
-411.369	800.000	0.072	0.227
-410.355	-78.525	0.192	0.065
-409.340	27.462	-0.081	-0.067
-408.325	-200.000	0.013	-0.118
-407.311	182.463	0.106	-0.154
-406.296	279.435	0.252	-0.446
-405.282	-200.000	0.010	-0.304
-404.267	-200.000	-0.017	-0.194
-403.252	-73.090	-0.079	-0.029
-402.238	66.602	-0.089	-0.089
-401.223	-200.000	-0.038	-0.254
-400.209	-107.611	0.103	0.022
-399.194	35.693	0.281	0.245
-398.179	-200.000	0.007	0.227
-397.165	-69.551	-0.023	-0.009
-396.150	227.932	0.179	0.288
-395.136	-8.912	-0.073	-0.049
-394.121	-127.528	0.118	0.017
-393.106	-103.528	0.296	-0.069
-392.092	-84.837	-0.317	0.099
-391.077	-198.278	-0.197	0.001
-390.063	664.726	0.070	-0.178
-389.048	3.520	0.108	-0.078
-388.033	128.108	0.241	-0.304
-387.019	-16.114	0.139	-0.088
-386.004	-88.775	0.092	-0.027
-384.990	-147.271	0.354	0.030
-383.975	38.157	-0.052	0.045
-382.960	-200.000	0.033	-0.293
-381.946	-10.979	-0.319	0.208
-380.931	-200.000	0.038	-0.387
-379.917	-20.268	-0.218	0.133
-378.902	85.208	0.232	0.252
-377.888	405.443	-0.079	0.166
-376.873	-113.560	0.341	-0.066
-375.858	-200.000	0.016	-0.163
-374.844	-107.791	-0.095	-0.020
-373.829	-139.640	0.122	0.013
-372.815	800.000	-0.028	0.113
-371.800	-104.951	-0.213	0.048
-370.785	97.196	-0.137	0.155
-369.771	-64.665	0.207	-0.083
-368.756	238.254	-0.103	0.169
-367.742	800.000	-0.132	-0.419
-366.727	-170.454	-0.062	-0.002
-365.712	-145.709	0.165	-0.015
-364.698	-129.438	-0.125	-0.017
-363.683	174.264	0.053	-0.076
-362.669	450.512	-0.119	0.260
-361.654	-141.099	-0.322	-0.033
-360.639	-86.074	-0.258	-0.079
-359.625	-134.323	-0.286	-0.035
-358.610	134.428	0.177	0.227
-357.596	173.951	-0.095	0.135
-356.581	-52.020	0.140	-0.064
-355.566	14.059	0.157	0.121
-354.552	-52.801	0.297	-0.136
-353.537	742.082	-0.101	0.269
-352.523	555.422	-0.029	0.070
-351.508	-35.631	0.047	0.025
-350.493	-113.775	-0.265	0.051
-349.479	-159.986	-0.378	-0.020
-348.464	-35.761	-0.350	-0.187
-347.450	-200.000	-0.030	-0.366
-346.435	-76.606	0.278	-0.097
-345.420	19.238	0.164	-0.130
-344.406	-104.157	-0.298	0.068
-343.391	-200.000	-0.000	0.077
-342.377	800.000	-0.071	0.258
-341.362	231.900	0.034	-0.054
-340.348	80.740	-0.203	0.217
-339.333	-149.576	0.392	-0.031
-338.318	-136.350	0.253	0.029
-337.304	295.557	0.065	0.118
-336.289	-200.000	0.015	0.330
-335.275	-96.220	-0.200	-0.052
-334.260	-168.869	-0.442	0.016
-333.245	-200.000	-0.013	-0.070
-332.231	669.453	-0.116	0.296
-331.216	-142.399	0.234	0.023
-330.202	-83.137	0.361	0.115
-329.187	-200.000	0.091	0.565
-328.172	211.703	0.200	0.311
-327.158	-29.663	0.243	0.137
-326.143	295.473	-0.194	0.351
-325.129	-43.537	0.208	-0.104
-324.114	-200.000	0.039	-0.365
-323.099	-62.165	-0.259	0.107
-322.085	800.000	-0.036	-0.112
-321.070	-102.985	-0.224	-0.053
-320.056	156.746	0.170	-0.231
-319.041	51.302	-0.046	0.043
-318.026	-200.000	-0.061	-0.420
-317.012	800.000	0.102	0.287
-315.997	-26.419	-0.211	0.122
-314.983	-90.307	-0.192	0.055
-313.968	800.000	0.084	0.363
-312.953	215.127	-0.111	0.174
-311.939	-147.221	0.105	-0.009
-310.924	-81.126	0.131	0.043
-309.910	57.220	0.128	-0.123
-308.895	181.137	-0.146	-0.212
-307.880	-200.000	-0.085	-0.379
-306.866	44.025	-0.290	-0.263
-305.851	-200.000	0.230	-0.001
-304.837	-200.000	-0.019	0.101
-303.822	113.924	0.159	-0.191
-302.807	800.000	0.033	0.137
-301.793	800.000	0.027	0.083
-300.778	409.390	0.183	-0.381
-299.764	709.297	0.091	-0.239
-298.749	165.598	0.201	-0.281
-297.735	-32.901	-0.195	0.107
-296.720	114.734	0.158	0.190
-295.705	-93.877	0.229	-0.062
-294.691	-9.665	0.093	0.061
-293.676	-143.809	-0.198	0.018
-292.662	-200.000	0.005	0.389
-291.647	-53.235	-0.101	0.046
-290.632	241.547	0.068	0.112
-289.618	542.853	0.006	-0.014
-288.603	175.947	0.176	0.252
-287.589	-200.000	-0.318	-0.001
-286.574	-157.979	-0.045	0.003
-285.559	-200.000	0.025	-0.112
-284.545	-73.378	0.122	0.044
-283.530	-11.288	-0.238	0.155
-282.516	-13.763	-0.030	-0.019
-281.501	-200.000	0.034	-0.154
-280.486	228.887	-0.073	0.118
-279.472	-36.707	-0.105	-0.055
-278.457	211.366	-0.360	0.558
-277.443	-200.000	-0.019	0.195
-276.428	-178.573	0.075	0.002
-275.413	-97.342	0.138	-0.036
-274.399	-60.802	-0.265	0.110
-273.384	606.817	-0.118	-0.289
-272.370	120.474	-0.386	0.473
-271.355	-200.000	0.057	-0.256
-270.340	-0.112	0.112	0.078
-269.326	195.588	-0.036	-0.053
-268.311	731.364	-0.105	0.278
-267.297	29.773	-0.310	-0.260
-266.282	45.762	0.114	0.104
-265.267	-200.000	-0.071	0.522
-264.253	-184.768	-0.099	-0.002
-263.238	11.786	0.119	0.090
-262.224	1.063	0.119	0.084
-261.209	-166.208	-0.304	-0.013
-260.195	-176.260	0.308	0.008
-259.180	651.497	-0.066	-0.168
-258.165	496.984	0.071	0.161
-257.151	800.000	0.064	0.178
-256.136	-200.000	-0.054	-0.247
-255.122	-5.815	0.170	0.115
-254.107	785.983	-0.141	-0.382
-253.092	-123.688	0.084	0.013
-252.078	-173.717	0.139	-0.004
-251.063	115.917	-0.285	-0.344
-250.049	158.701	-0.127	-0.173
-249.034	296.428	0.048	-0.087
-248.019	-156.659	-0.096	0.006
-247.005	98.169	0.181	0.206
-245.990	-21.904	0.299	-0.179
-244.976	323.348	-0.070	0.132
-243.961	-200.000	-0.083	0.659
-242.946	-200.000	0.032	0.346
-241.932	-41.512	-0.421	0.213
-240.917	-117.548	0.300	0.053
-239.903	316.995	-0.075	-0.139
-238.888	-4.906	0.346	-0.234
-237.873	-64.509	0.214	0.086
-236.859	386.221	0.010	-0.020
-235.844	-169.807	0.366	-0.013
-234.830	-200.000	0.033	0.164
-233.815	62.584	-0.176	-0.173
-232.800	-129.430	0.417	0.057
-231.786	-200.000	0.017	0.370
-230.771	-200.000	0.045	0.429
-229.757	-41.211	-0.365	0.185
-228.742	-200.000	-0.013	-0.175
-227.727	180.837	0.142	-0.205
-226.713	44.159	-0.201	-0.182
-225.698	109.111	-0.086	-0.101
-224.684	800.000	0.041	0.123
-223.669	-19.572	0.207	-0.126
-222.655	800.000	0.034	-0.133
-221.640	69.440	-0.231	0.234
-220.625	800.000	-0.094	-0.263
-219.611	-200.000	0.057	-0.399
-218.596	275.566	-0.087	-0.151
-217.582	113.825	0.120	0.143
-216.567	800.000	0.052	-0.196
-215.552	-61.656	-0.214	0.088
-214.538	72.792	0.226	0.232
-213.523	-96.561	-0.055	-0.014
-212.509	-200.000	-0.022	0.200
-211.494	70.877	-0.142	-0.144
-210.479	800.000	0.030	-0.083
-209.465	-200.000	-0.004	0.155
-208.450	175.660	-0.200	-0.285
-207.436	274.420	-0.068	0.119
-206.421	-137.433	0.483	-0.054
-205.406	72.426	0.069	0.071
-204.392	-200.000	-0.003	-0.071
-203.377	-200.000	-0.008	-0.038
-202.363	800.000	-0.024	-0.091
-201.348	-166.824	0.193	0.008
-200.333	406.609	-0.084	0.175
-199.319	-93.774	-0.326	-0.088
-198.304	701.599	-0.069	0.178
-197.290	-200.000	0.013	-0.171
-196.275	-200.000	-0.024	0.232
-195.260	-200.000	0.023	0.128
-194.246	134.180	0.094	0.119
-193.231	-19.158	-0.212	-0.129
-192.217	75.295	0.137	0.142
-191.202	298.111	0.192	-0.346
-190.187	-48.640	-0.185	0.087
-189.173	-3.296	0.174	0.119
-188.158	-122.898	-0.330	0.052
-187.144	145.959	0.193	0.255
-186.129	-200.000	0.024	0.154
-185.114	41.631	0.176	0.156
-184.100	-200.000	-0.009	-0.058
-183.085	23.300	0.093	-0.075
-182.071	-3.150	0.170	0.116
-181.056	-96.427	0.282	0.073
-180.042	-130.424	0.262	0.035
-179.027	180.453	-0.141	0.202
-178.012	-82.974	-0.136	0.043
-176.998	-51.042	0.314	0.144
-175.983	-58.239	-0.140	-0.060
-174.969	-200.000	0.014	0.404
-173.954	168.607	0.209	0.292
-172.939	-109.276	0.267	-0.056
-171.925	-134.913	0.411	0.049
-170.910	223.558	-0.210	-0.333
-169.896	-21.135	0.167	-0.100
-168.881	-57.216	0.330	0.143
-167.866	81.180	0.117	0.124
-166.852	81.919	-0.088	0.094
-165.837	-99.018	0.246	-0.061
-164.823	-76.917	0.105	0.036
-163.808	134.708	-0.212	0.270
-162.793	-200.000	0.029	-0.181
-161.779	33.748	0.061	-0.052
-160.764	-200.000	0.027	-0.200
-159.750	630.713	-0.058	0.144
-158.735	-181.447	0.136	0.003
-157.720	139.130	0.007	-0.009
-156.706	102.364	0.139	-0.159
-155.691	-200.000	-0.037	-0.379
-154.677	-164.047	0.099	-0.005
-153.662	46.560	-0.120	-0.109
-152.647	-21.782	0.222	0.132
-151.633	-200.000	0.007	0.199
-150.618	-200.000	0.015	-0.135
-149.604	444.109	0.156	0.335
-148.589	73.068	0.079	-0.081
-147.574	-99.461	-0.076	-0.019
-146.560	497.496	-0.032	-0.072
-145.545	284.282	0.066	0.117
-144.531	105.587	0.098	-0.114
-143.516	-147.004	-0.140	0.012
-142.502	34.773	-0.057	0.049
-141.487	96.540	0.163	0.183
-140.472	-121.885	0.111	0.018
-139.458	-97.776	0.085	0.022
-138.443	-155.654	0.319	-0.020
-137.429	-51.998	0.351	0.160
-136.414	344.427	0.094	0.181
-135.399	-200.000	-0.021	0.193
-134.385	-200.000	0.001	0.232
-133.370	363.870	-0.139	0.273
-132.356	-170.641	-0.299	-0.010
-131.341	-105.816	0.186	-0.041
-130.326	166.620	-0.117	0.162
-129.312	-96.311	0.021	-0.005
-128.297	800.000	0.116	-0.343
-127.283	297.770	-0.115	0.206
-126.268	-13.228	0.395	0.251
-125.253	-200.000	-0.017	-0.167
-124.239	800.000	-0.082	-0.298
-123.224	51.732	0.148	-0.138
-122.210	156.779	0.125	0.169
-121.195	-156.704	-0.119	-0.007
-120.180	-200.000	-0.010	-0.153
-119.166	357.911	0.176	-0.344
-118.151	-46.638	-0.123	-0.059
-117.137	25.056	-0.033	-0.027
-116.122	800.000	-0.013	0.044
-115.107	-129.635	0.190	-0.026
-114.093	35.189	0.093	-0.080
-113.078	-26.257	-0.343	-0.198
-112.064	29.648	-0.079	0.066
-111.049	-3.391	0.259	0.176
-110.034	-112.354	-0.106	0.021
-109.020	412.869	0.089	-0.186
-108.005	-200.000	0.028	0.214
-106.991	-162.188	-0.261	-0.013
-105.976	-72.116	0.365	0.133
-104.962	77.803	0.275	0.287
-103.947	75.534	-0.253	-0.261
-102.932	51.332	0.182	0.170
-101.918	368.670	-0.189	-0.375
-100.903	230.389	0.023	-0.037
-99.889	-200.000	0.017	0.427
-98.874	379.463	0.032	-0.064
-97.859	-126.168	0.187	-0.027
-96.845	-200.000	0.005	-0.118
-95.830	-17.926	0.049	0.030
-94.816	-61.571	0.184	-0.075
-93.801	800.000	0.046	0.138
-92.786	4.394	-0.298	-0.214
-91.772	800.000	0.032	0.130
-90.757	-112.566	0.244	-0.048
-89.743	44.554	-0.113	0.101
-88.728	-166.138	0.334	-0.014
-87.713	800.000	0.055	0.204
-86.699	-104.920	-0.204	0.046
-85.684	62.149	-0.096	-0.094
-84.670	800.000	0.063	0.177
-83.655	-46.002	-0.100	0.048
-82.640	148.204	-0.124	0.163
-81.626	657.651	-0.065	0.163
-80.611	120.606	0.190	0.231
-79.597	-7.685	-0.233	0.154
-78.582	-200.000	-0.026	0.353
-77.567	72.027	0.120	0.122
-76.553	-37.886	0.340	-0.177
-75.538	-114.108	-0.210	0.040
-74.524	357.536	-0.101	0.196
-73.509	-200.000	0.014	0.114
-72.494	114.732	0.124	0.148
-71.480	74.599	0.091	-0.093
-70.465	-82.959	0.140	-0.044
-69.451	179.168	0.185	-0.264
-68.436	707.788	0.015	0.038
-67.422	-89.027	0.355	0.103
-66.407	-153.684	0.102	-0.007
-65.392	-65.840	-0.358	0.140
-64.378	-32.424	-0.083	0.045
-63.363	-54.874	-0.072	-0.032
-62.349	72.382	0.328	0.334
-61.334	85.780	-1.212	-1.303
-60.319	110.124	0.623	0.731
-59.305	800.000	-0.257	-1.032
-58.290	236.614	0.727	1.176
-57.276	800.000	0.566	1.577
-56.261	-200.000	115.260	610.203
-55.246	418.078	1536.696	3209.742
-54.232	141.557	2727.424	3529.658
-53.217	98.787	2188.052	2467.540
-52.203	37.707	1616.739	1402.748
-51.188	29.196	1355.824	1124.632
-50.173	26.561	1315.887	1075.829
-49.159	51.218	1374.628	1274.531
-48.144	49.977	1387.234	1278.633
-47.130	29.412	1342.262	1114.513
-46.115	26.203	1324.090	1080.219
-45.100	26.009	1318.752	1074.665
-44.086	25.933	1316.646	1072.456
-43.071	25.930	1314.020	1070.258
-42.057	26.031	1311.612	1068.851
-41.042	26.027	1310.511	1067.887
-40.027	25.945	1309.030	1066.155
-39.013	25.924	1306.887	1064.242
-37.998	25.975	1304.993	1062.958
-36.984	26.036	1303.834	1062.330
-35.969	26.125	1301.296	1060.748
-34.954	26.084	1299.527	1059.017
-33.940	26.149	1297.998	1058.114
-32.925	26.060	1297.069	1056.795
-31.911	26.155	1295.440	1055.979
-30.896	26.153	1293.835	1054.615
-29.881	26.172	1292.127	1053.295
-28.867	26.247	1291.102	1052.856
-27.852	26.152	1289.621	1051.052
-26.838	26.219	1288.232	1050.266
-25.823	26.223	1286.624	1048.940
-24.809	26.082	1285.559	1047.210
-23.794	26.068	1284.336	1046.090
-22.779	26.189	1282.931	1045.608
-21.765	26.234	1281.707	1044.825
-20.750	26.233	1280.198	1043.551
-19.736	26.133	1279.082	1042.023
-18.721	26.145	1277.883	1041.073
-17.706	26.037	1276.561	1039.332
-16.692	26.109	1275.389	1038.749
-15.677	25.994	1274.615	1037.419
-14.663	25.914	1273.959	1036.384
-13.648	26.036	1272.018	1035.461
-12.633	26.079	1270.868	1034.735
-11.619	25.981	1270.310	1033.674
-10.604	26.056	1269.273	1033.218
-9.590	25.901	1268.406	1031.584
-8.575	26.006	1267.333	1031.271
-7.560	25.935	1266.735	1030.340
-6.546	26.084	1265.719	1030.323
-5.531	25.984	1264.958	1029.094
-4.517	25.994	1264.177	1028.474
-3.502	26.089	1263.376	1028.322
-2.487	26.150	1261.598	1027.178
-1.473	26.058	1258.126	1023.793
-0.458	24.841	1243.833	1005.287
0.556	20.986	1227.607	970.895
1.571	17.339	1234.834	956.060
2.586	16.450	1249.923	962.593
3.600	16.068	1238.230	951.352
4.615	11.807	1164.640	872.068
5.629	4.513	1090.374	779.884
6.644	1.097	1072.068	749.843
7.659	0.662	1070.219	746.334
8.673	0.769	1068.925	745.893
9.688	0.833	1067.647	745.250
10.702	1.100	1065.660	745.113
11.717	5.425	1070.587	769.815
12.731	12.514	1080.176	811.742
13.746	16.557	1085.004	835.303
14.761	17.277	1086.264	839.757
15.775	16.660	1084.103	834.971
16.790	15.832	1081.870	829.100
17.804	15.091	1080.002	823.947
18.819	14.598	1079.276	820.894
19.834	14.292	1078.785	818.943
20.848	14.208	1077.565	817.536
21.863	14.000	1076.729	815.806
22.877	13.834	1075.482	813.977
23.892	13.678	1074.795	812.621
24.907	13.637	1074.339	811.999
25.921	13.639	1074.128	811.778
26.936	13.867	1072.646	811.702
27.950	13.838	1071.884	810.912
28.965	13.856	1070.864	810.157
29.980	13.850	1069.373	808.928
30.994	13.917	1068.223	808.314
32.009	13.970	1067.465	807.926
33.023	14.005	1066.240	807.099
34.038	13.906	1065.220	805.774
35.053	13.843	1064.758	805.048
36.067	13.925	1063.412	804.354
37.082	13.943	1062.735	803.859
38.096	13.837	1062.206	802.874
39.111	13.838	1061.434	802.225
40.126	13.805	1060.285	801.125
41.140	13.729	1059.023	799.734
42.155	13.663	1058.110	798.656
43.169	13.599	1057.121	797.530
44.184	13.687	1055.636	796.765
45.199	13.574	1054.982	795.659
46.213	13.681	1053.853	795.251
47.228	13.751	1052.598	794.566
48.242	13.914	1051.008	794.075
49.257	13.795	1050.867	793.331
50.271	13.809	1049.765	792.495
51.286	13.834	1049.093	792.037
52.301	13.879	1047.556	791.022
53.315	13.729	1047.115	789.905
54.330	13.695	1046.117	788.920
55.344	13.818	1044.789	788.433
56.359	13.675	1043.975	787.070
57.374	13.760	1043.282	786.883
58.388	13.697	1042.371	785.823
59.403	13.706	1041.789	785.359
60.417	13.596	1040.843	784.057
61.432	13.550	1040.197	783.282
62.447	13.661	1039.189	782.980
63.461	13.694	1038.270	782.371
64.476	13.723	1037.062	781.530
65.490	13.707	1036.034	780.610
66.505	13.667	1035.965	780.300
67.520	13.648	1035.095	779.488
68.534	13.721	1034.570	779.369
69.549	13.855	1033.480	779.104
70.563	13.626	1033.415	777.912
71.578	13.654	1031.984	776.896
72.593	13.731	1031.344	776.708
73.607	13.596	1030.835	775.624
74.622	13.491	1030.596	774.884
75.636	13.569	1029.483	774.342
76.651	13.634	1028.629	773.938
77.666	13.695	1027.746	773.487
78.680	13.629	1027.512	772.936
79.695	13.612	1026.816	772.264
80.709	13.708	1025.740	771.832
81.724	13.765	1025.290	771.691
82.739	13.786	1024.586	771.191
83.753	13.705	1023.932	770.255
84.768	13.870	1022.266	769.698
85.782	13.930	1021.483	769.318
86.797	13.869	1020.512	768.237
87.812	13.866	1019.886	767.682
88.826	13.860	1018.823	766.789
89.841	13.759	1017.988	765.628
90.855	13.945	1016.973	765.651
91.870	13.898	1015.671	764.389
92.884	13.807	1015.670	763.899
93.899	13.826	1014.717	763.203
94.914	13.961	1013.363	762.738
95.928	13.816	1013.196	761.880
96.943	13.949	1011.942	761.479
97.957	13.795	1011.173	760.126
98.972	13.972	1010.246	760.174
99.987	13.973	1008.993	759.167
101.001	13.957	1008.430	758.603
102.016	13.860	1007.479	757.379
103.030	14.007	1006.372	757.151
104.045	13.958	1006.026	756.598
105.060	13.896	1005.229	755.648
106.074	13.940	1003.979	754.844
107.089	13.829	1003.261	753.732
108.103	13.739	1002.286	752.525
109.118	13.820	1001.413	752.171
110.133	13.812	1000.647	751.491
111.147	13.903	999.282	750.812
112.162	13.901	998.910	750.456
113.176	13.787	997.702	748.968
114.191	13.859	997.296	748.924
115.206	13.878	996.331	748.216
116.220	13.815	995.027	746.887
117.235	13.805	994.069	746.058
118.249	13.792	993.766	745.704
119.264	13.853	992.536	744.991
120.279	13.778	992.498	744.561
121.293	13.765	991.008	743.317
122.308	13.865	989.894	742.865
123.322	13.747	989.726	742.147
124.337	13.810	988.824	741.685
125.352	13.882	987.186	740.713
126.366	13.891	985.760	739.617
127.381	13.868	985.071	738.931
128.395	13.786	984.489	738.062
129.410	13.833	983.243	737.272
130.424	13.977	982.350	737.178
131.439	13.940	981.728	736.480
132.454	13.920	980.557	735.450
133.468	13.867	980.396	735.031
134.483	13.991	979.177	734.598
135.497	13.824	978.565	733.337
136.512	13.924	977.247	732.724
137.527	13.865	976.687	731.982
138.541	13.860	976.069	731.430
139.556	13.954	975.200	731.129
140.570	13.931	974.660	730.557
141.585	14.026	973.676	730.174
142.600	14.041	972.783	729.503
143.614	14.044	972.111	728.948
144.629	14.020	971.219	728.112
145.643	14.177	970.369	728.098
146.658	14.009	969.931	726.970
147.673	13.994	968.661	725.887
148.687	13.961	967.790	725.026
149.702	14.022	966.812	724.492
150.716	14.072	965.709	723.822
151.731	13.970	965.225	722.950
152.746	14.250	964.048	723.224
153.760	14.075	963.860	722.257
154.775	14.198	963.231	722.257
155.789	14.174	962.719	721.705
156.804	14.133	962.098	720.998
157.819	14.115	961.190	720.172
158.833	14.302	960.424	720.346
159.848	14.194	959.916	719.435
160.862	14.096	959.238	718.441
161.877	14.207	957.977	717.909
162.892	14.220	956.785	717.008
163.906	14.062	956.154	715.792
164.921	14.160	955.267	715.485
165.935	14.223	954.307	714.974
166.950	14.070	953.748	713.834
167.964	14.204	952.456	713.378
168.979	14.148	951.676	712.494
169.994	14.195	951.067	712.174
171.008	14.365	949.923	711.983
172.023	14.313	949.080	711.065
173.037	14.238	948.971	710.602
174.052	14.233	947.889	709.707
175.067	14.234	947.359	709.252
176.081	14.285	946.733	708.937
177.096	14.246	946.306	708.387
178.110	14.231	945.644	707.766
179.125	14.355	944.316	707.235
180.140	14.319	944.611	707.240
181.154	14.406	943.996	707.085
182.169	14.422	943.409	706.652
183.183	14.486	942.777	706.390
184.198	14.487	941.971	705.727
185.213	14.443	940.993	704.746
186.227	14.480	940.412	704.403
187.242	14.594	940.071	704.566
188.256	14.570	939.371	703.879
189.271	14.553	938.494	703.090
190.286	14.461	937.687	702.034
191.300	14.349	937.058	701.028
192.315	14.428	936.390	700.798
193.329	14.351	936.288	700.337
194.344	14.410	935.518	699.950
195.359	14.393	934.957	699.393
196.373	14.489	934.036	699.049
197.388	14.573	933.310	698.791
198.402	14.688	932.848	698.866
199.417	14.733	932.236	698.535
200.432	14.662	931.914	697.937
201.446	14.748	931.050	697.585
202.461	14.735	930.927	697.376
203.475	14.866	929.953	697.132
204.490	14.733	929.357	696.069
205.504	14.643	928.751	695.179
206.519	14.734	928.106	695.012
207.534	14.638	927.502	694.100
208.548	14.754	926.610	693.855
209.563	14.782	925.716	693.240
210.577	14.769	925.260	692.780
211.592	14.759	924.635	692.213
212.607	14.796	923.922	691.769
213.621	14.744	922.963	690.776
214.636	14.841	922.239	690.573
215.650	14.869	921.716	690.235
216.665	15.003	920.632	689.914
217.680	14.999	919.818	689.230
218.694	14.967	919.575	688.853
219.709	14.881	918.800	687.857
220.723	14.827	918.385	687.265
221.738	14.891	917.494	686.800
222.753	14.876	917.056	686.349
223.767	15.094	915.800	686.244
224.782	15.213	915.287	686.286
225.796	15.048	915.014	685.342
226.811	15.080	914.332	684.905
227.826	14.974	913.764	683.981
228.840	15.007	913.115	683.571
229.855	15.058	911.937	682.839
230.869	15.013	911.341	682.146
231.884	15.042	910.510	681.583
232.899	15.022	909.878	680.970
233.913	15.008	909.223	680.360
234.928	15.151	908.266	680.167
235.942	15.082	908.056	679.668
236.957	15.169	907.450	679.509
237.972	15.178	906.884	679.061
238.986	15.228	906.010	678.547
240.001	15.139	905.407	677.676
241.015	15.167	904.824	677.293
242.030	15.268	903.784	676.862
243.045	15.205	903.476	676.318
244.059	15.068	903.185	675.486
245.074	15.147	902.346	675.120
246.088	15.255	901.619	674.950
247.103	15.287	901.210	674.712
248.117	15.225	900.774	674.077
249.132	15.272	900.162	673.748
250.147	15.331	899.496	673.427
251.161	15.379	898.809	673.047
252.176	15.475	897.730	672.562
253.190	15.513	896.804	671.960
254.205	15.592	896.078	671.673
255.220	15.447	895.849	670.862
256.234	15.464	895.229	670.407
257.249	15.517	894.719	670.178
258.263	15.469	893.750	669.203
259.278	15.444	893.149	668.592
260.293	15.512	892.703	668.472
261.307	15.672	891.807	668.376
262.322	15.618	891.289	667.714
263.336	15.668	890.338	667.141
264.351	15.780	889.635	666.999
265.366	15.780	889.287	666.679
266.380	15.822	888.531	666.222
267.395	15.752	888.035	665.513
268.409	15.720	887.166	664.677
269.424	15.736	886.698	664.328
270.439	15.757	885.158	663.200
271.453	15.692	884.776	662.598
272.468	15.703	884.544	662.411
273.482	15.797	883.771	662.142
274.497	15.746	883.556	661.722
275.512	15.702	882.947	661.035
276.526	15.817	882.308	660.949
277.541	15.792	881.795	660.410
278.555	15.966	880.791	660.280
279.570	15.988	880.417	660.026
280.585	15.985	879.317	659.132
281.599	15.977	878.871	658.710
282.614	15.926	878.238	657.977
283.628	15.855	877.869	657.363
284.643	15.984	877.185	657.297
285.657	15.978	876.328	656.576
286.672	16.026	875.862	656.352
287.687	16.065	874.899	655.725
288.701	16.069	874.314	655.246
289.716	16.018	874.003	654.757
290.730	15.869	873.854	654.006
291.745	16.171	872.607	654.189
292.760	16.100	871.919	653.338
293.774	16.151	871.373	653.071
294.789	16.168	870.252	652.237
295.803	16.297	869.481	652.100
296.818	16.279	868.868	651.512
297.833	16.169	868.754	650.946
298.847	16.246	868.157	650.740
299.862	16.334	867.250	650.337
300.876	16.314	866.644	649.751
301.891	16.219	866.322	649.085
302.906	16.328	865.883	649.117
303.920	16.400	865.302	648.900
304.935	16.473	864.785	648.735
305.949	16.334	864.027	647.579
306.964	16.358	863.398	647.141
307.979	16.345	863.243	646.916
308.993	16.482	862.367	646.730
310.008	16.542	861.427	646.196
311.022	16.520	860.979	645.716
312.037	16.508	860.459	645.224
313.052	16.461	859.739	644.449
314.066	16.455	859.326	644.059
315.081	16.536	858.770	643.896
316.095	16.351	858.580	642.992
317.110	16.403	857.480	642.308
318.125	16.433	857.450	642.344
319.139	16.491	856.835	642.044
320.154	16.534	856.237	641.702
321.168	16.543	855.509	641.135
322.183	16.629	854.639	640.751
323.197	16.530	854.782	640.430
324.212	16.496	853.811	639.513
325.227	16.557	853.669	639.583
326.241	16.414	853.440	638.815
327.256	16.539	852.463	638.498
328.270	16.573	852.128	638.321
329.285	16.553	851.064	637.389
330.300	16.627	850.506	637.195
331.314	16.660	849.922	636.824
332.329	16.593	849.510	636.209
333.343	16.564	849.667	636.160
334.358	16.674	849.118	636.107
335.373	16.655	848.600	635.588
336.387	16.706	847.802	635.127
337.402	16.749	847.548	635.041
338.416	16.810	847.549	635.214
339.431	16.845	846.616	634.592
340.446	16.910	846.225	634.484
341.460	16.779	845.944	633.729
342.475	16.930	845.555	633.947
343.489	16.752	845.058	632.853
344.504	16.681	844.963	632.460
345.519	16.995	844.094	632.923
346.533	17.022	843.585	632.589
347.548	16.940	843.219	631.949
348.562	16.936	842.381	631.254
349.577	17.010	841.911	631.118
350.592	16.823	841.723	630.228
351.606	16.859	840.558	629.435
352.621	17.007	839.909	629.441
353.635	17.025	839.067	628.819
354.650	16.923	838.341	627.845
355.665	17.018	838.117	627.973
356.679	17.030	837.427	627.446
357.694	17.172	836.773	627.421
358.708	17.286	835.947	627.166
359.723	17.160	835.529	626.335
360.738	17.030	835.146	625.513
361.752	17.017	834.566	624.977
362.767	17.139	834.123	625.036
363.781	17.146	833.724	624.708
364.796	17.269	832.703	624.339
365.810	17.386	832.423	624.503
366.825	17.406	832.018	624.219
367.840	17.278	832.005	623.684
368.854	17.353	831.270	623.352
369.869	17.397	830.688	623.021
370.883	17.277	830.704	622.540
371.898	17.325	830.089	622.200
372.913	17.363	829.825	622.085
373.927	17.328	829.144	621.392
374.942	17.454	828.574	621.371
375.956	17.425	828.181	620.915
376.971	17.502	827.471	620.609
377.986	17.505	827.422	620.528
379.000	17.468	827.163	620.144
380.015	17.620	826.057	619.813
381.029	17.611	825.648	619.418
382.044	17.459	825.197	618.473
383.059	17.632	824.645	618.633
384.073	17.614	824.021	618.043
385.088	17.610	823.826	617.828
386.102	17.662	822.777	617.175
387.117	17.671	822.075	616.626
388.132	17.760	821.462	616.435
389.146	17.579	821.454	615.718
390.161	17.583	820.899	615.264
391.175	17.591	820.442	614.894
392.190	17.662	819.767	614.592
393.205	17.579	819.468	614.015
394.219	17.693	819.130	614.115
395.234	17.638	818.951	613.730
396.248	17.607	818.325	613.093
397.263	17.665	817.980	612.989
398.278	17.760	817.677	613.049
399.292	17.615	817.308	612.200
400.307	17.610	816.887	611.812
401.321	17.735	815.811	611.399
402.336	17.843	815.313	611.360
403.350	17.765	815.190	610.932
404.365	17.865	814.459	610.690
405.380	17.993	813.886	610.664
406.394	17.951	813.455	610.134
407.409	17.805	813.338	609.472
408.423	17.881	812.906	609.366
409.438	18.026	812.410	609.457
410.453	17.963	811.885	608.785
411.467	18.003	811.470	608.564
412.482	17.943	811.379	608.228
413.496	18.078	810.509	608.002
414.511	18.118	810.264	607.905
415.526	18.171	809.789	607.683
416.540	18.089	809.471	607.102
417.555	18.158	809.228	607.110
418.569	18.138	808.402	606.365
419.584	18.134	808.008	606.001
420.599	18.074	807.706	605.510
421.613	113.830	1297.054	1482.162
422.628	98.378	1368.315	1482.259
