DTS Sentinel unit serial number:	SN413079Multiplexer serial number:	ORYXHardware model number:	OX4-SRSoftware version number:	ORYX F/W v4.00 Oryx Data Collector v3.7.2.0data status	okinstallation	princeton_trtdifferential loss correction	single-endedforward channel	channel 1reverse channel	N/Adate	2019/09/13time	19:18:35forward acquisition time	60.00reverse acquisition time	0.00gamma	496.2192k internal	0.2326k external	0.2326temperature offset calibration	1.0119default loss term (dB/km)	0.3790temperature slope calibration	1.0000multiplexer offset coefficient	1.0000multiplexer slope coefficient	1.0000fibre end	0.00T internal ref (°C)	31.19T ext. ref 1 (°C)	3.80T ext. ref 2 (°C)	24.59length (m)	temperature (°C)	Stokes	anti-Stokes-747.200	618.327	-0.066	0.168
-746.185	-200.000	0.002	0.283
-745.171	56.819	0.059	-0.058
-744.156	-200.000	0.062	0.291
-743.142	86.151	0.233	0.259
-742.127	129.822	0.102	0.132
-741.112	-200.000	0.015	-0.107
-740.098	-30.440	-0.311	0.178
-739.083	-94.026	-0.356	0.099
-738.069	800.000	-0.039	0.169
-737.054	308.777	-0.053	0.099
-736.039	800.000	-0.097	-0.309
-735.025	-200.000	-0.026	-0.152
-734.010	-86.309	-0.400	-0.124
-732.996	461.179	-0.083	0.187
-731.981	427.622	0.041	-0.089
-730.966	-48.704	0.166	0.080
-729.952	-200.000	-0.025	-0.324
-728.937	-78.372	-0.223	-0.077
-727.923	206.719	-0.114	0.180
-726.908	-70.673	-0.051	-0.019
-725.894	180.811	0.059	0.088
-724.879	-200.000	0.014	-0.122
-723.864	95.995	0.019	0.022
-722.850	465.210	0.139	-0.314
-721.835	684.078	-0.058	-0.154
-720.821	-145.742	-0.280	0.025
-719.806	113.915	0.207	-0.254
-718.791	69.684	-0.114	-0.118
-717.777	-73.381	-0.279	0.103
-716.762	350.099	0.090	0.180
-715.748	38.411	-0.222	0.199
-714.733	72.785	0.172	-0.181
-713.718	-81.919	-0.485	-0.160
-712.704	-75.922	-0.150	0.053
-711.689	544.074	-0.016	-0.038
-710.675	-71.110	-0.267	-0.101
-709.660	-21.720	0.259	0.159
-708.645	-97.504	0.112	-0.029
-707.631	533.811	-0.108	-0.257
-706.616	13.257	-0.066	-0.052
-705.602	457.999	-0.099	-0.221
-704.587	-200.000	-0.032	0.288
-703.572	124.165	-0.209	-0.265
-702.558	800.000	0.074	-0.259
-701.543	-9.143	-0.164	-0.111
-700.529	138.529	-0.119	0.158
-699.514	665.943	-0.058	-0.151
-698.499	71.771	0.113	0.118
-697.485	10.296	0.279	-0.214
-696.470	157.824	0.197	-0.275
-695.456	174.213	0.105	0.153
-694.441	-200.000	0.000	0.292
-693.426	800.000	0.107	-0.297
-692.412	-7.876	0.240	-0.163
-691.397	-12.469	-0.149	-0.098
-690.383	499.880	0.106	-0.245
-689.368	-200.000	-0.095	-0.451
-688.354	1.958	-0.116	-0.084
-687.339	53.328	0.147	0.142
-686.324	3.925	0.331	0.244
-685.310	800.000	0.093	-0.297
-684.295	-23.877	0.299	0.180
-683.281	-200.000	0.026	-0.166
-682.266	800.000	0.067	-0.239
-681.251	-68.650	0.330	-0.129
-680.237	4.332	-0.229	-0.169
-679.222	33.897	0.024	0.021
-678.208	-200.000	-0.036	-0.178
-677.193	800.000	-0.037	-0.116
-676.178	67.919	0.205	-0.211
-675.164	-51.467	-0.195	-0.092
-674.149	50.332	-0.163	0.155
-673.135	-116.149	-0.127	-0.024
-672.120	295.391	-0.132	-0.243
-671.105	30.420	0.550	-0.472
-670.091	-200.000	0.005	-0.128
-669.076	-200.000	-0.009	0.132
-668.062	-200.000	0.001	-0.202
-667.047	250.619	-0.113	-0.194
-666.032	390.255	-0.074	0.154
-665.018	-101.335	0.183	-0.045
-664.003	800.000	0.071	-0.205
-662.989	53.589	-0.377	-0.364
-661.974	-151.819	0.122	-0.009
-660.959	83.231	0.190	0.208
-659.945	280.878	-0.243	0.438
-658.930	141.668	-0.151	-0.201
-657.916	202.182	-0.182	0.282
-656.901	34.672	-0.411	0.361
-655.886	61.421	-0.183	-0.183
-654.872	-200.000	-0.046	0.235
-653.857	174.463	-0.021	-0.031
-652.843	-16.883	0.165	-0.105
-651.828	-84.876	0.046	-0.015
-650.814	277.325	0.075	-0.134
-649.799	-200.000	0.020	-0.210
-648.784	223.212	0.103	0.167
-647.770	178.181	-0.250	-0.366
-646.755	-64.580	-0.270	-0.110
-645.741	-68.483	0.243	-0.095
-644.726	-85.179	0.144	0.045
-643.711	800.000	-0.012	-0.048
-642.697	66.425	0.155	0.158
-641.682	-66.634	-0.116	-0.046
-640.668	-200.000	-0.077	-0.339
-639.653	18.964	-0.268	0.216
-638.638	308.144	-0.193	-0.363
-637.624	125.312	-0.141	0.178
-636.609	16.280	-0.199	-0.158
-635.595	800.000	-0.064	0.257
-634.580	800.000	-0.041	0.164
-633.565	-17.291	-0.056	-0.035
-632.551	34.936	0.116	-0.102
-631.536	-56.060	-0.246	0.110
-630.522	800.000	0.028	0.095
-629.507	47.305	0.372	-0.348
-628.492	-106.538	-0.313	-0.070
-627.478	0.628	0.175	-0.125
-626.463	-136.662	-0.144	-0.017
-625.449	800.000	-0.081	0.307
-624.434	-200.000	-0.011	-0.072
-623.419	-167.173	-0.079	-0.003
-622.405	105.372	0.187	-0.222
-621.390	-29.968	0.074	0.043
-620.376	165.802	-0.106	0.150
-619.361	-95.591	-0.412	-0.111
-618.346	145.809	0.091	0.122
-617.332	800.000	-0.110	-0.369
-616.317	-105.861	-0.052	0.012
-615.303	-72.537	-0.253	-0.094
-614.288	-88.287	0.247	-0.074
-613.273	59.003	-0.256	0.252
-612.259	117.927	-0.050	-0.062
-611.244	121.158	-0.026	0.033
-610.230	-154.147	-0.245	-0.017
-609.215	-80.901	-0.235	0.078
-608.201	-47.514	0.192	0.094
-607.186	-67.146	0.438	-0.173
-606.171	-64.422	0.252	0.103
-605.157	-54.829	-0.216	0.098
-604.142	440.540	-0.101	-0.222
-603.128	145.822	-0.187	0.252
-602.113	42.371	0.071	0.065
-601.098	-142.070	0.139	0.014
-600.084	-59.940	0.145	-0.062
-599.069	-200.000	0.023	-0.281
-598.055	12.448	-0.067	-0.052
-597.040	417.370	-0.053	0.113
-596.025	259.256	0.072	-0.125
-595.011	-79.099	-0.057	0.019
-593.996	259.453	0.093	-0.162
-592.982	-200.000	0.003	-0.162
-591.967	139.607	-0.214	-0.282
-590.952	1.822	0.209	-0.151
-589.938	420.030	0.166	0.356
-588.923	-100.834	-0.161	0.040
-587.909	-113.112	-0.190	-0.038
-586.894	-200.000	0.012	-0.064
-585.879	514.996	-0.143	-0.336
-584.865	321.500	-0.036	-0.069
-583.850	215.439	-0.095	-0.150
-582.836	519.527	0.054	0.128
-581.821	800.000	0.021	0.060
-580.806	185.438	-0.015	-0.023
-579.792	-31.897	-0.093	0.052
-578.777	-200.000	-0.023	0.216
-577.763	-60.763	0.193	-0.082
-576.748	-8.166	-0.143	0.097
-575.733	-26.117	0.224	-0.132
-574.719	-149.599	0.199	-0.016
-573.704	18.788	0.167	0.134
-572.690	-69.116	0.218	-0.084
-571.675	-139.279	-0.197	-0.021
-570.661	-200.000	0.037	-0.244
-569.646	73.648	-0.334	0.350
-568.631	38.446	-0.060	0.053
-567.617	276.557	0.166	-0.296
-566.602	-97.851	-0.376	0.097
-565.588	-14.775	0.158	0.102
-564.573	-178.123	-0.011	-0.000
-563.558	129.105	-0.114	-0.145
-562.544	201.907	0.142	0.219
-561.529	800.000	0.088	-0.359
-560.515	449.161	-0.137	0.302
-559.500	-199.260	0.118	-0.001
-558.485	-115.344	-0.229	0.043
-557.471	-143.471	-0.300	-0.029
-556.456	-143.076	0.036	-0.004
-555.442	-20.371	0.187	0.115
-554.427	89.632	0.131	0.147
-553.412	95.795	-0.219	0.250
-552.398	-200.000	0.027	-0.258
-551.383	-33.476	-0.063	-0.035
-550.369	-159.768	-0.465	-0.026
-549.354	4.547	-0.188	0.138
-548.339	-200.000	0.021	-0.173
-547.325	19.628	-0.143	-0.115
-546.310	-200.000	-0.104	0.515
-545.296	-62.929	-0.121	-0.050
-544.281	-54.183	-0.495	0.225
-543.266	98.663	0.070	0.081
-542.252	-101.746	-0.219	0.053
-541.237	12.885	-0.168	0.130
-540.223	800.000	-0.027	0.080
-539.208	-200.000	-0.003	-0.127
-538.193	40.858	-0.067	-0.060
-537.179	-2.032	-0.205	-0.144
-536.164	-48.854	-0.128	0.062
-535.150	45.657	-0.152	0.141
-534.135	-137.465	-0.187	0.021
-533.121	-55.900	-0.086	0.038
-532.106	-200.000	-0.003	-0.073
-531.091	-63.400	-0.205	-0.085
-530.077	-200.000	0.005	0.063
-529.062	236.164	-0.125	0.207
-528.048	594.162	0.117	-0.289
-527.033	-125.924	0.097	0.015
-526.018	-68.389	-0.217	-0.084
-525.004	-167.052	0.105	0.004
-523.989	-76.921	0.046	0.016
-522.975	29.922	-0.269	0.229
-521.960	-200.000	0.046	-0.208
-520.945	-129.542	-0.093	0.013
-519.931	708.095	0.053	0.139
-518.916	-32.235	0.210	-0.117
-517.902	19.907	-0.164	0.133
-516.887	-34.002	0.144	0.079
-515.872	-162.102	-0.129	-0.007
-514.858	-136.919	0.193	-0.022
-513.843	-52.710	0.152	-0.070
-512.829	-101.199	0.160	-0.039
-511.814	96.014	0.183	-0.209
-510.799	-102.217	0.201	0.048
-509.785	-71.340	-0.336	0.126
-508.770	1.956	0.305	-0.220
-507.756	-148.388	-0.265	0.022
-506.741	-37.594	0.236	0.125
-505.726	503.893	0.062	-0.145
-504.712	800.000	0.020	0.081
-503.697	85.810	-0.169	-0.186
-502.683	617.417	-0.148	-0.371
-501.668	-25.277	0.357	-0.211
-500.653	20.051	0.258	-0.208
-499.639	800.000	-0.054	-0.183
-498.624	624.575	-0.028	0.072
-497.610	-106.399	0.027	0.006
-496.595	120.007	0.110	0.136
-495.581	-73.118	-0.384	-0.141
-494.566	64.910	-0.130	0.131
-493.551	-48.350	0.292	-0.141
-492.537	530.745	-0.096	0.227
-491.522	-81.421	-0.147	-0.048
-490.508	155.407	-0.290	-0.399
-489.493	-83.170	0.189	-0.061
-488.478	437.777	0.065	0.141
-487.464	227.555	-0.049	-0.080
-486.449	171.920	0.100	0.144
-485.435	-200.000	-0.014	-0.193
-484.420	-9.979	0.088	-0.058
-483.405	268.352	-0.099	0.174
-482.391	-105.001	0.164	0.037
-481.376	460.649	0.047	0.106
-480.362	-200.000	0.065	-0.000
-479.347	800.000	0.099	0.309
-478.332	-104.138	-0.316	-0.073
-477.318	800.000	-0.087	-0.288
-476.303	231.516	-0.071	-0.116
-475.289	65.881	0.284	-0.287
-474.274	-50.374	0.152	-0.072
-473.259	142.976	-0.247	0.328
-472.245	-25.529	0.219	-0.129
-471.230	-133.068	0.298	-0.038
-470.216	-18.686	-0.078	0.049
-469.201	11.267	0.235	-0.179
-468.186	202.616	-0.116	0.178
-467.172	800.000	-0.050	-0.166
-466.157	-129.259	-0.169	-0.024
-465.143	182.313	-0.217	0.319
-464.128	800.000	0.091	-0.344
-463.113	800.000	-0.067	-0.241
-462.099	-200.000	-0.005	0.131
-461.084	-93.877	-0.206	0.056
-460.070	242.100	-0.155	0.258
-459.055	506.433	0.038	-0.087
-458.040	-165.150	0.216	-0.010
-457.026	-200.000	-0.010	0.116
-456.011	-196.016	-0.216	-0.002
-454.997	-94.001	-0.063	-0.017
-453.982	-200.000	0.006	-0.102
-452.968	22.795	-0.078	0.064
-451.953	-32.728	0.449	-0.249
-450.938	-120.600	-0.121	0.020
-449.924	34.296	0.210	-0.182
-448.909	-200.000	-0.073	-0.509
-447.895	-59.205	0.285	-0.123
-446.880	294.148	0.078	0.141
-445.865	284.645	0.020	-0.035
-444.851	48.937	0.238	0.222
-443.836	557.151	-0.044	0.106
-442.822	-173.955	0.328	-0.010
-441.807	-51.865	0.218	0.101
-440.792	133.274	0.130	-0.168
-439.778	-143.636	-0.259	0.024
-438.763	-200.000	-0.038	-0.313
-437.749	-42.816	0.202	-0.102
-436.734	50.349	0.342	0.322
-435.719	64.253	-0.129	-0.129
-434.705	-32.800	0.330	0.183
-433.690	623.783	0.045	-0.113
-432.676	-200.000	0.019	-0.184
-431.661	800.000	-0.042	-0.145
-430.646	375.550	-0.066	-0.134
-429.632	130.871	-0.204	-0.261
-428.617	800.000	-0.235	-0.651
-427.603	-117.915	-0.312	-0.056
-426.588	-134.799	-0.344	0.042
-425.573	23.849	0.270	-0.222
-424.559	-200.000	-0.049	0.389
-423.544	-83.760	-0.301	-0.096
-422.530	-33.660	0.128	-0.071
-421.515	-200.000	-0.048	-0.227
-420.500	310.835	-0.112	0.210
-419.486	232.221	0.203	0.332
-418.471	261.323	-0.111	0.192
-417.457	-165.064	-0.261	0.012
-416.442	-21.150	0.094	-0.057
-415.428	-200.000	0.023	-0.248
-414.413	-62.555	0.065	-0.027
-413.398	85.003	-0.177	-0.193
-412.384	-162.292	0.264	0.013
-411.369	-200.000	0.007	0.214
-410.355	-200.000	0.013	0.175
-409.340	800.000	-0.098	0.351
-408.325	-53.034	-0.121	0.055
-407.311	101.591	-0.138	-0.160
-406.296	800.000	-0.105	-0.311
-405.282	-27.326	0.142	0.082
-404.267	453.954	0.011	0.024
-403.252	514.731	0.136	-0.316
-402.238	800.000	-0.048	0.195
-401.223	756.911	0.146	0.394
-400.209	-50.228	-0.323	-0.152
-399.194	-137.973	0.118	-0.013
-398.179	106.551	0.234	-0.276
-397.165	28.102	-0.146	-0.122
-396.150	-43.840	-0.101	0.051
-395.136	-107.709	-0.341	-0.074
-394.121	28.493	0.243	0.205
-393.106	-138.525	0.127	-0.014
-392.092	-93.689	-0.056	-0.015
-391.077	800.000	0.054	-0.201
-390.063	-20.478	0.207	0.126
-389.048	800.000	0.051	-0.163
-388.033	-200.000	0.004	-0.063
-387.019	180.554	-0.103	-0.150
-386.004	-200.000	0.087	0.382
-384.990	-200.000	0.077	0.560
-383.975	208.552	0.049	0.076
-382.960	800.000	0.018	0.057
-381.946	325.231	0.131	-0.249
-380.931	-104.655	0.199	0.046
-379.917	-92.326	-0.287	0.081
-378.902	282.086	-0.135	0.241
-377.888	-74.549	0.092	0.033
-376.873	420.315	0.133	-0.284
-375.858	57.325	0.065	-0.064
-374.844	-200.000	-0.015	-0.163
-373.829	29.917	0.179	0.151
-372.815	85.762	-0.165	0.180
-371.800	-96.709	0.087	0.023
-370.785	-59.878	0.226	-0.096
-369.771	112.929	-0.227	-0.274
-368.756	-3.389	0.160	-0.111
-367.742	70.682	0.184	0.190
-366.727	-31.572	0.281	-0.157
-365.712	-159.262	-0.256	0.014
-364.698	-122.365	-0.322	0.052
-363.683	411.728	-0.075	0.158
-362.669	-200.000	0.001	0.248
-361.654	110.707	-0.094	0.113
-360.639	-92.778	0.285	0.079
-359.625	-173.629	0.248	-0.007
-358.610	33.933	0.133	-0.115
-357.596	12.845	-0.186	0.143
-356.581	-118.476	-0.119	-0.021
-355.566	-47.935	0.306	0.147
-354.552	-102.074	-0.351	-0.084
-353.537	-200.000	-0.046	0.407
-352.523	-200.000	0.012	0.102
-351.508	-19.889	0.071	0.043
-350.493	87.349	0.089	-0.098
-349.479	-200.000	-0.030	0.149
-348.464	-200.000	-0.015	0.212
-347.450	361.988	-0.193	-0.385
-346.435	51.266	0.237	-0.224
-345.420	-182.214	-0.094	-0.002
-344.406	-200.000	-0.005	-0.110
-343.391	301.362	0.130	-0.238
-342.377	-200.000	0.009	-0.182
-341.362	168.865	-0.118	0.167
-340.348	17.438	0.031	-0.025
-339.333	-200.000	-0.005	-0.263
-338.318	18.764	0.022	-0.018
-337.304	800.000	0.012	-0.041
-336.289	-200.000	-0.043	0.342
-335.275	98.888	0.105	0.121
-334.260	-200.000	0.014	0.155
-333.245	800.000	0.120	-0.423
-332.231	-200.000	0.053	-0.386
-331.216	-114.752	-0.290	-0.055
-330.202	-200.000	-0.054	-0.263
-329.187	-39.662	-0.089	0.046
-328.172	89.783	0.138	-0.153
-327.158	235.683	-0.081	0.133
-326.143	-160.587	0.186	-0.010
-325.129	16.426	-0.091	0.071
-324.114	-200.000	0.026	0.238
-323.099	44.148	0.077	0.070
-322.085	-23.942	0.154	-0.091
-321.070	-200.000	0.013	0.187
-320.056	-141.162	-0.245	-0.025
-319.041	-29.657	-0.189	0.107
-318.026	272.893	-0.100	0.175
-317.012	-181.817	-0.276	0.005
-315.997	-105.386	0.276	0.062
-314.983	-165.708	0.309	0.013
-313.968	74.403	0.103	-0.108
-312.953	-200.000	0.011	-0.163
-311.939	295.600	0.153	0.277
-310.924	-54.853	0.201	-0.090
-309.910	-68.619	-0.441	-0.169
-308.895	562.423	0.125	0.300
-307.880	211.750	-0.177	0.276
-306.866	139.985	0.072	0.095
-305.851	800.000	-0.033	0.126
-304.837	-140.840	-0.218	-0.022
-303.822	73.624	-0.153	-0.159
-302.807	30.216	0.133	-0.113
-301.793	131.974	-0.194	0.248
-300.778	800.000	0.042	0.140
-299.764	-200.000	-0.247	0.000
-298.749	-75.160	0.241	0.085
-297.735	-113.242	-0.225	0.044
-296.720	113.573	0.214	-0.258
-295.705	63.971	0.068	-0.067
-294.691	-79.537	-0.174	-0.058
-293.676	37.199	-0.352	0.309
-292.662	-105.322	0.332	-0.075
-291.647	182.803	-0.121	0.177
-290.632	725.352	0.078	-0.206
-289.618	-147.635	0.116	-0.010
-288.603	334.952	0.134	0.257
-287.589	-35.648	-0.199	0.107
-286.574	-83.585	0.147	0.047
-285.559	-154.372	0.098	0.007
-284.545	49.108	0.049	-0.046
-283.530	-31.239	0.288	0.161
-282.516	-200.000	0.049	-0.229
-281.501	131.852	-0.133	0.169
-280.486	-90.267	0.555	-0.160
-279.472	69.027	-0.132	-0.134
-278.457	765.562	-0.017	-0.047
-277.443	800.000	-0.052	-0.153
-276.428	-4.188	0.231	0.158
-275.413	-200.000	0.001	0.077
-274.399	55.155	0.108	-0.103
-273.384	-144.464	0.106	0.010
-272.370	516.644	-0.077	0.178
-271.355	-143.841	0.097	-0.009
-270.340	203.303	-0.051	0.078
-269.326	269.357	0.092	0.160
-268.311	-52.652	-0.322	0.147
-267.297	-200.000	-0.013	0.365
-266.282	-187.725	0.294	-0.004
-265.267	79.455	-0.125	-0.132
-264.253	-25.410	-0.236	0.138
-263.238	-94.415	-0.305	0.082
-262.224	327.586	-0.155	0.294
-261.209	-147.412	-0.034	-0.003
-260.195	-200.000	0.047	-0.210
-259.180	-200.000	-0.005	0.072
-258.165	-200.000	-0.011	0.221
-257.151	-138.165	-0.042	-0.005
-256.136	-112.295	0.293	0.058
-255.122	800.000	-0.058	0.170
-254.107	-200.000	0.029	-0.172
-253.092	-200.000	-0.024	0.163
-252.078	-200.000	-0.017	0.140
-251.063	318.358	0.070	0.132
-250.049	339.781	-0.062	0.119
-249.034	47.703	0.259	0.240
-248.019	-71.550	0.173	-0.064
-247.005	-95.120	0.309	0.083
-245.990	-101.816	0.195	-0.047
-244.976	12.092	-0.102	0.077
-243.961	-200.000	0.034	-0.187
-242.946	800.000	-0.128	0.467
-241.932	4.192	-0.057	-0.042
-240.917	288.795	0.036	-0.064
-239.903	174.518	0.203	0.291
-238.888	78.334	0.225	0.238
-237.873	-54.245	0.355	0.159
-236.859	-112.812	-0.215	0.042
-235.844	-16.022	-0.214	0.135
-234.830	-200.000	-0.009	-0.363
-233.815	-173.409	-0.148	-0.004
-232.800	-200.000	-0.057	0.287
-231.786	-45.660	-0.176	-0.086
-230.771	-200.000	0.011	-0.071
-229.757	513.835	0.059	-0.136
-228.742	-52.039	0.308	-0.142
-227.727	800.000	-0.087	-0.289
-226.713	155.123	0.026	-0.035
-225.698	-29.273	0.184	-0.104
-224.684	-200.000	-0.043	-0.257
-223.669	-200.000	0.043	-0.229
-222.655	-152.104	0.144	0.010
-221.640	305.363	-0.038	0.069
-220.625	63.952	-0.082	0.081
-219.611	31.588	0.246	-0.209
-218.596	43.524	0.189	-0.171
-217.582	-200.000	-0.033	-0.000
-216.567	-200.000	0.025	-0.118
-215.552	59.100	0.174	0.170
-214.538	-140.209	-0.262	0.027
-213.523	67.363	0.174	0.175
-212.509	59.821	0.178	-0.174
-211.494	10.137	0.106	0.080
-210.479	-174.812	0.191	0.005
-209.465	-200.000	0.004	-0.387
-208.450	56.509	-0.195	0.187
-207.436	-200.000	-0.037	0.540
-206.421	294.188	-0.102	-0.185
-205.406	-153.340	-0.229	0.016
-204.392	42.689	0.193	-0.173
-203.377	423.470	0.101	-0.214
-202.363	-200.000	-0.011	-0.074
-201.348	766.335	-0.056	0.150
-200.333	-72.703	-0.265	0.097
-199.319	581.055	0.063	-0.153
-198.304	183.500	-0.226	0.330
-197.290	-61.874	0.052	0.021
-196.275	-95.814	-0.556	0.146
-195.260	-11.629	-0.224	-0.146
-194.246	115.126	0.250	0.301
-193.231	54.036	-0.292	-0.277
-192.217	-154.657	0.375	0.025
-191.202	800.000	-0.054	-0.159
-190.187	112.155	0.080	-0.095
-189.173	-32.672	-0.051	0.028
-188.158	-38.192	0.139	-0.073
-187.144	-38.812	0.229	0.119
-186.129	-125.557	-0.347	-0.052
-185.114	-200.000	0.005	-0.124
-184.100	-159.257	0.235	0.013
-183.085	-200.000	0.030	0.284
-182.071	-68.726	0.148	0.057
-181.056	66.477	0.101	-0.101
-180.042	727.200	-0.009	0.022
-179.027	639.321	0.091	0.227
-178.012	-3.381	0.139	0.095
-176.998	800.000	-0.144	-0.404
-175.983	-118.017	0.291	0.051
-174.969	-200.000	-0.029	-0.203
-173.954	199.852	-0.179	0.271
-172.939	-54.385	-0.026	-0.012
-171.925	157.984	0.040	0.055
-170.910	70.594	0.165	0.168
-169.896	-200.000	-0.061	0.000
-168.881	-200.000	-0.015	0.225
-167.866	-58.208	-0.123	-0.053
-166.852	6.100	0.018	-0.013
-165.837	-83.947	-0.083	0.026
-164.823	-200.000	-0.093	0.438
-163.808	124.958	-0.226	-0.280
-162.793	-200.000	-0.012	0.095
-161.779	-97.185	0.076	0.020
-160.764	-99.157	0.302	0.075
-159.750	763.484	0.086	0.231
-158.735	-99.222	-0.315	0.078
-157.720	-57.020	0.143	0.062
-156.706	-21.230	0.153	0.092
-155.691	241.285	0.148	-0.244
-154.677	3.561	0.541	-0.389
-153.662	-200.000	0.019	0.440
-152.647	-200.000	-0.018	0.224
-151.633	-43.431	0.346	-0.173
-150.618	800.000	-0.037	0.108
-149.604	-200.000	0.023	0.433
-148.589	243.834	0.064	0.106
-147.574	193.495	0.178	0.265
-146.560	-112.622	-0.241	-0.047
-145.545	800.000	0.088	-0.294
-144.531	-149.805	0.424	-0.033
-143.516	21.248	0.024	-0.019
-142.502	-139.227	-0.265	0.028
-141.487	3.028	0.204	0.146
-140.472	-200.000	0.139	-0.000
-139.458	800.000	0.088	-0.254
-138.443	800.000	-0.027	-0.087
-137.429	-53.560	-0.181	-0.082
-136.414	23.356	-0.193	-0.156
-135.399	166.684	0.192	0.269
-134.385	-61.548	-0.120	-0.050
-133.370	85.719	-0.112	0.121
-132.356	11.497	0.112	-0.084
-131.341	-200.000	0.316	0.000
-130.326	-54.175	0.197	-0.088
-129.312	-29.602	0.184	0.104
-128.297	-200.000	0.060	-0.315
-127.283	800.000	-0.135	-0.453
-126.268	-122.086	-0.018	-0.003
-125.253	800.000	-0.115	0.457
-124.239	26.216	0.166	0.136
-123.224	-22.970	0.181	-0.107
-122.210	172.867	-0.190	0.269
-121.195	800.000	0.066	0.220
-120.180	-133.206	-0.140	0.017
-119.166	-36.267	0.069	-0.037
-118.151	-200.000	-0.037	-0.191
-117.137	508.889	0.019	0.043
-116.122	263.470	0.033	0.056
-115.107	800.000	0.045	-0.156
-114.093	-44.596	-0.262	0.129
-113.078	800.000	-0.065	0.243
-112.064	391.529	0.072	-0.148
-111.049	-91.726	-0.358	0.100
-110.034	789.544	-0.069	-0.187
-109.020	-75.103	-0.150	-0.053
-108.005	92.595	0.162	-0.180
-106.991	-200.000	0.014	0.179
-105.976	-200.000	-0.023	0.326
-104.962	7.489	-0.139	-0.103
-103.947	-53.598	0.076	0.034
-102.932	4.590	-0.111	0.080
-101.918	495.307	-0.126	-0.284
-100.903	-34.852	0.213	-0.114
-99.889	-25.257	0.056	-0.032
-98.874	-93.796	0.080	0.022
-97.859	-14.667	0.304	0.192
-96.845	-24.826	-0.284	-0.166
-95.830	-113.407	0.287	0.055
-94.816	-133.212	0.231	-0.029
-93.801	112.821	0.089	0.106
-92.786	-175.989	0.215	0.006
-91.772	370.386	-0.070	0.139
-90.757	45.557	-0.115	-0.104
-89.743	129.250	-0.143	0.179
-88.728	-105.616	-0.097	0.022
-87.713	-6.406	0.135	0.091
-86.699	800.000	0.082	-0.228
-85.684	357.686	-0.152	0.299
-84.670	-73.836	0.211	-0.075
-83.655	-200.000	-0.011	-0.142
-82.640	526.928	-0.168	-0.390
-81.626	-105.891	-0.164	0.036
-80.611	-82.907	-0.405	0.129
-79.597	-21.176	0.082	-0.049
-78.582	-200.000	-0.015	-0.169
-77.567	38.068	-0.102	-0.089
-76.553	74.351	-0.132	-0.136
-75.538	-200.000	-0.007	-0.076
-74.524	157.731	-0.127	-0.174
-73.509	83.283	-0.243	-0.260
-72.494	-78.552	-0.389	-0.131
-71.480	132.657	0.269	-0.341
-70.465	737.896	-0.091	0.240
-69.451	800.000	0.050	-0.178
-68.436	-200.000	0.004	0.260
-67.422	-200.000	0.006	-0.113
-66.407	-122.755	-0.494	-0.078
-65.392	-200.000	-0.004	0.229
-64.378	499.437	-0.069	0.157
-63.363	-69.840	-0.275	0.103
-62.349	-101.975	0.350	-0.083
-61.334	41.587	-1.092	-0.971
-60.319	37.082	0.494	0.430
-59.305	800.000	-0.232	-0.790
-58.290	187.331	0.661	0.969
-57.276	800.000	0.444	1.635
-56.261	-200.000	102.153	600.954
-55.246	573.858	1428.892	3422.065
-54.232	188.690	2613.869	3840.283
-53.217	117.810	2138.458	2585.624
-52.203	43.110	1592.822	1426.979
-51.188	34.896	1329.554	1142.270
-50.173	31.609	1287.914	1087.397
-49.159	55.608	1340.191	1274.297
-48.144	56.875	1356.164	1296.924
-47.130	34.817	1312.410	1126.895
-46.115	31.390	1294.719	1091.691
-45.100	31.136	1290.004	1086.193
-44.086	31.089	1287.368	1083.653
-43.071	31.147	1284.824	1081.809
-42.057	31.100	1282.991	1079.949
-41.042	31.057	1281.818	1078.668
-40.027	31.230	1279.339	1077.539
-39.013	31.127	1278.019	1075.788
-37.998	31.049	1276.747	1074.229
-36.984	31.131	1274.514	1072.780
-35.969	31.282	1272.521	1071.923
-34.954	31.312	1270.724	1070.543
-33.940	31.213	1269.844	1069.190
-32.925	31.289	1268.451	1068.408
-31.911	31.297	1266.729	1066.963
-30.896	31.349	1265.482	1066.167
-29.881	31.319	1264.220	1064.891
-28.867	31.295	1262.827	1063.537
-27.852	31.241	1261.376	1061.969
-26.838	31.240	1259.999	1060.758
-25.823	31.274	1258.417	1059.581
-24.809	31.328	1257.133	1058.759
-23.794	31.299	1255.555	1057.229
-22.779	31.231	1254.547	1055.952
-21.765	31.281	1252.980	1054.871
-20.750	31.269	1252.035	1053.966
-19.736	31.210	1250.508	1052.305
-18.721	31.117	1249.777	1051.127
-17.706	31.157	1248.535	1050.264
-16.692	31.033	1247.602	1048.740
-15.677	31.086	1246.237	1047.851
-14.663	31.069	1245.260	1046.894
-13.648	31.193	1243.761	1046.286
-12.633	31.158	1242.580	1045.053
-11.619	31.171	1241.583	1044.246
-10.604	31.140	1241.011	1043.551
-9.590	31.121	1240.504	1042.976
-8.575	31.064	1239.225	1041.543
-7.560	31.071	1238.554	1040.974
-6.546	31.144	1237.515	1040.468
-5.531	31.034	1236.734	1039.155
-4.517	31.152	1235.661	1038.872
-3.502	31.247	1234.573	1038.442
-2.487	31.093	1234.461	1037.450
-1.473	30.930	1229.814	1032.601
-0.458	29.172	1214.769	1010.295
0.556	25.941	1195.628	966.845
1.571	21.596	1199.064	946.114
2.586	20.462	1212.643	950.546
3.600	19.778	1200.998	937.623
4.615	14.906	1131.487	858.332
5.629	7.380	1059.785	767.563
6.644	4.072	1040.790	737.995
7.659	3.632	1038.873	734.479
8.673	3.726	1037.480	733.875
9.688	3.771	1036.284	733.177
10.702	4.049	1034.308	733.033
11.717	8.091	1039.825	756.080
12.731	15.957	1050.621	801.425
13.746	20.305	1055.859	826.095
14.761	20.693	1055.710	827.750
15.775	19.767	1054.107	822.023
16.790	18.848	1051.955	815.908
17.804	18.161	1050.471	811.429
18.819	17.766	1049.345	808.612
19.834	17.630	1049.084	807.694
20.848	17.456	1048.306	806.200
21.863	17.289	1047.575	804.777
22.877	17.030	1046.993	803.032
23.892	17.118	1046.100	802.694
24.907	17.194	1045.053	802.178
25.921	17.145	1043.917	801.004
26.936	17.172	1042.879	800.264
27.950	17.151	1041.590	799.105
28.965	17.375	1039.988	798.857
29.980	17.484	1038.779	798.369
30.994	17.522	1037.920	797.818
32.009	17.489	1036.621	796.595
33.023	17.484	1035.599	795.715
34.038	17.384	1034.457	794.300
35.053	17.271	1033.619	793.055
36.067	17.276	1033.343	792.801
37.082	17.338	1032.426	792.313
38.096	17.367	1031.625	791.762
39.111	17.444	1030.534	791.213
40.126	17.356	1029.376	789.847
41.140	17.008	1028.409	787.421
42.155	16.933	1026.599	785.619
43.169	16.950	1025.723	784.956
44.184	16.855	1024.990	783.885
45.199	16.859	1023.914	783.012
46.213	17.080	1022.661	783.006
47.228	17.214	1021.893	782.967
48.242	17.313	1020.794	782.509
49.257	17.307	1020.054	781.848
50.271	17.248	1019.339	780.956
51.286	17.385	1018.478	780.855
52.301	17.378	1017.339	779.885
53.315	17.126	1016.462	777.989
54.330	17.083	1015.106	776.686
55.344	17.068	1014.529	776.107
56.359	17.118	1013.722	775.648
57.374	17.059	1013.066	774.807
58.388	16.993	1011.721	773.410
59.403	16.903	1011.140	772.487
60.417	16.855	1010.379	771.619
61.432	16.979	1009.431	771.391
62.447	16.687	1009.243	769.851
63.461	16.754	1007.916	769.076
64.476	16.661	1007.038	767.913
65.490	16.640	1006.347	767.224
66.505	16.808	1005.482	767.258
67.520	16.877	1004.861	767.029
68.534	16.925	1003.794	766.364
69.549	16.807	1003.513	765.547
70.563	16.704	1002.563	764.291
71.578	16.670	1001.635	763.363
72.593	16.605	1000.912	762.452
73.607	16.561	1000.666	761.996
74.622	16.681	999.822	761.828
75.636	16.731	999.037	761.389
76.651	16.680	998.151	760.416
77.666	16.554	997.869	759.566
78.680	16.683	997.343	759.679
79.695	16.657	996.937	759.186
80.709	16.935	996.224	759.822
81.724	16.978	995.540	759.424
82.739	16.999	995.072	759.095
83.753	17.361	994.177	759.964
84.768	17.371	993.623	759.516
85.782	17.594	992.618	759.674
86.797	17.592	991.314	758.600
87.812	17.280	991.028	756.927
88.826	17.384	989.799	756.382
89.841	17.286	989.192	755.415
90.855	17.557	987.866	755.542
91.870	17.498	987.560	754.979
92.884	17.511	986.250	753.967
93.899	17.563	985.303	753.408
94.914	17.541	984.901	752.934
95.928	17.582	983.614	752.064
96.943	17.453	982.657	750.700
97.957	17.383	981.833	749.693
98.972	17.427	980.860	749.078
99.987	17.509	980.214	748.879
101.001	17.390	979.354	747.635
102.016	17.367	978.828	747.064
103.030	17.508	977.829	746.855
104.045	17.397	977.050	745.706
105.060	17.353	975.948	744.607
106.074	17.053	975.154	742.625
107.089	16.985	974.006	741.384
108.103	16.765	973.096	739.668
109.118	16.986	971.871	739.635
110.133	16.780	971.235	738.188
111.147	16.945	969.826	737.768
112.162	16.918	969.854	737.608
113.176	16.999	968.932	737.195
114.191	17.140	968.289	737.252
115.206	16.970	967.793	736.071
116.220	16.967	966.704	735.162
117.235	17.034	965.837	734.729
118.249	17.002	964.820	733.752
119.264	16.849	964.105	732.481
120.279	16.944	962.872	731.892
121.293	16.800	962.661	731.046
122.308	16.844	961.271	730.113
123.322	16.688	960.780	729.005
124.337	16.593	959.740	727.742
125.352	16.809	958.296	727.512
126.366	16.664	957.631	726.320
127.381	16.649	956.401	725.257
128.395	16.733	955.625	724.965
129.410	16.857	954.656	724.695
130.424	16.815	954.170	724.084
131.439	16.929	953.771	724.203
132.454	17.104	952.285	723.756
133.468	16.972	951.909	722.845
134.483	17.083	950.837	722.439
135.497	17.160	949.804	721.917
136.512	17.051	949.436	721.113
137.527	17.059	948.760	720.569
138.541	17.143	948.119	720.374
139.556	17.109	947.246	719.504
140.570	17.321	946.966	720.123
141.585	17.322	946.037	719.356
142.600	17.438	945.207	719.155
143.614	17.608	944.072	718.942
144.629	17.449	943.537	717.802
145.643	17.428	943.014	717.254
146.658	17.361	941.560	715.799
147.673	17.227	940.621	714.460
148.687	17.150	939.884	713.515
149.702	17.002	939.094	712.231
150.716	17.176	938.231	712.240
151.731	17.073	937.983	711.557
152.746	17.140	936.944	710.991
153.760	17.229	936.555	711.002
154.775	17.380	935.714	710.934
155.789	17.281	935.501	710.294
156.804	17.349	934.521	709.771
157.819	17.400	933.768	709.348
158.833	17.541	933.211	709.449
159.848	17.612	932.664	709.268
160.862	17.532	931.487	707.978
161.877	17.326	930.373	706.211
162.892	17.178	929.224	704.662
163.906	17.165	928.315	703.858
164.921	17.212	927.417	703.308
165.935	17.077	927.321	702.615
166.950	17.208	926.523	702.489
167.964	17.308	925.198	701.836
168.979	17.255	923.819	700.510
169.994	17.255	923.292	700.049
171.008	17.374	922.771	700.081
172.023	17.514	922.034	700.038
173.037	17.557	921.960	700.093
174.052	17.416	920.856	698.614
175.067	17.118	920.213	696.842
176.081	16.987	919.608	695.786
177.096	17.171	919.201	696.171
178.110	17.104	918.771	695.511
179.125	17.313	917.648	695.454
180.140	17.354	917.161	695.188
181.154	17.455	917.307	695.652
182.169	17.655	916.682	695.931
183.183	17.567	916.065	695.046
184.198	17.578	915.108	694.300
185.213	17.576	914.541	693.801
186.227	17.652	914.117	693.729
187.242	17.638	913.534	693.166
188.256	17.792	912.728	693.119
189.271	17.847	911.770	692.554
190.286	17.591	910.782	690.704
191.300	17.152	910.019	688.288
192.315	17.157	909.359	687.747
193.329	17.064	909.265	687.237
194.344	17.290	908.607	687.593
195.359	17.349	907.854	687.201
196.373	17.487	907.526	687.448
197.388	17.740	907.039	688.041
198.402	17.842	906.276	687.814
199.417	17.773	906.582	687.705
200.432	17.952	905.992	687.918
201.446	18.068	905.516	687.962
202.461	18.178	904.809	687.807
203.475	17.883	904.259	686.141
204.490	17.955	902.737	685.214
205.504	17.871	902.471	684.615
206.519	17.743	901.441	683.261
207.534	17.766	900.890	682.874
208.548	17.854	900.439	682.826
209.563	17.873	899.483	682.116
210.577	17.714	899.090	681.121
211.592	17.880	898.647	681.390
212.607	18.092	897.757	681.500
213.621	18.015	897.026	680.577
214.636	17.992	896.636	680.131
215.650	18.058	895.654	679.586
216.665	18.024	895.455	679.241
217.680	18.150	894.914	679.272
218.694	18.222	893.730	678.598
219.709	18.087	892.982	677.435
220.723	18.060	892.295	676.748
221.738	18.114	891.996	676.672
222.753	18.170	891.281	676.292
223.767	18.165	890.990	675.993
224.782	18.341	890.550	676.293
225.796	18.300	889.715	675.440
226.811	18.241	888.971	674.584
227.826	18.111	888.266	673.475
228.840	18.170	887.233	672.865
229.855	18.142	886.794	672.363
230.869	18.051	885.994	671.337
231.884	17.967	885.440	670.529
232.899	18.044	884.581	670.120
233.913	17.810	883.987	668.694
234.928	17.945	883.198	668.567
235.942	17.854	882.566	667.675
236.957	17.957	882.234	667.766
237.972	17.912	881.902	667.280
238.986	17.990	880.973	666.822
240.001	17.965	880.314	666.168
241.015	18.131	879.727	666.310
242.030	18.065	879.372	665.725
243.045	18.092	879.236	665.670
244.059	18.064	878.388	664.859
245.074	18.265	877.930	665.235
246.088	18.320	877.007	664.691
247.103	18.281	876.933	664.426
248.117	18.482	876.412	664.751
249.132	18.707	875.839	665.131
250.147	18.776	875.421	665.019
251.161	18.867	874.661	664.734
252.176	18.887	873.746	664.058
253.190	18.775	873.571	663.433
254.205	18.899	872.482	663.029
255.220	19.016	871.843	662.935
256.234	18.765	872.012	662.036
257.249	18.824	870.848	661.322
258.263	18.916	869.678	660.726
259.278	18.928	869.330	660.451
260.293	18.990	868.954	660.345
261.307	19.160	868.327	660.464
262.322	19.066	868.028	659.816
263.336	19.089	867.249	659.255
264.351	19.126	866.284	658.602
265.366	19.104	865.801	658.092
266.380	19.080	865.057	657.378
267.395	19.038	864.481	656.722
268.409	19.061	863.453	655.969
269.424	18.917	862.944	654.977
270.439	18.891	861.981	654.089
271.453	18.861	861.379	653.462
272.468	18.759	861.141	652.833
273.482	18.901	860.137	652.553
274.497	18.650	859.988	651.430
275.512	18.814	859.430	651.574
276.526	18.914	858.856	651.459
277.541	19.037	858.377	651.503
278.555	19.009	858.121	651.146
279.570	19.205	857.729	651.533
280.585	19.195	856.690	650.646
281.599	19.091	855.716	649.457
282.614	18.934	855.020	648.281
283.628	18.903	854.598	647.787
284.643	18.857	854.066	647.154
285.657	19.062	853.318	647.300
286.672	19.022	852.795	646.697
287.687	19.054	852.125	646.249
288.701	18.989	851.976	645.836
289.716	19.091	851.057	645.464
290.730	19.088	850.897	645.276
291.745	19.040	850.329	644.606
292.760	19.165	849.874	644.675
293.774	19.397	848.887	644.733
294.789	19.195	848.319	643.490
295.803	19.286	847.344	643.035
296.818	19.076	847.024	641.952
297.833	19.033	846.552	641.378
298.847	19.171	845.668	641.166
299.862	19.134	845.012	640.472
300.876	19.364	844.867	641.162
301.891	19.474	844.028	640.878
302.906	19.434	843.953	640.613
303.920	19.488	843.673	640.547
304.935	19.678	842.904	640.610
305.949	19.549	842.100	639.464
306.964	19.492	841.516	638.752
307.979	19.475	840.704	638.016
308.993	19.637	840.057	638.068
310.008	19.596	839.889	637.735
311.022	19.459	839.463	636.849
312.037	19.360	838.594	635.768
313.052	19.181	838.044	634.632
314.066	19.143	837.486	634.014
315.081	19.259	836.572	633.694
316.095	19.168	836.400	633.173
317.110	19.146	835.950	632.696
318.125	19.160	835.415	632.284
319.139	19.225	834.758	631.973
320.154	19.405	834.134	632.101
321.168	19.433	833.506	631.672
322.183	19.435	833.030	631.265
323.197	19.351	832.802	630.729
324.212	19.412	831.981	630.273
325.227	19.437	831.344	629.825
326.241	19.372	830.850	629.161
327.256	19.177	830.744	628.312
328.270	19.332	829.953	628.224
329.285	19.296	829.194	627.460
330.300	19.358	828.864	627.382
331.314	19.264	828.708	626.865
332.329	19.553	828.014	627.336
333.343	19.656	827.584	627.329
334.358	19.533	827.334	626.638
335.373	19.648	826.890	626.663
336.387	19.831	826.588	627.041
337.402	19.654	826.344	626.160
338.416	19.831	826.181	626.622
339.431	20.024	825.724	626.920
340.446	19.915	825.591	626.368
341.460	19.931	825.178	626.058
342.475	20.114	824.769	626.352
343.489	20.115	824.398	626.019
344.504	20.265	823.774	626.031
345.519	20.081	823.432	625.051
346.533	19.986	822.841	624.206
347.548	19.952	821.957	623.357
348.562	19.833	821.543	622.559
349.577	19.677	820.721	621.320
350.592	19.849	819.992	621.331
351.606	19.680	819.630	620.397
352.621	19.804	819.001	620.310
353.635	19.865	818.123	619.809
354.650	19.913	817.260	619.273
355.665	19.827	817.362	618.985
356.679	20.055	816.302	618.942
357.694	19.966	815.896	618.263
358.708	19.951	815.243	617.660
359.723	20.024	814.604	617.382
360.738	19.952	814.404	616.921
361.752	20.128	813.450	616.766
362.767	20.140	813.098	616.490
363.781	20.220	812.638	616.370
364.796	20.355	812.497	616.687
365.810	20.514	811.821	616.684
366.825	20.573	811.501	616.595
367.840	20.337	811.320	615.569
368.854	20.274	810.728	614.840
369.869	20.116	810.467	614.030
370.883	20.211	809.822	613.821
371.898	20.329	809.576	614.001
372.913	20.520	808.626	613.898
373.927	20.410	808.430	613.308
374.942	20.446	807.777	612.886
375.956	20.592	807.299	612.980
376.971	20.681	807.151	613.129
377.986	20.625	807.097	612.837
379.000	20.792	806.277	612.747
380.015	20.687	805.803	611.964
381.029	20.731	804.857	611.345
382.044	20.759	804.499	611.118
383.059	20.721	803.842	610.432
384.073	20.678	803.490	609.959
385.088	20.451	802.872	608.640
386.102	20.541	802.051	608.279
387.117	20.521	801.510	607.746
388.132	20.461	801.103	607.172
389.146	20.457	800.565	606.697
390.161	20.624	800.179	606.934
391.175	20.692	799.697	606.752
392.190	20.525	798.930	605.535
393.205	20.549	798.557	605.282
394.219	20.575	798.139	605.003
395.234	20.275	798.086	603.864
396.248	20.340	797.400	603.517
397.263	20.308	796.654	602.788
398.278	20.216	796.525	602.320
399.292	20.232	796.350	602.188
400.307	20.259	795.981	601.949
401.321	20.368	794.904	601.461
402.336	20.381	794.643	601.253
403.350	20.425	794.460	601.214
404.365	20.679	793.842	601.574
405.380	20.999	793.415	602.302
406.394	20.945	792.945	601.707
407.409	20.946	792.519	601.332
408.423	21.126	792.433	601.836
409.438	21.103	791.917	601.311
410.453	20.911	791.861	600.552
411.467	21.055	791.205	600.499
412.482	21.146	790.966	600.578
413.496	21.264	790.654	600.690
414.511	21.280	790.183	600.336
415.526	21.019	789.428	598.815
416.540	21.102	788.804	598.572
417.555	21.098	788.532	598.299
418.569	21.068	788.203	597.893
419.584	21.221	787.739	598.012
420.599	21.071	787.182	597.024
421.613	161.795	1370.113	1793.154
422.628	140.057	1455.054	1793.228
