DTS Sentinel unit serial number:	SN413079Multiplexer serial number:	ORYXHardware model number:	OX4-SRSoftware version number:	ORYX F/W v4.00 Oryx Data Collector v3.7.2.0data status	okinstallation	princeton_trtdifferential loss correction	single-endedforward channel	channel 1reverse channel	N/Adate	2019/09/14time	11:30:35forward acquisition time	60.00reverse acquisition time	0.00gamma	496.2192k internal	0.2298k external	0.2298temperature offset calibration	1.0089default loss term (dB/km)	0.3790temperature slope calibration	1.0000multiplexer offset coefficient	1.0000multiplexer slope coefficient	1.0000fibre end	0.00T internal ref (°C)	36.80T ext. ref 1 (°C)	4.55T ext. ref 2 (°C)	32.66length (m)	temperature (°C)	Stokes	anti-Stokes-747.200	-200.000	0.057	0.386
-746.185	-59.531	-0.371	0.163
-745.171	-9.402	-0.106	0.072
-744.156	653.027	0.119	0.311
-743.142	-64.867	0.256	-0.106
-742.127	290.203	0.038	-0.071
-741.112	800.000	0.045	-0.175
-740.098	-200.000	0.037	0.396
-739.083	341.019	0.095	0.190
-738.069	20.327	-0.245	-0.202
-737.054	-4.582	0.067	-0.047
-736.039	85.144	-0.378	-0.424
-735.025	-123.638	0.217	0.035
-734.010	-200.000	-0.005	0.028
-732.996	-87.040	-0.096	-0.030
-731.981	-200.000	-0.019	0.451
-730.966	-69.247	-0.188	-0.074
-729.952	70.889	-0.256	-0.270
-728.937	800.000	0.023	0.104
-727.923	-200.000	-0.016	0.338
-726.908	251.716	0.097	-0.168
-725.894	53.260	0.364	-0.356
-724.879	90.615	-0.225	-0.258
-723.864	-200.000	-0.002	0.316
-722.850	-68.589	-0.421	-0.167
-721.835	-160.348	-0.198	-0.011
-720.821	800.000	0.056	-0.206
-719.806	46.856	-0.094	0.089
-718.791	-175.992	0.183	0.005
-717.777	800.000	-0.038	-0.155
-716.762	-93.431	-0.171	0.048
-715.748	-161.664	0.403	0.021
-714.733	334.938	0.074	0.145
-713.718	-6.427	-0.155	0.108
-712.704	800.000	-0.106	-0.362
-711.689	257.121	-0.104	-0.182
-710.675	-103.387	-0.076	-0.018
-709.660	-51.342	0.218	-0.104
-708.645	20.652	-0.086	-0.071
-707.631	-102.227	0.152	0.037
-706.616	-199.584	0.133	-0.001
-705.602	-200.000	0.006	0.052
-704.587	517.078	-0.131	-0.312
-703.572	800.000	-0.082	-0.335
-702.558	460.702	0.024	-0.054
-701.543	-200.000	0.027	-0.151
-700.529	800.000	0.089	-0.282
-699.514	-100.504	0.247	-0.062
-698.499	-200.000	0.042	-0.266
-697.485	-200.000	0.035	-0.235
-696.470	-95.772	-0.052	-0.014
-695.456	800.000	0.050	-0.186
-694.441	800.000	-0.079	-0.328
-693.426	-158.460	-0.291	0.017
-692.412	-95.548	-0.222	0.061
-691.397	-93.064	-0.315	-0.089
-690.383	36.143	0.218	0.196
-689.368	800.000	-0.144	-0.438
-688.354	116.477	-0.097	0.122
-687.339	-200.000	-0.029	0.197
-686.324	-131.471	-0.111	-0.015
-685.310	-152.723	-0.326	-0.024
-684.295	-90.386	0.054	-0.016
-683.281	-29.826	-0.348	-0.202
-682.266	-37.198	0.188	0.102
-681.251	-200.000	0.004	0.207
-680.237	13.579	0.086	0.068
-679.222	-58.247	-0.163	-0.072
-678.208	-200.000	0.043	0.215
-677.193	-200.000	0.006	-0.197
-676.178	60.932	0.109	-0.110
-675.164	-200.000	0.028	0.205
-674.149	19.934	0.125	0.102
-673.135	-37.682	-0.047	0.025
-672.120	-8.937	0.160	0.109
-671.105	-200.000	0.022	0.143
-670.091	181.550	0.033	-0.049
-669.076	-200.000	-0.036	-0.226
-668.062	-81.851	0.366	0.122
-667.047	724.079	0.081	0.221
-666.032	190.765	-0.104	-0.160
-665.018	800.000	0.060	-0.223
-664.003	-50.719	0.148	-0.071
-662.989	752.895	-0.171	-0.470
-661.974	-6.130	-0.147	-0.102
-660.959	800.000	0.039	0.164
-659.945	-73.506	-0.235	0.087
-658.930	800.000	-0.061	-0.266
-657.916	139.641	0.180	-0.241
-656.901	174.937	0.101	0.149
-655.886	-90.834	0.292	0.086
-654.872	-161.861	0.300	0.016
-653.857	-200.000	-0.006	0.116
-652.843	-114.781	0.202	-0.039
-651.828	365.509	0.034	-0.070
-650.814	106.862	0.027	-0.033
-649.799	8.238	0.143	0.110
-648.784	77.977	0.172	-0.186
-647.770	10.620	0.128	-0.100
-646.755	-121.134	0.417	-0.071
-645.741	-80.161	-0.588	-0.200
-644.726	-48.859	-0.142	-0.069
-643.711	343.977	-0.078	-0.155
-642.697	-87.639	0.134	-0.041
-641.682	-75.306	-0.286	-0.104
-640.668	83.034	-0.154	0.170
-639.653	-200.000	-0.001	0.220
-638.638	285.233	-0.150	0.274
-637.624	42.178	0.209	0.193
-636.609	-158.878	-0.034	-0.002
-635.595	-97.800	0.325	0.085
-634.580	113.669	0.235	0.290
-633.565	800.000	-0.018	-0.067
-632.551	195.377	0.094	-0.145
-631.536	-1.896	-0.179	0.128
-630.522	-149.594	0.189	-0.015
-629.507	-39.567	0.169	-0.090
-628.492	84.806	-0.165	0.184
-627.478	-40.773	0.147	-0.077
-626.463	-127.425	-0.175	0.026
-625.449	39.083	0.156	0.142
-624.434	-82.971	0.045	-0.015
-623.419	366.423	-0.076	0.157
-622.405	800.000	-0.038	0.152
-621.390	-101.747	0.228	-0.056
-620.376	189.342	-0.061	-0.092
-619.361	-24.352	-0.187	0.113
-618.346	-98.243	-0.128	-0.033
-617.332	-148.638	0.386	0.032
-616.317	-182.763	-0.101	-0.002
-615.303	654.192	0.026	0.069
-614.288	221.164	-0.058	0.095
-613.273	-61.024	-0.237	0.102
-612.259	-9.789	-0.280	-0.189
-611.244	31.113	0.143	-0.125
-610.230	90.764	0.138	0.158
-609.215	3.121	0.232	0.171
-608.201	28.896	0.182	-0.157
-607.186	-76.017	-0.108	-0.039
-606.171	316.209	0.046	0.088
-605.157	404.317	-0.062	-0.132
-604.142	341.055	-0.102	0.203
-603.128	28.160	-0.351	0.300
-602.113	5.930	0.226	0.170
-601.098	-75.694	0.127	0.046
-600.084	-200.000	0.052	-0.285
-599.069	794.460	-0.039	-0.109
-598.055	118.583	0.114	-0.143
-597.040	-181.748	0.302	-0.006
-596.025	-127.284	0.179	-0.026
-595.011	13.072	-0.151	0.118
-593.996	88.625	0.310	0.350
-592.982	800.000	-0.135	0.386
-591.967	321.860	0.194	0.375
-590.952	-200.000	0.022	-0.126
-589.938	-75.592	0.196	-0.071
-588.923	-110.310	-0.169	-0.036
-587.909	-93.449	-0.207	-0.058
-586.894	120.378	-0.079	-0.100
-585.879	-41.264	0.267	-0.140
-584.865	-200.000	0.049	-0.220
-583.850	-200.000	0.002	0.086
-582.836	800.000	-0.016	-0.051
-581.821	616.011	0.096	0.245
-580.806	4.548	0.142	0.106
-579.792	35.543	0.185	-0.165
-578.777	21.693	0.270	0.223
-577.763	800.000	-0.077	0.316
-576.748	-121.255	0.400	-0.068
-575.733	15.665	0.154	-0.123
-574.719	-17.456	0.127	0.081
-573.704	-200.000	0.036	0.190
-572.690	71.290	0.053	-0.056
-571.675	-72.458	-0.231	0.087
-570.661	137.260	0.156	-0.207
-569.646	23.442	-0.023	-0.019
-568.631	-113.402	0.180	0.036
-567.617	147.326	0.058	-0.079
-566.602	200.238	0.084	-0.131
-565.588	800.000	0.091	0.332
-564.573	-36.275	0.335	0.183
-563.558	-28.104	0.228	0.134
-562.544	800.000	-0.048	-0.143
-561.529	40.576	0.087	-0.080
-560.515	-151.177	0.112	0.009
-559.500	41.321	0.141	-0.129
-558.485	-17.408	0.116	0.074
-557.471	1.528	0.161	0.117
-556.456	-3.780	0.110	0.077
-555.442	217.101	0.213	-0.344
-554.427	168.079	-0.134	-0.193
-553.412	-149.711	-0.198	-0.016
-552.398	462.356	0.016	0.037
-551.383	-88.218	0.167	0.051
-550.369	-97.278	-0.177	-0.047
-549.354	-79.478	0.076	0.026
-548.339	221.461	0.201	0.328
-547.325	800.000	0.048	0.197
-546.310	-45.613	-0.239	-0.120
-545.296	-81.715	-0.149	-0.050
-544.281	92.237	-0.205	-0.234
-543.266	288.985	0.156	0.287
-542.252	-200.000	0.060	-0.283
-541.237	18.981	-0.222	-0.181
-540.223	19.259	-0.108	0.088
-539.208	-107.937	0.007	-0.002
-538.193	143.119	-0.175	-0.236
-537.179	-85.649	-0.376	-0.118
-536.164	800.000	-0.011	0.031
-535.150	800.000	0.108	0.406
-534.135	49.835	0.077	-0.073
-533.121	-6.903	0.171	-0.118
-532.106	39.770	0.108	0.099
-531.091	-200.000	0.021	0.264
-530.077	-1.060	-0.088	0.063
-529.062	536.628	0.086	-0.207
-528.048	-109.762	0.552	0.117
-527.033	-0.188	-0.011	-0.008
-526.018	182.873	0.073	0.109
-525.004	38.403	0.220	0.198
-523.989	17.931	0.069	-0.056
-522.975	-70.584	-0.345	-0.132
-521.960	800.000	0.097	-0.271
-520.945	109.822	-0.221	0.268
-519.931	-87.744	-0.087	-0.027
-518.916	-200.000	0.000	0.028
-517.902	-127.461	-0.086	0.013
-516.887	-76.406	0.039	0.014
-515.872	800.000	0.060	0.182
-514.858	-45.654	0.300	-0.150
-513.843	-47.719	-0.137	0.067
-512.829	-40.128	-0.237	0.125
-511.814	-125.708	0.440	-0.067
-510.799	-11.130	-0.249	-0.166
-509.785	-79.165	-0.183	-0.063
-508.770	800.000	-0.029	-0.122
-507.756	-200.000	-0.001	0.049
-506.741	-2.541	-0.135	0.095
-505.726	-11.487	0.375	0.249
-504.712	-200.000	0.023	-0.123
-503.697	-19.421	-0.287	-0.180
-502.683	80.285	0.102	-0.111
-501.668	535.996	0.180	-0.431
-500.653	-107.914	-0.034	-0.007
-499.639	-89.354	-0.191	-0.057
-498.624	247.206	0.080	0.136
-497.610	2.382	0.328	-0.240
-496.595	-141.454	-0.204	-0.021
-495.581	-4.902	0.185	0.129
-494.566	800.000	0.049	-0.193
-493.551	60.282	0.135	0.135
-492.537	-107.229	-0.372	0.083
-491.522	-200.000	0.026	0.124
-490.508	143.399	0.081	0.109
-489.493	-153.461	0.056	0.004
-488.478	-21.810	-0.222	0.136
-487.464	163.092	-0.079	0.112
-486.449	-82.554	0.375	0.123
-485.435	365.662	-0.145	-0.296
-484.420	608.378	-0.039	-0.098
-483.405	134.964	0.114	0.150
-482.391	63.727	0.058	-0.059
-481.376	52.254	-0.091	-0.087
-480.362	-56.591	-0.185	-0.083
-479.347	-200.000	0.014	-0.107
-478.332	-200.000	0.002	-0.293
-477.318	473.833	-0.056	-0.127
-476.303	153.261	-0.109	0.151
-475.289	-200.000	-0.043	-0.262
-474.274	311.047	0.169	-0.320
-473.259	106.039	-0.021	0.025
-472.245	-200.000	0.022	-0.252
-471.230	22.408	0.222	-0.183
-470.216	-72.374	-0.158	0.059
-469.201	-15.011	-0.094	0.061
-468.186	-100.944	-0.183	-0.045
-467.172	-200.000	-0.001	-0.333
-466.157	-106.659	-0.332	-0.075
-465.143	-190.865	0.297	0.003
-464.128	-52.011	-0.088	0.041
-463.113	51.737	-0.370	-0.356
-462.099	80.073	0.195	-0.212
-461.084	86.111	0.172	0.191
-460.070	-200.000	-0.065	0.332
-459.055	-23.104	-0.172	-0.105
-458.040	800.000	0.063	0.183
-457.026	126.586	0.151	0.193
-456.011	-46.919	0.287	-0.142
-454.997	275.844	-0.120	0.215
-453.982	749.799	-0.091	0.248
-452.968	-42.421	-0.148	0.076
-451.953	162.246	-0.082	0.116
-450.938	220.255	0.046	-0.074
-449.924	800.000	0.034	0.131
-448.909	-29.635	-0.166	-0.095
-447.895	-194.163	-0.098	-0.001
-446.880	-59.450	0.106	-0.046
-445.865	-95.041	0.357	-0.097
-444.851	-200.000	0.018	-0.116
-443.836	-59.992	-0.210	-0.091
-442.822	-94.239	0.034	-0.009
-441.807	-47.183	0.251	-0.123
-440.792	800.000	0.133	0.431
-439.778	537.805	0.096	-0.230
-438.763	183.915	-0.176	-0.263
-437.749	-200.000	0.009	0.436
-436.734	-200.000	-0.005	0.126
-435.719	517.632	0.051	-0.121
-434.705	1.124	-0.246	-0.178
-433.690	-19.212	0.113	0.071
-432.676	366.038	0.062	0.127
-431.661	-128.748	-0.306	-0.044
-430.646	-103.351	-0.090	0.021
-429.632	800.000	-0.025	0.083
-428.617	15.703	-0.017	0.013
-427.603	-175.987	-0.075	-0.002
-426.588	19.713	-0.020	0.016
-425.573	-200.000	0.075	0.458
-424.559	-81.329	-0.220	-0.073
-423.544	-200.000	-0.042	-0.201
-422.530	115.788	0.215	-0.265
-421.515	207.298	0.091	-0.143
-420.500	-87.526	-0.097	0.030
-419.486	-200.000	0.022	0.213
-418.471	-6.494	-0.178	-0.122
-417.457	-200.000	0.019	0.151
-416.442	-89.734	-0.272	-0.080
-415.428	383.573	0.140	0.291
-414.413	800.000	0.059	0.196
-413.398	-99.963	0.217	-0.055
-412.384	-92.381	-0.210	-0.060
-411.369	-185.427	-0.159	0.002
-410.355	800.000	0.037	0.160
-409.340	800.000	-0.019	0.078
-408.325	-200.000	-0.028	0.157
-407.311	-162.786	0.312	-0.015
-406.296	80.580	-0.070	0.076
-405.282	77.257	-0.158	0.170
-404.267	-200.000	0.015	-0.137
-403.252	17.677	-0.134	-0.108
-402.238	138.992	0.203	-0.269
-401.223	1.704	-0.277	0.201
-400.209	93.573	-0.138	0.157
-399.194	-91.911	0.135	-0.038
-398.179	36.783	-0.205	0.182
-397.165	300.477	0.026	-0.048
-396.150	-100.615	-0.222	0.055
-395.136	-182.349	-0.211	0.004
-394.121	-89.539	0.214	0.063
-393.106	-179.195	-0.268	-0.006
-392.092	-200.000	0.014	0.204
-391.077	134.389	0.025	-0.032
-390.063	-31.863	0.254	-0.143
-389.048	578.767	-0.028	-0.068
-388.033	84.206	-0.249	-0.274
-387.019	-92.773	0.170	-0.048
-386.004	50.285	0.144	-0.137
-384.990	-118.342	-0.050	0.009
-383.975	18.945	0.092	0.074
-382.960	-200.000	0.024	0.257
-381.946	6.745	0.136	0.102
-380.931	800.000	0.026	-0.095
-379.917	-200.000	-0.037	-0.354
-378.902	-111.247	0.354	-0.073
-377.888	-200.000	0.007	-0.047
-376.873	57.014	0.259	-0.254
-375.858	-102.730	-0.297	0.071
-374.844	-75.622	-0.147	0.053
-373.829	-81.584	0.150	-0.050
-372.815	-99.391	-0.149	-0.038
-371.800	-200.000	0.011	0.196
-370.785	800.000	-0.079	0.278
-369.771	491.328	-0.023	-0.054
-368.756	-72.916	-0.168	-0.062
-367.742	-71.212	-0.014	-0.005
-366.727	607.609	0.080	-0.202
-365.712	-47.480	0.314	-0.154
-364.698	-200.000	-0.012	-0.056
-363.683	-87.423	-0.257	-0.078
-362.669	-84.907	-0.248	-0.078
-361.654	-200.000	0.052	0.252
-360.639	234.020	0.015	0.025
-359.625	-200.000	-0.010	-0.293
-358.610	-25.410	-0.314	-0.187
-357.596	199.422	0.133	-0.205
-356.581	-177.479	-0.214	0.005
-355.566	119.475	0.215	-0.268
-354.552	-36.837	-0.203	-0.110
-353.537	-112.022	-0.320	-0.065
-352.523	800.000	0.048	0.137
-351.508	-92.027	-0.418	-0.119
-350.493	-16.949	0.156	0.099
-349.479	152.598	-0.148	-0.203
-348.464	-200.000	0.032	-0.180
-347.450	61.970	-0.181	0.181
-346.435	38.844	0.030	0.027
-345.420	378.541	-0.174	0.357
-344.406	-21.571	0.156	0.096
-343.391	-53.387	0.108	0.050
-342.377	-135.079	0.138	0.017
-341.362	-154.658	0.290	-0.019
-340.348	-136.501	-0.092	-0.011
-339.333	183.387	-0.095	0.141
-338.318	-182.573	-0.182	0.003
-337.304	43.533	0.136	-0.125
-336.289	75.533	-0.273	-0.289
-335.275	35.080	-0.261	-0.230
-334.260	372.519	-0.213	-0.435
-333.245	-52.765	-0.202	0.094
-332.231	412.029	0.109	-0.233
-331.216	3.988	0.057	-0.042
-330.202	-200.000	-0.002	-0.361
-329.187	378.588	-0.183	0.375
-328.172	-115.892	-0.219	0.041
-327.158	6.747	-0.270	-0.202
-326.143	-200.000	-0.010	0.101
-325.129	-200.000	0.038	-0.224
-324.114	-200.000	-0.055	-0.348
-323.099	-159.695	-0.213	-0.012
-322.085	-24.457	0.023	-0.014
-321.070	100.939	0.190	-0.222
-320.056	-12.474	-0.215	0.141
-319.041	279.906	0.022	-0.039
-318.026	224.011	-0.021	0.033
-317.012	-11.000	-0.174	0.116
-315.997	-52.710	-0.247	0.114
-314.983	-127.270	0.068	0.010
-313.968	-93.581	-0.132	0.037
-312.953	-34.879	-0.201	0.110
-311.939	134.944	-0.184	0.239
-310.924	5.040	-0.096	0.071
-309.910	800.000	-0.042	-0.139
-308.895	-55.846	-0.173	0.077
-307.880	415.873	0.122	0.261
-306.866	-200.000	-0.001	0.177
-305.851	-132.293	-0.067	-0.009
-304.837	-48.375	0.052	0.025
-303.822	36.110	0.237	0.210
-302.807	-200.000	-0.023	0.133
-301.793	-36.287	0.094	-0.051
-300.778	102.093	-0.132	-0.155
-299.764	467.075	0.072	-0.161
-298.749	-121.291	0.471	0.079
-297.735	23.329	0.241	-0.199
-296.720	314.748	-0.101	0.190
-295.705	82.410	0.130	-0.142
-294.691	-28.594	0.342	0.197
-293.676	-106.132	0.217	-0.049
-292.662	-200.000	-0.003	-0.123
-291.647	-93.397	0.124	-0.034
-290.632	-113.563	-0.118	0.023
-289.618	800.000	0.123	0.384
-288.603	79.082	-0.151	0.162
-287.589	-134.464	-0.207	0.025
-286.574	800.000	0.003	0.010
-285.559	221.409	0.199	0.320
-284.545	-200.000	0.028	0.134
-283.530	-87.689	0.119	0.036
-282.516	-130.110	-0.405	-0.055
-281.501	800.000	-0.082	-0.336
-280.486	-138.496	0.103	0.011
-279.472	-21.874	0.033	-0.020
-278.457	-200.000	-0.003	-0.231
-277.443	-200.000	-0.034	0.205
-276.428	32.834	-0.166	-0.144
-275.413	201.150	-0.074	0.114
-274.399	-197.916	-0.304	0.002
-273.384	-200.000	-0.003	-0.035
-272.370	-200.000	-0.016	-0.272
-271.355	197.740	0.130	-0.199
-270.340	-38.520	-0.089	0.047
-269.326	169.945	-0.186	-0.267
-268.311	-78.014	-0.128	0.044
-267.297	-112.630	0.013	-0.003
-266.282	-200.000	-0.030	-0.143
-265.267	-9.614	0.202	0.135
-264.253	182.978	0.031	0.046
-263.238	126.118	0.272	-0.345
-262.224	-200.000	0.007	-0.102
-261.209	-34.184	0.093	-0.051
-260.195	-123.426	-0.016	-0.003
-259.180	-167.291	0.039	0.002
-258.165	-138.265	0.397	0.044
-257.151	-8.746	-0.145	-0.098
-256.136	130.942	0.091	0.116
-255.122	-29.820	-0.260	0.149
-254.107	-200.000	-0.023	0.103
-253.092	263.926	0.144	0.250
-252.078	263.592	-0.218	0.380
-251.063	-24.414	-0.159	0.095
-250.049	-75.051	0.112	0.040
-249.034	-56.869	0.272	0.121
-248.019	-77.227	0.243	0.085
-247.005	84.920	-0.165	0.181
-245.990	-200.000	0.117	-0.515
-244.976	-90.120	0.208	0.061
-243.961	50.928	0.179	0.170
-242.946	298.384	-0.107	-0.197
-241.932	-200.000	0.012	-0.184
-240.917	137.752	-0.103	-0.136
-239.903	-128.757	-0.245	-0.035
-238.888	475.701	-0.064	0.145
-237.873	55.506	0.090	0.087
-236.859	654.359	-0.151	-0.388
-235.844	572.200	0.087	0.211
-234.830	-129.686	-0.212	0.029
-233.815	-62.066	0.171	-0.072
-232.800	36.577	-0.165	-0.146
-231.786	-200.000	0.021	0.277
-230.771	-89.052	0.229	0.068
-229.757	-200.000	0.037	-0.317
-228.742	-108.844	-0.245	0.052
-227.727	-85.964	0.062	-0.019
-226.713	800.000	0.095	-0.291
-225.698	-26.131	-0.095	0.056
-224.684	-200.000	-0.026	0.227
-223.669	330.722	-0.072	0.139
-222.655	-200.000	-0.001	-0.264
-221.640	-85.076	0.417	0.131
-220.625	-32.612	-0.149	-0.083
-219.611	-20.030	0.179	0.110
-218.596	5.811	0.279	0.206
-217.582	-200.000	-0.061	0.287
-216.567	-200.000	0.001	-0.107
-215.552	728.109	-0.084	-0.224
-214.538	14.477	-0.100	-0.078
-213.523	456.509	-0.066	0.146
-212.509	562.381	0.094	0.226
-211.494	388.875	0.116	0.240
-210.479	-67.397	0.351	-0.138
-209.465	-138.152	-0.265	0.029
-208.450	800.000	0.069	-0.276
-207.436	-119.717	-0.026	-0.005
-206.421	-93.391	-0.425	0.118
-205.406	-84.048	0.123	-0.039
-204.392	17.146	-0.170	-0.134
-203.377	279.771	0.163	0.291
-202.363	-122.444	-0.021	0.003
-201.348	-150.081	-0.329	0.026
-200.333	208.406	0.116	0.182
-199.319	16.999	-0.106	-0.084
-198.304	-110.337	-0.117	-0.024
-197.290	800.000	-0.093	0.299
-196.275	27.676	-0.117	0.098
-195.260	219.296	0.069	-0.111
-194.246	619.502	0.015	-0.037
-193.231	-171.183	0.192	-0.006
-192.217	800.000	0.061	-0.228
-191.202	86.604	0.206	-0.227
-190.187	-17.323	-0.043	0.027
-189.173	61.054	-0.136	0.135
-188.158	-73.289	0.035	-0.013
-187.144	0.021	-0.029	-0.021
-186.129	337.014	0.079	-0.154
-185.114	-200.000	-0.021	-0.100
-184.100	800.000	0.025	0.072
-183.085	56.630	-0.114	0.111
-182.071	171.862	-0.333	-0.477
-181.056	126.714	-0.048	0.061
-180.042	-104.572	-0.252	0.058
-179.027	-101.320	-0.340	0.083
-178.012	800.000	0.021	0.060
-176.998	51.312	0.170	-0.161
-175.983	479.614	0.096	0.217
-174.969	69.727	-0.228	-0.235
-173.954	251.471	0.038	-0.064
-172.939	797.255	0.077	0.211
-171.925	-111.943	0.376	0.076
-170.910	-13.509	-0.115	0.075
-169.896	687.912	0.027	-0.071
-168.881	2.874	-0.064	-0.047
-167.866	109.578	0.113	0.136
-166.852	685.562	0.049	0.129
-165.837	411.465	0.101	-0.213
-164.823	-30.898	0.185	0.104
-163.808	-200.000	-0.079	-0.425
-162.793	-182.475	-0.253	0.005
-161.779	-7.336	-0.296	0.200
-160.764	800.000	0.032	0.110
-159.750	111.748	-0.103	0.124
-158.735	800.000	0.050	-0.188
-157.720	-171.164	-0.359	0.012
-156.706	-18.802	0.058	0.036
-155.691	30.715	0.175	-0.149
-154.677	236.938	0.146	0.242
-153.662	-145.901	0.064	-0.006
-152.647	-200.000	-0.017	-0.157
-151.633	-61.525	0.273	0.115
-150.618	450.422	-0.032	-0.071
-149.604	-100.074	0.087	0.022
-148.589	-102.396	-0.406	-0.097
-147.574	-200.000	-0.003	-0.352
-146.560	-18.390	0.201	-0.125
-145.545	-142.661	0.052	-0.005
-144.531	33.460	0.043	-0.037
-143.516	-195.491	0.313	-0.002
-142.502	800.000	0.068	-0.204
-141.487	-93.493	-0.156	-0.043
-140.472	-200.000	0.023	-0.323
-139.458	-37.253	-0.131	-0.070
-138.443	200.755	0.114	0.175
-137.429	145.466	-0.146	-0.194
-136.414	193.061	-0.074	0.112
-135.399	7.721	-0.056	0.042
-134.385	-25.246	-0.179	0.106
-133.370	-156.072	0.345	-0.022
-132.356	131.127	0.252	0.322
-131.341	-105.913	0.080	-0.018
-130.326	-111.356	0.356	-0.072
-129.312	800.000	0.016	0.043
-128.297	-200.000	-0.034	0.171
-127.283	171.173	0.094	-0.135
-126.268	-8.773	-0.206	0.138
-125.253	-200.000	0.105	-0.506
-124.239	-45.791	0.286	0.141
-123.224	-78.991	0.253	-0.086
-122.210	184.870	-0.067	-0.099
-121.195	-200.000	0.036	0.209
-120.180	-200.000	0.033	0.371
-119.166	800.000	-0.059	0.183
-118.151	287.607	-0.217	-0.391
-117.137	492.099	-0.107	0.245
-116.122	-200.000	-0.070	0.339
-115.107	-14.814	-0.026	-0.017
-114.093	-29.676	0.291	0.166
-113.078	-171.391	-0.301	-0.010
-112.064	11.633	0.219	0.168
-111.049	-200.000	0.041	-0.302
-110.034	184.246	-0.310	-0.457
-109.020	-126.099	0.137	0.020
-108.005	-45.616	-0.306	-0.151
-106.991	391.812	0.005	0.011
-105.976	-4.560	-0.045	-0.031
-104.962	-30.591	0.209	0.118
-103.947	-200.000	0.018	0.325
-102.932	-200.000	-0.001	-0.093
-101.918	-200.000	-0.020	-0.163
-100.903	-67.461	0.339	0.132
-99.889	-98.633	-0.105	0.027
-98.874	-69.677	0.173	-0.066
-97.859	100.086	0.095	0.110
-96.845	340.387	0.045	0.088
-95.830	-34.914	0.352	0.191
-94.816	161.107	0.062	-0.086
-93.801	-78.357	-0.136	-0.046
-92.786	800.000	-0.078	0.259
-91.772	-29.389	-0.315	-0.180
-90.757	1.513	0.216	0.155
-89.743	35.967	-0.226	0.198
-88.728	-107.402	0.145	0.032
-87.713	-106.288	0.268	-0.060
-86.699	57.244	-0.159	-0.154
-85.684	-200.000	-0.007	0.246
-84.670	-200.000	0.011	0.250
-83.655	35.955	0.059	0.052
-82.640	-200.000	-0.014	0.285
-81.626	287.040	0.160	0.287
-80.611	-200.000	-0.012	0.470
-79.597	-200.000	0.003	0.162
-78.582	-108.026	0.289	-0.062
-77.567	118.584	-0.058	-0.072
-76.553	-92.476	0.081	0.023
-75.538	368.372	0.088	-0.178
-74.524	-171.649	0.341	0.011
-73.509	176.067	0.098	-0.141
-72.494	-104.931	0.205	-0.047
-71.480	215.762	0.121	-0.191
-70.465	-200.000	-0.008	-0.334
-69.451	478.477	0.169	0.381
-68.436	800.000	0.058	0.217
-67.422	800.000	0.165	-0.500
-66.407	152.364	0.268	-0.364
-65.392	36.342	0.109	0.096
-64.378	-155.664	0.157	0.010
-63.363	-136.523	0.068	-0.008
-62.349	-75.952	0.164	0.058
-61.334	158.559	-0.721	-0.996
-60.319	-83.134	0.366	0.117
-59.305	-200.000	-0.061	-0.554
-58.290	150.809	0.474	0.640
-57.276	436.115	0.742	1.606
-56.261	-200.000	88.577	495.330
-55.246	501.715	1412.649	3242.470
-54.232	179.152	2634.482	3829.801
-53.217	116.852	2240.472	2733.328
-52.203	47.582	1678.065	1555.251
-51.188	40.114	1405.763	1255.652
-50.173	36.895	1362.143	1196.794
-49.159	56.447	1405.827	1358.143
-48.144	60.551	1424.888	1402.227
-47.130	40.730	1381.707	1237.812
-46.115	36.897	1363.934	1198.192
-45.100	36.656	1359.205	1192.506
-44.086	36.675	1356.907	1190.557
-43.071	36.586	1354.171	1187.562
-42.057	36.603	1351.984	1185.704
-41.042	36.692	1350.148	1184.588
-40.027	36.598	1349.006	1182.965
-39.013	36.743	1346.737	1181.812
-37.998	36.726	1344.972	1180.118
-36.984	36.889	1342.893	1179.238
-35.969	36.848	1341.213	1177.469
-34.954	36.875	1339.141	1175.761
-33.940	36.802	1337.945	1174.225
-32.925	36.752	1336.587	1172.682
-31.911	36.815	1335.319	1171.905
-30.896	36.920	1333.511	1170.905
-29.881	36.961	1332.031	1169.807
-28.867	36.848	1331.346	1168.477
-27.852	36.893	1329.415	1167.010
-26.838	36.856	1327.639	1165.182
-25.823	36.897	1326.132	1164.060
-24.809	36.886	1324.770	1162.749
-23.794	36.857	1323.421	1161.346
-22.779	36.881	1322.130	1160.308
-21.765	36.947	1320.353	1159.099
-20.750	36.896	1319.257	1157.790
-19.736	36.705	1317.933	1155.442
-18.721	36.748	1316.382	1154.292
-17.706	36.664	1315.839	1153.268
-16.692	36.724	1314.573	1152.470
-15.677	36.822	1312.967	1151.599
-14.663	36.801	1311.809	1150.412
-13.648	36.773	1310.771	1149.293
-12.633	36.555	1310.013	1147.286
-11.619	36.705	1308.718	1146.998
-10.604	36.746	1307.695	1146.296
-9.590	36.689	1306.879	1145.196
-8.575	36.737	1306.144	1144.792
-7.560	36.826	1305.338	1144.568
-6.546	36.775	1304.390	1143.388
-5.531	36.766	1303.307	1142.344
-4.517	36.556	1303.106	1140.882
-3.502	36.572	1301.754	1139.745
-2.487	36.696	1300.229	1139.094
-1.473	36.808	1296.044	1136.043
-0.458	35.518	1280.856	1115.198
0.556	32.497	1261.489	1073.079
1.571	28.276	1264.991	1051.779
2.586	26.834	1278.907	1054.874
3.600	25.204	1267.033	1035.588
4.615	18.860	1190.859	938.701
5.629	9.347	1111.146	827.083
6.644	4.746	1089.428	787.602
7.659	4.486	1086.501	784.105
8.673	4.479	1085.638	783.374
9.688	4.499	1084.486	782.578
10.702	4.784	1082.361	782.404
11.717	10.032	1090.607	814.815
12.731	18.593	1102.264	866.902
13.746	21.166	1104.769	881.807
14.761	19.998	1102.956	874.389
15.775	18.913	1101.217	867.462
16.790	17.952	1098.611	860.496
17.804	17.120	1097.323	855.222
18.819	16.836	1095.723	852.468
19.834	16.686	1094.879	850.985
20.848	16.410	1094.584	849.292
21.863	16.303	1093.300	847.684
22.877	16.095	1092.502	845.945
23.892	16.041	1092.093	845.283
24.907	16.089	1091.523	845.009
25.921	16.205	1089.805	844.185
26.936	16.074	1089.012	842.840
27.950	16.171	1087.521	842.093
28.965	16.315	1085.735	841.355
29.980	16.365	1084.561	840.620
30.994	16.385	1083.732	840.005
32.009	16.460	1082.423	839.287
33.023	16.454	1080.736	837.874
34.038	16.201	1080.382	836.271
35.053	16.322	1078.562	835.386
36.067	16.172	1078.362	834.420
37.082	16.283	1077.297	834.066
38.096	16.297	1076.669	833.575
39.111	16.308	1075.965	833.012
40.126	16.349	1073.826	831.483
41.140	16.056	1072.762	829.146
42.155	16.000	1071.610	827.908
43.169	15.963	1070.467	826.769
44.184	15.814	1069.668	825.348
45.199	15.884	1068.819	824.963
46.213	15.973	1067.909	824.623
47.228	16.090	1066.961	824.392
48.242	16.367	1065.343	824.418
49.257	16.253	1064.018	822.767
50.271	16.239	1063.781	822.442
51.286	16.328	1062.329	821.678
52.301	16.183	1061.525	820.279
53.315	16.162	1060.114	819.015
54.330	16.020	1059.430	817.722
55.344	16.074	1058.409	817.127
56.359	16.060	1057.704	816.443
57.374	16.063	1056.570	815.508
58.388	16.143	1055.368	814.893
59.403	16.020	1055.135	814.049
60.417	15.894	1054.588	812.949
61.432	15.887	1053.766	812.210
62.447	15.881	1052.789	811.356
63.461	15.862	1051.625	810.295
64.476	15.766	1050.652	809.008
65.490	15.806	1050.187	808.771
66.505	15.903	1049.062	808.299
67.520	15.942	1048.706	808.140
68.534	15.916	1047.782	807.233
69.549	15.869	1046.729	806.128
70.563	15.762	1046.601	805.445
71.578	15.759	1045.496	804.510
72.593	15.758	1044.459	803.634
73.607	15.672	1043.976	802.782
74.622	15.744	1042.982	802.290
75.636	15.828	1042.403	802.173
76.651	15.826	1042.044	801.814
77.666	15.831	1041.293	801.190
78.680	15.755	1040.693	800.298
79.695	15.752	1040.006	799.683
80.709	15.994	1038.980	799.973
81.724	16.021	1038.581	799.721
82.739	16.070	1037.961	799.406
83.753	16.181	1037.253	799.316
84.768	16.388	1036.100	799.336
85.782	16.390	1035.581	798.876
86.797	16.383	1034.393	797.856
87.812	16.268	1033.286	796.390
88.826	16.338	1031.950	795.618
89.841	16.250	1031.490	794.778
90.855	16.460	1030.523	794.953
91.870	16.365	1029.823	793.893
92.884	16.427	1028.493	793.091
93.899	16.434	1027.627	792.386
94.914	16.489	1027.037	792.118
95.928	16.358	1026.563	791.069
96.943	16.422	1025.661	790.605
97.957	16.299	1024.483	789.051
98.972	16.247	1023.763	788.181
99.987	16.317	1022.444	787.426
101.001	16.501	1021.466	787.459
102.016	16.396	1020.779	786.369
103.030	16.277	1020.420	785.472
104.045	16.293	1019.175	784.519
105.060	16.181	1018.631	783.507
106.074	16.206	1017.246	782.492
107.089	15.972	1016.343	780.641
108.103	16.041	1014.830	779.729
109.118	15.900	1013.858	778.261
110.133	15.904	1013.008	777.558
111.147	16.010	1012.188	777.351
112.162	16.026	1011.453	776.792
113.176	16.095	1010.830	776.563
114.191	16.187	1010.101	776.356
115.206	16.013	1009.388	774.942
116.220	16.046	1008.428	774.284
117.235	16.053	1007.731	773.714
118.249	15.950	1007.137	772.717
119.264	16.038	1005.936	772.128
120.279	15.942	1005.256	771.100
121.293	15.951	1004.067	770.161
122.308	15.969	1003.039	769.388
123.322	15.913	1002.032	768.289
124.337	15.909	1001.037	767.441
125.352	15.948	999.667	766.502
126.366	15.939	998.859	765.774
127.381	15.797	998.111	764.487
128.395	15.884	997.087	764.029
129.410	16.119	995.773	764.020
130.424	16.068	995.113	763.214
131.439	16.153	994.737	763.245
132.454	16.097	993.802	762.206
133.468	16.252	992.758	762.039
134.483	16.210	992.381	761.489
135.497	16.203	991.051	760.374
136.512	16.114	990.627	759.578
137.527	16.194	989.407	758.935
138.541	16.172	988.762	758.275
139.556	16.239	987.655	757.659
140.570	16.280	987.547	757.694
141.585	16.514	986.536	757.901
142.600	16.452	985.624	756.853
143.614	16.584	984.710	756.677
144.629	16.573	983.787	755.849
145.643	16.506	983.056	754.924
146.658	16.368	981.761	753.249
147.673	16.231	981.127	752.083
148.687	16.228	980.475	751.504
149.702	16.194	979.377	750.443
150.716	16.045	978.685	749.186
151.731	16.218	977.822	749.224
152.746	16.176	977.181	748.481
153.760	16.215	976.671	748.201
154.775	16.285	975.990	747.920
155.789	16.409	975.178	747.781
156.804	16.295	974.562	746.740
157.819	16.391	973.872	746.568
158.833	16.531	973.190	746.598
159.848	16.638	972.385	746.385
160.862	16.447	971.459	744.767
161.877	16.503	969.974	743.811
162.892	16.223	969.701	742.304
163.906	16.274	968.451	741.506
164.921	16.134	967.897	740.399
165.935	16.410	966.451	740.440
166.950	16.334	966.062	739.742
167.964	16.383	965.172	739.209
168.979	16.326	964.058	738.041
169.994	16.341	963.352	737.502
171.008	16.441	962.618	737.310
172.023	16.500	961.913	736.961
173.037	16.650	961.381	737.144
174.052	16.521	960.278	735.671
175.067	16.299	959.941	734.382
176.081	16.423	958.494	733.748
177.096	16.409	957.938	733.195
178.110	16.471	957.574	733.123
179.125	16.324	957.290	732.201
180.140	16.407	956.884	732.187
181.154	16.392	956.313	731.622
182.169	16.598	955.951	732.172
183.183	16.658	955.011	731.646
184.198	16.673	954.185	731.013
185.213	16.632	953.636	730.349
186.227	16.856	952.628	730.479
187.242	16.777	952.369	729.877
188.256	16.759	951.708	729.228
189.271	16.692	951.064	728.382
190.286	16.610	949.654	726.885
191.300	16.407	949.048	725.486
192.315	16.303	948.416	724.490
193.329	16.338	947.726	724.049
194.344	16.247	947.649	723.537
195.359	16.424	946.898	723.657
196.373	16.547	946.204	723.589
197.388	16.764	945.736	724.096
198.402	16.847	945.379	724.112
199.417	16.925	944.507	723.712
200.432	16.979	944.211	723.650
201.446	17.149	943.389	723.685
202.461	17.235	942.817	723.547
203.475	16.895	942.684	721.932
204.490	17.034	940.872	721.070
205.504	16.792	940.846	719.961
206.519	16.740	939.915	718.964
207.534	16.840	939.148	718.736
208.548	16.869	938.298	718.147
209.563	16.812	937.762	717.430
210.577	16.830	937.340	717.121
211.592	16.952	936.517	716.943
212.607	17.064	935.937	716.910
213.621	17.098	934.721	716.056
214.636	17.023	934.361	715.402
215.650	17.078	933.891	715.212
216.665	17.146	933.085	714.818
217.680	17.247	932.424	714.670
218.694	17.129	931.976	713.770
219.709	17.225	931.051	713.398
220.723	17.119	930.470	712.446
221.738	17.205	929.453	711.966
222.753	17.137	928.883	711.183
223.767	17.294	928.471	711.460
224.782	17.412	927.742	711.331
225.796	17.374	927.286	710.761
226.811	17.396	926.743	710.371
227.826	17.192	925.847	708.771
228.840	17.101	925.281	707.897
229.855	17.116	924.388	707.214
230.869	17.256	923.029	706.692
231.884	17.132	922.862	705.989
232.899	17.143	922.229	705.487
233.913	17.095	921.555	704.711
234.928	17.105	921.002	704.265
235.942	17.045	920.079	703.249
236.957	17.119	919.666	703.179
237.972	17.097	919.203	702.670
238.986	17.162	918.104	702.036
240.001	17.137	917.908	701.721
241.015	17.271	917.133	701.621
242.030	17.230	916.431	700.854
243.045	17.283	915.780	700.510
244.059	17.275	915.252	700.011
245.074	17.416	914.523	699.972
246.088	17.276	914.186	699.078
247.103	17.381	913.473	698.899
248.117	17.498	913.096	699.030
249.132	17.724	912.609	699.524
250.147	17.801	912.058	699.355
251.161	17.788	911.634	698.916
252.176	17.743	910.655	697.917
253.190	17.906	909.815	697.880
254.205	17.736	909.806	697.115
255.220	17.886	908.759	696.864
256.234	17.735	908.300	695.836
257.249	17.957	907.357	695.958
258.263	17.821	906.397	694.605
259.278	17.739	905.976	693.884
260.293	17.905	905.300	693.983
261.307	17.923	904.555	693.424
262.322	18.112	904.029	693.724
263.336	18.191	903.165	693.321
264.351	18.069	902.625	692.351
265.366	18.139	902.120	692.184
266.380	17.992	901.474	691.032
267.395	17.944	900.765	690.234
268.409	17.900	900.041	689.443
269.424	17.844	899.195	688.506
270.439	18.055	897.985	688.367
271.453	17.968	897.027	687.222
272.468	17.876	896.824	686.636
273.482	17.954	896.582	686.704
274.497	17.875	896.091	685.951
275.512	17.948	895.184	685.487
276.526	17.924	894.841	685.068
277.541	17.927	894.627	684.858
278.555	18.230	893.381	685.055
279.570	18.226	893.187	684.829
280.585	18.156	891.892	683.499
281.599	18.119	891.477	682.969
282.614	18.078	890.712	682.159
283.628	18.057	890.555	681.898
284.643	18.071	889.595	681.157
285.657	18.004	888.833	680.246
286.672	18.079	888.315	680.089
287.687	18.152	887.672	679.827
288.701	18.062	887.183	679.034
289.716	18.205	887.025	679.421
290.730	18.234	886.124	678.786
291.745	18.257	885.360	678.232
292.760	18.308	884.722	677.883
293.774	18.386	883.996	677.575
294.789	18.225	883.514	676.510
295.803	18.313	882.840	676.281
296.818	18.161	881.756	674.792
297.833	18.263	881.353	674.829
298.847	18.353	880.301	674.317
299.862	18.324	880.176	674.045
300.876	18.311	879.908	673.732
301.891	18.416	879.211	673.551
302.906	18.434	878.827	673.265
303.920	18.509	878.396	673.170
304.935	18.615	877.521	672.857
305.949	18.584	876.698	672.044
306.964	18.480	876.102	671.122
307.979	18.504	875.773	670.903
308.993	18.602	874.952	670.598
310.008	18.724	874.627	670.766
311.022	18.708	873.478	669.763
312.037	18.479	873.359	668.719
313.052	18.478	872.474	667.980
314.066	18.320	872.168	667.070
315.081	18.324	871.680	666.656
316.095	18.477	870.850	666.554
317.110	18.386	870.417	665.813
318.125	18.356	869.678	665.071
319.139	18.337	869.569	664.853
320.154	18.428	869.063	664.764
321.168	18.571	868.077	664.502
322.183	18.498	867.552	663.760
323.197	18.545	867.089	663.529
324.212	18.581	866.558	663.202
325.227	18.457	866.106	662.321
326.241	18.436	865.661	661.838
327.256	18.523	865.154	661.728
328.270	18.533	863.993	660.821
329.285	18.528	863.440	660.321
330.300	18.687	862.773	660.362
331.314	18.559	862.462	659.576
332.329	18.684	862.321	659.890
333.343	18.579	861.790	659.022
334.358	18.678	861.330	658.992
335.373	18.762	861.096	659.074
336.387	18.821	860.799	659.017
337.402	18.730	860.489	658.373
338.416	18.844	860.036	658.402
339.431	18.899	859.488	658.137
340.446	18.956	859.025	657.943
341.460	19.047	858.789	658.050
342.475	19.101	858.156	657.713
343.489	19.042	857.954	657.276
344.504	19.263	857.141	657.436
345.519	19.259	857.111	657.341
346.533	19.107	856.416	656.170
347.548	19.042	855.577	655.223
348.562	18.976	854.891	654.388
349.577	18.942	854.274	653.728
350.592	18.916	853.522	652.996
351.606	18.918	852.761	652.364
352.621	18.978	852.124	652.048
353.635	18.967	851.507	651.474
354.650	19.134	851.021	651.679
355.665	19.166	850.457	651.309
356.679	19.135	849.648	650.515
357.694	19.018	849.316	649.763
358.708	19.140	848.877	649.827
359.723	19.179	848.152	649.365
360.738	19.232	847.204	648.782
361.752	19.207	846.711	648.251
362.767	19.344	846.611	648.632
363.781	19.453	845.995	648.512
364.796	19.507	845.497	648.276
365.810	19.488	845.393	648.068
366.825	19.637	844.936	648.218
367.840	19.451	844.372	647.031
368.854	19.430	843.692	646.374
369.869	19.446	843.109	645.929
370.883	19.423	843.127	645.800
371.898	19.450	842.720	645.532
372.913	19.572	842.224	645.553
373.927	19.616	841.287	644.942
374.942	19.538	841.488	644.746
375.956	19.639	840.488	644.299
376.971	19.704	840.247	644.302
377.986	19.648	840.247	644.034
379.000	19.866	838.997	643.831
380.015	19.810	838.266	643.007
381.029	19.795	838.040	642.718
382.044	19.832	837.603	642.465
383.059	19.944	836.700	642.132
384.073	19.862	836.324	641.480
385.088	19.573	835.693	639.871
386.102	19.581	835.173	639.444
387.117	19.647	834.336	638.991
388.132	19.748	833.388	638.583
389.146	19.676	833.511	638.353
390.161	19.620	833.364	637.978
391.175	19.722	832.931	637.968
392.190	19.632	831.952	636.830
393.205	19.821	831.315	636.980
394.219	19.687	831.157	636.309
395.234	19.637	830.730	635.744
396.248	19.681	830.014	635.301
397.263	19.585	829.349	634.381
398.278	19.447	829.393	633.852
399.292	19.634	828.880	634.091
400.307	19.562	828.729	633.654
401.321	19.652	827.672	633.121
402.336	19.577	827.371	632.559
403.350	19.740	827.097	632.891
404.365	19.959	826.298	633.026
405.380	19.931	826.225	632.811
406.394	20.125	825.589	632.976
407.409	20.061	824.841	632.112
408.423	20.099	824.855	632.206
409.438	20.147	824.533	632.079
410.453	20.159	823.967	631.632
411.467	20.101	823.716	631.173
412.482	20.152	823.412	631.069
413.496	20.259	823.359	631.363
414.511	20.359	822.691	631.159
415.526	20.239	821.861	630.030
416.540	20.255	821.020	629.386
417.555	20.227	820.724	629.002
418.569	20.260	820.301	628.744
419.584	20.160	820.582	628.540
420.599	20.212	819.754	628.037
421.613	153.892	1370.363	1782.618
422.628	134.000	1450.615	1782.715
