DTS Sentinel unit serial number:	SN413079Multiplexer serial number:	ORYXHardware model number:	OX4-SRSoftware version number:	ORYX F/W v4.00 Oryx Data Collector v3.7.2.0data status	okinstallation	princeton_trtdifferential loss correction	single-endedforward channel	channel 1reverse channel	N/Adate	2019/09/16time	09:58:35forward acquisition time	60.00reverse acquisition time	0.00gamma	496.2192k internal	0.2317k external	0.2317temperature offset calibration	0.9960default loss term (dB/km)	0.3790temperature slope calibration	1.0000multiplexer offset coefficient	1.0000multiplexer slope coefficient	1.0000fibre end	0.00T internal ref (°C)	33.33T ext. ref 1 (°C)	12.37T ext. ref 2 (°C)	31.79length (m)	temperature (°C)	Stokes	anti-Stokes-747.200	458.896	0.029	0.064
-746.185	114.816	0.082	-0.102
-745.171	-64.397	0.137	0.057
-744.156	81.949	-0.177	0.194
-743.142	-115.748	0.162	0.031
-742.127	117.870	-0.285	0.356
-741.112	-8.682	-0.198	0.135
-740.098	118.650	0.237	0.296
-739.083	800.000	0.145	0.459
-738.069	49.587	-0.137	-0.131
-737.054	-102.994	0.133	0.032
-736.039	189.196	-0.142	0.216
-735.025	-200.000	0.028	-0.145
-734.010	-48.707	0.243	-0.118
-732.996	-106.107	-0.249	-0.057
-731.981	-60.438	-0.216	0.093
-730.966	98.794	-0.241	-0.282
-729.952	261.967	0.116	-0.204
-728.937	800.000	0.081	-0.229
-727.923	-200.000	0.013	-0.119
-726.908	800.000	0.063	-0.215
-725.894	-200.000	-0.042	0.212
-724.879	-56.050	-0.178	0.080
-723.864	378.619	-0.106	-0.220
-722.850	-49.404	-0.133	-0.064
-721.835	56.387	0.027	0.027
-720.821	-94.909	-0.031	0.008
-719.806	-35.708	-0.134	0.073
-718.791	263.693	-0.228	-0.400
-717.777	-15.105	-0.092	-0.060
-716.762	-200.000	0.026	-0.142
-715.748	8.711	-0.028	-0.021
-714.733	538.654	0.041	-0.099
-713.718	-99.994	-0.307	-0.077
-712.704	-55.845	0.281	0.127
-711.689	-200.000	0.014	0.135
-710.675	-200.000	-0.061	-0.276
-709.660	-200.000	0.033	-0.276
-708.645	12.947	-0.160	0.125
-707.631	-78.188	0.310	-0.108
-706.616	7.453	-0.226	-0.171
-705.602	495.517	-0.130	0.301
-704.587	-66.946	-0.172	0.069
-703.572	14.764	-0.119	0.094
-702.558	773.660	0.070	-0.193
-701.543	-113.727	0.210	-0.041
-700.529	-21.298	0.189	-0.117
-699.514	290.203	0.078	0.144
-698.499	-200.000	-0.024	-0.321
-697.485	25.679	0.098	-0.083
-696.470	102.881	0.053	0.062
-695.456	149.449	-0.158	-0.217
-694.441	800.000	-0.078	-0.307
-693.426	-200.000	-0.043	-0.287
-692.412	35.482	0.121	-0.108
-691.397	-200.000	-0.002	-0.072
-690.383	122.458	-0.233	0.294
-689.368	800.000	-0.044	-0.149
-688.354	800.000	-0.074	-0.319
-687.339	-200.000	0.016	-0.120
-686.324	30.294	-0.208	-0.180
-685.310	800.000	-0.119	-0.339
-684.295	205.115	0.203	-0.318
-683.281	10.520	0.167	-0.129
-682.266	24.990	-0.241	0.202
-681.251	-94.967	-0.116	-0.032
-680.237	-28.683	0.203	-0.118
-679.222	800.000	0.043	-0.161
-678.208	102.040	-0.240	0.283
-677.193	303.463	0.122	-0.228
-676.178	366.118	0.101	0.205
-675.164	180.236	0.111	-0.164
-674.149	-15.671	-0.190	0.122
-673.135	-200.000	-0.000	0.029
-672.120	-5.221	-0.183	0.127
-671.105	51.248	0.098	-0.094
-670.091	777.902	0.114	0.315
-669.076	182.196	0.221	-0.329
-668.062	-103.172	-0.505	-0.121
-667.047	-200.000	-0.013	-0.218
-666.032	431.583	0.070	0.153
-665.018	-200.000	0.042	0.198
-664.003	-84.067	-0.195	-0.062
-662.989	-59.557	0.197	0.085
-661.974	800.000	-0.057	-0.179
-660.959	800.000	0.101	-0.328
-659.945	-121.030	-0.236	0.040
-658.930	-26.203	-0.284	0.169
-657.916	73.029	0.063	0.067
-656.901	800.000	-0.093	-0.325
-655.886	103.378	-0.183	0.216
-654.872	-200.000	-0.021	0.191
-653.857	-200.000	0.036	0.271
-652.843	800.000	-0.018	0.060
-651.828	-49.297	-0.045	-0.022
-650.814	800.000	0.057	-0.230
-649.799	-86.945	-0.274	0.084
-648.784	-200.000	0.060	-0.266
-647.770	-80.057	0.146	-0.049
-646.755	-87.390	-0.100	-0.030
-645.741	-87.080	-0.051	-0.016
-644.726	-200.000	0.052	-0.305
-643.711	-85.393	-0.144	-0.045
-642.697	-31.211	0.223	0.127
-641.682	48.501	0.134	0.127
-640.668	-44.483	-0.103	0.052
-639.653	645.343	0.059	0.151
-638.638	-200.000	0.030	-0.351
-637.624	149.891	0.128	0.175
-636.609	197.097	-0.182	-0.280
-635.595	-35.589	-0.183	0.100
-634.580	-200.000	0.042	0.230
-633.565	6.009	-0.286	-0.213
-632.551	154.486	-0.154	0.213
-631.536	94.142	0.195	-0.223
-630.522	-200.000	-0.005	0.249
-629.507	60.548	-0.134	-0.134
-628.492	8.489	0.281	0.213
-627.478	-200.000	0.029	-0.189
-626.463	587.822	-0.123	0.304
-625.449	-41.880	0.147	0.076
-624.434	-45.825	-0.061	-0.030
-623.419	-200.000	-0.028	0.142
-622.405	-98.534	-0.292	-0.075
-621.390	47.091	0.084	-0.079
-620.376	-4.521	0.225	-0.157
-619.361	800.000	0.068	-0.250
-618.346	63.102	0.094	0.095
-617.332	-200.000	-0.053	0.246
-616.317	-121.542	0.191	0.032
-615.303	65.079	-0.080	-0.081
-614.288	66.770	0.238	0.244
-613.273	800.000	0.054	-0.174
-612.259	339.885	0.042	0.082
-611.244	-40.654	0.210	0.109
-610.230	-200.000	0.027	0.267
-609.215	-181.315	-0.322	-0.006
-608.201	-183.435	0.185	0.003
-607.186	-95.310	-0.441	-0.120
-606.171	7.050	-0.008	-0.006
-605.157	800.000	0.041	0.163
-604.142	-200.000	0.045	-0.315
-603.128	-86.977	0.006	0.002
-602.113	-145.863	-0.456	-0.041
-601.098	421.226	-0.096	-0.207
-600.084	206.183	-0.067	-0.105
-599.069	-7.099	-0.212	-0.145
-598.055	19.845	0.156	-0.127
-597.040	193.813	-0.018	-0.027
-596.025	-200.000	0.012	0.073
-595.011	260.520	-0.053	0.092
-593.996	-56.716	-0.186	0.083
-592.982	307.721	0.063	-0.118
-591.967	-159.752	0.201	-0.011
-590.952	-146.011	0.355	-0.032
-589.938	-14.660	-0.040	0.026
-588.923	159.929	-0.133	0.186
-587.909	88.029	0.229	-0.255
-586.894	22.092	-0.178	0.146
-585.879	-54.623	-0.233	0.106
-584.865	-200.000	0.010	0.149
-583.850	208.727	0.038	-0.060
-582.836	181.657	-0.078	-0.116
-581.821	-200.000	0.011	-0.150
-580.806	303.171	0.060	-0.112
-579.792	154.112	0.233	-0.322
-578.777	-143.582	-0.065	-0.006
-577.763	-200.000	-0.003	0.053
-576.748	-4.307	0.207	-0.144
-575.733	-200.000	-0.014	-0.205
-574.719	8.803	0.237	-0.180
-573.704	-163.856	-0.349	0.016
-572.690	-99.068	0.216	-0.055
-571.675	-187.131	-0.218	-0.003
-570.661	-73.694	0.214	-0.078
-569.646	454.021	-0.079	0.175
-568.631	78.305	-0.135	0.145
-567.617	-69.945	0.080	0.031
-566.602	399.028	0.033	0.070
-565.588	-83.857	0.202	-0.065
-564.573	-80.657	0.231	-0.077
-563.558	-200.000	-0.003	-0.056
-562.544	637.818	-0.050	0.128
-561.529	-197.459	-0.279	0.002
-560.515	-95.884	-0.515	-0.138
-559.500	800.000	0.022	0.081
-558.485	382.439	0.053	0.109
-557.471	-31.809	-0.222	-0.125
-556.456	-96.249	-0.022	0.006
-555.442	800.000	-0.075	0.221
-554.427	800.000	-0.054	0.179
-553.412	402.802	-0.049	0.103
-552.398	288.068	0.185	-0.337
-551.383	-200.000	0.031	0.227
-550.369	-77.016	-0.113	0.040
-549.354	-124.924	0.240	-0.037
-548.339	-200.000	-0.014	0.149
-547.325	75.903	-0.309	0.329
-546.310	86.239	-0.195	0.216
-545.296	119.880	-0.142	-0.177
-544.281	424.262	-0.126	-0.273
-543.266	-79.593	-0.253	-0.086
-542.252	162.661	0.058	0.081
-541.237	-168.966	-0.244	0.009
-540.223	-138.679	-0.206	0.023
-539.208	503.188	-0.168	-0.389
-538.193	-200.000	-0.079	0.536
-537.179	-200.000	0.014	-0.113
-536.164	136.777	0.110	-0.144
-535.150	499.984	0.124	0.288
-534.135	44.408	-0.135	0.125
-533.121	-123.424	-0.129	0.021
-532.106	-52.365	0.303	0.141
-531.091	82.339	-0.204	0.223
-530.077	-4.953	-0.383	-0.265
-529.062	-141.549	0.228	0.023
-528.048	683.875	0.144	0.376
-527.033	695.959	-0.114	-0.301
-526.018	-200.000	-0.041	0.191
-525.004	25.345	-0.109	-0.091
-523.989	347.235	-0.121	-0.240
-522.975	397.467	-0.066	-0.138
-521.960	54.776	0.168	-0.162
-520.945	325.304	0.143	-0.275
-519.931	43.902	0.134	0.123
-518.916	-63.737	0.364	0.150
-517.902	-200.000	0.005	0.031
-516.887	37.910	-0.221	0.197
-515.872	-117.471	-0.227	0.041
-514.858	-200.000	-0.025	-0.267
-513.843	259.758	0.202	-0.351
-512.829	-57.138	0.130	-0.057
-511.814	-200.000	0.015	-0.115
-510.799	226.743	0.198	-0.322
-509.785	46.355	-0.140	0.130
-508.770	-64.715	-0.087	0.035
-507.756	-200.000	0.021	0.151
-506.741	130.335	0.076	-0.097
-505.726	-53.017	0.114	-0.053
-504.712	211.548	0.083	0.132
-503.697	200.188	-0.182	-0.280
-502.683	-200.000	-0.011	-0.063
-501.668	437.587	0.107	0.234
-500.653	-70.779	-0.195	-0.074
-499.639	-147.271	0.505	-0.043
-498.624	-80.922	0.156	0.052
-497.610	-151.477	-0.131	0.010
-496.595	383.891	0.095	-0.196
-495.581	-90.490	-0.227	0.066
-494.566	-51.235	-0.180	0.085
-493.551	-64.529	0.207	-0.084
-492.537	435.564	0.183	-0.400
-491.522	-200.000	0.027	0.134
-490.508	-200.000	0.006	0.348
-489.493	-74.261	-0.229	-0.083
-488.478	219.535	-0.079	-0.127
-487.464	496.468	0.160	0.369
-486.449	4.875	0.362	0.267
-485.435	108.569	0.175	-0.210
-484.420	800.000	-0.087	0.310
-483.405	-178.498	-0.261	0.006
-482.391	-11.827	0.104	-0.069
-481.376	-50.807	0.143	0.067
-480.362	800.000	-0.032	0.123
-479.347	-81.715	0.239	0.079
-478.332	74.578	0.110	0.116
-477.318	23.950	0.057	-0.047
-476.303	21.063	-0.156	-0.126
-475.289	40.624	0.047	-0.042
-474.274	99.368	-0.147	-0.170
-473.259	-200.000	0.008	0.089
-472.245	241.355	-0.054	-0.091
-471.230	45.897	0.295	-0.273
-470.216	800.000	-0.176	0.525
-469.201	-155.428	0.179	-0.012
-468.186	7.306	-0.121	-0.090
-467.172	-200.000	0.029	0.359
-466.157	-107.994	-0.167	0.036
-465.143	85.860	0.030	-0.033
-464.128	-73.708	-0.021	-0.008
-463.113	-200.000	-0.029	0.162
-462.099	349.063	0.137	-0.272
-461.084	-60.744	-0.199	0.084
-460.070	40.929	0.122	0.110
-459.055	-200.000	0.029	-0.303
-458.040	35.525	-0.322	0.283
-457.026	159.523	-0.200	-0.279
-456.011	-25.959	0.298	0.176
-454.997	366.620	0.111	-0.225
-453.982	-156.981	-0.235	-0.014
-452.968	135.748	0.088	0.114
-451.953	800.000	-0.093	0.297
-450.938	-21.042	0.221	0.135
-449.924	173.443	-0.150	0.216
-448.909	-125.158	-0.113	0.017
-447.895	800.000	0.031	0.119
-446.880	556.933	-0.122	-0.294
-445.865	-195.497	0.157	0.001
-444.851	5.061	0.168	0.124
-443.836	-200.000	0.007	-0.054
-442.822	-136.255	-0.243	-0.028
-441.807	-187.504	0.620	0.008
-440.792	-200.000	-0.007	0.242
-439.778	88.044	-0.264	-0.293
-438.763	-135.029	-0.184	0.022
-437.749	133.735	-0.218	0.282
-436.734	54.812	-0.115	0.111
-435.719	491.922	-0.166	-0.381
-434.705	13.404	-0.042	-0.033
-433.690	-137.472	-0.344	-0.039
-432.676	447.998	-0.108	-0.239
-431.661	800.000	0.060	0.204
-430.646	305.254	-0.064	0.119
-429.632	-66.401	-0.140	-0.056
-428.617	800.000	0.082	0.243
-427.603	-149.071	0.142	0.011
-426.588	-79.409	0.166	-0.056
-425.573	23.429	-0.399	0.328
-424.559	82.611	0.084	-0.091
-423.544	800.000	-0.065	0.265
-422.530	-40.029	-0.262	-0.137
-421.515	232.995	-0.135	-0.223
-420.500	129.636	-0.107	-0.137
-419.486	-121.699	0.112	-0.019
-418.471	-84.716	0.362	-0.114
-417.457	800.000	0.064	-0.214
-416.442	-200.000	-0.059	-0.292
-415.428	38.269	0.182	-0.162
-414.413	-150.026	0.107	-0.008
-413.398	33.247	-0.249	-0.216
-412.384	800.000	-0.056	-0.185
-411.369	-120.583	0.535	-0.091
-410.355	-11.987	-0.364	0.239
-409.340	756.730	-0.082	-0.222
-408.325	800.000	0.056	-0.169
-407.311	-14.382	0.309	0.199
-406.296	-45.276	-0.101	-0.050
-405.282	-24.427	0.110	0.066
-404.267	18.566	-0.435	-0.348
-403.252	407.419	0.039	0.082
-402.238	-119.702	0.162	-0.028
-401.223	-200.000	0.029	-0.338
-400.209	-103.992	-0.071	-0.017
-399.194	95.419	0.129	0.147
-398.179	-180.538	0.138	-0.003
-397.165	94.519	0.262	0.298
-396.150	310.555	0.151	0.282
-395.136	160.792	0.189	0.263
-394.121	103.804	0.258	0.302
-393.106	-59.106	0.066	0.028
-392.092	-66.110	-0.218	-0.087
-391.077	800.000	0.023	0.086
-390.063	800.000	0.024	0.086
-389.048	106.783	-0.033	0.039
-388.033	-9.798	0.073	-0.048
-387.019	255.520	0.074	0.127
-386.004	162.220	0.203	0.284
-384.990	91.230	-0.130	-0.146
-383.975	398.325	-0.068	0.142
-382.960	-12.210	-0.233	0.152
-381.946	45.242	-0.088	-0.081
-380.931	-200.000	0.054	0.312
-379.917	32.109	-0.028	0.024
-378.902	252.563	-0.044	0.074
-377.888	427.388	0.024	0.051
-376.873	-45.155	0.144	-0.072
-375.858	-200.000	-0.052	-0.269
-374.844	174.674	-0.196	-0.283
-373.829	136.460	0.100	-0.130
-372.815	690.106	0.079	-0.205
-371.800	-84.843	-0.088	-0.027
-370.785	-20.379	-0.108	0.066
-369.771	-53.678	-0.229	-0.104
-368.756	45.351	0.011	0.010
-367.742	-200.000	0.028	-0.416
-366.727	82.706	-0.190	-0.206
-365.712	-159.208	0.367	0.021
-364.698	-112.122	0.102	0.020
-363.683	-123.388	-0.551	0.088
-362.669	415.884	-0.120	0.256
-361.654	180.207	0.252	-0.369
-360.639	-200.000	0.027	0.224
-359.625	179.525	-0.079	-0.116
-358.610	-200.000	-0.053	-0.307
-357.596	-14.054	0.077	-0.050
-356.581	-67.993	0.117	0.045
-355.566	200.940	0.078	0.119
-354.552	-2.320	-0.190	-0.133
-353.537	14.806	-0.165	-0.129
-352.523	-89.470	0.194	0.057
-351.508	-200.000	0.012	0.144
-350.493	800.000	-0.085	-0.311
-349.479	-200.000	0.031	-0.359
-348.464	-72.652	0.277	0.102
-347.450	190.878	0.228	-0.341
-346.435	190.037	-0.067	0.100
-345.420	48.504	0.083	0.077
-344.406	43.134	-0.128	-0.117
-343.391	-125.810	-0.349	-0.053
-342.377	2.522	0.053	0.039
-341.362	-200.000	0.054	-0.369
-340.348	-59.764	-0.385	-0.165
-339.333	475.692	0.111	0.251
-338.318	188.683	0.172	0.256
-337.304	-57.076	-0.246	0.108
-336.289	-145.862	0.104	0.009
-335.275	-0.252	0.071	-0.050
-334.260	-200.000	-0.003	0.018
-333.245	-22.396	-0.073	0.044
-332.231	181.449	0.089	0.130
-331.216	-200.000	-0.030	0.187
-330.202	800.000	0.070	0.261
-329.187	-56.109	0.260	-0.115
-328.172	-56.499	-0.117	-0.052
-327.158	-125.149	-0.192	-0.029
-326.143	-200.000	0.017	0.118
-325.129	-115.289	0.093	-0.018
-324.114	800.000	0.087	0.260
-323.099	760.824	-0.074	0.201
-322.085	-36.317	0.076	0.041
-321.070	-200.000	0.023	0.441
-320.056	800.000	0.070	0.202
-319.041	-134.958	0.259	0.031
-318.026	141.537	-0.163	0.215
-317.012	181.064	-0.056	0.083
-315.997	184.956	0.036	-0.053
-314.983	-200.000	-0.016	0.170
-313.968	-113.777	0.292	0.057
-312.953	104.128	-0.144	-0.168
-311.939	275.103	-0.186	-0.328
-310.924	375.491	0.181	0.367
-309.910	-200.000	0.005	0.166
-308.895	-137.391	-0.205	0.023
-307.880	99.835	-0.046	-0.054
-306.866	-118.638	-0.132	-0.023
-305.851	-111.826	-0.249	-0.050
-304.837	-200.000	-0.004	0.068
-303.822	-200.000	-0.043	0.220
-302.807	800.000	-0.110	0.385
-301.793	-91.778	0.245	-0.069
-300.778	-149.540	0.262	-0.021
-299.764	-200.000	0.022	0.307
-298.749	-49.442	-0.142	0.067
-297.735	-50.797	-0.239	-0.112
-296.720	419.545	0.097	-0.207
-295.705	698.470	-0.098	0.256
-294.691	800.000	-0.133	0.412
-293.676	-13.938	0.046	0.030
-292.662	-105.289	0.099	-0.022
-291.647	-161.038	-0.358	0.019
-290.632	225.220	-0.118	0.190
-289.618	800.000	0.066	0.253
-288.603	800.000	0.044	0.154
-287.589	-36.429	-0.249	0.134
-286.574	-200.000	-0.003	0.040
-285.559	72.138	-0.204	-0.211
-284.545	670.478	-0.186	-0.478
-283.530	-15.953	-0.172	0.109
-282.516	125.448	0.194	-0.244
-281.501	-18.144	0.297	-0.185
-280.486	208.982	-0.180	0.281
-279.472	68.640	0.095	0.097
-278.457	-200.000	0.014	-0.279
-277.443	-128.527	0.148	0.021
-276.428	-200.000	0.020	0.219
-275.413	-23.361	-0.195	0.116
-274.399	1.573	-0.122	-0.087
-273.384	109.297	0.209	-0.249
-272.370	-132.434	-0.130	-0.017
-271.355	-52.848	-0.305	-0.140
-270.340	-58.742	-0.226	0.097
-269.326	754.808	-0.055	0.148
-268.311	-200.000	0.009	0.309
-267.297	-170.534	-0.100	-0.003
-266.282	-72.678	0.305	-0.112
-265.267	333.746	0.108	-0.208
-264.253	18.469	0.068	0.054
-263.238	748.628	-0.014	0.038
-262.224	800.000	-0.018	-0.055
-261.209	383.169	-0.076	-0.156
-260.195	800.000	-0.072	0.202
-259.180	186.483	0.199	0.294
-258.165	800.000	-0.031	0.104
-257.151	554.610	-0.144	0.344
-256.136	35.819	-0.118	0.103
-255.122	800.000	0.049	-0.204
-254.107	-87.727	0.090	0.027
-253.092	352.354	0.109	0.215
-252.078	-200.000	-0.022	0.159
-251.063	-37.532	-0.195	-0.103
-250.049	-40.996	-0.234	0.120
-249.034	378.453	-0.174	-0.353
-248.019	-99.307	0.181	-0.045
-247.005	10.876	0.087	0.066
-245.990	-200.000	0.052	0.342
-244.976	154.998	0.102	-0.139
-243.961	-37.394	-0.377	-0.200
-242.946	24.520	0.221	0.182
-241.932	-200.000	-0.028	-0.262
-240.917	511.201	-0.164	-0.380
-239.903	-52.051	-0.122	0.056
-238.888	-34.188	0.233	0.127
-237.873	-91.330	0.011	-0.003
-236.859	340.109	-0.058	0.112
-235.844	-105.112	-0.192	0.044
-234.830	-118.139	0.083	0.015
-233.815	-68.635	0.163	0.063
-232.800	199.717	0.174	-0.265
-231.786	612.375	0.168	-0.417
-230.771	-120.862	-0.112	0.019
-229.757	-132.840	-0.152	0.019
-228.742	42.337	0.178	-0.161
-227.727	684.726	0.075	-0.195
-226.713	-49.255	-0.294	-0.139
-225.698	281.075	0.103	-0.184
-224.684	-92.078	0.205	-0.057
-223.669	800.000	0.025	-0.088
-222.655	-33.552	-0.260	-0.142
-221.640	-110.161	-0.225	-0.047
-220.625	658.416	0.126	-0.321
-219.611	-30.162	-0.049	0.028
-218.596	-107.480	-0.345	-0.075
-217.582	316.496	-0.123	-0.231
-216.567	571.842	0.162	-0.392
-215.552	-95.263	0.167	0.044
-214.538	-200.000	0.009	0.269
-213.523	-50.169	0.187	0.088
-212.509	-95.428	-0.158	-0.042
-211.494	-200.000	0.005	-0.260
-210.479	-73.097	0.125	-0.045
-209.465	-106.169	0.408	-0.091
-208.450	-200.000	-0.002	-0.179
-207.436	87.847	0.110	0.121
-206.421	342.691	0.145	-0.281
-205.406	-178.481	0.283	0.007
-204.392	297.203	0.091	-0.166
-203.377	-200.000	-0.006	-0.109
-202.363	81.743	-0.171	0.184
-201.348	-121.662	0.264	0.043
-200.333	22.363	-0.347	-0.281
-199.319	1.350	0.102	-0.073
-198.304	-12.961	0.280	0.180
-197.290	9.496	-0.330	0.248
-196.275	-25.682	-0.198	0.116
-195.260	-69.028	0.132	-0.050
-194.246	238.735	0.075	-0.124
-193.231	632.771	0.070	-0.176
-192.217	31.997	0.261	0.223
-191.202	38.418	0.173	-0.153
-190.187	360.681	0.101	-0.201
-189.173	-89.758	-0.057	0.017
-188.158	-110.732	0.060	-0.012
-187.144	-200.000	-0.011	-0.073
-186.129	322.991	0.028	0.052
-185.114	800.000	0.119	0.484
-184.100	205.241	0.062	-0.095
-183.085	-200.000	-0.069	-0.350
-182.071	-200.000	-0.035	-0.305
-181.056	-200.000	0.036	-0.162
-180.042	192.258	0.108	-0.161
-179.027	100.307	0.152	-0.174
-178.012	-200.000	0.001	-0.041
-176.998	21.869	0.049	0.040
-175.983	186.096	-0.011	0.016
-174.969	210.247	0.136	0.211
-173.954	-84.031	0.282	-0.089
-172.939	649.469	-0.133	0.337
-171.925	78.071	0.121	0.128
-170.910	-172.485	0.067	-0.002
-169.896	-105.470	-0.117	0.026
-168.881	-22.764	0.229	-0.137
-167.866	-42.680	0.148	-0.075
-166.852	225.611	-0.240	0.385
-165.837	105.107	0.076	0.089
-164.823	800.000	-0.114	0.458
-163.808	-38.375	-0.075	-0.039
-162.793	-83.129	0.090	0.029
-161.779	-107.161	0.383	0.083
-160.764	-200.000	-0.015	-0.148
-159.750	-161.513	0.388	-0.020
-158.735	-181.990	0.236	0.004
-157.720	46.010	0.223	0.204
-156.706	-200.000	-0.041	0.184
-155.691	-33.447	0.178	0.097
-154.677	-200.000	0.033	0.258
-153.662	-74.593	-0.212	0.075
-152.647	-200.000	0.035	-0.391
-151.633	230.554	-0.080	0.130
-150.618	-109.492	0.245	0.051
-149.604	37.567	-0.177	0.155
-148.589	156.256	0.155	0.212
-147.574	-200.000	-0.014	-0.091
-146.560	-40.916	-0.253	-0.129
-145.545	-200.000	-0.003	0.100
-144.531	-200.000	0.061	0.348
-143.516	599.480	-0.087	-0.215
-142.502	189.705	-0.053	0.078
-141.487	-50.432	0.178	0.083
-140.472	363.133	-0.103	0.205
-139.458	-200.000	0.002	-0.182
-138.443	-0.210	0.135	-0.095
-137.429	232.623	0.123	0.200
-136.414	78.437	0.143	0.151
-135.399	-39.166	0.138	0.072
-134.385	800.000	-0.050	0.146
-133.370	-50.450	-0.055	0.026
-132.356	-52.079	-0.120	-0.055
-131.341	67.354	0.050	0.051
-130.326	-200.000	-0.018	-0.158
-129.312	513.207	-0.135	-0.311
-128.297	-68.046	0.195	0.075
-127.283	-119.534	-0.230	-0.039
-126.268	800.000	0.061	0.172
-125.253	-69.491	-0.540	0.205
-124.239	198.808	-0.077	-0.116
-123.224	800.000	0.077	0.219
-122.210	-127.841	-0.256	0.036
-121.195	191.390	-0.276	-0.410
-120.180	-92.028	0.151	-0.042
-119.166	-60.791	0.065	-0.027
-118.151	696.586	-0.041	0.105
-117.137	-157.788	0.194	0.011
-116.122	800.000	0.075	0.257
-115.107	-17.215	0.230	-0.144
-114.093	-123.672	-0.160	-0.025
-113.078	54.858	-0.074	-0.070
-112.064	-108.912	0.103	-0.022
-111.049	-200.000	0.004	-0.264
-110.034	143.967	-0.122	0.160
-109.020	-144.745	-0.306	-0.028
-108.005	-73.395	-0.354	-0.128
-106.991	-115.493	-0.131	0.024
-105.976	580.227	0.051	0.123
-104.962	-40.188	0.497	0.256
-103.947	74.299	0.303	-0.314
-102.932	800.000	0.026	0.095
-101.918	800.000	-0.028	0.098
-100.903	501.013	0.051	-0.117
-99.889	-187.152	0.409	-0.006
-98.874	-129.936	-0.103	-0.014
-97.859	446.518	-0.049	0.107
-96.845	-200.000	0.079	-0.435
-95.830	-63.875	0.103	-0.042
-94.816	-200.000	-0.008	0.104
-93.801	-38.206	0.172	0.090
-92.786	800.000	0.079	0.258
-91.772	-200.000	0.038	-0.221
-90.757	-120.310	-0.084	0.014
-89.743	800.000	0.023	-0.068
-88.728	0.057	-0.161	-0.113
-87.713	-200.000	-0.010	-0.140
-86.699	-56.267	0.275	-0.121
-85.684	-169.815	-0.155	-0.006
-84.670	282.229	-0.037	0.066
-83.655	-154.470	0.353	-0.023
-82.640	-159.276	-0.113	-0.006
-81.626	-91.022	-0.075	-0.021
-80.611	800.000	0.075	0.307
-79.597	28.418	0.232	0.194
-78.582	-76.261	0.287	0.100
-77.567	374.921	0.030	-0.060
-76.553	-110.400	0.433	0.089
-75.538	433.013	0.121	0.259
-74.524	625.759	-0.097	0.241
-73.509	37.226	-0.165	-0.144
-72.494	-35.350	0.256	-0.137
-71.480	127.770	0.132	-0.165
-70.465	-101.553	-0.330	0.079
-69.451	81.166	0.205	0.219
-68.436	72.438	0.081	-0.084
-67.422	-200.000	0.031	0.224
-66.407	-132.615	-0.294	0.037
-65.392	-51.973	-0.296	-0.136
-64.378	-200.000	-0.047	-0.457
-63.363	-200.000	-0.029	-0.192
-62.349	-200.000	-0.025	0.196
-61.334	265.010	-0.531	-0.912
-60.319	-66.311	0.526	0.206
-59.305	625.841	-0.322	-0.801
-58.290	800.000	0.327	1.148
-57.276	800.000	0.456	1.854
-56.261	-200.000	96.987	568.160
-55.246	508.176	1436.223	3287.205
-54.232	145.633	2648.155	3497.461
-53.217	109.750	2211.550	2613.746
-52.203	44.875	1650.014	1497.009
-51.188	36.763	1380.688	1202.480
-50.173	33.503	1337.431	1145.104
-49.159	54.662	1386.200	1317.472
-48.144	57.688	1403.098	1352.075
-47.130	37.099	1358.925	1185.393
-46.115	33.614	1340.625	1148.330
-45.100	33.423	1336.048	1143.207
-44.086	33.199	1333.808	1139.898
-43.071	33.216	1331.407	1137.904
-42.057	33.183	1329.264	1135.827
-41.042	33.185	1328.137	1134.828
-40.027	33.336	1326.439	1134.241
-39.013	33.336	1324.091	1132.187
-37.998	33.314	1322.421	1130.583
-36.984	33.318	1321.031	1129.373
-35.969	33.310	1319.102	1127.629
-34.954	33.348	1317.062	1126.066
-33.940	33.460	1315.769	1125.582
-32.925	33.370	1314.788	1124.165
-31.911	33.408	1313.151	1122.949
-30.896	33.587	1310.889	1122.026
-29.881	33.437	1310.120	1120.435
-28.867	33.503	1308.363	1119.278
-27.852	33.401	1307.622	1117.998
-26.838	33.383	1305.903	1116.381
-25.823	33.458	1304.711	1115.756
-24.809	33.445	1303.178	1114.327
-23.794	33.323	1301.762	1112.354
-22.779	33.490	1299.745	1111.566
-21.765	33.507	1298.953	1110.944
-20.750	33.431	1297.725	1109.403
-19.736	33.399	1296.674	1108.275
-18.721	33.380	1295.050	1106.734
-17.706	33.308	1294.330	1105.654
-16.692	33.333	1292.843	1104.488
-15.677	33.223	1292.081	1103.146
-14.663	33.298	1290.897	1102.531
-13.648	33.213	1289.784	1101.044
-12.633	33.251	1288.717	1100.307
-11.619	33.135	1288.548	1099.445
-10.604	33.121	1287.373	1098.321
-9.590	33.207	1286.132	1097.717
-8.575	33.227	1284.808	1096.655
-7.560	33.231	1284.580	1096.439
-6.546	33.147	1283.782	1095.229
-5.531	33.078	1282.802	1093.950
-4.517	33.234	1281.562	1093.754
-3.502	33.226	1280.776	1092.993
-2.487	33.223	1279.902	1092.189
-1.473	33.364	1276.412	1089.979
-0.458	32.678	1262.149	1073.845
0.556	28.311	1245.577	1040.809
1.571	24.993	1253.030	1027.944
2.586	24.099	1269.518	1036.175
3.600	23.475	1258.124	1023.187
4.615	20.277	1188.407	948.942
5.629	15.107	1116.056	864.468
6.644	12.668	1096.062	836.528
7.659	12.321	1094.060	833.166
8.673	12.276	1092.781	831.887
9.688	12.216	1091.457	830.506
10.702	12.517	1089.791	830.682
11.717	16.043	1094.509	852.065
12.731	19.889	1099.100	875.050
13.746	19.302	1097.155	870.456
14.761	17.665	1094.440	859.976
15.775	16.600	1091.969	852.591
16.790	15.596	1089.571	845.593
17.804	14.857	1088.441	840.926
18.819	14.294	1086.940	836.862
19.834	13.970	1086.147	834.551
20.848	13.741	1085.189	832.593
21.863	13.455	1084.240	830.357
22.877	13.346	1083.551	829.207
23.892	13.328	1082.967	828.596
24.907	13.315	1082.300	827.949
25.921	13.431	1080.854	827.348
26.936	13.460	1079.077	826.059
27.950	13.488	1078.042	825.336
28.965	13.542	1076.569	824.405
29.980	13.624	1074.985	823.527
30.994	13.612	1074.241	822.824
32.009	13.802	1072.741	822.544
33.023	13.606	1071.988	820.921
34.038	13.526	1070.726	819.488
35.053	13.557	1069.791	818.850
36.067	13.479	1069.187	817.930
37.082	13.537	1068.334	817.496
38.096	13.546	1067.459	816.796
39.111	13.589	1066.841	816.464
40.126	13.457	1065.528	814.733
41.140	13.400	1064.229	813.388
42.155	13.294	1063.224	812.029
43.169	13.363	1061.847	811.247
44.184	13.395	1060.994	810.680
45.199	13.341	1059.713	809.362
46.213	13.261	1059.525	808.758
47.228	13.480	1058.261	808.792
48.242	13.424	1057.149	807.594
49.257	13.459	1056.445	807.158
50.271	13.489	1054.862	806.025
51.286	13.619	1054.458	806.277
52.301	13.578	1052.953	804.854
53.315	13.502	1052.514	804.079
54.330	13.321	1051.219	802.142
55.344	13.413	1050.315	801.825
56.359	13.286	1049.669	800.646
57.374	13.384	1048.287	799.996
58.388	13.330	1047.807	799.296
59.403	13.353	1046.883	798.630
60.417	13.310	1045.913	797.613
61.432	13.289	1045.455	797.094
62.447	13.301	1044.457	796.317
63.461	13.226	1043.737	795.338
64.476	13.326	1042.540	794.838
65.490	13.241	1041.780	793.781
66.505	13.214	1041.113	793.072
67.520	13.260	1040.356	792.645
68.534	13.367	1039.354	792.326
69.549	13.294	1038.497	791.250
70.563	13.294	1037.882	790.712
71.578	13.236	1037.724	790.243
72.593	13.141	1036.812	789.029
73.607	13.141	1036.054	788.381
74.622	13.206	1035.372	788.102
75.636	13.171	1034.268	787.026
76.651	13.099	1033.989	786.398
77.666	13.249	1032.566	785.959
78.680	13.201	1032.210	785.393
79.695	13.231	1031.918	785.241
80.709	13.450	1030.642	785.242
81.724	13.286	1030.252	784.097
82.739	13.353	1029.265	783.593
83.753	13.476	1028.845	783.786
84.768	13.606	1027.438	783.262
85.782	13.571	1026.461	782.280
86.797	13.589	1025.535	781.590
87.812	13.501	1024.730	780.493
88.826	13.446	1024.012	779.619
89.841	13.577	1022.433	778.966
90.855	13.525	1021.975	778.299
91.870	13.647	1021.117	778.155
92.884	13.639	1020.184	777.336
93.899	13.626	1019.059	776.347
94.914	13.702	1018.269	776.035
95.928	13.607	1017.708	775.094
96.943	13.607	1016.659	774.228
97.957	13.537	1015.701	773.100
98.972	13.619	1014.947	772.839
99.987	13.572	1014.129	771.931
101.001	13.596	1012.700	770.884
102.016	13.657	1011.712	770.349
103.030	13.641	1010.954	769.631
104.045	13.754	1010.091	769.428
105.060	13.507	1009.681	767.905
106.074	13.420	1009.017	766.929
107.089	13.323	1007.966	765.611
108.103	13.375	1006.364	764.567
109.118	13.454	1005.853	764.475
110.133	13.523	1004.749	763.885
111.147	13.313	1004.395	762.580
112.162	13.402	1003.229	762.041
113.176	13.462	1002.368	761.593
114.191	13.442	1002.015	761.164
115.206	13.488	1001.057	760.585
116.220	13.561	1000.194	760.194
117.235	13.480	999.192	758.993
118.249	13.478	998.395	758.312
119.264	13.421	997.872	757.588
120.279	13.467	996.808	756.923
121.293	13.372	996.305	756.041
122.308	13.365	995.012	754.958
123.322	13.326	994.333	754.202
124.337	13.347	992.900	753.142
125.352	13.366	992.452	752.824
126.366	13.593	990.940	752.642
127.381	13.451	989.890	751.131
128.395	13.451	989.169	750.516
129.410	13.456	988.465	749.938
130.424	13.387	987.509	748.835
131.439	13.551	986.536	748.772
132.454	13.550	985.898	748.220
133.468	13.587	985.231	747.812
134.483	13.496	984.315	746.643
135.497	13.550	983.611	746.284
136.512	13.572	982.741	745.659
137.527	13.575	982.086	745.108
138.541	13.724	980.641	744.616
139.556	13.635	980.313	743.902
140.570	13.734	979.715	743.824
141.585	13.728	978.796	743.037
142.600	13.819	977.902	742.698
143.614	13.830	976.934	741.948
144.629	13.771	976.465	741.261
145.643	13.585	975.853	739.900
146.658	13.657	974.581	739.191
147.673	13.732	973.374	738.543
148.687	13.654	972.658	737.590
149.702	13.611	971.915	736.769
150.716	13.703	971.045	736.453
151.731	13.615	970.455	735.550
152.746	13.717	969.589	735.281
153.760	13.652	969.242	734.665
154.775	13.702	968.654	734.374
155.789	13.743	967.939	733.949
156.804	13.711	967.586	733.476
157.819	13.934	966.393	733.492
158.833	13.779	966.365	732.719
159.848	13.874	965.333	732.293
160.862	13.861	964.423	731.481
161.877	13.769	963.351	730.198
162.892	13.714	962.667	729.370
163.906	13.723	961.242	728.266
164.921	13.686	960.534	727.504
165.935	13.729	959.910	727.155
166.950	13.763	958.954	726.515
167.964	13.947	957.732	726.331
168.979	13.769	957.041	724.965
169.994	13.786	956.419	724.502
171.008	13.906	955.468	724.241
172.023	13.934	954.946	723.903
173.037	13.892	954.387	723.234
174.052	13.865	953.447	722.340
175.067	13.867	952.438	721.518
176.081	13.826	951.917	720.883
177.096	13.826	951.249	720.314
178.110	13.865	950.575	719.908
179.125	13.920	950.149	719.759
180.140	13.835	949.830	719.087
181.154	13.862	949.569	718.944
182.169	14.009	948.812	718.942
183.183	14.034	947.912	718.305
184.198	14.156	947.242	718.261
185.213	14.002	946.387	716.884
186.227	14.097	945.792	716.782
187.242	14.065	945.501	716.359
188.256	14.027	944.876	715.658
189.271	14.024	943.990	714.911
190.286	13.861	943.347	713.659
191.300	13.947	941.824	712.814
192.315	13.953	941.475	712.511
193.329	14.002	940.887	712.213
194.344	13.941	940.469	711.572
195.359	14.093	939.747	711.612
196.373	14.088	939.008	710.972
197.388	14.118	938.862	710.926
198.402	14.219	938.467	710.995
199.417	14.258	937.844	710.625
200.432	14.296	937.032	710.109
201.446	14.248	936.864	709.714
202.461	14.291	936.142	709.288
203.475	14.276	935.596	708.750
204.490	14.270	934.705	707.986
205.504	14.302	933.873	707.427
206.519	14.270	932.794	706.412
207.534	14.276	932.375	706.060
208.548	14.309	931.858	705.745
209.563	14.332	931.223	705.298
210.577	14.379	930.309	704.742
211.592	14.458	930.021	704.794
212.607	14.388	929.076	703.721
213.621	14.471	928.083	703.257
214.636	14.449	927.678	702.797
215.650	14.438	927.133	702.274
216.665	14.499	926.243	701.794
217.680	14.627	925.516	701.721
218.694	14.576	924.797	700.897
219.709	14.588	924.125	700.377
220.723	14.506	923.609	699.578
221.738	14.667	922.520	699.367
222.753	14.612	922.221	698.849
223.767	14.625	921.527	698.317
224.782	14.651	921.074	698.018
225.796	14.730	920.081	697.536
226.811	14.577	919.946	696.732
227.826	14.603	918.913	695.995
228.840	14.681	918.077	695.625
229.855	14.656	917.732	695.202
230.869	14.701	916.446	694.352
231.884	14.590	915.970	693.468
232.899	14.603	915.226	692.897
233.913	14.579	914.579	692.247
234.928	14.578	914.193	691.889
235.942	14.613	913.100	691.145
236.957	14.689	912.437	690.898
237.972	14.623	912.363	690.506
238.986	14.608	911.783	689.945
240.001	14.624	911.303	689.588
241.015	14.692	910.136	688.925
242.030	14.752	909.832	688.878
243.045	14.711	909.311	688.256
244.059	14.700	908.933	687.863
245.074	14.715	908.165	687.281
246.088	14.791	907.193	686.797
247.103	14.883	906.238	686.393
248.117	14.906	906.095	686.316
249.132	14.936	905.453	685.893
250.147	15.148	904.967	686.332
251.161	15.086	904.105	685.367
252.176	15.077	903.659	684.931
253.190	15.200	902.864	684.769
254.205	15.161	902.339	684.150
255.220	15.196	901.596	683.672
256.234	15.140	901.038	682.960
257.249	15.152	900.559	682.585
258.263	15.266	899.147	681.918
259.278	15.187	898.758	681.242
260.293	15.264	898.154	681.033
261.307	15.319	897.811	680.938
262.322	15.310	897.145	680.338
263.336	15.379	896.151	679.800
264.351	15.426	895.323	679.305
265.366	15.469	894.568	678.845
266.380	15.349	894.260	678.066
267.395	15.366	893.404	677.427
268.409	15.456	892.221	676.833
269.424	15.405	891.695	676.168
270.439	15.434	891.195	675.846
271.453	15.353	890.372	674.835
272.468	15.338	890.272	674.638
273.482	15.304	889.427	673.805
274.497	15.303	888.839	673.294
275.512	15.297	888.296	672.797
276.526	15.463	887.952	673.144
277.541	15.444	887.340	672.542
278.555	15.435	886.991	672.182
279.570	15.613	886.231	672.261
280.585	15.626	885.203	671.475
281.599	15.508	884.573	670.465
282.614	15.454	884.146	669.867
283.628	15.540	883.501	669.661
284.643	15.649	882.488	669.269
285.657	15.429	882.276	668.175
286.672	15.510	881.597	667.921
287.687	15.482	881.150	667.411
288.701	15.533	880.519	667.079
289.716	15.664	879.545	666.799
290.730	15.537	879.087	665.892
291.745	15.626	878.768	665.944
292.760	15.756	877.818	665.678
293.774	15.838	876.978	665.309
294.789	15.811	876.544	664.814
295.803	15.711	876.144	664.055
296.818	15.719	875.294	663.384
297.833	15.628	874.509	662.371
298.847	15.776	874.052	662.552
299.862	15.852	873.261	662.190
300.876	15.910	872.801	662.011
301.891	15.802	872.219	661.085
302.906	15.877	871.930	661.105
303.920	15.966	871.185	660.830
304.935	15.943	870.792	660.381
305.949	15.904	870.156	659.691
306.964	15.985	869.394	659.370
307.979	15.953	868.763	658.708
308.993	16.068	868.301	658.748
310.008	16.113	867.382	658.170
311.022	15.908	867.083	657.085
312.037	15.928	866.374	656.565
313.052	15.937	865.873	656.164
314.066	15.931	865.368	655.702
315.081	15.939	864.761	655.215
316.095	15.980	863.801	654.589
317.110	16.032	863.276	654.332
318.125	15.997	862.900	653.854
319.139	16.005	862.756	653.718
320.154	16.000	862.350	653.333
321.168	16.095	861.231	652.798
322.183	16.155	860.810	652.651
323.197	15.998	860.382	651.662
324.212	16.146	859.869	651.788
325.227	16.043	859.255	650.867
326.241	15.937	858.882	650.116
327.256	16.042	858.172	649.927
328.270	16.078	857.110	649.204
329.285	16.009	856.958	648.767
330.300	16.078	856.409	648.559
331.314	16.077	855.754	648.003
332.329	16.155	855.124	647.768
333.343	16.211	855.043	647.864
334.358	16.302	854.262	647.563
335.373	16.265	854.056	647.208
336.387	16.256	853.918	647.013
337.402	16.353	853.545	647.042
338.416	16.345	853.347	646.804
339.431	16.457	852.662	646.656
340.446	16.427	852.260	646.179
341.460	16.389	852.010	645.788
342.475	16.548	851.588	646.018
343.489	16.518	851.039	645.432
344.504	16.531	850.629	645.112
345.519	16.481	850.159	644.507
346.533	16.678	849.445	644.659
347.548	16.472	849.207	643.640
348.562	16.363	848.855	642.898
349.577	16.507	847.950	642.703
350.592	16.513	847.103	642.028
351.606	16.596	846.523	641.849
352.621	16.423	845.788	640.575
353.635	16.431	845.234	640.133
354.650	16.541	844.610	640.018
355.665	16.580	843.736	639.447
356.679	16.603	842.984	638.908
357.694	16.653	842.329	638.542
358.708	16.507	842.045	637.720
359.723	16.553	841.320	637.287
360.738	16.700	840.482	637.153
361.752	16.735	840.136	636.965
362.767	16.805	839.637	636.791
363.781	16.718	839.478	636.288
364.796	16.911	838.529	636.237
365.810	16.872	838.370	635.914
366.825	16.821	838.307	635.618
367.840	16.933	837.420	635.309
368.854	16.900	836.899	634.736
369.869	16.885	836.757	634.514
370.883	16.911	835.961	633.953
371.898	16.921	835.825	633.828
372.913	16.911	835.373	633.394
373.927	16.848	834.883	632.731
374.942	17.028	834.439	633.010
375.956	17.118	833.897	632.878
376.971	17.113	833.540	632.532
377.986	17.120	833.216	632.256
379.000	17.274	832.021	631.866
380.015	17.180	831.849	631.330
381.029	17.128	831.819	631.056
382.044	17.156	830.706	630.264
383.059	17.233	830.239	630.137
384.073	17.045	829.782	629.038
385.088	17.097	828.980	628.566
386.102	17.193	828.465	628.478
387.117	17.067	827.950	627.565
388.132	17.288	827.019	627.619
389.146	17.085	826.878	626.707
390.161	17.185	826.602	626.810
391.175	17.238	826.063	626.543
392.190	17.218	825.403	625.913
393.205	17.144	825.009	625.287
394.219	17.199	824.292	624.892
395.234	17.205	824.399	624.939
396.248	17.354	823.487	624.737
397.263	17.192	823.183	623.858
398.278	17.110	823.233	623.538
399.292	17.207	822.564	623.334
400.307	17.219	821.733	622.694
401.321	17.144	821.727	622.356
402.336	17.133	821.100	621.786
403.350	17.405	820.564	622.321
404.365	17.301	820.354	621.727
405.380	17.425	819.547	621.512
406.394	17.602	818.711	621.468
407.409	17.621	818.562	621.370
408.423	17.411	818.645	620.612
409.438	17.495	818.012	620.384
410.453	17.482	817.545	619.929
411.467	17.447	817.293	619.554
412.482	17.477	817.107	619.467
413.496	17.582	816.425	619.280
414.511	17.685	815.959	619.243
415.526	17.581	815.566	618.514
416.540	17.609	815.193	618.279
417.555	17.716	814.310	617.941
418.569	17.667	814.008	617.480
419.584	17.704	813.522	617.191
420.599	17.770	813.115	617.066
421.613	105.330	1287.347	1449.475
422.628	90.859	1356.451	1449.593
