DTS Sentinel unit serial number:	SN413079Multiplexer serial number:	ORYXHardware model number:	OX4-SRSoftware version number:	ORYX F/W v4.00 Oryx Data Collector v3.7.2.0data status	okinstallation	princeton_trtdifferential loss correction	single-endedforward channel	channel 1reverse channel	N/Adate	2019/09/14time	03:06:35forward acquisition time	60.00reverse acquisition time	0.00gamma	496.2192k internal	0.2335k external	0.2335temperature offset calibration	1.0079default loss term (dB/km)	0.3790temperature slope calibration	1.0000multiplexer offset coefficient	1.0000multiplexer slope coefficient	1.0000fibre end	0.00T internal ref (°C)	26.56T ext. ref 1 (°C)	3.26T ext. ref 2 (°C)	21.64length (m)	temperature (°C)	Stokes	anti-Stokes-747.200	800.000	-0.055	-0.223
-746.185	476.187	-0.082	0.187
-745.171	800.000	-0.019	0.073
-744.156	-200.000	-0.001	-0.233
-743.142	-200.000	-0.005	-0.132
-742.127	-156.439	0.296	0.019
-741.112	429.902	0.087	-0.188
-740.098	-105.078	-0.143	-0.033
-739.083	-77.897	0.280	-0.097
-738.069	391.009	-0.140	0.292
-737.054	-200.000	-0.011	-0.226
-736.039	5.373	0.168	0.124
-735.025	-79.010	0.206	-0.070
-734.010	800.000	-0.079	-0.222
-732.996	-200.000	0.005	-0.120
-731.981	-100.130	-0.077	-0.019
-730.966	-189.023	-0.214	-0.003
-729.952	-115.080	-0.098	-0.019
-728.937	43.062	-0.085	-0.078
-727.923	800.000	0.067	-0.201
-726.908	3.860	-0.339	0.249
-725.894	-50.693	-0.194	0.092
-724.879	-200.000	-0.003	0.121
-723.864	800.000	-0.032	0.124
-722.850	-127.846	0.284	0.041
-721.835	386.857	0.077	-0.160
-720.821	171.869	0.094	0.135
-719.806	-10.165	0.228	0.152
-718.791	-41.163	-0.185	0.096
-717.777	-190.643	0.178	-0.002
-716.762	-102.133	0.227	0.055
-715.748	119.739	-0.004	-0.005
-714.733	375.585	-0.155	-0.316
-713.718	38.261	-0.108	-0.097
-712.704	-200.000	0.001	-0.046
-711.689	-200.000	-0.004	0.057
-710.675	-110.188	0.051	-0.011
-709.660	54.413	0.296	0.286
-708.645	-149.036	-0.450	0.036
-707.631	-145.866	0.071	-0.006
-706.616	378.392	0.046	0.095
-705.602	82.796	0.177	0.193
-704.587	121.332	-0.103	-0.128
-703.572	-79.799	-0.349	0.118
-702.558	30.864	0.304	-0.261
-701.543	-200.000	0.002	-0.205
-700.529	388.644	0.059	-0.122
-699.514	392.710	-0.059	0.123
-698.499	-35.866	-0.484	0.262
-697.485	-121.222	0.129	-0.022
-696.470	800.000	0.005	0.021
-695.456	139.372	0.133	-0.176
-694.441	-200.000	0.026	-0.114
-693.426	-3.572	-0.184	0.128
-692.412	5.323	-0.235	-0.174
-691.397	-156.205	-0.066	0.004
-690.383	-200.000	0.046	-0.272
-689.368	-200.000	-0.015	-0.121
-688.354	-50.014	0.214	-0.101
-687.339	675.194	0.062	-0.160
-686.324	115.875	0.144	0.177
-685.310	48.158	-0.132	-0.124
-684.295	61.900	0.291	-0.291
-683.281	502.033	-0.065	-0.150
-682.266	159.006	-0.246	0.343
-681.251	800.000	-0.032	-0.129
-680.237	413.893	-0.104	0.223
-679.222	800.000	-0.166	0.520
-678.208	-95.245	-0.078	0.021
-677.193	118.862	0.003	-0.004
-676.178	-200.000	-0.067	-0.391
-675.164	800.000	-0.071	0.293
-674.149	-1.193	0.033	0.023
-673.135	164.716	-0.024	-0.034
-672.120	135.147	-0.218	-0.284
-671.105	95.431	0.109	-0.125
-670.091	800.000	0.096	0.333
-669.076	-165.905	-0.156	0.007
-668.062	-200.000	-0.042	0.284
-667.047	-107.563	-0.165	-0.036
-666.032	9.344	-0.322	-0.244
-665.018	397.021	0.176	0.367
-664.003	-200.000	-0.080	0.420
-662.989	9.989	-0.144	-0.109
-661.974	-62.855	0.278	0.115
-660.959	621.693	-0.115	-0.289
-659.945	800.000	-0.029	-0.112
-658.930	162.750	0.154	0.217
-657.916	800.000	-0.059	-0.212
-656.901	-10.716	0.112	0.074
-655.886	-106.240	0.247	0.055
-654.872	800.000	0.015	0.045
-653.857	724.146	-0.133	-0.354
-652.843	-200.000	0.000	-0.310
-651.828	-52.545	-0.072	0.033
-650.814	-21.036	0.072	0.044
-649.799	-138.090	-0.076	0.008
-648.784	190.223	0.113	0.170
-647.770	800.000	0.051	-0.165
-646.755	426.042	0.019	-0.041
-645.741	-162.771	0.293	-0.014
-644.726	-200.000	-0.044	0.366
-643.711	-84.434	-0.178	-0.056
-642.697	56.469	-0.200	0.195
-641.682	-106.857	-0.187	0.042
-640.668	78.700	-0.419	-0.448
-639.653	304.888	0.125	-0.233
-638.638	-4.074	0.140	-0.097
-637.624	-137.439	-0.149	-0.017
-636.609	34.894	0.210	-0.184
-635.595	37.706	0.095	-0.085
-634.580	-64.933	-0.263	0.106
-633.565	-143.941	0.102	0.010
-632.551	-98.536	0.195	-0.050
-631.536	74.265	-0.199	-0.209
-630.522	761.564	0.070	0.189
-629.507	-139.948	0.089	0.009
-628.492	-169.886	0.086	-0.003
-627.478	82.699	0.105	0.115
-626.463	800.000	-0.088	-0.337
-625.449	727.672	-0.077	0.205
-624.434	40.427	0.091	-0.082
-623.419	-200.000	0.093	0.443
-622.405	794.418	0.032	0.089
-621.390	-12.334	0.215	-0.141
-620.376	338.690	-0.046	-0.089
-619.361	-200.000	-0.005	-0.375
-618.346	93.938	0.212	-0.240
-617.332	-2.564	-0.029	0.020
-616.317	-45.072	-0.252	0.125
-615.303	145.089	0.066	0.089
-614.288	-179.079	0.251	-0.006
-613.273	-200.000	-0.046	0.211
-612.259	-200.000	-0.070	-0.352
-611.244	-200.000	0.014	-0.091
-610.230	384.114	-0.042	-0.087
-609.215	168.182	0.115	0.164
-608.201	-200.000	0.008	-0.206
-607.186	4.229	-0.044	0.032
-606.171	280.049	-0.148	-0.263
-605.157	800.000	0.077	0.219
-604.142	26.847	-0.426	0.356
-603.128	-200.000	-0.001	0.129
-602.113	-38.128	0.001	-0.001
-601.098	15.850	-0.171	-0.134
-600.084	551.663	0.040	-0.096
-599.069	355.548	-0.156	0.310
-598.055	800.000	0.034	0.132
-597.040	800.000	-0.021	-0.082
-596.025	-113.223	-0.359	-0.071
-595.011	-118.625	-0.168	0.030
-593.996	4.419	0.283	0.207
-592.982	43.277	-0.147	0.134
-591.967	-200.000	0.002	0.130
-590.952	21.253	0.093	-0.075
-589.938	793.307	-0.078	-0.213
-588.923	-200.000	0.030	0.222
-587.909	555.078	-0.129	0.309
-586.894	-80.798	-0.221	0.073
-585.879	189.643	0.056	-0.084
-584.865	-107.461	0.064	0.014
-583.850	-36.210	0.268	0.145
-582.836	162.932	-0.097	0.136
-581.821	-132.425	-0.452	0.058
-580.806	-200.000	0.008	0.107
-579.792	-155.863	0.527	-0.034
-578.777	-16.794	-0.161	-0.101
-577.763	-200.000	0.012	0.054
-576.748	-103.419	-0.080	0.019
-575.733	-100.645	-0.412	-0.102
-574.719	-200.000	-0.064	-0.452
-573.704	51.190	-0.052	0.049
-572.690	203.819	0.079	0.122
-571.675	79.753	-0.202	0.217
-570.661	-109.287	0.071	0.015
-569.646	-111.588	-0.087	-0.018
-568.631	32.299	0.151	-0.130
-567.617	800.000	-0.006	0.026
-566.602	690.854	0.106	0.278
-565.588	259.568	-0.077	0.133
-564.573	-200.000	-0.032	-0.438
-563.558	-200.000	0.051	0.222
-562.544	-109.359	0.084	0.018
-561.529	285.639	0.041	-0.074
-560.515	-99.799	-0.323	-0.081
-559.500	-112.951	-0.325	0.064
-558.485	-200.000	0.012	0.074
-557.471	41.286	0.046	0.041
-556.456	-111.330	-0.186	-0.038
-555.442	-200.000	0.004	0.147
-554.427	-200.000	0.019	-0.240
-553.412	-43.539	0.158	0.079
-552.398	-51.878	0.302	0.140
-551.383	-94.935	0.347	0.094
-550.369	47.654	0.080	0.074
-549.354	-200.000	0.072	0.390
-548.339	206.914	-0.150	-0.233
-547.325	88.593	0.141	-0.156
-546.310	689.105	0.054	0.140
-545.296	415.803	0.091	0.193
-544.281	-150.989	0.244	0.018
-543.266	-166.282	-0.269	0.011
-542.252	-200.000	-0.067	-0.360
-541.237	-200.000	-0.019	-0.160
-540.223	-29.451	0.221	0.126
-539.208	102.293	0.292	0.340
-538.193	-200.000	-0.020	-0.110
-537.179	800.000	0.024	0.078
-536.164	-40.751	-0.161	-0.083
-535.150	-200.000	0.059	0.313
-534.135	-200.000	-0.002	0.137
-533.121	-77.343	0.315	-0.109
-532.106	-152.406	-0.285	0.020
-531.091	-6.562	0.053	0.036
-530.077	-200.000	-0.037	-0.192
-529.062	-200.000	-0.002	0.257
-528.048	-200.000	-0.005	0.095
-527.033	-17.756	-0.036	0.022
-526.018	324.715	0.095	0.180
-525.004	68.278	-0.149	-0.152
-523.989	75.382	-0.151	-0.158
-522.975	-33.126	-0.016	-0.009
-521.960	-200.000	0.031	-0.137
-520.945	4.956	-0.202	-0.148
-519.931	-28.011	0.158	0.091
-518.916	-10.612	0.104	-0.068
-517.902	-200.000	-0.045	-0.267
-516.887	800.000	0.041	0.148
-515.872	800.000	-0.133	-0.469
-514.858	-93.642	-0.136	-0.037
-513.843	-154.714	-0.185	-0.012
-512.829	-200.000	0.042	0.188
-511.814	-75.052	0.177	-0.063
-510.799	49.619	0.226	0.212
-509.785	-112.931	0.112	0.022
-508.770	61.684	0.164	0.163
-507.756	-24.339	0.314	0.187
-506.741	-137.848	-0.333	-0.037
-505.726	236.705	0.065	-0.107
-504.712	-47.655	0.230	0.111
-503.697	144.069	-0.263	-0.349
-502.683	-6.723	-0.235	-0.159
-501.668	504.968	0.074	-0.170
-500.653	-99.428	-0.315	-0.079
-499.639	-42.615	0.063	-0.032
-498.624	46.466	0.293	0.271
-497.610	84.808	0.144	-0.157
-496.595	434.574	-0.143	-0.310
-495.581	-76.135	0.122	-0.043
-494.566	-11.002	-0.155	-0.102
-493.551	192.824	0.129	0.193
-492.537	-200.000	-0.018	-0.191
-491.522	-89.224	0.250	0.073
-490.508	-55.143	0.299	-0.134
-489.493	-113.626	-0.308	0.060
-488.478	74.904	0.039	-0.041
-487.464	16.677	0.147	-0.115
-486.449	-115.994	0.412	-0.076
-485.435	-200.000	0.017	-0.085
-484.420	556.377	0.022	0.053
-483.405	800.000	0.024	0.096
-482.391	-118.332	-0.220	0.039
-481.376	-114.036	-0.148	-0.029
-480.362	800.000	0.002	0.009
-479.347	-110.722	0.151	-0.031
-478.332	-152.831	0.065	-0.005
-477.318	608.704	0.115	0.285
-476.303	102.991	0.196	-0.229
-475.289	-158.584	0.201	-0.011
-474.274	-76.225	-0.300	-0.105
-473.259	-200.000	0.094	-0.413
-472.245	-42.451	0.245	-0.124
-471.230	-45.586	-0.014	0.007
-470.216	63.723	0.037	-0.037
-469.201	-72.806	-0.301	-0.110
-468.186	-167.276	-0.262	-0.011
-467.172	-144.824	0.174	0.016
-466.157	800.000	-0.104	0.330
-465.143	433.788	0.115	0.248
-464.128	186.436	-0.120	-0.178
-463.113	352.185	0.157	-0.309
-462.099	-200.000	-0.048	-0.281
-461.084	-53.205	-0.063	0.029
-460.070	120.396	-0.016	0.019
-459.055	36.205	-0.124	0.108
-458.040	-104.104	-0.284	-0.066
-457.026	-13.626	-0.188	-0.121
-456.011	-0.104	-0.177	0.125
-454.997	69.233	-0.233	0.238
-453.982	-200.000	0.016	0.106
-452.968	800.000	-0.031	0.112
-451.953	89.738	0.151	0.168
-450.938	608.781	-0.108	0.267
-449.924	46.879	-0.348	0.321
-448.909	109.273	-0.119	-0.142
-447.895	800.000	0.033	-0.137
-446.880	12.409	0.145	-0.111
-445.865	-200.000	-0.009	0.324
-444.851	-200.000	0.057	0.284
-443.836	-123.931	0.289	0.045
-442.822	227.896	0.048	-0.077
-441.807	90.097	-0.186	-0.206
-440.792	29.278	0.447	0.377
-439.778	30.587	-0.133	0.113
-438.763	0.629	0.138	0.098
-437.749	695.812	-0.049	0.128
-436.734	-200.000	0.009	-0.214
-435.719	135.337	0.101	-0.131
-434.705	-200.000	-0.021	-0.233
-433.690	-48.330	0.266	-0.127
-432.676	-200.000	0.013	-0.103
-431.661	-200.000	0.099	-0.584
-430.646	-144.981	-0.091	-0.008
-429.632	800.000	-0.050	0.183
-428.617	-29.336	0.266	-0.151
-427.603	55.534	-0.209	0.201
-426.588	80.279	0.152	0.163
-425.573	328.428	0.036	-0.068
-424.559	-138.331	-0.430	-0.047
-423.544	-92.580	-0.061	-0.017
-422.530	2.061	0.098	0.070
-421.515	86.156	0.112	0.123
-420.500	208.834	-0.107	-0.166
-419.486	-121.751	-0.226	0.037
-418.471	-104.569	0.246	-0.056
-417.457	1.618	-0.218	0.156
-416.442	-200.000	0.005	-0.058
-415.428	-200.000	0.052	-0.275
-414.413	-200.000	0.003	0.082
-413.398	152.555	-0.107	0.146
-412.384	77.136	-0.116	0.122
-411.369	-200.000	0.040	0.194
-410.355	-97.207	0.165	-0.043
-409.340	447.122	-0.063	0.137
-408.325	326.622	-0.197	0.375
-407.311	800.000	-0.098	0.407
-406.296	-200.000	-0.025	-0.124
-405.282	275.220	0.143	0.252
-404.267	22.294	-0.196	-0.159
-403.252	-200.000	0.006	0.070
-402.238	232.632	0.107	-0.174
-401.223	-200.000	-0.028	0.125
-400.209	800.000	0.029	-0.103
-399.194	164.021	0.128	0.178
-398.179	30.751	-0.065	-0.055
-397.165	-54.814	0.213	0.095
-396.150	145.855	-0.043	0.058
-395.136	111.675	0.011	-0.013
-394.121	-200.000	-0.014	0.236
-393.106	-67.839	-0.228	-0.088
-392.092	-114.383	-0.310	0.059
-391.077	-200.000	-0.030	-0.366
-390.063	440.909	-0.086	0.186
-389.048	-129.438	-0.081	0.011
-388.033	-131.643	-0.230	-0.030
-387.019	-20.910	0.194	-0.118
-386.004	225.852	0.245	-0.394
-384.990	20.424	0.055	-0.044
-383.975	83.491	0.075	0.081
-382.960	-55.441	-0.112	-0.050
-381.946	358.195	0.040	-0.079
-380.931	-30.232	0.142	0.080
-379.917	800.000	-0.039	0.143
-378.902	-164.184	-0.334	-0.015
-377.888	10.952	-0.184	-0.139
-376.873	78.983	-0.082	-0.087
-375.858	-140.434	-0.297	0.031
-374.844	144.959	-0.095	-0.126
-373.829	-62.739	0.149	0.061
-372.815	130.485	0.216	-0.274
-371.800	298.646	0.082	-0.150
-370.785	-84.856	-0.204	0.064
-369.771	22.958	0.240	-0.195
-368.756	-121.768	0.349	-0.057
-367.742	127.488	-0.117	0.147
-366.727	-164.511	0.172	0.008
-365.712	-60.637	0.258	0.108
-364.698	-149.785	0.371	-0.029
-363.683	-108.824	0.127	0.027
-362.669	-29.897	0.143	-0.081
-361.654	-111.418	-0.254	-0.051
-360.639	-66.987	-0.268	0.105
-359.625	-94.894	0.403	0.108
-358.610	48.837	-0.072	0.067
-357.596	195.119	0.153	-0.230
-356.581	72.807	0.166	0.171
-355.566	-200.000	0.001	0.282
-354.552	-74.627	0.176	-0.062
-353.537	43.019	0.097	-0.088
-352.523	-128.691	-0.193	0.027
-351.508	-161.766	0.440	-0.022
-350.493	800.000	0.097	-0.361
-349.479	-126.267	-0.285	0.042
-348.464	272.597	0.094	-0.165
-347.450	-126.871	-0.217	0.032
-346.435	51.658	-0.159	0.149
-345.420	210.605	-0.036	0.056
-344.406	800.000	-0.056	-0.156
-343.391	-44.245	-0.230	-0.114
-342.377	-64.878	0.112	0.045
-341.362	-15.858	-0.349	0.220
-340.348	-200.000	0.007	-0.109
-339.333	324.840	0.082	0.154
-338.318	-1.219	-0.087	0.061
-337.304	57.651	-0.090	-0.087
-336.289	800.000	-0.041	-0.175
-335.275	322.826	-0.116	0.219
-334.260	-43.884	-0.068	0.034
-333.245	-49.592	-0.328	-0.154
-332.231	-108.973	-0.054	-0.011
-331.216	-200.000	0.012	-0.159
-330.202	-95.252	-0.087	-0.023
-329.187	777.449	-0.051	-0.139
-328.172	170.283	-0.221	0.312
-327.158	-122.916	0.052	0.008
-326.143	-40.438	0.336	-0.172
-325.129	-97.082	-0.029	0.008
-324.114	129.419	-0.308	0.388
-323.099	-200.000	0.017	0.224
-322.085	-117.510	-0.050	0.009
-321.070	129.198	0.088	-0.111
-320.056	-200.000	-0.032	0.230
-319.041	-200.000	-0.061	-0.302
-318.026	75.950	0.115	-0.120
-317.012	-60.481	0.303	-0.127
-315.997	401.979	0.042	0.088
-314.983	-140.868	-0.198	-0.020
-313.968	253.011	-0.030	-0.050
-312.953	417.380	-0.103	-0.217
-311.939	-144.227	0.179	0.016
-310.924	800.000	-0.144	0.400
-309.910	274.663	-0.089	-0.156
-308.895	156.728	0.021	-0.029
-307.880	95.747	0.198	-0.223
-306.866	124.713	-0.028	-0.035
-305.851	-73.918	-0.297	0.106
-304.837	68.551	0.049	-0.050
-303.822	-154.184	-0.329	-0.022
-302.807	-200.000	-0.005	-0.078
-301.793	-200.000	-0.038	-0.168
-300.778	-200.000	-0.004	-0.368
-299.764	-17.984	-0.118	-0.073
-298.749	113.815	-0.088	0.105
-297.735	-78.059	0.166	0.056
-296.720	150.712	-0.023	0.031
-295.705	192.042	0.084	-0.126
-294.691	800.000	-0.138	-0.489
-293.676	-200.000	-0.005	0.048
-292.662	-43.355	-0.296	-0.148
-291.647	63.650	-0.107	0.106
-290.632	-18.705	0.135	-0.083
-289.618	-36.877	-0.213	-0.113
-288.603	-134.627	0.071	-0.009
-287.589	-124.537	-0.186	0.029
-286.574	45.017	0.029	0.026
-285.559	101.196	0.211	-0.242
-284.545	-174.398	0.227	-0.006
-283.530	-93.654	-0.212	0.058
-282.516	-0.783	0.213	0.149
-281.501	5.141	-0.149	-0.108
-280.486	800.000	-0.029	0.083
-279.472	530.284	0.072	0.167
-278.457	800.000	-0.125	0.482
-277.443	-200.000	0.015	-0.209
-276.428	-200.000	0.049	0.257
-275.413	-200.000	0.004	0.193
-274.399	63.981	-0.060	-0.060
-273.384	-100.992	-0.251	-0.061
-272.370	220.651	0.186	0.294
-271.355	46.612	0.067	-0.062
-270.340	-11.025	-0.463	-0.302
-269.326	47.296	-0.177	0.163
-268.311	6.593	0.154	0.113
-267.297	-167.205	0.138	0.006
-266.282	658.321	-0.129	0.328
-265.267	800.000	0.158	-0.481
-264.253	-170.590	0.181	0.006
-263.238	-25.281	0.177	-0.103
-262.224	-96.530	0.103	0.027
-261.209	279.243	-0.074	-0.130
-260.195	-132.725	-0.023	-0.003
-259.180	800.000	-0.089	0.251
-258.165	243.624	0.089	0.147
-257.151	-200.000	0.079	-0.386
-256.136	800.000	0.055	0.217
-255.122	-114.785	-0.173	0.033
-254.107	-200.000	-0.045	0.327
-253.092	-28.115	0.149	-0.085
-252.078	132.601	0.207	0.263
-251.063	-130.523	-0.278	-0.037
-250.049	414.922	-0.015	0.032
-249.034	-177.342	0.140	-0.003
-248.019	267.714	0.113	0.195
-247.005	251.041	-0.114	-0.192
-245.990	-0.195	-0.179	0.125
-244.976	-110.611	0.102	-0.021
-243.961	-119.759	-0.207	0.035
-242.946	-97.472	0.227	0.058
-241.932	-200.000	0.004	0.150
-240.917	-125.099	0.124	0.019
-239.903	800.000	-0.093	-0.290
-238.888	141.546	-0.093	-0.122
-237.873	733.035	-0.035	-0.091
-236.859	238.794	0.047	-0.076
-235.844	53.148	0.161	-0.152
-234.830	688.893	-0.091	-0.235
-233.815	197.207	-0.129	0.193
-232.800	-90.082	0.129	0.037
-231.786	168.115	0.060	0.085
-230.771	800.000	-0.059	0.220
-229.757	-41.123	-0.230	0.117
-228.742	-102.748	0.225	0.053
-227.727	96.225	0.120	0.135
-226.713	800.000	-0.119	0.327
-225.698	-115.690	0.262	0.048
-224.684	-132.916	-0.142	-0.018
-223.669	213.627	0.109	-0.169
-222.655	62.684	-0.184	-0.181
-221.640	800.000	0.060	-0.184
-220.625	90.373	0.224	-0.246
-219.611	535.756	-0.090	-0.210
-218.596	77.081	0.263	-0.275
-217.582	97.943	-0.093	0.105
-216.567	66.826	0.068	0.068
-215.552	-23.236	-0.300	-0.178
-214.538	-83.201	0.301	0.095
-213.523	-125.394	0.235	0.035
-212.509	141.125	0.082	0.106
-211.494	227.633	0.123	0.196
-210.479	-103.399	-0.470	-0.109
-209.465	-112.541	0.182	-0.036
-208.450	-116.362	0.146	0.027
-207.436	-52.311	-0.301	-0.137
-206.421	800.000	-0.008	-0.022
-205.406	138.769	0.100	-0.130
-204.392	79.273	0.147	0.155
-203.377	100.685	-0.057	-0.065
-202.363	-14.360	0.041	0.026
-201.348	-35.154	-0.292	-0.156
-200.333	-200.000	0.013	-0.152
-199.319	156.018	-0.132	0.179
-198.304	-200.000	0.271	-0.001
-197.290	-200.000	-0.013	0.176
-196.275	-91.684	-0.277	0.078
-195.260	45.424	-0.135	0.122
-194.246	-200.000	0.064	-0.295
-193.231	-200.000	0.004	-0.229
-192.217	-178.934	-0.186	-0.004
-191.202	-132.769	0.230	0.029
-190.187	800.000	0.046	0.161
-189.173	800.000	0.080	-0.230
-188.158	-32.913	0.236	0.129
-187.144	41.505	-0.049	0.043
-186.129	800.000	-0.024	0.094
-185.114	203.767	0.105	-0.160
-184.100	-44.883	-0.043	-0.021
-183.085	120.236	0.320	-0.390
-182.071	396.979	-0.050	0.102
-181.056	171.020	0.049	-0.069
-180.042	-122.070	0.064	-0.010
-179.027	-55.429	0.068	-0.030
-178.012	172.055	-0.184	-0.260
-176.998	800.000	-0.021	0.076
-175.983	-119.088	0.239	-0.041
-174.969	-17.255	-0.126	0.078
-173.954	103.551	0.109	0.126
-172.939	629.152	-0.083	0.207
-171.925	-47.236	0.185	-0.089
-170.910	18.509	0.206	0.161
-169.896	-83.172	0.141	-0.044
-168.881	53.150	-0.247	0.233
-167.866	-33.572	0.209	-0.114
-166.852	-17.342	0.291	0.180
-165.837	611.179	0.092	-0.227
-164.823	-109.791	-0.241	-0.050
-163.808	101.240	0.037	-0.042
-162.793	324.140	0.068	0.128
-161.779	-26.197	0.262	0.151
-160.764	293.844	-0.132	0.237
-159.750	800.000	0.054	0.176
-158.735	236.191	0.169	-0.274
-157.720	800.000	-0.032	-0.121
-156.706	800.000	0.019	0.076
-155.691	-200.000	-0.080	0.397
-154.677	313.016	0.066	0.121
-153.662	-1.211	-0.244	-0.169
-152.647	-100.665	-0.073	0.018
-151.633	-65.573	0.367	0.145
-150.618	-200.000	0.019	0.188
-149.604	800.000	-0.010	-0.043
-148.589	91.872	0.287	0.317
-147.574	265.298	0.212	0.363
-146.560	-2.324	-0.271	-0.186
-145.545	800.000	0.155	0.520
-144.531	-200.000	-0.001	0.133
-143.516	205.467	0.128	0.195
-142.502	-200.000	0.006	0.322
-141.487	132.526	0.032	-0.040
-140.472	687.738	0.099	0.253
-139.458	-4.709	0.013	0.009
-138.443	110.964	-0.062	-0.073
-137.429	-21.724	0.230	0.138
-136.414	2.618	-0.302	0.214
-135.399	654.596	0.058	0.146
-134.385	-159.871	-0.145	-0.008
-133.370	773.269	0.041	0.111
-132.356	800.000	0.041	0.157
-131.341	-200.000	-0.012	0.232
-130.326	-200.000	0.050	0.274
-129.312	-99.100	-0.242	-0.060
-128.297	120.699	0.141	0.172
-127.283	238.784	-0.074	0.120
-126.268	211.186	-0.115	-0.178
-125.253	-18.569	-0.074	-0.046
-124.239	154.069	0.019	-0.025
-123.224	262.473	0.039	0.065
-122.210	800.000	-0.049	0.200
-121.195	205.814	0.137	-0.209
-120.180	-49.308	-0.176	-0.082
-119.166	-200.000	0.007	-0.070
-118.151	342.573	-0.202	-0.388
-117.137	-200.000	-0.070	-0.431
-116.122	-160.691	0.249	-0.013
-115.107	-200.000	0.042	-0.323
-114.093	-95.958	0.257	0.067
-113.078	-42.953	0.201	0.100
-112.064	-19.299	0.298	-0.181
-111.049	-83.958	-0.076	0.024
-110.034	146.707	-0.130	0.171
-109.020	-150.211	-0.337	0.026
-108.005	-59.246	0.108	0.045
-106.991	-95.564	0.559	0.147
-105.976	785.365	-0.095	0.255
-104.962	144.884	-0.142	0.185
-103.947	-139.739	0.119	-0.012
-102.932	-99.341	0.124	0.031
-101.918	19.543	-0.114	-0.090
-100.903	-53.717	0.104	-0.046
-99.889	-200.000	-0.004	0.116
-98.874	-123.343	-0.276	0.043
-97.859	-136.636	-0.324	-0.037
-96.845	800.000	0.036	-0.129
-95.830	-18.826	-0.138	0.084
-94.816	3.861	0.344	0.246
-93.801	-200.000	-0.043	-0.200
-92.786	6.873	-0.197	0.143
-91.772	36.771	0.184	-0.159
-90.757	-142.772	0.553	0.053
-89.743	41.520	-0.083	0.073
-88.728	800.000	0.047	0.200
-87.713	-127.432	0.184	0.026
-86.699	800.000	0.042	-0.165
-85.684	103.192	0.240	-0.275
-84.670	-104.512	-0.136	-0.031
-83.655	-200.000	-0.007	-0.067
-82.640	800.000	0.041	-0.124
-81.626	-34.354	-0.209	-0.112
-80.611	-118.699	-0.128	-0.022
-79.597	-154.138	-0.098	0.006
-78.582	525.129	-0.084	-0.192
-77.567	-90.661	0.361	0.102
-76.553	-80.261	-0.011	0.004
-75.538	-200.000	0.022	-0.243
-74.524	-49.390	0.095	-0.044
-73.509	-63.357	-0.161	0.065
-72.494	-119.601	-0.356	0.060
-71.480	-137.281	-0.168	0.019
-70.465	-200.000	0.024	0.192
-69.451	-46.822	-0.054	0.026
-68.436	173.577	-0.079	-0.112
-67.422	-84.672	0.309	0.095
-66.407	-200.000	0.039	-0.231
-65.392	-117.706	0.328	0.058
-64.378	-40.292	-0.136	-0.069
-63.363	112.284	0.120	-0.141
-62.349	800.000	0.079	0.305
-61.334	178.671	-0.862	-1.232
-60.319	-78.461	0.861	0.288
-59.305	241.753	-0.529	-0.865
-58.290	765.820	0.439	1.168
-57.276	-200.000	0.234	1.406
-56.261	-200.000	116.444	648.636
-55.246	511.275	1537.573	3499.344
-54.232	175.754	2709.591	3843.247
-53.217	106.557	2157.024	2501.185
-52.203	38.360	1591.194	1385.941
-51.188	29.814	1334.023	1110.845
-50.173	26.916	1295.613	1061.886
-49.159	53.704	1352.750	1269.593
-48.144	51.941	1366.372	1271.813
-47.130	30.161	1320.808	1101.729
-46.115	26.652	1303.227	1066.400
-45.100	26.504	1297.990	1061.208
-44.086	26.499	1294.875	1058.591
-43.071	26.369	1292.967	1056.226
-42.057	26.365	1290.977	1054.534
-41.042	26.385	1289.316	1053.257
-40.027	26.450	1287.539	1052.141
-39.013	26.415	1285.456	1050.194
-37.998	26.503	1283.858	1049.356
-36.984	26.577	1282.147	1048.341
-35.969	26.651	1279.841	1046.846
-34.954	26.568	1278.267	1045.034
-33.940	26.519	1277.571	1044.144
-32.925	26.589	1276.287	1043.457
-31.911	26.672	1274.122	1042.119
-30.896	26.661	1273.059	1041.150
-29.881	26.598	1272.445	1040.242
-28.867	26.732	1270.349	1039.253
-27.852	26.690	1269.001	1037.869
-26.838	26.689	1267.731	1036.783
-25.823	26.784	1265.982	1035.855
-24.809	26.622	1264.597	1033.757
-23.794	26.633	1263.524	1032.904
-22.779	26.575	1262.465	1031.667
-21.765	26.573	1261.335	1030.688
-20.750	26.621	1259.756	1029.634
-19.736	26.605	1258.495	1028.470
-18.721	26.459	1258.055	1027.242
-17.706	26.570	1256.834	1026.831
-16.692	26.591	1254.962	1025.381
-15.677	26.569	1254.140	1024.541
-14.663	26.512	1253.194	1023.409
-13.648	26.459	1252.156	1022.218
-12.633	26.482	1250.894	1021.279
-11.619	26.495	1249.857	1020.468
-10.604	26.552	1249.388	1020.362
-9.590	26.565	1248.185	1019.413
-8.575	26.429	1247.536	1018.076
-7.560	26.433	1246.605	1017.302
-6.546	26.475	1245.727	1016.778
-5.531	26.470	1244.889	1016.028
-4.517	26.591	1243.655	1015.659
-3.502	26.503	1243.058	1014.639
-2.487	26.413	1242.557	1013.684
-1.473	26.533	1237.744	1010.384
-0.458	25.055	1223.350	990.433
0.556	21.943	1207.317	954.317
1.571	18.409	1213.715	939.937
2.586	17.687	1228.694	947.438
3.600	17.243	1216.821	935.758
4.615	12.971	1145.386	858.558
5.629	6.135	1074.768	772.069
6.644	3.307	1057.338	745.805
7.659	3.217	1055.422	743.954
8.673	3.232	1054.203	743.100
9.688	3.263	1052.849	742.230
10.702	3.374	1050.359	740.939
11.717	7.153	1055.246	762.552
12.731	14.374	1065.945	805.228
13.746	18.890	1071.233	831.036
14.761	19.487	1071.944	834.403
15.775	18.836	1069.828	829.540
16.790	17.722	1068.498	823.062
17.804	17.040	1066.472	818.140
18.819	16.758	1065.435	815.917
19.834	16.674	1064.556	814.765
20.848	16.392	1064.289	813.131
21.863	16.379	1062.828	811.879
22.877	16.193	1062.066	810.336
23.892	16.099	1061.547	809.417
24.907	16.051	1061.214	808.856
25.921	16.149	1059.636	808.053
26.936	16.157	1058.720	807.322
27.950	16.230	1057.138	806.395
28.965	16.353	1055.411	805.593
29.980	16.462	1054.590	805.415
30.994	16.519	1053.496	804.779
32.009	16.553	1052.125	803.822
33.023	16.532	1051.020	802.807
34.038	16.317	1050.645	801.427
35.053	16.257	1049.345	800.081
36.067	16.272	1048.332	799.308
37.082	16.377	1047.312	798.959
38.096	16.401	1047.143	798.872
39.111	16.400	1045.934	797.876
40.126	16.338	1044.786	796.636
41.140	15.989	1043.504	793.942
42.155	15.876	1042.180	792.333
43.169	15.919	1041.275	791.778
44.184	15.936	1040.453	791.162
45.199	15.986	1039.256	790.415
46.213	16.158	1038.139	790.302
47.228	16.217	1037.536	790.049
48.242	16.243	1036.277	789.144
49.257	16.211	1035.298	788.180
50.271	16.318	1034.728	788.175
51.286	16.260	1034.134	787.382
52.301	16.265	1032.886	786.383
53.315	16.137	1031.787	784.882
54.330	16.100	1030.673	783.792
55.344	16.091	1029.757	782.985
56.359	16.107	1028.804	782.267
57.374	16.026	1028.074	781.267
58.388	15.967	1026.690	779.873
59.403	15.829	1026.555	779.064
60.417	15.938	1025.286	778.534
61.432	16.007	1024.475	778.166
62.447	15.900	1023.369	776.766
63.461	15.727	1022.907	775.550
64.476	15.675	1021.977	774.536
65.490	15.825	1021.379	774.702
66.505	15.892	1020.441	774.231
67.520	15.818	1019.907	773.420
68.534	15.915	1018.790	772.948
69.549	15.917	1018.256	772.484
70.563	15.858	1017.371	771.473
71.578	15.744	1016.472	770.200
72.593	15.609	1015.961	769.127
73.607	15.710	1014.830	768.665
74.622	15.732	1014.588	768.513
75.636	15.659	1013.902	767.592
76.651	15.745	1012.984	767.222
77.666	15.681	1012.486	766.488
78.680	15.779	1011.675	766.249
79.695	15.783	1011.134	765.791
80.709	15.866	1010.616	765.708
81.724	15.910	1009.732	765.173
82.739	15.997	1009.384	765.237
83.753	16.286	1008.615	765.897
84.768	16.437	1007.916	765.982
85.782	16.672	1006.645	766.012
86.797	16.382	1006.140	764.250
87.812	16.177	1005.549	762.803
88.826	16.318	1003.735	761.998
89.841	16.422	1003.134	761.944
90.855	16.581	1002.340	761.990
91.870	16.593	1001.130	761.054
92.884	16.491	1000.621	760.142
93.899	16.447	999.800	759.252
94.914	16.581	998.765	759.001
95.928	16.446	998.250	757.939
96.943	16.554	997.110	757.488
97.957	16.369	996.123	755.844
98.972	16.357	995.701	755.405
99.987	16.492	994.547	755.063
101.001	16.436	993.412	753.885
102.016	16.414	992.641	753.139
103.030	16.402	992.367	752.807
104.045	16.377	991.620	752.064
105.060	16.344	990.245	750.806
106.074	16.112	989.326	749.013
107.089	16.077	988.027	747.808
108.103	15.915	987.162	746.369
109.118	15.938	985.975	745.510
110.133	15.784	985.712	744.560
111.147	15.831	984.457	743.757
112.162	15.860	983.804	743.326
113.176	16.064	983.036	743.578
114.191	15.998	982.465	742.791
115.206	16.228	981.455	742.974
116.220	16.141	980.488	741.792
117.235	15.991	979.582	740.384
118.249	16.069	978.622	739.933
119.264	15.897	978.315	738.883
120.279	15.930	977.179	738.103
121.293	15.855	976.229	736.990
122.308	15.889	975.586	736.592
123.322	15.838	974.066	735.156
124.337	15.826	973.258	734.427
125.352	15.866	972.602	734.043
126.366	15.822	971.012	732.588
127.381	15.776	970.392	731.853
128.395	15.874	969.528	731.562
129.410	15.967	968.537	731.152
130.424	15.871	967.747	730.075
131.439	16.025	966.811	729.975
132.454	16.063	966.314	729.695
133.468	15.988	965.793	728.915
134.483	16.097	964.399	728.268
135.497	16.056	963.748	727.536
136.512	16.032	963.079	726.863
137.527	16.068	962.651	726.630
138.541	16.199	961.809	726.493
139.556	16.127	961.009	725.516
140.570	16.225	960.828	725.740
141.585	16.435	959.716	725.737
142.600	16.533	958.542	725.204
143.614	16.505	957.963	724.583
144.629	16.462	957.489	723.974
145.643	16.456	956.243	722.941
146.658	16.340	955.194	721.592
147.673	16.252	954.059	720.294
148.687	16.223	953.504	719.687
149.702	16.045	952.821	718.351
150.716	16.062	952.042	717.771
151.731	16.158	951.196	717.477
152.746	16.238	950.573	717.287
153.760	16.235	950.200	716.927
154.775	16.211	949.638	716.336
155.789	16.440	948.925	716.706
156.804	16.346	948.055	715.590
157.819	16.427	947.509	715.458
158.833	16.446	947.018	715.105
159.848	16.661	945.773	715.007
160.862	16.477	944.816	713.443
161.877	16.404	943.117	711.789
162.892	16.299	942.703	710.972
163.906	16.298	941.807	710.232
164.921	16.216	941.113	709.300
165.935	16.365	940.406	709.328
166.950	16.440	939.209	708.679
167.964	16.338	938.791	707.874
168.979	16.303	937.435	706.641
169.994	16.342	936.737	706.214
171.008	16.432	936.315	706.212
172.023	16.478	935.654	705.844
173.037	16.492	935.015	705.356
174.052	16.609	933.717	704.801
175.067	16.349	933.355	703.384
176.081	16.276	932.834	702.624
177.096	16.304	932.169	702.177
178.110	16.292	930.975	701.170
179.125	16.365	930.672	701.179
180.140	16.379	930.248	700.855
181.154	16.574	929.870	701.318
182.169	16.648	929.376	701.190
183.183	16.653	928.786	700.704
184.198	16.744	928.116	700.515
185.213	16.554	927.443	699.157
186.227	16.760	926.762	699.431
187.242	16.796	926.128	699.042
188.256	16.974	925.649	699.353
189.271	16.862	924.669	698.087
190.286	16.480	923.543	695.605
191.300	16.298	923.025	694.406
192.315	16.332	922.454	694.054
193.329	16.219	921.881	693.096
194.344	16.307	921.659	693.230
195.359	16.618	920.742	693.756
196.373	16.678	920.180	693.513
197.388	16.800	919.713	693.599
198.402	16.943	919.216	693.751
199.417	17.088	918.482	693.726
200.432	17.102	918.077	693.419
201.446	17.171	917.765	693.402
202.461	17.229	916.995	692.994
203.475	17.104	916.128	691.768
204.490	16.823	915.764	690.290
205.504	16.854	914.688	689.542
206.519	16.793	914.064	688.763
207.534	16.868	912.924	688.150
208.548	16.921	912.724	688.150
209.563	16.813	912.334	687.357
210.577	16.841	911.581	686.844
211.592	17.074	910.823	687.155
212.607	17.153	910.033	686.817
213.621	17.179	909.390	686.377
214.636	16.963	908.763	684.971
215.650	17.071	908.278	684.979
216.665	17.241	907.145	684.752
217.680	17.343	906.284	684.450
218.694	17.218	906.391	683.969
219.709	17.137	905.396	682.832
220.723	17.197	904.530	682.358
221.738	17.055	903.989	681.320
222.753	17.049	903.636	680.968
223.767	17.192	902.890	680.921
224.782	17.319	902.394	680.997
225.796	17.291	901.998	680.523
226.811	17.275	901.262	679.843
227.826	17.074	900.366	678.303
228.840	17.092	899.665	677.788
229.855	17.253	898.308	677.348
230.869	17.209	897.772	676.708
231.884	17.202	897.281	676.251
232.899	17.150	896.095	675.091
233.913	17.033	895.602	674.193
234.928	16.988	895.292	673.723
235.942	16.761	895.253	672.733
236.957	16.962	894.090	672.596
237.972	17.100	893.390	672.558
238.986	16.981	893.082	671.792
240.001	16.926	892.461	671.050
241.015	17.148	891.851	671.408
242.030	17.120	891.295	670.819
243.045	17.220	890.637	670.662
244.059	17.271	890.318	670.563
245.074	17.321	889.453	670.050
246.088	17.194	889.110	669.229
247.103	17.506	888.371	669.844
248.117	17.591	887.826	669.707
249.132	17.800	887.400	670.147
250.147	17.852	887.053	670.029
251.161	17.810	886.343	669.270
252.176	17.857	886.008	669.142
253.190	17.954	884.618	668.415
254.205	17.921	884.538	668.163
255.220	17.803	883.941	667.195
256.234	17.777	883.173	666.453
257.249	18.069	881.981	666.633
258.263	17.800	881.763	665.358
259.278	17.929	881.047	665.264
260.293	18.016	880.249	664.942
261.307	18.100	879.783	664.856
262.322	18.091	879.355	664.440
263.336	18.088	878.273	663.552
264.351	18.107	878.009	663.367
265.366	18.140	877.202	662.826
266.380	18.012	876.632	661.843
267.395	18.030	875.872	661.280
268.409	18.168	874.395	660.640
269.424	18.041	874.470	660.145
270.439	18.010	873.877	659.519
271.453	18.011	872.687	658.568
272.468	17.890	872.263	657.722
273.482	17.956	872.109	657.803
274.497	17.859	871.859	657.183
275.512	17.932	870.489	656.372
276.526	17.860	870.494	656.041
277.541	18.010	869.637	655.915
278.555	18.094	869.368	655.976
279.570	18.352	868.627	656.348
280.585	18.310	867.914	655.589
281.599	18.070	867.069	653.975
282.614	18.054	866.219	653.215
283.628	18.073	865.704	652.840
284.643	18.032	865.302	652.323
285.657	18.174	864.449	652.165
286.672	18.079	863.970	651.383
287.687	18.312	863.368	651.759
288.701	18.148	862.599	650.499
289.716	18.247	862.622	650.831
290.730	18.202	861.835	650.011
291.745	18.395	861.065	650.106
292.760	18.337	860.812	649.635
293.774	18.504	859.977	649.584
294.789	18.331	859.508	648.515
295.803	18.265	858.529	647.470
296.818	18.288	857.643	646.832
297.833	18.362	856.847	646.453
298.847	18.227	856.807	645.857
299.862	18.267	856.536	645.744
300.876	18.419	855.885	645.771
301.891	18.457	855.257	645.383
302.906	18.548	854.896	645.394
303.920	18.531	854.792	645.195
304.935	18.666	853.971	645.026
305.949	18.673	852.747	644.070
306.964	18.531	852.233	643.095
307.979	18.495	851.869	642.625
308.993	18.623	851.575	642.828
310.008	18.699	850.132	641.964
311.022	18.619	850.058	641.552
312.037	18.583	849.489	640.932
313.052	18.445	848.505	639.620
314.066	18.300	848.374	638.921
315.081	18.477	847.665	638.994
316.095	18.317	847.313	638.075
317.110	18.230	846.896	637.380
318.125	18.391	846.416	637.562
319.139	18.363	845.966	637.061
320.154	18.476	845.064	636.747
321.168	18.522	844.772	636.639
322.183	18.598	843.750	636.096
323.197	18.538	843.651	635.744
324.212	18.553	843.100	635.326
325.227	18.533	842.537	634.773
326.241	18.471	841.679	633.839
327.256	18.582	840.910	633.615
328.270	18.545	840.747	633.298
329.285	18.507	839.790	632.383
330.300	18.469	839.737	632.147
331.314	18.581	838.888	631.864
332.329	18.534	838.548	631.380
333.343	18.659	838.226	631.539
334.358	18.730	837.924	631.520
335.373	18.690	837.714	631.156
336.387	18.771	837.329	631.107
337.402	18.733	837.279	630.874
338.416	19.050	836.410	631.327
339.431	19.088	836.051	631.142
340.446	19.198	835.759	631.268
341.460	19.245	835.433	631.139
342.475	19.117	835.125	630.381
343.489	19.036	834.753	629.747
344.504	19.191	834.291	629.909
345.519	19.330	833.558	629.808
346.533	19.071	833.375	628.670
347.548	18.937	832.477	627.447
348.562	18.776	831.908	626.374
349.577	18.883	831.076	626.081
350.592	18.953	830.751	626.036
351.606	18.936	829.734	625.154
352.621	18.979	829.120	624.794
353.635	19.025	828.467	624.412
354.650	19.033	827.985	624.023
355.665	18.953	827.575	623.369
356.679	19.145	826.873	623.480
357.694	19.180	826.205	623.047
358.708	18.999	825.705	621.962
359.723	19.150	825.143	622.030
360.738	18.986	824.710	621.052
361.752	19.279	824.038	621.552
362.767	19.176	823.551	620.758
363.781	19.174	823.610	620.738
364.796	19.382	822.706	620.752
365.810	19.657	822.162	621.275
366.825	19.556	821.987	620.725
367.840	19.533	821.363	620.117
368.854	19.481	821.028	619.623
369.869	19.368	820.699	618.913
370.883	19.210	820.339	618.018
371.898	19.494	819.955	618.693
372.913	19.554	819.393	618.432
373.927	19.567	818.685	617.889
374.942	19.537	818.384	617.498
375.956	19.626	818.145	617.580
376.971	19.744	817.534	617.486
377.986	19.706	817.500	617.271
379.000	19.783	816.696	616.884
380.015	19.803	815.974	616.356
381.029	19.802	815.251	615.749
382.044	19.703	814.845	615.038
383.059	19.628	814.627	614.552
384.073	19.650	813.784	613.941
385.088	19.533	813.143	612.986
386.102	19.457	812.582	612.241
387.117	19.572	811.601	611.854
388.132	19.523	811.502	611.552
389.146	19.738	810.684	611.643
390.161	19.769	810.722	611.727
391.175	19.913	810.103	611.715
392.190	19.725	809.403	610.467
393.205	19.548	809.104	609.561
394.219	19.689	808.704	609.706
395.234	19.755	808.203	609.505
396.248	19.453	807.835	608.111
397.263	19.551	807.138	607.876
398.278	19.457	806.494	607.007
399.292	19.484	806.234	606.852
400.307	19.419	806.159	606.515
401.321	19.600	805.061	606.269
402.336	19.657	805.000	606.369
403.350	19.573	804.701	605.797
404.365	19.769	804.486	606.269
405.380	20.024	803.489	606.355
406.394	19.997	803.202	605.991
407.409	19.848	803.103	605.343
408.423	19.944	802.922	605.489
409.438	20.169	802.062	605.570
410.453	20.093	802.047	605.241
411.467	20.032	801.449	604.523
412.482	20.148	801.282	604.750
413.496	20.372	800.845	605.147
414.511	20.247	800.617	604.485
415.526	20.122	800.082	603.593
416.540	20.280	799.401	603.574
417.555	20.331	798.593	603.088
418.569	20.234	798.193	602.396
419.584	20.246	798.015	602.252
420.599	20.192	797.733	601.798
421.613	162.251	1372.616	1798.045
422.628	140.790	1456.369	1798.135
