DTS Sentinel unit serial number:	SN413079Multiplexer serial number:	ORYXHardware model number:	OX4-SRSoftware version number:	ORYX F/W v4.00 Oryx Data Collector v3.7.2.0data status	okinstallation	princeton_trtdifferential loss correction	single-endedforward channel	channel 1reverse channel	N/Adate	2019/09/15time	22:06:35forward acquisition time	60.00reverse acquisition time	0.00gamma	496.2192k internal	0.2330k external	0.2330temperature offset calibration	0.9968default loss term (dB/km)	0.3790temperature slope calibration	1.0000multiplexer offset coefficient	1.0000multiplexer slope coefficient	1.0000fibre end	0.00T internal ref (°C)	29.69T ext. ref 1 (°C)	8.57T ext. ref 2 (°C)	22.93length (m)	temperature (°C)	Stokes	anti-Stokes-747.200	-77.060	0.093	-0.033
-746.185	-200.000	0.007	-0.177
-745.171	-13.101	-0.237	-0.155
-744.156	-34.180	0.158	0.087
-743.142	-114.328	0.119	0.023
-742.127	616.792	-0.176	0.444
-741.112	800.000	0.063	-0.177
-740.098	166.188	-0.145	0.207
-739.083	205.453	0.111	-0.173
-738.069	97.460	0.174	0.201
-737.054	-200.000	-0.077	-0.342
-736.039	-64.959	-0.329	-0.134
-735.025	30.118	0.174	0.150
-734.010	472.393	0.137	0.311
-732.996	-200.000	-0.017	-0.174
-731.981	-164.729	-0.462	0.021
-730.966	-200.000	-0.008	-0.048
-729.952	362.943	-0.172	-0.348
-728.937	26.756	0.153	-0.129
-727.923	-173.029	-0.508	0.016
-726.908	72.303	0.206	-0.216
-725.894	-8.182	-0.110	-0.075
-724.879	-200.000	-0.011	0.092
-723.864	244.765	-0.109	0.184
-722.850	-142.056	0.083	0.008
-721.835	109.506	0.047	0.056
-720.821	-127.308	0.155	-0.023
-719.806	-118.669	-0.326	-0.058
-718.791	-141.885	-0.077	0.008
-717.777	28.822	-0.247	-0.211
-716.762	192.621	0.196	-0.298
-715.748	-108.239	0.223	-0.049
-714.733	-137.893	0.355	-0.040
-713.718	34.815	-0.155	-0.137
-712.704	60.497	0.094	0.093
-711.689	-119.218	-0.130	0.023
-710.675	-62.930	-0.120	-0.050
-709.660	-28.973	-0.110	0.063
-708.645	-59.766	0.206	-0.089
-707.631	-127.064	0.032	-0.005
-706.616	91.047	-0.092	0.103
-705.602	183.279	-0.102	-0.152
-704.587	37.545	-0.239	-0.213
-703.572	-200.000	-0.024	-0.116
-702.558	-17.799	-0.412	-0.260
-701.543	64.358	0.092	0.093
-700.529	-15.744	-0.233	-0.149
-699.514	-200.000	0.007	-0.100
-698.499	87.899	-0.295	0.329
-697.485	-118.181	0.099	-0.018
-696.470	-200.000	-0.014	-0.069
-695.456	314.455	0.128	-0.243
-694.441	-200.000	-0.023	-0.176
-693.426	-90.511	0.109	0.032
-692.412	-200.000	0.015	0.106
-691.397	-109.707	-0.233	-0.049
-690.383	-44.738	-0.125	-0.063
-689.368	107.371	0.171	0.205
-688.354	-200.000	-0.068	-0.349
-687.339	-53.348	0.157	-0.072
-686.324	8.300	-0.307	-0.232
-685.310	-87.969	-0.156	-0.047
-684.295	800.000	0.031	-0.131
-683.281	230.756	-0.120	-0.197
-682.266	-145.321	-0.260	-0.024
-681.251	800.000	-0.034	-0.102
-680.237	10.845	-0.351	0.269
-679.222	-131.910	0.311	-0.041
-678.208	800.000	0.067	-0.232
-677.193	319.240	0.113	0.215
-676.178	8.957	0.115	0.087
-675.164	800.000	0.097	-0.417
-674.149	-95.027	-0.146	0.040
-673.135	-121.378	-0.379	-0.063
-672.120	-200.000	-0.033	0.215
-671.105	58.866	0.154	-0.152
-670.091	19.935	-0.255	0.206
-669.076	199.143	-0.054	-0.083
-668.062	-172.812	-0.423	0.013
-667.047	800.000	0.051	-0.149
-666.032	-200.000	0.042	0.297
-665.018	92.808	-0.124	0.141
-664.003	-114.348	0.059	-0.011
-662.989	-123.627	-0.223	0.036
-661.974	-200.000	0.006	-0.097
-660.959	-200.000	0.012	-0.255
-659.945	-108.431	-0.312	0.067
-658.930	-143.855	-0.210	0.020
-657.916	490.559	0.089	-0.203
-656.901	451.017	0.109	-0.241
-655.886	56.739	0.043	0.042
-654.872	-39.334	0.198	0.104
-653.857	800.000	-0.055	0.193
-652.843	225.129	-0.101	-0.163
-651.828	-50.492	0.183	0.086
-650.814	-145.357	-0.194	0.018
-649.799	800.000	0.094	0.300
-648.784	-156.999	0.053	-0.003
-647.770	-30.332	-0.124	0.071
-646.755	-200.000	0.001	0.041
-645.741	-143.555	0.157	0.015
-644.726	-92.727	0.093	0.026
-643.711	-70.267	0.245	0.093
-642.697	227.511	-0.182	-0.297
-641.682	87.901	-0.075	-0.084
-640.668	188.426	-0.269	-0.404
-639.653	-154.617	-0.116	0.008
-638.638	800.000	0.025	0.086
-637.624	126.630	-0.041	0.052
-636.609	800.000	0.051	-0.166
-635.595	61.272	0.155	-0.154
-634.580	-145.543	0.202	0.018
-633.565	-49.792	-0.074	-0.035
-632.551	-50.325	0.200	-0.095
-631.536	-102.061	-0.163	-0.039
-630.522	598.169	0.005	-0.012
-629.507	-119.495	-0.233	0.040
-628.492	-38.029	-0.236	0.126
-627.478	-200.000	0.013	-0.328
-626.463	-111.011	0.541	-0.111
-625.449	-30.205	0.044	-0.025
-624.434	136.704	0.125	-0.164
-623.419	296.139	-0.125	-0.230
-622.405	-129.177	-0.258	-0.036
-621.390	-104.902	0.127	-0.029
-620.376	2.320	-0.127	-0.092
-619.361	237.282	-0.134	-0.222
-618.346	-50.821	0.396	-0.187
-617.332	-158.650	-0.400	-0.023
-616.317	800.000	0.099	0.273
-615.303	-20.132	0.228	-0.141
-614.288	-200.000	0.002	-0.044
-613.273	800.000	0.081	0.291
-612.259	-65.885	-0.341	-0.136
-611.244	40.263	0.043	-0.039
-610.230	800.000	-0.063	0.177
-609.215	-200.000	-0.004	0.113
-608.201	6.975	-0.109	-0.081
-607.186	-133.282	0.281	-0.035
-606.171	-156.893	-0.397	0.024
-605.157	-57.422	-0.220	0.097
-604.142	91.112	0.092	0.104
-603.128	-200.000	-0.020	0.273
-602.113	-141.450	0.117	-0.012
-601.098	-167.242	0.135	-0.005
-600.084	135.421	-0.177	0.230
-599.069	-200.000	0.029	-0.222
-598.055	-67.656	-0.116	-0.046
-597.040	161.896	-0.051	0.072
-596.025	-58.449	-0.193	0.084
-595.011	197.429	-0.123	0.187
-593.996	800.000	0.103	-0.407
-592.982	-60.773	-0.347	0.147
-591.967	-114.752	0.236	-0.045
-590.952	5.772	-0.200	-0.148
-589.938	-121.801	-0.020	0.003
-588.923	-200.000	0.012	-0.120
-587.909	191.615	0.114	-0.172
-586.894	70.970	-0.015	0.016
-585.879	-25.577	0.272	0.161
-584.865	800.000	-0.074	0.230
-583.850	-200.000	-0.013	-0.101
-582.836	800.000	-0.051	0.160
-581.821	78.105	0.081	0.086
-580.806	624.883	0.060	0.152
-579.792	22.394	-0.240	-0.196
-578.777	-26.079	0.226	-0.133
-577.763	19.975	-0.081	0.065
-576.748	-200.000	0.024	-0.156
-575.733	-154.267	-0.176	-0.012
-574.719	199.638	0.108	0.166
-573.704	-129.368	0.213	-0.030
-572.690	-117.497	-0.043	0.008
-571.675	-200.000	-0.028	0.196
-570.661	800.000	0.046	0.163
-569.646	228.680	0.065	0.105
-568.631	-117.075	-0.106	-0.019
-567.617	11.291	-0.147	-0.112
-566.602	-26.942	-0.189	0.110
-565.588	-130.071	0.122	-0.017
-564.573	800.000	0.085	0.246
-563.558	-115.366	0.221	0.042
-562.544	-37.856	-0.303	-0.161
-561.529	-95.159	-0.327	-0.088
-560.515	-64.705	-0.274	-0.111
-559.500	242.823	0.158	0.265
-558.485	-200.000	-0.027	0.287
-557.471	31.369	-0.054	0.047
-556.456	-11.407	-0.253	0.167
-555.442	185.227	0.217	-0.323
-554.427	222.726	-0.024	-0.039
-553.412	-44.187	0.414	0.208
-552.398	800.000	-0.043	0.180
-551.383	208.934	0.185	0.289
-550.369	-98.204	-0.199	0.051
-549.354	237.605	0.093	0.154
-548.339	236.544	0.074	-0.122
-547.325	185.646	-0.092	-0.136
-546.310	-87.911	-0.483	0.145
-545.296	-115.281	0.043	0.008
-544.281	800.000	0.032	0.127
-543.266	15.742	-0.240	0.188
-542.252	124.705	-0.186	0.233
-541.237	145.106	0.029	0.039
-540.223	700.327	-0.118	0.311
-539.208	657.642	0.080	-0.204
-538.193	-92.523	-0.113	-0.032
-537.179	-78.386	0.205	0.070
-536.164	-9.681	0.177	0.118
-535.150	373.678	0.122	0.249
-534.135	41.408	-0.065	0.059
-533.121	-23.183	0.038	0.023
-532.106	-0.968	0.319	0.225
-531.091	122.442	0.248	0.309
-530.077	431.894	0.046	-0.101
-529.062	-132.233	0.053	0.007
-528.048	-200.000	0.002	-0.636
-527.033	78.890	-0.185	-0.197
-526.018	-14.409	0.178	0.115
-525.004	-151.558	-0.251	-0.019
-523.989	756.061	-0.088	0.239
-522.975	-104.786	-0.227	-0.052
-521.960	646.823	0.008	0.021
-520.945	-200.000	0.037	-0.277
-519.931	148.701	-0.129	-0.174
-518.916	800.000	0.138	-0.403
-517.902	48.704	-0.181	0.170
-516.887	206.193	0.346	0.537
-515.872	-176.540	-0.219	-0.006
-514.858	-164.733	0.287	-0.013
-513.843	54.907	-0.229	-0.221
-512.829	141.603	0.149	0.197
-511.814	155.706	0.255	-0.351
-510.799	-164.273	-0.123	0.006
-509.785	-200.000	0.025	0.125
-508.770	800.000	-0.026	0.091
-507.756	419.533	0.066	-0.141
-506.741	-200.000	-0.030	-0.198
-505.726	-200.000	-0.020	-0.248
-504.712	218.974	0.163	-0.260
-503.697	408.893	-0.110	-0.232
-502.683	-169.976	-0.321	0.011
-501.668	-102.810	0.247	-0.059
-500.653	-38.069	-0.300	0.159
-499.639	248.199	0.097	-0.164
-498.624	-77.825	0.220	-0.076
-497.610	800.000	-0.084	-0.312
-496.595	-154.016	-0.283	0.019
-495.581	800.000	0.045	0.147
-494.566	68.576	-0.250	-0.256
-493.551	157.475	0.043	-0.059
-492.537	7.079	-0.166	0.123
-491.522	54.935	-0.132	0.127
-490.508	-94.804	0.081	-0.022
-489.493	-69.240	0.307	-0.118
-488.478	163.307	0.091	-0.128
-487.464	51.597	0.127	-0.121
-486.449	347.758	-0.089	-0.174
-485.435	-95.821	0.092	-0.024
-484.420	800.000	0.083	0.289
-483.405	28.584	0.139	0.117
-482.391	190.334	-0.095	0.142
-481.376	230.490	0.168	-0.274
-480.362	-156.056	-0.179	0.011
-479.347	402.328	0.040	-0.084
-478.332	-200.000	0.020	0.182
-477.318	573.758	-0.143	-0.349
-476.303	378.178	-0.182	0.372
-475.289	800.000	-0.149	0.431
-474.274	-97.535	-0.123	-0.032
-473.259	800.000	0.068	-0.205
-472.245	20.188	0.192	-0.155
-471.230	17.332	0.128	0.102
-470.216	800.000	0.107	0.341
-469.201	-72.583	-0.137	0.050
-468.186	-134.333	0.056	-0.007
-467.172	-9.152	-0.136	0.091
-466.157	-200.000	0.046	0.440
-465.143	734.354	0.174	-0.464
-464.128	800.000	0.077	0.254
-463.113	2.844	-0.115	0.083
-462.099	-200.000	-0.044	-0.308
-461.084	-86.463	0.296	0.091
-460.070	-200.000	0.020	-0.142
-459.055	231.304	0.178	-0.290
-458.040	-43.664	-0.303	-0.152
-457.026	-30.502	-0.301	-0.170
-456.011	507.314	-0.299	0.690
-454.997	266.147	-0.091	0.157
-453.982	-107.466	-0.157	0.034
-452.968	-102.291	0.163	-0.039
-451.953	-35.789	-0.069	0.037
-450.938	-61.501	0.023	-0.009
-449.924	-200.000	-0.068	-0.384
-448.909	-24.624	-0.284	0.168
-447.895	262.758	-0.044	0.076
-446.880	800.000	0.041	-0.114
-445.865	-25.327	0.103	0.060
-444.851	370.862	0.045	-0.090
-443.836	-81.850	0.083	-0.027
-442.822	-200.000	0.068	0.383
-441.807	139.921	0.253	0.332
-440.792	72.982	0.064	-0.067
-439.778	-42.908	0.149	-0.075
-438.763	-30.503	0.219	0.123
-437.749	-169.373	-0.179	-0.007
-436.734	-101.715	-0.307	0.074
-435.719	-200.000	-0.022	-0.162
-434.705	-200.000	-0.022	-0.226
-433.690	-39.351	0.385	0.201
-432.676	469.938	0.089	-0.198
-431.661	-200.000	-0.011	-0.055
-430.646	-200.000	0.036	0.162
-429.632	49.997	-0.144	0.135
-428.617	-106.674	-0.120	0.026
-427.603	105.644	0.143	-0.168
-426.588	499.998	0.120	-0.276
-425.573	-4.244	-0.101	-0.070
-424.559	12.143	-0.108	0.083
-423.544	-77.138	0.105	0.036
-422.530	800.000	-0.045	0.151
-421.515	800.000	0.135	-0.392
-420.500	-32.300	0.241	0.134
-419.486	-58.840	0.078	0.033
-418.471	9.494	0.248	-0.186
-417.457	183.180	0.073	0.107
-416.442	800.000	-0.019	0.072
-415.428	-200.000	-0.005	-0.044
-414.413	456.948	0.046	-0.102
-413.398	17.245	-0.045	-0.035
-412.384	-3.904	-0.267	0.184
-411.369	-20.562	0.305	-0.186
-410.355	-53.461	0.196	0.089
-409.340	-70.653	-0.074	-0.028
-408.325	662.005	-0.077	-0.196
-407.311	-200.000	0.065	-0.453
-406.296	-84.728	-0.271	-0.085
-405.282	-180.479	-0.224	0.005
-404.267	-1.220	0.421	0.296
-403.252	-200.000	0.004	-0.158
-402.238	-120.858	-0.270	-0.045
-401.223	-102.539	-0.307	0.073
-400.209	71.844	0.230	-0.237
-399.194	-84.263	-0.377	-0.119
-398.179	336.679	0.116	0.224
-397.165	103.960	-0.107	-0.125
-396.150	-91.051	-0.135	0.039
-395.136	-200.000	0.002	0.112
-394.121	-182.085	0.261	-0.005
-393.106	-78.499	0.261	-0.089
-392.092	-18.225	-0.283	-0.176
-391.077	800.000	0.121	0.420
-390.063	-12.259	-0.063	-0.041
-389.048	343.959	0.053	-0.103
-388.033	-61.540	-0.198	-0.083
-387.019	-200.000	-0.018	0.215
-386.004	-200.000	-0.065	-0.418
-384.990	-200.000	-0.049	-0.270
-383.975	-38.219	0.331	-0.174
-382.960	424.278	0.197	0.420
-381.946	527.353	0.037	0.088
-380.931	153.524	-0.201	-0.273
-379.917	-114.046	-0.227	-0.044
-378.902	-200.000	-0.050	0.474
-377.888	-54.940	0.033	0.015
-376.873	-177.888	-0.249	-0.006
-375.858	-200.000	0.119	0.584
-374.844	268.935	-0.164	0.285
-373.829	36.814	-0.178	0.156
-372.815	3.955	0.136	0.099
-371.800	90.209	0.053	-0.059
-370.785	-57.530	-0.234	0.102
-369.771	800.000	0.070	0.265
-368.756	-102.572	-0.216	-0.051
-367.742	78.418	0.209	0.222
-366.727	-200.000	0.001	-0.106
-365.712	177.924	0.062	-0.090
-364.698	47.309	-0.103	-0.095
-363.683	425.677	-0.112	-0.240
-362.669	41.856	0.104	-0.094
-361.654	255.417	0.119	-0.203
-360.639	-6.371	0.103	0.069
-359.625	142.628	0.307	-0.404
-358.610	-64.324	0.142	-0.057
-357.596	332.620	0.066	0.126
-356.581	43.793	-0.163	-0.148
-355.566	800.000	0.033	0.103
-354.552	-200.000	-0.005	-0.049
-353.537	-99.944	-0.106	0.026
-352.523	-7.678	-0.265	0.177
-351.508	-135.217	0.170	-0.020
-350.493	-200.000	-0.002	-0.220
-349.479	-95.992	-0.206	-0.054
-348.464	800.000	0.047	0.203
-347.450	800.000	-0.016	0.045
-346.435	-6.116	-0.235	0.159
-345.420	800.000	0.047	-0.152
-344.406	9.923	-0.256	-0.192
-343.391	414.080	-0.094	0.199
-342.377	-200.000	0.027	-0.201
-341.362	60.301	-0.264	-0.259
-340.348	-84.879	0.274	0.085
-339.333	-106.414	0.397	-0.088
-338.318	-116.550	-0.144	-0.026
-337.304	24.606	0.295	-0.242
-336.289	-200.000	0.044	0.455
-335.275	-7.600	0.246	-0.165
-334.260	800.000	0.082	-0.227
-333.245	-57.730	0.158	0.068
-332.231	-52.360	0.308	0.141
-331.216	83.324	-0.229	0.247
-330.202	-14.072	0.209	-0.134
-329.187	-170.269	0.107	0.004
-328.172	277.797	0.157	0.277
-327.158	150.348	-0.105	-0.141
-326.143	98.552	-0.135	-0.154
-325.129	-77.498	0.154	-0.053
-324.114	-200.000	-0.044	0.420
-323.099	14.781	0.057	-0.044
-322.085	-68.236	-0.234	0.090
-321.070	800.000	-0.107	-0.355
-320.056	80.072	-0.177	-0.188
-319.041	67.936	0.073	0.074
-318.026	107.661	-0.016	-0.019
-317.012	-54.341	0.168	-0.076
-315.997	-200.000	-0.013	-0.257
-314.983	52.732	-0.134	-0.127
-313.968	296.517	0.097	0.177
-312.953	800.000	-0.047	-0.167
-311.939	-200.000	-0.001	0.126
-310.924	-96.270	-0.256	-0.067
-309.910	-64.215	-0.079	-0.032
-308.895	-43.629	-0.202	0.101
-307.880	-112.719	0.264	-0.052
-306.866	-170.164	-0.220	-0.008
-305.851	26.908	0.030	0.025
-304.837	275.982	0.019	-0.033
-303.822	3.432	0.198	-0.143
-302.807	-150.668	0.335	0.025
-301.793	800.000	-0.013	0.037
-300.778	-200.000	-0.014	0.287
-299.764	-49.447	0.254	-0.120
-298.749	342.526	-0.081	-0.157
-297.735	-136.804	-0.274	0.031
-296.720	-200.000	0.030	0.239
-295.705	800.000	0.080	0.268
-294.691	155.572	-0.070	0.095
-293.676	-66.531	0.082	0.032
-292.662	294.321	-0.082	0.148
-291.647	-55.015	-0.116	-0.052
-290.632	-200.000	0.048	0.326
-289.618	62.492	0.016	0.016
-288.603	-41.069	0.273	-0.140
-287.589	583.192	0.043	0.104
-286.574	133.775	0.176	0.225
-285.559	-200.000	-0.016	-0.122
-284.545	-9.849	0.393	0.259
-283.530	-157.276	0.499	0.030
-282.516	50.597	0.067	-0.062
-281.501	-14.484	0.059	-0.037
-280.486	-68.758	-0.107	0.041
-279.472	-124.903	-0.146	0.022
-278.457	215.033	0.180	-0.283
-277.443	-200.000	0.016	-0.132
-276.428	-200.000	0.060	-0.296
-275.413	-200.000	-0.006	-0.151
-274.399	-23.444	-0.226	0.134
-273.384	800.000	-0.096	0.301
-272.370	-200.000	0.023	-0.215
-271.355	-98.337	-0.076	-0.019
-270.340	699.502	0.187	0.486
-269.326	-9.965	-0.372	-0.244
-268.311	-200.000	0.034	0.504
-267.297	-55.133	0.312	-0.139
-266.282	-48.484	0.119	-0.057
-265.267	302.847	0.137	-0.250
-264.253	-1.917	0.216	-0.150
-263.238	340.245	-0.087	0.168
-262.224	45.518	-0.194	0.177
-261.209	315.875	-0.026	-0.048
-260.195	-200.000	0.025	-0.353
-259.180	-200.000	-0.037	-0.176
-258.165	89.892	0.102	0.113
-257.151	484.741	-0.158	0.356
-256.136	59.134	0.228	0.222
-255.122	-200.000	0.040	0.195
-254.107	-11.960	-0.080	-0.052
-253.092	-200.000	0.009	-0.144
-252.078	-200.000	0.015	-0.100
-251.063	79.209	-0.248	0.262
-250.049	-16.186	0.274	-0.172
-249.034	167.421	0.098	-0.137
-248.019	800.000	-0.058	-0.162
-247.005	800.000	-0.040	-0.127
-245.990	-200.000	-0.046	0.232
-244.976	-63.240	-0.258	0.105
-243.961	-200.000	-0.006	-0.314
-242.946	-132.822	0.153	0.019
-241.932	-139.113	0.153	0.016
-240.917	-88.780	-0.186	-0.055
-239.903	26.332	0.079	-0.065
-238.888	-200.000	-0.017	0.086
-237.873	10.639	0.126	-0.094
-236.859	800.000	-0.031	-0.129
-235.844	20.584	0.306	0.244
-234.830	27.833	-0.074	0.061
-233.815	195.883	-0.124	0.187
-232.800	-200.000	-0.003	0.145
-231.786	102.650	-0.044	0.051
-230.771	-31.481	-0.144	-0.080
-229.757	25.229	-0.159	0.130
-228.742	-191.069	-0.202	-0.002
-227.727	6.625	0.307	-0.225
-226.713	359.109	0.079	0.155
-225.698	-168.775	-0.156	0.006
-224.684	270.974	0.201	0.349
-223.669	-82.628	-0.510	0.163
-222.655	-89.003	0.207	0.060
-221.640	-65.064	-0.202	-0.080
-220.625	227.982	0.069	0.111
-219.611	-136.223	-0.353	0.041
-218.596	92.093	0.112	-0.124
-217.582	-108.837	-0.299	-0.063
-216.567	103.646	-0.084	-0.097
-215.552	-19.147	-0.147	-0.090
-214.538	-134.391	0.172	0.021
-213.523	-166.840	-0.187	0.008
-212.509	-200.000	-0.012	-0.292
-211.494	57.965	0.140	0.136
-210.479	-43.439	0.300	0.149
-209.465	44.114	-0.258	-0.234
-208.450	305.151	0.241	-0.442
-207.436	-59.741	0.368	0.155
-206.421	79.673	-0.070	0.074
-205.406	62.502	-0.041	0.041
-204.392	-58.995	0.109	0.047
-203.377	39.011	-0.212	0.186
-202.363	-200.000	0.009	-0.101
-201.348	-157.716	0.174	-0.010
-200.333	800.000	-0.094	-0.273
-199.319	-200.000	-0.006	-0.308
-198.304	61.013	0.050	0.049
-197.290	0.268	-0.135	0.095
-196.275	800.000	0.058	-0.176
-195.260	352.507	0.091	0.178
-194.246	518.846	0.064	0.149
-193.231	23.302	0.252	-0.204
-192.217	282.222	-0.112	-0.198
-191.202	-200.000	-0.063	0.278
-190.187	-200.000	0.003	0.187
-189.173	-200.000	-0.034	0.193
-188.158	-3.756	-0.436	0.298
-187.144	-117.192	0.066	-0.012
-186.129	198.250	0.233	-0.351
-185.114	-200.000	0.007	0.436
-184.100	-40.583	0.160	0.082
-183.085	75.923	0.129	-0.134
-182.071	-133.934	-0.186	0.023
-181.056	-32.800	-0.106	0.058
-180.042	-200.000	0.043	-0.406
-179.027	357.226	-0.189	-0.372
-178.012	-76.836	-0.329	0.113
-176.998	175.159	0.076	-0.109
-175.983	185.002	-0.198	-0.289
-174.969	-169.085	0.158	-0.006
-173.954	-81.969	-0.199	-0.064
-172.939	-98.863	0.226	0.056
-171.925	-6.586	0.177	-0.118
-170.910	800.000	-0.028	0.091
-169.896	737.907	0.084	-0.223
-168.881	-200.000	-0.004	-0.113
-167.866	800.000	-0.090	-0.250
-166.852	144.833	-0.131	0.172
-165.837	523.891	0.100	0.231
-164.823	-200.000	-0.026	0.283
-163.808	-166.383	0.360	0.015
-162.793	56.172	-0.132	0.126
-161.779	-200.000	-0.026	0.337
-160.764	13.618	-0.187	-0.143
-159.750	-141.115	0.368	0.037
-158.735	800.000	-0.054	0.205
-157.720	-200.000	0.003	-0.069
-156.706	634.240	-0.027	-0.068
-155.691	800.000	-0.027	0.086
-154.677	106.812	0.240	-0.280
-153.662	4.716	-0.323	-0.234
-152.647	411.433	-0.061	-0.128
-151.633	-200.000	-0.005	0.100
-150.618	-182.163	-0.194	0.004
-149.604	-90.326	-0.197	-0.056
-148.589	56.625	-0.234	-0.224
-147.574	800.000	-0.106	-0.322
-146.560	-55.753	0.248	0.109
-145.545	563.465	-0.094	-0.225
-144.531	-94.628	-0.098	-0.026
-143.516	14.452	0.106	0.082
-142.502	6.512	-0.175	-0.128
-141.487	-200.000	-0.045	-0.308
-140.472	122.822	-0.129	-0.158
-139.458	-91.736	0.139	-0.039
-138.443	77.691	-0.134	-0.140
-137.429	-81.068	0.449	0.146
-136.414	-59.083	-0.318	0.135
-135.399	-102.969	-0.156	-0.036
-134.385	248.281	0.169	0.281
-133.370	-34.770	-0.116	-0.062
-132.356	-77.171	0.231	0.079
-131.341	486.340	-0.087	0.194
-130.326	800.000	-0.015	0.055
-129.312	-200.000	-0.005	-0.304
-128.297	-200.000	-0.029	0.287
-127.283	42.190	0.120	-0.107
-126.268	258.032	0.095	0.160
-125.253	-200.000	0.005	-0.026
-124.239	196.837	-0.150	0.225
-123.224	-25.754	0.271	0.157
-122.210	-200.000	0.024	-0.114
-121.195	6.359	0.257	0.188
-120.180	-200.000	-0.039	-0.254
-119.166	108.955	-0.274	0.322
-118.151	-39.249	0.272	0.140
-117.137	800.000	0.079	-0.320
-116.122	-200.000	-0.006	-0.082
-115.107	-60.090	0.341	0.143
-114.093	-200.000	0.016	0.074
-113.078	-200.000	-0.002	-0.249
-112.064	-79.648	-0.378	-0.125
-111.049	800.000	0.032	0.116
-110.034	800.000	0.078	-0.216
-109.020	800.000	-0.082	-0.293
-108.005	-200.000	0.027	0.252
-106.991	-3.423	0.146	-0.100
-105.976	-144.325	-0.148	-0.014
-104.962	-200.000	-0.025	-0.282
-103.947	25.143	-0.446	-0.364
-102.932	-133.954	-0.212	0.026
-101.918	161.572	-0.060	0.082
-100.903	-200.000	-0.093	0.440
-99.889	-200.000	0.026	-0.230
-98.874	55.967	0.261	0.248
-97.859	-200.000	-0.001	-0.340
-96.845	-124.953	0.195	0.029
-95.830	-38.585	-0.257	-0.133
-94.816	98.572	0.148	-0.168
-93.801	800.000	-0.067	-0.235
-92.786	-101.185	0.439	0.105
-91.772	721.375	-0.026	-0.067
-90.757	-184.278	0.146	-0.002
-89.743	249.291	-0.111	0.184
-88.728	-34.273	-0.312	0.168
-87.713	800.000	0.135	-0.423
-86.699	535.254	0.163	0.381
-85.684	320.619	-0.129	0.240
-84.670	800.000	-0.060	-0.192
-83.655	800.000	0.053	-0.174
-82.640	800.000	0.037	-0.106
-81.626	-200.000	-0.013	0.382
-80.611	-200.000	-0.006	0.274
-79.597	151.796	0.069	0.092
-78.582	-67.330	0.096	0.037
-77.567	-57.841	0.205	0.088
-76.553	-104.429	0.161	-0.037
-75.538	-200.000	0.025	-0.131
-74.524	78.109	-0.097	-0.101
-73.509	-200.000	0.046	-0.225
-72.494	-200.000	-0.048	0.440
-71.480	-200.000	0.075	-0.357
-70.465	366.592	-0.133	0.263
-69.451	-92.097	0.174	-0.048
-68.436	-11.334	0.159	0.103
-67.422	800.000	-0.055	-0.190
-66.407	529.271	0.103	0.240
-65.392	-200.000	0.006	-0.084
-64.378	112.941	-0.141	0.167
-63.363	44.568	-0.070	-0.063
-62.349	-167.818	0.323	-0.012
-61.334	84.810	-1.047	-1.125
-60.319	38.732	0.577	0.505
-59.305	-200.000	-0.229	-1.067
-58.290	83.061	0.977	1.042
-57.276	225.349	0.927	1.471
-56.261	-200.000	108.494	606.191
-55.246	459.700	1483.241	3236.586
-54.232	148.589	2657.472	3518.841
-53.217	106.756	2141.325	2490.742
-52.203	40.981	1595.677	1411.876
-51.188	33.220	1339.467	1138.641
-50.173	30.127	1299.421	1086.462
-49.159	55.571	1353.868	1284.768
-48.144	55.864	1369.117	1300.939
-47.130	33.270	1324.386	1125.942
-46.115	29.920	1306.569	1091.047
-45.100	29.490	1302.030	1084.688
-44.086	29.591	1299.682	1083.281
-43.071	29.572	1296.674	1080.615
-42.057	29.466	1294.959	1078.528
-41.042	29.491	1293.346	1077.284
-40.027	29.532	1291.989	1076.354
-39.013	29.627	1289.630	1074.895
-37.998	29.597	1288.176	1073.470
-36.984	29.645	1286.203	1072.060
-35.969	29.660	1284.435	1070.628
-34.954	29.728	1282.725	1069.556
-33.940	29.780	1281.661	1068.925
-32.925	29.782	1280.180	1067.659
-31.911	29.755	1278.730	1066.253
-30.896	29.818	1277.477	1065.528
-29.881	29.770	1276.491	1064.386
-28.867	29.809	1274.681	1063.063
-27.852	29.751	1273.504	1061.706
-26.838	29.815	1271.658	1060.489
-25.823	29.837	1270.996	1060.020
-24.809	29.628	1269.855	1057.834
-23.794	29.653	1268.428	1056.744
-22.779	29.688	1267.007	1055.719
-21.765	29.822	1265.230	1054.961
-20.750	29.784	1264.190	1053.831
-19.736	29.695	1262.874	1052.190
-18.721	29.708	1261.694	1051.236
-17.706	29.633	1260.585	1049.846
-16.692	29.592	1259.496	1048.665
-15.677	29.665	1258.299	1048.042
-14.663	29.679	1256.864	1046.882
-13.648	29.577	1256.140	1045.663
-12.633	29.645	1255.098	1045.134
-11.619	29.713	1254.250	1044.773
-10.604	29.683	1253.301	1043.771
-9.590	29.598	1252.496	1042.578
-8.575	29.531	1251.636	1041.443
-7.560	29.666	1250.983	1041.621
-6.546	29.744	1250.163	1041.335
-5.531	29.517	1249.003	1039.054
-4.517	29.687	1247.992	1039.123
-3.502	29.744	1247.247	1038.785
-2.487	29.709	1246.393	1037.835
-1.473	29.623	1241.930	1033.596
-0.458	27.658	1227.172	1010.395
0.556	22.279	1209.454	970.884
1.571	18.387	1214.692	953.383
2.586	17.407	1230.212	959.952
3.600	17.269	1218.629	950.058
4.615	15.005	1152.565	886.494
5.629	10.951	1084.372	813.728
6.644	8.771	1067.193	790.021
7.659	8.562	1065.132	787.398
8.673	8.412	1063.856	785.647
9.688	8.536	1062.062	784.861
10.702	8.761	1060.630	784.837
11.717	11.335	1063.484	799.512
12.731	15.512	1068.647	823.854
13.746	17.476	1070.991	835.234
14.761	17.443	1070.090	834.298
15.775	16.419	1068.072	827.638
16.790	15.412	1066.145	821.144
17.804	14.797	1064.313	816.660
18.819	14.120	1063.811	812.892
19.834	13.954	1062.556	811.051
20.848	13.721	1061.543	809.072
21.863	13.553	1060.445	807.343
22.877	13.447	1060.231	806.592
23.892	13.295	1059.407	805.154
24.907	13.376	1058.537	804.817
25.921	13.483	1057.119	804.184
26.936	13.436	1056.356	803.305
27.950	13.408	1055.318	802.309
28.965	13.570	1053.517	801.653
29.980	13.610	1051.853	800.508
30.994	13.621	1050.455	799.427
32.009	13.698	1049.731	799.175
33.023	13.630	1048.728	798.016
34.038	13.557	1047.788	796.876
35.053	13.604	1046.655	796.170
36.067	13.466	1046.019	794.954
37.082	13.459	1045.441	794.411
38.096	13.615	1044.497	794.370
39.111	13.641	1043.678	793.802
40.126	13.436	1042.911	792.170
41.140	13.252	1041.291	789.990
42.155	13.178	1040.102	788.665
43.169	13.336	1038.882	788.424
44.184	13.361	1037.561	787.467
45.199	13.291	1036.810	786.499
46.213	13.279	1036.232	785.932
47.228	13.348	1035.189	785.397
48.242	13.558	1033.389	784.960
49.257	13.451	1032.865	783.982
50.271	13.329	1032.301	782.909
51.286	13.534	1031.112	782.909
52.301	13.403	1030.567	781.807
53.315	13.379	1029.056	780.476
54.330	13.373	1028.310	779.813
55.344	13.359	1027.506	779.069
56.359	13.420	1026.540	778.556
57.374	13.413	1025.426	777.608
58.388	13.270	1024.815	776.404
59.403	13.320	1023.892	775.869
60.417	13.316	1023.108	775.188
61.432	13.397	1022.020	774.676
62.447	13.269	1021.406	773.545
63.461	13.239	1020.652	772.762
64.476	13.287	1019.828	772.294
65.490	13.294	1019.311	771.866
66.505	13.200	1018.409	770.680
67.520	13.348	1017.691	770.756
68.534	13.280	1017.358	770.118
69.549	13.328	1015.987	769.237
70.563	13.188	1015.708	768.307
71.578	13.189	1014.629	767.427
72.593	13.143	1013.899	766.593
73.607	13.144	1013.697	766.376
74.622	13.162	1012.435	765.440
75.636	13.043	1012.207	764.648
76.651	13.107	1011.422	764.281
77.666	13.128	1010.750	763.804
78.680	13.236	1009.798	763.518
79.695	13.315	1009.118	763.298
80.709	13.253	1008.882	762.766
81.724	13.171	1008.306	761.887
82.739	13.248	1007.319	761.429
83.753	13.493	1006.607	761.951
84.768	13.578	1005.349	761.321
85.782	13.668	1004.508	761.030
86.797	13.548	1003.746	759.835
87.812	13.498	1002.707	758.754
88.826	13.458	1001.901	757.890
89.841	13.574	1001.165	757.797
90.855	13.539	999.985	756.677
91.870	13.619	999.590	756.677
92.884	13.606	998.662	755.851
93.899	13.582	998.120	755.263
94.914	13.641	997.038	754.647
95.928	13.591	996.302	753.792
96.943	13.569	995.041	752.674
97.957	13.477	994.625	751.877
98.972	13.590	993.257	751.288
99.987	13.613	992.556	750.795
101.001	13.575	991.413	749.692
102.016	13.591	990.865	749.282
103.030	13.550	990.459	748.726
104.045	13.497	989.434	747.642
105.060	13.533	988.270	746.862
106.074	13.491	987.292	745.865
107.089	13.472	986.302	744.967
108.103	13.309	985.717	743.725
109.118	13.317	984.989	743.148
110.133	13.280	983.845	742.052
111.147	13.269	983.086	741.362
112.162	13.418	982.308	741.381
113.176	13.469	981.162	740.677
114.191	13.428	980.967	740.282
115.206	13.403	979.998	739.371
116.220	13.328	979.447	738.558
117.235	13.417	977.810	737.655
118.249	13.352	977.365	736.963
119.264	13.420	976.767	736.750
120.279	13.400	975.859	735.911
121.293	13.352	974.949	734.948
122.308	13.310	974.246	734.166
123.322	13.419	972.827	733.512
124.337	13.320	972.084	732.452
125.352	13.464	970.890	732.122
126.366	13.243	969.974	730.392
127.381	13.264	968.920	729.626
128.395	13.274	968.158	729.032
129.410	13.396	967.260	728.829
130.424	13.379	966.656	728.234
131.439	13.341	965.900	727.431
132.454	13.430	965.129	727.179
133.468	13.556	963.964	726.790
134.483	13.487	963.502	726.074
135.497	13.397	962.570	724.915
136.512	13.607	961.430	724.910
137.527	13.556	960.441	723.878
138.541	13.538	960.013	723.411
139.556	13.626	959.156	723.087
140.570	13.716	958.302	722.772
141.585	13.617	957.862	721.941
142.600	13.601	957.168	721.287
143.614	13.659	956.391	720.887
144.629	13.682	955.553	720.292
145.643	13.673	954.844	719.655
146.658	13.653	953.510	718.503
147.673	13.597	952.767	717.634
148.687	13.485	951.843	716.390
149.702	13.623	950.806	716.143
150.716	13.343	950.644	714.750
151.731	13.561	949.493	714.760
152.746	13.541	948.904	714.168
153.760	13.672	948.190	714.132
154.775	13.779	947.435	713.960
155.789	13.822	946.795	713.598
156.804	13.610	946.541	712.434
157.819	13.703	945.434	711.938
158.833	13.779	944.822	711.740
159.848	13.846	944.133	711.443
160.862	13.874	943.038	710.675
161.877	13.775	941.861	709.303
162.892	13.588	941.401	708.094
163.906	13.634	940.025	707.194
164.921	13.586	939.324	706.398
165.935	13.659	938.552	706.067
166.950	13.770	937.352	705.572
167.964	13.695	936.789	704.767
168.979	13.803	935.416	704.132
169.994	13.669	935.187	703.329
171.008	13.789	934.644	703.364
172.023	13.826	933.869	702.878
173.037	13.908	932.393	702.053
174.052	13.822	932.158	701.447
175.067	13.745	931.389	700.480
176.081	13.640	931.152	699.800
177.096	13.764	930.535	699.794
178.110	13.820	929.871	699.470
179.125	13.766	929.454	698.866
180.140	13.826	928.668	698.467
181.154	13.945	928.300	698.629
182.169	14.014	927.659	698.376
183.183	14.024	926.624	697.577
184.198	14.051	926.223	697.324
185.213	13.897	925.633	696.173
186.227	14.043	924.591	695.942
187.242	14.036	924.292	695.624
188.256	14.173	923.496	695.536
189.271	13.954	923.006	694.190
190.286	13.767	922.327	692.839
191.300	13.759	921.452	692.086
192.315	13.842	920.748	691.844
193.329	13.665	920.549	690.895
194.344	13.849	919.653	690.928
195.359	13.960	919.188	690.976
196.373	14.049	918.826	691.016
197.388	14.058	918.319	690.610
198.402	14.246	917.558	690.754
199.417	14.265	917.371	690.631
200.432	14.353	916.418	690.219
201.446	14.226	916.378	689.603
202.461	14.339	915.359	689.243
203.475	14.315	915.033	688.835
204.490	14.275	914.039	687.863
205.504	14.255	913.256	687.128
206.519	14.180	912.303	686.042
207.534	14.137	911.699	685.351
208.548	14.095	911.696	685.114
209.563	14.317	910.486	685.058
210.577	14.315	909.720	684.412
211.592	14.335	909.705	684.422
212.607	14.563	907.880	683.925
213.621	14.328	907.875	682.897
214.636	14.408	906.930	682.453
215.650	14.509	906.105	682.184
216.665	14.577	905.523	681.962
217.680	14.564	904.795	681.300
218.694	14.532	904.317	680.752
219.709	14.536	903.555	680.135
220.723	14.349	903.210	679.053
221.738	14.627	902.049	679.250
222.753	14.454	901.726	678.243
223.767	14.545	901.289	678.226
224.782	14.513	900.784	677.655
225.796	14.597	900.188	677.485
226.811	14.547	899.266	676.529
227.826	14.641	898.861	676.548
228.840	14.629	897.886	675.705
229.855	14.528	897.278	674.778
230.869	14.593	896.334	674.271
231.884	14.534	895.883	673.634
232.899	14.307	895.251	672.183
233.913	14.450	894.129	671.859
234.928	14.603	893.530	671.963
235.942	14.504	893.232	671.283
236.957	14.544	892.565	670.882
237.972	14.516	892.285	670.502
238.986	14.496	891.577	669.829
240.001	14.569	890.699	669.401
241.015	14.601	890.054	668.988
242.030	14.646	889.482	668.680
243.045	14.721	889.280	668.769
244.059	14.564	888.535	667.521
245.074	14.635	887.858	667.235
246.088	14.681	887.112	666.800
247.103	14.804	886.553	666.813
248.117	14.850	886.135	666.621
249.132	14.953	885.851	666.761
250.147	14.907	885.015	665.888
251.161	14.895	883.992	665.010
252.176	15.113	883.440	665.405
253.190	15.114	882.973	664.996
254.205	15.077	882.252	664.248
255.220	15.233	881.429	664.190
256.234	15.237	880.935	663.773
257.249	15.216	879.973	662.905
258.263	15.128	879.526	662.163
259.278	15.274	878.852	662.173
260.293	15.123	878.443	661.210
261.307	15.363	877.678	661.523
262.322	15.392	877.195	661.215
263.336	15.295	876.236	660.052
264.351	15.447	875.625	660.133
265.366	15.395	875.102	659.473
266.380	15.369	874.554	658.902
267.395	15.379	873.321	657.954
268.409	15.332	872.848	657.354
269.424	15.342	872.115	656.784
270.439	15.270	871.168	655.730
271.453	15.242	870.976	655.418
272.468	15.230	870.343	654.835
273.482	15.203	869.911	654.349
274.497	15.329	869.281	654.308
275.512	15.424	868.833	654.283
276.526	15.353	868.292	653.543
277.541	15.441	867.497	653.228
278.555	15.578	867.135	653.429
279.570	15.415	866.723	652.427
280.585	15.555	865.733	652.169
281.599	15.660	864.486	651.578
282.614	15.484	864.312	650.707
283.628	15.451	863.638	650.014
284.643	15.489	862.936	649.578
285.657	15.411	862.603	648.966
286.672	15.558	861.900	648.947
287.687	15.473	861.308	648.118
288.701	15.541	860.647	647.825
289.716	15.628	860.123	647.708
290.730	15.534	859.664	646.942
291.745	15.551	859.206	646.606
292.760	15.731	858.085	646.398
293.774	15.735	857.764	646.114
294.789	15.670	857.403	645.537
295.803	15.532	856.345	644.154
296.818	15.612	855.764	643.966
297.833	15.576	855.065	643.243
298.847	15.683	854.291	643.016
299.862	15.708	854.017	642.847
300.876	15.698	853.437	642.315
301.891	15.827	852.860	642.315
302.906	15.867	852.460	642.112
303.920	15.865	851.856	641.593
304.935	15.929	851.538	641.540
305.949	16.028	850.578	641.135
306.964	15.980	849.995	640.459
307.979	15.833	849.544	639.502
308.993	15.850	849.056	639.144
310.008	16.003	848.443	639.205
311.022	15.827	847.800	637.998
312.037	15.944	847.138	637.884
313.052	15.842	846.608	637.043
314.066	15.933	846.061	636.920
315.081	15.728	845.580	635.728
316.095	15.944	844.713	635.834
317.110	15.926	843.814	635.032
318.125	15.821	843.652	634.460
319.139	15.936	843.196	634.493
320.154	15.944	842.831	634.194
321.168	15.883	842.464	633.632
322.183	15.988	841.852	633.512
323.197	15.913	841.476	632.887
324.212	16.056	840.744	632.821
325.227	16.009	840.009	632.032
326.241	15.846	839.562	631.031
327.256	15.977	838.892	630.961
328.270	16.022	838.320	630.643
329.285	15.953	837.875	629.996
330.300	15.905	837.258	629.295
331.314	16.022	836.698	629.256
332.329	16.140	836.386	629.407
333.343	16.117	836.015	628.986
334.358	16.216	835.470	628.889
335.373	16.107	835.272	628.280
336.387	16.180	834.828	628.162
337.402	16.201	834.455	627.904
338.416	16.139	834.259	627.468
339.431	16.301	833.737	627.625
340.446	16.296	833.377	627.280
341.460	16.468	832.958	627.546
342.475	16.397	832.878	627.168
343.489	16.583	831.833	627.014
344.504	16.404	831.544	626.077
345.519	16.546	831.359	626.410
346.533	16.364	830.627	625.126
347.548	16.443	829.900	624.818
348.562	16.403	829.397	624.234
349.577	16.486	828.555	623.852
350.592	16.227	828.315	622.660
351.606	16.356	827.275	622.301
352.621	16.290	827.477	622.153
353.635	16.439	826.341	621.791
354.650	16.479	825.877	621.537
355.665	16.517	825.042	620.991
356.679	16.669	824.320	620.950
357.694	16.611	823.868	620.341
358.708	16.498	823.340	619.476
359.723	16.591	822.691	619.272
360.738	16.543	822.387	618.813
361.752	16.588	821.605	618.335
362.767	16.645	820.957	618.002
363.781	16.663	820.229	617.465
364.796	16.780	820.207	617.821
365.810	16.918	819.706	617.889
366.825	16.959	819.182	617.590
367.840	16.855	818.879	616.928
368.854	16.889	818.355	616.604
369.869	16.791	818.013	615.937
370.883	16.797	817.583	615.580
371.898	16.989	817.104	615.859
372.913	16.889	816.733	615.163
373.927	17.008	816.477	615.347
374.942	17.015	815.675	614.712
375.956	16.966	815.335	614.227
376.971	17.104	814.970	614.396
377.986	16.997	814.423	613.542
379.000	17.086	814.162	613.612
380.015	17.092	813.279	612.916
381.029	17.133	812.539	612.452
382.044	17.195	812.252	612.405
383.059	17.266	811.667	612.163
384.073	17.138	811.066	611.196
385.088	17.073	810.647	610.595
386.102	17.086	810.505	610.478
387.117	16.976	809.622	609.364
388.132	17.078	809.184	609.348
389.146	17.102	808.613	608.950
390.161	17.130	808.482	608.898
391.175	17.202	807.703	608.514
392.190	17.172	807.165	607.947
393.205	17.062	806.708	607.156
394.219	17.213	806.343	607.368
395.234	17.067	806.044	606.567
396.248	16.902	805.637	605.617
397.263	16.965	805.133	605.411
398.278	17.066	804.768	605.442
399.292	17.115	804.161	605.107
400.307	17.126	803.805	604.826
401.321	17.114	803.294	604.343
402.336	17.204	802.562	604.061
403.350	16.988	802.675	603.322
404.365	17.287	802.278	604.033
405.380	17.201	801.690	603.234
406.394	17.383	800.876	603.213
407.409	17.346	800.819	602.985
408.423	17.333	800.666	602.771
409.438	17.479	800.159	602.851
410.453	17.607	799.079	602.437
411.467	17.748	798.721	602.613
412.482	17.622	798.596	602.021
413.496	17.508	798.352	601.379
414.511	17.631	798.063	601.542
415.526	17.635	797.436	601.033
416.540	17.669	796.896	600.691
417.555	17.652	796.603	600.356
418.569	17.673	796.055	599.964
419.584	17.601	795.806	599.472
420.599	17.662	795.420	599.342
421.613	110.177	1293.344	1470.971
422.628	94.721	1365.867	1471.087
