DTS Sentinel unit serial number:	SN413079Multiplexer serial number:	ORYXHardware model number:	OX4-SRSoftware version number:	ORYX F/W v4.00 Oryx Data Collector v3.7.2.0data status	okinstallation	princeton_trtdifferential loss correction	single-endedforward channel	channel 1reverse channel	N/Adate	2019/09/18time	20:30:35forward acquisition time	60.00reverse acquisition time	0.00gamma	496.2192k internal	0.2335k external	0.2335temperature offset calibration	1.0027default loss term (dB/km)	0.3790temperature slope calibration	1.0000multiplexer offset coefficient	1.0000multiplexer slope coefficient	1.0000fibre end	0.00T internal ref (°C)	28.25T ext. ref 1 (°C)	0.93T ext. ref 2 (°C)	19.12length (m)	temperature (°C)	Stokes	anti-Stokes-747.200	77.189	-0.205	-0.219
-746.185	-182.000	-0.291	-0.006
-745.171	-86.133	-0.232	0.072
-744.156	-172.598	0.273	-0.009
-743.142	-200.000	0.052	0.394
-742.127	-200.000	-0.010	0.110
-741.112	800.000	-0.056	-0.216
-740.098	209.975	-0.179	0.283
-739.083	-34.234	0.320	0.176
-738.069	-200.000	0.003	0.147
-737.054	194.804	-0.105	0.160
-736.039	-200.000	-0.040	-0.226
-735.025	-29.309	0.395	0.227
-734.010	-148.204	0.200	0.017
-732.996	155.353	-0.122	-0.168
-731.981	20.625	0.064	-0.052
-730.966	205.325	0.300	-0.469
-729.952	-142.933	-0.213	0.021
-728.937	-179.165	-0.197	-0.004
-727.923	634.236	-0.058	-0.148
-726.908	440.603	-0.012	-0.027
-725.894	799.278	-0.093	0.257
-724.879	-101.565	-0.409	-0.100
-723.864	-55.055	-0.298	-0.135
-722.850	-200.000	-0.057	-0.281
-721.835	-70.339	0.235	0.090
-720.821	80.901	-0.233	0.253
-719.806	110.939	0.113	-0.136
-718.791	-90.493	-0.434	0.126
-717.777	-106.668	-0.205	0.046
-716.762	-200.000	-0.022	-0.142
-715.748	-15.184	0.138	-0.089
-714.733	800.000	-0.046	0.186
-713.718	-15.294	0.202	0.130
-712.704	594.030	0.044	-0.110
-711.689	16.129	-0.096	-0.076
-710.675	314.718	0.175	-0.331
-709.660	294.282	-0.118	0.216
-708.645	526.920	-0.125	0.295
-707.631	-200.000	-0.064	-0.361
-706.616	-73.935	0.285	0.104
-705.602	-130.121	-0.205	0.028
-704.587	121.410	-0.199	-0.249
-703.572	240.193	0.156	-0.261
-702.558	-200.000	-0.057	-0.304
-701.543	27.773	0.185	0.157
-700.529	-79.885	0.273	0.092
-699.514	-200.000	-0.002	0.016
-698.499	-96.358	0.230	-0.061
-697.485	17.676	-0.125	-0.100
-696.470	115.441	-0.185	0.226
-695.456	-129.114	0.258	-0.036
-694.441	143.184	0.271	0.362
-693.426	799.434	-0.018	-0.050
-692.412	-13.409	0.103	0.067
-691.397	154.583	0.107	0.147
-690.383	182.883	0.187	-0.277
-689.368	800.000	-0.041	-0.133
-688.354	-135.903	0.110	-0.013
-687.339	-23.181	-0.437	-0.264
-686.324	109.355	-0.159	-0.191
-685.310	-133.190	0.124	0.016
-684.295	223.349	-0.117	-0.188
-683.281	800.000	0.053	-0.208
-682.266	800.000	-0.060	0.254
-681.251	27.425	-0.061	0.052
-680.237	-200.000	0.018	0.211
-679.222	-72.949	-0.167	-0.062
-678.208	-200.000	-0.016	0.240
-677.193	-200.000	0.010	0.289
-676.178	-200.000	0.022	-0.186
-675.164	800.000	0.095	-0.380
-674.149	-107.575	-0.200	-0.044
-673.135	94.051	0.023	-0.026
-672.120	85.321	-0.131	-0.144
-671.105	800.000	0.119	-0.429
-670.091	7.549	0.263	-0.197
-669.076	149.070	0.243	-0.329
-668.062	47.762	0.020	-0.018
-667.047	205.869	-0.140	-0.218
-666.032	-200.000	0.001	0.010
-665.018	624.970	-0.127	0.320
-664.003	-20.945	0.386	-0.237
-662.989	-139.416	0.265	-0.028
-661.974	800.000	0.058	0.227
-660.959	-78.472	-0.265	-0.091
-659.945	-10.293	0.284	0.189
-658.930	157.372	-0.099	0.137
-657.916	-200.000	-0.017	-0.272
-656.901	217.161	-0.089	-0.141
-655.886	800.000	0.105	0.320
-654.872	-61.612	0.087	0.037
-653.857	-44.531	-0.193	-0.097
-652.843	40.031	-0.123	0.111
-651.828	537.433	-0.041	-0.097
-650.814	-200.000	0.024	0.461
-649.799	527.668	0.094	-0.223
-648.784	650.138	-0.130	-0.332
-647.770	40.026	-0.095	0.086
-646.755	800.000	0.067	-0.254
-645.741	-200.000	0.055	-0.366
-644.726	56.099	-0.134	-0.130
-643.711	-200.000	-0.027	0.211
-642.697	-165.043	0.184	-0.008
-641.682	-117.801	-0.175	-0.031
-640.668	37.726	-0.112	-0.099
-639.653	-9.214	-0.225	-0.150
-638.638	87.255	0.262	-0.290
-637.624	-200.000	-0.046	-0.361
-636.609	-200.000	-0.017	0.143
-635.595	-104.824	-0.229	0.053
-634.580	44.830	-0.115	-0.106
-633.565	108.156	0.251	-0.300
-632.551	19.887	-0.072	-0.058
-631.536	124.384	-0.080	-0.101
-630.522	800.000	0.053	0.177
-629.507	152.897	-0.108	-0.147
-628.492	-200.000	0.014	-0.139
-627.478	-66.497	0.278	-0.110
-626.463	-47.799	-0.200	0.097
-625.449	-92.170	-0.132	-0.037
-624.434	800.000	0.025	0.077
-623.419	-164.565	0.056	0.003
-622.405	275.629	-0.078	0.138
-621.390	85.491	-0.129	0.142
-620.376	800.000	-0.072	0.219
-619.361	800.000	-0.009	0.031
-618.346	800.000	-0.024	0.091
-617.332	94.223	0.208	0.236
-616.317	-200.000	-0.053	0.338
-615.303	486.483	0.083	0.190
-614.288	266.632	-0.181	0.317
-613.273	800.000	-0.071	-0.205
-612.259	-24.156	-0.298	0.178
-611.244	800.000	0.078	0.230
-610.230	-200.000	0.042	0.237
-609.215	-200.000	0.026	0.124
-608.201	-116.236	-0.210	-0.039
-607.186	-52.977	-0.213	-0.098
-606.171	-86.350	-0.036	-0.011
-605.157	-200.000	-0.001	0.048
-604.142	-200.000	-0.039	-0.242
-603.128	-41.735	-0.114	0.058
-602.113	-8.104	-0.093	0.063
-601.098	-57.354	0.006	0.003
-600.084	-128.502	0.280	0.040
-599.069	-90.462	-0.093	0.027
-598.055	-41.850	0.225	-0.115
-597.040	414.091	-0.065	-0.138
-596.025	-200.000	-0.011	-0.138
-595.011	-92.240	0.337	0.095
-593.996	-200.000	0.003	-0.083
-592.982	-200.000	0.038	-0.202
-591.967	121.949	-0.022	-0.027
-590.952	93.595	-0.253	-0.286
-589.938	790.425	-0.056	0.154
-588.923	24.859	0.195	-0.161
-587.909	-200.000	-0.013	-0.287
-586.894	-200.000	-0.005	0.195
-585.879	102.836	0.170	0.199
-584.865	-74.546	-0.132	-0.048
-583.850	-32.937	-0.143	0.079
-582.836	-5.234	0.222	-0.152
-581.821	-131.389	-0.355	0.047
-580.806	-61.099	-0.059	-0.025
-579.792	51.410	0.187	-0.177
-578.777	-52.074	0.200	-0.093
-577.763	-93.377	0.205	0.057
-576.748	-27.837	-0.190	-0.110
-575.733	-148.290	0.431	0.035
-574.719	-146.289	-0.098	-0.009
-573.704	-200.000	-0.000	-0.036
-572.690	324.959	-0.102	-0.195
-571.675	-13.858	-0.212	-0.137
-570.661	-200.000	-0.013	-0.092
-569.646	194.969	-0.090	-0.136
-568.631	-200.000	-0.003	-0.223
-567.617	-78.591	0.329	-0.112
-566.602	-200.000	0.010	-0.047
-565.588	-200.000	0.030	0.163
-564.573	131.779	-0.221	0.283
-563.558	242.753	-0.102	-0.171
-562.544	40.635	0.246	0.221
-561.529	800.000	-0.038	-0.148
-560.515	139.302	-0.105	0.138
-559.500	800.000	-0.083	-0.327
-558.485	675.810	0.103	0.266
-557.471	191.824	-0.108	0.163
-556.456	84.932	-0.108	0.118
-555.442	23.164	0.082	0.067
-554.427	-48.300	0.140	-0.067
-553.412	65.403	0.155	0.157
-552.398	-200.000	-0.068	0.317
-551.383	-91.353	0.422	-0.120
-550.369	-181.391	-0.127	-0.002
-549.354	-200.000	0.052	-0.384
-548.339	-129.506	0.215	0.030
-547.325	-112.180	-0.281	-0.056
-546.310	-103.441	0.263	-0.062
-545.296	800.000	-0.069	-0.237
-544.281	-106.921	0.137	0.030
-543.266	-16.033	-0.155	-0.098
-542.252	-200.000	-0.073	-0.350
-541.237	116.829	-0.334	-0.408
-540.223	464.341	0.143	-0.319
-539.208	209.049	-0.076	-0.118
-538.193	800.000	-0.030	-0.086
-537.179	247.909	-0.145	0.245
-536.164	356.422	-0.156	0.311
-535.150	-58.030	-0.304	0.132
-534.135	616.570	-0.072	0.181
-533.121	800.000	-0.067	-0.263
-532.106	263.854	-0.043	0.075
-531.091	-200.000	-0.033	0.261
-530.077	-4.615	0.257	-0.177
-529.062	-42.571	0.230	-0.117
-528.048	-59.774	0.068	0.029
-527.033	-59.585	0.068	0.029
-526.018	800.000	-0.032	0.138
-525.004	-175.150	0.085	0.002
-523.989	800.000	0.135	0.480
-522.975	40.306	-0.266	-0.238
-521.960	131.518	0.145	0.186
-520.945	654.237	0.143	-0.365
-519.931	-200.000	-0.004	-0.087
-518.916	-20.705	0.164	0.100
-517.902	226.769	-0.166	-0.269
-516.887	-84.000	-0.282	-0.089
-515.872	48.444	-0.295	0.275
-514.858	-200.000	-0.014	-0.212
-513.843	378.917	0.114	0.233
-512.829	-2.087	0.215	-0.150
-511.814	-14.892	-0.222	-0.142
-510.799	-200.000	-0.003	-0.015
-509.785	562.933	0.128	0.308
-508.770	12.185	-0.193	0.148
-507.756	-162.893	-0.068	0.003
-506.741	76.311	-0.140	-0.148
-505.726	86.201	0.204	-0.224
-504.712	499.866	0.039	-0.089
-503.697	-113.758	-0.119	0.023
-502.683	-47.511	0.185	0.090
-501.668	49.784	0.071	-0.067
-500.653	-200.000	0.015	0.066
-499.639	64.529	-0.095	-0.095
-498.624	-200.000	0.024	0.312
-497.610	7.112	-0.277	-0.206
-496.595	800.000	-0.074	0.250
-495.581	242.567	0.268	-0.446
-494.566	144.593	-0.177	-0.235
-493.551	236.324	-0.122	-0.200
-492.537	-94.569	-0.116	0.031
-491.522	-123.694	0.226	0.036
-490.508	214.025	-0.142	-0.224
-489.493	-200.000	-0.024	-0.320
-488.478	-200.000	0.025	-0.217
-487.464	-104.148	-0.194	0.045
-486.449	167.726	0.127	-0.179
-485.435	50.573	-0.265	-0.249
-484.420	-99.815	-0.197	-0.049
-483.405	-150.434	-0.185	0.014
-482.391	-37.239	0.164	-0.087
-481.376	-14.996	-0.120	0.076
-480.362	800.000	-0.134	0.433
-479.347	-126.357	0.283	0.042
-478.332	193.572	-0.171	0.257
-477.318	-2.903	-0.045	0.031
-476.303	-132.620	-0.075	-0.010
-475.289	102.843	-0.071	0.083
-474.274	-11.415	0.089	0.058
-473.259	800.000	-0.035	0.120
-472.245	-89.896	0.213	0.062
-471.230	-200.000	0.012	0.065
-470.216	800.000	0.087	-0.245
-469.201	200.095	0.257	0.392
-468.186	291.584	-0.120	0.217
-467.172	-200.000	-0.321	-0.001
-466.157	157.646	0.127	-0.175
-465.143	216.611	0.108	-0.172
-464.128	-68.655	0.081	0.031
-463.113	-91.297	-0.200	0.057
-462.099	140.000	0.167	-0.218
-461.084	295.766	0.064	0.116
-460.070	-140.625	0.220	0.023
-459.055	-78.880	-0.024	-0.008
-458.040	-67.336	-0.290	-0.113
-457.026	147.419	0.139	-0.186
-456.011	-110.381	0.508	0.105
-454.997	-100.411	0.236	0.058
-453.982	-41.452	-0.352	0.180
-452.968	-72.614	0.068	0.025
-451.953	2.244	0.048	-0.035
-450.938	-200.000	-0.042	0.187
-449.924	267.112	-0.089	-0.155
-448.909	-200.000	-0.007	0.119
-447.895	-71.596	0.198	0.073
-446.880	231.862	0.113	0.184
-445.865	-95.091	0.082	-0.022
-444.851	-200.000	-0.021	-0.123
-443.836	-37.909	-0.119	-0.063
-442.822	-132.345	-0.333	0.043
-441.807	-121.052	0.296	-0.049
-440.792	-200.000	-0.015	-0.114
-439.778	-113.924	-0.089	-0.017
-438.763	-139.750	0.341	-0.036
-437.749	319.852	-0.016	-0.030
-436.734	57.414	-0.259	-0.251
-435.719	7.092	0.380	0.281
-434.705	48.270	-0.260	0.242
-433.690	-182.478	-0.449	-0.008
-432.676	199.581	0.272	0.414
-431.661	17.303	-0.150	-0.118
-430.646	-150.192	-0.432	-0.033
-429.632	-200.000	0.035	0.282
-428.617	-200.000	-0.013	0.144
-427.603	-31.451	-0.228	0.127
-426.588	254.528	0.222	-0.377
-425.573	45.830	-0.184	0.169
-424.559	800.000	0.041	0.152
-423.544	44.930	-0.131	0.120
-422.530	134.900	-0.086	-0.111
-421.515	-200.000	0.020	0.091
-420.500	134.396	-0.061	0.079
-419.486	208.372	-0.083	0.128
-418.471	-200.000	0.060	0.276
-417.457	285.603	-0.139	0.249
-416.442	98.472	0.129	0.148
-415.428	-178.860	0.061	-0.001
-414.413	730.463	0.106	0.282
-413.398	-6.835	0.044	0.030
-412.384	-84.093	0.323	-0.102
-411.369	-58.668	-0.162	0.070
-410.355	-200.000	0.004	0.148
-409.340	677.862	0.097	-0.251
-408.325	-200.000	0.018	0.121
-407.311	-29.984	0.115	-0.065
-406.296	49.614	-0.309	0.289
-405.282	800.000	0.058	0.207
-404.267	103.780	-0.246	0.286
-403.252	-64.292	0.232	0.094
-402.238	-57.341	-0.315	-0.137
-401.223	133.150	-0.224	0.287
-400.209	335.075	0.112	0.215
-399.194	261.449	-0.154	0.264
-398.179	-13.089	-0.127	-0.082
-397.165	583.023	-0.045	0.109
-396.150	-42.878	0.112	0.057
-395.136	287.610	-0.104	0.186
-394.121	-158.938	0.176	-0.010
-393.106	-200.000	-0.004	-0.197
-392.092	629.075	-0.068	0.171
-391.077	88.591	0.033	0.036
-390.063	247.394	-0.071	0.119
-389.048	73.951	0.395	-0.411
-388.033	-200.000	0.004	-0.094
-387.019	-109.486	-0.123	0.026
-386.004	-97.755	0.241	0.062
-384.990	-98.122	0.196	-0.050
-383.975	-200.000	-0.025	-0.118
-382.960	-111.366	0.078	0.016
-381.946	-77.357	-0.114	0.039
-380.931	-87.012	-0.481	0.145
-379.917	-43.363	0.372	0.186
-378.902	34.304	-0.260	-0.224
-377.888	-102.603	-0.440	0.104
-376.873	800.000	-0.123	0.524
-375.858	470.004	0.103	-0.229
-374.844	-7.825	-0.125	-0.084
-373.829	-17.463	-0.225	0.140
-372.815	-55.425	-0.299	0.133
-371.800	209.662	0.194	0.302
-370.785	-80.371	-0.116	-0.038
-369.771	-182.893	-0.270	0.005
-368.756	674.349	0.084	0.215
-367.742	152.069	0.145	0.196
-366.727	140.749	-0.173	0.226
-365.712	-156.120	0.200	0.013
-364.698	-86.723	-0.205	-0.062
-363.683	-178.253	-0.017	-0.000
-362.669	-19.740	-0.088	-0.054
-361.654	800.000	-0.042	-0.120
-360.639	-200.000	-0.001	0.290
-359.625	776.888	0.061	0.164
-358.610	-200.000	0.030	0.462
-357.596	24.346	0.152	-0.125
-356.581	-200.000	-0.008	0.120
-355.566	-200.000	0.020	-0.091
-354.552	-200.000	0.017	0.470
-353.537	-120.947	-0.226	-0.038
-352.523	-200.000	-0.005	-0.033
-351.508	800.000	0.096	-0.291
-350.493	87.578	-0.132	0.145
-349.479	66.910	-0.186	0.188
-348.464	800.000	0.059	0.228
-347.450	800.000	-0.058	-0.228
-346.435	29.051	-0.078	-0.066
-345.420	-75.755	-0.180	0.063
-344.406	81.372	0.233	0.249
-343.391	236.293	-0.089	-0.146
-342.377	91.427	0.078	-0.086
-341.362	490.474	-0.031	-0.069
-340.348	800.000	0.060	-0.219
-339.333	-54.783	-0.096	-0.043
-338.318	800.000	-0.092	0.332
-337.304	669.191	-0.071	0.183
-336.289	800.000	-0.068	-0.234
-335.275	-200.000	-0.005	-0.041
-334.260	121.682	0.205	0.253
-333.245	-57.781	-0.192	0.083
-332.231	-138.928	-0.087	-0.009
-331.216	250.765	0.050	-0.083
-330.202	231.279	-0.172	0.279
-329.187	73.174	0.189	0.195
-328.172	781.496	0.011	0.030
-327.158	-93.740	-0.321	-0.088
-326.143	-200.000	-0.008	0.099
-325.129	-44.939	0.183	-0.090
-324.114	800.000	-0.111	0.310
-323.099	133.714	-0.052	-0.066
-322.085	800.000	0.030	0.116
-321.070	240.167	-0.039	-0.064
-320.056	-44.856	-0.307	0.151
-319.041	584.164	0.038	-0.092
-318.026	241.616	0.156	-0.258
-317.012	-96.815	0.258	0.067
-315.997	-84.651	-0.064	0.020
-314.983	100.403	-0.066	-0.075
-313.968	-97.057	0.133	-0.035
-312.953	441.420	0.048	0.104
-311.939	21.576	0.419	-0.337
-310.924	-200.000	0.035	0.237
-309.910	666.990	0.070	-0.179
-308.895	-200.000	0.043	-0.290
-307.880	-29.914	-0.406	-0.228
-306.866	-64.662	0.276	-0.111
-305.851	252.614	0.070	-0.118
-304.837	210.243	0.080	0.125
-303.822	0.247	0.191	-0.134
-302.807	-145.544	0.171	0.015
-301.793	-40.593	0.098	0.050
-300.778	-183.973	-0.397	0.007
-299.764	134.227	0.086	0.110
-298.749	-97.987	0.216	0.055
-297.735	-200.000	0.037	0.164
-296.720	800.000	-0.051	0.169
-295.705	225.809	-0.255	-0.409
-294.691	-96.172	-0.167	0.044
-293.676	-144.465	0.068	0.006
-292.662	-56.391	-0.205	0.090
-291.647	-114.932	0.214	-0.040
-290.632	-93.735	0.096	-0.026
-289.618	0.698	0.202	0.142
-288.603	120.912	-0.113	0.138
-287.589	626.821	0.067	-0.168
-286.574	-51.768	-0.225	-0.104
-285.559	10.198	-0.108	-0.081
-284.545	-57.878	0.091	0.039
-283.530	242.292	0.285	0.470
-282.516	-66.150	-0.165	-0.065
-281.501	42.479	0.194	-0.174
-280.486	-56.862	0.086	0.037
-279.472	35.337	0.168	0.146
-278.457	-200.000	-0.045	-0.232
-277.443	52.675	-0.142	-0.133
-276.428	-106.749	-0.132	-0.029
-275.413	-186.235	0.308	0.004
-274.399	-110.611	0.075	-0.015
-273.384	520.309	-0.096	-0.223
-272.370	-123.380	-0.305	0.048
-271.355	431.990	0.085	-0.181
-270.340	-178.123	0.310	-0.007
-269.326	83.235	-0.060	0.065
-268.311	-46.528	-0.028	0.014
-267.297	367.091	-0.119	-0.238
-266.282	-200.000	0.041	0.359
-265.267	201.154	-0.125	-0.190
-264.253	800.000	0.062	0.239
-263.238	142.554	-0.114	-0.149
-262.224	800.000	-0.116	-0.487
-261.209	-166.953	0.360	0.015
-260.195	467.588	-0.018	0.040
-259.180	-112.598	0.187	0.037
-258.165	-143.400	-0.228	-0.022
-257.151	197.397	0.140	-0.210
-256.136	-51.434	0.121	0.056
-255.122	162.033	0.116	-0.160
-254.107	-200.000	-0.015	-0.102
-253.092	-74.240	-0.328	-0.117
-252.078	198.062	0.083	-0.126
-251.063	84.953	-0.060	-0.065
-250.049	-195.620	-0.150	0.001
-249.034	345.699	0.101	-0.196
-248.019	437.622	-0.072	-0.156
-247.005	-107.389	0.233	0.050
-245.990	102.236	0.183	-0.211
-244.976	187.181	-0.065	0.096
-243.961	-200.000	0.023	-0.321
-242.946	216.473	0.163	0.255
-241.932	217.222	-0.212	-0.333
-240.917	394.305	0.178	-0.364
-239.903	182.833	0.115	0.167
-238.888	-177.182	0.123	-0.003
-237.873	137.032	0.196	-0.252
-236.859	694.934	0.143	-0.371
-235.844	-200.000	-0.027	0.122
-234.830	-200.000	-0.018	0.217
-233.815	-200.000	-0.017	-0.085
-232.800	-189.570	0.160	-0.002
-231.786	25.163	0.235	-0.192
-230.771	-200.000	0.002	-0.114
-229.757	-112.963	0.270	0.053
-228.742	119.147	0.133	0.162
-227.727	-200.000	0.045	-0.297
-226.713	139.797	0.158	-0.205
-225.698	-19.954	0.032	0.019
-224.684	-158.275	0.342	-0.020
-223.669	32.625	-0.099	-0.084
-222.655	54.641	-0.123	0.117
-221.640	800.000	0.067	-0.255
-220.625	800.000	0.025	0.071
-219.611	-140.883	-0.124	-0.013
-218.596	-200.000	0.008	0.190
-217.582	-106.891	-0.253	-0.055
-216.567	-200.000	-0.049	0.392
-215.552	-38.669	-0.086	-0.045
-214.538	800.000	0.088	0.241
-213.523	-200.000	0.013	0.129
-212.509	-85.943	0.093	0.028
-211.494	603.939	0.218	0.535
-210.479	800.000	-0.081	0.344
-209.465	135.390	0.043	0.055
-208.450	107.654	0.173	-0.203
-207.436	269.253	-0.170	-0.293
-206.421	48.061	0.100	-0.092
-205.406	-34.865	0.110	-0.059
-204.392	-200.000	0.010	-0.119
-203.377	233.179	-0.350	0.567
-202.363	800.000	-0.067	-0.203
-201.348	-160.993	0.178	-0.009
-200.333	800.000	-0.053	-0.218
-199.319	165.684	0.121	0.168
-198.304	13.244	-0.023	0.018
-197.290	364.812	0.143	0.283
-196.275	800.000	-0.024	0.099
-195.260	-200.000	0.080	-0.465
-194.246	-82.779	0.119	0.038
-193.231	800.000	0.038	0.129
-192.217	48.098	-0.317	0.292
-191.202	95.376	0.058	-0.065
-190.187	-70.908	-0.177	-0.066
-189.173	87.496	0.097	-0.105
-188.158	-200.000	-0.010	-0.422
-187.144	-200.000	0.015	-0.067
-186.129	-57.913	-0.255	0.110
-185.114	-178.332	0.490	-0.011
-184.100	132.447	0.084	0.106
-183.085	-30.799	0.161	-0.090
-182.071	-200.000	0.005	0.128
-181.056	-77.195	0.165	-0.057
-180.042	-109.503	0.196	-0.041
-179.027	-78.155	-0.423	0.143
-178.012	-121.909	0.170	0.027
-176.998	78.967	0.065	0.069
-175.983	-58.520	-0.366	0.156
-174.969	-75.600	0.278	0.097
-173.954	231.186	-0.122	-0.196
-172.939	95.750	0.136	0.152
-171.925	329.958	0.059	0.112
-170.910	-127.768	-0.097	0.014
-169.896	296.445	-0.119	-0.215
-168.881	234.020	-0.176	-0.285
-167.866	-117.926	0.199	0.035
-166.852	-86.410	0.595	0.180
-165.837	-200.000	0.001	0.033
-164.823	-115.118	-0.412	-0.077
-163.808	-76.116	0.238	0.083
-162.793	16.033	0.260	-0.202
-161.779	158.668	0.063	-0.086
-160.764	156.017	-0.125	-0.169
-159.750	-87.960	0.426	-0.126
-158.735	144.275	0.038	0.050
-157.720	800.000	-0.070	0.199
-156.706	-131.217	-0.217	0.028
-155.691	-200.000	0.007	-0.212
-154.677	-158.212	0.120	0.007
-153.662	113.812	-0.264	-0.315
-152.647	-74.806	0.265	0.093
-151.633	-200.000	-0.004	-0.054
-150.618	-166.296	-0.153	-0.006
-149.604	-44.464	-0.383	-0.188
-148.589	-200.000	0.025	-0.110
-147.574	-8.258	-0.367	-0.243
-146.560	-30.406	0.409	0.228
-145.545	-13.773	0.124	-0.079
-144.531	-200.000	0.004	-0.148
-143.516	-200.000	-0.009	-0.247
-142.502	-179.075	-0.029	0.001
-141.487	53.704	-0.111	0.104
-140.472	67.088	-0.035	-0.035
-139.458	11.105	-0.210	0.157
-138.443	208.761	0.104	0.159
-137.429	-200.000	-0.010	0.140
-136.414	111.820	0.127	-0.150
-135.399	454.357	-0.032	-0.070
-134.385	82.836	-0.134	-0.143
-133.370	-200.000	0.027	0.167
-132.356	800.000	0.090	-0.356
-131.341	-200.000	0.016	-0.169
-130.326	-33.288	-0.227	0.123
-129.312	248.407	-0.227	0.377
-128.297	-6.181	0.199	0.133
-127.283	-200.000	0.059	0.346
-126.268	87.573	0.179	-0.194
-125.253	355.097	-0.140	-0.273
-124.239	-73.882	-0.140	-0.050
-123.224	483.129	-0.139	0.310
-122.210	175.780	0.026	0.037
-121.195	228.720	0.090	-0.143
-120.180	-111.185	0.309	-0.062
-119.166	439.554	-0.153	0.328
-118.151	800.000	-0.029	0.095
-117.137	203.300	-0.119	-0.181
-116.122	-4.303	0.068	0.046
-115.107	193.467	-0.097	-0.144
-114.093	-60.728	0.378	0.157
-113.078	594.460	-0.125	-0.304
-112.064	694.118	0.094	-0.243
-111.049	-131.547	-0.283	0.037
-110.034	-200.000	0.012	-0.497
-109.020	-159.905	0.146	0.008
-108.005	20.142	-0.243	-0.192
-106.991	-162.875	0.169	-0.008
-105.976	59.263	0.096	-0.093
-104.962	-200.000	-0.029	0.141
-103.947	-13.634	0.147	-0.093
-102.932	399.812	-0.097	0.198
-101.918	-200.000	-0.042	0.192
-100.903	654.615	-0.097	0.243
-99.889	-178.107	0.197	-0.005
-98.874	140.109	-0.079	0.102
-97.859	600.745	-0.043	0.105
-96.845	-10.801	0.026	0.017
-95.830	40.050	-0.094	-0.083
-94.816	93.747	0.078	0.086
-93.801	522.350	-0.096	0.221
-92.786	-43.182	-0.215	0.107
-91.772	93.054	0.064	0.071
-90.757	526.971	0.097	0.224
-89.743	-113.209	-0.145	-0.028
-88.728	142.028	-0.193	-0.250
-87.713	122.161	-0.170	-0.208
-86.699	-76.202	0.261	-0.090
-85.684	-87.297	-0.086	0.026
-84.670	9.277	0.204	0.151
-83.655	213.571	-0.078	0.121
-82.640	-200.000	0.004	0.146
-81.626	-200.000	-0.039	-0.358
-80.611	78.534	0.132	-0.138
-79.597	-40.354	0.331	-0.169
-78.582	735.313	0.075	-0.196
-77.567	-200.000	-0.027	-0.301
-76.553	95.220	-0.018	0.020
-75.538	8.684	0.168	-0.124
-74.524	-173.582	-0.075	0.002
-73.509	601.068	0.166	-0.405
-72.494	49.427	0.367	0.338
-71.480	641.774	0.045	-0.111
-70.465	-37.929	-0.191	0.099
-69.451	401.376	-0.149	0.305
-68.436	180.451	-0.090	-0.130
-67.422	93.063	0.138	-0.153
-66.407	22.514	-0.095	0.076
-65.392	74.144	0.147	0.151
-64.378	-93.621	0.322	-0.087
-63.363	-111.866	0.167	0.033
-62.349	-16.431	-0.276	-0.171
-61.334	108.700	-0.832	-0.973
-60.319	180.118	0.377	0.541
-59.305	384.151	-0.575	-1.159
-58.290	73.455	0.918	0.940
-57.276	716.482	0.522	1.354
-56.261	-200.000	113.390	663.883
-55.246	506.583	1478.377	3352.977
-54.232	153.008	2637.745	3528.186
-53.217	105.330	2136.206	2467.404
-52.203	39.639	1593.007	1397.062
-51.188	31.548	1342.230	1128.527
-50.173	28.652	1304.780	1079.985
-49.159	55.552	1360.430	1288.177
-48.144	53.864	1375.076	1291.890
-47.130	31.830	1330.272	1119.978
-46.115	28.366	1313.052	1084.966
-45.100	28.227	1307.964	1079.899
-44.086	28.090	1305.567	1077.072
-43.071	28.057	1302.801	1074.552
-42.057	28.105	1300.876	1073.205
-41.042	28.145	1299.632	1072.368
-40.027	28.104	1297.857	1070.621
-39.013	28.228	1295.799	1069.609
-37.998	28.179	1294.267	1068.012
-36.984	28.161	1292.586	1066.482
-35.969	28.279	1290.274	1065.216
-34.954	28.294	1288.888	1064.118
-33.940	28.290	1288.071	1063.378
-32.925	28.240	1286.801	1061.993
-31.911	28.359	1284.773	1060.971
-30.896	28.370	1283.294	1059.767
-29.881	28.314	1282.643	1058.864
-28.867	28.437	1280.886	1058.081
-27.852	28.365	1279.328	1056.342
-26.838	28.320	1278.279	1055.170
-25.823	28.269	1276.728	1053.558
-24.809	28.289	1275.415	1052.548
-23.794	28.399	1273.540	1051.588
-22.779	28.235	1273.080	1050.224
-21.765	28.381	1271.366	1049.605
-20.750	28.330	1270.135	1048.256
-19.736	28.141	1268.843	1046.071
-18.721	28.264	1267.522	1045.640
-17.706	28.292	1266.645	1045.034
-16.692	28.327	1265.363	1044.139
-15.677	28.185	1264.190	1042.320
-14.663	28.212	1262.965	1041.422
-13.648	28.242	1261.831	1040.615
-12.633	28.168	1260.922	1039.400
-11.619	28.089	1260.245	1038.356
-10.604	28.204	1259.249	1038.143
-9.590	28.176	1258.414	1037.255
-8.575	28.165	1257.460	1036.366
-7.560	28.110	1256.734	1035.415
-6.546	28.212	1255.605	1035.021
-5.531	28.208	1254.495	1034.041
-4.517	28.291	1253.325	1033.506
-3.502	28.251	1253.064	1033.022
-2.487	28.167	1252.162	1031.766
-1.473	27.967	1247.933	1027.117
-0.458	25.800	1231.637	1001.630
0.556	20.553	1212.874	956.389
1.571	15.772	1218.076	933.928
2.586	14.536	1232.941	938.288
3.600	14.298	1220.824	927.659
4.615	10.705	1151.021	855.641
5.629	4.179	1079.269	769.900
6.644	1.170	1060.784	741.939
7.659	0.848	1059.273	739.243
8.673	0.800	1057.785	737.905
9.688	0.904	1056.865	737.706
10.702	1.020	1054.959	736.874
11.717	4.974	1058.928	758.860
12.731	11.937	1067.991	799.371
13.746	16.471	1073.680	825.758
14.761	17.524	1074.563	831.506
15.775	16.781	1072.836	826.473
16.790	15.793	1070.999	820.173
17.804	15.123	1069.549	815.727
18.819	14.792	1068.319	813.106
19.834	14.506	1067.274	810.848
20.848	14.294	1066.595	809.232
21.863	14.046	1065.570	807.176
22.877	13.907	1064.486	805.608
23.892	13.842	1063.967	804.832
24.907	13.862	1063.482	804.488
25.921	13.911	1062.556	803.953
26.936	13.971	1061.504	803.378
27.950	14.047	1060.669	803.044
28.965	13.950	1059.813	801.856
29.980	14.031	1058.021	800.818
30.994	14.176	1056.641	800.399
32.009	14.150	1056.049	799.756
33.023	14.026	1055.445	798.632
34.038	13.969	1054.549	797.609
35.053	14.026	1053.141	796.747
36.067	13.989	1052.292	795.856
37.082	14.039	1051.600	795.505
38.096	13.957	1051.320	794.829
39.111	14.053	1050.037	794.247
40.126	13.998	1049.059	793.177
41.140	13.914	1047.806	791.757
42.155	13.933	1046.742	790.975
43.169	13.861	1045.947	789.959
44.184	13.845	1044.655	788.840
45.199	13.849	1043.661	788.035
46.213	13.974	1042.233	787.482
47.228	13.952	1041.750	786.943
48.242	14.052	1040.201	786.176
49.257	13.894	1039.517	784.844
50.271	13.970	1038.609	784.449
51.286	14.135	1037.427	784.262
52.301	13.995	1036.562	782.881
53.315	13.916	1035.853	781.903
54.330	13.938	1034.326	780.784
55.344	14.021	1033.299	780.329
56.359	13.865	1033.073	779.360
57.374	13.956	1032.050	778.946
58.388	14.014	1030.810	778.211
59.403	13.749	1030.713	776.826
60.417	13.856	1029.547	776.379
61.432	13.808	1028.853	775.566
62.447	13.750	1028.547	774.996
63.461	13.765	1027.302	774.055
64.476	13.706	1026.357	773.001
65.490	13.752	1025.627	772.597
66.505	13.732	1024.668	771.713
67.520	13.743	1024.357	771.461
68.534	13.993	1023.436	771.863
69.549	13.740	1022.917	770.229
70.563	13.956	1021.644	770.202
71.578	13.721	1021.380	768.847
72.593	13.853	1020.043	768.382
73.607	13.713	1019.878	767.545
74.622	13.856	1018.652	767.211
75.636	13.929	1017.806	766.847
76.651	13.688	1017.934	765.763
77.666	13.812	1017.204	765.716
78.680	13.753	1016.423	764.787
79.695	13.848	1015.760	764.660
80.709	13.836	1015.043	763.998
81.724	13.899	1014.254	763.625
82.739	13.810	1013.790	762.797
83.753	13.968	1012.773	762.692
84.768	14.076	1011.735	762.338
85.782	14.039	1010.889	761.465
86.797	13.955	1010.209	760.501
87.812	14.092	1009.017	760.162
88.826	14.001	1008.519	759.303
89.841	14.160	1007.104	758.894
90.855	14.090	1006.419	757.993
91.870	14.165	1005.267	757.402
92.884	14.111	1004.888	756.801
93.899	14.118	1003.954	756.062
94.914	14.124	1003.133	755.407
95.928	14.094	1002.326	754.595
96.943	14.018	1001.122	753.275
97.957	14.029	1000.867	753.071
98.972	14.092	999.809	752.493
99.987	14.206	998.735	752.133
101.001	14.074	997.813	750.775
102.016	14.111	996.667	750.014
103.030	14.070	996.062	749.306
104.045	14.118	994.796	748.504
105.060	14.072	994.327	747.876
106.074	14.011	993.241	746.723
107.089	13.993	992.545	746.050
108.103	13.848	991.764	744.745
109.118	13.939	990.931	744.462
110.133	13.820	990.155	743.283
111.147	13.921	989.318	743.040
112.162	13.978	988.042	742.271
113.176	14.042	987.631	742.180
114.191	14.042	986.809	741.499
115.206	13.941	986.133	740.473
116.220	14.088	985.168	740.340
117.235	13.930	984.312	738.927
118.249	14.026	983.589	738.745
119.264	13.956	982.953	737.892
120.279	13.962	981.754	736.953
121.293	13.967	981.366	736.619
122.308	14.043	980.463	736.210
123.322	13.990	979.387	735.103
124.337	14.061	978.127	734.408
125.352	14.005	976.967	733.224
126.366	13.952	976.072	732.254
127.381	13.947	974.775	731.193
128.395	14.008	974.669	731.319
129.410	13.970	973.294	730.056
130.424	14.051	972.141	729.481
131.439	14.064	971.673	729.122
132.454	14.145	971.117	728.997
133.468	14.081	970.221	727.978
134.483	13.991	969.356	726.873
135.497	14.095	968.585	726.686
136.512	14.063	967.475	725.647
137.527	14.118	966.318	724.954
138.541	14.126	965.944	724.643
139.556	14.018	965.523	723.793
140.570	14.103	964.908	723.640
141.585	14.176	963.765	723.035
142.600	14.086	963.117	722.097
143.614	14.179	961.989	721.588
144.629	14.164	961.249	720.906
145.643	14.257	959.932	720.257
146.658	14.131	959.410	719.255
147.673	14.111	958.651	718.535
148.687	14.300	957.130	718.147
149.702	14.058	957.005	716.947
150.716	14.199	955.684	716.501
151.731	14.180	955.416	716.153
152.746	14.253	954.811	715.952
153.760	14.326	954.171	715.723
154.775	14.357	953.276	715.123
155.789	14.203	953.236	714.366
156.804	14.290	952.243	713.930
157.819	14.261	951.632	713.286
158.833	14.382	950.918	713.206
159.848	14.501	949.313	712.448
160.862	14.252	949.253	711.276
161.877	14.395	947.852	710.774
162.892	14.414	947.119	710.240
163.906	14.228	946.646	709.033
164.921	14.229	945.533	708.140
165.935	14.297	944.524	707.611
166.950	14.356	943.523	707.047
167.964	14.399	942.481	706.389
168.979	14.265	942.024	705.414
169.994	14.378	940.847	704.947
171.008	14.321	940.606	704.467
172.023	14.484	939.749	704.448
173.037	14.392	939.323	703.680
174.052	14.381	938.708	703.111
175.067	14.479	937.590	702.622
176.081	14.488	936.969	702.134
177.096	14.459	936.263	701.422
178.110	14.460	935.642	700.896
179.125	14.458	935.301	700.573
180.140	14.517	934.699	700.305
181.154	14.434	934.668	699.872
182.169	14.678	933.718	700.123
183.183	14.642	933.252	699.561
184.198	14.673	932.057	698.734
185.213	14.582	931.716	698.036
186.227	14.584	930.492	697.064
187.242	14.665	930.111	697.058
188.256	14.699	929.488	696.667
189.271	14.598	928.849	695.707
190.286	14.591	927.929	694.927
191.300	14.450	927.416	693.895
192.315	14.470	926.695	693.377
193.329	14.487	926.448	693.202
194.344	14.414	925.904	692.428
195.359	14.631	924.820	692.460
196.373	14.694	924.286	692.258
197.388	14.797	923.599	692.110
198.402	14.750	923.252	691.593
199.417	14.822	922.351	691.155
200.432	14.743	922.112	690.587
201.446	14.864	921.424	690.511
202.461	14.789	921.144	689.932
203.475	14.813	920.268	689.314
204.490	14.978	919.530	689.379
205.504	14.781	919.038	688.136
206.519	14.719	918.069	687.095
207.534	14.835	917.617	687.175
208.548	14.889	916.662	686.619
209.563	15.064	915.659	686.526
210.577	14.875	915.062	685.243
211.592	14.978	914.570	685.237
212.607	15.053	914.105	685.131
213.621	14.929	913.216	683.898
214.636	14.951	912.639	683.498
215.650	15.010	912.062	683.244
216.665	15.023	911.309	682.673
217.680	15.170	910.514	682.618
218.694	15.126	909.896	681.913
219.709	15.027	909.492	681.147
220.723	15.025	908.438	680.289
221.738	15.051	908.229	680.178
222.753	15.084	906.966	679.305
223.767	15.111	906.631	679.105
224.782	15.107	906.174	678.686
225.796	15.285	905.342	678.726
226.811	15.206	904.743	677.895
227.826	15.293	904.026	677.651
228.840	15.150	903.249	676.429
229.855	15.271	902.263	676.119
230.869	15.203	901.715	675.376
231.884	15.311	901.035	675.243
232.899	15.247	900.546	674.559
233.913	15.170	899.796	673.627
234.928	15.035	899.272	672.631
235.942	15.287	898.325	672.877
236.957	15.207	898.264	672.451
237.972	15.142	897.479	671.544
238.986	15.100	897.146	671.063
240.001	15.264	896.303	671.033
241.015	15.396	895.503	670.901
242.030	15.206	895.256	669.897
243.045	15.297	894.471	669.616
244.059	15.334	893.682	669.112
245.074	15.450	893.201	669.155
246.088	15.383	892.187	668.071
247.103	15.352	891.618	667.461
248.117	15.434	891.334	667.513
249.132	15.517	890.873	667.440
250.147	15.610	889.810	666.952
251.161	15.650	889.318	666.686
252.176	15.555	888.653	665.751
253.190	15.546	888.462	665.511
254.205	15.591	887.681	665.048
255.220	15.718	887.083	665.042
256.234	15.635	886.105	663.922
257.249	15.755	885.140	663.616
258.263	15.712	884.689	663.050
259.278	15.740	883.400	662.133
260.293	15.805	883.393	662.327
261.307	15.762	882.892	661.722
262.322	15.867	882.271	661.612
263.336	15.930	881.380	661.133
264.351	15.951	880.598	660.570
265.366	15.976	880.156	660.277
266.380	15.990	879.443	659.737
267.395	16.005	878.879	659.317
268.409	16.064	877.833	658.703
269.424	15.963	877.395	657.923
270.439	15.936	876.575	657.145
271.453	16.008	875.966	656.911
272.468	15.826	875.823	656.036
273.482	16.120	874.671	656.260
274.497	16.049	874.199	655.570
275.512	15.913	873.849	654.721
276.526	16.105	873.739	655.325
277.541	16.080	872.350	654.128
278.555	16.022	872.154	653.699
279.570	16.078	871.275	653.201
280.585	16.139	870.645	652.906
281.599	16.113	869.710	652.048
282.614	16.235	869.368	652.204
283.628	16.045	868.866	651.038
284.643	16.174	868.256	651.018
285.657	16.074	867.844	650.268
286.672	16.275	866.808	650.209
287.687	16.080	866.259	648.986
288.701	16.188	865.776	648.984
289.716	16.390	865.060	649.165
290.730	16.312	864.531	648.413
291.745	16.317	863.830	647.850
292.760	16.298	863.237	647.275
293.774	16.286	862.932	646.940
294.789	16.244	862.136	646.126
295.803	16.270	861.342	645.575
296.818	16.189	860.576	644.634
297.833	16.310	860.123	644.698
298.847	16.392	859.494	644.482
299.862	16.459	858.669	644.063
300.876	16.400	858.519	643.669
301.891	16.377	857.909	643.067
302.906	16.488	857.328	642.997
303.920	16.397	856.387	641.886
304.935	16.483	856.159	641.986
305.949	16.572	855.098	641.471
306.964	16.467	854.765	640.769
307.979	16.538	854.434	640.731
308.993	16.591	853.634	640.275
310.008	16.657	852.866	639.893
311.022	16.516	852.715	639.190
312.037	16.614	851.887	638.884
313.052	16.546	851.320	638.145
314.066	16.616	850.342	637.620
315.081	16.698	850.082	637.678
316.095	16.550	849.757	636.819
317.110	16.604	849.004	636.400
318.125	16.610	848.628	636.084
319.139	16.747	847.976	636.055
320.154	16.720	847.592	635.609
321.168	16.612	847.261	634.899
322.183	16.622	846.607	634.391
323.197	16.822	845.829	634.500
324.212	16.744	845.532	633.931
325.227	16.643	845.008	633.102
326.241	16.787	844.104	632.908
327.256	16.678	843.730	632.164
328.270	16.731	843.363	632.030
329.285	16.653	842.900	631.338
330.300	16.735	841.772	630.743
331.314	16.768	841.550	630.642
332.329	16.747	841.306	630.326
333.343	16.830	840.564	630.022
334.358	16.754	840.551	629.674
335.373	16.816	840.050	629.474
336.387	16.770	839.748	629.023
337.402	16.918	839.238	629.135
338.416	16.821	838.773	628.369
339.431	17.024	838.191	628.630
340.446	17.051	837.763	628.351
341.460	16.980	837.762	628.035
342.475	17.045	837.199	627.795
343.489	17.158	836.722	627.801
344.504	17.215	835.953	627.379
345.519	17.168	835.851	627.072
346.533	17.233	835.004	626.622
347.548	17.180	834.741	626.172
348.562	17.120	833.978	625.324
349.577	17.108	833.591	624.937
350.592	17.170	832.991	624.659
351.606	17.246	832.101	624.216
352.621	17.267	831.415	623.723
353.635	17.128	831.096	622.917
354.650	17.156	830.483	622.506
355.665	17.132	829.607	621.705
356.679	17.158	828.921	621.231
357.694	17.159	828.528	620.885
358.708	17.199	827.921	620.524
359.723	17.185	827.447	620.061
360.738	17.329	826.558	619.864
361.752	17.368	826.307	619.763
362.767	17.427	825.786	619.535
363.781	17.408	825.046	618.853
364.796	17.462	824.568	618.638
365.810	17.342	824.167	617.844
366.825	17.492	823.871	618.115
367.840	17.578	823.141	617.822
368.854	17.411	823.023	617.074
369.869	17.513	822.616	617.085
370.883	17.622	821.649	616.698
371.898	17.352	822.271	616.133
372.913	17.529	821.528	616.163
373.927	17.508	820.812	615.496
374.942	17.695	820.069	615.559
375.956	17.805	819.959	615.817
376.971	17.774	819.251	615.122
377.986	17.713	818.899	614.583
379.000	17.654	818.527	614.035
380.015	17.692	818.031	613.747
381.029	17.722	817.400	613.327
382.044	17.869	816.594	613.197
383.059	17.906	815.952	612.794
384.073	17.692	815.548	611.666
385.088	17.835	815.146	611.823
386.102	17.823	814.579	611.302
387.117	17.731	814.070	610.537
388.132	17.706	813.516	609.975
389.146	17.915	812.572	609.960
390.161	17.830	812.604	609.628
391.175	17.869	812.328	609.508
392.190	17.942	811.476	609.075
393.205	17.774	811.011	608.073
394.219	17.868	810.908	608.277
395.234	17.833	810.678	607.923
396.248	17.862	810.125	607.561
397.263	17.746	809.596	606.697
398.278	17.936	808.814	606.733
399.292	17.834	808.822	606.321
400.307	17.766	808.437	605.738
401.321	17.910	807.747	605.679
402.336	17.969	807.164	605.398
403.350	17.919	806.701	604.819
404.365	17.963	806.404	604.699
405.380	18.019	805.844	604.422
406.394	18.054	805.167	603.985
407.409	18.195	804.695	604.075
408.423	18.079	804.721	603.632
409.438	17.953	804.787	603.183
410.453	18.135	803.734	602.983
411.467	18.171	803.257	602.699
412.482	18.086	803.112	602.237
413.496	18.118	802.657	601.956
414.511	18.310	802.213	602.245
415.526	18.307	801.519	601.659
416.540	18.159	801.008	600.703
417.555	18.248	800.609	600.665
418.569	18.288	800.234	600.468
419.584	18.263	799.514	599.788
420.599	18.399	799.085	599.889
421.613	114.084	1295.180	1480.533
422.628	98.395	1367.421	1480.647
