DTS Sentinel unit serial number:	SN413079Multiplexer serial number:	ORYXHardware model number:	OX4-SRSoftware version number:	ORYX F/W v4.00 Oryx Data Collector v3.7.2.0data status	okinstallation	princeton_trtdifferential loss correction	single-endedforward channel	channel 1reverse channel	N/Adate	2019/09/18time	03:50:35forward acquisition time	60.00reverse acquisition time	0.00gamma	496.2192k internal	0.2339k external	0.2339temperature offset calibration	0.9977default loss term (dB/km)	0.3790temperature slope calibration	1.0000multiplexer offset coefficient	1.0000multiplexer slope coefficient	1.0000fibre end	0.00T internal ref (°C)	23.02T ext. ref 1 (°C)	0.17T ext. ref 2 (°C)	18.06length (m)	temperature (°C)	Stokes	anti-Stokes-747.200	800.000	-0.070	0.262
-746.185	-170.281	-0.375	0.013
-745.171	757.826	-0.111	0.300
-744.156	-0.437	-0.274	-0.195
-743.142	-118.202	-0.367	-0.066
-742.127	800.000	-0.131	0.380
-741.112	9.640	0.132	0.101
-740.098	-200.000	-0.032	0.165
-739.083	-69.973	-0.205	-0.078
-738.069	-106.524	-0.069	0.015
-737.054	-55.296	0.234	0.106
-736.039	117.179	-0.205	0.253
-735.025	325.664	0.034	0.066
-734.010	-93.498	0.120	0.033
-732.996	677.774	-0.050	0.130
-731.981	47.699	0.456	0.426
-730.966	-138.850	0.087	-0.009
-729.952	-2.865	0.099	0.069
-728.937	-122.383	-0.342	0.056
-727.923	-47.496	0.372	-0.181
-726.908	-89.822	0.034	0.010
-725.894	-78.540	-0.175	0.060
-724.879	-161.133	-0.349	-0.018
-723.864	-195.326	-0.015	-0.000
-722.850	-0.260	0.039	-0.028
-721.835	124.360	-0.164	-0.206
-720.821	-38.918	-0.264	-0.139
-719.806	-200.000	-0.009	-0.374
-718.791	-29.136	-0.330	0.190
-717.777	-0.509	-0.105	0.074
-716.762	178.834	-0.057	-0.083
-715.748	49.538	0.217	0.204
-714.733	301.779	-0.107	0.198
-713.718	128.008	0.069	-0.088
-712.704	194.460	-0.031	-0.047
-711.689	-91.499	0.096	0.028
-710.675	221.204	-0.180	0.289
-709.660	22.101	0.213	-0.174
-708.645	-37.697	-0.152	0.081
-707.631	-200.000	-0.029	0.255
-706.616	433.567	-0.054	-0.117
-705.602	158.867	-0.007	0.009
-704.587	-200.000	0.042	-0.279
-703.572	-90.984	-0.061	0.018
-702.558	-108.722	-0.269	0.058
-701.543	-200.000	-0.043	0.246
-700.529	-90.235	-0.115	-0.034
-699.514	-200.000	-0.000	0.314
-698.499	-200.000	0.034	0.373
-697.485	418.315	-0.226	-0.484
-696.470	242.144	-0.189	-0.316
-695.456	800.000	0.093	-0.292
-694.441	46.553	-0.075	0.070
-693.426	2.486	0.126	0.091
-692.412	-200.000	0.007	0.144
-691.397	365.629	0.078	0.156
-690.383	124.239	-0.017	0.022
-689.368	-200.000	-0.007	0.042
-688.354	128.947	0.040	-0.051
-687.339	-4.616	0.213	0.147
-686.324	-74.946	-0.375	0.134
-685.310	89.588	-0.020	-0.023
-684.295	-200.000	-0.010	0.273
-683.281	-74.525	-0.178	-0.064
-682.266	-7.989	-0.132	0.089
-681.251	-200.000	-0.021	0.236
-680.237	800.000	-0.040	-0.173
-679.222	-143.454	-0.154	0.015
-678.208	-200.000	-0.065	0.398
-677.193	205.999	-0.183	-0.285
-676.178	-89.659	-0.087	0.026
-675.164	-200.000	0.000	0.089
-674.149	-139.025	-0.274	-0.030
-673.135	-22.469	0.196	0.119
-672.120	-200.000	-0.076	-0.546
-671.105	165.303	-0.154	-0.218
-670.091	-200.000	-0.024	-0.323
-669.076	317.276	0.195	0.368
-668.062	288.725	0.206	0.373
-667.047	10.581	-0.347	-0.265
-666.032	502.548	0.155	0.359
-665.018	112.394	0.264	-0.319
-664.003	362.626	0.141	-0.283
-662.989	-19.178	0.234	0.145
-661.974	240.919	0.040	-0.067
-660.959	800.000	-0.050	0.166
-659.945	75.562	0.040	0.043
-658.930	36.685	-0.289	-0.255
-657.916	800.000	0.051	-0.206
-656.901	-19.815	0.124	-0.077
-655.886	-113.395	-0.240	-0.047
-654.872	17.687	-0.248	-0.197
-653.857	-56.170	-0.272	-0.121
-652.843	-1.136	-0.224	-0.158
-651.828	15.616	-0.195	-0.153
-650.814	-84.413	0.118	0.037
-649.799	800.000	0.051	0.186
-648.784	48.060	0.163	-0.152
-647.770	-84.210	-0.165	-0.052
-646.755	800.000	-0.013	0.054
-645.741	-90.380	-0.305	-0.088
-644.726	-173.909	0.200	-0.006
-643.711	-136.223	-0.164	0.019
-642.697	-200.000	0.020	-0.127
-641.682	-132.144	0.162	-0.021
-640.668	62.162	0.187	-0.186
-639.653	-200.000	0.031	-0.142
-638.638	-112.232	-0.230	-0.046
-637.624	800.000	0.107	-0.407
-636.609	-23.058	-0.351	0.211
-635.595	-200.000	-0.084	-0.372
-634.580	-156.423	0.327	0.020
-633.565	-200.000	-0.036	-0.295
-632.551	140.494	0.059	-0.077
-631.536	216.006	-0.018	0.028
-630.522	-86.870	-0.185	-0.056
-629.507	800.000	-0.058	-0.168
-628.492	-200.000	-0.096	-0.439
-627.478	-121.354	0.091	-0.015
-626.463	-51.569	-0.051	-0.024
-625.449	-118.921	-0.044	-0.008
-624.434	-131.247	0.093	0.012
-623.419	478.263	0.134	-0.303
-622.405	-105.229	0.090	-0.021
-621.390	-36.164	-0.125	0.067
-620.376	231.720	0.138	-0.227
-619.361	-200.000	0.001	-0.056
-618.346	308.196	-0.178	-0.331
-617.332	-163.704	0.257	0.012
-616.317	108.548	-0.271	-0.323
-615.303	135.340	0.037	-0.048
-614.288	280.044	0.117	-0.209
-613.273	-32.775	0.174	0.096
-612.259	-33.325	-0.330	-0.182
-611.244	3.807	0.168	0.122
-610.230	271.611	-0.068	0.120
-609.215	-35.020	0.074	-0.040
-608.201	160.714	-0.066	0.091
-607.186	-59.840	-0.061	0.026
-606.171	800.000	-0.035	0.151
-605.157	-200.000	0.072	0.350
-604.142	-134.570	-0.283	-0.034
-603.128	101.947	0.099	0.115
-602.113	-55.817	0.210	0.093
-601.098	310.917	-0.187	0.350
-600.084	-152.771	-0.256	0.018
-599.069	-153.589	0.058	-0.004
-598.055	800.000	0.095	0.296
-597.040	59.131	-0.158	0.155
-596.025	-200.000	0.003	-0.059
-595.011	753.175	0.183	0.494
-593.996	75.202	0.078	0.082
-592.982	123.324	-0.124	0.155
-591.967	800.000	-0.043	0.143
-590.952	190.844	-0.015	-0.023
-589.938	-69.023	-0.280	0.108
-588.923	-2.381	-0.467	-0.327
-587.909	-200.000	-0.034	-0.276
-586.894	-12.733	-0.120	-0.078
-585.879	214.298	-0.086	0.136
-584.865	717.131	-0.237	0.627
-583.850	153.531	-0.206	0.282
-582.836	-200.000	0.001	-0.060
-581.821	-46.211	0.207	0.101
-580.806	-174.949	-0.031	-0.001
-579.792	-46.734	0.176	-0.086
-578.777	-129.169	-0.293	-0.041
-577.763	-40.086	-0.207	0.107
-576.748	40.539	-0.098	0.088
-575.733	-161.492	0.104	-0.005
-574.719	-200.000	-0.035	-0.372
-573.704	-107.466	-0.098	-0.021
-572.690	706.205	0.024	0.063
-571.675	37.386	0.099	0.087
-570.661	-200.000	-0.041	0.233
-569.646	-14.883	0.043	-0.028
-568.631	684.699	-0.028	-0.073
-567.617	-140.217	0.129	-0.013
-566.602	-102.286	0.295	-0.071
-565.588	226.254	-0.110	-0.178
-564.573	209.197	0.114	-0.177
-563.558	-90.867	0.035	-0.010
-562.544	9.731	-0.363	0.274
-561.529	3.905	0.070	-0.051
-560.515	-12.987	-0.166	-0.108
-559.500	132.012	0.118	-0.152
-558.485	44.013	0.291	-0.265
-557.471	-200.000	0.008	0.122
-556.456	186.677	0.113	-0.168
-555.442	553.818	-0.013	0.030
-554.427	800.000	-0.069	0.249
-553.412	-200.000	0.032	-0.143
-552.398	-167.220	0.434	-0.017
-551.383	239.609	-0.064	-0.106
-550.369	-65.484	-0.361	0.144
-549.354	-74.000	-0.168	0.061
-548.339	-54.487	-0.215	0.097
-547.325	-200.000	0.009	0.243
-546.310	-149.801	-0.301	0.023
-545.296	-131.876	-0.126	-0.016
-544.281	-8.854	0.079	-0.053
-543.266	114.119	0.032	0.039
-542.252	-95.540	0.229	0.061
-541.237	-66.498	0.225	-0.089
-540.223	-82.419	0.376	0.122
-539.208	-76.307	-0.231	0.081
-538.193	-50.922	0.094	-0.044
-537.179	43.491	-0.036	-0.033
-536.164	230.113	-0.126	0.205
-535.150	-200.000	0.020	0.090
-534.135	411.859	0.147	0.310
-533.121	800.000	-0.040	-0.121
-532.106	-89.443	-0.152	-0.045
-531.091	800.000	-0.041	-0.152
-530.077	-108.526	-0.185	0.040
-529.062	800.000	-0.073	-0.220
-528.048	-200.000	0.007	-0.144
-527.033	41.552	-0.159	-0.144
-526.018	-200.000	-0.000	-0.133
-525.004	-3.642	0.166	0.115
-523.989	-114.355	0.197	-0.038
-522.975	39.202	0.252	0.224
-521.960	-200.000	-0.018	-0.131
-520.945	-79.894	-0.032	-0.011
-519.931	199.924	0.126	0.193
-518.916	739.448	-0.068	-0.182
-517.902	-200.000	-0.018	0.111
-516.887	655.017	0.089	0.227
-515.872	261.860	0.102	-0.175
-514.858	-91.363	-0.136	-0.039
-513.843	-134.552	-0.072	-0.009
-512.829	800.000	-0.067	-0.185
-511.814	-124.208	-0.221	-0.034
-510.799	250.508	0.241	0.407
-509.785	-200.000	0.004	0.178
-508.770	596.175	-0.096	-0.236
-507.756	67.803	0.114	0.115
-506.741	100.732	-0.095	0.109
-505.726	-70.854	-0.438	0.164
-504.712	-131.158	0.111	-0.015
-503.697	-63.069	0.143	-0.059
-502.683	47.373	0.257	-0.238
-501.668	538.933	-0.124	-0.294
-500.653	-113.425	0.094	-0.018
-499.639	-114.830	0.219	-0.042
-498.624	800.000	0.046	0.133
-497.610	71.389	0.263	-0.271
-496.595	331.628	0.104	-0.199
-495.581	-36.292	0.188	0.101
-494.566	-200.000	0.029	-0.128
-493.551	-200.000	-0.002	0.207
-492.537	800.000	-0.068	-0.202
-491.522	800.000	0.085	0.240
-490.508	-200.000	0.030	0.391
-489.493	440.700	0.052	0.113
-488.478	-144.493	-0.364	0.033
-487.464	20.346	-0.380	0.305
-486.449	-200.000	-0.003	-0.036
-485.435	387.765	0.091	-0.188
-484.420	-200.000	0.076	0.477
-483.405	76.152	0.213	-0.224
-482.391	-53.443	0.171	-0.078
-481.376	511.341	-0.114	-0.263
-480.362	-101.166	0.204	-0.050
-479.347	-200.000	0.007	0.111
-478.332	430.399	-0.096	-0.207
-477.318	-14.329	0.260	-0.166
-476.303	8.392	0.238	0.178
-475.289	472.433	0.116	0.260
-474.274	9.215	0.134	-0.100
-473.259	-200.000	-0.048	-0.295
-472.245	-200.000	-0.038	-0.454
-471.230	108.948	-0.142	-0.168
-470.216	127.934	0.171	-0.216
-469.201	133.675	0.194	-0.250
-468.186	-200.000	0.001	0.011
-467.172	-161.276	0.527	-0.027
-466.157	574.886	-0.046	0.112
-465.143	-50.026	0.069	0.033
-464.128	40.092	-0.057	0.051
-463.113	-80.555	-0.149	0.049
-462.099	217.518	0.070	-0.111
-461.084	-66.092	0.039	-0.016
-460.070	-166.186	-0.172	-0.007
-459.055	-48.414	-0.135	0.065
-458.040	136.439	-0.039	0.051
-457.026	98.810	-0.225	0.258
-456.011	-70.815	-0.080	-0.030
-454.997	37.227	0.260	-0.228
-453.982	-200.000	0.006	0.318
-452.968	82.276	0.324	-0.348
-451.953	800.000	-0.067	0.289
-450.938	-13.742	0.393	-0.252
-449.924	142.392	-0.151	-0.199
-448.909	-200.000	0.039	0.276
-447.895	-45.102	0.178	-0.088
-446.880	-137.627	-0.193	-0.022
-445.865	-45.806	-0.275	0.135
-444.851	-2.301	-0.380	-0.264
-443.836	411.966	0.107	0.225
-442.822	-53.202	-0.151	0.069
-441.807	800.000	0.022	-0.073
-440.792	-116.969	0.121	0.022
-439.778	800.000	0.063	0.202
-438.763	168.712	-0.110	-0.156
-437.749	428.176	0.175	-0.375
-436.734	-200.000	-0.076	0.332
-435.719	-95.973	-0.298	0.079
-434.705	-200.000	0.007	-0.060
-433.690	-200.000	-0.008	0.408
-432.676	-200.000	-0.006	-0.044
-431.661	-128.635	0.126	0.018
-430.646	-56.883	-0.195	0.085
-429.632	122.978	0.074	0.092
-428.617	800.000	-0.050	0.141
-427.603	-200.000	0.048	0.291
-426.588	-72.325	-0.136	-0.050
-425.573	-83.677	-0.356	-0.113
-424.559	45.758	0.131	-0.119
-423.544	-96.782	-0.159	0.041
-422.530	-22.692	0.193	0.116
-421.515	-3.353	-0.347	0.239
-420.500	287.734	0.136	0.243
-419.486	65.797	0.061	-0.061
-418.471	634.141	0.041	0.104
-417.457	217.556	0.107	-0.169
-416.442	-44.248	0.120	0.059
-415.428	40.121	-0.298	0.265
-414.413	94.334	-0.163	0.183
-413.398	-200.000	0.030	-0.162
-412.384	-200.000	0.037	-0.245
-411.369	-200.000	-0.048	-0.227
-410.355	86.191	-0.134	0.146
-409.340	-6.099	-0.343	-0.232
-408.325	149.565	0.095	-0.127
-407.311	144.422	-0.060	0.079
-406.296	270.034	-0.110	0.191
-405.282	800.000	-0.052	0.207
-404.267	220.783	0.164	-0.261
-403.252	800.000	0.047	0.149
-402.238	800.000	-0.039	0.138
-401.223	-110.049	-0.262	-0.054
-400.209	-70.779	-0.227	0.085
-399.194	-135.971	0.161	0.019
-398.179	474.204	0.096	-0.214
-397.165	-87.995	0.162	-0.048
-396.150	-200.000	-0.043	0.332
-395.136	-200.000	0.042	0.215
-394.121	-200.000	0.049	-0.220
-393.106	800.000	-0.120	0.349
-392.092	-7.997	-0.444	0.297
-391.077	-48.842	0.153	-0.073
-390.063	-121.904	0.086	-0.014
-389.048	139.278	-0.126	-0.164
-388.033	-128.425	0.265	0.037
-387.019	-115.512	0.296	-0.055
-386.004	-86.288	-0.116	-0.035
-384.990	-38.468	-0.312	-0.163
-383.975	-33.691	0.265	0.144
-382.960	-126.277	0.245	0.036
-381.946	-56.366	-0.146	0.064
-380.931	800.000	-0.047	-0.185
-379.917	-200.000	0.047	0.259
-378.902	-200.000	-0.029	0.173
-377.888	136.180	0.195	-0.252
-376.873	36.199	0.194	-0.169
-375.858	-124.874	-0.049	-0.007
-374.844	28.242	0.201	0.168
-373.829	54.708	-0.357	0.340
-372.815	416.784	0.076	-0.160
-371.800	135.688	-0.053	-0.069
-370.785	-109.095	0.116	-0.024
-369.771	-61.867	-0.298	-0.123
-368.756	-200.000	-0.041	-0.256
-367.742	-23.869	0.142	0.084
-366.727	-41.612	-0.300	0.153
-365.712	-200.000	0.024	-0.356
-364.698	-200.000	0.075	-0.343
-363.683	-200.000	-0.037	-0.330
-362.669	471.325	-0.104	-0.231
-361.654	409.578	-0.137	-0.287
-360.639	205.954	0.028	-0.043
-359.625	-82.657	-0.109	0.035
-358.610	-200.000	-0.011	0.160
-357.596	-58.781	0.176	-0.075
-356.581	162.120	0.294	-0.407
-355.566	199.144	-0.155	0.235
-354.552	-81.646	-0.145	-0.047
-353.537	506.011	-0.182	-0.416
-352.523	84.026	-0.169	0.182
-351.508	187.560	0.227	0.334
-350.493	19.938	-0.083	-0.066
-349.479	-200.000	0.004	0.383
-348.464	-131.201	-0.052	-0.007
-347.450	-92.604	-0.378	0.105
-346.435	-200.000	0.014	-0.059
-345.420	800.000	0.082	0.350
-344.406	102.860	0.220	0.254
-343.391	-115.618	0.217	-0.040
-342.377	800.000	-0.093	-0.369
-341.362	-62.944	0.267	0.109
-340.348	-200.000	0.009	-0.197
-339.333	259.620	-0.085	-0.145
-338.318	-61.026	0.037	-0.016
-337.304	-41.075	-0.203	-0.103
-336.289	283.103	0.158	0.280
-335.275	-116.780	0.167	-0.030
-334.260	235.781	0.153	-0.250
-333.245	800.000	0.033	-0.099
-332.231	-200.000	-0.042	-0.293
-331.216	10.657	0.149	-0.112
-330.202	-40.376	0.076	0.039
-329.187	-19.677	-0.294	-0.180
-328.172	554.057	-0.076	-0.181
-327.158	-82.947	0.235	0.075
-326.143	-22.273	-0.570	0.341
-325.129	-200.000	0.039	0.206
-324.114	-70.155	0.267	-0.100
-323.099	374.351	-0.050	-0.100
-322.085	800.000	0.051	-0.203
-321.070	-5.877	0.155	-0.104
-320.056	-74.123	0.459	0.164
-319.041	-25.081	-0.080	0.047
-318.026	-200.000	-0.006	0.410
-317.012	275.990	0.066	-0.116
-315.997	95.536	0.043	-0.049
-314.983	-81.856	-0.329	0.106
-313.968	0.502	0.017	0.012
-312.953	476.397	-0.119	0.265
-311.939	-200.000	0.051	0.355
-310.924	-200.000	-0.053	-0.312
-309.910	42.898	0.178	-0.160
-308.895	-94.880	0.138	-0.037
-307.880	-127.492	-0.118	0.017
-306.866	-60.739	0.237	0.099
-305.851	91.387	-0.250	0.276
-304.837	-20.914	0.226	0.136
-303.822	-200.000	-0.053	-0.251
-302.807	65.877	-0.027	-0.027
-301.793	332.529	-0.027	-0.052
-300.778	-63.189	-0.147	0.060
-299.764	11.588	0.226	-0.171
-298.749	-200.000	0.041	-0.307
-297.735	-93.195	-0.226	0.062
-296.720	-178.290	0.168	0.004
-295.705	132.165	-0.256	-0.325
-294.691	67.408	-0.049	-0.050
-293.676	-200.000	-0.063	0.331
-292.662	64.400	-0.123	-0.122
-291.647	176.504	0.202	-0.290
-290.632	126.815	-0.227	0.284
-289.618	253.783	-0.102	-0.172
-288.603	-103.819	0.344	0.079
-287.589	-200.000	0.041	0.464
-286.574	-190.529	0.379	0.004
-285.559	-38.464	-0.169	0.088
-284.545	363.002	0.117	0.231
-283.530	64.217	0.227	0.225
-282.516	800.000	0.065	0.223
-281.501	46.177	0.500	0.456
-280.486	-138.600	-0.520	0.056
-279.472	1.081	0.268	0.189
-278.457	-72.971	0.055	0.020
-277.443	397.465	0.090	0.186
-276.428	800.000	0.081	0.224
-275.413	23.811	0.334	0.271
-274.399	-200.000	-0.012	0.256
-273.384	-50.325	0.119	0.056
-272.370	-149.892	-0.337	-0.026
-271.355	-81.550	0.008	0.003
-270.340	146.848	0.129	-0.171
-269.326	144.699	-0.174	-0.228
-268.311	800.000	0.075	-0.226
-267.297	-200.000	-0.065	-0.293
-266.282	-31.131	0.258	0.143
-265.267	118.810	-0.091	-0.111
-264.253	-159.010	-0.219	0.012
-263.238	-101.083	0.085	0.021
-262.224	-0.624	-0.328	-0.229
-261.209	406.671	0.203	0.421
-260.195	-53.223	-0.275	-0.124
-259.180	-200.000	0.016	-0.094
-258.165	-176.204	0.126	-0.003
-257.151	90.031	-0.292	-0.321
-256.136	-174.330	-0.335	0.010
-255.122	606.740	-0.065	0.159
-254.107	-37.575	-0.250	-0.131
-253.092	65.475	0.140	0.139
-252.078	-83.422	0.193	-0.061
-251.063	-200.000	-0.045	-0.251
-250.049	-121.596	-0.421	0.069
-249.034	97.445	0.077	-0.087
-248.019	15.194	0.255	0.196
-247.005	-16.104	-0.229	0.143
-245.990	-43.241	-0.248	-0.124
-244.976	-4.872	-0.125	0.085
-243.961	-119.571	-0.111	-0.019
-242.946	242.348	-0.143	0.236
-241.932	-200.000	-0.027	-0.188
-240.917	-200.000	-0.016	0.092
-239.903	-140.498	-0.337	0.034
-238.888	-17.053	0.293	-0.182
-237.873	-66.109	0.289	-0.113
-236.859	-200.000	-0.003	-0.126
-235.844	-180.412	0.480	0.010
-234.830	-120.360	0.210	-0.035
-233.815	1.782	0.134	-0.095
-232.800	-0.501	-0.082	-0.057
-231.786	26.922	0.124	-0.102
-230.771	-38.022	0.403	-0.210
-229.757	-200.000	0.009	-0.083
-228.742	800.000	-0.096	0.289
-227.727	168.056	-0.153	-0.214
-226.713	-200.000	0.013	0.131
-225.698	152.339	0.256	-0.343
-224.684	259.931	-0.100	-0.171
-223.669	-65.646	-0.313	0.123
-222.655	167.500	-0.096	0.134
-221.640	-200.000	0.037	0.211
-220.625	-88.699	0.200	-0.058
-219.611	35.697	-0.326	0.281
-218.596	372.435	0.085	0.169
-217.582	748.341	0.097	0.257
-216.567	272.897	-0.199	-0.346
-215.552	-20.253	0.102	-0.061
-214.538	270.907	0.097	-0.167
-213.523	-200.000	-0.021	0.213
-212.509	-200.000	0.047	-0.223
-211.494	275.544	-0.029	0.051
-210.479	-200.000	0.016	0.116
-209.465	-68.186	0.428	0.164
-208.450	-84.785	-0.120	-0.037
-207.436	207.201	-0.118	0.181
-206.421	-200.000	-0.077	0.425
-205.406	-200.000	0.051	0.258
-204.392	800.000	-0.063	0.242
-203.377	291.907	-0.125	-0.224
-202.363	-142.805	0.261	-0.025
-201.348	-200.000	0.016	0.227
-200.333	-16.741	-0.310	-0.193
-199.319	-55.432	-0.130	-0.057
-198.304	121.011	-0.085	0.104
-197.290	800.000	-0.035	-0.132
-196.275	-200.000	-0.047	-0.218
-195.260	88.517	0.132	-0.144
-194.246	193.812	0.050	0.074
-193.231	7.766	-0.111	0.082
-192.217	-11.542	-0.108	0.070
-191.202	524.333	0.047	-0.108
-190.187	241.762	-0.080	-0.131
-189.173	405.471	0.007	0.014
-188.158	531.025	-0.101	0.234
-187.144	4.883	-0.231	0.167
-186.129	-200.000	0.003	-0.105
-185.114	-200.000	-0.015	-0.229
-184.100	-114.510	-0.152	0.029
-183.085	-68.440	0.177	-0.067
-182.071	4.891	0.135	0.098
-181.056	800.000	0.150	-0.473
-180.042	-192.115	-0.272	0.003
-179.027	42.395	0.178	0.159
-178.012	209.010	0.178	0.273
-176.998	-183.773	-0.162	0.003
-175.983	-0.917	0.046	-0.032
-174.969	800.000	0.007	-0.025
-173.954	362.033	-0.097	0.191
-172.939	79.871	0.187	-0.197
-171.925	485.882	0.021	0.046
-170.910	800.000	0.064	0.198
-169.896	800.000	-0.001	0.006
-168.881	-45.877	-0.430	-0.208
-167.866	800.000	0.096	0.270
-166.852	5.678	-0.065	0.047
-165.837	20.637	0.069	-0.055
-164.823	-167.328	0.136	0.005
-163.808	-127.478	0.204	-0.029
-162.793	-200.000	0.048	-0.256
-161.779	-200.000	-0.076	0.329
-160.764	-200.000	-0.005	-0.062
-159.750	-129.259	0.207	0.028
-158.735	-39.111	0.321	-0.166
-157.720	800.000	0.058	-0.159
-156.706	-200.000	0.021	0.323
-155.691	220.833	0.227	-0.358
-154.677	86.880	0.155	-0.168
-153.662	-105.781	-0.119	-0.026
-152.647	-52.242	0.367	-0.167
-151.633	11.015	-0.112	-0.084
-150.618	-200.000	0.003	-0.063
-149.604	-172.540	-0.071	-0.002
-148.589	-200.000	0.075	0.323
-147.574	-139.463	-0.233	-0.024
-146.560	-200.000	-0.004	-0.061
-145.545	800.000	-0.018	0.074
-144.531	-100.466	0.171	0.041
-143.516	-1.777	-0.085	0.059
-142.502	-169.930	-0.114	-0.004
-141.487	62.421	0.485	0.475
-140.472	-106.835	-0.269	0.058
-139.458	-53.200	0.079	-0.036
-138.443	495.897	-0.063	-0.141
-137.429	53.945	-0.128	0.120
-136.414	-200.000	0.037	-0.191
-135.399	72.805	-0.169	0.173
-134.385	66.645	0.188	0.187
-133.370	800.000	0.029	-0.089
-132.356	-84.403	-0.315	-0.098
-131.341	40.954	0.339	0.299
-130.326	-75.520	0.146	0.051
-129.312	-99.850	-0.222	0.054
-128.297	-66.626	-0.285	0.111
-127.283	-2.628	0.166	0.114
-126.268	-200.000	0.011	-0.144
-125.253	-57.382	-0.315	-0.135
-124.239	142.019	0.249	-0.323
-123.224	19.853	-0.258	-0.203
-122.210	-200.000	0.008	-0.399
-121.195	-22.918	0.206	-0.121
-120.180	-55.741	-0.356	-0.156
-119.166	27.163	-0.062	-0.051
-118.151	-13.887	-0.098	0.062
-117.137	-30.504	0.215	-0.119
-116.122	613.543	-0.120	0.294
-115.107	800.000	-0.038	0.130
-114.093	671.763	0.089	0.226
-113.078	-65.161	0.191	0.075
-112.064	45.403	0.179	0.161
-111.049	-165.978	-0.129	0.005
-110.034	-200.000	0.015	0.235
-109.020	413.463	-0.026	-0.055
-108.005	800.000	-0.028	0.075
-106.991	119.147	0.098	0.119
-105.976	-139.774	-0.045	0.005
-104.962	190.694	0.279	0.410
-103.947	-131.632	-0.242	-0.031
-102.932	418.620	0.065	-0.136
-101.918	-137.630	-0.199	-0.022
-100.903	-143.733	0.238	0.022
-99.889	155.854	0.142	-0.191
-98.874	-53.786	0.312	0.139
-97.859	-124.205	-0.217	-0.033
-96.845	530.609	0.107	-0.247
-95.830	-33.664	-0.108	0.058
-94.816	199.394	0.021	-0.031
-93.801	-200.000	-0.292	0.000
-92.786	228.249	0.146	0.233
-91.772	-166.046	-0.277	-0.012
-90.757	-121.138	-0.112	0.018
-89.743	106.482	0.209	-0.242
-88.728	235.666	0.078	0.127
-87.713	-23.596	-0.217	-0.127
-86.699	232.930	0.173	0.277
-85.684	-15.069	0.140	-0.088
-84.670	-200.000	-0.007	-0.193
-83.655	701.721	0.035	0.091
-82.640	-12.707	-0.153	-0.097
-81.626	322.562	-0.198	-0.370
-80.611	-200.000	0.036	-0.345
-79.597	177.939	-0.128	-0.183
-78.582	328.251	0.137	0.257
-77.567	-200.000	-0.002	-0.040
-76.553	-68.031	-0.176	-0.067
-75.538	154.182	0.191	0.256
-74.524	-200.000	-0.021	0.216
-73.509	-61.450	-0.052	0.021
-72.494	59.693	0.325	0.313
-71.480	40.308	0.254	0.223
-70.465	176.534	0.059	-0.083
-69.451	-45.533	0.159	0.077
-68.436	-143.475	-0.075	0.007
-67.422	480.102	0.059	-0.130
-66.407	800.000	-0.026	-0.088
-65.392	0.546	-0.315	0.220
-64.378	239.787	-0.075	0.122
-63.363	-137.361	-0.290	0.032
-62.349	800.000	-0.070	-0.289
-61.334	188.952	-0.822	-1.202
-60.319	-18.496	0.750	0.457
-59.305	-200.000	-0.168	-1.113
-58.290	277.729	0.851	1.479
-57.276	-200.000	0.274	1.714
-56.261	-200.000	125.830	654.547
-55.246	408.994	1579.568	3264.435
-54.232	141.561	2734.968	3535.704
-53.217	94.975	2162.139	2402.306
-52.203	34.609	1593.119	1358.782
-51.188	26.086	1338.128	1090.024
-50.173	23.791	1299.438	1044.986
-49.159	52.287	1369.918	1275.211
-48.144	48.542	1381.098	1262.947
-47.130	26.393	1328.859	1084.145
-46.115	23.155	1309.869	1049.440
-45.100	22.871	1305.611	1044.307
-44.086	22.869	1302.107	1041.451
-43.071	22.970	1299.688	1040.069
-42.057	22.854	1298.140	1038.109
-41.042	22.913	1296.552	1037.142
-40.027	22.890	1294.501	1035.325
-39.013	22.904	1293.214	1034.339
-37.998	22.901	1290.878	1032.411
-36.984	22.974	1289.380	1031.597
-35.969	22.941	1287.995	1030.258
-34.954	22.948	1286.117	1028.754
-33.940	22.993	1285.224	1028.261
-32.925	23.106	1283.509	1027.504
-31.911	23.137	1282.034	1026.463
-30.896	23.188	1280.673	1025.628
-29.881	23.180	1279.350	1024.480
-28.867	23.136	1277.772	1022.922
-27.852	23.084	1276.774	1021.784
-26.838	23.143	1275.175	1020.801
-25.823	23.071	1274.414	1019.737
-24.809	23.147	1272.727	1018.785
-23.794	23.121	1270.772	1017.028
-22.779	23.001	1270.184	1015.829
-21.765	23.219	1268.219	1015.468
-20.750	23.090	1266.730	1013.497
-19.736	23.020	1265.909	1012.399
-18.721	22.987	1264.894	1011.359
-17.706	22.982	1263.597	1010.252
-16.692	23.071	1262.436	1009.792
-15.677	22.917	1261.558	1008.168
-14.663	22.882	1260.435	1007.037
-13.648	22.899	1259.319	1006.202
-12.633	23.045	1258.128	1006.039
-11.619	22.913	1257.706	1004.907
-10.604	22.944	1256.989	1004.473
-9.590	22.933	1255.859	1003.467
-8.575	22.862	1254.693	1002.094
-7.560	23.063	1253.734	1002.429
-6.546	22.996	1253.162	1001.549
-5.531	22.955	1252.744	1000.946
-4.517	22.974	1251.368	999.913
-3.502	22.966	1250.796	999.369
-2.487	22.907	1249.965	998.333
-1.473	22.929	1245.520	994.866
-0.458	21.577	1231.271	975.918
0.556	17.073	1216.390	942.871
1.571	13.862	1225.478	931.834
2.586	13.380	1241.341	941.070
3.600	13.511	1228.974	932.354
4.615	9.797	1156.060	857.254
5.629	3.305	1084.978	772.016
6.644	0.307	1068.480	745.399
7.659	0.211	1066.844	743.718
8.673	0.013	1066.009	742.092
9.688	0.139	1064.314	741.463
10.702	0.361	1062.020	740.892
11.717	4.282	1066.112	762.996
12.731	11.311	1076.059	804.847
13.746	15.826	1081.166	830.935
14.761	16.743	1081.676	835.782
15.775	16.016	1080.738	831.398
16.790	14.946	1078.834	824.587
17.804	14.383	1077.440	820.677
18.819	14.067	1075.812	817.809
19.834	13.825	1075.367	816.207
20.848	13.638	1073.845	814.064
21.863	13.314	1073.287	811.975
22.877	13.219	1072.728	811.014
23.892	13.039	1071.970	809.488
24.907	13.183	1071.081	809.452
25.921	13.064	1070.886	808.647
26.936	13.277	1069.613	808.658
27.950	13.362	1068.371	808.062
28.965	13.355	1067.056	806.961
29.980	13.424	1065.905	806.357
30.994	13.382	1064.585	805.083
32.009	13.427	1063.582	804.473
33.023	13.270	1062.759	803.016
34.038	13.280	1061.807	802.273
35.053	13.248	1061.056	801.481
36.067	13.344	1060.162	801.198
37.082	13.241	1059.578	800.188
38.096	13.301	1058.440	799.548
39.111	13.327	1057.613	798.980
40.126	13.338	1056.343	798.002
41.140	13.096	1055.210	795.907
42.155	13.091	1054.621	795.370
43.169	13.174	1053.303	794.705
44.184	13.101	1052.357	793.570
45.199	13.136	1051.187	792.786
46.213	13.004	1050.478	791.548
47.228	13.231	1049.239	791.629
48.242	13.394	1047.326	790.896
49.257	13.220	1047.201	789.898
50.271	13.169	1046.534	789.082
51.286	13.275	1045.205	788.519
52.301	13.440	1044.060	788.370
53.315	13.193	1043.326	786.570
54.330	13.184	1042.176	785.592
55.344	13.224	1041.466	785.179
56.359	13.086	1040.627	783.818
57.374	13.181	1039.731	783.526
58.388	13.210	1038.500	782.668
59.403	13.116	1038.274	781.982
60.417	13.087	1037.239	780.996
61.432	13.047	1036.394	780.100
62.447	12.997	1035.868	779.400
63.461	12.989	1035.011	778.651
64.476	13.085	1033.782	778.109
65.490	13.158	1032.909	777.726
66.505	13.186	1032.210	777.261
67.520	13.123	1031.531	776.383
68.534	13.067	1031.172	775.784
69.549	13.032	1029.908	774.602
70.563	13.123	1029.242	774.458
71.578	13.061	1029.148	774.026
72.593	13.135	1027.653	773.182
73.607	13.058	1027.035	772.287
74.622	13.052	1026.336	771.664
75.636	13.099	1025.910	771.496
76.651	12.982	1025.223	770.363
77.666	13.172	1024.294	770.487
78.680	13.014	1023.819	769.323
79.695	13.056	1023.389	769.125
80.709	13.027	1022.962	768.603
81.724	13.090	1022.136	768.208
82.739	13.155	1021.387	767.880
83.753	13.194	1020.602	767.403
84.768	13.274	1019.682	767.014
85.782	13.401	1018.604	766.725
86.797	13.321	1017.516	765.465
87.812	13.325	1016.835	764.903
88.826	13.292	1015.668	763.806
89.841	13.375	1014.811	763.477
90.855	13.276	1013.744	762.149
91.870	13.306	1013.026	761.680
92.884	13.360	1012.652	761.584
93.899	13.397	1011.359	760.711
94.914	13.444	1010.636	760.319
95.928	13.443	1010.022	759.782
96.943	13.181	1009.458	758.090
97.957	13.370	1007.990	757.787
98.972	13.306	1007.172	756.812
99.987	13.366	1006.398	756.436
101.001	13.355	1005.599	755.719
102.016	13.456	1004.432	755.239
103.030	13.338	1004.102	754.385
104.045	13.363	1003.050	753.641
105.060	13.283	1002.558	752.841
106.074	13.239	1001.400	751.705
107.089	13.228	1000.416	750.849
108.103	13.214	999.703	750.185
109.118	13.214	998.928	749.535
110.133	13.286	998.071	749.150
111.147	13.289	996.776	748.127
112.162	13.222	996.088	747.242
113.176	13.297	995.613	747.157
114.191	13.176	994.992	746.080
115.206	13.195	994.104	745.432
116.220	13.334	993.008	745.172
117.235	13.260	992.153	744.131
118.249	13.305	991.286	743.620
119.264	13.384	990.685	743.454
120.279	13.479	989.260	742.748
121.293	13.262	989.438	741.842
122.308	13.133	988.553	740.533
123.322	13.254	986.923	739.791
124.337	13.263	986.190	739.213
125.352	13.140	985.235	737.882
126.366	13.188	984.194	737.254
127.381	13.138	983.479	736.427
128.395	13.279	982.098	735.959
129.410	13.235	981.037	734.903
130.424	13.339	980.355	734.786
131.439	13.321	979.590	734.068
132.454	13.267	979.090	733.389
133.468	13.242	978.162	732.521
134.483	13.260	977.429	731.984
135.497	13.194	976.666	731.056
136.512	13.336	975.535	730.772
137.527	13.367	974.527	730.092
138.541	13.217	974.196	729.114
139.556	13.393	973.139	729.038
140.570	13.352	972.672	728.442
141.585	13.408	971.500	727.747
142.600	13.544	970.566	727.578
143.614	13.543	969.985	727.074
144.629	13.516	969.043	726.187
145.643	13.326	968.874	725.163
146.658	13.426	967.335	724.382
147.673	13.285	966.672	723.207
148.687	13.514	965.229	723.065
149.702	13.419	964.805	722.268
150.716	13.525	964.133	722.162
151.731	13.452	963.379	721.214
152.746	13.431	962.662	720.522
153.760	13.504	961.966	720.256
154.775	13.574	961.428	720.095
155.789	13.481	960.930	719.254
156.804	13.475	960.297	718.690
157.819	13.684	959.019	718.575
158.833	13.686	958.567	718.182
159.848	13.616	957.977	717.371
160.862	13.769	956.538	716.895
161.877	13.480	955.852	715.066
162.892	13.514	954.761	714.336
163.906	13.710	953.871	714.450
164.921	13.470	953.615	713.162
165.935	13.565	952.862	712.946
166.950	13.520	951.972	712.022
167.964	13.670	950.878	711.785
168.979	13.649	950.054	711.015
169.994	13.551	949.421	710.060
171.008	13.646	948.744	709.894
172.023	13.774	947.659	709.567
173.037	13.724	946.996	708.795
174.052	13.703	946.494	708.270
175.067	13.609	945.949	707.397
176.081	13.654	945.057	706.859
177.096	13.687	944.358	706.412
178.110	13.554	944.194	705.661
179.125	13.656	943.481	705.501
180.140	13.643	943.218	705.188
181.154	13.728	942.476	704.929
182.169	13.950	941.248	704.892
183.183	13.867	940.758	704.110
184.198	13.855	940.146	703.538
185.213	13.880	939.593	703.171
186.227	13.855	938.864	702.457
187.242	13.853	938.467	702.090
188.256	14.105	937.617	702.454
189.271	13.980	936.492	701.024
190.286	13.861	936.241	700.272
191.300	13.735	935.080	698.807
192.315	13.853	934.525	698.829
193.329	13.939	933.633	698.463
194.344	13.881	933.374	697.963
195.359	13.803	932.844	697.176
196.373	13.919	932.211	697.129
197.388	13.910	932.038	696.900
198.402	13.906	931.536	696.448
199.417	14.092	930.558	696.433
200.432	13.991	930.340	695.786
201.446	14.028	929.905	695.554
202.461	14.270	929.089	695.892
203.475	14.141	928.787	695.068
204.490	14.280	927.064	694.294
205.504	14.139	926.785	693.439
206.519	14.127	925.810	692.595
207.534	14.182	925.249	692.345
208.548	14.099	925.005	691.757
209.563	14.115	924.364	691.280
210.577	14.119	923.215	690.378
211.592	14.316	922.637	690.703
212.607	14.161	921.765	689.346
213.621	14.260	921.076	689.180
214.636	14.263	920.798	688.924
215.650	14.183	919.688	687.699
216.665	14.158	919.373	687.298
217.680	14.417	918.503	687.657
218.694	14.401	917.904	687.082
219.709	14.319	917.119	686.098
220.723	14.358	916.580	685.792
221.738	14.332	915.623	684.909
222.753	14.410	915.168	684.830
223.767	14.520	914.130	684.441
224.782	14.517	913.914	684.209
225.796	14.481	913.666	683.814
226.811	14.520	912.843	683.296
227.826	14.478	912.147	682.546
228.840	14.516	911.155	681.899
229.855	14.582	910.055	681.282
230.869	14.391	909.489	680.019
231.884	14.496	908.699	679.797
232.899	14.441	908.363	679.260
233.913	14.503	907.561	678.852
234.928	14.402	907.112	678.047
235.942	14.478	906.537	677.866
236.957	14.489	905.655	677.192
237.972	14.512	905.423	677.053
238.986	14.447	904.662	676.159
240.001	14.645	903.865	676.304
241.015	14.604	903.176	675.564
242.030	14.570	902.654	674.977
243.045	14.743	901.864	675.026
244.059	14.633	901.289	674.090
245.074	14.621	900.543	673.423
246.088	14.665	900.198	673.283
247.103	14.719	899.712	673.079
248.117	14.666	899.305	672.503
249.132	14.789	898.637	672.439
250.147	14.901	897.685	672.117
251.161	14.866	897.176	671.535
252.176	14.938	896.323	671.126
253.190	15.015	895.707	670.916
254.205	14.916	895.200	670.079
255.220	14.874	894.428	669.271
256.234	15.096	893.810	669.639
257.249	15.068	893.228	669.032
258.263	14.967	892.464	667.997
259.278	14.970	892.002	667.604
260.293	15.030	891.260	667.229
261.307	15.168	890.491	667.142
262.322	15.138	889.818	666.461
263.336	15.125	889.001	665.740
264.351	15.103	888.667	665.342
265.366	15.100	887.791	664.616
266.380	15.160	887.365	664.475
267.395	15.207	886.553	663.995
268.409	15.123	886.019	663.204
269.424	15.186	885.080	662.692
270.439	15.209	884.291	662.131
271.453	15.112	883.823	661.343
272.468	15.131	883.255	660.933
273.482	15.248	882.629	660.866
274.497	15.248	881.918	660.276
275.512	15.214	881.778	659.981
276.526	15.090	881.175	658.980
277.541	15.170	880.440	658.690
278.555	15.412	879.606	658.955
279.570	15.484	879.125	658.821
280.585	15.430	878.449	658.044
281.599	15.538	877.492	657.691
282.614	15.456	877.038	656.971
283.628	15.423	876.497	656.380
284.643	15.308	875.991	655.494
285.657	15.353	875.234	655.044
286.672	15.493	874.678	655.114
287.687	15.368	874.205	654.218
288.701	15.542	873.686	654.448
289.716	15.409	872.999	653.359
290.730	15.426	872.500	652.993
291.745	15.616	871.551	652.963
292.760	15.545	870.901	652.143
293.774	15.600	870.334	651.874
294.789	15.646	869.861	651.640
295.803	15.503	868.883	650.297
296.818	15.510	868.483	649.968
297.833	15.515	867.992	649.560
298.847	15.519	867.346	649.037
299.862	15.548	866.524	648.474
300.876	15.598	866.008	648.224
301.891	15.673	865.532	648.098
302.906	15.774	864.955	648.001
303.920	15.805	864.241	647.525
304.935	15.757	863.834	646.982
305.949	15.686	863.385	646.312
306.964	15.767	862.828	646.151
307.979	15.849	862.092	645.856
308.993	15.801	861.519	645.187
310.008	15.971	860.744	645.201
311.022	15.859	860.278	644.366
312.037	15.766	859.686	643.510
313.052	15.888	859.025	643.425
314.066	15.808	858.456	642.633
315.081	15.720	857.997	641.898
316.095	15.897	857.229	641.942
317.110	15.837	856.913	641.418
318.125	15.878	856.293	641.056
319.139	15.905	855.952	640.847
320.154	15.959	855.455	640.622
321.168	15.866	854.837	639.749
322.183	15.819	854.157	639.006
323.197	15.934	853.697	639.042
324.212	15.961	853.109	638.646
325.227	16.012	852.773	638.532
326.241	15.923	852.307	637.789
327.256	16.013	851.086	637.161
328.270	15.883	851.188	636.688
329.285	15.975	850.437	636.418
330.300	15.868	849.964	635.604
331.314	16.029	849.135	635.532
332.329	16.225	848.873	636.020
333.343	16.052	848.156	634.776
334.358	16.128	847.840	634.770
335.373	15.919	848.018	634.059
336.387	16.067	847.348	634.059
337.402	16.203	846.833	634.128
338.416	16.245	846.621	634.071
339.431	16.115	846.318	633.302
340.446	16.162	845.974	633.165
341.460	16.328	845.514	633.387
342.475	16.347	844.600	632.717
343.489	16.162	844.548	631.927
344.504	16.417	843.829	632.289
345.519	16.347	843.453	631.691
346.533	16.444	842.673	631.412
347.548	16.291	842.331	630.527
348.562	16.353	841.827	630.325
349.577	16.366	841.359	629.967
350.592	16.397	840.504	629.387
351.606	16.294	840.101	628.647
352.621	16.363	839.238	628.202
353.635	16.397	838.486	627.710
354.650	16.384	837.859	627.136
355.665	16.517	837.267	627.132
356.679	16.398	837.243	626.618
357.694	16.496	836.143	626.100
358.708	16.511	835.702	625.771
359.723	16.451	835.051	625.009
360.738	16.439	834.367	624.394
361.752	16.445	833.767	623.911
362.767	16.652	832.965	624.021
363.781	16.630	832.629	623.634
364.796	16.705	832.043	623.414
365.810	16.680	831.928	623.180
366.825	16.596	831.751	622.686
367.840	16.611	831.172	622.253
368.854	16.794	830.293	622.209
369.869	16.718	830.084	621.720
370.883	16.789	829.816	621.723
371.898	16.701	829.384	621.023
372.913	16.810	828.797	620.926
373.927	16.649	828.605	620.141
374.942	16.578	828.516	619.757
375.956	16.836	827.769	620.087
376.971	16.899	827.066	619.736
377.986	16.976	826.511	619.549
379.000	17.096	826.226	619.717
380.015	17.119	825.463	619.175
381.029	16.995	824.930	618.266
382.044	17.146	824.090	618.133
383.059	17.185	823.798	618.000
384.073	17.128	823.293	617.361
385.088	16.998	822.852	616.503
386.102	16.864	822.584	615.762
387.117	16.966	821.764	615.462
388.132	17.043	820.919	615.054
389.146	17.026	820.689	614.766
390.161	17.041	819.970	614.225
391.175	17.093	819.180	613.770
392.190	17.046	819.255	613.599
393.205	16.823	818.944	612.507
394.219	17.077	818.248	612.851
395.234	17.137	818.072	612.882
396.248	16.947	817.879	611.997
397.263	16.939	817.181	611.390
398.278	17.052	816.290	611.077
399.292	17.062	815.850	610.731
400.307	17.217	815.821	611.211
401.321	17.018	815.314	610.061
402.336	17.048	814.912	609.816
403.350	17.310	813.891	609.938
404.365	17.235	813.893	609.616
405.380	17.168	813.245	608.836
406.394	17.296	812.618	608.772
407.409	17.388	812.542	608.990
408.423	17.430	812.093	608.750
409.438	17.368	811.714	608.190
410.453	17.345	811.347	607.778
411.467	17.432	810.533	607.428
412.482	17.474	810.588	607.564
413.496	17.486	810.225	607.282
414.511	17.536	809.619	606.949
415.526	17.481	809.027	606.257
416.540	17.515	808.844	606.187
417.555	17.539	808.241	605.766
418.569	17.600	807.972	605.729
419.584	17.532	807.101	604.781
420.599	17.503	806.955	604.517
421.613	113.849	1299.259	1488.692
422.628	98.331	1370.936	1488.763
