DTS Sentinel unit serial number:	SN413079Multiplexer serial number:	ORYXHardware model number:	OX4-SRSoftware version number:	ORYX F/W v4.00 Oryx Data Collector v3.7.2.0data status	okinstallation	princeton_trtdifferential loss correction	single-endedforward channel	channel 1reverse channel	N/Adate	2019/09/16time	07:02:35forward acquisition time	60.00reverse acquisition time	0.00gamma	496.2192k internal	0.2331k external	0.2331temperature offset calibration	0.9984default loss term (dB/km)	0.3790temperature slope calibration	1.0000multiplexer offset coefficient	1.0000multiplexer slope coefficient	1.0000fibre end	0.00T internal ref (°C)	27.37T ext. ref 1 (°C)	11.50T ext. ref 2 (°C)	21.84length (m)	temperature (°C)	Stokes	anti-Stokes-747.200	-77.014	-0.045	-0.016
-746.185	254.949	-0.127	0.218
-745.171	-56.838	0.218	-0.097
-744.156	-89.946	0.306	0.090
-743.142	327.658	0.142	0.275
-742.127	-41.579	-0.189	0.098
-741.112	-42.272	-0.177	-0.091
-740.098	-122.023	0.188	0.031
-739.083	318.548	-0.052	0.100
-738.069	800.000	-0.061	0.236
-737.054	-101.053	0.038	-0.009
-736.039	162.217	-0.088	0.123
-735.025	-200.000	-0.057	0.549
-734.010	113.958	-0.347	-0.424
-732.996	-200.000	-0.018	-0.163
-731.981	-151.878	0.071	0.005
-730.966	-84.906	-0.123	0.039
-729.952	-200.000	0.001	-0.098
-728.937	-200.000	0.046	-0.280
-727.923	166.269	-0.031	-0.044
-726.908	-88.642	0.186	0.056
-725.894	53.363	-0.104	-0.100
-724.879	-110.970	0.052	0.011
-723.864	521.194	-0.135	0.320
-722.850	-74.577	0.082	-0.030
-721.835	-44.639	-0.201	0.101
-720.821	179.479	-0.166	-0.245
-719.806	-155.777	-0.173	0.011
-718.791	78.438	-0.227	-0.244
-717.777	18.571	-0.167	-0.134
-716.762	20.160	-0.173	-0.141
-715.748	-131.526	-0.424	0.056
-714.733	-129.892	-0.404	0.056
-713.718	-16.227	-0.080	-0.051
-712.704	191.524	0.064	0.097
-711.689	800.000	0.035	0.135
-710.675	-90.096	0.243	-0.071
-709.660	-59.623	0.173	-0.075
-708.645	82.540	0.068	-0.074
-707.631	18.669	0.154	0.123
-706.616	-96.146	0.290	0.077
-705.602	-42.850	0.165	0.084
-704.587	214.753	0.141	0.225
-703.572	477.375	-0.027	-0.061
-702.558	-2.538	-0.097	0.069
-701.543	-116.897	0.269	0.049
-700.529	33.099	0.159	0.138
-699.514	105.080	0.138	0.163
-698.499	116.329	-0.038	-0.047
-697.485	-21.106	0.138	-0.085
-696.470	-93.163	0.341	0.095
-695.456	-143.782	0.426	0.041
-694.441	13.063	-0.100	-0.078
-693.426	-200.000	-0.013	0.383
-692.412	204.274	0.095	-0.147
-691.397	343.270	0.144	0.284
-690.383	-84.930	-0.225	-0.071
-689.368	-138.056	0.103	-0.012
-688.354	-111.171	0.284	-0.058
-687.339	800.000	-0.044	-0.143
-686.324	-200.000	0.034	-0.266
-685.310	-28.697	0.311	0.180
-684.295	-192.375	0.204	0.002
-683.281	-200.000	0.004	0.371
-682.266	310.280	-0.059	0.111
-681.251	553.241	-0.081	0.196
-680.237	-170.584	-0.051	-0.002
-679.222	-200.000	-0.036	-0.184
-678.208	115.411	0.288	-0.353
-677.193	-13.735	-0.074	0.048
-676.178	-85.204	-0.361	-0.113
-675.164	-64.013	0.159	-0.065
-674.149	267.366	-0.083	-0.147
-673.135	800.000	-0.062	-0.223
-672.120	139.946	-0.021	0.028
-671.105	-75.020	-0.195	-0.070
-670.091	39.150	0.234	0.210
-669.076	800.000	0.049	0.192
-668.062	39.842	0.156	0.140
-667.047	426.672	0.095	-0.206
-666.032	-45.821	0.105	0.052
-665.018	46.787	-0.157	0.147
-664.003	-101.392	-0.072	0.018
-662.989	97.402	-0.103	-0.119
-661.974	-200.000	0.024	0.317
-660.959	399.266	0.123	-0.259
-659.945	-50.577	-0.395	-0.187
-658.930	414.757	0.044	-0.093
-657.916	422.306	0.164	0.353
-656.901	800.000	0.002	-0.008
-655.886	-113.427	-0.280	-0.055
-654.872	-117.349	-0.153	0.028
-653.857	-200.000	0.030	-0.619
-652.843	-0.809	0.220	0.156
-651.828	-200.000	-0.051	-0.230
-650.814	102.702	0.332	-0.390
-649.799	-200.000	0.026	0.319
-648.784	-200.000	-0.003	-0.271
-647.770	-144.051	0.031	-0.003
-646.755	-200.000	0.197	-0.001
-645.741	52.481	-0.147	0.141
-644.726	-134.882	-0.307	0.037
-643.711	21.685	-0.315	-0.257
-642.697	-57.557	0.156	0.068
-641.682	-200.000	0.023	-0.155
-640.668	41.258	-0.104	0.095
-639.653	392.139	-0.105	-0.218
-638.638	522.830	0.050	-0.118
-637.624	-75.863	0.314	-0.111
-636.609	-200.000	-0.009	-0.202
-635.595	42.179	-0.122	0.111
-634.580	48.809	-0.251	-0.236
-633.565	-105.530	0.298	-0.068
-632.551	37.964	-0.276	-0.246
-631.536	-95.950	-0.422	-0.113
-630.522	800.000	-0.037	-0.154
-629.507	248.779	0.110	-0.186
-628.492	4.206	-0.315	-0.231
-627.478	800.000	-0.122	-0.357
-626.463	68.143	-0.139	0.143
-625.449	-200.000	-0.011	-0.135
-624.434	-53.848	0.093	-0.042
-623.419	800.000	0.036	-0.108
-622.405	157.206	-0.205	-0.285
-621.390	-139.103	0.534	0.058
-620.376	-110.082	-0.401	0.084
-619.361	800.000	0.025	0.074
-618.346	80.154	-0.188	0.203
-617.332	-19.146	-0.396	-0.246
-616.317	-57.632	0.160	0.070
-615.303	-162.149	-0.139	0.007
-614.288	42.222	0.218	0.198
-613.273	-139.326	0.343	0.037
-612.259	-96.334	-0.284	-0.075
-611.244	426.180	-0.100	-0.217
-610.230	800.000	0.045	-0.194
-609.215	-83.040	-0.455	-0.147
-608.201	696.987	0.045	-0.119
-607.186	-156.835	-0.089	-0.005
-606.171	-50.057	0.227	0.108
-605.157	-95.578	0.054	-0.015
-604.142	152.017	0.203	-0.277
-603.128	607.406	-0.137	0.343
-602.113	800.000	0.069	0.302
-601.098	-115.763	0.184	0.034
-600.084	-163.583	-0.206	-0.010
-599.069	561.730	0.073	0.176
-598.055	63.732	0.123	0.123
-597.040	-38.689	-0.077	-0.041
-596.025	83.127	0.123	-0.134
-595.011	-122.153	0.230	-0.038
-593.996	-84.842	-0.453	0.142
-592.982	800.000	0.168	0.529
-591.967	-70.098	-0.131	-0.050
-590.952	-27.428	0.126	-0.073
-589.938	620.868	-0.034	-0.084
-588.923	800.000	-0.027	0.086
-587.909	568.548	0.123	0.299
-586.894	-26.446	-0.157	0.092
-585.879	671.596	0.030	-0.078
-584.865	-25.752	-0.373	0.220
-583.850	-76.465	0.322	0.113
-582.836	-200.000	0.016	0.183
-581.821	-96.246	-0.290	0.077
-580.806	41.542	0.037	0.033
-579.792	-49.895	-0.350	0.166
-578.777	-200.000	0.019	-0.202
-577.763	403.688	-0.101	0.212
-576.748	76.035	-0.034	-0.036
-575.733	46.794	0.255	-0.236
-574.719	511.023	0.032	-0.075
-573.704	800.000	0.088	0.278
-572.690	-105.615	-0.202	0.046
-571.675	96.757	0.216	0.247
-570.661	70.850	0.091	-0.095
-569.646	-85.034	0.426	-0.133
-568.631	121.761	0.266	-0.332
-567.617	-101.985	0.178	0.043
-566.602	800.000	0.025	0.107
-565.588	72.315	0.050	-0.052
-564.573	139.606	-0.121	0.159
-563.558	-200.000	0.054	-0.353
-562.544	-200.000	-0.061	-0.268
-561.529	25.990	0.272	0.227
-560.515	146.347	0.090	0.121
-559.500	144.490	0.156	-0.208
-558.485	-150.280	0.358	0.028
-557.471	-200.000	0.049	0.318
-556.456	-200.000	-0.001	-0.102
-555.442	-200.000	0.011	-0.219
-554.427	81.729	0.138	-0.149
-553.412	-112.923	-0.352	0.070
-552.398	-16.733	-0.074	0.047
-551.383	71.924	-0.335	0.348
-550.369	-38.446	0.183	0.096
-549.354	-86.687	-0.372	-0.114
-548.339	-123.678	0.080	0.013
-547.325	61.045	0.103	-0.102
-546.310	535.425	0.139	0.330
-545.296	-61.962	-0.492	-0.206
-544.281	-200.000	0.060	-0.280
-543.266	800.000	-0.024	-0.100
-542.252	63.684	0.092	0.093
-541.237	800.000	0.041	-0.167
-540.223	-200.000	0.011	0.090
-539.208	-50.393	-0.118	-0.056
-538.193	-5.613	-0.337	-0.231
-537.179	-16.041	-0.076	0.048
-536.164	-200.000	-0.027	-0.209
-535.150	-38.592	-0.174	0.092
-534.135	800.000	0.048	0.195
-533.121	18.134	0.100	-0.080
-532.106	126.270	-0.195	0.246
-531.091	567.282	0.077	-0.186
-530.077	308.849	-0.206	0.383
-529.062	-131.276	0.071	0.009
-528.048	557.604	0.076	-0.184
-527.033	13.827	0.228	0.177
-526.018	-13.023	-0.015	0.009
-525.004	6.424	-0.214	0.159
-523.989	800.000	0.143	0.565
-522.975	800.000	0.008	-0.027
-521.960	-200.000	0.038	0.359
-520.945	206.443	-0.069	-0.107
-519.931	-200.000	0.068	0.305
-518.916	-17.901	0.181	-0.113
-517.902	243.732	-0.194	-0.324
-516.887	-137.232	-0.290	0.033
-515.872	-73.765	-0.264	0.096
-514.858	-200.000	-0.013	0.131
-513.843	161.475	-0.134	-0.188
-512.829	196.207	0.100	0.152
-511.814	800.000	0.017	0.069
-510.799	216.869	-0.179	0.285
-509.785	40.994	-0.191	0.172
-508.770	-200.000	-0.031	-0.147
-507.756	-154.535	-0.225	0.015
-506.741	231.694	0.145	0.237
-505.726	-77.115	-0.276	0.096
-504.712	800.000	-0.086	0.250
-503.697	-200.000	0.017	-0.162
-502.683	135.752	-0.134	-0.174
-501.668	143.294	0.227	0.302
-500.653	-200.000	0.072	0.392
-499.639	225.638	-0.047	0.076
-498.624	-60.572	-0.203	0.086
-497.610	-81.752	0.139	-0.045
-496.595	-75.136	-0.089	0.032
-495.581	83.607	-0.235	0.255
-494.566	36.614	-0.088	0.077
-493.551	-35.579	-0.132	0.071
-492.537	190.889	-0.086	-0.129
-491.522	-200.000	-0.024	-0.122
-490.508	318.118	0.140	0.265
-489.493	-200.000	0.050	-0.221
-488.478	-70.787	0.326	-0.123
-487.464	272.433	0.140	-0.247
-486.449	800.000	0.071	0.195
-485.435	-55.675	0.205	0.092
-484.420	800.000	0.146	-0.448
-483.405	279.107	0.080	-0.142
-482.391	800.000	0.051	-0.205
-481.376	-180.380	0.229	-0.005
-480.362	8.200	-0.265	-0.198
-479.347	86.381	-0.155	0.171
-478.332	364.998	-0.110	0.221
-477.318	-99.274	-0.089	0.022
-476.303	-200.000	-0.001	-0.378
-475.289	624.767	-0.039	-0.097
-474.274	76.320	0.060	0.064
-473.259	724.861	0.076	-0.201
-472.245	-200.000	0.041	-0.272
-471.230	-21.983	0.209	0.126
-470.216	342.334	0.033	0.065
-469.201	-200.000	0.042	-0.386
-468.186	-200.000	-0.003	0.338
-467.172	-185.075	0.314	0.005
-466.157	337.654	-0.106	0.206
-465.143	-75.812	0.245	-0.086
-464.128	-200.000	0.023	-0.117
-463.113	800.000	0.077	0.241
-462.099	5.852	0.196	-0.144
-461.084	-200.000	0.039	-0.195
-460.070	39.456	0.174	0.155
-459.055	-100.731	0.135	0.033
-458.040	-19.297	-0.126	0.078
-457.026	164.235	-0.168	-0.235
-456.011	796.100	-0.032	0.088
-454.997	672.760	0.128	0.330
-453.982	67.482	0.218	0.222
-452.968	152.575	0.116	-0.158
-451.953	-200.000	0.031	0.150
-450.938	-73.139	0.143	-0.052
-449.924	76.547	0.130	-0.137
-448.909	170.416	-0.129	0.183
-447.895	97.355	-0.274	-0.313
-446.880	800.000	-0.042	-0.166
-445.865	444.298	-0.130	-0.283
-444.851	-162.810	0.122	-0.006
-443.836	-166.084	0.164	-0.007
-442.822	-25.660	-0.174	-0.102
-441.807	383.713	0.129	-0.264
-440.792	565.539	0.088	0.212
-439.778	-168.498	-0.153	0.006
-438.763	-200.000	-0.058	-0.274
-437.749	9.771	0.123	-0.092
-436.734	-131.425	-0.326	0.043
-435.719	83.501	-0.078	-0.084
-434.705	742.242	-0.067	-0.178
-433.690	-4.745	0.126	-0.086
-432.676	112.270	0.221	0.266
-431.661	-82.982	-0.106	-0.034
-430.646	-145.157	0.100	0.009
-429.632	425.938	-0.171	-0.367
-428.617	-151.482	0.205	0.015
-427.603	-25.810	-0.223	-0.131
-426.588	-162.788	-0.366	-0.018
-425.573	1.386	0.360	-0.257
-424.559	-39.943	-0.240	0.125
-423.544	-200.000	-0.034	-0.201
-422.530	232.222	-0.113	0.185
-421.515	-200.000	0.116	-0.508
-420.500	-92.260	-0.074	0.021
-419.486	-200.000	0.027	0.124
-418.471	-34.360	0.133	0.073
-417.457	-200.000	0.048	0.232
-416.442	92.803	-0.164	0.183
-415.428	-17.436	-0.266	0.166
-414.413	-84.159	0.316	-0.100
-413.398	-46.992	0.318	0.154
-412.384	800.000	0.062	-0.224
-411.369	136.938	-0.112	0.145
-410.355	30.789	-0.192	-0.163
-409.340	-200.000	-0.060	0.393
-408.325	278.895	-0.065	0.115
-407.311	347.506	-0.065	0.127
-406.296	-14.205	-0.068	-0.044
-405.282	-9.606	0.167	0.110
-404.267	800.000	-0.039	0.145
-403.252	228.766	0.104	-0.168
-402.238	301.562	-0.219	-0.403
-401.223	79.951	0.051	-0.054
-400.209	120.085	0.245	0.302
-399.194	800.000	0.104	0.424
-398.179	-83.391	0.172	-0.055
-397.165	465.451	-0.103	-0.230
-396.150	-136.603	-0.097	-0.011
-395.136	-200.000	0.008	-0.101
-394.121	74.399	0.191	0.199
-393.106	369.904	-0.010	-0.019
-392.092	-88.279	-0.341	0.101
-391.077	-47.856	-0.105	-0.050
-390.063	800.000	-0.094	-0.328
-389.048	11.604	0.206	-0.157
-388.033	214.792	-0.045	0.071
-387.019	-200.000	0.002	-0.135
-386.004	-22.614	-0.100	-0.060
-384.990	-200.000	0.025	-0.131
-383.975	-172.886	0.197	-0.006
-382.960	-200.000	-0.021	-0.168
-381.946	91.592	-0.048	-0.054
-380.931	-193.308	-0.339	-0.003
-379.917	-18.766	-0.138	-0.085
-378.902	-98.804	-0.114	-0.029
-377.888	-89.887	-0.435	0.126
-376.873	-19.958	0.194	0.119
-375.858	17.960	0.280	-0.221
-374.844	-12.978	0.189	0.122
-373.829	205.613	-0.161	0.248
-372.815	-200.000	0.012	0.101
-371.800	36.812	-0.192	0.168
-370.785	-200.000	0.007	-0.217
-369.771	-200.000	-0.008	-0.192
-368.756	-89.444	-0.120	-0.035
-367.742	-200.000	-0.014	0.065
-366.727	56.683	-0.106	0.103
-365.712	77.073	0.171	-0.180
-364.698	203.640	0.132	0.203
-363.683	260.128	0.160	0.274
-362.669	-110.099	0.216	0.045
-361.654	-147.807	-0.183	0.015
-360.639	-134.375	-0.143	0.017
-359.625	365.681	-0.081	0.161
-358.610	111.919	0.290	0.348
-357.596	-200.000	0.025	0.173
-356.581	-118.325	0.153	0.027
-355.566	17.898	0.165	-0.130
-354.552	-76.784	0.118	0.041
-353.537	800.000	-0.078	0.335
-352.523	-81.647	0.375	-0.122
-351.508	-200.000	-0.001	0.086
-350.493	185.970	-0.054	-0.080
-349.479	-200.000	0.009	0.119
-348.464	-10.988	-0.035	0.023
-347.450	343.239	0.105	0.203
-346.435	-120.425	-0.185	0.031
-345.420	-200.000	0.038	-0.264
-344.406	800.000	0.063	-0.178
-343.391	-89.140	-0.244	-0.071
-342.377	-79.079	-0.155	0.052
-341.362	54.905	0.141	0.134
-340.348	-46.654	0.363	0.176
-339.333	-146.281	-0.364	-0.032
-338.318	79.820	0.260	0.277
-337.304	30.440	0.197	-0.167
-336.289	65.591	0.202	-0.202
-335.275	-94.423	-0.070	-0.019
-334.260	-193.547	-0.072	0.001
-333.245	102.357	-0.179	-0.208
-332.231	-87.126	-0.083	0.025
-331.216	455.808	-0.063	-0.139
-330.202	-200.000	0.031	-0.172
-329.187	25.399	0.136	-0.112
-328.172	800.000	0.006	0.023
-327.158	-167.653	-0.219	-0.009
-326.143	-94.383	-0.197	0.053
-325.129	-200.000	-0.019	0.282
-324.114	245.326	0.167	0.278
-323.099	-42.163	0.009	0.004
-322.085	800.000	-0.050	-0.151
-321.070	-47.812	0.252	-0.121
-320.056	-200.000	-0.027	0.220
-319.041	166.950	0.077	-0.108
-318.026	-83.092	-0.166	-0.053
-317.012	474.779	0.135	0.303
-315.997	-200.000	-0.125	-0.000
-314.983	260.682	-0.037	0.064
-313.968	265.706	-0.139	0.240
-312.953	-46.095	-0.217	-0.106
-311.939	5.165	0.181	0.132
-310.924	800.000	0.115	0.379
-309.910	-77.296	-0.081	-0.028
-308.895	95.345	0.239	0.270
-307.880	-88.565	-0.251	-0.074
-306.866	86.903	-0.134	-0.146
-305.851	49.248	0.159	0.147
-304.837	-200.000	0.035	-0.208
-303.822	103.723	-0.240	-0.279
-302.807	67.117	-0.169	0.171
-301.793	287.665	-0.042	-0.075
-300.778	-46.779	-0.180	-0.087
-299.764	-122.052	-0.083	0.014
-298.749	6.779	-0.212	-0.156
-297.735	800.000	-0.074	0.225
-296.720	-46.496	0.293	0.142
-295.705	107.899	-0.178	0.210
-294.691	800.000	0.042	-0.155
-293.676	-200.000	-0.055	0.382
-292.662	423.283	0.081	0.173
-291.647	-105.398	0.555	-0.125
-290.632	-147.111	0.126	0.011
-289.618	253.701	0.166	0.280
-288.603	-34.958	-0.108	0.058
-287.589	-200.000	-0.010	0.230
-286.574	52.648	0.044	-0.041
-285.559	800.000	0.114	-0.321
-284.545	63.369	0.227	-0.225
-283.530	69.823	-0.093	0.095
-282.516	-200.000	0.011	0.245
-281.501	-79.847	0.282	-0.094
-280.486	636.578	-0.036	-0.090
-279.472	411.234	0.132	-0.276
-278.457	-200.000	-0.018	0.198
-277.443	-27.316	0.277	-0.159
-276.428	404.629	0.165	0.344
-275.413	12.382	0.215	0.164
-274.399	800.000	0.046	-0.198
-273.384	-34.438	0.109	-0.059
-272.370	19.939	0.093	-0.074
-271.355	800.000	0.051	0.145
-270.340	800.000	-0.082	-0.260
-269.326	433.545	0.074	-0.158
-268.311	-29.525	-0.194	-0.110
-267.297	69.382	-0.007	-0.007
-266.282	-200.000	0.001	-0.297
-265.267	655.390	-0.120	-0.304
-264.253	281.354	-0.167	-0.296
-263.238	800.000	0.089	-0.288
-262.224	96.688	-0.206	-0.233
-261.209	-22.675	0.147	0.088
-260.195	-48.858	-0.170	-0.081
-259.180	6.903	0.106	-0.078
-258.165	384.923	-0.087	0.177
-257.151	-182.250	0.291	0.005
-256.136	-141.327	0.170	-0.017
-255.122	800.000	0.051	0.169
-254.107	-200.000	-0.053	-0.260
-253.092	128.420	-0.078	-0.098
-252.078	-14.988	0.150	-0.095
-251.063	271.584	-0.022	0.038
-250.049	-200.000	0.029	0.226
-249.034	800.000	-0.081	0.260
-248.019	-154.880	-0.239	-0.016
-247.005	-40.825	0.183	-0.093
-245.990	263.899	0.095	0.162
-244.976	800.000	-0.111	0.440
-243.961	-15.812	0.255	-0.160
-242.946	-200.000	-0.008	-0.269
-241.932	-200.000	-0.029	-0.152
-240.917	179.449	-0.095	0.137
-239.903	-137.893	-0.269	0.030
-238.888	111.610	0.189	-0.225
-237.873	-75.995	0.136	0.047
-236.859	-72.307	-0.076	0.028
-235.844	-85.545	0.150	0.046
-234.830	-200.000	-0.002	0.134
-233.815	127.857	-0.090	0.113
-232.800	-87.235	0.093	0.028
-231.786	29.274	-0.099	-0.083
-230.771	-162.993	-0.139	-0.007
-229.757	-117.783	-0.162	0.029
-228.742	-133.581	-0.268	0.033
-227.727	800.000	-0.134	-0.436
-226.713	284.796	-0.136	-0.241
-225.698	-193.844	0.304	-0.003
-224.684	-81.998	0.274	0.088
-223.669	-1.687	0.142	-0.099
-222.655	-70.421	-0.216	-0.081
-221.640	26.963	0.156	-0.129
-220.625	800.000	-0.045	-0.161
-219.611	-75.621	0.363	0.127
-218.596	-114.195	0.230	0.044
-217.582	38.907	0.285	-0.251
-216.567	-17.317	0.406	-0.252
-215.552	-137.462	0.176	0.020
-214.538	-107.261	-0.174	0.038
-213.523	-35.867	0.247	-0.132
-212.509	14.592	-0.413	-0.318
-211.494	330.382	0.090	-0.170
-210.479	-200.000	-0.014	0.133
-209.465	-200.000	-0.064	0.324
-208.450	-103.209	0.122	0.028
-207.436	-54.863	-0.211	0.094
-206.421	163.983	-0.065	0.090
-205.406	108.964	-0.145	-0.171
-204.392	3.417	-0.183	0.131
-203.377	-200.000	-0.037	0.220
-202.363	-178.432	-0.349	-0.008
-201.348	-60.783	0.033	0.014
-200.333	-170.488	-0.182	0.006
-199.319	376.939	0.164	0.331
-198.304	-200.000	0.008	-0.078
-197.290	-112.473	0.131	-0.026
-196.275	800.000	-0.030	0.130
-195.260	-200.000	-0.024	0.336
-194.246	152.674	-0.139	0.188
-193.231	31.804	-0.059	0.050
-192.217	800.000	0.051	0.141
-191.202	-200.000	-0.037	0.198
-190.187	-200.000	0.034	-0.258
-189.173	-200.000	-0.017	-0.130
-188.158	44.285	0.299	-0.270
-187.144	-172.588	0.158	-0.005
-186.129	314.695	-0.069	0.127
-185.114	127.454	0.069	-0.086
-184.100	-200.000	0.027	0.307
-183.085	174.050	0.029	-0.041
-182.071	-200.000	-0.070	0.315
-181.056	-49.070	0.424	-0.200
-180.042	-135.891	0.183	-0.021
-179.027	365.288	0.117	0.231
-178.012	-122.703	0.151	-0.024
-176.998	3.173	-0.060	-0.043
-175.983	210.025	-0.101	-0.156
-174.969	-200.000	-0.002	0.184
-173.954	-200.000	0.038	-0.194
-172.939	404.341	0.043	0.090
-171.925	26.457	-0.233	0.192
-170.910	800.000	0.082	0.236
-169.896	-116.504	0.320	0.058
-168.881	-200.000	0.036	-0.335
-167.866	580.952	0.028	0.067
-166.852	248.408	0.134	-0.224
-165.837	-200.000	0.025	-0.114
-164.823	90.619	-0.168	0.185
-163.808	32.983	-0.006	-0.005
-162.793	-29.247	-0.363	-0.205
-161.779	-200.000	-0.174	-0.000
-160.764	125.327	-0.133	-0.165
-159.750	11.030	-0.187	-0.140
-158.735	-71.982	0.201	-0.073
-157.720	423.021	-0.012	0.025
-156.706	-123.078	-0.351	0.055
-155.691	-50.936	0.086	-0.040
-154.677	40.517	-0.055	-0.049
-153.662	113.606	-0.143	0.170
-152.647	-60.508	-0.088	-0.037
-151.633	-15.229	-0.073	-0.046
-150.618	352.063	0.245	0.477
-149.604	-31.678	-0.350	-0.193
-148.589	-165.469	0.242	-0.010
-147.574	61.697	0.131	0.128
-146.560	39.476	-0.239	-0.210
-145.545	-158.522	0.157	0.009
-144.531	800.000	0.205	-0.573
-143.516	-40.362	0.137	0.070
-142.502	175.284	0.102	-0.145
-141.487	-200.000	-0.011	-0.427
-140.472	146.578	-0.242	0.320
-139.458	245.233	0.169	0.279
-138.443	562.774	0.025	0.059
-137.429	-200.000	-0.077	0.378
-136.414	-200.000	0.015	-0.135
-135.399	-200.000	0.009	-0.079
-134.385	800.000	0.059	0.228
-133.370	60.183	0.220	-0.213
-132.356	-60.234	0.192	0.080
-131.341	-81.076	0.211	-0.069
-130.326	58.392	-0.089	-0.085
-129.312	-9.887	-0.106	0.069
-128.297	216.480	0.248	-0.388
-127.283	-66.864	-0.175	0.068
-126.268	64.946	-0.159	0.158
-125.253	800.000	0.028	-0.083
-124.239	-71.881	0.172	-0.063
-123.224	30.395	0.253	0.212
-122.210	-33.584	-0.236	0.128
-121.195	-110.098	-0.237	-0.049
-120.180	-200.000	-0.002	0.427
-119.166	-135.887	0.313	0.036
-118.151	629.283	-0.087	0.217
-117.137	800.000	0.078	0.250
-116.122	60.758	-0.110	0.107
-115.107	-63.270	0.057	-0.023
-114.093	-141.806	0.152	-0.015
-113.078	197.808	-0.091	0.137
-112.064	264.817	-0.109	0.186
-111.049	195.414	0.122	0.181
-110.034	102.382	-0.016	-0.019
-109.020	42.891	-0.172	0.154
-108.005	-140.984	0.349	-0.035
-106.991	-200.000	-0.030	0.260
-105.976	15.290	-0.051	0.039
-104.962	-200.000	-0.020	-0.213
-103.947	398.244	0.142	0.291
-102.932	-59.768	0.270	-0.113
-101.918	91.557	-0.143	0.158
-100.903	-200.000	0.006	0.155
-99.889	-39.244	0.235	0.121
-98.874	-157.131	0.251	-0.015
-97.859	30.051	0.172	0.144
-96.845	-200.000	-0.030	-0.134
-95.830	188.342	0.128	-0.188
-94.816	470.656	-0.050	-0.111
-93.801	152.626	0.140	0.188
-92.786	-200.000	0.021	-0.093
-91.772	646.460	0.067	0.168
-90.757	160.524	-0.154	0.211
-89.743	-36.433	-0.381	0.201
-88.728	-19.524	0.158	0.096
-87.713	22.875	0.118	0.094
-86.699	-26.732	-0.158	-0.090
-85.684	-20.393	-0.149	-0.090
-84.670	-200.000	0.009	0.264
-83.655	436.617	0.161	-0.344
-82.640	-99.154	0.220	0.055
-81.626	389.077	0.160	0.324
-80.611	-173.843	-0.168	-0.005
-79.597	800.000	0.027	0.074
-78.582	-151.897	0.300	0.022
-77.567	-161.836	-0.173	-0.009
-76.553	123.352	-0.257	-0.316
-75.538	-9.833	0.184	0.120
-74.524	-200.000	-0.029	-0.136
-73.509	800.000	-0.100	0.379
-72.494	-200.000	0.069	-0.421
-71.480	-157.820	0.311	0.018
-70.465	-200.000	0.047	0.265
-69.451	-114.942	0.199	0.037
-68.436	-173.997	0.135	0.004
-67.422	-102.892	0.282	0.066
-66.407	-200.000	0.008	0.308
-65.392	161.985	-0.058	0.080
-64.378	289.524	-0.070	-0.124
-63.363	-87.802	0.313	-0.092
-62.349	-200.000	-0.079	0.532
-61.334	48.366	-0.909	-0.834
-60.319	45.079	0.685	0.618
-59.305	800.000	-0.404	-1.335
-58.290	363.970	0.648	1.277
-57.276	233.098	0.942	1.517
-56.261	-200.000	114.054	644.478
-55.246	462.676	1513.339	3309.385
-54.232	146.182	2681.607	3524.839
-53.217	103.207	2159.255	2479.399
-52.203	38.760	1603.802	1402.376
-51.188	30.554	1350.054	1130.784
-50.173	27.886	1311.599	1082.733
-49.159	55.489	1367.258	1296.230
-48.144	53.788	1382.348	1300.232
-47.130	30.922	1337.823	1122.575
-46.115	27.545	1319.824	1087.319
-45.100	27.263	1314.973	1081.601
-44.086	27.219	1312.662	1079.393
-43.071	27.219	1310.066	1077.219
-42.057	27.152	1308.196	1075.239
-41.042	27.143	1306.517	1073.769
-40.027	27.258	1304.778	1072.972
-39.013	27.308	1302.657	1071.481
-37.998	27.293	1300.984	1069.975
-36.984	27.285	1299.415	1068.596
-35.969	27.380	1297.301	1067.373
-34.954	27.439	1295.864	1066.493
-33.940	27.503	1294.425	1065.639
-32.925	27.293	1293.936	1063.965
-31.911	27.428	1291.885	1063.023
-30.896	27.496	1289.814	1061.675
-29.881	27.489	1288.961	1060.890
-28.867	27.527	1287.366	1059.760
-27.852	27.533	1286.232	1058.815
-26.838	27.475	1284.756	1057.223
-25.823	27.517	1283.273	1056.205
-24.809	27.469	1281.888	1054.742
-23.794	27.411	1280.568	1053.281
-22.779	27.355	1279.402	1051.954
-21.765	27.474	1278.149	1051.572
-20.750	27.379	1277.304	1050.287
-19.736	27.528	1275.454	1049.584
-18.721	27.422	1274.470	1048.122
-17.706	27.282	1273.253	1046.275
-16.692	27.424	1272.235	1046.209
-15.677	27.420	1270.905	1045.049
-14.663	27.310	1269.825	1043.492
-13.648	27.291	1269.364	1042.961
-12.633	27.336	1268.043	1042.093
-11.619	27.301	1267.261	1041.207
-10.604	27.292	1266.282	1040.312
-9.590	27.317	1264.884	1039.266
-8.575	27.226	1264.217	1038.157
-7.560	27.261	1263.589	1037.800
-6.546	27.201	1262.712	1036.698
-5.531	27.314	1261.638	1036.419
-4.517	27.351	1260.738	1035.845
-3.502	27.234	1260.013	1034.543
-2.487	27.346	1258.655	1034.026
-1.473	27.237	1254.782	1030.186
-0.458	25.801	1239.961	1009.928
0.556	21.084	1223.041	972.994
1.571	17.448	1229.758	957.825
2.586	16.718	1244.640	965.172
3.600	16.796	1233.597	956.966
4.615	15.597	1167.212	898.974
5.629	12.983	1101.217	834.860
6.644	11.532	1085.090	815.322
7.659	11.498	1082.850	813.399
8.673	11.477	1081.533	812.233
9.688	11.502	1079.875	811.041
10.702	11.648	1077.910	810.216
11.717	13.189	1079.477	818.965
12.731	15.847	1082.575	834.439
13.746	17.784	1084.360	845.346
14.761	17.641	1084.187	844.428
15.775	16.642	1082.255	837.906
16.790	15.705	1079.495	831.065
17.804	14.906	1078.471	826.260
18.819	14.379	1077.190	822.603
19.834	14.261	1075.931	820.986
20.848	14.032	1075.161	819.196
21.863	13.844	1074.109	817.398
22.877	13.713	1073.311	816.073
23.892	13.612	1072.817	815.129
24.907	13.590	1072.194	814.474
25.921	13.620	1070.849	813.529
26.936	13.697	1069.573	812.863
27.950	13.664	1068.593	811.886
28.965	13.703	1066.808	810.649
29.980	13.865	1065.050	810.033
30.994	13.877	1064.065	809.269
32.009	13.831	1063.073	808.220
33.023	13.744	1062.328	807.157
34.038	13.757	1061.487	806.510
35.053	13.698	1060.129	805.122
36.067	13.707	1059.444	804.575
37.082	13.811	1058.772	804.497
38.096	13.819	1057.953	803.840
39.111	13.851	1056.973	803.181
40.126	13.709	1055.652	801.422
41.140	13.581	1054.322	799.721
42.155	13.611	1053.330	799.043
43.169	13.386	1052.683	797.398
44.184	13.463	1051.516	796.812
45.199	13.571	1050.531	796.516
46.213	13.684	1049.135	795.930
47.228	13.652	1048.556	795.267
48.242	13.631	1047.693	794.441
49.257	13.659	1046.206	793.374
50.271	13.772	1045.136	793.037
51.286	13.789	1044.434	792.515
52.301	13.655	1043.469	791.071
53.315	13.721	1042.389	790.496
54.330	13.608	1041.430	789.160
55.344	13.537	1040.934	788.378
56.359	13.645	1039.338	787.615
57.374	13.637	1038.671	786.998
58.388	13.532	1037.663	785.669
59.403	13.576	1036.916	785.244
60.417	13.528	1036.115	784.340
61.432	13.534	1035.235	783.632
62.447	13.353	1034.636	782.253
63.461	13.407	1033.881	781.870
64.476	13.563	1032.816	781.732
65.490	13.490	1031.991	780.694
66.505	13.435	1031.174	779.748
67.520	13.589	1030.430	779.841
68.534	13.469	1029.687	778.642
69.549	13.509	1029.216	778.408
70.563	13.509	1027.975	777.401
71.578	13.384	1027.378	776.294
72.593	13.436	1026.622	775.897
73.607	13.412	1026.328	775.493
74.622	13.398	1025.307	774.590
75.636	13.328	1025.012	773.970
76.651	13.461	1024.016	773.770
77.666	13.378	1023.721	773.091
78.680	13.387	1022.860	772.414
79.695	13.419	1022.214	772.006
80.709	13.413	1021.808	771.602
81.724	13.535	1020.801	771.344
82.739	13.649	1019.848	771.086
83.753	13.720	1019.300	770.935
84.768	13.765	1018.650	770.582
85.782	13.835	1017.882	770.260
86.797	13.701	1016.896	768.823
87.812	13.736	1016.230	768.414
88.826	13.713	1014.914	767.245
89.841	13.705	1014.025	766.467
90.855	13.875	1013.064	766.459
91.870	13.786	1012.376	765.460
92.884	13.691	1011.665	764.417
93.899	13.872	1010.718	764.467
94.914	13.832	1010.008	763.679
95.928	13.979	1008.833	763.398
96.943	13.853	1008.155	762.238
97.957	13.790	1007.684	761.524
98.972	13.850	1006.165	760.586
99.987	13.730	1005.528	759.485
101.001	13.798	1004.548	758.992
102.016	13.788	1003.630	758.185
103.030	13.866	1002.759	757.816
104.045	13.910	1001.764	757.196
105.060	13.703	1001.314	755.845
106.074	13.705	999.785	754.635
107.089	13.547	999.007	753.263
108.103	13.650	998.159	753.024
109.118	13.618	997.410	752.245
110.133	13.660	996.218	751.473
111.147	13.626	994.888	750.245
112.162	13.539	994.770	749.698
113.176	13.581	993.771	749.067
114.191	13.701	992.656	748.703
115.206	13.784	992.251	748.708
116.220	13.819	991.311	748.088
117.235	13.685	990.251	746.619
118.249	13.558	989.711	745.577
119.264	13.625	988.906	745.204
120.279	13.581	988.257	744.452
121.293	13.584	987.348	743.712
122.308	13.633	986.293	743.074
123.322	13.584	985.340	742.068
124.337	13.645	983.696	741.041
125.352	13.621	982.744	740.151
126.366	13.571	981.810	739.158
127.381	13.511	980.980	738.199
128.395	13.529	980.235	737.654
129.410	13.597	978.986	736.952
130.424	13.694	978.384	736.862
131.439	13.678	977.648	736.174
132.454	13.764	976.342	735.504
133.468	13.822	976.066	735.488
134.483	13.689	975.170	734.162
135.497	13.618	974.413	733.213
136.512	13.799	973.027	732.902
137.527	13.739	972.755	732.370
138.541	13.692	972.230	731.704
139.556	13.784	971.245	731.299
140.570	13.838	970.775	731.119
141.585	13.811	969.913	730.286
142.600	13.920	968.846	729.901
143.614	13.866	968.264	729.159
144.629	13.942	967.507	728.857
145.643	13.916	966.423	727.861
146.658	13.841	965.376	726.680
147.673	13.777	964.293	725.520
148.687	13.739	963.386	724.611
149.702	13.847	962.438	724.303
150.716	13.863	961.869	723.879
151.731	13.864	960.848	723.055
152.746	13.890	960.876	723.124
153.760	13.969	959.901	722.671
154.775	13.899	959.807	722.230
155.789	13.960	958.539	721.476
156.804	13.955	958.022	721.004
157.819	13.918	957.319	720.248
158.833	14.114	956.517	720.430
159.848	14.083	955.415	719.404
160.862	14.028	954.740	718.592
161.877	13.918	953.496	717.119
162.892	13.895	952.779	716.415
163.906	13.888	951.459	715.332
164.921	13.910	950.984	715.003
165.935	14.135	949.487	714.784
166.950	13.978	949.137	713.784
167.964	14.120	947.929	713.421
168.979	14.054	947.388	712.666
169.994	14.019	946.467	711.763
171.008	13.987	945.596	710.905
172.023	14.095	945.009	710.863
173.037	14.199	944.273	710.691
174.052	14.037	943.886	709.646
175.067	14.012	943.200	708.960
176.081	14.043	942.353	708.394
177.096	13.963	941.857	707.616
178.110	14.109	940.950	707.493
179.125	14.102	940.320	706.929
180.140	14.157	940.251	707.046
181.154	14.173	939.963	706.836
182.169	14.109	939.365	706.054
183.183	14.217	938.243	705.606
184.198	14.233	937.762	705.247
185.213	14.182	937.278	704.606
186.227	14.317	936.442	704.483
187.242	14.376	935.759	704.159
188.256	14.338	935.281	703.577
189.271	14.341	934.341	702.821
190.286	14.237	933.476	701.669
191.300	14.134	932.864	700.711
192.315	14.220	931.805	700.216
193.329	14.082	931.607	699.424
194.344	14.076	931.352	699.146
195.359	14.358	930.256	699.448
196.373	14.255	930.112	698.845
197.388	14.344	929.459	698.666
198.402	14.424	929.266	698.792
199.417	14.677	928.238	699.019
200.432	14.510	927.591	697.770
201.446	14.498	927.435	697.543
202.461	14.559	926.862	697.304
203.475	14.597	926.159	696.870
204.490	14.612	925.208	696.158
205.504	14.555	924.304	695.177
206.519	14.525	923.949	694.722
207.534	14.432	923.146	693.671
208.548	14.510	922.493	693.445
209.563	14.456	921.838	692.666
210.577	14.607	920.821	692.466
211.592	14.689	920.324	692.372
212.607	14.677	919.686	691.783
213.621	14.737	918.908	691.382
214.636	14.620	918.150	690.268
215.650	14.611	917.596	689.754
216.665	14.752	916.838	689.703
217.680	14.795	915.898	689.115
218.694	14.730	915.661	688.607
219.709	14.758	915.063	688.213
220.723	14.702	914.144	687.226
221.738	14.822	913.218	686.963
222.753	14.706	912.820	686.128
223.767	14.796	912.303	686.049
224.782	14.816	911.782	685.679
225.796	14.863	911.273	685.426
226.811	14.997	910.517	685.346
227.826	14.896	909.793	684.328
228.840	14.902	909.015	683.705
229.855	14.794	908.348	682.702
230.869	14.981	907.309	682.623
231.884	14.858	906.593	681.524
232.899	14.885	905.787	680.969
233.913	14.778	905.545	680.289
234.928	14.827	904.882	679.933
235.942	14.826	904.286	679.418
236.957	14.937	903.132	678.942
237.972	14.977	902.794	678.791
238.986	14.669	903.078	677.696
240.001	14.874	901.740	677.463
241.015	14.897	901.256	677.131
242.030	14.994	900.516	676.909
243.045	14.956	900.049	676.342
244.059	14.996	899.301	675.881
245.074	14.945	898.763	675.210
246.088	14.932	898.267	674.729
247.103	15.063	897.648	674.733
248.117	15.165	896.893	674.515
249.132	15.179	896.481	674.201
250.147	15.418	895.664	674.488
251.161	15.333	895.139	673.692
252.176	15.261	894.938	673.191
253.190	15.361	893.639	672.556
254.205	15.371	893.281	672.269
255.220	15.308	892.420	671.308
256.234	15.360	891.833	671.016
257.249	15.458	891.129	670.816
258.263	15.456	890.468	670.252
259.278	15.476	889.870	669.824
260.293	15.547	889.250	669.581
261.307	15.589	888.702	669.275
262.322	15.522	888.188	668.562
263.336	15.563	887.364	668.043
264.351	15.624	886.474	667.561
265.366	15.521	886.187	666.872
266.380	15.670	885.446	666.850
267.395	15.603	884.705	665.966
268.409	15.522	883.934	665.007
269.424	15.553	883.026	664.386
270.439	15.727	881.920	664.182
271.453	15.626	881.727	663.581
272.468	15.391	881.730	662.596
273.482	15.580	880.824	662.600
274.497	15.693	879.990	662.362
275.512	15.587	879.756	661.710
276.526	15.685	878.723	661.258
277.541	15.755	878.386	661.222
278.555	15.753	877.833	660.738
279.570	15.864	877.163	660.613
280.585	15.813	876.053	659.519
281.599	15.740	875.691	658.900
282.614	15.775	874.783	658.296
283.628	15.724	874.348	657.711
284.643	15.762	873.868	657.439
285.657	15.823	873.030	656.991
286.672	15.831	872.650	656.677
287.687	15.798	871.780	655.836
288.701	15.878	871.631	655.976
289.716	15.878	871.026	655.466
290.730	15.830	870.549	654.858
291.745	15.951	869.443	654.442
292.760	15.998	868.982	654.219
293.774	15.923	868.357	653.399
294.789	15.923	867.976	653.056
295.803	15.865	867.114	652.123
296.818	15.949	866.183	651.691
297.833	16.128	865.526	651.829
298.847	16.155	864.971	651.458
299.862	16.019	864.677	650.654
300.876	15.980	864.305	650.166
301.891	16.017	863.578	649.704
302.906	16.248	862.656	649.845
303.920	16.163	862.946	649.678
304.935	16.229	861.904	649.088
305.949	16.251	861.278	648.645
306.964	16.219	861.076	648.313
307.979	16.325	860.020	647.867
308.993	16.160	859.729	646.957
310.008	16.379	858.905	647.118
311.022	16.276	858.211	646.145
312.037	16.257	857.527	645.501
313.052	16.228	857.043	644.969
314.066	16.135	856.688	644.290
315.081	16.239	856.244	644.293
316.095	16.178	855.613	643.531
317.110	16.176	855.052	643.043
318.125	16.293	854.370	642.918
319.139	16.212	854.136	642.376
320.154	16.263	853.484	642.023
321.168	16.264	853.069	641.661
322.183	16.259	852.445	641.112
323.197	16.414	851.814	641.172
324.212	16.301	851.201	640.225
325.227	16.248	850.687	639.580
326.241	16.200	850.206	638.980
327.256	16.250	849.745	638.766
328.270	16.136	849.184	637.859
329.285	16.418	848.432	638.302
330.300	16.321	847.883	637.467
331.314	16.331	847.385	637.073
332.329	16.454	846.955	637.155
333.343	16.513	846.712	637.142
334.358	16.382	846.423	636.373
335.373	16.414	845.774	635.949
336.387	16.522	845.317	635.956
337.402	16.577	844.955	635.833
338.416	16.746	844.453	636.032
339.431	16.604	844.182	635.242
340.446	16.607	844.073	635.112
341.460	16.676	843.672	635.012
342.475	16.658	843.183	634.524
343.489	16.804	842.675	634.630
344.504	16.721	841.841	633.634
345.519	16.771	841.903	633.814
346.533	16.717	841.212	633.037
347.548	16.741	840.370	632.435
348.562	16.749	839.846	632.013
349.577	16.765	839.224	631.550
350.592	16.736	838.639	630.947
351.606	16.580	838.108	629.910
352.621	16.797	837.213	629.987
353.635	16.879	836.560	629.745
354.650	16.747	836.316	629.018
355.665	16.879	835.545	628.869
356.679	16.866	834.819	628.220
357.694	16.897	833.903	627.591
358.708	16.915	833.278	627.133
359.723	16.851	833.522	627.023
360.738	17.044	832.470	626.888
361.752	16.988	831.751	626.084
362.767	16.903	831.340	625.406
363.781	16.971	830.723	625.138
364.796	17.141	830.213	625.326
365.810	17.130	830.018	625.084
366.825	17.182	829.610	624.911
367.840	17.089	829.276	624.262
368.854	17.010	828.803	623.559
369.869	17.131	828.050	623.383
370.883	17.233	827.690	623.430
371.898	17.148	827.402	622.847
372.913	17.088	827.128	622.366
373.927	17.303	826.609	622.708
374.942	17.249	825.808	621.852
375.956	17.376	825.102	621.731
376.971	17.373	824.985	621.577
377.986	17.407	824.782	621.492
379.000	17.358	824.214	620.829
380.015	17.363	823.575	620.311
381.029	17.247	823.242	619.584
382.044	17.458	822.568	619.790
383.059	17.347	822.430	619.226
384.073	17.402	821.511	618.681
385.088	17.505	820.591	618.307
386.102	17.346	820.541	617.636
387.117	17.393	819.610	617.052
388.132	17.433	818.954	616.648
389.146	17.447	818.704	616.457
390.161	17.492	818.182	616.173
391.175	17.514	817.629	615.781
392.190	17.525	817.214	615.453
393.205	17.530	816.332	614.752
394.219	17.386	816.333	614.177
395.234	17.410	816.052	614.000
396.248	17.434	815.307	613.472
397.263	17.340	814.862	612.744
398.278	17.349	814.772	612.654
399.292	17.350	814.436	612.350
400.307	17.329	813.959	611.861
401.321	17.389	813.241	611.484
402.336	17.565	812.536	611.533
403.350	17.541	812.263	611.188
404.365	17.636	812.247	611.460
405.380	17.547	811.672	610.655
406.394	17.573	811.159	610.307
407.409	17.577	810.742	609.956
408.423	17.680	810.548	610.121
409.438	17.823	809.944	610.127
410.453	17.662	809.443	609.120
411.467	17.831	808.735	609.136
412.482	17.912	808.431	609.143
413.496	17.926	807.993	608.806
414.511	17.846	807.657	608.217
415.526	17.940	807.153	608.116
416.540	17.878	806.708	607.506
417.555	17.771	806.317	606.780
418.569	17.906	806.048	607.004
419.584	18.037	805.370	606.903
420.599	18.090	804.836	606.635
421.613	111.803	1294.446	1477.069
422.628	96.473	1365.749	1477.174
