DTS Sentinel unit serial number:	SN413079Multiplexer serial number:	ORYXHardware model number:	OX4-SRSoftware version number:	ORYX F/W v4.00 Oryx Data Collector v3.7.2.0data status	okinstallation	princeton_trtdifferential loss correction	single-endedforward channel	channel 1reverse channel	N/Adate	2019/09/18time	23:46:35forward acquisition time	60.00reverse acquisition time	0.00gamma	496.2192k internal	0.2342k external	0.2342temperature offset calibration	1.0019default loss term (dB/km)	0.3790temperature slope calibration	1.0000multiplexer offset coefficient	1.0000multiplexer slope coefficient	1.0000fibre end	0.00T internal ref (°C)	23.37T ext. ref 1 (°C)	0.75T ext. ref 2 (°C)	16.24length (m)	temperature (°C)	Stokes	anti-Stokes-747.200	-97.491	-0.154	0.040
-746.185	77.161	-0.136	0.145
-745.171	250.711	0.105	0.178
-744.156	-48.581	0.035	-0.017
-743.142	363.178	-0.101	-0.203
-742.127	-200.000	-0.063	0.284
-741.112	-162.536	-0.384	-0.019
-740.098	-200.000	0.096	0.587
-739.083	-200.000	-0.067	0.345
-738.069	76.926	-0.111	-0.118
-737.054	43.831	0.208	-0.191
-736.039	91.657	-0.138	-0.156
-735.025	163.773	0.048	0.068
-734.010	43.397	-0.101	-0.092
-732.996	-200.000	0.011	-0.177
-731.981	800.000	-0.049	-0.207
-730.966	800.000	0.107	-0.363
-729.952	110.410	-0.305	0.367
-728.937	96.179	-0.161	-0.184
-727.923	-132.750	0.198	-0.025
-726.908	96.269	-0.177	0.203
-725.894	719.612	-0.255	-0.677
-724.879	800.000	-0.122	-0.383
-723.864	800.000	-0.093	0.274
-722.850	194.137	-0.205	0.311
-721.835	-200.000	-0.032	0.152
-720.821	-145.408	-0.118	-0.011
-719.806	800.000	-0.025	-0.100
-718.791	-160.035	0.218	0.012
-717.777	-62.323	-0.229	0.095
-716.762	343.865	0.066	0.130
-715.748	66.960	0.116	-0.118
-714.733	29.644	-0.217	0.185
-713.718	-104.000	-0.478	-0.111
-712.704	-0.399	0.135	-0.096
-711.689	-124.331	0.091	-0.014
-710.675	45.352	-0.169	0.156
-709.660	-200.000	0.318	0.001
-708.645	-75.412	-0.113	0.040
-707.631	-200.000	0.042	-0.348
-706.616	-78.554	-0.256	-0.088
-705.602	-200.000	-0.008	0.300
-704.587	47.806	-0.270	0.252
-703.572	-117.972	0.424	0.076
-702.558	-200.000	0.049	0.331
-701.543	800.000	0.126	0.426
-700.529	605.921	0.064	0.159
-699.514	800.000	0.076	-0.305
-698.499	42.564	-0.032	0.029
-697.485	284.646	-0.105	0.188
-696.470	-200.000	-0.018	0.120
-695.456	-200.000	-0.011	-0.252
-694.441	-41.019	0.167	0.086
-693.426	800.000	-0.045	-0.144
-692.412	17.419	-0.270	0.214
-691.397	16.604	-0.232	-0.183
-690.383	-5.952	0.146	-0.100
-689.368	27.144	0.140	-0.118
-688.354	-64.205	0.192	0.078
-687.339	-200.000	0.014	-0.235
-686.324	163.622	-0.042	-0.060
-685.310	-17.183	-0.204	-0.129
-684.295	19.644	0.181	-0.145
-683.281	178.518	-0.127	-0.186
-682.266	-46.175	-0.110	-0.054
-681.251	800.000	0.026	-0.095
-680.237	308.345	0.085	-0.159
-679.222	32.875	-0.112	0.097
-678.208	-22.542	-0.390	-0.236
-677.193	112.692	-0.219	-0.265
-676.178	-83.820	-0.206	0.066
-675.164	-200.000	-0.001	-0.153
-674.149	-200.000	0.016	0.236
-673.135	403.134	0.030	0.062
-672.120	29.932	0.155	-0.132
-671.105	-71.223	-0.171	-0.064
-670.091	-15.722	0.356	0.227
-669.076	-66.739	-0.134	-0.053
-668.062	300.665	0.112	0.206
-667.047	-200.000	-0.009	-0.203
-666.032	42.756	-0.154	0.140
-665.018	407.811	0.040	-0.085
-664.003	-138.304	-0.075	-0.008
-662.989	644.868	0.015	-0.038
-661.974	-76.792	0.108	-0.038
-660.959	103.861	-0.122	-0.143
-659.945	45.726	0.196	0.181
-658.930	-145.623	0.117	-0.010
-657.916	-127.460	-0.184	0.027
-656.901	-200.000	0.023	-0.235
-655.886	308.827	0.073	-0.136
-654.872	-79.697	0.273	0.092
-653.857	-33.196	-0.204	0.113
-652.843	144.581	0.028	-0.037
-651.828	59.364	0.353	0.347
-650.814	-160.663	-0.175	-0.009
-649.799	-76.624	0.297	-0.104
-648.784	-74.130	0.373	0.135
-647.770	-200.000	0.021	0.198
-646.755	-84.550	-0.109	0.034
-645.741	800.000	-0.038	-0.142
-644.726	468.923	0.164	-0.368
-643.711	-200.000	0.023	-0.335
-642.697	-70.776	0.145	-0.054
-641.682	-200.000	0.035	-0.179
-640.668	-200.000	0.057	0.288
-639.653	241.320	-0.039	0.066
-638.638	800.000	-0.202	-0.597
-637.624	493.500	0.064	-0.146
-636.609	-118.718	-0.131	0.023
-635.595	-200.000	0.004	0.021
-634.580	-39.202	-0.210	-0.110
-633.565	274.259	-0.167	-0.294
-632.551	-40.203	-0.247	-0.128
-631.536	-62.359	-0.459	-0.190
-630.522	-132.271	0.203	0.026
-629.507	210.872	-0.052	-0.082
-628.492	97.852	0.094	-0.108
-627.478	-74.878	-0.256	-0.092
-626.463	98.888	0.159	0.183
-625.449	57.809	-0.118	0.115
-624.434	127.908	-0.188	-0.239
-623.419	22.278	-0.089	-0.072
-622.405	-3.196	-0.210	-0.146
-621.390	153.181	0.154	0.210
-620.376	800.000	-0.090	0.380
-619.361	31.172	0.115	0.098
-618.346	17.995	-0.031	0.025
-617.332	-200.000	0.023	0.220
-616.317	-36.413	-0.140	0.075
-615.303	-200.000	-0.021	0.213
-614.288	-39.132	-0.279	-0.146
-613.273	-29.401	0.265	0.151
-612.259	-100.277	-0.219	-0.054
-611.244	-200.000	-0.036	-0.164
-610.230	75.566	-0.178	-0.187
-609.215	143.216	-0.128	-0.170
-608.201	-106.428	-0.237	0.053
-607.186	-159.484	0.224	-0.012
-606.171	-10.429	-0.107	-0.071
-605.157	-13.880	0.056	-0.036
-604.142	800.000	-0.080	-0.293
-603.128	-41.328	-0.196	-0.100
-602.113	522.930	0.181	-0.422
-601.098	-130.404	-0.141	0.019
-600.084	87.277	0.275	0.303
-599.069	348.411	-0.088	0.174
-598.055	-112.633	0.213	0.042
-597.040	-29.497	-0.254	-0.144
-596.025	-128.002	-0.188	-0.027
-595.011	65.626	0.071	0.071
-593.996	800.000	-0.047	-0.165
-592.982	-81.312	-0.083	0.027
-591.967	-130.814	-0.330	-0.044
-590.952	-163.600	0.369	-0.017
-589.938	22.682	-0.246	0.200
-588.923	259.273	0.189	0.325
-587.909	-38.085	0.405	0.214
-586.894	-53.093	0.118	-0.054
-585.879	135.339	-0.104	0.135
-584.865	-200.000	-0.019	0.300
-583.850	-47.910	0.405	-0.195
-582.836	85.175	-0.121	-0.132
-581.821	-141.677	0.311	0.031
-580.806	-155.831	-0.171	0.011
-579.792	58.586	0.343	-0.335
-578.777	156.522	-0.175	0.240
-577.763	-200.000	0.024	0.114
-576.748	-165.236	-0.307	-0.013
-575.733	-200.000	-0.025	-0.313
-574.719	33.596	0.209	-0.181
-573.704	166.608	-0.183	-0.258
-572.690	800.000	-0.036	0.109
-571.675	-200.000	-0.017	0.226
-570.661	-200.000	-0.007	-0.061
-569.646	-36.281	0.068	0.036
-568.631	-104.754	-0.067	0.015
-567.617	37.178	0.117	-0.103
-566.602	215.202	0.222	-0.350
-565.588	-128.273	-0.176	-0.025
-564.573	-200.000	0.007	0.097
-563.558	54.897	-0.282	0.271
-562.544	377.680	0.147	-0.299
-561.529	-200.000	-0.043	0.381
-560.515	-200.000	-0.041	-0.320
-559.500	64.502	-0.288	0.288
-558.485	-200.000	-0.038	-0.263
-557.471	361.760	-0.151	0.302
-556.456	-93.283	-0.400	0.111
-555.442	-200.000	-0.045	0.255
-554.427	-74.692	-0.388	0.139
-553.412	-103.220	0.086	0.020
-552.398	130.071	-0.086	0.109
-551.383	800.000	0.023	-0.094
-550.369	-130.096	0.056	0.008
-549.354	-49.472	0.160	-0.076
-548.339	-200.000	0.055	-0.443
-547.325	497.242	0.188	-0.429
-546.310	-34.484	0.169	0.092
-545.296	-94.725	-0.398	0.107
-544.281	23.053	-0.223	0.182
-543.266	110.196	0.285	0.340
-542.252	-134.822	-0.413	0.050
-541.237	-16.500	-0.125	0.079
-540.223	-112.491	0.237	-0.047
-539.208	250.479	-0.189	0.319
-538.193	-25.023	-0.288	0.170
-537.179	-160.079	0.455	0.025
-536.164	-200.000	0.047	-0.316
-535.150	23.295	0.165	-0.135
-534.135	-200.000	-0.004	-0.289
-533.121	-51.178	-0.211	0.098
-532.106	-42.038	0.169	0.086
-531.091	-47.720	0.420	0.202
-530.077	-118.602	0.227	0.040
-529.062	32.241	-0.106	0.091
-528.048	-78.627	-0.086	-0.029
-527.033	800.000	-0.068	-0.246
-526.018	-200.000	0.414	0.001
-525.004	800.000	-0.029	-0.103
-523.989	-29.720	0.110	-0.062
-522.975	461.646	-0.045	0.099
-521.960	22.066	-0.105	0.085
-520.945	384.935	-0.124	0.253
-519.931	-140.552	0.418	-0.043
-518.916	-36.405	0.306	-0.164
-517.902	-160.844	0.175	-0.009
-516.887	-37.080	0.015	0.008
-515.872	800.000	0.037	-0.104
-514.858	-3.316	0.016	0.011
-513.843	84.053	-0.325	-0.352
-512.829	-158.167	-0.122	-0.007
-511.814	66.946	0.063	-0.064
-510.799	-107.676	-0.178	-0.039
-509.785	82.873	-0.170	0.183
-508.770	-200.000	-0.024	0.172
-507.756	211.104	-0.209	-0.326
-506.741	-200.000	0.029	0.212
-505.726	800.000	-0.058	0.245
-504.712	-175.614	0.290	0.008
-503.697	-106.883	-0.140	-0.031
-502.683	-67.207	0.035	0.014
-501.668	-200.000	-0.056	-0.346
-500.653	-24.946	0.194	0.114
-499.639	140.733	0.144	0.189
-498.624	136.767	-0.197	-0.255
-497.610	78.771	-0.158	-0.168
-496.595	-77.946	-0.421	-0.144
-495.581	-123.245	0.307	-0.049
-494.566	-98.895	0.210	0.053
-493.551	-9.132	-0.172	-0.114
-492.537	-200.000	0.013	0.086
-491.522	-121.129	0.326	-0.054
-490.508	-34.717	0.266	0.144
-489.493	800.000	0.049	0.213
-488.478	-146.943	-0.154	0.013
-487.464	143.446	-0.135	-0.179
-486.449	2.170	-0.114	0.082
-485.435	112.964	0.233	0.280
-484.420	800.000	-0.060	0.214
-483.405	122.906	0.121	-0.150
-482.391	-103.984	0.226	-0.052
-481.376	-200.000	0.015	-0.096
-480.362	-89.307	-0.216	0.063
-479.347	-93.441	0.285	0.078
-478.332	-47.174	-0.200	-0.097
-477.318	79.940	0.130	0.138
-476.303	-105.099	0.095	-0.021
-475.289	800.000	-0.077	0.266
-474.274	-200.000	-0.073	0.327
-473.259	-1.200	-0.054	0.038
-472.245	-4.811	0.054	-0.037
-471.230	236.596	-0.224	-0.368
-470.216	800.000	-0.122	-0.354
-469.201	25.101	-0.188	0.154
-468.186	-85.809	-0.160	0.049
-467.172	-200.000	-0.029	0.128
-466.157	322.042	-0.126	0.238
-465.143	688.318	-0.109	0.282
-464.128	800.000	0.012	-0.033
-463.113	800.000	0.057	-0.173
-462.099	128.048	0.040	-0.050
-461.084	-200.000	0.006	0.172
-460.070	11.385	-0.129	-0.098
-459.055	14.459	-0.210	0.163
-458.040	-79.323	-0.337	-0.113
-457.026	40.141	0.091	-0.081
-456.011	10.654	-0.137	-0.103
-454.997	132.831	-0.234	-0.299
-453.982	-200.000	-0.009	-0.176
-452.968	-63.861	0.153	-0.062
-451.953	214.472	-0.158	0.248
-450.938	-11.773	-0.195	-0.127
-449.924	8.243	0.157	0.117
-448.909	-166.507	-0.179	-0.007
-447.895	494.074	0.083	0.188
-446.880	51.824	-0.098	-0.092
-445.865	-116.209	0.063	0.012
-444.851	92.393	0.012	-0.014
-443.836	-200.000	-0.039	-0.187
-442.822	-51.232	-0.438	-0.203
-441.807	158.565	0.173	-0.237
-440.792	-200.000	0.019	-0.161
-439.778	752.954	0.127	-0.340
-438.763	629.910	0.066	-0.166
-437.749	-107.907	-0.151	-0.032
-436.734	91.750	0.138	0.154
-435.719	36.019	0.080	0.069
-434.705	-39.825	0.264	0.137
-433.690	800.000	0.003	0.014
-432.676	79.799	0.264	-0.281
-431.661	-68.025	0.278	-0.107
-430.646	-133.627	-0.205	-0.025
-429.632	76.424	-0.327	-0.342
-428.617	106.535	0.136	-0.160
-427.603	-88.161	-0.204	-0.060
-426.588	235.906	0.093	-0.153
-425.573	591.047	0.082	-0.200
-424.559	74.829	-0.151	-0.157
-423.544	-157.891	0.306	-0.018
-422.530	-200.000	-0.011	-0.281
-421.515	-15.778	0.292	0.184
-420.500	24.584	-0.276	0.226
-419.486	300.146	0.212	0.386
-418.471	-145.868	-0.253	-0.022
-417.457	110.168	-0.064	0.076
-416.442	47.846	0.101	-0.094
-415.428	-121.441	-0.225	0.037
-414.413	704.419	-0.024	0.062
-413.398	800.000	0.062	-0.216
-412.384	-76.176	0.385	0.134
-411.369	-108.199	-0.536	-0.115
-410.355	-80.029	-0.041	-0.014
-409.340	9.950	-0.389	0.292
-408.325	-200.000	-0.001	-0.087
-407.311	-200.000	-0.010	-0.074
-406.296	-200.000	-0.017	-0.180
-405.282	649.009	-0.061	0.154
-404.267	245.086	0.182	0.303
-403.252	-40.070	0.218	-0.112
-402.238	-200.000	0.005	0.277
-401.223	-96.182	0.226	-0.059
-400.209	180.730	0.180	0.262
-399.194	419.251	0.152	0.321
-398.179	3.056	-0.239	0.171
-397.165	800.000	0.070	-0.302
-396.150	800.000	-0.037	-0.152
-395.136	-38.062	-0.200	0.105
-394.121	800.000	0.014	0.049
-393.106	800.000	0.036	0.154
-392.092	77.924	0.206	-0.217
-391.077	487.192	0.082	-0.185
-390.063	5.080	0.138	-0.100
-389.048	-129.287	-0.234	0.032
-388.033	-93.136	0.219	0.060
-387.019	196.653	-0.002	-0.003
-386.004	-200.000	0.055	-0.261
-384.990	-161.941	-0.230	0.012
-383.975	45.718	0.094	0.085
-382.960	-42.464	-0.209	-0.105
-381.946	26.361	0.046	-0.038
-380.931	117.430	0.048	0.058
-379.917	396.905	-0.052	-0.108
-378.902	-200.000	0.014	-0.112
-377.888	-200.000	-0.002	-0.247
-376.873	-126.246	0.154	0.023
-375.858	283.378	-0.098	0.174
-374.844	122.077	-0.069	-0.084
-373.829	304.238	-0.190	0.348
-372.815	-63.269	-0.164	0.067
-371.800	383.005	-0.168	-0.341
-370.785	93.135	-0.273	-0.305
-369.771	-67.094	-0.103	-0.040
-368.756	-32.203	0.148	-0.081
-367.742	-143.749	0.047	-0.004
-366.727	800.000	0.020	-0.055
-365.712	709.438	-0.101	0.262
-364.698	-110.974	0.278	-0.056
-363.683	-46.940	0.157	0.076
-362.669	-200.000	-0.012	-0.274
-361.654	19.662	0.067	-0.053
-360.639	-89.429	-0.045	0.013
-359.625	-92.915	-0.258	0.071
-358.610	-200.000	0.308	-0.000
-357.596	399.800	0.036	-0.075
-356.581	-53.927	0.221	-0.099
-355.566	161.463	0.195	-0.270
-354.552	191.391	0.110	-0.164
-353.537	17.204	0.089	-0.070
-352.523	-98.412	0.021	-0.005
-351.508	176.514	-0.305	0.437
-350.493	800.000	0.047	-0.161
-349.479	-41.662	-0.178	-0.090
-348.464	-45.331	-0.485	0.237
-347.450	227.113	0.127	0.204
-346.435	135.710	-0.280	0.360
-345.420	-14.135	-0.138	0.088
-344.406	-200.000	0.070	0.356
-343.391	211.029	0.087	-0.135
-342.377	-17.933	0.430	-0.266
-341.362	-147.052	0.194	0.016
-340.348	47.804	-0.125	0.115
-339.333	-85.173	0.037	-0.011
-338.318	85.830	-0.067	-0.073
-337.304	32.429	0.029	0.025
-336.289	-200.000	0.005	-0.089
-335.275	-200.000	0.042	-0.315
-334.260	9.618	-0.153	0.114
-333.245	3.016	0.109	0.078
-332.231	800.000	-0.041	-0.168
-331.216	-54.455	-0.149	-0.067
-330.202	800.000	-0.048	-0.156
-329.187	116.638	0.158	-0.191
-328.172	800.000	-0.041	-0.158
-327.158	-200.000	0.038	-0.382
-326.143	-96.769	0.038	0.010
-325.129	-126.811	0.364	-0.053
-324.114	9.566	0.129	-0.096
-323.099	-43.577	-0.165	0.082
-322.085	5.046	0.189	0.137
-321.070	-2.375	0.114	-0.079
-320.056	-200.000	0.029	0.488
-319.041	800.000	-0.025	-0.094
-318.026	-57.807	-0.045	-0.020
-317.012	271.292	0.147	0.255
-315.997	-30.495	-0.320	0.179
-314.983	-105.109	-0.183	0.041
-313.968	-200.000	0.042	-0.199
-312.953	-78.737	0.167	0.056
-311.939	285.846	-0.094	-0.167
-310.924	95.514	-0.056	-0.062
-309.910	218.779	-0.109	-0.172
-308.895	-175.742	-0.038	-0.001
-307.880	260.715	-0.015	-0.026
-306.866	-200.000	-0.023	-0.316
-305.851	99.506	0.208	-0.237
-304.837	679.886	0.024	0.062
-303.822	-200.000	0.035	0.223
-302.807	-164.105	0.267	-0.012
-301.793	-177.041	0.310	-0.008
-300.778	-81.303	0.152	0.049
-299.764	-97.478	0.558	0.143
-298.749	50.189	-0.159	0.148
-297.735	800.000	-0.067	-0.191
-296.720	-200.000	-0.026	0.217
-295.705	119.767	0.130	-0.158
-294.691	62.582	0.120	-0.118
-293.676	664.828	-0.063	0.160
-292.662	-200.000	0.041	0.177
-291.647	-74.373	0.272	-0.096
-290.632	800.000	0.051	-0.191
-289.618	-200.000	0.008	-0.369
-288.603	800.000	0.078	0.223
-287.589	-92.336	-0.221	0.061
-286.574	163.266	-0.151	-0.208
-285.559	-90.404	0.314	-0.090
-284.545	-57.235	-0.177	-0.077
-283.530	-79.743	0.105	0.035
-282.516	6.915	0.151	0.110
-281.501	-62.706	-0.301	0.123
-280.486	-112.644	0.375	0.073
-279.472	50.021	0.271	0.251
-278.457	-200.000	0.041	0.198
-277.443	-105.387	0.168	0.038
-276.428	-172.883	-0.127	0.004
-275.413	-200.000	-0.045	0.225
-274.399	95.227	-0.152	-0.170
-273.384	152.760	-0.096	0.128
-272.370	188.792	-0.039	0.058
-271.355	690.520	-0.080	0.207
-270.340	800.000	0.071	0.256
-269.326	-200.000	-0.063	0.369
-268.311	212.194	0.107	-0.165
-267.297	-139.993	-0.157	-0.016
-266.282	-128.525	0.142	-0.020
-265.267	467.882	-0.027	-0.059
-264.253	800.000	-0.036	-0.132
-263.238	48.100	-0.172	0.158
-262.224	-71.044	0.293	0.108
-261.209	-106.161	0.136	-0.030
-260.195	-116.203	-0.322	-0.059
-259.180	-111.027	0.017	-0.003
-258.165	-200.000	-0.046	0.249
-257.151	-200.000	0.020	0.367
-256.136	-144.839	-0.310	0.028
-255.122	161.489	-0.126	0.173
-254.107	148.338	0.073	0.097
-253.092	554.219	-0.092	-0.217
-252.078	220.559	0.083	0.131
-251.063	-111.583	-0.275	0.055
-250.049	189.697	-0.112	0.165
-249.034	-200.000	-0.027	0.157
-248.019	28.362	-0.063	-0.052
-247.005	198.871	0.071	-0.107
-245.990	800.000	-0.068	0.276
-244.976	-94.651	-0.348	0.093
-243.961	-200.000	-0.015	-0.195
-242.946	-158.052	-0.132	0.008
-241.932	800.000	-0.052	-0.172
-240.917	-141.204	0.124	0.012
-239.903	56.525	0.090	-0.086
-238.888	-131.270	0.278	-0.036
-237.873	800.000	0.072	0.216
-236.859	800.000	-0.126	-0.442
-235.844	-200.000	0.027	0.390
-234.830	-59.805	0.138	0.058
-233.815	-200.000	0.016	0.185
-232.800	-126.421	0.118	0.017
-231.786	-200.000	-0.030	0.502
-230.771	800.000	0.038	-0.114
-229.757	138.438	0.110	0.141
-228.742	357.730	-0.065	0.128
-227.727	-115.082	-0.134	0.025
-226.713	-12.262	-0.160	0.103
-225.698	-200.000	0.004	0.067
-224.684	-72.546	0.383	-0.139
-223.669	98.815	-0.121	0.137
-222.655	-76.145	0.204	0.071
-221.640	-200.000	0.040	-0.300
-220.625	-200.000	0.021	-0.244
-219.611	47.138	0.137	0.125
-218.596	281.490	-0.209	0.367
-217.582	-192.490	0.111	-0.001
-216.567	-200.000	0.028	0.131
-215.552	-120.448	0.288	0.048
-214.538	283.988	0.144	-0.254
-213.523	-85.973	-0.025	-0.008
-212.509	287.191	-0.122	-0.216
-211.494	-154.660	-0.278	0.018
-210.479	50.832	0.172	-0.160
-209.465	-6.218	0.165	-0.111
-208.450	-200.000	0.004	0.050
-207.436	-155.175	0.262	0.017
-206.421	-177.924	-0.288	-0.007
-205.406	-61.084	-0.182	0.075
-204.392	-39.258	0.255	0.131
-203.377	-154.219	-0.303	0.020
-202.363	-18.941	0.182	-0.111
-201.348	556.847	-0.028	0.066
-200.333	-200.000	0.020	0.167
-199.319	800.000	-0.032	-0.098
-198.304	800.000	-0.060	-0.223
-197.290	347.701	0.114	-0.220
-196.275	-23.657	0.041	0.024
-195.260	266.540	0.270	0.462
-194.246	-200.000	-0.027	-0.236
-193.231	-200.000	-0.012	0.269
-192.217	-132.457	0.330	0.042
-191.202	43.020	-0.151	0.135
-190.187	-59.824	0.191	-0.080
-189.173	-42.093	0.063	0.032
-188.158	175.344	0.017	0.024
-187.144	800.000	0.220	0.623
-186.129	222.488	-0.157	-0.248
-185.114	-200.000	0.025	-0.242
-184.100	800.000	-0.012	0.039
-183.085	72.922	-0.307	0.314
-182.071	-98.359	0.289	-0.073
-181.056	-200.000	-0.009	0.054
-180.042	185.204	0.113	0.164
-179.027	6.492	-0.254	-0.185
-178.012	439.505	-0.199	0.426
-176.998	-167.017	0.233	-0.009
-175.983	8.822	0.146	-0.107
-174.969	608.070	-0.087	-0.212
-173.954	-98.699	-0.212	-0.053
-172.939	-137.299	-0.223	0.025
-171.925	-8.743	0.131	-0.086
-170.910	-200.000	-0.039	0.394
-169.896	800.000	0.069	0.187
-168.881	162.408	0.294	0.403
-167.866	-31.577	0.248	0.136
-166.852	341.199	-0.161	0.309
-165.837	123.198	0.060	-0.073
-164.823	-200.000	-0.023	-0.315
-163.808	-60.558	-0.038	-0.016
-162.793	24.960	0.073	0.059
-161.779	800.000	-0.098	-0.339
-160.764	-200.000	0.028	-0.123
-159.750	-99.100	0.032	0.008
-158.735	159.523	0.377	-0.514
-157.720	-100.039	-0.057	-0.014
-156.706	-200.000	-0.011	0.107
-155.691	800.000	0.134	0.366
-154.677	134.124	0.010	0.013
-153.662	-200.000	0.003	0.182
-152.647	-88.365	-0.279	-0.082
-151.633	-84.483	-0.248	-0.077
-150.618	800.000	0.059	-0.165
-149.604	175.415	0.104	-0.147
-148.589	30.593	0.221	-0.185
-147.574	-158.544	-0.191	0.011
-146.560	-29.234	-0.103	-0.058
-145.545	122.225	0.125	-0.153
-144.531	-10.311	0.173	0.112
-143.516	711.562	-0.062	-0.160
-142.502	-73.340	0.161	-0.058
-141.487	800.000	-0.040	0.116
-140.472	-2.760	0.089	0.061
-139.458	469.961	0.102	-0.224
-138.443	800.000	0.070	-0.270
-137.429	-151.319	0.198	0.014
-136.414	2.682	0.104	0.074
-135.399	2.608	-0.096	0.068
-134.385	-78.333	-0.083	0.028
-133.370	-6.685	0.077	-0.051
-132.356	-27.157	0.072	-0.041
-131.341	404.759	-0.166	-0.343
-130.326	58.617	-0.112	-0.107
-129.312	-200.000	0.019	0.083
-128.297	208.475	0.136	0.207
-127.283	800.000	-0.052	-0.172
-126.268	-72.117	0.395	0.143
-125.253	221.298	-0.087	0.136
-124.239	6.669	-0.155	-0.112
-123.224	-200.000	0.010	-0.184
-122.210	64.899	0.218	-0.215
-121.195	-137.509	0.104	0.012
-120.180	-200.000	0.034	-0.252
-119.166	-72.213	-0.069	-0.025
-118.151	800.000	-0.046	-0.178
-117.137	268.209	-0.189	-0.324
-116.122	-76.601	0.296	0.102
-115.107	-200.000	-0.007	0.118
-114.093	-91.048	0.193	0.054
-113.078	-10.039	0.034	0.022
-112.064	86.845	-0.238	0.257
-111.049	74.242	0.124	-0.128
-110.034	-101.517	-0.223	0.053
-109.020	-31.648	0.432	0.237
-108.005	-99.147	-0.413	-0.102
-106.991	106.510	-0.227	-0.263
-105.976	-165.414	-0.199	0.008
-104.962	-9.776	-0.274	-0.178
-103.947	-200.000	-0.075	0.376
-102.932	-95.750	-0.262	0.068
-101.918	-72.362	0.331	-0.120
-100.903	242.972	0.023	0.037
-99.889	-43.069	-0.373	0.184
-98.874	62.827	0.124	0.122
-97.859	-66.198	0.085	-0.033
-96.845	73.080	0.207	0.211
-95.830	-85.085	0.233	0.071
-94.816	146.656	0.219	0.287
-93.801	-131.233	0.245	0.032
-92.786	-32.009	-0.247	0.135
-91.772	-73.128	-0.124	0.044
-90.757	800.000	0.098	-0.274
-89.743	-200.000	0.024	0.135
-88.728	-91.775	-0.153	0.042
-87.713	-200.000	0.011	0.212
-86.699	230.513	-0.096	0.153
-85.684	-200.000	0.068	-0.302
-84.670	800.000	0.102	-0.332
-83.655	97.568	0.058	0.064
-82.640	-14.966	0.286	-0.179
-81.626	129.162	-0.151	-0.188
-80.611	-11.806	0.203	0.130
-79.597	-181.064	0.128	-0.002
-78.582	-196.748	0.355	0.002
-77.567	-106.811	-0.184	-0.040
-76.553	800.000	0.100	0.295
-75.538	-200.000	-0.005	0.223
-74.524	81.703	-0.032	0.034
-73.509	-136.035	-0.320	0.037
-72.494	62.367	0.156	0.152
-71.480	-80.059	-0.035	0.011
-70.465	83.843	0.053	-0.056
-69.451	671.578	0.084	0.213
-68.436	-88.745	0.415	0.120
-67.422	684.650	-0.150	-0.383
-66.407	545.974	0.073	-0.169
-65.392	-42.829	-0.025	0.012
-64.378	-103.587	0.616	-0.141
-63.363	-80.782	0.140	0.045
-62.349	245.343	-0.037	0.061
-61.334	192.269	-0.910	-1.338
-60.319	42.981	0.763	0.678
-59.305	490.504	-0.781	-1.743
-58.290	242.180	0.937	1.528
-57.276	280.062	0.753	1.313
-56.261	-200.000	126.941	689.510
-55.246	427.128	1592.773	3349.754
-54.232	140.982	2745.018	3537.953
-53.217	97.773	2153.186	2413.525
-52.203	35.208	1584.667	1353.970
-51.188	26.682	1329.159	1084.815
-50.173	24.319	1291.092	1039.941
-49.159	53.002	1361.979	1270.331
-48.144	49.385	1372.558	1258.495
-47.130	26.814	1320.003	1077.960
-46.115	23.597	1300.866	1043.409
-45.100	23.394	1296.074	1038.332
-44.086	23.324	1293.177	1035.563
-43.071	23.387	1290.960	1034.113
-42.057	23.326	1288.600	1031.823
-41.042	23.293	1287.433	1030.658
-40.027	23.278	1286.224	1029.562
-39.013	23.289	1284.102	1027.886
-37.998	23.318	1282.162	1026.458
-36.984	23.407	1280.141	1025.314
-35.969	23.394	1278.416	1023.820
-34.954	23.370	1277.192	1022.659
-33.940	23.437	1275.957	1022.017
-32.925	23.350	1274.758	1020.513
-31.911	23.431	1273.436	1019.882
-30.896	23.408	1272.666	1019.093
-29.881	23.469	1270.633	1017.772
-28.867	23.501	1269.247	1016.810
-27.852	23.467	1267.684	1015.319
-26.838	23.369	1266.887	1014.081
-25.823	23.459	1265.126	1013.145
-24.809	23.432	1264.253	1012.250
-23.794	23.444	1262.750	1011.078
-22.779	23.382	1261.388	1009.593
-21.765	23.534	1259.672	1009.045
-20.750	23.459	1258.826	1007.898
-19.736	23.451	1257.363	1006.642
-18.721	23.399	1256.265	1005.431
-17.706	23.345	1255.316	1004.324
-16.692	23.281	1254.430	1003.211
-15.677	23.291	1253.032	1002.109
-14.663	23.367	1251.825	1001.538
-13.648	23.375	1250.460	1000.447
-12.633	23.269	1250.066	999.498
-11.619	23.239	1249.532	998.860
-10.604	23.367	1248.065	998.369
-9.590	23.305	1247.255	997.333
-8.575	23.275	1246.311	996.366
-7.560	23.253	1246.051	995.997
-6.546	23.447	1244.091	995.479
-5.531	23.398	1243.596	994.769
-4.517	23.340	1243.123	994.029
-3.502	23.288	1242.546	993.233
-2.487	23.376	1241.530	992.876
-1.473	23.258	1237.122	988.653
-0.458	21.403	1222.349	966.562
0.556	16.685	1206.490	927.813
1.571	12.798	1213.933	911.981
2.586	12.166	1228.829	919.548
3.600	12.076	1216.946	910.077
4.615	9.157	1146.441	841.993
5.629	3.459	1077.326	763.027
6.644	0.795	1060.674	738.176
7.659	0.769	1058.695	736.607
8.673	0.694	1057.755	735.525
9.688	0.761	1056.715	735.062
10.702	0.884	1054.741	734.221
11.717	4.301	1058.232	753.196
12.731	11.025	1066.643	791.930
13.746	16.038	1073.210	821.216
14.761	17.236	1074.638	828.079
15.775	16.691	1072.707	823.868
16.790	15.559	1071.332	817.233
17.804	14.957	1069.077	812.518
18.819	14.697	1068.002	810.367
19.834	14.384	1067.576	808.455
20.848	14.119	1066.620	806.373
21.863	13.908	1065.784	804.646
22.877	13.703	1064.691	802.759
23.892	13.688	1063.941	802.048
24.907	13.678	1063.724	801.766
25.921	13.716	1062.715	801.119
26.936	13.827	1061.572	800.723
27.950	13.798	1060.939	800.036
28.965	13.911	1059.652	799.536
29.980	13.859	1058.749	798.534
30.994	13.901	1057.490	797.718
32.009	14.004	1056.415	797.330
33.023	13.877	1055.546	795.994
34.038	13.905	1054.270	795.095
35.053	13.799	1053.690	794.079
36.067	13.976	1052.767	794.160
37.082	13.852	1051.921	792.860
38.096	13.862	1051.299	792.369
39.111	13.917	1049.939	791.539
40.126	13.744	1049.941	790.642
41.140	13.693	1048.304	789.096
42.155	13.709	1047.099	788.198
43.169	13.639	1046.044	786.999
44.184	13.837	1044.990	787.079
45.199	13.681	1044.181	785.659
46.213	13.785	1042.997	785.190
47.228	13.903	1041.614	784.638
48.242	13.760	1041.010	783.437
49.257	13.772	1040.206	782.819
50.271	13.792	1038.987	781.929
51.286	13.743	1038.326	781.132
52.301	13.758	1037.156	780.253
53.315	13.793	1036.123	779.570
54.330	13.795	1035.382	778.954
55.344	13.790	1034.511	778.206
56.359	13.818	1033.923	777.825
57.374	13.663	1033.343	776.596
58.388	13.624	1032.652	775.824
59.403	13.809	1030.679	775.138
60.417	13.728	1030.332	774.428
61.432	13.733	1029.236	773.562
62.447	13.661	1028.785	772.819
63.461	13.579	1028.457	772.122
64.476	13.621	1026.937	771.107
65.490	13.617	1026.225	770.486
66.505	13.609	1025.855	770.103
67.520	13.677	1025.020	769.722
68.534	13.714	1024.049	769.097
69.549	13.720	1023.746	768.831
70.563	13.506	1023.254	767.398
71.578	13.629	1021.629	766.682
72.593	13.564	1021.107	765.922
73.607	13.640	1020.209	765.533
74.622	13.542	1019.816	764.718
75.636	13.621	1018.887	764.318
76.651	13.685	1018.443	764.213
77.666	13.554	1018.038	763.238
78.680	13.633	1017.235	762.932
79.695	13.705	1016.477	762.623
80.709	13.584	1015.695	761.415
81.724	13.741	1015.315	761.783
82.739	13.762	1014.404	761.128
83.753	13.796	1013.597	760.613
84.768	13.893	1012.818	760.407
85.782	13.785	1012.052	759.269
86.797	13.783	1010.916	758.340
87.812	13.840	1009.826	757.716
88.826	13.698	1009.314	756.618
89.841	13.860	1008.000	756.301
90.855	13.904	1006.988	755.676
91.870	13.924	1006.593	755.405
92.884	13.885	1005.539	754.370
93.899	13.940	1004.663	753.893
94.914	13.979	1003.782	753.345
95.928	13.983	1003.096	752.781
96.943	13.909	1002.184	751.693
97.957	13.953	1001.314	751.174
98.972	13.745	1001.133	750.033
99.987	13.897	999.623	749.520
101.001	13.923	998.305	748.582
102.016	13.949	997.759	748.225
103.030	13.980	997.250	747.918
104.045	13.996	996.510	747.366
105.060	13.850	995.704	746.039
106.074	13.699	995.538	745.173
107.089	13.859	993.835	744.547
108.103	13.858	992.685	743.614
109.118	13.762	992.009	742.617
110.133	13.638	991.190	741.380
111.147	13.742	990.277	741.099
112.162	13.824	989.133	740.542
113.176	13.730	989.198	740.106
114.191	14.027	987.434	740.041
115.206	13.822	987.472	739.092
116.220	13.742	986.504	737.948
117.235	13.815	985.537	737.484
118.249	13.875	984.274	736.737
119.264	13.793	984.032	736.127
120.279	13.859	982.740	735.389
121.293	13.862	982.318	735.020
122.308	13.853	981.498	734.302
123.322	13.735	980.524	732.989
124.337	13.752	979.295	732.081
125.352	13.796	978.055	731.281
126.366	13.811	977.090	730.563
127.381	13.861	975.900	729.826
128.395	13.816	975.291	729.110
129.410	13.860	974.406	728.576
130.424	13.819	973.429	727.602
131.439	13.865	972.969	727.395
132.454	13.887	972.152	726.815
133.468	13.929	971.040	726.106
134.483	13.786	970.572	725.065
135.497	13.942	969.323	724.749
136.512	13.753	968.836	723.499
137.527	13.893	967.960	723.388
138.541	13.900	967.239	722.817
139.556	13.878	966.184	721.870
140.570	13.917	965.825	721.705
141.585	14.028	964.408	721.065
142.600	13.964	963.697	720.192
143.614	14.048	962.688	719.738
144.629	14.021	962.200	719.191
145.643	13.988	961.315	718.325
146.658	14.053	960.107	717.639
147.673	13.885	959.328	716.270
148.687	13.954	958.688	716.026
149.702	13.967	957.653	715.246
150.716	13.945	957.127	714.695
151.731	13.952	956.234	713.993
152.746	13.864	955.842	713.260
153.760	13.940	955.141	713.001
154.775	14.086	954.113	712.796
155.789	14.082	953.793	712.475
156.804	14.175	953.202	712.368
157.819	14.108	952.316	711.358
158.833	14.114	951.804	710.938
159.848	14.140	951.157	710.504
160.862	14.122	949.883	709.410
161.877	14.168	948.746	708.695
162.892	14.143	948.319	708.207
163.906	14.056	947.330	707.035
164.921	14.067	946.700	706.549
165.935	14.180	945.494	706.067
166.950	14.120	944.994	705.377
167.964	14.119	944.305	704.796
168.979	14.065	943.308	703.759
169.994	14.176	942.322	703.432
171.008	14.206	941.686	703.024
172.023	14.113	941.217	702.215
173.037	14.229	940.526	702.129
174.052	14.424	939.305	701.975
175.067	14.339	939.125	701.424
176.081	14.293	938.488	700.692
177.096	14.247	938.118	700.159
178.110	14.226	937.253	699.362
179.125	14.180	936.672	698.674
180.140	14.289	936.349	698.831
181.154	14.180	935.911	697.983
182.169	14.334	935.165	698.011
183.183	14.291	934.644	697.381
184.198	14.480	933.299	697.104
185.213	14.429	932.784	696.447
186.227	14.476	932.302	696.219
187.242	14.524	931.456	695.729
188.256	14.439	931.265	695.169
189.271	14.530	930.072	694.595
190.286	14.409	929.165	693.355
191.300	14.259	929.282	692.754
192.315	14.241	928.410	691.969
193.329	14.395	927.630	691.964
194.344	14.403	927.388	691.758
195.359	14.504	926.364	691.352
196.373	14.404	925.903	690.533
197.388	14.457	925.852	690.652
198.402	14.513	925.002	690.189
199.417	14.637	924.603	690.344
200.432	14.540	923.932	689.379
201.446	14.661	923.398	689.421
202.461	14.725	922.942	689.282
203.475	14.733	921.966	688.527
204.490	14.704	920.831	687.496
205.504	14.636	920.469	686.889
206.519	14.599	919.812	686.182
207.534	14.708	919.295	686.187
208.548	14.668	918.371	685.269
209.563	14.658	917.532	684.543
210.577	14.756	916.920	684.429
211.592	14.789	916.177	683.946
212.607	14.815	915.413	683.424
213.621	14.805	915.037	683.040
214.636	14.914	913.803	682.503
215.650	14.883	913.267	681.916
216.665	14.934	912.777	681.699
217.680	14.895	912.269	681.101
218.694	15.036	911.243	680.848
219.709	14.877	911.167	680.084
220.723	14.881	910.460	679.511
221.738	14.847	909.485	678.585
222.753	14.764	909.132	677.926
223.767	14.998	908.722	678.511
224.782	15.164	907.411	678.142
225.796	15.070	906.952	677.357
226.811	15.136	906.353	677.120
227.826	14.851	905.974	675.625
228.840	14.955	904.825	675.128
229.855	14.953	904.114	674.529
230.869	15.024	903.617	674.383
231.884	15.163	903.024	674.443
232.899	15.013	902.500	673.387
233.913	14.964	901.399	672.309
234.928	15.103	900.785	672.349
235.942	15.101	900.269	671.899
236.957	15.040	899.945	671.353
237.972	15.165	898.949	671.051
238.986	15.117	898.574	670.519
240.001	15.103	897.825	669.844
241.015	15.236	896.961	669.673
242.030	15.124	896.618	668.908
243.045	15.097	896.273	668.486
244.059	15.217	895.492	668.319
245.074	15.270	894.830	667.980
246.088	15.371	893.782	667.540
247.103	15.234	893.579	666.782
248.117	15.297	892.853	666.432
249.132	15.280	892.484	666.032
250.147	15.431	891.571	665.890
251.161	15.510	890.872	665.623
252.176	15.503	890.004	664.887
253.190	15.463	889.730	664.464
254.205	15.524	888.953	664.068
255.220	15.611	888.215	663.802
256.234	15.530	887.748	663.074
257.249	15.426	887.220	662.209
258.263	15.521	886.527	662.009
259.278	15.590	885.407	661.388
260.293	15.651	885.086	661.326
261.307	15.624	884.388	660.642
262.322	15.570	884.230	660.254
263.336	15.588	883.080	659.408
264.351	15.676	882.492	659.256
265.366	15.769	881.610	658.902
266.380	15.723	880.927	658.153
267.395	15.781	880.633	658.102
268.409	15.864	879.697	657.669
269.424	15.807	879.075	656.921
270.439	15.661	878.388	655.781
271.453	15.587	877.730	654.944
272.468	15.871	877.153	655.560
273.482	15.906	876.078	654.836
274.497	15.857	875.982	654.516
275.512	15.713	875.624	653.631
276.526	15.682	874.905	652.917
277.541	15.903	874.335	653.289
278.555	15.750	873.739	652.194
279.570	15.921	872.871	652.150
280.585	15.895	872.241	651.523
281.599	15.981	871.430	651.189
282.614	16.048	870.701	650.845
283.628	15.947	870.228	650.047
284.643	15.926	870.135	649.838
285.657	15.991	869.306	649.410
286.672	15.955	868.610	648.697
287.687	16.013	867.877	648.315
288.701	16.008	867.503	647.957
289.716	16.079	867.172	647.926
290.730	16.178	866.575	647.803
291.745	16.042	865.891	646.711
292.760	16.150	865.260	646.599
293.774	16.220	864.591	646.310
294.789	16.049	863.901	645.083
295.803	16.158	862.876	644.674
296.818	16.107	862.637	644.247
297.833	16.230	861.344	643.691
298.847	16.287	860.827	643.465
299.862	16.235	860.487	642.956
300.876	16.172	860.209	642.451
301.891	16.343	859.305	642.370
302.906	16.287	858.948	641.832
303.920	16.363	858.658	641.850
304.935	16.401	857.831	641.318
305.949	16.412	857.137	640.787
306.964	16.317	856.958	640.233
307.979	16.396	856.001	639.763
308.993	16.454	855.746	639.736
310.008	16.637	854.698	639.584
311.022	16.475	854.369	638.671
312.037	16.252	854.063	637.542
313.052	16.396	853.356	637.504
314.066	16.345	852.806	636.841
315.081	16.444	852.204	636.711
316.095	16.434	851.136	635.819
317.110	16.458	850.901	635.678
318.125	16.541	850.388	635.549
319.139	16.474	850.010	634.958
320.154	16.624	849.506	635.090
321.168	16.403	849.058	633.870
322.183	16.604	848.011	633.784
323.197	16.511	848.102	633.448
324.212	16.464	847.418	632.706
325.227	16.579	846.879	632.678
326.241	16.582	846.411	632.281
327.256	16.469	845.632	631.224
328.270	16.554	844.749	630.826
329.285	16.449	844.333	630.068
330.300	16.647	843.489	630.117
331.314	16.766	843.178	630.272
332.329	16.603	843.150	629.592
333.343	16.538	842.463	628.780
334.358	16.667	841.875	628.766
335.373	16.829	841.460	629.001
336.387	16.827	841.055	628.632
337.402	16.688	841.480	628.380
338.416	16.789	840.691	628.111
339.431	16.792	840.390	627.839
340.446	16.737	839.886	627.207
341.460	16.912	839.312	627.369
342.475	16.994	838.879	627.291
343.489	16.759	838.823	626.326
344.504	16.799	838.407	626.107
345.519	17.019	837.641	626.291
346.533	16.981	837.078	625.675
347.548	16.826	836.824	624.861
348.562	17.010	836.258	625.060
349.577	16.928	835.248	623.948
350.592	16.878	834.696	623.297
351.606	16.858	834.275	622.854
352.621	16.997	833.602	622.806
353.635	17.030	832.933	622.371
354.650	17.046	832.064	621.727
355.665	16.988	831.647	621.146
356.679	17.115	831.112	621.156
357.694	17.070	830.425	620.424
358.708	17.124	829.654	619.990
359.723	17.198	829.273	619.922
360.738	17.237	828.422	619.372
361.752	17.170	827.969	618.736
362.767	17.152	827.507	618.270
363.781	17.220	826.721	617.875
364.796	17.298	826.479	617.922
365.810	17.349	825.887	617.611
366.825	17.286	825.776	617.244
367.840	17.322	825.573	617.169
368.854	17.258	825.147	616.565
369.869	17.319	824.184	616.010
370.883	17.266	824.141	615.729
371.898	17.269	824.025	615.601
372.913	17.448	823.197	615.574
373.927	17.295	822.817	614.683
374.942	17.371	822.456	614.633
375.956	17.570	821.803	614.811
376.971	17.469	821.308	614.019
377.986	17.591	820.892	614.096
379.000	17.565	820.498	613.654
380.015	17.522	819.972	613.051
381.029	17.671	819.224	612.972
382.044	17.507	818.928	612.108
383.059	17.541	818.286	611.697
384.073	17.580	817.688	611.333
385.088	17.663	817.068	611.114
386.102	17.528	816.668	610.277
387.117	17.519	816.347	609.951
388.132	17.543	815.586	609.416
389.146	17.490	815.468	609.084
390.161	17.634	814.842	609.075
391.175	17.717	813.679	608.448
392.190	17.544	813.654	607.760
393.205	17.765	813.148	608.117
394.219	17.659	812.966	607.548
395.234	17.568	812.788	607.038
396.248	17.626	812.396	606.898
397.263	17.614	811.605	606.208
398.278	17.594	811.330	605.879
399.292	17.673	810.482	605.473
400.307	17.797	809.869	605.403
401.321	17.789	809.302	604.896
402.336	17.811	809.243	604.876
403.350	17.787	808.795	604.403
404.365	17.838	808.249	604.122
405.380	17.921	807.949	604.138
406.394	17.825	807.268	603.237
407.409	17.980	806.538	603.183
408.423	18.022	806.452	603.215
409.438	18.111	805.901	603.065
410.453	18.071	805.753	602.758
411.467	18.033	805.314	602.241
412.482	18.096	804.879	602.086
413.496	18.112	804.298	601.654
414.511	18.037	804.020	601.130
415.526	18.076	803.878	601.106
416.540	18.078	803.458	600.746
417.555	18.164	802.485	600.268
418.569	18.130	802.232	599.907
419.584	18.249	801.677	599.856
420.599	18.202	801.485	599.493
421.613	116.071	1298.726	1490.591
422.628	100.220	1371.135	1490.652
