DTS Sentinel unit serial number:	SN413079Multiplexer serial number:	ORYXHardware model number:	OX4-SRSoftware version number:	ORYX F/W v4.00 Oryx Data Collector v3.7.2.0data status	okinstallation	princeton_trtdifferential loss correction	single-endedforward channel	channel 1reverse channel	N/Adate	2019/09/14time	09:38:35forward acquisition time	60.00reverse acquisition time	0.00gamma	496.2192k internal	0.2319k external	0.2319temperature offset calibration	1.0069default loss term (dB/km)	0.3790temperature slope calibration	1.0000multiplexer offset coefficient	1.0000multiplexer slope coefficient	1.0000fibre end	0.00T internal ref (°C)	31.89T ext. ref 1 (°C)	3.90T ext. ref 2 (°C)	30.00length (m)	temperature (°C)	Stokes	anti-Stokes-747.200	800.000	0.075	0.233
-746.185	750.991	0.047	-0.128
-745.171	321.766	-0.118	-0.228
-744.156	164.870	-0.050	0.071
-743.142	13.278	0.096	0.075
-742.127	-57.593	0.124	0.055
-741.112	10.738	0.368	-0.284
-740.098	-112.514	-0.257	0.052
-739.083	8.800	0.337	0.257
-738.069	-53.272	0.220	-0.102
-737.054	-50.693	0.032	0.015
-736.039	-150.332	-0.378	0.029
-735.025	-64.600	-0.046	-0.019
-734.010	-41.921	-0.116	-0.060
-732.996	-27.877	0.167	-0.098
-731.981	171.115	0.081	-0.118
-730.966	-142.194	0.239	-0.024
-729.952	-69.652	0.095	0.037
-728.937	576.198	0.048	-0.117
-727.923	-2.216	-0.179	-0.127
-726.908	-60.857	0.259	-0.111
-725.894	158.127	0.162	0.228
-724.879	-6.387	-0.250	-0.172
-723.864	-45.868	0.327	-0.163
-722.850	-118.481	-0.172	-0.031
-721.835	208.172	0.125	-0.198
-720.821	12.904	0.075	0.059
-719.806	162.398	-0.054	0.077
-718.791	115.683	0.107	-0.132
-717.777	420.628	0.143	0.310
-716.762	-22.277	-0.215	-0.132
-715.748	718.751	0.059	-0.158
-714.733	181.993	0.053	-0.079
-713.718	273.786	0.144	0.258
-712.704	-67.472	0.291	0.115
-711.689	-20.791	-0.121	-0.075
-710.675	-107.562	-0.171	0.038
-709.660	382.031	0.144	-0.300
-708.645	-200.000	0.067	-0.422
-707.631	800.000	0.054	-0.189
-706.616	18.473	-0.171	0.138
-705.602	-102.040	-0.241	-0.059
-704.587	-184.625	-0.524	-0.009
-703.572	675.610	0.078	0.204
-702.558	-95.160	-0.237	-0.065
-701.543	-48.793	0.247	-0.120
-700.529	-104.798	0.182	0.042
-699.514	7.090	-0.172	0.129
-698.499	-192.732	0.456	-0.004
-697.485	-53.084	-0.111	-0.051
-696.470	54.672	-0.278	0.271
-695.456	-166.857	0.267	0.011
-694.441	-53.341	-0.127	-0.059
-693.426	-200.000	-0.012	-0.127
-692.412	800.000	0.064	-0.242
-691.397	-200.000	0.058	0.290
-690.383	-146.630	0.160	0.014
-689.368	6.979	0.108	-0.081
-688.354	-8.915	-0.057	-0.039
-687.339	58.737	-0.464	-0.461
-686.324	-200.000	0.063	0.333
-685.310	743.206	0.024	0.064
-684.295	341.799	-0.054	-0.107
-683.281	244.609	-0.150	0.254
-682.266	575.420	0.126	0.312
-681.251	48.642	0.163	0.154
-680.237	-95.433	-0.232	0.063
-679.222	-200.000	-0.018	-0.174
-678.208	-84.688	-0.231	0.074
-677.193	800.000	-0.014	-0.056
-676.178	-200.000	0.038	-0.202
-675.164	-28.205	-0.114	-0.066
-674.149	10.022	-0.152	0.117
-673.135	-200.000	0.019	0.197
-672.120	54.218	0.168	0.163
-671.105	688.222	-0.053	0.141
-670.091	59.857	-0.305	-0.304
-669.076	800.000	-0.034	-0.136
-668.062	25.839	-0.231	0.194
-667.047	799.108	-0.023	0.064
-666.032	-200.000	0.002	0.136
-665.018	-29.909	-0.216	-0.124
-664.003	46.990	-0.132	0.123
-662.989	-59.165	0.243	0.105
-661.974	116.867	-0.108	0.133
-660.959	-86.918	-0.139	0.043
-659.945	-135.838	0.306	-0.036
-658.930	-200.000	-0.017	-0.125
-657.916	-32.920	0.289	-0.162
-656.901	595.770	-0.095	-0.236
-655.886	-200.000	-0.059	-0.384
-654.872	110.008	0.093	0.112
-653.857	427.750	0.131	-0.285
-652.843	40.154	0.113	-0.103
-651.828	-129.883	0.071	-0.010
-650.814	462.236	-0.133	0.300
-649.799	-85.756	0.090	0.028
-648.784	-104.021	0.275	0.065
-647.770	-17.407	-0.316	-0.200
-646.755	-144.030	0.191	0.018
-645.741	62.654	-0.096	-0.097
-644.726	33.193	0.167	-0.146
-643.711	355.690	0.093	-0.186
-642.697	-200.000	0.022	-0.165
-641.682	349.718	-0.119	0.236
-640.668	-87.817	0.102	-0.031
-639.653	42.448	-0.318	0.291
-638.638	42.793	0.275	-0.253
-637.624	-6.136	-0.181	-0.125
-636.609	-114.726	0.180	-0.035
-635.595	-4.837	0.122	0.085
-634.580	-151.138	0.088	0.007
-633.565	21.549	0.189	0.155
-632.551	113.873	0.133	0.163
-631.536	-169.780	-0.145	-0.005
-630.522	-200.000	0.007	-0.098
-629.507	-200.000	-0.068	0.367
-628.492	-84.678	-0.356	-0.113
-627.478	-200.000	0.008	0.168
-626.463	237.497	-0.076	-0.128
-625.449	220.491	-0.131	0.211
-624.434	77.929	-0.141	-0.152
-623.419	-100.063	-0.182	0.046
-622.405	357.011	0.196	-0.393
-621.390	180.410	0.196	0.290
-620.376	59.841	-0.288	0.286
-619.361	769.883	0.083	0.228
-618.346	491.315	-0.111	0.255
-617.332	800.000	-0.036	-0.110
-616.317	-38.332	0.040	-0.021
-615.303	364.685	0.146	-0.296
-614.288	421.364	0.047	-0.100
-613.273	-200.000	-0.020	-0.115
-612.259	67.958	-0.178	0.183
-611.244	-200.000	-0.005	0.394
-610.230	84.776	-0.176	-0.194
-609.215	800.000	0.051	-0.189
-608.201	4.077	0.162	-0.119
-607.186	320.418	-0.065	-0.124
-606.171	450.276	0.081	0.179
-605.157	62.326	0.233	-0.234
-604.142	154.931	0.108	0.149
-603.128	800.000	0.047	0.165
-602.113	-97.272	0.074	0.020
-601.098	23.644	-0.243	-0.201
-600.084	-200.000	0.006	-0.063
-599.069	-113.452	0.115	-0.023
-598.055	162.560	0.037	0.052
-597.040	84.210	-0.136	-0.149
-596.025	474.486	-0.093	0.210
-595.011	-72.577	0.228	-0.085
-593.996	-55.662	0.062	0.028
-592.982	-200.000	0.008	0.209
-591.967	-200.000	0.030	0.214
-590.952	-200.000	-0.075	-0.347
-589.938	204.237	0.153	0.238
-588.923	380.667	0.153	0.316
-587.909	-28.457	-0.283	-0.164
-586.894	29.810	0.157	-0.134
-585.879	800.000	0.045	-0.136
-584.865	-99.038	-0.471	-0.120
-583.850	104.079	-0.178	-0.210
-582.836	800.000	0.043	-0.124
-581.821	-123.809	0.459	-0.073
-580.806	80.085	0.037	0.040
-579.792	11.555	-0.144	-0.111
-578.777	800.000	0.080	-0.272
-577.763	113.186	-0.188	-0.230
-576.748	-11.166	0.088	0.058
-575.733	800.000	0.133	0.530
-574.719	-16.130	0.096	0.061
-573.704	800.000	-0.077	-0.260
-572.690	418.820	0.126	0.270
-571.675	84.387	0.043	0.048
-570.661	357.033	-0.104	0.208
-569.646	-169.598	0.180	-0.007
-568.631	-44.618	0.136	0.068
-567.617	277.006	-0.169	0.302
-566.602	252.094	0.109	0.186
-565.588	-150.014	0.331	-0.026
-564.573	-118.150	-0.047	0.008
-563.558	371.000	-0.135	-0.274
-562.544	-81.751	-0.223	0.073
-561.529	228.948	-0.066	0.109
-560.515	-197.699	0.231	0.001
-559.500	-88.115	0.163	0.049
-558.485	800.000	-0.118	-0.479
-557.471	-135.180	-0.217	0.026
-556.456	800.000	0.127	0.354
-555.442	800.000	0.102	-0.392
-554.427	-118.374	0.106	0.019
-553.412	427.689	-0.063	-0.136
-552.398	103.759	-0.126	-0.148
-551.383	-174.834	-0.229	0.006
-550.369	537.619	0.071	0.169
-549.354	69.863	-0.287	0.297
-548.339	-200.000	0.010	-0.252
-547.325	-126.257	0.259	0.039
-546.310	98.301	0.164	-0.190
-545.296	15.455	0.034	0.027
-544.281	800.000	0.041	-0.175
-543.266	-200.000	0.005	-0.196
-542.252	-93.149	-0.133	0.037
-541.237	44.431	0.080	0.074
-540.223	6.996	-0.187	0.140
-539.208	316.727	-0.096	-0.182
-538.193	81.066	0.182	0.197
-537.179	-200.000	0.015	-0.068
-536.164	-64.022	0.087	0.036
-535.150	-51.706	-0.091	-0.042
-534.135	-4.491	0.097	-0.067
-533.121	-161.873	0.418	-0.021
-532.106	800.000	-0.016	0.050
-531.091	-200.000	-0.026	-0.156
-530.077	375.323	0.045	-0.091
-529.062	-112.053	0.179	-0.036
-528.048	800.000	0.028	-0.102
-527.033	800.000	0.026	0.091
-526.018	-200.000	0.026	0.192
-525.004	-200.000	-0.037	-0.211
-523.989	-29.065	-0.338	-0.195
-522.975	120.633	-0.077	0.096
-521.960	61.567	0.061	0.061
-520.945	-83.605	-0.148	-0.048
-519.931	212.944	0.051	0.080
-518.916	161.457	0.115	0.162
-517.902	-200.000	0.016	-0.084
-516.887	376.989	0.055	-0.112
-515.872	800.000	-0.052	0.176
-514.858	175.465	-0.158	0.230
-513.843	-137.958	-0.246	0.028
-512.829	-164.472	0.259	0.012
-511.814	611.379	-0.078	-0.195
-510.799	4.106	-0.183	0.134
-509.785	-19.824	-0.316	0.196
-508.770	119.730	-0.225	-0.279
-507.756	12.089	0.169	-0.130
-506.741	800.000	0.071	0.298
-505.726	-161.056	-0.013	0.001
-504.712	795.489	0.083	0.230
-503.697	-106.815	-0.303	-0.067
-502.683	79.352	0.145	0.156
-501.668	-200.000	0.004	-0.075
-500.653	492.980	-0.142	0.326
-499.639	800.000	0.041	-0.134
-498.624	-57.800	0.167	-0.073
-497.610	234.008	0.069	-0.114
-496.595	-0.754	-0.345	-0.245
-495.581	4.482	-0.092	0.068
-494.566	150.164	-0.140	-0.191
-493.551	-58.728	-0.277	-0.120
-492.537	321.031	-0.137	-0.260
-491.522	-200.000	0.005	-0.066
-490.508	-42.284	-0.263	0.135
-489.493	-200.000	-0.002	-0.161
-488.478	-48.059	-0.254	-0.123
-487.464	800.000	-0.046	0.151
-486.449	-200.000	0.014	-0.356
-485.435	169.476	0.075	-0.107
-484.420	-142.492	0.242	-0.024
-483.405	-40.445	0.116	-0.060
-482.391	-200.000	-0.003	-0.314
-481.376	13.243	-0.150	0.117
-480.362	736.395	0.078	0.209
-479.347	-200.000	0.029	-0.193
-478.332	-144.667	0.142	-0.013
-477.318	65.961	-0.336	0.341
-476.303	-115.025	-0.218	0.041
-475.289	414.795	0.109	-0.233
-474.274	-153.424	0.167	-0.012
-473.259	-135.357	-0.367	-0.044
-472.245	-135.044	0.288	-0.035
-471.230	-62.344	-0.209	-0.087
-470.216	512.909	-0.054	0.126
-469.201	359.340	-0.160	-0.319
-468.186	21.704	-0.110	0.090
-467.172	-99.794	-0.113	0.028
-466.157	-105.900	0.286	-0.064
-465.143	-108.765	-0.363	-0.078
-464.128	691.421	-0.072	0.188
-463.113	91.371	-0.074	-0.083
-462.099	734.417	0.070	0.188
-461.084	-37.943	0.092	-0.049
-460.070	800.000	0.071	0.254
-459.055	800.000	-0.044	-0.138
-458.040	663.493	-0.053	-0.136
-457.026	-119.461	0.200	-0.035
-456.011	337.718	-0.095	-0.186
-454.997	-157.269	-0.153	-0.009
-453.982	800.000	0.045	-0.195
-452.968	-41.295	-0.130	-0.067
-451.953	308.829	0.098	-0.183
-450.938	226.645	0.057	-0.093
-449.924	-88.835	0.128	0.038
-448.909	-200.000	0.003	0.234
-447.895	268.799	0.094	-0.165
-446.880	210.020	0.093	0.147
-445.865	326.737	0.079	0.152
-444.851	-13.189	0.105	-0.068
-443.836	60.982	0.104	-0.103
-442.822	-19.048	0.131	-0.081
-441.807	757.154	0.076	-0.205
-440.792	-200.000	-0.017	-0.115
-439.778	188.254	0.061	-0.091
-438.763	-70.840	-0.302	0.114
-437.749	-117.775	-0.357	-0.064
-436.734	-1.027	0.167	-0.118
-435.719	-94.407	0.162	-0.044
-434.705	-135.537	0.205	-0.024
-433.690	-45.249	0.254	0.126
-432.676	141.264	0.173	0.228
-431.661	47.338	-0.311	0.289
-430.646	-10.451	-0.310	-0.205
-429.632	380.808	0.061	-0.126
-428.617	123.996	0.171	-0.215
-427.603	-129.426	-0.229	0.032
-426.588	131.884	-0.087	-0.111
-425.573	-74.944	-0.269	0.096
-424.559	-91.251	0.110	0.031
-423.544	800.000	0.064	0.251
-422.530	-131.062	-0.181	-0.024
-421.515	-149.350	-0.295	-0.023
-420.500	-196.394	0.489	-0.003
-419.486	-200.000	0.049	-0.222
-418.471	108.433	0.123	0.146
-417.457	-16.593	-0.283	0.179
-416.442	-74.276	-0.037	-0.013
-415.428	-21.000	-0.103	-0.063
-414.413	-200.000	-0.045	0.277
-413.398	-128.578	-0.153	0.022
-412.384	402.978	0.112	0.235
-411.369	297.453	0.026	-0.048
-410.355	-63.440	-0.068	-0.028
-409.340	-200.000	0.036	0.305
-408.325	202.071	-0.136	-0.209
-407.311	105.669	-0.129	-0.152
-406.296	268.326	-0.024	-0.041
-405.282	-66.305	-0.375	-0.149
-404.267	-33.872	-0.209	0.115
-403.252	456.119	-0.098	0.217
-402.238	800.000	-0.031	0.117
-401.223	120.068	0.136	0.169
-400.209	-53.282	-0.170	0.078
-399.194	-200.000	-0.010	0.087
-398.179	-108.886	-0.193	0.041
-397.165	-23.280	0.127	0.076
-396.150	-48.058	-0.036	-0.018
-395.136	16.733	-0.201	-0.158
-394.121	-27.311	-0.044	-0.026
-393.106	353.971	-0.083	-0.164
-392.092	57.413	-0.105	0.102
-391.077	-49.010	0.024	-0.011
-390.063	323.559	0.136	-0.258
-389.048	131.437	0.223	-0.286
-388.033	-45.704	-0.163	-0.080
-387.019	-131.366	0.178	0.024
-386.004	-55.413	0.145	-0.065
-384.990	145.679	-0.176	0.235
-383.975	68.180	0.126	0.128
-382.960	-195.866	-0.139	0.001
-381.946	-132.633	0.274	0.035
-380.931	-200.000	0.028	0.457
-379.917	800.000	-0.029	0.116
-378.902	74.893	-0.258	0.271
-377.888	163.709	-0.131	0.184
-376.873	-33.111	-0.362	-0.200
-375.858	800.000	0.146	-0.418
-374.844	-1.211	0.132	-0.093
-373.829	-200.000	0.008	-0.134
-372.815	152.575	0.010	0.014
-371.800	-200.000	0.028	-0.193
-370.785	-200.000	0.038	-0.295
-369.771	-116.328	0.213	0.039
-368.756	176.473	-0.193	0.280
-367.742	-190.931	0.234	-0.002
-366.727	-164.555	0.294	0.013
-365.712	800.000	-0.089	0.317
-364.698	-200.000	0.018	-0.130
-363.683	60.107	-0.112	-0.110
-362.669	-128.757	-0.132	0.018
-361.654	175.620	0.205	0.297
-360.639	31.547	-0.116	0.099
-359.625	-21.635	-0.101	-0.061
-358.610	-200.000	-0.030	-0.237
-357.596	284.128	0.037	-0.066
-356.581	800.000	-0.070	0.204
-355.566	70.786	0.207	0.214
-354.552	47.762	0.143	-0.133
-353.537	-200.000	0.039	0.254
-352.523	-101.970	-0.174	0.042
-351.508	-51.861	0.140	-0.065
-350.493	-128.863	-0.250	0.035
-349.479	374.185	-0.060	0.122
-348.464	267.171	0.217	-0.377
-347.450	10.361	0.285	-0.216
-346.435	73.900	0.062	-0.064
-345.420	145.614	0.305	-0.407
-344.406	-200.000	-0.078	-0.384
-343.391	-150.506	-0.184	0.014
-342.377	-61.382	-0.058	0.024
-341.362	-75.854	0.195	-0.069
-340.348	-86.789	-0.276	-0.084
-339.333	149.990	-0.058	0.079
-338.318	-192.758	-0.429	-0.004
-337.304	-92.718	0.092	-0.026
-336.289	41.537	0.152	0.137
-335.275	-200.000	-0.022	0.214
-334.260	-172.730	0.225	-0.007
-333.245	-90.137	0.159	0.046
-332.231	-4.210	0.240	0.165
-331.216	-11.172	0.219	0.144
-330.202	-186.776	-0.124	0.002
-329.187	-116.799	0.139	0.025
-328.172	-0.599	0.226	0.159
-327.158	67.873	-0.075	0.076
-326.143	-105.821	0.397	0.089
-325.129	-77.706	0.275	-0.095
-324.114	170.452	-0.037	0.052
-323.099	298.852	-0.191	0.349
-322.085	800.000	-0.100	0.322
-321.070	7.389	-0.270	-0.201
-320.056	-91.585	0.162	0.046
-319.041	-91.793	0.198	0.056
-318.026	-61.150	-0.086	0.036
-317.012	-200.000	-0.016	0.182
-315.997	283.162	-0.019	0.035
-314.983	-108.853	0.359	0.076
-313.968	-141.800	-0.568	0.057
-312.953	-0.590	0.042	-0.030
-311.939	-1.105	-0.437	0.308
-310.924	-78.762	0.326	-0.111
-309.910	40.277	-0.048	-0.043
-308.895	800.000	0.094	0.336
-307.880	-200.000	0.006	-0.574
-306.866	800.000	0.041	-0.126
-305.851	-200.000	0.021	0.335
-304.837	540.728	0.101	0.240
-303.822	42.557	0.299	-0.270
-302.807	117.171	0.178	-0.217
-301.793	-74.056	0.044	0.016
-300.778	116.595	0.187	0.228
-299.764	12.336	-0.396	-0.304
-298.749	-200.000	-0.032	0.152
-297.735	-200.000	0.019	-0.244
-296.720	-45.475	0.167	-0.082
-295.705	214.266	-0.130	0.205
-294.691	-21.262	0.180	-0.109
-293.676	-39.607	-0.143	0.074
-292.662	-61.253	0.271	-0.113
-291.647	-136.565	-0.208	0.024
-290.632	79.466	-0.175	0.186
-289.618	-50.841	0.320	-0.149
-288.603	418.512	0.051	0.108
-287.589	55.703	0.052	0.051
-286.574	-18.273	0.113	0.070
-285.559	800.000	-0.121	0.381
-284.545	-94.785	0.120	-0.032
-283.530	-9.602	-0.064	0.042
-282.516	-71.142	-0.208	0.078
-281.501	129.381	-0.157	0.200
-280.486	-28.775	-0.140	-0.080
-279.472	-67.424	0.280	-0.109
-278.457	66.696	-0.275	0.278
-277.443	-47.388	-0.141	0.068
-276.428	-200.000	0.055	0.255
-275.413	800.000	-0.013	0.044
-274.399	-200.000	0.017	0.074
-273.384	-200.000	0.032	0.253
-272.370	-136.237	-0.439	-0.051
-271.355	800.000	0.013	-0.046
-270.340	-143.941	-0.217	0.020
-269.326	-8.472	-0.101	-0.067
-268.311	48.705	0.200	0.186
-267.297	-118.371	0.132	-0.023
-266.282	85.414	-0.174	-0.190
-265.267	17.696	0.402	-0.318
-264.253	547.292	-0.108	0.257
-263.238	-120.149	-0.351	0.060
-262.224	-200.000	-0.002	-0.042
-261.209	-113.105	0.104	0.020
-260.195	800.000	-0.060	-0.250
-259.180	-200.000	0.014	0.160
-258.165	800.000	0.067	0.218
-257.151	165.926	0.127	-0.178
-256.136	800.000	0.033	0.102
-255.122	-35.745	0.106	-0.057
-254.107	-148.847	-0.236	0.019
-253.092	-200.000	-0.011	0.326
-252.078	-103.665	0.153	0.036
-251.063	800.000	-0.037	0.116
-250.049	-166.202	-0.118	-0.005
-249.034	-90.171	0.210	0.061
-248.019	27.692	0.160	-0.133
-247.005	800.000	-0.037	-0.132
-245.990	29.212	-0.072	0.061
-244.976	0.160	-0.241	0.170
-243.961	-61.008	0.012	0.005
-242.946	-200.000	0.007	-0.206
-241.932	-200.000	-0.027	-0.150
-240.917	-97.828	0.231	0.059
-239.903	49.703	0.240	0.224
-238.888	119.094	0.154	-0.189
-237.873	800.000	-0.079	-0.217
-236.859	171.721	-0.051	-0.073
-235.844	-162.496	0.050	0.002
-234.830	-2.175	-0.066	0.046
-233.815	-200.000	-0.052	-0.345
-232.800	-154.972	-0.221	-0.014
-231.786	-142.892	0.127	-0.012
-230.771	413.533	-0.021	0.044
-229.757	-158.051	0.134	0.008
-228.742	14.139	0.107	0.083
-227.727	-43.449	-0.029	-0.014
-226.713	-200.000	-0.013	0.237
-225.698	-156.731	0.122	-0.007
-224.684	-93.456	-0.337	0.092
-223.669	25.758	-0.076	-0.063
-222.655	272.251	0.056	-0.097
-221.640	800.000	-0.083	-0.257
-220.625	-128.812	-0.266	0.037
-219.611	800.000	-0.007	0.030
-218.596	5.246	-0.227	0.166
-217.582	37.367	-0.159	-0.140
-216.567	-62.831	0.372	0.153
-215.552	-100.552	0.370	0.091
-214.538	-79.482	0.351	0.118
-213.523	17.052	0.296	0.232
-212.509	-86.559	0.178	0.054
-211.494	19.249	-0.121	0.096
-210.479	-122.660	0.286	-0.046
-209.465	127.035	-0.185	0.232
-208.450	131.949	-0.001	0.001
-207.436	-200.000	0.024	-0.122
-206.421	0.626	0.121	-0.086
-205.406	152.809	0.138	-0.187
-204.392	166.013	-0.134	0.187
-203.377	278.171	0.136	-0.239
-202.363	-26.245	0.047	0.027
-201.348	39.746	0.220	0.195
-200.333	-164.845	0.296	0.013
-199.319	-1.461	0.184	-0.128
-198.304	-20.345	-0.199	0.121
-197.290	606.998	-0.108	0.266
-196.275	-92.217	-0.078	-0.022
-195.260	-138.735	0.249	0.027
-194.246	-200.000	-0.025	-0.274
-193.231	-200.000	0.000	-0.052
-192.217	-84.580	0.154	-0.048
-191.202	53.150	-0.292	-0.277
-190.187	-111.629	-0.099	0.020
-189.173	-64.108	0.093	-0.038
-188.158	-200.000	-0.084	-0.422
-187.144	-95.518	-0.276	-0.073
-186.129	165.209	-0.107	0.149
-185.114	-196.353	-0.448	-0.003
-184.100	405.993	0.082	-0.171
-183.085	800.000	-0.007	0.026
-182.071	-22.198	0.217	-0.130
-181.056	800.000	-0.177	-0.508
-180.042	51.966	-0.215	0.203
-179.027	-200.000	0.026	0.285
-178.012	215.016	-0.007	0.011
-176.998	800.000	-0.109	-0.393
-175.983	59.781	0.236	0.230
-174.969	159.026	0.095	-0.131
-173.954	-200.000	0.052	0.303
-172.939	800.000	0.087	0.278
-171.925	-169.655	0.309	0.011
-170.910	26.580	-0.226	-0.187
-169.896	-100.884	0.166	-0.040
-168.881	104.032	0.170	0.198
-167.866	-101.618	-0.108	0.026
-166.852	-46.704	-0.283	-0.137
-165.837	-163.117	0.512	0.024
-164.823	250.850	0.073	-0.123
-163.808	89.500	0.251	-0.277
-162.793	-200.000	0.019	-0.153
-161.779	-56.185	0.015	0.007
-160.764	525.343	-0.056	-0.131
-159.750	-200.000	-0.006	-0.165
-158.735	-117.746	-0.129	-0.023
-157.720	74.926	0.264	-0.275
-156.706	-8.466	0.011	-0.007
-155.691	-108.413	-0.202	0.043
-154.677	-14.205	-0.114	0.073
-153.662	-26.797	0.198	0.114
-152.647	420.287	-0.203	0.431
-151.633	-138.989	-0.315	0.034
-150.618	-29.341	-0.186	-0.105
-149.604	-130.625	-0.356	-0.047
-148.589	151.367	-0.074	0.099
-147.574	-42.603	0.089	-0.045
-146.560	-200.000	0.006	0.289
-145.545	-200.000	-0.006	-0.313
-144.531	-83.433	0.166	-0.053
-143.516	800.000	-0.079	0.294
-142.502	-51.094	0.424	0.197
-141.487	-184.405	0.123	-0.002
-140.472	-136.134	-0.331	-0.038
-139.458	-101.623	0.181	-0.044
-138.443	-80.110	-0.321	-0.106
-137.429	-200.000	-0.002	-0.129
-136.414	-153.119	-0.162	0.011
-135.399	800.000	0.048	0.202
-134.385	-200.000	-0.025	-0.172
-133.370	260.546	0.143	-0.245
-132.356	800.000	-0.073	0.278
-131.341	-200.000	-0.035	-0.166
-130.326	-42.753	-0.184	0.093
-129.312	291.747	0.058	-0.104
-128.297	-200.000	-0.012	-0.332
-127.283	-96.795	-0.086	-0.022
-126.268	-63.135	0.214	-0.087
-125.253	-200.000	0.003	0.149
-124.239	98.488	-0.101	-0.115
-123.224	38.372	0.144	0.127
-122.210	-75.811	0.188	0.066
-121.195	-200.000	0.017	0.132
-120.180	157.679	-0.074	-0.102
-119.166	-176.620	-0.184	-0.005
-118.151	78.356	-0.109	-0.115
-117.137	-65.931	0.346	0.137
-116.122	204.209	0.115	-0.175
-115.107	-200.000	-0.020	0.282
-114.093	432.814	-0.029	0.062
-113.078	-200.000	-0.033	-0.154
-112.064	800.000	0.050	-0.148
-111.049	-142.689	0.265	-0.026
-110.034	80.252	0.060	0.064
-109.020	137.653	-0.055	0.071
-108.005	292.625	0.146	0.263
-106.991	-200.000	0.008	0.372
-105.976	-55.443	0.170	-0.075
-104.962	-200.000	0.081	-0.355
-103.947	-123.548	-0.233	0.037
-102.932	-200.000	-0.037	0.249
-101.918	-66.382	0.183	0.072
-100.903	302.618	0.111	0.202
-99.889	623.301	-0.089	0.220
-98.874	-200.000	-0.015	-0.064
-97.859	6.757	-0.114	-0.084
-96.845	128.925	0.195	-0.246
-95.830	-0.000	0.334	0.235
-94.816	28.785	-0.129	0.107
-93.801	-136.634	0.161	0.018
-92.786	384.333	-0.107	-0.218
-91.772	-135.288	-0.125	0.015
-90.757	-200.000	0.012	0.136
-89.743	90.032	0.013	0.015
-88.728	-12.996	0.101	-0.065
-87.713	587.933	0.099	0.240
-86.699	109.824	0.165	0.195
-85.684	97.324	0.101	0.115
-84.670	271.839	0.053	-0.092
-83.655	79.713	0.339	-0.359
-82.640	-37.484	-0.178	-0.094
-81.626	-54.134	0.248	-0.111
-80.611	-200.000	0.005	-0.161
-79.597	-200.000	0.022	-0.158
-78.582	-45.529	-0.276	0.135
-77.567	-4.276	-0.244	-0.167
-76.553	-60.118	-0.029	0.012
-75.538	800.000	0.041	-0.174
-74.524	-57.337	-0.275	-0.119
-73.509	680.813	-0.114	-0.294
-72.494	-200.000	0.012	0.053
-71.480	94.516	-0.056	0.062
-70.465	19.381	0.256	0.202
-69.451	800.000	-0.042	0.164
-68.436	24.841	0.151	0.123
-67.422	21.053	0.038	0.031
-66.407	-65.834	0.187	-0.074
-65.392	382.793	-0.071	-0.143
-64.378	-19.218	-0.281	-0.172
-63.363	-71.598	0.194	0.071
-62.349	285.601	0.063	0.113
-61.334	118.434	-0.635	-0.772
-60.319	225.625	0.409	0.652
-59.305	800.000	-0.251	-0.989
-58.290	766.025	0.410	1.098
-57.276	800.000	0.408	1.235
-56.261	-200.000	96.685	586.453
-55.246	606.685	1423.737	3495.200
-54.232	185.866	2622.689	3838.985
-53.217	119.241	2184.285	2661.001
-52.203	44.069	1629.089	1470.669
-51.188	35.433	1361.345	1176.278
-50.173	32.173	1319.175	1120.390
-49.159	55.049	1366.107	1299.366
-48.144	57.136	1382.271	1327.312
-47.130	35.713	1341.274	1160.437
-46.115	32.118	1323.969	1123.957
-45.100	31.868	1319.098	1118.282
-44.086	31.895	1316.362	1116.079
-43.071	31.820	1314.296	1113.837
-42.057	31.692	1312.132	1111.203
-41.042	31.779	1310.246	1110.075
-40.027	31.753	1308.709	1108.574
-39.013	31.722	1307.392	1107.233
-37.998	31.783	1305.167	1105.666
-36.984	31.788	1303.328	1104.090
-35.969	31.839	1301.663	1102.939
-34.954	32.078	1299.469	1102.437
-33.940	31.887	1298.577	1100.515
-32.925	31.894	1297.474	1099.583
-31.911	32.058	1295.092	1098.479
-30.896	32.005	1293.721	1096.961
-29.881	32.029	1292.481	1096.007
-28.867	32.073	1291.100	1095.047
-27.852	32.023	1289.446	1093.312
-26.838	32.113	1287.968	1092.539
-25.823	32.009	1286.740	1090.847
-24.809	32.037	1285.467	1089.892
-23.794	31.976	1284.173	1088.393
-22.779	31.892	1283.245	1087.077
-21.765	32.032	1281.314	1086.209
-20.750	31.918	1280.300	1084.648
-19.736	31.842	1279.486	1083.478
-18.721	31.934	1277.845	1082.574
-17.706	31.862	1276.589	1081.055
-16.692	31.779	1275.666	1079.746
-15.677	31.855	1274.470	1079.130
-14.663	31.785	1273.040	1077.477
-13.648	31.825	1272.411	1077.132
-12.633	31.871	1270.907	1076.076
-11.619	31.839	1270.219	1075.268
-10.604	31.815	1269.521	1074.499
-9.590	31.742	1269.071	1073.654
-8.575	31.865	1267.587	1073.059
-7.560	31.849	1266.490	1071.997
-6.546	31.740	1265.979	1070.903
-5.531	31.758	1264.800	1069.964
-4.517	31.779	1264.112	1069.458
-3.502	31.846	1262.951	1068.819
-2.487	31.808	1262.189	1067.911
-1.473	31.922	1258.207	1065.147
-0.458	31.013	1244.649	1048.523
0.556	28.848	1227.825	1016.819
1.571	25.439	1234.369	1003.153
2.586	24.500	1249.532	1010.075
3.600	23.242	1237.302	993.050
4.615	17.048	1163.156	900.690
5.629	8.051	1087.220	796.995
6.644	3.987	1067.418	762.423
7.659	3.717	1064.801	759.162
8.673	3.887	1063.639	759.101
9.688	3.998	1062.133	758.503
10.702	4.151	1060.229	757.819
11.717	9.262	1067.985	788.425
12.731	17.424	1079.338	837.040
13.746	20.376	1082.249	853.765
14.761	19.675	1080.860	849.151
15.775	18.670	1078.853	842.564
16.790	17.650	1077.089	836.111
17.804	16.959	1075.428	831.362
18.819	16.693	1073.739	828.683
19.834	16.409	1073.812	827.274
20.848	16.176	1072.852	825.322
21.863	15.964	1071.965	823.529
22.877	15.885	1071.286	822.551
23.892	15.813	1070.739	821.704
24.907	15.899	1069.373	821.004
25.921	15.907	1068.579	820.360
26.936	15.914	1067.083	819.175
27.950	15.990	1065.671	818.384
28.965	16.161	1064.000	817.858
29.980	16.276	1062.203	816.961
30.994	16.172	1061.750	816.037
32.009	16.232	1060.954	815.646
33.023	16.046	1059.898	813.863
34.038	16.147	1058.598	813.277
35.053	16.004	1057.900	811.980
36.067	16.032	1056.901	811.280
37.082	16.008	1056.551	810.821
38.096	16.086	1055.591	810.390
39.111	16.100	1054.946	809.891
40.126	16.067	1053.262	808.364
41.140	15.810	1051.809	805.948
42.155	15.801	1050.395	804.752
43.169	15.671	1049.616	803.463
44.184	15.665	1048.760	802.706
45.199	15.775	1047.497	802.194
46.213	15.794	1046.961	801.804
47.228	15.948	1045.521	801.364
48.242	16.081	1044.449	801.102
49.257	15.996	1043.628	799.997
50.271	16.101	1042.768	799.766
51.286	16.193	1041.651	799.271
52.301	16.131	1040.717	798.192
53.315	15.894	1040.180	796.588
54.330	15.830	1039.178	795.448
55.344	15.784	1038.145	794.371
56.359	15.887	1037.180	794.048
57.374	15.708	1036.419	792.550
58.388	15.702	1035.440	791.704
59.403	15.693	1034.785	791.092
60.417	15.689	1033.517	790.034
61.432	15.660	1033.282	789.646
62.447	15.642	1031.748	788.321
63.461	15.566	1031.340	787.582
64.476	15.688	1030.000	787.063
65.490	15.761	1029.125	786.663
66.505	15.530	1028.821	785.284
67.520	15.594	1027.772	784.711
68.534	15.711	1027.125	784.695
69.549	15.653	1026.630	783.974
70.563	15.626	1025.755	783.112
71.578	15.642	1024.767	782.365
72.593	15.499	1024.015	781.056
73.607	15.465	1023.501	780.436
74.622	15.522	1022.820	780.110
75.636	15.548	1021.892	779.455
76.651	15.491	1021.763	779.024
77.666	15.433	1021.136	778.208
78.680	15.464	1020.454	777.761
79.695	15.585	1019.804	777.760
80.709	15.688	1019.030	777.575
81.724	15.746	1018.344	777.254
82.739	15.846	1017.653	777.115
83.753	16.028	1017.046	777.424
84.768	16.195	1016.161	777.449
85.782	16.235	1015.064	776.727
86.797	16.167	1014.534	775.938
87.812	16.053	1013.326	774.421
88.826	16.075	1012.112	773.527
89.841	16.176	1011.579	773.512
90.855	16.093	1010.791	772.461
91.870	16.165	1009.586	771.802
92.884	16.247	1008.601	771.356
93.899	16.167	1007.932	770.409
94.914	16.303	1007.219	770.419
95.928	16.166	1006.648	769.289
96.943	16.183	1005.619	768.510
97.957	16.169	1004.411	767.457
98.972	16.156	1004.186	767.160
99.987	16.133	1003.295	766.304
101.001	16.150	1001.961	765.297
102.016	16.085	1001.470	764.557
103.030	16.145	1001.042	764.437
104.045	16.205	999.601	763.538
105.060	16.157	998.576	762.473
106.074	15.946	997.655	760.747
107.089	15.804	996.609	759.244
108.103	15.803	995.534	758.351
109.118	15.655	994.845	757.093
110.133	15.817	993.812	756.969
111.147	15.603	993.470	755.679
112.162	15.828	992.252	755.698
113.176	15.806	991.497	754.957
114.191	15.842	990.920	754.613
115.206	15.810	990.195	753.850
116.220	15.742	989.486	752.939
117.235	15.925	988.072	752.614
118.249	15.806	987.690	751.722
119.264	15.790	986.588	750.748
120.279	15.737	985.506	749.622
121.293	15.725	984.857	749.008
122.308	15.748	983.934	748.341
123.322	15.725	983.144	747.572
124.337	15.663	982.159	746.481
125.352	15.760	980.825	745.832
126.366	15.694	980.183	744.987
127.381	15.665	979.139	744.000
128.395	15.641	978.301	743.190
129.410	15.688	977.323	742.591
130.424	15.767	976.841	742.505
131.439	15.920	975.975	742.457
132.454	15.865	975.131	741.504
133.468	16.048	974.035	741.411
134.483	15.960	973.172	740.304
135.497	15.918	972.705	739.697
136.512	15.931	971.843	739.032
137.527	15.933	970.896	738.258
138.541	16.008	969.737	737.640
139.556	15.900	969.723	737.089
140.570	16.089	969.015	737.315
141.585	16.131	968.732	737.214
142.600	16.247	966.981	736.326
143.614	16.260	966.209	735.727
144.629	16.364	965.555	735.618
145.643	16.214	964.708	734.254
146.658	16.106	963.564	732.852
147.673	16.008	962.504	731.555
148.687	15.960	961.479	730.503
149.702	16.070	960.553	730.209
150.716	15.821	959.938	728.602
151.731	15.874	959.474	728.414
152.746	15.945	958.849	728.182
153.760	16.068	957.852	727.891
154.775	16.061	957.617	727.617
155.789	16.251	956.677	727.660
156.804	16.231	956.339	727.251
157.819	16.256	955.552	726.694
158.833	16.381	954.578	726.428
159.848	16.302	954.357	725.855
160.862	16.318	953.067	724.880
161.877	16.146	951.892	723.184
162.892	16.188	950.640	722.347
163.906	16.093	950.197	721.542
164.921	16.070	948.993	720.464
165.935	16.157	947.980	720.005
166.950	16.200	947.155	719.495
167.964	16.132	946.644	718.754
168.979	16.178	945.621	718.108
169.994	16.123	944.667	717.087
171.008	16.131	944.228	716.727
172.023	16.248	943.192	716.374
173.037	16.233	943.086	716.166
174.052	16.251	942.040	715.383
175.067	16.154	941.121	714.213
176.081	15.990	940.775	713.192
177.096	15.978	940.224	712.661
178.110	16.006	939.735	712.347
179.125	16.117	938.986	712.182
180.140	16.233	938.491	712.236
181.154	16.222	938.292	711.975
182.169	16.218	937.711	711.452
183.183	16.326	937.070	711.358
184.198	16.316	936.135	710.543
185.213	16.343	935.393	710.033
186.227	16.476	934.879	710.137
187.242	16.532	934.044	709.673
188.256	16.640	933.400	709.574
189.271	16.638	932.583	708.883
190.286	16.404	931.884	707.309
191.300	16.003	931.017	704.914
192.315	16.013	930.413	704.435
193.329	16.160	929.471	704.271
194.344	16.222	929.161	704.235
195.359	16.279	928.446	703.869
196.373	16.451	927.946	704.144
197.388	16.567	927.586	704.291
198.402	16.599	927.305	704.148
199.417	16.723	926.626	704.086
200.432	16.898	925.949	704.235
201.446	16.910	924.989	703.492
202.461	16.847	925.000	703.178
203.475	16.878	924.072	702.537
204.490	16.784	923.735	701.831
205.504	16.671	922.879	700.651
206.519	16.632	922.087	699.827
207.534	16.595	921.260	698.982
208.548	16.532	920.990	698.456
209.563	16.592	920.641	698.378
210.577	16.578	919.838	697.651
211.592	16.797	918.868	697.752
212.607	16.981	917.794	697.632
213.621	16.878	916.825	696.414
214.636	16.779	916.258	695.512
215.650	16.772	915.687	694.991
216.665	16.903	915.005	694.947
217.680	16.869	914.346	694.247
218.694	16.876	913.900	693.875
219.709	16.978	912.912	693.480
220.723	16.884	912.676	692.855
221.738	16.799	912.021	691.950
222.753	16.954	911.099	691.820
223.767	16.922	910.717	691.342
224.782	17.024	910.438	691.480
225.796	17.064	909.719	691.039
226.811	17.112	908.916	690.562
227.826	17.043	907.960	689.496
228.840	16.982	907.102	688.537
229.855	16.855	906.463	687.475
230.869	16.902	905.609	686.953
231.884	16.864	905.208	686.436
232.899	17.033	904.074	686.201
233.913	16.832	903.734	685.070
234.928	16.846	902.937	684.460
235.942	16.934	902.400	684.349
236.957	16.877	902.153	683.871
237.972	16.763	901.279	682.687
238.986	16.947	900.803	683.006
240.001	16.832	900.287	682.093
241.015	16.850	899.574	681.566
242.030	16.995	899.008	681.659
243.045	16.946	898.620	681.108
244.059	17.001	897.672	680.548
245.074	17.087	897.198	680.473
246.088	17.013	896.604	679.668
247.103	17.061	896.270	679.546
248.117	17.272	895.402	679.673
249.132	17.435	895.208	680.114
250.147	17.540	894.328	679.807
251.161	17.610	893.784	679.612
252.176	17.578	893.089	678.894
253.190	17.645	892.682	678.794
254.205	17.667	891.907	678.231
255.220	17.795	890.913	677.924
256.234	17.586	890.520	676.733
257.249	17.720	889.778	676.642
258.263	17.556	888.917	675.278
259.278	17.589	888.471	675.009
260.293	17.607	888.454	675.009
261.307	17.849	887.272	675.008
262.322	17.755	887.110	674.453
263.336	17.821	886.232	673.985
264.351	17.987	885.013	673.657
265.366	17.984	884.482	673.178
266.380	17.878	884.291	672.557
267.395	17.847	883.372	671.675
268.409	17.808	882.442	670.755
269.424	17.816	882.076	670.448
270.439	17.861	880.716	669.534
271.453	17.656	880.290	668.346
272.468	17.528	880.217	667.730
273.482	17.685	879.461	667.712
274.497	17.694	879.036	667.368
275.512	17.807	878.155	667.078
276.526	17.825	877.741	666.777
277.541	17.818	877.504	666.509
278.555	18.045	876.458	666.542
279.570	18.024	875.780	665.885
280.585	18.026	875.314	665.481
281.599	18.096	874.126	664.789
282.614	17.779	874.063	663.450
283.628	17.936	873.015	663.207
284.643	17.816	872.641	662.397
285.657	17.923	872.110	662.350
286.672	17.886	871.546	661.723
287.687	17.924	870.979	661.380
288.701	17.975	870.257	660.968
289.716	17.958	869.644	660.382
290.730	17.980	869.314	660.155
291.745	18.055	868.141	659.496
292.760	18.150	868.086	659.763
293.774	18.156	867.604	659.363
294.789	18.128	866.886	658.648
295.803	18.026	866.180	657.662
296.818	17.973	865.680	657.022
297.833	18.098	864.739	656.727
298.847	17.970	864.158	655.737
299.862	18.100	863.697	655.830
300.876	18.201	862.958	655.598
301.891	18.205	862.617	655.294
302.906	18.390	861.896	655.398
303.920	18.411	861.694	655.265
304.935	18.508	861.160	655.173
305.949	18.523	859.973	654.267
306.964	18.453	859.434	653.532
307.979	18.384	859.150	652.999
308.993	18.413	858.983	652.923
310.008	18.373	858.259	652.161
311.022	18.256	857.891	651.381
312.037	18.252	857.229	650.803
313.052	18.309	856.050	650.067
314.066	18.068	855.744	648.862
315.081	18.141	855.635	649.000
316.095	18.220	854.398	648.304
317.110	18.142	854.137	647.751
318.125	18.295	853.292	647.633
319.139	18.326	852.885	647.385
320.154	18.214	852.581	646.675
321.168	18.208	852.464	646.505
322.183	18.273	851.541	645.995
323.197	18.321	851.065	645.756
324.212	18.295	850.218	644.957
325.227	18.301	849.553	644.420
326.241	18.361	849.049	644.207
327.256	18.381	848.557	643.852
328.270	18.343	848.132	643.330
329.285	18.303	847.308	642.497
330.300	18.186	847.173	641.896
331.314	18.390	846.537	642.126
332.329	18.472	845.880	641.876
333.343	18.586	845.331	641.830
334.358	18.550	845.126	641.480
335.373	18.511	845.019	641.197
336.387	18.506	845.143	641.217
337.402	18.544	844.753	641.004
338.416	18.635	844.018	640.730
339.431	18.743	843.501	640.687
340.446	18.794	843.403	640.744
341.460	19.034	842.620	640.989
342.475	18.954	842.205	640.318
343.489	18.981	841.706	639.982
344.504	19.105	841.046	639.883
345.519	18.962	841.231	639.436
346.533	18.852	840.916	638.731
347.548	18.712	839.889	637.377
348.562	18.764	839.325	637.083
349.577	18.657	838.618	636.093
350.592	18.705	838.119	635.837
351.606	18.778	837.011	635.210
352.621	18.841	836.249	634.809
353.635	18.712	835.954	634.053
354.650	18.814	835.287	633.866
355.665	18.885	834.629	633.574
356.679	18.904	834.207	633.266
357.694	18.929	833.333	632.640
358.708	18.822	832.788	631.774
359.723	18.962	832.178	631.771
360.738	18.896	831.658	631.078
361.752	18.995	831.355	631.156
362.767	19.056	830.668	630.803
363.781	19.230	830.221	631.043
364.796	19.320	829.591	630.838
365.810	19.263	829.573	630.560
366.825	19.252	829.184	630.168
367.840	19.265	828.560	629.688
368.854	19.174	827.831	628.745
369.869	19.240	827.644	628.788
370.883	19.227	827.337	628.453
371.898	19.253	826.949	628.195
372.913	19.394	826.466	628.287
373.927	19.368	825.780	627.617
374.942	19.506	825.175	627.601
375.956	19.463	824.924	627.198
376.971	19.397	824.417	626.518
377.986	19.642	824.070	627.090
379.000	19.670	823.677	626.834
380.015	19.652	822.693	625.968
381.029	19.599	822.480	625.556
382.044	19.458	821.978	624.611
383.059	19.564	821.210	624.355
384.073	19.462	820.427	623.336
385.088	19.451	820.064	622.965
386.102	19.535	819.193	622.549
387.117	19.382	819.050	621.834
388.132	19.443	818.412	621.516
389.146	19.470	818.024	621.262
390.161	19.572	817.439	621.131
391.175	19.457	817.416	620.643
392.190	19.483	816.619	620.077
393.205	19.407	815.829	619.151
394.219	19.458	815.442	618.986
395.234	19.361	815.260	618.442
396.248	19.304	814.599	617.684
397.263	19.245	814.166	617.087
398.278	19.233	814.020	616.882
399.292	19.324	813.405	616.687
400.307	19.342	812.832	616.263
401.321	19.309	812.347	615.722
402.336	19.412	811.828	615.642
403.350	19.476	811.403	615.492
404.365	19.649	811.199	615.901
405.380	19.705	810.551	615.553
406.394	19.736	810.361	615.465
407.409	19.878	809.906	615.571
408.423	19.882	809.614	615.308
409.438	19.958	809.043	615.088
410.453	19.922	808.905	614.800
411.467	20.100	808.103	614.770
412.482	20.030	807.766	614.212
413.496	20.062	807.577	614.126
414.511	20.155	806.969	613.937
415.526	19.901	806.689	612.771
416.540	20.048	806.159	612.834
417.555	20.214	805.548	612.905
418.569	19.987	805.287	611.850
419.584	20.116	804.857	611.923
420.599	20.052	804.205	611.148
421.613	158.403	1370.542	1791.709
422.628	137.569	1453.058	1791.795
