DTS Sentinel unit serial number:	SN413079Multiplexer serial number:	ORYXHardware model number:	OX4-SRSoftware version number:	ORYX F/W v4.00 Oryx Data Collector v3.7.2.0data status	okinstallation	princeton_trtdifferential loss correction	single-endedforward channel	channel 1reverse channel	N/Adate	2019/09/12time	01:12:11forward acquisition time	60.00reverse acquisition time	0.00gamma	496.2192k internal	0.2320k external	0.2320temperature offset calibration	1.0080default loss term (dB/km)	0.3790temperature slope calibration	1.0000multiplexer offset coefficient	1.0000multiplexer slope coefficient	1.0000fibre end	0.00T internal ref (°C)	33.02T ext. ref 1 (°C)	2.09T ext. ref 2 (°C)	27.71length (m)	temperature (°C)	Stokes	anti-Stokes-747.200	-71.161	0.243	0.092
-746.185	33.042	-0.112	-0.098
-745.171	277.940	0.146	0.264
-744.156	-147.622	-0.249	0.021
-743.142	-74.188	-0.178	-0.065
-742.127	-72.872	0.474	0.176
-741.112	-57.289	-0.271	0.121
-740.098	-61.703	-0.110	-0.047
-739.083	16.918	-0.212	0.170
-738.069	-200.000	0.021	0.251
-737.054	470.946	-0.098	-0.223
-736.039	315.153	-0.273	-0.520
-735.025	800.000	0.111	0.401
-734.010	325.047	-0.095	0.183
-732.996	-51.680	-0.245	0.115
-731.981	-200.000	-0.016	-0.255
-730.966	288.179	0.150	0.275
-729.952	-116.275	0.217	-0.041
-728.937	-85.181	-0.108	-0.034
-727.923	430.775	-0.159	0.348
-726.908	215.212	0.091	0.145
-725.894	659.538	0.060	-0.155
-724.879	767.571	-0.139	-0.383
-723.864	556.494	0.051	-0.123
-722.850	-103.709	0.279	-0.066
-721.835	13.516	-0.201	-0.157
-720.821	-35.625	0.223	0.122
-719.806	-76.228	-0.146	0.052
-718.791	256.965	0.122	-0.212
-717.777	-60.528	0.392	0.168
-716.762	-84.827	-0.077	-0.025
-715.748	-21.659	-0.400	-0.246
-714.733	-6.759	0.205	0.141
-713.718	800.000	-0.052	0.182
-712.704	-6.643	-0.392	0.269
-711.689	232.517	-0.041	-0.067
-710.675	639.461	0.106	0.273
-709.660	-72.264	-0.182	0.068
-708.645	-6.834	0.165	-0.113
-707.631	-81.111	0.085	0.028
-706.616	-200.000	-0.012	0.171
-705.602	516.297	-0.040	0.094
-704.587	259.013	0.158	-0.276
-703.572	-76.322	0.171	0.061
-702.558	800.000	0.044	-0.157
-701.543	-200.000	0.019	-0.596
-700.529	-72.013	-0.276	0.104
-699.514	800.000	-0.083	-0.249
-698.499	-62.214	0.224	-0.094
-697.485	437.008	0.139	0.307
-696.470	74.985	0.097	0.103
-695.456	800.000	-0.027	0.091
-694.441	-24.865	-0.120	0.072
-693.426	-32.564	-0.088	0.049
-692.412	-200.000	0.018	-0.187
-691.397	-38.387	0.359	-0.192
-690.383	452.128	0.084	-0.188
-689.368	-149.023	0.125	-0.010
-688.354	-200.000	0.001	-0.078
-687.339	352.166	-0.085	-0.169
-686.324	-200.000	-0.020	0.143
-685.310	123.848	-0.066	0.083
-684.295	109.916	0.071	0.087
-683.281	-34.993	-0.171	0.094
-682.266	82.591	0.084	-0.092
-681.251	-51.562	0.046	-0.021
-680.237	676.547	-0.040	0.105
-679.222	800.000	-0.077	-0.301
-678.208	-20.098	0.213	0.132
-677.193	200.858	-0.103	0.159
-676.178	-192.653	-0.083	0.001
-675.164	-200.000	0.007	0.224
-674.149	-125.251	0.267	-0.041
-673.135	-197.616	0.225	-0.001
-672.120	-3.740	-0.206	-0.144
-671.105	-130.281	-0.294	-0.040
-670.091	146.016	-0.237	0.321
-669.076	-158.347	-0.275	0.016
-668.062	65.286	-0.068	0.069
-667.047	309.750	0.222	-0.419
-666.032	-102.062	0.432	-0.105
-665.018	-105.019	0.150	0.035
-664.003	800.000	-0.040	-0.136
-662.989	-200.000	-0.003	-0.212
-661.974	-75.739	-0.267	0.096
-660.959	-173.595	-0.106	0.003
-659.945	-71.414	0.131	0.049
-658.930	-20.030	0.113	-0.070
-657.916	10.590	0.185	0.142
-656.901	150.523	0.229	0.314
-655.886	443.375	0.047	-0.104
-654.872	-114.937	0.151	0.029
-653.857	206.259	0.133	-0.209
-652.843	5.891	-0.186	0.139
-651.828	800.000	-0.046	-0.137
-650.814	-35.738	-0.175	0.096
-649.799	-60.004	-0.560	-0.241
-648.784	1.599	-0.112	0.081
-647.770	800.000	-0.013	-0.054
-646.755	-90.414	-0.055	0.016
-645.741	-133.459	-0.075	-0.009
-644.726	-46.416	-0.199	0.098
-643.711	-122.719	-0.453	0.074
-642.697	5.382	0.259	0.192
-641.682	129.794	0.079	-0.101
-640.668	-200.000	0.103	-0.000
-639.653	636.246	-0.143	-0.367
-638.638	-49.865	0.189	0.090
-637.624	-26.231	-0.134	0.079
-636.609	85.608	-0.072	-0.080
-635.595	-111.436	0.463	0.095
-634.580	662.309	0.049	-0.127
-633.565	99.761	-0.118	-0.138
-632.551	63.652	0.157	-0.159
-631.536	-137.069	0.125	0.014
-630.522	-68.948	-0.186	0.072
-629.507	45.507	-0.195	-0.181
-628.492	-133.966	0.225	-0.028
-627.478	-86.769	0.233	0.072
-626.463	-78.794	0.339	-0.116
-625.449	-200.000	-0.011	-0.251
-624.434	-154.526	-0.257	0.017
-623.419	-106.311	-0.227	0.051
-622.405	578.183	-0.182	-0.449
-621.390	-46.279	0.445	0.220
-620.376	-47.892	-0.328	-0.160
-619.361	269.763	-0.256	-0.453
-618.346	23.054	0.062	-0.051
-617.332	336.556	-0.091	0.177
-616.317	-166.414	-0.347	0.015
-615.303	-18.479	-0.294	-0.184
-614.288	160.056	0.042	-0.059
-613.273	-2.750	0.200	0.140
-612.259	-143.947	-0.275	-0.026
-611.244	-33.284	-0.084	-0.047
-610.230	56.905	-0.059	-0.058
-609.215	800.000	-0.046	-0.127
-608.201	123.150	0.201	0.253
-607.186	800.000	0.054	-0.152
-606.171	-200.000	-0.035	0.292
-605.157	140.092	-0.387	-0.514
-604.142	-200.000	-0.011	0.154
-603.128	-113.963	-0.136	-0.027
-602.113	50.021	-0.063	0.060
-601.098	42.900	0.135	0.123
-600.084	-14.751	0.071	-0.046
-599.069	800.000	0.033	0.115
-598.055	800.000	0.144	0.456
-597.040	-16.174	-0.164	-0.105
-596.025	170.642	0.101	-0.145
-595.011	-154.420	-0.059	-0.004
-593.996	497.321	0.051	-0.118
-592.982	110.361	0.087	0.105
-591.967	-84.199	0.105	0.033
-590.952	-200.000	0.005	0.068
-589.938	-200.000	0.006	0.051
-588.923	-130.842	-0.261	-0.035
-587.909	-37.463	-0.311	0.167
-586.894	91.841	0.020	0.022
-585.879	136.491	-0.184	0.242
-584.865	758.434	-0.068	-0.184
-583.850	-16.763	-0.287	-0.182
-582.836	138.066	0.126	0.167
-581.821	-19.616	0.319	-0.198
-580.806	-200.000	-0.007	0.076
-579.792	-128.034	-0.082	0.012
-578.777	25.006	-0.099	-0.083
-577.763	-1.894	0.065	0.046
-576.748	-50.870	0.241	-0.114
-575.733	-146.741	0.211	-0.018
-574.719	114.059	-0.184	-0.225
-573.704	214.887	0.096	0.152
-572.690	100.629	0.119	0.139
-571.675	-62.241	0.368	0.154
-570.661	-200.000	0.026	-0.356
-569.646	255.918	0.125	0.215
-568.631	621.602	0.092	0.234
-567.617	-37.416	0.163	0.087
-566.602	800.000	0.055	0.195
-565.588	57.860	-0.128	-0.126
-564.573	78.810	0.210	0.226
-563.558	800.000	-0.137	-0.449
-562.544	58.050	0.171	-0.168
-561.529	-68.022	0.160	-0.063
-560.515	-63.849	0.329	-0.135
-559.500	140.083	-0.085	-0.113
-558.485	-19.304	-0.217	-0.135
-557.471	-104.768	-0.219	-0.051
-556.456	116.724	-0.197	0.243
-555.442	-69.481	0.303	0.117
-554.427	800.000	-0.038	-0.136
-553.412	-134.624	0.202	0.025
-552.398	-64.573	-0.062	-0.025
-551.383	479.116	0.074	-0.168
-550.369	57.647	0.079	-0.078
-549.354	241.679	-0.123	-0.206
-548.339	-4.398	0.206	-0.143
-547.325	-131.059	0.276	0.037
-546.310	257.107	-0.083	0.143
-545.296	21.733	0.273	0.223
-544.281	19.395	-0.233	-0.188
-543.266	800.000	0.020	-0.080
-542.252	122.850	0.123	-0.154
-541.237	800.000	0.075	0.256
-540.223	428.816	0.108	-0.234
-539.208	-24.883	0.227	0.135
-538.193	800.000	-0.018	-0.056
-537.179	284.084	0.057	0.102
-536.164	84.957	-0.128	-0.140
-535.150	-136.435	0.078	-0.009
-534.135	505.300	0.110	0.256
-533.121	-200.000	-0.038	0.289
-532.106	327.153	-0.128	-0.246
-531.091	800.000	0.032	0.098
-530.077	182.444	0.261	-0.385
-529.062	-200.000	0.010	-0.088
-528.048	74.694	0.181	0.191
-527.033	-5.046	0.047	0.032
-526.018	800.000	0.079	0.330
-525.004	28.048	-0.145	-0.123
-523.989	-200.000	0.020	-0.147
-522.975	-132.107	-0.141	-0.018
-521.960	-80.718	0.434	0.145
-520.945	800.000	0.097	-0.369
-519.931	-137.282	-0.323	-0.037
-518.916	509.428	0.027	0.063
-517.902	160.088	-0.192	0.268
-516.887	-102.446	0.201	-0.048
-515.872	-62.302	-0.327	0.136
-514.858	-4.392	-0.005	-0.003
-513.843	22.573	0.175	-0.143
-512.829	-59.820	0.273	-0.117
-511.814	-79.115	0.236	-0.080
-510.799	-51.151	-0.054	0.025
-509.785	-200.000	-0.007	-0.084
-508.770	369.965	-0.044	-0.089
-507.756	543.344	0.092	0.219
-506.741	-200.000	-0.068	-0.402
-505.726	21.403	0.318	-0.259
-504.712	339.274	0.158	0.309
-503.697	-154.189	-0.372	-0.025
-502.683	-88.449	-0.409	-0.122
-501.668	-51.784	0.080	-0.038
-500.653	-151.644	-0.244	-0.018
-499.639	-200.000	0.013	0.265
-498.624	158.635	0.083	0.115
-497.610	393.964	-0.058	0.122
-496.595	-200.000	-0.049	-0.233
-495.581	-98.388	-0.243	-0.062
-494.566	-1.488	-0.117	-0.082
-493.551	-146.322	-0.091	-0.008
-492.537	-137.292	-0.013	0.001
-491.522	3.388	-0.137	-0.100
-490.508	522.373	-0.034	0.080
-489.493	-84.430	-0.148	0.047
-488.478	442.899	-0.115	-0.253
-487.464	-60.740	0.141	0.060
-486.449	-200.000	-0.029	-0.205
-485.435	800.000	-0.053	0.175
-484.420	-200.000	-0.016	-0.104
-483.405	-58.050	0.112	-0.049
-482.391	-45.966	-0.096	0.048
-481.376	-28.849	0.233	-0.134
-480.362	397.301	-0.109	0.229
-479.347	67.318	0.080	0.082
-478.332	-3.509	0.450	0.313
-477.318	-3.180	-0.159	-0.111
-476.303	-200.000	-0.008	-0.046
-475.289	-109.260	0.128	-0.027
-474.274	-124.314	-0.023	0.004
-473.259	-107.982	0.033	0.007
-472.245	87.294	0.094	0.105
-471.230	-118.096	-0.191	-0.034
-470.216	800.000	-0.069	-0.252
-469.201	-200.000	-0.017	0.104
-468.186	496.682	-0.167	-0.383
-467.172	-200.000	-0.018	-0.121
-466.157	-125.312	-0.101	-0.015
-465.143	-71.402	0.061	-0.023
-464.128	-164.236	0.260	0.012
-463.113	763.981	0.041	0.111
-462.099	-70.356	-0.148	0.056
-461.084	85.828	-0.192	-0.212
-460.070	165.395	0.091	0.128
-459.055	-89.090	0.250	-0.074
-458.040	531.455	0.070	0.167
-457.026	-24.234	0.100	-0.060
-456.011	800.000	-0.109	-0.333
-454.997	800.000	-0.060	0.261
-453.982	-200.000	-0.033	0.219
-452.968	249.898	-0.111	0.188
-451.953	-80.717	0.048	0.016
-450.938	-200.000	0.048	-0.275
-449.924	258.873	-0.075	0.129
-448.909	255.452	-0.262	-0.448
-447.895	-200.000	0.031	0.135
-446.880	-11.690	0.118	-0.078
-445.865	-67.630	0.281	-0.110
-444.851	307.114	-0.145	0.269
-443.836	499.362	-0.170	-0.391
-442.822	800.000	0.061	-0.254
-441.807	-154.014	-0.272	0.018
-440.792	-200.000	-0.021	-0.193
-439.778	190.252	0.079	-0.119
-438.763	-54.388	0.034	-0.015
-437.749	268.504	0.058	0.102
-436.734	135.159	0.132	0.172
-435.719	-122.096	0.325	-0.053
-434.705	-200.000	-0.039	0.207
-433.690	-43.497	0.101	-0.051
-432.676	-91.035	0.112	0.032
-431.661	-25.372	-0.402	0.237
-430.646	-200.000	0.015	0.108
-429.632	26.514	-0.072	-0.060
-428.617	23.849	0.113	0.093
-427.603	-200.000	-0.033	-0.160
-426.588	267.725	0.099	-0.173
-425.573	-200.000	0.052	-0.308
-424.559	-200.000	0.013	-0.159
-423.544	-51.420	0.258	0.121
-422.530	-200.000	-0.032	-0.202
-421.515	-90.931	-0.151	0.043
-420.500	-200.000	0.006	0.121
-419.486	197.526	-0.127	0.194
-418.471	356.185	0.129	-0.257
-417.457	336.553	-0.136	-0.264
-416.442	100.356	-0.199	0.231
-415.428	-191.562	-0.440	0.004
-414.413	790.753	-0.017	-0.046
-413.398	345.249	0.150	0.295
-412.384	-102.718	0.027	-0.006
-411.369	-79.307	-0.158	0.054
-410.355	-200.000	0.016	0.152
-409.340	79.708	-0.211	-0.226
-408.325	221.410	-0.098	-0.156
-407.311	-164.352	0.142	0.006
-406.296	-200.000	-0.035	-0.210
-405.282	-143.415	0.349	0.033
-404.267	-200.000	0.070	-0.454
-403.252	106.065	-0.085	-0.101
-402.238	416.849	0.101	0.215
-401.223	182.013	0.160	-0.235
-400.209	800.000	-0.033	0.106
-399.194	-100.131	0.070	-0.017
-398.179	172.458	-0.250	-0.359
-397.165	800.000	-0.081	-0.290
-396.150	-7.417	0.188	-0.127
-395.136	81.697	0.117	-0.126
-394.121	2.226	-0.335	0.241
-393.106	82.211	-0.017	0.018
-392.092	-130.380	0.276	-0.037
-391.077	-102.891	0.143	-0.034
-390.063	69.477	0.090	0.093
-389.048	35.844	-0.311	0.273
-388.033	20.481	0.198	-0.159
-387.019	-93.416	0.267	0.074
-386.004	-200.000	0.001	-0.216
-384.990	-27.214	0.036	-0.021
-383.975	-141.246	0.213	-0.022
-382.960	800.000	0.029	-0.118
-381.946	230.168	0.046	-0.074
-380.931	-51.679	-0.342	0.159
-379.917	-74.582	0.046	0.017
-378.902	-31.315	-0.151	0.085
-377.888	-200.000	-0.000	0.136
-376.873	47.418	0.162	-0.150
-375.858	-73.131	-0.294	-0.108
-374.844	165.392	0.211	0.297
-373.829	-200.000	0.035	-0.152
-372.815	438.854	0.016	-0.035
-371.800	108.334	0.091	0.109
-370.785	-200.000	0.002	0.105
-369.771	129.045	0.107	-0.135
-368.756	-200.000	0.017	-0.110
-367.742	-2.222	-0.171	-0.120
-366.727	800.000	-0.050	-0.211
-365.712	-200.000	-0.009	0.238
-364.698	-200.000	-0.040	0.242
-363.683	-200.000	0.033	0.304
-362.669	-45.747	0.195	-0.096
-361.654	67.595	-0.194	0.198
-360.639	-200.000	0.029	0.319
-359.625	392.553	-0.145	0.301
-358.610	-125.014	0.360	-0.055
-357.596	-51.831	0.160	-0.074
-356.581	-21.806	-0.147	-0.089
-355.566	-200.000	-0.007	0.130
-354.552	-84.379	0.090	-0.028
-353.537	370.394	-0.204	-0.413
-352.523	-139.311	0.267	0.029
-351.508	37.532	0.121	-0.107
-350.493	115.089	-0.157	-0.191
-349.479	255.807	0.059	-0.101
-348.464	-35.887	-0.155	-0.084
-347.450	13.259	-0.301	-0.232
-346.435	-60.752	-0.116	0.049
-345.420	-200.000	0.001	-0.202
-344.406	-45.538	0.052	-0.026
-343.391	599.396	-0.108	0.267
-342.377	-130.868	-0.106	-0.014
-341.362	-133.033	0.236	-0.030
-340.348	65.596	0.253	-0.255
-339.333	208.125	0.181	-0.281
-338.318	800.000	-0.057	-0.181
-337.304	16.971	0.174	-0.137
-336.289	55.703	0.110	-0.106
-335.275	247.950	-0.230	0.387
-334.260	278.869	0.196	0.348
-333.245	102.496	-0.025	0.029
-332.231	-33.655	0.093	0.051
-331.216	-43.541	0.089	-0.045
-330.202	-200.000	-0.042	0.381
-329.187	201.442	-0.100	0.154
-328.172	-48.501	0.259	-0.124
-327.158	-115.904	-0.384	0.071
-326.143	-101.083	-0.099	-0.024
-325.129	76.223	-0.125	0.132
-324.114	-200.000	0.059	0.383
-323.099	703.248	0.077	0.201
-322.085	467.826	-0.040	0.090
-321.070	-200.000	0.032	0.173
-320.056	800.000	-0.060	0.208
-319.041	800.000	0.067	-0.192
-318.026	328.401	-0.023	0.044
-317.012	680.163	0.078	0.202
-315.997	800.000	-0.019	0.080
-314.983	125.925	-0.222	0.279
-313.968	-200.000	-0.026	-0.277
-312.953	350.819	0.191	0.376
-311.939	71.284	0.094	0.097
-310.924	-31.846	-0.201	-0.112
-309.910	800.000	0.063	0.199
-308.895	-83.264	0.131	0.042
-307.880	-33.156	0.042	-0.023
-306.866	165.339	-0.127	-0.178
-305.851	-109.722	-0.132	-0.028
-304.837	-200.000	-0.015	0.070
-303.822	-40.665	0.390	0.201
-302.807	-200.000	-0.025	-0.333
-301.793	249.949	-0.027	0.046
-300.778	-102.367	0.281	-0.067
-299.764	-84.042	0.396	-0.125
-298.749	800.000	0.010	0.028
-297.735	-200.000	-0.033	-0.255
-296.720	800.000	0.056	-0.186
-295.705	-200.000	-0.048	0.289
-294.691	83.495	0.172	-0.186
-293.676	-37.014	0.058	0.031
-292.662	-56.879	-0.215	0.094
-291.647	-200.000	0.079	0.443
-290.632	38.095	0.049	-0.043
-289.618	62.570	0.147	0.146
-288.603	-200.000	0.018	0.124
-287.589	-200.000	-0.005	-0.146
-286.574	-200.000	0.000	0.221
-285.559	-72.182	-0.065	-0.024
-284.545	-200.000	0.029	0.253
-283.530	19.835	0.090	-0.072
-282.516	106.825	-0.038	0.045
-281.501	800.000	-0.027	-0.090
-280.486	800.000	-0.078	-0.240
-279.472	-3.180	-0.069	0.048
-278.457	-147.309	0.264	0.022
-277.443	154.478	-0.198	-0.271
-276.428	63.632	-0.194	0.194
-275.413	-81.231	0.383	-0.125
-274.399	800.000	-0.174	-0.499
-273.384	117.362	-0.223	-0.272
-272.370	169.167	0.208	0.294
-271.355	-25.576	0.189	0.111
-270.340	72.181	0.402	0.415
-269.326	-0.122	0.193	-0.137
-268.311	17.853	0.483	0.382
-267.297	-200.000	-0.435	-0.002
-266.282	800.000	-0.070	0.227
-265.267	431.477	-0.121	-0.260
-264.253	64.743	0.043	0.043
-263.238	-79.445	0.484	0.162
-262.224	-5.862	-0.125	-0.085
-261.209	-200.000	0.026	-0.257
-260.195	436.271	-0.037	-0.081
-259.180	800.000	-0.062	0.209
-258.165	71.729	-0.123	0.127
-257.151	662.881	0.047	0.119
-256.136	437.134	-0.106	-0.229
-255.122	245.443	0.045	-0.076
-254.107	24.783	0.357	0.294
-253.092	-159.506	-0.386	-0.021
-252.078	772.010	-0.131	0.354
-251.063	-19.794	0.079	0.048
-250.049	125.892	0.055	-0.069
-249.034	-59.505	0.320	0.136
-248.019	-136.743	-0.122	-0.014
-247.005	-148.265	0.061	-0.005
-245.990	293.401	0.028	0.052
-244.976	-145.263	-0.283	-0.025
-243.961	-200.000	0.020	0.173
-242.946	189.438	-0.152	0.226
-241.932	200.276	0.147	-0.223
-240.917	-116.769	-0.232	0.042
-239.903	232.030	0.101	-0.164
-238.888	66.692	-0.170	-0.171
-237.873	800.000	0.070	0.209
-236.859	275.881	-0.064	-0.112
-235.844	42.452	-0.217	0.196
-234.830	80.332	0.247	0.264
-233.815	44.318	0.243	0.221
-232.800	149.355	-0.144	0.193
-231.786	33.316	-0.194	-0.167
-230.771	-91.863	-0.179	-0.050
-229.757	-85.562	-0.230	0.071
-228.742	39.699	-0.073	0.065
-227.727	800.000	0.102	-0.312
-226.713	31.483	-0.192	0.163
-225.698	165.686	-0.088	0.124
-224.684	-56.743	-0.218	0.096
-223.669	167.047	0.217	-0.305
-222.655	-5.529	-0.064	0.044
-221.640	-70.706	-0.210	0.079
-220.625	-150.867	0.220	-0.017
-219.611	553.569	-0.068	0.161
-218.596	15.590	-0.251	-0.195
-217.582	16.952	0.152	-0.120
-216.567	118.267	0.109	0.133
-215.552	56.212	-0.329	0.317
-214.538	260.249	-0.029	-0.050
-213.523	18.912	-0.303	0.240
-212.509	40.583	-0.142	0.127
-211.494	800.000	-0.031	-0.087
-210.479	499.862	0.030	0.068
-209.465	-121.909	0.137	0.022
-208.450	6.382	-0.300	0.220
-207.436	-200.000	-0.002	-0.057
-206.421	555.329	0.114	0.271
-205.406	114.340	-0.084	0.102
-204.392	-59.153	-0.190	-0.081
-203.377	-200.000	0.013	0.201
-202.363	-21.001	0.052	0.032
-201.348	104.834	-0.022	-0.025
-200.333	800.000	-0.067	0.190
-199.319	23.379	-0.196	-0.160
-198.304	67.610	0.105	0.106
-197.290	-43.049	0.255	-0.128
-196.275	5.185	-0.057	0.041
-195.260	7.348	-0.145	-0.108
-194.246	14.742	-0.110	-0.085
-193.231	-29.502	-0.280	-0.158
-192.217	-104.287	0.382	-0.088
-191.202	-200.000	-0.009	-0.128
-190.187	-77.948	0.194	0.066
-189.173	78.422	-0.125	0.132
-188.158	440.098	-0.080	-0.173
-187.144	332.751	-0.037	0.071
-186.129	-30.197	-0.247	-0.139
-185.114	800.000	-0.077	0.265
-184.100	657.743	-0.141	0.359
-183.085	107.805	-0.154	0.181
-182.071	-94.106	0.077	-0.021
-181.056	10.457	-0.226	0.170
-180.042	-61.792	0.111	0.046
-179.027	515.626	0.128	0.297
-178.012	121.600	-0.140	-0.173
-176.998	95.171	0.211	-0.238
-175.983	-200.000	-0.006	0.236
-174.969	-35.766	0.364	0.195
-173.954	-69.849	-0.329	0.124
-172.939	65.482	0.211	0.211
-171.925	181.285	0.197	-0.287
-170.910	-92.919	0.055	0.015
-169.896	626.729	0.031	-0.076
-168.881	800.000	-0.040	0.171
-167.866	-29.563	-0.175	-0.099
-166.852	45.416	0.159	-0.146
-165.837	667.952	-0.076	-0.194
-164.823	152.824	0.124	0.168
-163.808	187.413	-0.110	-0.162
-162.793	86.564	0.349	0.380
-161.779	-89.654	-0.130	0.038
-160.764	800.000	0.024	0.097
-159.750	-140.246	-0.221	-0.023
-158.735	-168.115	0.150	-0.006
-157.720	68.751	0.059	-0.060
-156.706	800.000	0.031	-0.088
-155.691	-89.277	-0.153	-0.045
-154.677	-136.419	0.209	-0.024
-153.662	85.242	-0.148	-0.160
-152.647	-135.771	-0.185	-0.022
-151.633	800.000	-0.067	-0.193
-150.618	534.308	0.098	0.230
-149.604	-113.318	-0.209	-0.041
-148.589	-144.943	-0.224	0.020
-147.574	800.000	0.098	0.275
-146.560	110.500	0.150	-0.178
-145.545	-105.754	0.138	-0.031
-144.531	229.134	0.133	0.214
-143.516	47.429	0.148	-0.136
-142.502	800.000	0.057	-0.205
-141.487	267.824	0.035	-0.060
-140.472	93.335	0.072	-0.080
-139.458	-200.000	-0.047	-0.256
-138.443	-200.000	0.016	0.120
-137.429	202.276	-0.062	-0.094
-136.414	48.557	-0.167	0.154
-135.399	-100.940	-0.073	-0.018
-134.385	-38.776	-0.187	-0.097
-133.370	-63.939	0.085	0.034
-132.356	-67.325	0.085	-0.033
-131.341	-102.775	0.195	0.046
-130.326	800.000	-0.088	-0.345
-129.312	-111.156	-0.159	-0.032
-128.297	-66.202	0.157	0.062
-127.283	177.383	0.055	-0.079
-126.268	436.982	0.063	-0.136
-125.253	-61.822	-0.298	0.123
-124.239	-103.457	-0.273	0.063
-123.224	-76.239	-0.206	-0.072
-122.210	163.170	0.056	-0.078
-121.195	662.455	0.134	-0.341
-120.180	-12.726	-0.157	-0.101
-119.166	35.986	-0.089	-0.077
-118.151	-100.895	-0.196	0.048
-117.137	-43.070	0.293	-0.147
-116.122	75.191	0.261	-0.271
-115.107	-200.000	0.041	0.215
-114.093	224.477	0.134	0.213
-113.078	-200.000	0.028	-0.142
-112.064	325.196	0.181	-0.342
-111.049	-200.000	0.012	-0.196
-110.034	-72.571	-0.023	-0.008
-109.020	-128.508	-0.137	0.019
-108.005	-141.318	0.506	-0.051
-106.991	4.246	0.157	-0.113
-105.976	-200.000	0.058	-0.301
-104.962	-112.607	0.182	-0.036
-103.947	-107.265	-0.268	-0.058
-102.932	-50.732	-0.194	-0.090
-101.918	-88.692	0.114	-0.034
-100.903	-146.304	-0.195	0.017
-99.889	26.252	-0.117	-0.096
-98.874	-37.768	0.491	-0.258
-97.859	-58.122	0.264	-0.113
-96.845	148.233	0.134	0.178
-95.830	4.726	-0.381	-0.276
-94.816	171.502	0.055	0.078
-93.801	10.778	-0.036	0.027
-92.786	-108.461	-0.207	-0.044
-91.772	9.632	-0.109	0.081
-90.757	122.689	0.120	-0.148
-89.743	800.000	-0.062	-0.246
-88.728	-58.347	-0.185	-0.079
-87.713	71.183	-0.215	0.219
-86.699	-138.282	0.220	-0.024
-85.684	92.783	-0.003	-0.004
-84.670	-46.546	-0.114	-0.055
-83.655	612.854	0.112	0.277
-82.640	53.854	0.148	0.140
-81.626	-102.648	-0.171	0.040
-80.611	-100.308	-0.321	0.079
-79.597	19.381	0.368	-0.292
-78.582	-200.000	0.036	-0.206
-77.567	-200.000	-0.003	0.039
-76.553	-200.000	0.020	-0.257
-75.538	138.137	0.168	-0.217
-74.524	-11.593	-0.135	-0.087
-73.509	800.000	-0.062	0.217
-72.494	171.411	-0.298	-0.422
-71.480	42.681	0.181	-0.163
-70.465	53.766	-0.129	-0.122
-69.451	27.761	0.046	0.038
-68.436	280.929	-0.034	-0.060
-67.422	-200.000	-0.015	-0.346
-66.407	-200.000	0.035	-0.229
-65.392	196.389	-0.026	0.038
-64.378	-200.000	0.024	0.228
-63.363	-18.357	0.163	0.100
-62.349	-200.000	0.055	0.282
-61.334	88.686	-0.992	-1.086
-60.319	-20.705	0.555	0.335
-59.305	800.000	-0.396	-1.183
-58.290	800.000	0.162	0.551
-57.276	511.846	0.753	1.726
-56.261	-200.000	96.590	572.514
-55.246	546.237	1378.293	3244.561
-54.232	160.003	2554.050	3503.540
-53.217	111.629	2141.843	2543.901
-52.203	44.401	1605.234	1450.977
-51.188	36.580	1343.057	1166.981
-50.173	33.357	1301.492	1111.930
-49.159	55.351	1348.524	1283.962
-48.144	57.310	1365.855	1312.105
-47.130	36.682	1323.165	1150.118
-46.115	33.170	1306.251	1114.715
-45.100	32.943	1301.767	1109.510
-44.086	32.929	1299.532	1107.479
-43.071	32.893	1297.339	1105.354
-42.057	32.837	1295.031	1103.017
-41.042	32.912	1292.980	1101.665
-40.027	32.919	1291.921	1100.762
-39.013	33.103	1289.558	1099.776
-37.998	32.857	1288.244	1097.183
-36.984	32.882	1286.640	1095.917
-35.969	33.040	1284.477	1094.944
-34.954	33.074	1283.088	1093.914
-33.940	33.091	1281.611	1092.712
-32.925	33.000	1281.010	1091.630
-31.911	33.036	1279.235	1090.278
-30.896	33.130	1277.211	1089.051
-29.881	33.156	1275.733	1087.901
-28.867	33.187	1274.423	1086.915
-27.852	33.154	1272.786	1085.287
-26.838	33.215	1271.803	1084.756
-25.823	33.194	1270.312	1083.320
-24.809	33.164	1268.884	1081.892
-23.794	33.096	1267.620	1080.380
-22.779	33.098	1266.205	1079.145
-21.765	33.143	1264.993	1078.327
-20.750	33.073	1263.662	1076.747
-19.736	33.036	1262.623	1075.608
-18.721	32.916	1261.917	1074.280
-17.706	32.904	1260.791	1073.213
-16.692	32.980	1259.190	1072.237
-15.677	32.930	1258.556	1071.375
-14.663	33.015	1257.130	1070.597
-13.648	32.902	1256.111	1069.048
-12.633	32.936	1255.203	1068.424
-11.619	32.885	1254.811	1067.761
-10.604	32.923	1253.815	1067.085
-9.590	32.936	1252.696	1066.164
-8.575	32.895	1251.848	1065.169
-7.560	33.005	1250.257	1064.392
-6.546	32.949	1249.887	1063.718
-5.531	32.863	1249.252	1062.652
-4.517	32.912	1248.430	1062.187
-3.502	32.924	1247.266	1061.220
-2.487	32.928	1246.779	1060.787
-1.473	32.992	1241.924	1056.976
-0.458	31.496	1227.861	1036.681
0.556	28.636	1210.812	1000.103
1.571	25.143	1216.413	985.481
2.586	24.433	1232.684	994.622
3.600	24.059	1221.973	983.823
4.615	17.686	1149.035	891.789
5.629	7.095	1071.813	779.841
6.644	2.510	1050.671	742.208
7.659	2.109	1047.798	738.170
8.673	1.933	1046.836	736.580
9.688	1.800	1045.533	734.955
10.702	2.529	1043.990	737.318
11.717	9.099	1053.989	776.160
12.731	19.342	1067.853	836.231
13.746	24.205	1074.649	865.152
14.761	25.152	1075.477	870.340
15.775	25.209	1074.552	869.795
16.790	25.044	1074.022	868.488
17.804	25.032	1073.210	867.696
18.819	25.136	1072.772	867.767
19.834	25.083	1072.807	867.462
20.848	25.231	1072.276	867.673
21.863	25.291	1071.524	867.279
22.877	25.210	1070.324	865.838
23.892	25.102	1069.893	864.894
24.907	25.203	1069.623	865.085
25.921	25.214	1068.427	864.096
26.936	25.212	1066.647	862.568
27.950	25.133	1065.309	861.032
28.965	25.004	1063.879	859.180
29.980	25.063	1062.146	857.986
30.994	25.230	1061.184	857.934
32.009	25.292	1060.332	857.466
33.023	25.003	1059.377	855.235
34.038	25.077	1058.423	854.744
35.053	25.219	1057.845	854.880
36.067	25.294	1056.708	854.239
37.082	25.307	1056.459	854.024
38.096	25.558	1055.384	854.276
39.111	25.550	1055.165	853.984
40.126	25.256	1053.873	851.466
41.140	24.989	1051.648	848.331
42.155	24.879	1050.227	846.590
43.169	24.908	1049.557	846.110
44.184	24.916	1048.973	845.602
45.199	24.703	1047.825	843.598
46.213	24.887	1046.842	843.598
47.228	25.054	1046.293	843.866
48.242	25.135	1044.994	843.124
49.257	25.140	1044.528	842.697
50.271	25.369	1043.738	843.065
51.286	25.223	1043.096	841.783
52.301	25.344	1041.671	841.129
53.315	25.182	1040.882	839.656
54.330	25.174	1039.975	838.816
55.344	25.186	1039.414	838.344
56.359	25.205	1038.529	837.646
57.374	24.961	1037.427	835.543
58.388	25.023	1036.804	835.258
59.403	24.941	1035.954	834.117
60.417	24.839	1035.226	832.979
61.432	24.838	1034.719	832.495
62.447	24.967	1033.790	832.271
63.461	25.069	1032.747	831.834
64.476	25.039	1031.776	830.837
65.490	24.835	1031.238	829.388
66.505	24.815	1030.554	828.670
67.520	24.949	1029.727	828.552
68.534	24.762	1028.115	826.320
69.549	24.478	1027.366	824.333
70.563	24.418	1026.744	823.484
71.578	24.465	1025.306	822.473
72.593	24.217	1024.901	820.934
73.607	24.440	1024.416	821.500
74.622	24.729	1024.356	822.709
75.636	24.815	1023.078	822.006
76.651	24.500	1022.788	820.251
77.666	24.673	1021.510	819.946
78.680	24.622	1021.134	819.337
79.695	24.636	1020.662	818.953
80.709	24.779	1020.022	819.021
81.724	24.745	1019.346	818.251
82.739	24.869	1018.376	817.967
83.753	25.214	1017.742	818.957
84.768	25.606	1016.748	819.875
85.782	25.643	1015.940	819.317
86.797	25.473	1015.096	817.794
87.812	25.288	1013.992	815.990
88.826	25.410	1013.152	815.794
89.841	25.518	1012.360	815.572
90.855	25.542	1011.535	814.948
91.870	25.385	1010.611	813.421
92.884	25.430	1009.032	812.279
93.899	25.285	1008.316	810.975
94.914	25.544	1007.387	811.328
95.928	25.305	1006.539	809.495
96.943	24.900	1005.432	806.709
97.957	24.856	1004.108	805.377
98.972	24.679	1002.988	803.612
99.987	25.108	1002.742	805.271
101.001	25.148	1001.726	804.564
102.016	25.050	1001.243	803.663
103.030	25.106	999.902	802.768
104.045	24.902	999.128	801.162
105.060	24.811	998.141	799.893
106.074	25.034	997.302	800.146
107.089	25.289	996.904	800.896
108.103	25.185	995.648	799.348
109.118	24.915	994.580	797.222
110.133	25.011	993.458	796.676
111.147	24.880	991.895	794.772
112.162	24.662	990.878	792.922
113.176	24.850	990.826	793.641
114.191	24.864	989.905	792.895
115.206	24.429	989.353	790.456
116.220	24.565	988.032	789.934
117.235	24.623	987.413	789.625
118.249	24.680	986.310	788.924
119.264	24.601	985.901	788.181
120.279	24.644	985.098	787.659
121.293	24.655	984.490	787.148
122.308	24.707	983.286	786.347
123.322	24.679	982.536	785.554
124.337	24.516	980.897	783.459
125.352	23.928	979.587	779.765
126.366	23.849	978.515	778.495
127.381	24.686	978.580	782.145
128.395	25.067	978.346	783.555
129.410	25.115	977.611	783.105
130.424	25.167	976.496	782.370
131.439	25.237	975.175	781.548
132.454	25.071	974.606	780.299
133.468	25.113	973.581	779.593
134.483	25.099	973.231	779.183
135.497	25.371	972.890	780.023
136.512	25.281	971.712	778.617
137.527	25.413	970.999	778.549
138.541	25.332	970.351	777.610
139.556	25.389	969.192	776.860
140.570	25.604	967.864	776.657
141.585	25.439	967.511	775.591
142.600	25.427	966.608	774.745
143.614	25.580	965.783	774.675
144.629	25.743	964.817	774.534
145.643	25.601	963.921	773.135
146.658	25.348	962.516	770.855
147.673	25.368	960.887	769.566
148.687	25.220	960.132	768.260
149.702	25.189	959.324	767.415
150.716	25.140	958.320	766.336
151.731	25.295	958.138	766.781
152.746	25.542	957.608	767.345
153.760	25.612	956.523	766.707
154.775	25.707	956.068	766.677
155.789	25.522	955.426	765.308
156.804	25.470	954.809	764.524
157.819	25.726	954.021	764.915
158.833	25.646	953.065	763.740
159.848	25.748	952.057	763.299
160.862	25.538	950.558	761.140
161.877	25.654	949.786	760.945
162.892	25.550	948.797	759.646
163.906	25.517	947.922	758.737
164.921	25.560	947.265	758.326
165.935	25.665	946.136	757.798
166.950	25.584	944.991	756.473
167.964	25.529	944.565	755.834
168.979	25.287	943.480	753.881
169.994	25.352	942.762	753.514
171.008	25.651	942.200	754.253
172.023	25.711	941.062	753.526
173.037	25.247	940.092	750.744
174.052	25.112	939.168	749.375
175.067	25.171	938.799	749.258
176.081	25.457	938.222	749.927
177.096	25.335	937.309	748.621
178.110	25.055	936.420	746.680
179.125	24.855	935.373	744.946
180.140	24.970	935.051	745.103
181.154	25.157	934.949	745.732
182.169	25.517	934.652	746.925
183.183	25.681	933.963	746.988
184.198	25.408	933.373	745.319
185.213	25.504	932.925	745.292
186.227	25.581	932.212	744.977
187.242	25.578	931.579	744.391
188.256	25.599	931.053	743.993
189.271	25.746	929.746	743.489
190.286	25.238	929.330	740.996
191.300	24.741	927.114	737.114
192.315	23.891	925.944	732.616
193.329	23.922	925.794	732.561
194.344	24.735	926.391	736.320
195.359	25.255	926.315	738.332
196.373	25.350	925.920	738.344
197.388	25.329	925.213	737.630
198.402	25.285	924.573	736.870
199.417	25.430	923.448	736.504
200.432	25.098	922.992	734.716
201.446	25.054	922.007	733.687
202.461	24.887	921.736	732.721
203.475	24.198	919.799	728.302
204.490	23.440	918.633	724.220
205.504	24.413	919.058	728.466
206.519	25.011	918.742	730.590
207.534	25.052	918.186	730.250
208.548	25.516	917.979	731.909
209.563	25.214	917.059	729.884
210.577	25.269	916.268	729.412
211.592	25.617	916.159	730.676
212.607	25.560	915.174	729.593
213.621	25.679	914.571	729.530
214.636	25.612	914.027	728.763
215.650	25.589	913.102	727.866
216.665	25.747	912.600	728.042
217.680	25.564	911.852	726.641
218.694	25.217	910.861	724.386
219.709	25.012	910.375	723.109
220.723	25.389	909.776	724.087
221.738	25.459	909.408	724.013
222.753	25.512	908.378	723.340
223.767	25.546	908.277	723.335
224.782	25.803	907.984	724.069
225.796	25.809	907.096	723.322
226.811	25.101	905.681	719.290
227.826	24.431	904.651	715.721
228.840	24.622	904.358	716.193
229.855	24.672	903.428	715.595
230.869	24.407	902.405	713.661
231.884	24.781	902.297	715.008
232.899	25.394	902.533	717.581
233.913	25.456	901.576	717.004
234.928	25.417	901.043	716.359
235.942	25.335	900.464	715.510
236.957	24.936	899.982	713.473
237.972	25.006	899.116	713.001
238.986	25.213	898.815	713.523
240.001	25.112	897.987	712.405
241.015	25.186	897.627	712.349
242.030	25.360	897.077	712.538
243.045	25.504	896.639	712.699
244.059	25.613	895.942	712.513
245.074	25.391	895.366	711.115
246.088	25.045	894.311	708.844
247.103	25.342	894.159	709.837
248.117	25.905	894.406	712.194
249.132	26.171	893.890	712.772
250.147	26.196	893.264	712.309
251.161	26.304	892.708	712.224
252.176	26.289	892.100	711.619
253.190	26.345	891.591	711.369
254.205	26.461	891.476	711.671
255.220	26.424	890.764	710.897
256.234	26.253	889.831	709.417
257.249	26.378	888.528	708.806
258.263	26.145	888.703	707.970
259.278	26.342	887.878	708.019
260.293	26.487	887.076	707.884
261.307	26.322	886.406	706.644
262.322	26.084	885.660	705.055
263.336	25.560	883.680	701.373
264.351	24.439	881.633	695.323
265.366	24.447	882.139	695.690
266.380	25.541	882.628	700.280
267.395	26.033	881.924	701.571
268.409	25.819	881.425	700.282
269.424	26.115	880.764	700.845
270.439	26.101	880.160	700.246
271.453	26.193	879.819	700.272
272.468	26.338	879.293	700.354
273.482	26.441	878.822	700.314
274.497	26.127	877.454	697.949
275.512	25.617	876.750	695.357
276.526	26.117	876.836	697.293
277.541	26.204	876.280	697.127
278.555	25.968	875.510	695.540
279.570	25.802	874.745	694.234
280.585	26.157	874.283	695.171
281.599	25.928	873.561	693.656
282.614	25.330	871.944	690.011
283.628	25.364	871.783	689.956
284.643	25.926	871.264	691.639
285.657	25.399	870.497	688.948
286.672	25.070	869.575	686.897
287.687	25.757	869.233	689.199
288.701	25.747	869.008	688.919
289.716	25.462	868.221	687.143
290.730	25.429	867.198	686.147
291.745	25.090	866.431	684.188
292.760	25.387	866.567	685.367
293.774	26.417	866.470	689.159
294.789	26.869	866.440	690.794
295.803	26.825	865.620	689.911
296.818	26.617	865.543	688.999
297.833	26.335	863.889	686.549
298.847	26.166	863.381	685.445
299.862	26.652	863.164	687.055
300.876	26.721	863.293	687.360
301.891	26.614	862.182	686.009
302.906	26.262	861.132	683.782
303.920	26.371	861.105	684.109
304.935	26.730	860.599	685.007
305.949	26.521	860.168	683.810
306.964	26.356	859.392	682.513
307.979	26.325	859.227	682.204
308.993	26.903	858.768	683.959
310.008	26.765	858.421	683.102
311.022	26.507	857.710	681.501
312.037	26.503	856.577	680.526
313.052	26.164	855.703	678.499
314.066	25.210	854.137	673.617
315.081	25.079	853.345	672.440
316.095	25.920	853.817	675.908
317.110	26.299	853.706	677.184
318.125	25.589	852.006	673.118
319.139	24.294	850.614	667.118
320.154	24.370	850.440	667.204
321.168	25.385	850.415	670.919
322.183	25.969	850.697	673.264
323.197	26.230	850.515	674.035
324.212	26.423	850.222	674.464
325.227	26.499	849.352	673.996
326.241	26.268	848.496	672.400
327.256	26.301	848.344	672.342
328.270	26.256	847.525	671.467
329.285	25.959	846.820	669.746
330.300	25.671	845.855	667.855
331.314	25.996	845.828	668.979
332.329	26.526	845.585	670.693
333.343	26.635	845.183	670.718
334.358	26.453	844.846	669.715
335.373	26.504	844.584	669.637
336.387	26.870	844.670	671.002
337.402	27.012	844.094	671.009
338.416	26.851	843.880	670.183
339.431	27.051	843.541	670.596
340.446	27.253	843.447	671.208
341.460	27.073	842.614	669.821
342.475	26.726	842.193	668.146
343.489	26.754	842.092	668.111
344.504	27.135	841.845	669.260
345.519	27.447	841.091	669.748
346.533	27.463	840.365	669.171
347.548	27.462	839.796	668.654
348.562	27.293	839.775	667.960
349.577	27.340	838.798	667.293
350.592	27.266	838.293	666.562
351.606	27.352	837.305	666.032
352.621	27.185	836.639	664.834
353.635	27.147	835.741	663.923
354.650	26.306	834.558	659.855
355.665	25.514	832.906	655.603
356.679	25.840	833.042	656.842
357.694	26.445	832.456	658.522
358.708	26.502	831.333	657.784
359.723	26.713	831.805	658.868
360.738	26.915	831.509	659.307
361.752	27.180	830.857	659.695
362.767	27.469	830.280	660.228
363.781	27.672	830.350	660.958
364.796	27.723	829.837	660.675
365.810	27.799	829.716	660.797
366.825	27.738	829.307	660.193
367.840	27.374	828.343	658.049
368.854	27.011	827.454	655.976
369.869	27.044	827.021	655.691
370.883	27.160	826.647	655.757
371.898	27.057	826.223	654.991
372.913	27.089	825.863	654.764
373.927	27.206	825.352	654.723
374.942	27.392	824.962	655.021
375.956	27.509	824.373	654.919
376.971	27.562	824.211	654.924
377.986	27.786	823.670	655.238
379.000	27.780	823.086	654.697
380.015	27.466	822.636	653.155
381.029	27.491	822.166	652.810
382.044	27.833	821.120	653.146
383.059	27.650	820.844	652.215
384.073	27.742	820.524	652.232
385.088	27.650	819.859	651.315
386.102	27.410	819.148	649.838
387.117	27.343	818.416	648.960
388.132	27.075	817.164	646.955
389.146	26.576	816.446	644.553
390.161	26.991	816.551	646.056
391.175	27.366	816.415	647.225
392.190	27.036	815.336	645.143
393.205	25.772	813.002	638.758
394.219	24.311	811.549	632.384
395.234	24.282	811.314	632.041
396.248	25.832	812.585	638.473
397.263	27.207	813.754	644.213
398.278	27.235	812.842	643.530
399.292	26.823	812.564	641.795
400.307	26.872	812.199	641.625
401.321	27.041	811.346	641.491
402.336	27.445	811.496	642.980
403.350	27.702	811.926	644.170
404.365	28.099	811.506	645.181
405.380	28.657	810.687	646.438
406.394	28.464	810.232	645.339
407.409	28.297	810.026	644.530
408.423	28.289	809.289	643.858
409.438	28.469	809.060	644.252
410.453	28.590	808.643	644.289
411.467	28.426	808.246	643.341
412.482	28.359	807.830	642.718
413.496	28.381	807.561	642.523
414.511	28.328	807.079	641.899
415.526	28.377	806.435	641.498
416.540	28.281	805.502	640.365
417.555	28.118	804.931	639.286
418.569	28.214	804.704	639.385
419.584	28.091	804.161	638.466
420.599	27.840	803.494	637.005
421.613	111.144	1284.496	1455.658
422.628	96.000	1354.568	1455.737
