DTS Sentinel unit serial number:	SN413079Multiplexer serial number:	ORYXHardware model number:	OX4-SRSoftware version number:	ORYX F/W v4.00 Oryx Data Collector v3.7.2.0data status	okinstallation	princeton_trtdifferential loss correction	single-endedforward channel	channel 1reverse channel	N/Adate	2019/09/19time	01:06:35forward acquisition time	60.00reverse acquisition time	0.00gamma	496.2192k internal	0.2344k external	0.2344temperature offset calibration	1.0017default loss term (dB/km)	0.3790temperature slope calibration	1.0000multiplexer offset coefficient	1.0000multiplexer slope coefficient	1.0000fibre end	0.00T internal ref (°C)	21.87T ext. ref 1 (°C)	0.70T ext. ref 2 (°C)	15.20length (m)	temperature (°C)	Stokes	anti-Stokes-747.200	-200.000	0.023	0.187
-746.185	-64.971	-0.419	0.169
-745.171	137.429	0.140	0.184
-744.156	133.736	0.074	0.096
-743.142	-49.390	-0.085	0.041
-742.127	800.000	-0.070	0.269
-741.112	114.330	-0.078	0.095
-740.098	107.594	-0.238	0.283
-739.083	77.085	-0.107	-0.114
-738.069	-57.317	-0.278	0.122
-737.054	-200.000	-0.006	0.084
-736.039	800.000	-0.065	-0.184
-735.025	-79.073	0.391	-0.133
-734.010	-169.442	-0.259	-0.009
-732.996	469.484	-0.111	0.250
-731.981	-12.377	0.197	-0.128
-730.966	99.666	-0.178	-0.206
-729.952	800.000	0.074	-0.278
-728.937	65.552	-0.185	0.187
-727.923	-137.372	0.209	0.024
-726.908	-12.164	-0.123	-0.080
-725.894	-200.000	0.017	-0.169
-724.879	-68.599	-0.406	-0.157
-723.864	-200.000	0.012	-0.095
-722.850	26.766	-0.102	-0.085
-721.835	25.692	0.053	0.044
-720.821	133.181	0.121	0.156
-719.806	700.508	-0.010	-0.027
-718.791	-200.000	0.020	-0.162
-717.777	-100.431	0.203	-0.050
-716.762	9.358	-0.075	-0.057
-715.748	800.000	-0.042	-0.168
-714.733	180.210	-0.081	-0.118
-713.718	23.846	0.172	0.142
-712.704	-62.575	0.173	0.072
-711.689	27.035	0.093	-0.078
-710.675	-32.681	-0.090	-0.050
-709.660	-36.856	-0.342	-0.183
-708.645	800.000	0.048	0.186
-707.631	-200.000	0.014	-0.215
-706.616	800.000	0.062	-0.236
-705.602	-200.000	-0.051	-0.261
-704.587	103.890	0.195	0.229
-703.572	800.000	-0.041	-0.150
-702.558	800.000	0.043	0.179
-701.543	-140.458	0.173	0.018
-700.529	-59.652	0.279	-0.120
-699.514	342.539	0.183	0.359
-698.499	307.989	-0.139	-0.259
-697.485	-51.024	0.266	-0.125
-696.470	250.530	0.103	-0.174
-695.456	-28.790	-0.401	-0.230
-694.441	108.833	0.069	-0.082
-693.426	40.022	-0.199	0.179
-692.412	738.120	-0.050	0.134
-691.397	-169.219	0.193	-0.007
-690.383	59.027	-0.222	0.218
-689.368	-200.000	-0.021	-0.157
-688.354	-164.067	-0.071	0.003
-687.339	-105.134	-0.181	0.041
-686.324	-118.276	-0.362	-0.064
-685.310	26.899	0.194	-0.162
-684.295	67.362	-0.196	0.199
-683.281	-178.693	0.065	0.001
-682.266	76.369	0.203	-0.214
-681.251	-33.919	-0.309	-0.170
-680.237	585.377	0.024	-0.058
-679.222	-93.397	0.209	-0.058
-678.208	-83.857	0.379	0.121
-677.193	-200.000	-0.044	0.239
-676.178	190.850	-0.108	0.162
-675.164	153.420	-0.220	0.300
-674.149	125.582	0.097	0.122
-673.135	-170.042	-0.121	0.004
-672.120	-183.301	-0.135	-0.002
-671.105	-9.953	-0.208	-0.138
-670.091	-109.966	0.128	0.027
-669.076	5.088	-0.151	0.111
-668.062	28.922	0.133	0.112
-667.047	75.012	-0.088	0.093
-666.032	115.117	-0.068	-0.083
-665.018	-200.000	0.041	0.308
-664.003	800.000	-0.054	-0.223
-662.989	409.913	-0.112	-0.236
-661.974	629.542	-0.060	0.150
-660.959	-13.300	0.109	-0.071
-659.945	-29.564	0.203	-0.116
-658.930	204.732	-0.084	0.129
-657.916	-114.893	-0.202	-0.038
-656.901	-44.413	0.278	0.139
-655.886	-32.571	0.269	0.149
-654.872	246.517	-0.076	0.128
-653.857	800.000	-0.037	-0.146
-652.843	-200.000	0.006	-0.194
-651.828	800.000	0.113	-0.437
-650.814	49.988	0.137	0.129
-649.799	800.000	0.041	0.132
-648.784	549.472	-0.081	-0.193
-647.770	74.140	0.168	-0.176
-646.755	-174.140	-0.061	-0.002
-645.741	-84.483	0.301	0.095
-644.726	63.128	0.073	-0.073
-643.711	140.304	0.128	0.168
-642.697	251.758	-0.046	-0.077
-641.682	73.301	0.173	-0.180
-640.668	77.988	-0.185	0.196
-639.653	-200.000	0.043	0.196
-638.638	70.027	0.297	-0.305
-637.624	-200.000	0.035	0.278
-636.609	-104.037	-0.088	0.020
-635.595	-200.000	0.002	0.146
-634.580	510.086	-0.024	-0.056
-633.565	72.927	0.268	-0.279
-632.551	800.000	-0.067	-0.216
-631.536	446.834	-0.064	-0.140
-630.522	-74.784	-0.165	0.059
-629.507	-109.254	0.313	0.066
-628.492	147.748	0.168	-0.226
-627.478	-200.000	-0.031	0.272
-626.463	-121.138	-0.349	0.058
-625.449	46.154	-0.160	-0.148
-624.434	-41.583	-0.236	0.121
-623.419	-123.335	0.223	-0.035
-622.405	-200.000	0.017	-0.119
-621.390	-79.256	0.131	0.044
-620.376	-157.152	0.235	-0.014
-619.361	-200.000	0.003	-0.288
-618.346	177.102	0.006	0.009
-617.332	-38.510	-0.316	0.166
-616.317	-200.000	0.000	0.037
-615.303	41.518	0.124	-0.111
-614.288	611.106	0.183	-0.456
-613.273	-200.000	-0.003	-0.400
-612.259	591.829	0.004	0.010
-611.244	124.771	0.072	0.090
-610.230	-200.000	-0.017	-0.305
-609.215	-12.279	0.207	-0.135
-608.201	-200.000	-0.010	0.190
-607.186	-8.221	-0.069	0.046
-606.171	233.506	-0.039	-0.065
-605.157	-110.998	0.413	-0.085
-604.142	-47.690	0.254	-0.123
-603.128	-190.308	0.338	-0.004
-602.113	-28.459	0.094	0.054
-601.098	-200.000	-0.054	0.485
-600.084	107.325	-0.091	-0.108
-599.069	250.997	0.051	0.086
-598.055	-200.000	0.020	0.197
-597.040	800.000	0.085	-0.336
-596.025	-126.861	0.310	-0.046
-595.011	-200.000	-0.042	0.207
-593.996	637.136	-0.113	-0.285
-592.982	185.022	-0.141	0.207
-591.967	-200.000	0.021	0.266
-590.952	-200.000	-0.040	-0.194
-589.938	-200.000	-0.034	-0.348
-588.923	465.968	-0.096	-0.214
-587.909	47.399	0.133	-0.124
-586.894	-97.381	-0.162	0.042
-585.879	-187.457	-0.190	0.003
-584.865	443.534	0.107	0.233
-583.850	-183.027	-0.093	0.002
-582.836	14.182	-0.226	-0.175
-581.821	-110.134	-0.347	-0.072
-580.806	-119.377	-0.341	-0.059
-579.792	-200.000	-0.058	-0.318
-578.777	49.433	-0.079	-0.074
-577.763	174.294	0.082	0.118
-576.748	800.000	-0.001	0.004
-575.733	-200.000	0.029	0.311
-574.719	-116.924	-0.053	0.010
-573.704	95.557	-0.162	0.184
-572.690	23.650	-0.188	-0.154
-571.675	-88.720	-0.107	-0.032
-570.661	42.969	0.047	0.043
-569.646	-200.000	-0.015	-0.099
-568.631	-200.000	0.012	0.257
-567.617	-83.216	-0.240	0.077
-566.602	-130.185	-0.256	-0.035
-565.588	482.307	-0.147	-0.331
-564.573	800.000	-0.130	-0.378
-563.558	-200.000	0.010	0.120
-562.544	-200.000	0.082	0.635
-561.529	-4.224	0.299	0.206
-560.515	307.504	-0.066	-0.122
-559.500	8.591	0.046	0.035
-558.485	-167.474	-0.197	-0.008
-557.471	-48.581	-0.122	-0.058
-556.456	-200.000	-0.096	-0.473
-555.442	-112.415	-0.159	0.032
-554.427	-35.840	-0.300	0.161
-553.412	-200.000	0.004	-0.336
-552.398	-200.000	0.011	-0.266
-551.383	800.000	-0.020	-0.059
-550.369	473.516	0.112	0.252
-549.354	-7.700	-0.396	-0.266
-548.339	-200.000	-0.019	-0.133
-547.325	-180.866	0.273	0.005
-546.310	41.798	-0.157	-0.141
-545.296	-57.735	0.100	-0.043
-544.281	-67.293	0.152	0.060
-543.266	17.605	-0.245	-0.194
-542.252	401.441	0.093	0.194
-541.237	74.850	-0.139	0.145
-540.223	358.853	-0.061	-0.121
-539.208	-97.756	0.060	-0.015
-538.193	-30.142	-0.104	-0.059
-537.179	-200.000	-0.024	0.153
-536.164	-136.546	-0.176	0.020
-535.150	173.158	-0.117	0.167
-534.135	800.000	-0.035	0.113
-533.121	8.257	0.078	-0.058
-532.106	800.000	0.111	-0.313
-531.091	-200.000	0.009	-0.062
-530.077	-200.000	0.012	0.071
-529.062	126.005	-0.124	-0.155
-528.048	800.000	0.029	0.112
-527.033	53.556	0.197	0.188
-526.018	103.923	-0.099	0.115
-525.004	393.043	-0.041	-0.085
-523.989	99.590	0.146	0.168
-522.975	-200.000	0.017	0.106
-521.960	121.904	-0.270	0.334
-520.945	113.393	0.071	0.085
-519.931	79.006	0.098	0.104
-518.916	-71.792	-0.264	0.098
-517.902	243.910	-0.216	-0.359
-516.887	-46.307	-0.208	0.101
-515.872	2.087	0.320	-0.229
-514.858	86.475	-0.083	-0.091
-513.843	-142.759	-0.407	0.039
-512.829	114.043	0.179	0.215
-511.814	-61.786	-0.075	-0.031
-510.799	-39.544	0.264	-0.137
-509.785	-66.166	-0.119	-0.047
-508.770	800.000	-0.124	-0.385
-507.756	-200.000	-0.009	0.288
-506.741	-106.002	0.309	0.069
-505.726	-200.000	0.022	-0.106
-504.712	272.567	-0.147	0.257
-503.697	24.404	-0.125	-0.103
-502.683	-200.000	0.014	-0.080
-501.668	-40.419	-0.206	0.106
-500.653	-120.653	-0.315	-0.053
-499.639	-120.460	-0.317	-0.053
-498.624	52.650	0.209	-0.198
-497.610	175.188	0.162	0.232
-496.595	-200.000	-0.056	0.282
-495.581	800.000	0.060	-0.170
-494.566	-90.969	-0.447	-0.127
-493.551	800.000	0.071	0.273
-492.537	-51.178	0.195	-0.091
-491.522	800.000	-0.084	0.251
-490.508	144.370	-0.115	0.152
-489.493	556.117	0.116	-0.277
-488.478	369.283	0.156	-0.313
-487.464	57.858	-0.378	-0.367
-486.449	182.831	0.101	0.148
-485.435	-200.000	0.018	0.092
-484.420	134.853	0.051	-0.066
-483.405	590.763	-0.083	0.204
-482.391	110.608	-0.013	0.015
-481.376	-200.000	-0.020	-0.137
-480.362	-154.101	-0.161	-0.011
-479.347	110.326	0.216	0.258
-478.332	522.168	-0.035	0.082
-477.318	-78.728	-0.168	0.057
-476.303	-72.279	0.247	-0.091
-475.289	7.294	-0.230	0.170
-474.274	123.040	-0.182	-0.226
-473.259	181.612	0.077	0.112
-472.245	-93.847	-0.205	0.056
-471.230	256.543	0.195	0.331
-470.216	-66.100	-0.163	0.065
-469.201	800.000	0.074	-0.207
-468.186	-143.478	-0.165	-0.016
-467.172	-200.000	-0.011	0.315
-466.157	-155.771	0.300	-0.019
-465.143	369.211	0.210	-0.422
-464.128	118.672	-0.256	0.313
-463.113	86.357	0.177	0.193
-462.099	-200.000	-0.036	0.394
-461.084	25.398	-0.320	-0.263
-460.070	-18.839	0.231	-0.142
-459.055	119.261	0.046	0.057
-458.040	-63.370	-0.141	-0.058
-457.026	356.474	-0.102	0.200
-456.011	391.281	0.094	-0.194
-454.997	-58.547	-0.341	0.146
-453.982	-43.592	-0.063	-0.031
-452.968	800.000	-0.009	-0.036
-451.953	-200.000	-0.006	0.032
-450.938	800.000	-0.111	-0.402
-449.924	-200.000	0.005	-0.211
-448.909	800.000	0.086	-0.268
-447.895	-200.000	-0.028	0.235
-446.880	-172.919	-0.135	-0.004
-445.865	-39.537	-0.043	0.022
-444.851	-67.778	0.497	0.192
-443.836	261.933	-0.202	0.347
-442.822	123.698	0.050	0.062
-441.807	705.690	-0.051	-0.132
-440.792	-200.000	0.011	0.132
-439.778	-64.435	-0.263	-0.106
-438.763	-56.632	0.211	-0.092
-437.749	-98.162	0.189	0.048
-436.734	800.000	-0.058	0.241
-435.719	-107.538	0.243	-0.053
-434.705	-200.000	0.005	-0.218
-433.690	-200.000	0.020	-0.238
-432.676	-59.885	0.309	-0.131
-431.661	-175.620	0.216	-0.006
-430.646	608.162	-0.102	-0.251
-429.632	-29.069	-0.373	-0.212
-428.617	301.931	-0.125	-0.229
-427.603	-200.000	0.038	-0.173
-426.588	-37.044	-0.202	-0.107
-425.573	-200.000	-0.026	0.198
-424.559	-41.712	0.442	-0.224
-423.544	800.000	-0.036	0.124
-422.530	-200.000	-0.046	-0.256
-421.515	-200.000	-0.002	0.062
-420.500	-95.640	0.170	-0.045
-419.486	-51.320	-0.297	-0.138
-418.471	-174.092	0.252	0.007
-417.457	-112.571	0.175	-0.035
-416.442	-200.000	0.039	0.365
-415.428	113.728	0.075	-0.090
-414.413	17.191	-0.225	0.176
-413.398	-120.672	0.217	-0.036
-412.384	800.000	0.071	0.207
-411.369	-88.715	-0.300	0.088
-410.355	-123.624	0.080	0.012
-409.340	-200.000	-0.066	-0.336
-408.325	-200.000	0.007	0.072
-407.311	123.014	-0.278	-0.343
-406.296	-127.918	0.309	-0.044
-405.282	146.185	0.062	0.082
-404.267	800.000	0.089	-0.296
-403.252	383.344	0.216	-0.438
-402.238	800.000	-0.023	0.066
-401.223	336.091	-0.110	0.211
-400.209	-154.212	0.193	-0.013
-399.194	-200.000	0.023	-0.293
-398.179	627.996	-0.092	0.230
-397.165	-17.940	-0.366	0.226
-396.150	-169.909	0.499	-0.018
-395.136	-145.046	-0.411	-0.037
-394.121	186.768	0.079	0.116
-393.106	113.100	0.158	-0.190
-392.092	88.562	0.042	0.046
-391.077	115.481	-0.304	-0.367
-390.063	50.463	0.160	0.149
-389.048	-200.000	0.005	-0.462
-388.033	-200.000	-0.006	-0.173
-387.019	106.127	0.174	0.204
-386.004	800.000	-0.148	-0.472
-384.990	65.185	0.092	0.092
-383.975	-55.601	-0.405	0.179
-382.960	-143.004	0.267	0.026
-381.946	-129.945	-0.161	0.022
-380.931	-100.721	-0.183	0.045
-379.917	160.312	-0.123	-0.170
-378.902	-189.328	-0.242	-0.003
-377.888	664.057	0.038	-0.096
-376.873	-48.368	0.186	-0.088
-375.858	178.450	0.081	-0.117
-374.844	-94.753	0.207	-0.055
-373.829	114.749	-0.164	-0.197
-372.815	-46.306	-0.328	0.159
-371.800	-11.448	0.188	0.122
-370.785	183.942	0.132	-0.192
-369.771	383.335	0.047	0.096
-368.756	-200.000	0.006	0.057
-367.742	98.080	-0.171	0.194
-366.727	-113.131	0.346	0.067
-365.712	-174.273	0.181	-0.005
-364.698	-113.701	-0.279	0.054
-363.683	-171.306	-0.449	0.015
-362.669	-3.201	-0.485	0.334
-361.654	80.901	-0.113	-0.120
-360.639	73.474	-0.287	-0.296
-359.625	405.961	0.150	0.312
-358.610	220.682	0.180	0.285
-357.596	400.923	0.114	-0.236
-356.581	284.390	0.075	-0.133
-355.566	100.641	-0.129	0.147
-354.552	299.803	-0.100	0.182
-353.537	50.756	0.123	-0.114
-352.523	-200.000	-0.002	0.034
-351.508	-27.463	0.084	0.048
-350.493	-95.873	0.270	0.071
-349.479	21.075	-0.191	-0.152
-348.464	-8.062	0.164	0.109
-347.450	-17.696	-0.315	-0.195
-346.435	626.810	-0.047	-0.116
-345.420	-200.000	0.014	-0.203
-344.406	-46.241	-0.042	-0.020
-343.391	353.370	-0.148	0.288
-342.377	38.980	-0.290	-0.256
-341.362	-110.739	-0.125	-0.025
-340.348	-47.908	0.230	-0.110
-339.333	188.139	0.078	0.115
-338.318	133.204	-0.088	0.112
-337.304	207.396	-0.063	-0.096
-336.289	-118.349	-0.190	0.033
-335.275	85.247	-0.065	-0.071
-334.260	-196.955	-0.302	0.002
-333.245	-155.769	0.436	-0.027
-332.231	-159.445	0.162	0.009
-331.216	-151.360	0.229	0.017
-330.202	-200.000	0.030	0.148
-329.187	65.751	0.215	-0.215
-328.172	-86.662	-0.133	0.040
-327.158	-88.297	0.207	0.061
-326.143	75.543	-0.137	0.142
-325.129	-200.000	0.021	-0.110
-324.114	-160.406	-0.250	0.013
-323.099	-109.707	0.156	0.032
-322.085	20.514	0.241	0.192
-321.070	-74.586	0.205	0.073
-320.056	21.560	0.073	0.058
-319.041	83.004	0.321	0.344
-318.026	-112.444	-0.097	-0.019
-317.012	-200.000	0.000	-0.109
-315.997	-46.550	0.179	-0.086
-314.983	800.000	-0.067	0.244
-313.968	-200.000	-0.037	0.260
-312.953	-200.000	0.003	-0.168
-311.939	-166.674	0.066	0.003
-310.924	-28.983	-0.284	0.161
-309.910	-86.823	0.336	-0.101
-308.895	-122.218	0.304	-0.049
-307.880	-18.559	-0.244	-0.150
-306.866	121.562	0.117	0.144
-305.851	10.589	-0.246	-0.185
-304.837	-149.969	-0.226	0.017
-303.822	-125.069	0.466	0.070
-302.807	-123.347	0.225	-0.035
-301.793	-200.000	0.039	0.254
-300.778	-21.379	-0.149	-0.090
-299.764	90.083	0.213	0.234
-298.749	-64.082	0.289	-0.116
-297.735	42.555	-0.429	0.384
-296.720	237.498	-0.164	0.267
-295.705	377.284	0.077	-0.154
-294.691	-200.000	-0.062	-0.303
-293.676	140.921	0.112	-0.145
-292.662	500.150	-0.114	-0.258
-291.647	40.513	0.138	0.122
-290.632	-153.954	-0.022	0.002
-289.618	-200.000	0.007	-0.070
-288.603	229.055	-0.115	0.185
-287.589	618.750	-0.072	0.179
-286.574	102.416	0.150	0.173
-285.559	800.000	-0.077	-0.308
-284.545	-200.000	0.016	0.244
-283.530	306.940	0.020	-0.037
-282.516	-200.000	0.001	-0.163
-281.501	-200.000	-0.033	0.235
-280.486	-67.735	0.028	-0.011
-279.472	-200.000	-0.021	0.275
-278.457	-98.908	-0.072	-0.018
-277.443	-6.475	0.110	0.074
-276.428	-79.146	0.122	-0.041
-275.413	-200.000	0.027	0.134
-274.399	-149.430	-0.137	-0.011
-273.384	57.405	0.391	0.375
-272.370	122.748	0.291	-0.358
-271.355	-200.000	-0.013	0.057
-270.340	-140.507	-0.113	-0.012
-269.326	800.000	-0.095	-0.362
-268.311	-200.000	-0.014	-0.143
-267.297	171.509	0.040	0.056
-266.282	-70.969	0.347	0.129
-265.267	-165.893	0.116	0.005
-264.253	594.840	0.052	0.126
-263.238	-200.000	0.067	0.453
-262.224	9.152	-0.165	0.122
-261.209	780.928	0.050	0.133
-260.195	-200.000	0.053	-0.271
-259.180	-200.000	0.000	0.304
-258.165	-200.000	-0.079	0.000
-257.151	-21.016	0.233	0.140
-256.136	-200.000	-0.032	-0.371
-255.122	-168.354	0.228	-0.009
-254.107	-200.000	0.092	0.436
-253.092	115.026	0.227	0.272
-252.078	21.966	-0.255	-0.204
-251.063	278.475	0.168	-0.294
-250.049	-124.034	0.085	-0.013
-249.034	704.063	-0.067	0.174
-248.019	173.149	-0.141	-0.200
-247.005	36.950	0.220	0.191
-245.990	3.321	-0.128	-0.092
-244.976	109.090	-0.220	0.258
-243.961	-125.172	0.206	-0.031
-242.946	-31.647	-0.026	0.014
-241.932	467.466	0.073	0.160
-240.917	-80.920	0.123	-0.040
-239.903	388.589	-0.007	-0.015
-238.888	-94.304	0.643	0.172
-237.873	-22.616	-0.278	0.165
-236.859	800.000	-0.041	0.172
-235.844	-10.882	-0.053	-0.034
-234.830	-49.136	0.134	-0.063
-233.815	-166.379	0.244	-0.010
-232.800	123.885	0.089	0.109
-231.786	78.864	-0.062	-0.065
-230.771	419.207	-0.139	0.292
-229.757	58.254	0.178	-0.171
-228.742	-176.875	-0.310	-0.008
-227.727	312.523	0.003	-0.005
-226.713	582.274	-0.137	-0.330
-225.698	-191.515	0.288	0.003
-224.684	-64.228	0.213	-0.085
-223.669	-141.473	-0.161	-0.016
-222.655	64.081	0.204	0.202
-221.640	-29.665	-0.386	-0.216
-220.625	144.709	0.078	-0.102
-219.611	292.076	0.088	0.158
-218.596	12.639	-0.044	-0.034
-217.582	-200.000	0.010	0.268
-216.567	407.173	-0.008	0.017
-215.552	162.406	0.129	-0.177
-214.538	-161.320	-0.444	0.023
-213.523	-200.000	-0.022	0.281
-212.509	-130.977	0.214	-0.028
-211.494	-39.251	-0.208	-0.107
-210.479	-200.000	-0.012	0.295
-209.465	210.136	0.007	0.011
-208.450	800.000	-0.119	-0.411
-207.436	364.950	-0.158	-0.312
-206.421	83.365	0.032	-0.034
-205.406	524.525	0.062	-0.144
-204.392	-99.889	0.207	0.051
-203.377	-200.000	0.020	0.094
-202.363	95.384	0.112	-0.125
-201.348	-94.306	-0.253	0.068
-200.333	-26.676	0.058	0.033
-199.319	-200.000	-0.002	0.053
-198.304	-21.912	-0.097	0.058
-197.290	-200.000	-0.004	-0.116
-196.275	198.948	-0.048	-0.073
-195.260	-72.968	-0.296	0.107
-194.246	164.250	0.068	0.095
-193.231	341.421	-0.029	-0.055
-192.217	426.707	-0.144	0.304
-191.202	-25.018	-0.357	0.207
-190.187	559.844	0.084	0.199
-189.173	800.000	0.068	0.189
-188.158	385.123	-0.130	0.263
-187.144	-200.000	-0.004	-0.099
-186.129	-138.884	0.281	-0.030
-185.114	-155.751	-0.256	0.016
-184.100	800.000	-0.065	0.201
-183.085	-99.342	-0.129	0.032
-182.071	169.962	0.084	-0.117
-181.056	-200.000	-0.026	0.128
-180.042	-44.318	0.422	-0.207
-179.027	-17.668	0.161	-0.099
-178.012	309.245	0.096	-0.176
-176.998	-146.278	-0.149	0.013
-175.983	-39.092	0.133	0.069
-174.969	-200.000	-0.006	-0.300
-173.954	-162.814	0.335	-0.016
-172.939	-200.000	-0.018	0.284
-171.925	800.000	0.049	-0.143
-170.910	10.120	0.104	-0.078
-169.896	-82.189	0.323	-0.103
-168.881	-200.000	-0.003	0.489
-167.866	29.969	0.184	0.153
-166.852	-200.000	0.014	0.208
-165.837	-200.000	0.012	-0.105
-164.823	-200.000	0.039	0.178
-163.808	66.703	0.052	-0.052
-162.793	-1.843	0.098	-0.067
-161.779	-34.415	0.026	0.014
-160.764	61.744	0.056	0.054
-159.750	80.900	-0.114	0.120
-158.735	-14.680	0.099	0.062
-157.720	-0.400	0.224	0.156
-156.706	800.000	0.108	-0.319
-155.691	-65.440	-0.245	0.096
-154.677	535.191	0.089	0.206
-153.662	12.700	-0.044	-0.033
-152.647	-64.817	-0.351	0.139
-151.633	-200.000	-0.030	-0.249
-150.618	35.341	0.125	0.107
-149.604	-200.000	0.026	0.284
-148.589	-200.000	-0.056	-0.276
-147.574	-200.000	-0.020	0.232
-146.560	-32.146	0.096	0.053
-145.545	100.372	-0.091	-0.103
-144.531	-35.276	-0.398	-0.212
-143.516	-20.469	0.257	0.155
-142.502	-153.563	-0.240	0.016
-141.487	-77.633	0.121	0.041
-140.472	-103.346	0.236	0.054
-139.458	236.009	-0.009	-0.014
-138.443	9.911	0.233	-0.173
-137.429	-200.000	0.019	0.177
-136.414	-54.588	-0.126	0.056
-135.399	-200.000	-0.021	-0.127
-134.385	-37.829	0.121	0.063
-133.370	800.000	-0.080	0.304
-132.356	-66.673	0.197	0.076
-131.341	-179.325	0.179	0.004
-130.326	-200.000	0.007	-0.184
-129.312	-166.610	0.255	-0.010
-128.297	-68.831	-0.111	0.042
-127.283	151.658	0.116	0.154
-126.268	-62.378	0.418	0.170
-125.253	-53.719	0.255	0.114
-124.239	66.407	-0.355	-0.353
-123.224	59.346	0.014	-0.013
-122.210	-200.000	-0.035	-0.391
-121.195	18.729	0.186	0.145
-120.180	-109.060	-0.319	-0.066
-119.166	353.799	-0.066	-0.129
-118.151	-200.000	-0.014	0.113
-117.137	591.155	0.042	0.100
-116.122	800.000	0.008	-0.024
-115.107	-164.159	0.412	0.019
-114.093	-19.369	-0.116	-0.070
-113.078	-109.842	-0.368	0.076
-112.064	-200.000	0.026	0.169
-111.049	-145.662	0.338	-0.030
-110.034	-9.802	-0.407	0.265
-109.020	-200.000	0.039	0.308
-108.005	800.000	-0.017	-0.051
-106.991	-186.968	0.143	0.002
-105.976	122.480	-0.183	0.223
-104.962	-200.000	-0.014	-0.127
-103.947	-71.005	0.280	0.103
-102.932	496.715	-0.153	0.343
-101.918	315.103	0.053	-0.097
-100.903	-48.801	0.088	-0.041
-99.889	152.474	-0.122	0.162
-98.874	-200.000	-0.015	-0.066
-97.859	-42.511	-0.166	0.083
-96.845	800.000	-0.052	0.189
-95.830	-77.793	-0.143	0.048
-94.816	-16.265	0.229	-0.142
-93.801	-200.000	0.007	0.085
-92.786	-200.000	-0.028	0.205
-91.772	-122.991	0.158	0.025
-90.757	-200.000	0.001	0.077
-89.743	171.718	0.068	0.095
-88.728	-63.850	-0.174	-0.070
-87.713	233.908	-0.041	-0.066
-86.699	218.946	-0.141	0.219
-85.684	-70.410	0.016	0.006
-84.670	-121.935	0.385	-0.062
-83.655	-200.000	-0.012	-0.080
-82.640	-84.051	0.117	-0.036
-81.626	104.138	0.097	-0.111
-80.611	-96.392	-0.264	0.068
-79.597	72.016	0.040	-0.041
-78.582	9.810	0.212	0.157
-77.567	357.077	-0.087	-0.168
-76.553	32.013	-0.147	-0.123
-75.538	5.276	-0.171	-0.123
-74.524	-200.000	0.007	0.135
-73.509	-200.000	-0.016	-0.127
-72.494	800.000	-0.154	-0.432
-71.480	-46.566	0.320	0.153
-70.465	-200.000	0.029	0.131
-69.451	191.328	0.036	-0.053
-68.436	-200.000	0.017	-0.137
-67.422	800.000	-0.053	-0.182
-66.407	800.000	-0.048	-0.189
-65.392	261.582	0.050	0.085
-64.378	107.394	0.140	-0.162
-63.363	289.697	-0.051	-0.090
-62.349	66.009	-0.230	-0.227
-61.334	93.601	-1.037	-1.145
-60.319	155.804	0.629	0.844
-59.305	523.332	-0.552	-1.265
-58.290	244.834	0.980	1.605
-57.276	800.000	0.484	1.717
-56.261	-200.000	135.610	689.590
-55.246	352.329	1668.417	3221.841
-54.232	134.175	2801.946	3537.624
-53.217	90.683	2166.990	2365.092
-52.203	33.063	1595.817	1347.408
-51.188	25.169	1342.630	1086.004
-50.173	22.834	1305.783	1042.394
-49.159	50.819	1379.986	1273.245
-48.144	47.212	1388.875	1259.487
-47.130	25.245	1335.758	1080.736
-46.115	22.138	1316.254	1046.438
-45.100	21.819	1311.426	1040.665
-44.086	21.715	1308.522	1037.708
-43.071	21.702	1306.663	1036.112
-42.057	21.596	1305.034	1034.158
-41.042	21.684	1303.116	1033.112
-40.027	21.736	1301.024	1031.717
-39.013	21.643	1300.047	1030.354
-37.998	21.793	1297.815	1029.429
-36.984	21.832	1296.147	1028.292
-35.969	21.935	1294.063	1027.202
-34.954	21.920	1292.419	1025.770
-33.940	22.030	1291.237	1025.434
-32.925	21.891	1290.659	1024.123
-31.911	21.935	1288.616	1022.716
-30.896	22.002	1287.140	1021.896
-29.881	22.003	1285.998	1020.954
-28.867	21.904	1284.839	1019.415
-27.852	21.990	1283.075	1018.476
-26.838	21.933	1282.096	1017.330
-25.823	22.034	1280.522	1016.624
-24.809	21.967	1279.595	1015.458
-23.794	21.928	1278.564	1014.375
-22.779	22.022	1276.664	1013.368
-21.765	21.998	1275.542	1012.301
-20.750	22.008	1273.940	1011.047
-19.736	21.933	1272.918	1009.765
-18.721	21.763	1272.441	1008.365
-17.706	21.761	1270.993	1007.169
-16.692	21.873	1269.262	1006.398
-15.677	21.758	1269.135	1005.597
-14.663	21.810	1267.346	1004.439
-13.648	21.790	1266.586	1003.681
-12.633	21.854	1265.461	1003.116
-11.619	21.855	1264.725	1002.503
-10.604	21.848	1263.864	1001.737
-9.590	21.820	1263.301	1001.091
-8.575	21.719	1262.251	999.645
-7.560	21.741	1261.420	999.075
-6.546	21.878	1259.965	998.658
-5.531	21.803	1259.672	997.964
-4.517	21.827	1258.564	997.179
-3.502	21.832	1257.913	996.652
-2.487	21.827	1256.929	995.805
-1.473	21.768	1252.629	992.028
-0.458	20.034	1237.398	970.221
0.556	15.418	1222.104	932.491
1.571	11.952	1229.916	918.955
2.586	11.226	1245.852	926.653
3.600	11.133	1233.411	916.797
4.615	8.419	1162.216	849.388
5.629	3.244	1093.097	772.875
6.644	0.838	1076.953	749.484
7.659	0.572	1075.270	746.932
8.673	0.743	1074.019	746.838
9.688	0.667	1072.668	745.458
10.702	0.733	1070.139	743.961
11.717	3.951	1073.744	762.273
12.731	10.398	1082.444	800.309
13.746	15.616	1089.403	831.261
14.761	17.169	1090.935	840.040
15.775	16.466	1089.425	835.333
16.790	15.524	1087.164	828.879
17.804	14.731	1085.809	823.860
18.819	14.507	1084.385	821.606
19.834	14.299	1083.653	819.954
20.848	14.166	1082.670	818.483
21.863	13.935	1081.633	816.490
22.877	13.786	1080.568	814.884
23.892	13.722	1080.133	814.166
24.907	13.720	1079.436	813.560
25.921	13.657	1078.580	812.536
26.936	13.760	1077.774	812.360
27.950	13.766	1076.796	811.579
28.965	13.789	1075.374	810.550
29.980	13.950	1073.939	810.183
30.994	13.874	1073.324	809.273
32.009	13.865	1072.220	808.325
33.023	13.883	1071.526	807.822
34.038	13.922	1070.173	806.916
35.053	13.747	1069.985	805.854
36.067	13.803	1068.746	805.124
37.082	13.884	1067.597	804.579
38.096	13.865	1067.524	804.358
39.111	13.791	1066.219	802.949
40.126	13.637	1065.521	801.605
41.140	13.620	1064.021	800.325
42.155	13.678	1062.467	799.364
43.169	13.612	1061.875	798.531
44.184	13.674	1060.675	797.855
45.199	13.773	1059.328	797.249
46.213	13.645	1058.419	795.877
47.228	13.653	1057.825	795.398
48.242	13.803	1056.091	794.746
49.257	13.735	1055.334	793.776
50.271	13.807	1054.517	793.439
51.286	13.727	1053.985	792.586
52.301	13.761	1052.572	791.616
53.315	13.821	1051.696	791.174
54.330	13.666	1050.997	789.837
55.344	13.740	1050.157	789.488
56.359	13.714	1048.782	788.263
57.374	13.728	1048.229	787.843
58.388	13.513	1047.757	786.399
59.403	13.687	1046.573	786.266
60.417	13.624	1046.014	785.478
61.432	13.729	1045.036	785.170
62.447	13.603	1043.971	783.703
63.461	13.558	1043.263	782.891
64.476	13.565	1042.153	782.020
65.490	13.599	1041.452	781.587
66.505	13.594	1040.792	780.999
67.520	13.655	1040.172	780.754
68.534	13.544	1039.400	779.580
69.549	13.661	1038.528	779.407
70.563	13.573	1037.751	778.340
71.578	13.489	1037.331	777.566
72.593	13.525	1036.449	777.004
73.607	13.594	1035.420	776.486
74.622	13.571	1035.013	776.003
75.636	13.579	1034.245	775.400
76.651	13.457	1033.780	774.410
77.666	13.576	1032.665	774.063
78.680	13.664	1032.093	773.973
79.695	13.555	1031.785	773.169
80.709	13.541	1031.171	772.574
81.724	13.605	1030.328	772.173
82.739	13.692	1029.185	771.650
83.753	13.779	1028.662	771.598
84.768	13.770	1027.793	770.833
85.782	13.766	1026.568	769.828
86.797	13.805	1025.981	769.503
87.812	13.743	1025.259	768.603
88.826	13.695	1023.962	767.343
89.841	13.791	1022.891	766.915
90.855	13.879	1021.876	766.492
91.870	13.878	1021.332	766.010
92.884	13.873	1020.356	765.192
93.899	13.796	1019.819	764.362
94.914	13.838	1018.730	763.672
95.928	13.910	1018.262	763.584
96.943	13.888	1017.085	762.535
97.957	13.841	1016.537	761.842
98.972	13.876	1014.942	760.738
99.987	13.882	1014.541	760.398
101.001	13.814	1013.396	759.164
102.016	13.825	1012.425	758.416
103.030	13.842	1011.584	757.799
104.045	13.787	1010.759	756.862
105.060	13.756	1010.472	756.437
106.074	13.693	1009.370	755.261
107.089	13.685	1008.076	754.190
108.103	13.801	1007.112	753.928
109.118	13.849	1006.145	753.355
110.133	13.666	1005.478	751.957
111.147	13.693	1004.543	751.316
112.162	13.682	1003.967	750.767
113.176	13.762	1003.214	750.500
114.191	13.886	1002.453	750.426
115.206	13.728	1001.471	748.910
116.220	13.837	1000.625	748.702
117.235	13.817	999.739	747.882
118.249	13.743	999.089	746.997
119.264	13.822	998.287	746.690
120.279	13.930	997.120	746.235
121.293	13.758	996.671	745.062
122.308	13.847	995.325	744.385
123.322	13.745	994.500	743.246
124.337	13.801	993.743	742.865
125.352	13.744	992.628	741.712
126.366	13.740	991.368	740.687
127.381	13.782	990.324	740.031
128.395	13.704	989.332	738.876
129.410	13.846	988.560	738.864
130.424	13.771	987.762	737.869
131.439	13.712	986.921	736.915
132.454	13.831	986.262	736.887
133.468	13.708	985.491	735.699
134.483	13.783	984.247	735.035
135.497	13.805	983.076	734.193
136.512	13.756	982.434	733.435
137.527	13.871	981.963	733.526
138.541	13.807	981.123	732.552
139.556	13.800	980.197	731.762
140.570	13.932	979.487	731.748
141.585	13.910	978.912	731.159
142.600	14.012	977.715	730.648
143.614	14.120	976.664	730.275
144.629	13.881	976.577	729.095
145.643	14.093	975.444	729.113
146.658	13.947	973.864	727.228
147.673	13.872	973.258	726.385
148.687	13.924	972.383	725.894
149.702	13.946	971.286	725.104
150.716	13.890	970.550	724.250
151.731	13.990	969.845	724.095
152.746	14.028	969.241	723.747
153.760	13.893	968.792	722.755
154.775	13.955	967.992	722.368
155.789	14.044	967.559	722.368
156.804	14.124	966.710	722.016
157.819	14.208	966.372	722.063
158.833	14.152	966.043	721.512
159.848	14.258	964.879	721.036
160.862	14.240	963.669	719.991
161.877	14.148	962.826	718.900
162.892	14.166	961.638	718.027
163.906	14.070	961.183	717.212
164.921	14.053	960.406	716.493
165.935	14.232	959.102	716.227
166.950	13.989	958.826	714.914
167.964	14.149	957.629	714.646
168.979	14.165	956.778	714.015
169.994	14.159	955.691	713.116
171.008	14.123	955.000	712.380
172.023	14.201	954.485	712.267
173.037	14.226	953.793	711.795
174.052	14.213	953.111	711.167
175.067	14.223	952.265	710.518
176.081	14.189	951.920	710.051
177.096	14.153	951.533	709.545
178.110	14.194	951.005	709.266
179.125	14.233	950.128	708.716
180.140	14.194	949.608	708.097
181.154	14.340	949.162	708.324
182.169	14.330	948.528	707.744
183.183	14.384	947.941	707.473
184.198	14.359	946.809	706.461
185.213	14.382	946.136	705.992
186.227	14.346	945.328	705.174
187.242	14.428	944.924	705.160
188.256	14.393	944.574	704.685
189.271	14.410	943.231	703.697
190.286	14.310	942.941	702.994
191.300	14.264	941.998	702.033
192.315	14.324	941.452	701.817
193.329	14.254	941.510	701.505
194.344	14.397	940.136	701.020
195.359	14.437	939.365	700.552
196.373	14.497	938.494	700.092
197.388	14.475	938.213	699.730
198.402	14.481	937.824	699.401
199.417	14.558	937.163	699.168
200.432	14.689	936.320	699.027
201.446	14.635	936.068	698.552
202.461	14.653	936.097	698.585
203.475	14.637	935.246	697.824
204.490	14.660	934.123	697.018
205.504	14.624	933.292	696.188
206.519	14.630	932.616	695.646
207.534	14.713	931.883	695.383
208.548	14.739	931.426	695.087
209.563	14.685	930.609	694.194
210.577	14.767	929.850	693.908
211.592	14.793	929.005	693.321
212.607	14.808	928.380	692.855
213.621	14.856	927.734	692.511
214.636	14.883	926.738	691.820
215.650	14.817	926.463	691.279
216.665	14.724	926.167	690.611
217.680	14.783	925.177	690.059
218.694	14.896	924.115	689.669
219.709	14.802	923.801	688.988
220.723	14.904	922.835	688.626
221.738	14.880	922.420	688.157
222.753	15.028	921.618	688.104
223.767	14.953	921.008	687.280
224.782	14.995	920.569	687.064
225.796	15.059	919.488	686.460
226.811	14.984	919.111	685.812
227.826	14.984	918.493	685.290
228.840	14.974	918.058	684.862
229.855	14.888	917.038	683.691
230.869	14.930	916.211	683.183
231.884	14.827	915.821	682.412
232.899	15.042	914.741	682.423
233.913	14.915	914.227	681.462
234.928	14.841	913.376	680.468
235.942	14.958	912.930	680.551
236.957	15.084	912.425	680.625
237.972	15.047	911.716	679.887
238.986	14.992	910.853	678.961
240.001	15.058	910.255	678.721
241.015	15.123	909.620	678.453
242.030	15.051	909.263	677.832
243.045	15.217	908.242	677.684
244.059	15.205	908.087	677.461
245.074	15.276	907.381	677.159
246.088	15.142	906.571	675.954
247.103	15.187	906.087	675.714
248.117	15.272	905.362	675.459
249.132	15.339	904.607	675.103
250.147	15.322	903.861	674.420
251.161	15.474	903.370	674.602
252.176	15.323	902.940	673.618
253.190	15.374	902.054	673.099
254.205	15.287	901.704	672.432
255.220	15.474	900.798	672.447
256.234	15.423	900.243	671.767
257.249	15.755	899.150	672.220
258.263	15.376	899.512	670.915
259.278	15.376	898.124	669.822
260.293	15.729	897.271	670.535
261.307	15.603	896.747	669.581
262.322	15.594	896.476	669.282
263.336	15.555	895.647	668.448
264.351	15.692	894.854	668.342
265.366	15.649	894.358	667.743
266.380	15.625	894.023	667.336
267.395	15.687	893.005	666.765
268.409	15.782	892.070	666.383
269.424	15.742	891.207	665.523
270.439	15.645	890.597	664.623
271.453	15.587	889.897	663.814
272.468	15.694	889.483	663.867
273.482	15.893	888.577	663.917
274.497	15.738	888.128	662.915
275.512	15.604	888.199	662.379
276.526	15.799	887.247	662.378
277.541	15.772	887.012	662.038
278.555	15.825	885.915	661.369
279.570	15.884	885.265	661.057
280.585	15.999	884.422	660.822
281.599	15.939	884.206	660.364
282.614	15.853	883.371	659.346
283.628	15.844	883.148	659.088
284.643	15.786	882.512	658.326
285.657	15.883	881.565	657.942
286.672	15.964	880.637	657.506
287.687	15.928	880.053	656.870
288.701	15.904	879.759	656.502
289.716	16.152	879.000	656.842
290.730	16.013	878.535	655.895
291.745	15.960	878.311	655.463
292.760	16.013	877.133	654.733
293.774	16.067	876.612	654.494
294.789	16.241	875.915	654.594
295.803	16.167	874.943	653.521
296.818	16.010	874.504	652.529
297.833	15.911	874.141	651.817
298.847	16.168	873.360	652.169
299.862	16.107	872.958	651.578
300.876	16.194	872.404	651.441
301.891	16.317	871.531	651.204
302.906	16.198	871.252	650.482
303.920	16.367	870.477	650.493
304.935	16.246	870.057	649.660
305.949	16.408	869.025	649.451
306.964	16.283	868.799	648.746
307.979	16.433	867.887	648.585
308.993	16.382	867.420	647.980
310.008	16.356	866.848	647.398
311.022	16.351	866.341	646.940
312.037	16.440	865.874	646.875
313.052	16.450	865.107	646.287
314.066	16.277	864.806	645.340
315.081	16.327	864.459	645.217
316.095	16.331	863.527	644.479
317.110	16.367	863.033	644.191
318.125	16.421	862.533	643.964
319.139	16.513	861.768	643.689
320.154	16.394	861.334	642.853
321.168	16.332	861.054	642.351
322.183	16.480	860.404	642.373
323.197	16.479	860.062	642.056
324.212	16.414	859.294	641.182
325.227	16.470	858.449	640.707
326.241	16.508	857.719	640.246
327.256	16.561	857.230	640.026
328.270	16.546	856.659	639.486
329.285	16.469	855.882	638.558
330.300	16.587	855.357	638.558
331.314	16.608	855.316	638.549
332.329	16.622	854.591	638.005
333.343	16.706	853.845	637.706
334.358	16.697	853.653	637.474
335.373	16.623	853.629	637.121
336.387	16.672	853.253	636.969
337.402	16.514	853.275	636.333
338.416	16.744	852.809	636.795
339.431	16.930	851.881	636.743
340.446	16.849	851.545	636.132
341.460	16.869	850.976	635.726
342.475	16.851	850.663	635.368
343.489	16.920	849.972	635.054
344.504	16.874	849.737	634.651
345.519	16.915	849.421	634.511
346.533	16.688	849.028	633.311
347.548	16.987	848.306	633.836
348.562	16.880	847.836	633.029
349.577	16.956	847.327	632.877
350.592	16.826	846.586	631.780
351.606	16.977	845.614	631.563
352.621	16.920	845.080	630.897
353.635	16.758	844.874	630.084
354.650	17.042	843.531	630.081
355.665	16.901	843.256	629.297
356.679	17.064	842.699	629.429
357.694	17.041	842.101	628.844
358.708	16.936	841.809	628.180
359.723	16.968	841.286	627.851
360.738	17.127	840.007	627.429
361.752	17.076	839.949	627.144
362.767	17.083	838.879	626.316
363.781	17.263	838.634	626.741
364.796	17.240	838.278	626.334
365.810	17.163	838.120	625.876
366.825	17.233	837.419	625.555
367.840	17.238	836.935	625.157
368.854	17.327	836.371	625.007
369.869	17.269	836.100	624.537
370.883	17.342	835.393	624.222
371.898	17.305	835.367	624.009
372.913	17.208	835.009	623.331
373.927	17.376	834.199	623.286
374.942	17.511	833.757	623.395
375.956	17.458	833.698	623.104
376.971	17.587	832.742	622.804
377.986	17.538	832.615	622.475
379.000	17.644	831.996	622.344
380.015	17.563	831.610	621.707
381.029	17.700	830.753	621.509
382.044	17.657	830.559	621.154
383.059	17.497	829.541	619.754
384.073	17.555	829.207	619.661
385.088	17.620	828.570	619.366
386.102	17.593	827.857	618.679
387.117	17.489	827.708	618.136
388.132	17.552	826.957	617.750
389.146	17.622	826.360	617.503
390.161	17.699	825.795	617.304
391.175	17.716	825.243	616.900
392.190	17.630	824.951	616.314
393.205	17.742	824.459	616.297
394.219	17.606	824.234	615.583
395.234	17.523	823.875	614.963
396.248	17.584	823.510	614.856
397.263	17.607	822.724	614.296
398.278	17.752	822.381	614.508
399.292	17.625	822.044	613.744
400.307	17.606	821.488	613.206
401.321	17.684	821.209	613.226
402.336	17.675	820.798	612.832
403.350	17.722	820.189	612.492
404.365	17.880	819.706	612.643
405.380	17.752	819.050	611.640
406.394	17.813	818.393	611.315
407.409	17.870	817.997	611.170
408.423	17.942	817.748	611.185
409.438	17.962	817.619	611.107
410.453	18.105	816.936	611.054
411.467	17.872	816.817	610.077
412.482	18.096	816.059	610.256
413.496	18.083	815.684	609.874
414.511	18.116	815.287	609.642
415.526	18.069	814.840	609.087
416.540	18.087	814.689	608.985
417.555	18.047	813.929	608.219
418.569	18.083	813.787	608.187
419.584	18.030	813.686	607.870
420.599	18.176	812.897	607.746
421.613	115.862	1300.352	1490.966
422.628	100.341	1371.332	1491.042
