DTS Sentinel unit serial number:	SN413079Multiplexer serial number:	ORYXHardware model number:	OX4-SRSoftware version number:	ORYX F/W v4.00 Oryx Data Collector v3.7.2.0data status	okinstallation	princeton_trtdifferential loss correction	single-endedforward channel	channel 1reverse channel	N/Adate	2019/09/13time	21:30:35forward acquisition time	60.00reverse acquisition time	0.00gamma	496.2192k internal	0.2331k external	0.2331temperature offset calibration	1.0070default loss term (dB/km)	0.3790temperature slope calibration	1.0000multiplexer offset coefficient	1.0000multiplexer slope coefficient	1.0000fibre end	0.00T internal ref (°C)	28.25T ext. ref 1 (°C)	2.96T ext. ref 2 (°C)	22.91length (m)	temperature (°C)	Stokes	anti-Stokes-747.200	-200.000	0.010	-0.138
-746.185	800.000	0.076	0.305
-745.171	685.627	0.033	0.087
-744.156	-61.546	0.236	0.100
-743.142	-48.846	-0.417	0.201
-742.127	353.917	0.093	0.185
-741.112	-64.559	-0.257	0.105
-740.098	142.207	0.230	0.307
-739.083	766.303	-0.041	-0.111
-738.069	-58.289	0.247	0.108
-737.054	800.000	-0.028	0.114
-736.039	-147.121	-0.246	0.021
-735.025	-92.608	0.273	-0.077
-734.010	18.963	-0.161	-0.130
-732.996	30.008	-0.105	0.090
-731.981	-75.196	-0.426	0.153
-730.966	138.940	-0.219	-0.290
-729.952	118.158	0.115	0.143
-728.937	321.267	0.174	0.332
-727.923	-87.070	0.027	-0.008
-726.908	435.604	-0.105	-0.229
-725.894	800.000	0.018	0.072
-724.879	800.000	-0.007	0.020
-723.864	-45.452	-0.351	-0.175
-722.850	-17.178	-0.321	0.203
-721.835	-118.939	-0.277	-0.049
-720.821	-54.835	-0.103	0.047
-719.806	9.408	-0.222	-0.169
-718.791	90.957	-0.095	0.107
-717.777	-33.965	-0.221	0.123
-716.762	341.585	-0.128	-0.252
-715.748	-200.000	-0.010	0.201
-714.733	490.654	-0.101	-0.233
-713.718	-200.000	0.065	-0.404
-712.704	800.000	0.052	-0.223
-711.689	800.000	-0.086	0.240
-710.675	450.732	0.104	0.232
-709.660	-200.000	-0.043	0.211
-708.645	276.284	0.055	-0.097
-707.631	127.077	0.203	-0.259
-706.616	-10.258	-0.226	0.151
-705.602	-142.285	-0.398	0.040
-704.587	-113.296	-0.163	0.032
-703.572	-200.000	0.002	-0.310
-702.558	800.000	-0.049	0.137
-701.543	-68.499	0.093	0.036
-700.529	-161.479	-0.360	-0.019
-699.514	-151.623	0.317	-0.024
-698.499	71.656	0.053	-0.055
-697.485	-90.026	-0.198	-0.058
-696.470	-59.254	0.046	-0.020
-695.456	-200.000	0.066	-0.351
-694.441	99.777	-0.245	-0.285
-693.426	110.965	-0.158	-0.191
-692.412	-200.000	-0.100	0.678
-691.397	-145.807	-0.132	-0.012
-690.383	-200.000	0.011	-0.265
-689.368	-98.345	0.058	0.015
-688.354	8.758	-0.061	0.047
-687.339	-96.076	0.150	0.040
-686.324	35.057	-0.044	0.039
-685.310	221.781	-0.227	-0.366
-684.295	800.000	0.081	0.311
-683.281	800.000	0.029	-0.084
-682.266	-100.272	0.151	0.038
-681.251	444.271	-0.087	0.192
-680.237	-177.793	-0.249	0.006
-679.222	75.746	0.144	-0.153
-678.208	772.273	-0.063	-0.172
-677.193	-62.880	0.186	-0.077
-676.178	-36.427	0.039	-0.021
-675.164	3.525	-0.090	0.066
-674.149	-129.676	-0.227	0.031
-673.135	-200.000	-0.039	-0.254
-672.120	239.258	0.024	-0.040
-671.105	59.744	0.186	-0.184
-670.091	-142.489	0.310	0.031
-669.076	-200.000	0.031	0.217
-668.062	385.168	-0.127	0.262
-667.047	-200.000	-0.058	0.320
-666.032	607.435	0.090	0.225
-665.018	20.245	0.138	0.112
-664.003	63.287	0.042	-0.043
-662.989	-86.997	-0.105	0.032
-661.974	4.261	0.333	-0.245
-660.959	-75.422	0.032	0.011
-659.945	-159.990	-0.362	-0.020
-658.930	800.000	0.056	0.167
-657.916	41.351	0.197	0.179
-656.901	-200.000	-0.002	-0.140
-655.886	57.912	0.336	0.330
-654.872	800.000	-0.090	0.378
-653.857	341.437	-0.056	-0.109
-652.843	283.903	-0.052	0.093
-651.828	19.339	0.177	-0.143
-650.814	196.548	-0.086	0.132
-649.799	-126.493	0.155	-0.023
-648.784	26.742	-0.157	0.132
-647.770	462.181	-0.124	0.277
-646.755	-19.103	-0.092	0.057
-645.741	327.066	-0.017	0.033
-644.726	-128.354	-0.447	0.064
-643.711	21.972	0.200	0.164
-642.697	-200.000	-0.013	-0.142
-641.682	800.000	-0.098	-0.406
-640.668	-200.000	0.033	0.156
-639.653	-99.200	-0.313	-0.079
-638.638	378.078	0.069	0.141
-637.624	800.000	0.049	-0.170
-636.609	800.000	0.023	-0.089
-635.595	-78.725	-0.120	0.041
-634.580	-200.000	-0.027	-0.241
-633.565	800.000	0.015	0.057
-632.551	800.000	-0.207	0.597
-631.536	800.000	0.115	0.398
-630.522	-200.000	-0.038	0.290
-629.507	800.000	-0.014	-0.043
-628.492	742.881	-0.024	0.065
-627.478	80.060	0.232	-0.250
-626.463	-175.513	-0.269	0.007
-625.449	-79.092	0.046	-0.016
-624.434	-200.000	0.020	0.264
-623.419	800.000	0.026	0.100
-622.405	-38.359	0.323	0.172
-621.390	-96.487	0.373	0.099
-620.376	800.000	-0.053	0.203
-619.361	-200.000	0.016	-0.354
-618.346	-33.154	0.314	-0.174
-617.332	-112.829	0.155	0.031
-616.317	-101.186	0.131	-0.032
-615.303	-116.706	-0.418	0.077
-614.288	800.000	-0.107	-0.350
-613.273	-200.000	-0.017	-0.175
-612.259	498.343	-0.115	-0.265
-611.244	-67.469	-0.195	0.077
-610.230	-82.052	-0.127	-0.042
-609.215	-107.920	-0.247	0.054
-608.201	-117.063	-0.254	-0.046
-607.186	-200.000	0.013	0.161
-606.171	116.062	0.114	0.140
-605.157	-200.000	0.003	0.044
-604.142	52.436	-0.385	-0.368
-603.128	158.082	-0.035	-0.048
-602.113	371.521	0.107	-0.218
-601.098	93.017	-0.106	-0.119
-600.084	-121.050	0.244	-0.041
-599.069	800.000	-0.044	-0.186
-598.055	507.910	-0.112	-0.259
-597.040	-66.283	-0.274	0.109
-596.025	-15.815	0.182	-0.116
-595.011	-38.594	-0.194	-0.102
-593.996	-200.000	0.015	-0.067
-592.982	59.035	-0.159	-0.157
-591.967	234.881	0.102	0.168
-590.952	-28.882	0.278	0.160
-589.938	-53.045	-0.212	-0.097
-588.923	256.920	-0.061	-0.104
-587.909	3.229	-0.066	0.048
-586.894	-43.239	0.353	-0.179
-585.879	-4.056	0.241	-0.167
-584.865	-89.717	-0.060	-0.018
-583.850	-48.478	-0.251	0.121
-582.836	272.478	-0.072	-0.127
-581.821	-107.417	-0.294	0.065
-580.806	168.448	0.152	0.216
-579.792	209.867	0.043	0.068
-578.777	367.094	-0.096	0.195
-577.763	148.504	0.054	-0.073
-576.748	-94.638	0.182	-0.049
-575.733	-122.789	-0.118	-0.019
-574.719	-200.000	0.013	0.216
-573.704	53.390	0.033	0.032
-572.690	-200.000	0.008	0.056
-571.675	-200.000	-0.021	0.098
-570.661	-200.000	-0.005	0.415
-569.646	301.225	-0.222	0.409
-568.631	-75.199	0.046	0.016
-567.617	261.794	0.155	-0.268
-566.602	563.102	-0.054	-0.130
-565.588	35.673	0.021	-0.018
-564.573	-100.300	0.148	0.037
-563.558	193.346	0.064	0.097
-562.544	-200.000	-0.022	-0.278
-561.529	32.560	0.122	-0.105
-560.515	104.783	0.083	0.098
-559.500	-138.041	0.193	-0.021
-558.485	-132.832	0.230	-0.029
-557.471	-83.301	0.238	-0.076
-556.456	152.385	-0.138	-0.188
-555.442	-33.020	-0.103	0.057
-554.427	800.000	-0.040	0.119
-553.412	800.000	0.069	0.235
-552.398	-83.541	-0.125	0.040
-551.383	-85.480	0.121	0.038
-550.369	-155.001	-0.361	-0.024
-549.354	33.009	0.215	-0.186
-548.339	-144.559	-0.113	-0.010
-547.325	-163.737	-0.090	0.004
-546.310	-53.137	0.365	-0.168
-545.296	-200.000	-0.040	-0.197
-544.281	-37.034	-0.328	0.176
-543.266	-0.401	0.156	0.111
-542.252	-200.000	-0.026	-0.187
-541.237	800.000	0.038	0.133
-540.223	-15.960	0.167	-0.106
-539.208	102.250	-0.053	0.062
-538.193	-57.252	-0.248	-0.109
-537.179	89.373	0.032	-0.035
-536.164	800.000	0.062	-0.213
-535.150	55.988	-0.199	0.193
-534.135	-200.000	-0.002	-0.380
-533.121	2.645	-0.051	-0.037
-532.106	-200.000	0.000	-0.052
-531.091	26.381	0.503	-0.420
-530.077	800.000	0.092	-0.313
-529.062	-140.932	-0.318	-0.033
-528.048	-183.077	0.055	0.001
-527.033	224.322	0.056	-0.090
-526.018	25.311	0.162	0.134
-525.004	-61.082	0.279	0.117
-523.989	776.300	-0.132	-0.359
-522.975	97.533	-0.191	0.218
-521.960	-200.000	0.020	0.208
-520.945	192.409	-0.243	-0.365
-519.931	800.000	-0.153	0.455
-518.916	130.752	-0.126	-0.161
-517.902	-128.871	0.193	-0.027
-516.887	-200.000	-0.033	-0.231
-515.872	-52.909	0.018	0.008
-514.858	35.591	-0.191	-0.168
-513.843	138.935	-0.060	0.079
-512.829	480.548	0.140	0.316
-511.814	-83.743	0.128	0.041
-510.799	-114.643	-0.196	0.037
-509.785	-89.417	0.377	-0.111
-508.770	-77.396	-0.396	0.137
-507.756	-111.344	0.208	-0.042
-506.741	147.405	-0.200	0.269
-505.726	-59.336	0.265	-0.113
-504.712	93.810	-0.139	-0.158
-503.697	3.442	0.141	-0.103
-502.683	-82.344	-0.188	0.061
-501.668	85.473	-0.086	0.095
-500.653	42.367	-0.178	0.161
-499.639	-33.378	0.374	-0.206
-498.624	274.700	-0.197	-0.348
-497.610	-200.000	0.026	-0.234
-496.595	800.000	-0.077	0.287
-495.581	-200.000	0.012	-0.170
-494.566	-111.543	-0.329	0.067
-493.551	180.982	0.086	0.126
-492.537	-78.907	0.354	0.120
-491.522	800.000	-0.068	-0.214
-490.508	800.000	0.050	-0.202
-489.493	180.996	0.308	-0.451
-488.478	-108.605	0.117	0.025
-487.464	-64.880	-0.202	-0.082
-486.449	274.299	-0.141	0.249
-485.435	800.000	0.126	0.409
-484.420	274.742	0.104	-0.184
-483.405	-164.124	-0.053	0.002
-482.391	-23.374	-0.178	0.107
-481.376	-19.466	0.006	0.004
-480.362	-4.001	0.055	0.038
-479.347	132.287	-0.171	0.220
-478.332	-1.543	-0.050	-0.035
-477.318	-200.000	0.004	-0.099
-476.303	76.132	-0.086	-0.090
-475.289	-65.969	-0.182	-0.072
-474.274	106.652	-0.129	-0.153
-473.259	-200.000	0.005	0.170
-472.245	-49.350	0.156	-0.074
-471.230	470.321	-0.061	0.137
-470.216	44.034	0.236	-0.216
-469.201	800.000	0.031	0.101
-468.186	26.859	0.254	-0.212
-467.172	800.000	-0.075	-0.293
-466.157	-135.336	-0.287	0.034
-465.143	51.922	0.081	-0.077
-464.128	800.000	-0.090	0.312
-463.113	47.378	-0.370	0.343
-462.099	76.108	0.053	-0.056
-461.084	452.196	-0.034	-0.075
-460.070	800.000	0.095	-0.303
-459.055	-23.950	0.279	-0.166
-458.040	780.559	0.043	-0.118
-457.026	-44.549	0.144	0.071
-456.011	185.429	-0.220	0.325
-454.997	135.607	0.106	-0.137
-453.982	-200.000	-0.060	-0.478
-452.968	523.853	0.064	-0.150
-451.953	-200.000	0.003	-0.130
-450.938	-137.727	-0.402	-0.045
-449.924	200.821	-0.115	-0.176
-448.909	-138.931	-0.275	0.030
-447.895	148.983	0.129	-0.173
-446.880	-174.104	0.150	-0.004
-445.865	-200.000	0.030	0.175
-444.851	241.248	-0.032	0.053
-443.836	268.444	-0.223	-0.389
-442.822	48.873	-0.142	-0.133
-441.807	-200.000	0.023	0.111
-440.792	-200.000	0.040	-0.282
-439.778	-53.873	0.275	0.125
-438.763	800.000	-0.105	-0.414
-437.749	-59.450	0.158	-0.067
-436.734	-73.082	0.228	0.083
-435.719	258.286	-0.208	-0.356
-434.705	800.000	0.060	0.204
-433.690	-104.224	-0.038	-0.009
-432.676	-100.575	-0.254	-0.062
-431.661	-85.389	-0.277	0.086
-430.646	-90.516	-0.174	0.050
-429.632	-136.978	-0.192	0.022
-428.617	14.887	0.254	0.198
-427.603	51.738	-0.166	-0.157
-426.588	-200.000	-0.012	-0.404
-425.573	-200.000	0.016	0.211
-424.559	-137.718	-0.212	0.024
-423.544	31.962	0.032	0.028
-422.530	-16.800	-0.196	0.123
-421.515	680.040	-0.067	0.174
-420.500	202.923	0.045	0.070
-419.486	800.000	-0.089	0.266
-418.471	-140.631	0.484	0.050
-417.457	143.742	-0.059	-0.078
-416.442	543.263	0.052	0.122
-415.428	110.233	-0.099	-0.118
-414.413	800.000	0.036	-0.149
-413.398	7.239	0.231	0.171
-412.384	-200.000	0.060	0.285
-411.369	45.004	-0.136	-0.124
-410.355	117.602	-0.118	-0.145
-409.340	-106.048	0.208	-0.046
-408.325	-114.528	0.342	0.065
-407.311	-0.331	0.243	0.171
-406.296	800.000	-0.076	0.211
-405.282	-200.000	0.104	-0.615
-404.267	-200.000	-0.409	-0.001
-403.252	-83.840	-0.136	0.043
-402.238	-98.799	0.102	0.026
-401.223	-141.480	-0.193	0.019
-400.209	-118.965	0.071	0.012
-399.194	-93.773	0.204	0.056
-398.179	800.000	0.074	0.241
-397.165	57.962	-0.244	-0.237
-396.150	123.699	0.157	-0.195
-395.136	70.433	0.055	0.056
-394.121	184.954	-0.208	-0.306
-393.106	-200.000	0.025	0.143
-392.092	-34.824	-0.215	-0.117
-391.077	-124.986	-0.214	0.033
-390.063	-60.458	-0.261	0.110
-389.048	11.652	0.217	-0.165
-388.033	98.246	0.186	0.213
-387.019	-8.797	-0.082	-0.054
-386.004	-117.313	-0.214	0.039
-384.990	444.553	-0.078	-0.170
-383.975	800.000	0.088	-0.258
-382.960	-3.740	0.236	-0.163
-381.946	-92.243	-0.351	0.098
-380.931	234.620	0.228	0.373
-379.917	560.161	0.107	-0.255
-378.902	134.197	0.088	-0.113
-377.888	-109.530	0.070	-0.015
-376.873	-106.105	0.315	-0.070
-375.858	-18.243	-0.040	-0.025
-374.844	-142.452	0.365	-0.036
-373.829	800.000	0.053	-0.153
-372.815	63.187	-0.069	-0.069
-371.800	800.000	-0.094	0.301
-370.785	386.227	0.020	-0.042
-369.771	88.130	0.146	0.161
-368.756	-54.954	0.160	-0.072
-367.742	800.000	-0.075	0.293
-366.727	-161.241	0.223	0.011
-365.712	800.000	-0.023	-0.073
-364.698	800.000	-0.017	0.063
-363.683	-27.420	-0.061	-0.035
-362.669	292.194	-0.196	-0.353
-361.654	-200.000	-0.030	-0.154
-360.639	-36.917	-0.119	-0.063
-359.625	115.772	0.056	0.067
-358.610	15.950	0.176	0.138
-357.596	74.401	0.272	0.283
-356.581	-48.412	-0.220	0.105
-355.566	-200.000	0.013	0.153
-354.552	346.372	0.132	0.258
-353.537	743.481	-0.032	-0.086
-352.523	45.824	0.210	-0.192
-351.508	88.098	-0.293	0.322
-350.493	-27.982	-0.076	0.043
-349.479	-200.000	-0.016	-0.111
-348.464	321.582	0.180	-0.340
-347.450	-200.000	0.011	-0.085
-346.435	371.139	0.091	0.184
-345.420	800.000	-0.026	0.105
-344.406	127.354	-0.130	0.164
-343.391	357.279	-0.013	-0.025
-342.377	478.646	-0.151	-0.339
-341.362	-87.267	0.136	0.041
-340.348	-69.742	0.282	0.107
-339.333	63.566	0.061	-0.061
-338.318	-33.061	0.225	-0.123
-337.304	306.054	-0.107	0.196
-336.289	-81.956	0.087	0.028
-335.275	-200.000	0.017	-0.170
-334.260	-59.674	-0.223	-0.095
-333.245	-200.000	-0.026	0.249
-332.231	-200.000	-0.010	-0.502
-331.216	-200.000	0.018	-0.113
-330.202	800.000	-0.063	0.211
-329.187	592.118	-0.155	0.379
-328.172	-6.873	-0.078	0.052
-327.158	-158.528	0.149	-0.009
-326.143	-134.059	0.277	0.034
-325.129	481.651	0.176	0.395
-324.114	-40.168	0.151	-0.078
-323.099	-200.000	-0.447	0.001
-322.085	800.000	-0.029	-0.095
-321.070	-145.501	-0.430	-0.038
-320.056	59.428	0.072	-0.070
-319.041	448.176	-0.074	0.162
-318.026	-49.192	-0.097	-0.046
-317.012	-113.126	0.391	0.076
-315.997	3.847	-0.048	0.035
-314.983	-42.468	0.163	-0.082
-313.968	-76.516	-0.185	0.064
-312.953	-23.505	-0.243	0.144
-311.939	-173.915	-0.347	0.010
-310.924	-200.000	-0.035	0.245
-309.910	-158.752	-0.185	-0.010
-308.895	388.189	0.050	-0.102
-307.880	-103.829	0.139	-0.032
-306.866	476.618	-0.278	0.622
-305.851	545.007	-0.079	0.188
-304.837	800.000	0.024	0.075
-303.822	-144.200	0.187	-0.017
-302.807	-200.000	0.014	0.305
-301.793	-55.277	0.243	-0.108
-300.778	142.076	0.066	-0.087
-299.764	-62.252	-0.119	0.049
-298.749	-200.000	0.027	0.187
-297.735	226.933	0.240	0.386
-296.720	-200.000	0.030	-0.305
-295.705	-200.000	-0.018	-0.246
-294.691	-21.436	-0.153	0.093
-293.676	92.432	-0.183	0.204
-292.662	136.790	0.435	-0.562
-291.647	800.000	0.033	-0.098
-290.632	208.408	0.125	0.194
-289.618	172.810	-0.104	-0.149
-288.603	800.000	0.149	-0.475
-287.589	-200.000	0.018	-0.112
-286.574	-76.481	-0.093	0.032
-285.559	-200.000	0.047	0.226
-284.545	-121.651	-0.127	0.021
-283.530	187.337	0.053	-0.078
-282.516	-59.881	0.320	-0.135
-281.501	-83.843	0.047	0.015
-280.486	-55.753	0.033	0.014
-279.472	464.817	0.176	0.388
-278.457	-124.685	-0.194	-0.030
-277.443	432.395	0.092	0.198
-276.428	-3.599	-0.131	0.090
-275.413	-76.451	0.152	0.053
-274.399	20.420	-0.189	0.151
-273.384	-200.000	0.020	-0.119
-272.370	230.638	0.044	-0.071
-271.355	122.125	0.175	0.215
-270.340	-200.000	0.014	-0.197
-269.326	-68.683	-0.318	-0.122
-268.311	-0.253	0.018	0.013
-267.297	-10.847	0.075	0.049
-266.282	686.627	-0.037	-0.096
-265.267	-200.000	-0.049	0.219
-264.253	-50.229	0.315	-0.147
-263.238	-128.927	-0.199	0.028
-262.224	-107.423	-0.211	-0.046
-261.209	-96.370	-0.176	0.046
-260.195	22.203	-0.093	-0.075
-259.180	-200.000	-0.174	-0.000
-258.165	48.905	-0.331	0.306
-257.151	-42.022	-0.243	0.123
-256.136	104.619	-0.051	-0.059
-255.122	800.000	0.025	0.083
-254.107	680.888	-0.085	0.218
-253.092	-79.944	0.136	0.045
-252.078	-132.366	0.224	0.029
-251.063	161.726	0.133	0.184
-250.049	8.499	0.281	0.209
-249.034	-168.315	0.194	-0.007
-248.019	-61.792	0.303	0.125
-247.005	33.588	-0.071	0.061
-245.990	-200.000	0.025	-0.252
-244.976	-112.313	-0.224	-0.044
-243.961	-135.482	0.309	0.036
-242.946	-21.666	-0.152	-0.091
-241.932	-89.799	0.203	0.059
-240.917	4.630	-0.026	-0.019
-239.903	-49.312	0.323	0.152
-238.888	-1.373	-0.086	-0.060
-237.873	49.722	-0.169	0.157
-236.859	305.222	0.103	0.189
-235.844	-23.303	-0.206	-0.122
-234.830	-25.176	-0.011	-0.007
-233.815	63.260	-0.171	0.169
-232.800	800.000	0.076	0.226
-231.786	221.442	0.104	0.164
-230.771	800.000	-0.034	-0.138
-229.757	486.352	-0.078	-0.176
-228.742	-200.000	-0.033	0.142
-227.727	-200.000	0.034	-0.154
-226.713	466.839	-0.101	0.222
-225.698	800.000	0.059	0.201
-224.684	-21.991	0.346	0.208
-223.669	51.862	0.391	0.367
-222.655	-72.923	-0.179	0.065
-221.640	594.390	-0.082	-0.199
-220.625	-132.139	-0.098	-0.013
-219.611	800.000	-0.094	0.291
-218.596	459.988	-0.080	-0.176
-217.582	-176.593	-0.460	-0.012
-216.567	-161.368	0.184	0.009
-215.552	800.000	-0.064	-0.248
-214.538	212.234	-0.202	-0.314
-213.523	148.841	-0.227	-0.303
-212.509	-200.000	-0.015	0.349
-211.494	569.989	-0.087	-0.209
-210.479	68.044	0.149	0.151
-209.465	-28.776	0.324	0.184
-208.450	-40.549	0.188	0.096
-207.436	96.976	-0.138	-0.156
-206.421	96.136	-0.221	-0.249
-205.406	492.152	0.028	-0.062
-204.392	-1.035	0.253	0.176
-203.377	326.798	-0.237	-0.447
-202.363	98.875	-0.128	-0.145
-201.348	-31.161	0.206	-0.115
-200.333	14.072	0.064	0.049
-199.319	-200.000	-0.005	0.207
-198.304	-62.326	0.179	-0.073
-197.290	-97.294	0.132	0.034
-196.275	-200.000	0.007	-0.113
-195.260	213.345	0.073	-0.114
-194.246	-1.263	-0.219	0.153
-193.231	-138.321	-0.002	0.000
-192.217	-200.000	-0.037	-0.235
-191.202	-146.468	0.246	0.021
-190.187	167.774	0.158	0.222
-189.173	-191.482	0.216	-0.002
-188.158	800.000	0.018	0.073
-187.144	72.550	-0.061	-0.063
-186.129	33.818	-0.172	-0.147
-185.114	-64.520	-0.123	-0.049
-184.100	382.612	0.101	-0.204
-183.085	124.201	0.047	0.058
-182.071	-200.000	0.016	-0.157
-181.056	141.994	-0.063	-0.083
-180.042	329.054	-0.078	-0.147
-179.027	-200.000	0.017	-0.089
-178.012	-78.424	0.177	-0.060
-176.998	-200.000	0.032	0.211
-175.983	18.513	0.129	-0.101
-174.969	-115.884	-0.117	0.021
-173.954	108.567	0.167	0.196
-172.939	-134.960	0.252	0.030
-171.925	143.992	0.120	0.157
-170.910	-79.466	-0.147	-0.049
-169.896	-18.207	0.024	0.015
-168.881	-15.445	-0.244	-0.153
-167.866	534.062	0.126	0.294
-166.852	317.677	-0.117	0.218
-165.837	-75.381	0.152	0.053
-164.823	-200.000	0.005	-0.068
-163.808	800.000	0.056	0.219
-162.793	32.615	-0.107	0.091
-161.779	-83.620	0.116	-0.037
-160.764	-200.000	0.003	0.165
-159.750	800.000	0.084	0.343
-158.735	800.000	0.016	-0.058
-157.720	-104.909	0.211	0.048
-156.706	-185.375	-0.222	0.003
-155.691	39.196	0.124	0.109
-154.677	55.495	0.057	-0.054
-153.662	213.281	-0.001	-0.002
-152.647	-15.888	0.208	0.130
-151.633	-187.591	0.129	0.002
-150.618	249.705	0.055	-0.092
-149.604	-20.846	0.310	-0.187
-148.589	-69.645	0.241	0.091
-147.574	54.333	-0.139	-0.131
-146.560	-199.444	-0.100	-0.001
-145.545	-200.000	0.031	0.202
-144.531	137.124	0.086	-0.111
-143.516	-193.070	0.209	0.002
-142.502	-17.953	0.164	-0.101
-141.487	800.000	0.105	0.297
-140.472	43.361	0.050	-0.045
-139.458	21.370	-0.269	-0.215
-138.443	-200.000	-0.008	0.559
-137.429	-13.682	-0.050	-0.032
-136.414	381.715	0.072	0.145
-135.399	-23.520	-0.422	-0.249
-134.385	45.057	0.150	-0.135
-133.370	-105.252	-0.199	-0.045
-132.356	-3.531	-0.158	-0.108
-131.341	-200.000	-0.032	0.227
-130.326	48.377	-0.367	-0.338
-129.312	-200.000	0.024	0.277
-128.297	-200.000	-0.013	-0.238
-127.283	-200.000	0.024	-0.182
-126.268	-133.943	-0.270	-0.033
-125.253	-114.704	0.162	-0.030
-124.239	53.908	0.197	-0.186
-123.224	63.866	0.174	-0.172
-122.210	629.168	0.138	0.342
-121.195	-200.000	0.003	0.238
-120.180	61.364	-0.080	-0.078
-119.166	-11.550	-0.139	-0.090
-118.151	295.310	-0.108	0.194
-117.137	61.023	-0.101	0.098
-116.122	1.058	-0.394	0.278
-115.107	-20.696	-0.263	0.159
-114.093	356.106	0.130	0.255
-113.078	-200.000	-0.012	-0.134
-112.064	609.849	-0.101	0.247
-111.049	-200.000	-0.022	-0.129
-110.034	-89.254	0.105	0.031
-109.020	-96.912	0.301	-0.077
-108.005	772.403	0.126	0.337
-106.991	203.769	-0.208	0.316
-105.976	219.397	0.183	0.287
-104.962	-70.055	-0.236	-0.088
-103.947	427.198	0.123	-0.262
-102.932	-42.838	0.226	0.113
-101.918	-6.631	0.241	-0.161
-100.903	35.215	0.083	-0.071
-99.889	180.688	-0.225	0.324
-98.874	-54.473	0.241	0.107
-97.859	-24.138	0.309	0.181
-96.845	-60.891	-0.178	0.074
-95.830	184.689	0.190	-0.277
-94.816	251.377	0.021	0.036
-93.801	-18.467	0.123	0.075
-92.786	-200.000	0.007	0.121
-91.772	9.187	-0.102	0.076
-90.757	-68.759	0.150	-0.057
-89.743	-57.204	0.201	0.087
-88.728	-81.679	-0.180	-0.058
-87.713	53.146	-0.171	-0.161
-86.699	-50.334	0.175	0.081
-85.684	800.000	-0.112	0.329
-84.670	-200.000	-0.014	0.125
-83.655	800.000	0.079	-0.265
-82.640	8.429	0.178	-0.131
-81.626	441.469	0.069	0.148
-80.611	181.455	0.195	0.282
-79.597	-117.828	0.241	0.042
-78.582	-41.076	0.093	0.047
-77.567	35.613	0.160	-0.138
-76.553	-200.000	-0.004	-0.280
-75.538	110.710	0.211	0.249
-74.524	584.298	-0.032	-0.076
-73.509	-22.074	0.225	0.134
-72.494	-200.000	-0.022	0.182
-71.480	-144.033	0.170	-0.016
-70.465	-82.496	-0.122	-0.039
-69.451	209.793	-0.025	0.038
-68.436	193.388	0.120	0.178
-67.422	800.000	0.076	0.319
-66.407	800.000	0.061	0.198
-65.392	800.000	-0.008	0.024
-64.378	800.000	-0.007	0.025
-63.363	-200.000	-0.010	0.068
-62.349	296.531	-0.098	0.176
-61.334	69.030	-1.056	-1.064
-60.319	400.905	0.137	0.282
-59.305	800.000	-0.368	-1.035
-58.290	114.201	0.886	1.057
-57.276	393.734	0.820	1.673
-56.261	-200.000	113.571	660.967
-55.246	549.447	1513.804	3555.003
-54.232	179.367	2680.691	3843.663
-53.217	113.405	2148.437	2554.691
-52.203	40.181	1596.456	1406.270
-51.188	31.840	1342.759	1132.617
-50.173	28.836	1304.377	1082.533
-49.159	56.857	1362.086	1299.633
-48.144	55.629	1375.702	1305.220
-47.130	31.905	1330.687	1122.649
-46.115	28.393	1313.193	1087.050
-45.100	28.141	1308.547	1081.671
-44.086	28.224	1305.565	1079.653
-43.071	28.210	1303.336	1077.684
-42.057	28.127	1301.255	1075.437
-41.042	28.157	1299.725	1074.305
-40.027	28.148	1298.347	1073.071
-39.013	28.062	1296.382	1070.897
-37.998	28.208	1294.427	1070.094
-36.984	28.222	1293.005	1068.959
-35.969	28.205	1290.755	1066.960
-34.954	28.250	1288.908	1065.652
-33.940	28.269	1287.792	1064.798
-32.925	28.239	1286.628	1063.619
-31.911	28.410	1284.815	1063.070
-30.896	28.379	1283.796	1062.006
-29.881	28.359	1282.490	1060.762
-28.867	28.477	1280.352	1059.635
-27.852	28.337	1280.017	1058.508
-26.838	28.430	1277.961	1057.303
-25.823	28.466	1276.555	1056.304
-24.809	28.359	1275.903	1055.105
-23.794	28.207	1274.894	1053.356
-22.779	28.198	1273.259	1051.911
-21.765	28.317	1271.727	1051.286
-20.750	28.355	1270.128	1050.140
-19.736	28.233	1269.442	1048.832
-18.721	28.240	1268.029	1047.663
-17.706	28.244	1266.987	1046.788
-16.692	28.209	1265.914	1045.660
-15.677	28.178	1264.904	1044.606
-14.663	28.220	1263.580	1043.710
-13.648	28.150	1262.749	1042.584
-12.633	28.206	1261.728	1042.019
-11.619	28.186	1260.991	1041.251
-10.604	28.214	1259.792	1040.381
-9.590	28.235	1258.770	1039.613
-8.575	28.202	1257.930	1038.693
-7.560	28.196	1256.826	1037.705
-6.546	28.156	1256.328	1037.030
-5.531	28.117	1255.663	1036.215
-4.517	28.202	1254.838	1035.978
-3.502	28.302	1253.530	1035.417
-2.487	28.201	1253.011	1034.381
-1.473	28.205	1247.863	1030.110
-0.458	26.587	1233.635	1009.312
0.556	23.253	1215.856	971.047
1.571	19.275	1221.632	953.610
2.586	18.321	1235.837	959.269
3.600	17.893	1224.306	947.858
4.615	13.275	1153.157	868.493
5.629	6.183	1080.802	778.899
6.644	3.149	1062.311	750.718
7.659	2.907	1060.241	748.011
8.673	2.875	1059.063	746.958
9.688	2.919	1058.093	746.424
10.702	3.103	1055.885	745.692
11.717	7.124	1061.199	768.941
12.731	14.631	1072.582	813.852
13.746	19.088	1077.741	839.479
14.761	19.601	1077.841	841.987
15.775	18.828	1075.812	836.566
16.790	17.728	1074.076	829.792
17.804	17.109	1072.281	825.323
18.819	16.688	1071.734	822.785
19.834	16.749	1070.874	822.347
20.848	16.469	1070.451	820.590
21.863	16.414	1069.048	819.175
22.877	16.433	1067.783	818.224
23.892	16.125	1067.619	816.536
24.907	16.224	1067.026	816.488
25.921	16.278	1065.293	815.351
26.936	16.128	1064.502	813.950
27.950	16.241	1063.015	813.284
28.965	16.306	1061.562	812.417
29.980	16.549	1060.039	812.347
30.994	16.535	1059.160	811.532
32.009	16.559	1058.280	810.900
33.023	16.654	1057.003	810.305
34.038	16.437	1055.973	808.408
35.053	16.296	1055.579	807.359
36.067	16.310	1054.510	806.539
37.082	16.429	1053.232	806.055
38.096	16.478	1053.312	806.282
39.111	16.451	1052.138	805.182
40.126	16.422	1050.513	803.728
41.140	16.170	1049.122	801.394
42.155	15.994	1048.374	799.920
43.169	16.024	1046.835	798.813
44.184	15.954	1046.079	797.836
45.199	15.942	1044.902	796.811
46.213	16.072	1044.280	796.882
47.228	16.211	1043.746	797.058
48.242	16.221	1042.381	795.996
49.257	16.245	1041.407	795.293
50.271	16.329	1040.726	795.098
51.286	16.362	1039.803	794.478
52.301	16.306	1038.545	793.183
53.315	16.238	1037.528	792.019
54.330	16.106	1036.383	790.452
55.344	16.229	1035.793	790.509
56.359	16.234	1034.992	789.851
57.374	16.133	1033.930	788.501
58.388	16.022	1033.166	787.329
59.403	15.997	1032.091	786.325
60.417	15.887	1031.727	785.464
61.432	15.915	1030.456	784.556
62.447	15.963	1029.338	783.859
63.461	15.816	1028.992	782.843
64.476	15.969	1027.863	782.624
65.490	15.713	1027.569	781.144
66.505	15.878	1026.467	781.000
67.520	15.889	1025.935	780.580
68.534	15.824	1025.224	779.666
69.549	15.802	1024.491	778.940
70.563	15.813	1023.789	778.388
71.578	15.746	1022.667	777.157
72.593	15.778	1021.672	776.481
73.607	15.736	1020.727	775.498
74.622	15.736	1020.480	775.242
75.636	15.766	1019.933	774.899
76.651	15.731	1019.569	774.393
77.666	15.822	1019.149	774.422
78.680	15.787	1018.210	773.477
79.695	15.839	1017.795	773.332
80.709	15.828	1017.539	773.023
81.724	15.990	1016.302	772.755
82.739	16.073	1015.839	772.714
83.753	16.273	1015.308	773.159
84.768	16.543	1013.848	773.214
85.782	16.592	1013.780	773.318
86.797	16.604	1012.219	772.113
87.812	16.295	1011.788	770.308
88.826	16.352	1010.642	769.627
89.841	16.395	1009.750	769.073
90.855	16.439	1008.883	768.545
91.870	16.503	1008.262	768.295
92.884	16.594	1007.069	767.732
93.899	16.566	1005.814	766.581
94.914	16.661	1005.365	766.600
95.928	16.532	1004.909	765.598
96.943	16.493	1003.760	764.479
97.957	16.452	1002.701	763.421
98.972	16.457	1002.301	763.072
99.987	16.429	1001.456	762.234
101.001	16.455	1000.620	761.647
102.016	16.302	999.622	760.133
103.030	16.528	998.642	760.336
104.045	16.406	997.756	759.048
105.060	16.281	996.975	757.824
106.074	16.158	995.631	756.185
107.089	15.944	994.849	754.565
108.103	15.862	993.944	753.446
109.118	15.864	992.669	752.422
110.133	15.945	991.659	751.949
111.147	15.877	990.597	750.774
112.162	15.838	990.326	750.331
113.176	16.120	989.547	750.927
114.191	16.213	988.334	750.357
115.206	16.175	987.707	749.644
116.220	16.017	987.476	748.702
117.235	16.167	986.190	748.327
118.249	16.019	985.455	747.045
119.264	16.065	984.574	746.516
120.279	15.981	983.538	745.290
121.293	15.917	982.894	744.455
122.308	15.943	981.886	743.740
123.322	15.786	981.177	742.442
124.337	15.797	979.768	741.361
125.352	15.743	979.190	740.621
126.366	15.848	977.279	739.573
127.381	15.762	977.111	738.999
128.395	15.833	975.954	738.373
129.410	15.868	975.149	737.849
130.424	15.910	974.431	737.425
131.439	16.081	973.551	737.440
132.454	16.103	973.097	737.128
133.468	16.040	972.117	736.048
134.483	16.098	971.192	735.535
135.497	16.209	969.946	735.009
136.512	16.209	969.594	734.679
137.527	16.163	968.982	733.947
138.541	16.038	968.275	732.803
139.556	16.121	967.394	732.435
140.570	16.419	967.250	733.554
141.585	16.343	966.609	732.672
142.600	16.492	965.427	732.360
143.614	16.669	964.332	732.226
144.629	16.573	964.007	731.503
145.643	16.559	962.763	730.431
146.658	16.275	961.986	728.552
147.673	16.232	960.855	727.445
148.687	16.309	959.914	727.002
149.702	16.132	959.258	725.681
150.716	16.326	958.159	725.617
151.731	16.188	957.544	724.493
152.746	16.212	956.999	724.120
153.760	16.252	956.353	723.739
154.775	16.247	956.016	723.399
155.789	16.375	954.991	723.109
156.804	16.356	953.909	722.143
157.819	16.399	953.960	722.300
158.833	16.614	953.225	722.598
159.848	16.692	952.192	722.086
160.862	16.495	951.224	720.447
161.877	16.374	949.696	718.712
162.892	16.251	948.849	717.483
163.906	16.122	948.035	716.257
164.921	16.237	947.216	716.061
165.935	16.258	946.727	715.718
166.950	16.418	945.557	715.450
167.964	16.350	945.016	714.687
168.979	16.346	943.852	713.730
169.994	16.331	942.932	712.905
171.008	16.517	942.721	713.469
172.023	16.418	942.415	712.754
173.037	16.593	941.313	712.596
174.052	16.529	940.344	711.531
175.067	16.289	939.764	710.019
176.081	16.222	939.149	709.209
177.096	16.267	938.273	708.677
178.110	16.307	937.885	708.488
179.125	16.294	937.356	707.968
180.140	16.257	937.180	707.621
181.154	16.441	936.604	707.891
182.169	16.725	935.949	708.526
183.183	16.700	935.673	708.146
184.198	16.615	934.766	707.042
185.213	16.699	933.434	706.324
186.227	16.718	932.974	705.992
187.242	16.792	932.785	706.094
188.256	16.721	932.331	705.393
189.271	16.727	931.679	704.863
190.286	16.529	930.208	702.863
191.300	16.152	929.399	700.627
192.315	16.171	928.572	700.018
193.329	16.007	928.475	699.202
194.344	16.215	927.671	699.396
195.359	16.538	926.898	700.089
196.373	16.643	926.042	699.817
197.388	16.592	926.668	700.017
198.402	16.758	926.075	700.193
199.417	16.965	924.929	700.120
200.432	17.099	924.724	700.457
201.446	17.000	924.504	699.820
202.461	17.169	923.661	699.815
203.475	17.084	923.057	698.945
204.490	17.073	921.796	697.882
205.504	16.816	921.211	696.321
206.519	16.838	920.139	695.542
207.534	16.703	920.054	694.860
208.548	16.702	919.480	694.362
209.563	16.821	918.660	694.167
210.577	16.759	918.106	693.437
211.592	17.125	917.355	694.301
212.607	17.105	916.609	693.596
213.621	17.055	915.789	692.710
214.636	17.242	914.682	692.575
215.650	16.994	914.567	691.415
216.665	17.086	913.983	691.285
217.680	17.186	913.031	690.910
218.694	17.287	912.416	690.797
219.709	17.230	911.561	689.855
220.723	17.093	911.471	689.172
221.738	17.158	910.484	688.627
222.753	17.082	909.959	687.862
223.767	17.160	909.369	687.671
224.782	17.329	909.253	688.204
225.796	17.317	908.575	687.582
226.811	17.417	907.329	686.983
227.826	17.105	907.247	685.600
228.840	17.077	906.069	684.535
229.855	17.013	905.479	683.774
230.869	17.210	904.536	683.791
231.884	17.027	903.957	682.559
232.899	17.022	903.061	681.801
233.913	17.034	902.378	681.274
234.928	16.917	901.895	680.381
235.942	16.951	901.113	679.865
236.957	17.108	900.592	680.042
237.972	16.893	900.273	678.880
238.986	16.964	899.824	678.764
240.001	16.919	899.199	678.051
241.015	17.085	898.466	678.104
242.030	17.190	897.473	677.714
243.045	17.273	897.013	677.637
244.059	17.183	896.249	676.641
245.074	17.267	895.881	676.639
246.088	17.285	895.223	676.153
247.103	17.345	894.826	676.032
248.117	17.425	894.542	676.075
249.132	17.684	893.964	676.604
250.147	17.773	893.515	676.558
251.161	17.796	892.547	675.858
252.176	17.922	892.105	675.960
253.190	17.896	891.508	675.349
254.205	17.900	890.986	674.908
255.220	17.870	890.331	674.233
256.234	17.864	889.535	673.547
257.249	17.986	888.469	673.163
258.263	17.834	888.212	672.309
259.278	18.025	887.280	672.296
260.293	18.012	886.968	671.949
261.307	18.010	886.633	671.628
262.322	18.079	886.095	671.433
263.336	18.127	884.902	670.656
264.351	18.072	884.648	670.188
265.366	18.071	883.683	669.395
266.380	18.062	883.061	668.829
267.395	18.104	882.204	668.284
268.409	17.980	881.351	667.094
269.424	18.029	880.815	666.823
270.439	17.922	879.937	665.680
271.453	17.851	879.426	664.959
272.468	17.878	878.887	664.598
273.482	17.918	878.308	664.255
274.497	17.956	877.520	663.749
275.512	17.971	877.349	663.618
276.526	18.091	876.486	663.372
277.541	17.977	876.200	662.655
278.555	18.161	875.507	662.787
279.570	18.273	875.110	662.863
280.585	18.126	874.803	662.000
281.599	18.039	873.467	660.593
282.614	17.993	872.837	659.883
283.628	18.037	872.073	659.415
284.643	18.131	871.505	659.292
285.657	18.180	870.676	658.795
286.672	18.126	870.279	658.226
287.687	18.099	869.746	657.663
288.701	18.085	868.922	656.925
289.716	17.951	868.734	656.213
290.730	18.196	868.056	656.582
291.745	18.213	867.821	656.411
292.760	18.162	867.028	655.557
293.774	18.435	866.328	656.015
294.789	18.256	865.661	654.770
295.803	18.188	864.668	653.700
296.818	18.257	863.827	653.269
297.833	18.184	863.312	652.545
298.847	18.106	863.193	652.097
299.862	18.191	862.723	652.011
300.876	18.340	861.816	651.832
301.891	18.416	861.354	651.715
302.906	18.593	860.829	651.932
303.920	18.592	860.776	651.831
304.935	18.703	859.763	651.429
305.949	18.569	859.421	650.604
306.964	18.530	858.069	649.375
307.979	18.480	857.910	649.006
308.993	18.649	857.634	649.381
310.008	18.676	856.767	648.771
311.022	18.465	855.915	647.270
312.037	18.406	855.434	646.626
313.052	18.244	855.016	645.640
314.066	18.230	854.541	645.174
315.081	18.270	853.756	644.673
316.095	18.364	853.033	644.426
317.110	18.242	852.568	643.557
318.125	18.214	852.240	643.147
319.139	18.263	851.619	642.804
320.154	18.410	851.232	643.009
321.168	18.375	850.735	642.445
322.183	18.432	850.198	642.195
323.197	18.352	849.820	641.553
324.212	18.517	848.899	641.419
325.227	18.379	848.293	640.389
326.241	18.294	847.927	639.738
327.256	18.357	847.190	639.363
328.270	18.445	846.520	639.129
329.285	18.342	846.219	638.461
330.300	18.279	845.863	637.898
331.314	18.366	845.537	637.921
332.329	18.595	844.728	638.107
333.343	18.670	844.162	637.900
334.358	18.726	843.528	637.575
335.373	18.603	843.675	637.171
336.387	18.690	843.251	637.117
337.402	18.871	842.917	637.479
338.416	18.906	842.384	637.151
339.431	18.950	842.314	637.207
340.446	19.063	842.141	637.438
341.460	19.005	841.523	636.698
342.475	19.199	841.008	636.968
343.489	19.000	840.810	636.026
344.504	19.359	840.030	636.707
345.519	19.185	839.866	635.882
346.533	19.161	839.021	635.100
347.548	18.999	838.381	633.962
348.562	18.893	837.662	632.971
349.577	18.746	837.632	632.352
350.592	18.896	836.426	631.935
351.606	18.860	835.570	631.101
352.621	18.731	835.332	630.392
353.635	18.852	834.596	630.226
354.650	18.948	833.772	629.899
355.665	19.023	833.625	630.008
356.679	19.015	832.912	629.380
357.694	19.072	832.286	629.061
358.708	18.967	831.700	628.178
359.723	19.106	831.131	628.202
360.738	19.124	830.294	627.579
361.752	19.127	829.841	627.190
362.767	19.237	829.265	627.101
363.781	19.316	828.873	627.038
364.796	19.433	828.739	627.306
365.810	19.437	828.374	626.990
366.825	19.384	828.165	626.582
367.840	19.443	827.407	626.169
368.854	19.403	826.784	625.495
369.869	19.424	825.953	624.887
370.883	19.444	825.736	624.742
371.898	19.468	825.652	624.710
372.913	19.549	825.441	624.787
373.927	19.428	824.637	623.686
374.942	19.381	824.247	623.166
375.956	19.520	823.816	623.287
376.971	19.731	823.429	623.699
377.986	19.815	822.816	623.482
379.000	19.894	822.219	623.261
380.015	19.856	821.499	622.521
381.029	19.746	820.965	621.668
382.044	19.725	820.667	621.309
383.059	19.852	819.928	621.151
384.073	19.700	819.487	620.217
385.088	19.520	819.020	619.164
386.102	19.401	818.213	618.073
387.117	19.598	817.492	618.180
388.132	19.428	817.147	617.254
389.146	19.565	816.281	617.035
390.161	19.652	816.153	617.196
391.175	19.767	815.926	617.380
392.190	19.577	815.054	615.989
393.205	19.504	814.885	615.544
394.219	19.560	814.164	615.146
395.234	19.425	814.156	614.606
396.248	19.434	813.111	613.794
397.263	19.275	812.977	613.073
398.278	19.258	812.619	612.689
399.292	19.325	811.933	612.355
400.307	19.420	811.802	612.538
401.321	19.566	810.810	612.253
402.336	19.527	810.687	611.970
403.350	19.671	810.367	612.181
404.365	19.600	810.020	611.615
405.380	19.800	809.668	612.004
406.394	19.962	809.335	612.271
407.409	20.040	808.426	611.802
408.423	20.141	807.967	611.757
409.438	20.050	808.002	611.409
410.453	20.066	807.571	611.085
411.467	20.135	806.970	610.821
412.482	19.932	807.170	610.202
413.496	20.280	806.583	610.930
414.511	20.181	806.124	610.179
415.526	20.009	805.811	609.284
416.540	20.104	805.014	608.962
417.555	20.199	804.360	608.747
418.569	20.169	804.255	608.507
419.584	20.202	803.459	607.965
420.599	20.139	803.348	607.608
421.613	160.759	1373.096	1796.843
422.628	139.624	1456.092	1796.921
