DTS Sentinel unit serial number:	SN413079Multiplexer serial number:	ORYXHardware model number:	OX4-SRSoftware version number:	ORYX F/W v4.00 Oryx Data Collector v3.7.2.0data status	okinstallation	princeton_trtdifferential loss correction	single-endedforward channel	channel 1reverse channel	N/Adate	2019/09/12time	09:48:11forward acquisition time	60.00reverse acquisition time	0.00gamma	496.2192k internal	0.2300k external	0.2300temperature offset calibration	1.0043default loss term (dB/km)	0.3790temperature slope calibration	1.0000multiplexer offset coefficient	1.0000multiplexer slope coefficient	1.0000fibre end	0.00T internal ref (°C)	36.00T ext. ref 1 (°C)	1.84T ext. ref 2 (°C)	32.44length (m)	temperature (°C)	Stokes	anti-Stokes-747.200	-106.331	-0.087	0.020
-746.185	-192.610	-0.265	0.003
-745.171	493.477	-0.114	-0.266
-744.156	-23.454	0.289	0.177
-743.142	800.000	0.060	0.181
-742.127	170.180	0.059	0.086
-741.112	-102.801	0.345	-0.084
-740.098	-47.413	0.007	0.004
-739.083	340.857	0.055	-0.110
-738.069	-200.000	0.101	0.554
-737.054	800.000	0.044	-0.138
-736.039	425.263	0.025	0.054
-735.025	-73.492	-0.077	0.029
-734.010	-123.476	-0.337	-0.055
-732.996	35.159	-0.205	-0.183
-731.981	800.000	0.124	0.411
-730.966	-42.924	-0.212	0.110
-729.952	99.861	-0.171	0.202
-728.937	-29.511	-0.223	-0.130
-727.923	97.527	0.104	-0.122
-726.908	545.619	-0.198	-0.483
-725.894	77.950	-0.364	-0.395
-724.879	-97.035	0.139	-0.037
-723.864	-56.080	-0.124	-0.056
-722.850	-88.024	-0.113	-0.035
-721.835	362.425	0.105	-0.214
-720.821	-63.793	-0.123	0.051
-719.806	-65.356	0.147	0.060
-718.791	-200.000	-0.018	-0.294
-717.777	-193.459	0.322	-0.003
-716.762	-100.292	-0.203	-0.051
-715.748	7.076	0.085	-0.064
-714.733	20.613	0.102	0.084
-713.718	-20.213	-0.131	0.082
-712.704	-89.466	-0.253	-0.076
-711.689	-200.000	0.011	-0.166
-710.675	-200.000	-0.013	0.086
-709.660	127.867	0.222	0.288
-708.645	-200.000	0.009	-0.295
-707.631	302.432	0.081	0.153
-706.616	680.849	0.069	0.183
-705.602	-200.000	-0.021	-0.181
-704.587	-200.000	-0.029	0.320
-703.572	800.000	-0.050	-0.160
-702.558	2.787	-0.307	-0.227
-701.543	-89.224	0.070	0.021
-700.529	-136.375	-0.252	0.030
-699.514	-200.000	-0.000	0.002
-698.499	-77.989	-0.311	0.109
-697.485	407.266	-0.115	-0.248
-696.470	-91.442	-0.267	-0.078
-695.456	269.773	-0.071	0.127
-694.441	98.971	-0.140	-0.164
-693.426	-166.058	-0.428	0.019
-692.412	-200.000	0.013	-0.085
-691.397	-34.894	-0.369	0.205
-690.383	-180.737	0.145	0.003
-689.368	-200.000	0.011	-0.095
-688.354	-128.948	-0.113	0.016
-687.339	-58.462	-0.237	0.105
-686.324	-104.282	-0.280	-0.066
-685.310	83.278	0.195	0.216
-684.295	191.884	-0.331	-0.507
-683.281	-60.528	0.296	0.128
-682.266	800.000	-0.125	-0.360
-681.251	-200.000	-0.045	-0.209
-680.237	-200.000	-0.017	-0.196
-679.222	-200.000	-0.015	0.096
-678.208	-6.945	-0.591	-0.409
-677.193	733.725	0.061	0.167
-676.178	153.575	0.017	-0.023
-675.164	-146.209	0.446	0.040
-674.149	800.000	0.093	0.334
-673.135	-59.375	0.145	0.064
-672.120	-36.646	-0.110	0.060
-671.105	205.705	-0.169	-0.268
-670.091	-200.000	0.028	-0.296
-669.076	-13.754	-0.164	0.108
-668.062	-76.884	-0.228	-0.081
-667.047	-200.000	0.079	0.471
-666.032	160.908	0.103	-0.146
-665.018	-93.122	-0.374	-0.106
-664.003	42.684	-0.146	0.136
-662.989	-26.059	-0.216	-0.129
-661.974	-23.415	0.168	-0.103
-660.959	-141.637	0.160	-0.016
-659.945	203.053	-0.043	-0.068
-658.930	197.535	0.079	0.123
-657.916	800.000	-0.063	0.201
-656.901	26.279	0.255	-0.216
-655.886	-64.486	-0.053	-0.022
-654.872	800.000	0.135	0.552
-653.857	245.401	-0.108	-0.185
-652.843	800.000	-0.051	0.144
-651.828	-200.000	0.010	0.207
-650.814	34.490	-0.226	0.200
-649.799	3.891	0.113	-0.084
-648.784	-200.000	-0.026	-0.354
-647.770	-57.977	0.220	-0.098
-646.755	-14.949	-0.086	-0.056
-645.741	-47.039	0.363	0.180
-644.726	-200.000	-0.029	0.314
-643.711	25.059	-0.322	-0.272
-642.697	65.261	-0.067	-0.069
-641.682	46.917	-0.096	-0.091
-640.668	213.807	-0.204	0.328
-639.653	-200.000	-0.052	0.357
-638.638	-200.000	-0.031	-0.277
-637.624	-200.000	0.036	0.240
-636.609	187.488	-0.154	0.233
-635.595	61.082	-0.121	0.122
-634.580	-47.323	-0.404	-0.200
-633.565	602.694	-0.058	-0.146
-632.551	-12.241	0.157	0.104
-631.536	96.028	-0.247	-0.286
-630.522	-132.146	-0.155	0.020
-629.507	-21.522	0.172	-0.106
-628.492	-200.000	-0.026	-0.197
-627.478	14.018	0.214	0.169
-626.463	-55.391	0.199	-0.090
-625.449	-61.988	-0.203	0.086
-624.434	619.678	-0.161	-0.411
-623.419	102.249	0.174	0.206
-622.405	800.000	-0.059	-0.169
-621.390	264.032	-0.008	0.014
-620.376	305.871	0.067	0.126
-619.361	315.471	0.074	0.141
-618.346	195.340	0.104	-0.161
-617.332	-1.773	-0.169	-0.121
-616.317	-27.392	-0.116	0.068
-615.303	-84.303	0.076	-0.024
-614.288	76.922	0.290	-0.312
-613.273	-147.359	-0.175	0.015
-612.259	-200.000	-0.002	-0.292
-611.244	30.446	0.122	0.106
-610.230	800.000	0.051	0.166
-609.215	45.036	-0.144	0.134
-608.201	65.592	-0.061	-0.063
-607.186	-84.493	0.271	-0.087
-606.171	481.198	-0.030	0.069
-605.157	111.968	0.100	-0.123
-604.142	-200.000	0.012	-0.109
-603.128	38.587	0.168	0.152
-602.113	48.955	-0.086	-0.082
-601.098	-118.602	0.202	0.036
-600.084	58.173	0.272	0.270
-599.069	-59.172	-0.210	0.092
-598.055	312.236	-0.132	0.252
-597.040	216.708	0.096	-0.155
-596.025	134.127	-0.219	-0.288
-595.011	-109.583	0.191	0.041
-593.996	-77.116	0.171	-0.060
-592.982	-76.613	-0.275	-0.098
-591.967	647.134	0.240	-0.622
-590.952	141.656	-0.096	-0.129
-589.938	-200.000	-0.074	0.380
-588.923	-54.286	0.034	-0.016
-587.909	14.479	0.123	0.097
-586.894	-7.287	0.190	0.131
-585.879	-16.593	-0.125	0.080
-584.865	61.201	0.128	0.129
-583.850	91.460	-0.367	-0.418
-582.836	-51.436	0.247	0.117
-581.821	-83.262	-0.198	-0.065
-580.806	800.000	-0.053	-0.209
-579.792	800.000	-0.015	0.056
-578.777	-39.070	0.216	-0.115
-577.763	-23.728	0.213	0.129
-576.748	-200.000	0.017	-0.203
-575.733	279.797	0.012	-0.021
-574.719	25.490	0.159	-0.134
-573.704	0.529	-0.101	0.073
-572.690	-151.915	0.153	0.011
-571.675	-85.768	-0.296	-0.093
-570.661	-160.194	-0.202	-0.011
-569.646	309.544	0.154	-0.292
-568.631	-22.427	-0.487	-0.299
-567.617	33.994	-0.058	0.051
-566.602	-33.394	0.099	0.055
-565.588	-190.340	0.239	0.003
-564.573	182.488	0.199	0.297
-563.558	-200.000	0.048	0.332
-562.544	-200.000	0.025	-0.245
-561.529	-171.520	-0.216	0.007
-560.515	-140.961	0.252	0.026
-559.500	-200.000	0.031	0.386
-558.485	-171.838	-0.299	-0.010
-557.471	-200.000	0.052	0.402
-556.456	364.441	0.042	0.085
-555.442	-182.740	-0.412	0.008
-554.427	93.891	-0.069	0.079
-553.412	184.270	-0.167	0.251
-552.398	-200.000	0.003	0.135
-551.383	800.000	0.121	-0.472
-550.369	12.539	0.122	-0.095
-549.354	-200.000	-0.005	-0.042
-548.339	264.561	-0.052	0.092
-547.325	122.205	-0.108	0.136
-546.310	259.248	0.073	0.128
-545.296	-3.158	0.207	-0.146
-544.281	112.294	-0.221	0.271
-543.266	-116.015	0.261	0.049
-542.252	-200.000	-0.058	-0.466
-541.237	-142.405	0.407	0.041
-540.223	-70.198	0.079	0.030
-539.208	-108.306	0.126	0.027
-538.193	-61.207	-0.389	0.166
-537.179	249.771	0.097	-0.166
-536.164	321.459	0.184	-0.355
-535.150	50.529	-0.086	0.083
-534.135	-181.533	0.221	0.004
-533.121	58.977	0.151	0.151
-532.106	-113.643	0.403	-0.080
-531.091	292.846	0.065	-0.120
-530.077	4.410	0.258	-0.191
-529.062	142.729	-0.159	0.214
-528.048	-99.883	-0.174	-0.044
-527.033	800.000	0.096	-0.320
-526.018	180.263	0.080	-0.118
-525.004	579.885	-0.083	-0.206
-523.989	8.803	-0.102	-0.078
-522.975	-100.859	-0.232	-0.058
-521.960	-150.902	-0.025	-0.002
-520.945	800.000	0.088	-0.320
-519.931	-96.073	0.123	-0.033
-518.916	28.486	-0.090	0.077
-517.902	-37.134	-0.216	-0.117
-516.887	72.970	0.412	0.435
-515.872	-92.601	0.257	0.073
-514.858	449.365	0.048	0.107
-513.843	-66.351	-0.325	0.131
-512.829	-26.695	-0.266	0.158
-511.814	-200.000	0.019	-0.254
-510.799	800.000	0.048	0.163
-509.785	-79.947	-0.141	0.048
-508.770	-133.063	-0.305	-0.039
-507.756	-200.000	0.009	-0.097
-506.741	-11.926	0.425	-0.282
-505.726	-7.532	-0.049	-0.034
-504.712	301.557	-0.080	-0.149
-503.697	-40.557	-0.168	0.088
-502.683	-63.821	0.342	0.142
-501.668	153.730	0.106	-0.147
-500.653	-17.327	-0.164	-0.104
-499.639	-34.828	-0.166	0.092
-498.624	-50.004	0.176	-0.084
-497.610	198.211	-0.028	0.044
-496.595	-100.644	0.199	0.050
-495.581	119.191	-0.090	0.112
-494.566	-169.267	0.204	-0.008
-493.551	46.501	-0.182	0.171
-492.537	3.681	0.187	-0.138
-491.522	-159.510	0.048	0.003
-490.508	-111.465	0.306	-0.063
-489.493	674.454	0.069	-0.180
-488.478	-30.818	-0.265	-0.151
-487.464	283.924	0.101	0.183
-486.449	100.950	-0.096	-0.113
-485.435	800.000	0.054	-0.199
-484.420	-5.151	0.241	-0.167
-483.405	-102.754	-0.207	0.050
-482.391	-176.978	-0.065	-0.002
-481.376	78.848	0.070	0.076
-480.362	-89.022	-0.181	-0.054
-479.347	800.000	-0.073	-0.275
-478.332	-131.566	-0.049	0.007
-477.318	800.000	0.033	-0.092
-476.303	233.709	0.151	-0.251
-475.289	82.991	-0.114	0.125
-474.274	-200.000	0.017	-0.087
-473.259	83.254	0.158	-0.174
-472.245	-54.589	-0.117	-0.054
-471.230	800.000	0.016	0.047
-470.216	-200.000	-0.010	0.170
-469.201	-101.426	-0.238	-0.058
-468.186	-200.000	0.010	0.139
-467.172	-200.000	-0.025	-0.247
-466.157	1.828	-0.291	-0.211
-465.143	-126.591	-0.232	-0.035
-464.128	148.375	0.128	-0.174
-463.113	333.610	-0.107	-0.210
-462.099	-128.714	-0.246	-0.035
-461.084	800.000	0.012	-0.041
-460.070	-200.000	-0.042	-0.334
-459.055	-48.980	-0.241	0.116
-458.040	-200.000	-0.023	0.125
-457.026	-169.640	0.176	0.006
-456.011	138.511	-0.182	-0.241
-454.997	167.888	-0.081	-0.116
-453.982	4.891	0.177	0.131
-452.968	92.565	0.319	0.363
-451.953	455.976	-0.082	-0.183
-450.938	-137.764	-0.153	-0.017
-449.924	-200.000	-0.225	-0.001
-448.909	43.841	0.269	-0.248
-447.895	257.111	-0.134	0.232
-446.880	-11.404	0.137	0.091
-445.865	381.652	-0.153	-0.317
-444.851	-97.230	-0.247	-0.065
-443.836	-104.578	0.181	-0.042
-442.822	146.943	0.036	0.049
-441.807	142.681	-0.120	0.160
-440.792	-92.506	0.195	-0.055
-439.778	371.902	-0.048	0.099
-438.763	-149.454	0.265	-0.021
-437.749	-107.873	-0.343	0.075
-436.734	51.613	0.054	0.051
-435.719	-98.211	-0.200	-0.052
-434.705	47.803	0.087	-0.082
-433.690	800.000	-0.018	-0.067
-432.676	-200.000	0.051	-0.303
-431.661	237.198	0.150	0.250
-430.646	-200.000	-0.050	-0.254
-429.632	800.000	0.051	-0.217
-428.617	21.856	0.079	-0.065
-427.603	-125.001	0.247	-0.038
-426.588	-106.538	-0.343	0.077
-425.573	-22.411	-0.055	0.034
-424.559	-84.675	0.447	-0.142
-423.544	7.071	-0.258	0.194
-422.530	748.233	0.045	-0.121
-421.515	-148.872	-0.377	0.031
-420.500	43.937	-0.129	-0.119
-419.486	80.309	0.055	-0.060
-418.471	-200.000	0.012	-0.223
-417.457	-156.456	0.238	0.015
-416.442	-193.211	-0.440	0.004
-415.428	-147.541	-0.073	0.006
-414.413	-43.835	0.090	0.046
-413.398	-172.312	0.313	0.010
-412.384	41.650	-0.043	0.039
-411.369	-28.206	0.289	-0.168
-410.355	-200.000	0.024	0.333
-409.340	-200.000	-0.007	-0.307
-408.325	-200.000	-0.127	-0.582
-407.311	800.000	0.079	0.293
-406.296	48.178	0.070	-0.066
-405.282	-4.811	-0.061	-0.042
-404.267	-87.251	-0.053	-0.016
-403.252	800.000	-0.062	0.181
-402.238	-200.000	0.001	0.173
-401.223	-98.949	0.277	-0.071
-400.209	533.829	0.007	0.016
-399.194	-140.984	0.181	-0.019
-398.179	-22.756	0.225	-0.137
-397.165	-33.265	-0.171	0.095
-396.150	-82.841	-0.384	0.125
-395.136	186.100	0.093	0.139
-394.121	37.406	-0.172	-0.153
-393.106	475.477	0.018	0.041
-392.092	-83.476	-0.396	-0.127
-391.077	247.659	-0.094	-0.159
-390.063	-112.510	-0.164	0.033
-389.048	358.029	0.144	0.289
-388.033	7.657	0.109	-0.082
-387.019	-19.147	-0.310	-0.193
-386.004	-135.544	0.199	-0.024
-384.990	218.790	-0.291	0.467
-383.975	113.076	0.055	0.068
-382.960	266.967	0.162	-0.285
-381.946	-148.096	0.359	0.030
-380.931	-36.026	-0.070	0.038
-379.917	217.597	-0.168	-0.269
-378.902	214.826	0.134	-0.214
-377.888	569.410	-0.182	0.446
-376.873	-59.588	0.020	0.009
-375.858	245.190	0.014	0.023
-374.844	-174.925	-0.180	-0.005
-373.829	800.000	0.163	0.468
-372.815	800.000	0.021	-0.071
-371.800	800.000	0.073	0.264
-370.785	-56.777	0.351	0.156
-369.771	-193.756	-0.221	-0.002
-368.756	-3.502	0.119	-0.083
-367.742	-90.229	-0.096	0.028
-366.727	48.834	-0.075	-0.071
-365.712	99.076	-0.091	-0.105
-364.698	-117.944	0.124	0.022
-363.683	-93.189	-0.164	0.046
-362.669	-200.000	-0.023	0.291
-361.654	-200.000	0.021	0.177
-360.639	-200.000	-0.083	-0.464
-359.625	64.874	-0.144	0.146
-358.610	-88.554	-0.146	-0.044
-357.596	-103.054	-0.326	-0.078
-356.581	294.162	0.055	-0.101
-355.566	-152.623	0.274	0.020
-354.552	256.460	-0.073	0.125
-353.537	-28.135	-0.164	-0.095
-352.523	-200.000	0.003	0.077
-351.508	-1.024	0.123	-0.087
-350.493	-39.653	0.289	-0.152
-349.479	-44.880	0.462	0.231
-348.464	-107.488	0.299	0.066
-347.450	-9.586	0.188	-0.126
-346.435	77.141	0.203	0.216
-345.420	226.976	-0.155	0.253
-344.406	-17.059	-0.161	-0.102
-343.391	-107.300	-0.326	0.072
-342.377	-200.000	-0.008	0.087
-341.362	-200.000	-0.019	-0.147
-340.348	529.316	-0.102	0.242
-339.333	-89.181	-0.209	0.062
-338.318	-121.960	0.135	-0.022
-337.304	800.000	-0.038	-0.145
-336.289	412.023	-0.059	0.125
-335.275	800.000	0.145	0.428
-334.260	-200.000	0.007	-0.055
-333.245	35.530	-0.095	0.084
-332.231	800.000	-0.015	-0.056
-331.216	800.000	-0.021	0.066
-330.202	-181.778	-0.130	0.003
-329.187	154.178	0.117	0.161
-328.172	61.562	0.086	-0.086
-327.158	-68.206	-0.323	-0.126
-326.143	-87.014	-0.096	0.029
-325.129	800.000	0.121	0.490
-324.114	-98.010	-0.141	0.036
-323.099	12.937	-0.261	0.203
-322.085	-13.850	0.239	0.155
-321.070	-200.000	0.061	-0.473
-320.056	800.000	0.070	0.244
-319.041	74.064	-0.040	-0.042
-318.026	24.305	0.086	-0.071
-317.012	-4.720	-0.138	0.096
-315.997	-200.000	0.028	0.334
-314.983	-200.000	0.020	0.214
-313.968	42.329	0.328	0.299
-312.953	236.829	-0.107	0.177
-311.939	158.501	-0.209	0.291
-310.924	481.223	-0.059	-0.135
-309.910	800.000	-0.104	0.336
-308.895	-200.000	-0.005	-0.161
-307.880	317.478	0.132	-0.250
-306.866	160.889	-0.164	-0.229
-305.851	-70.693	-0.253	-0.096
-304.837	-62.575	0.120	-0.050
-303.822	-138.194	0.314	0.035
-302.807	350.540	0.055	0.109
-301.793	-21.233	-0.287	0.176
-300.778	151.284	0.154	0.210
-299.764	183.905	0.103	0.153
-298.749	-200.000	-0.029	-0.176
-297.735	61.284	0.254	-0.253
-296.720	-56.461	-0.047	-0.021
-295.705	-200.000	0.003	-0.014
-294.691	-200.000	-0.008	-0.072
-293.676	-26.207	-0.177	0.104
-292.662	441.103	0.044	0.097
-291.647	22.749	-0.022	0.018
-290.632	539.022	0.025	-0.059
-289.618	296.947	0.086	0.158
-288.603	-6.208	-0.113	0.077
-287.589	-51.577	-0.161	0.075
-286.574	304.964	-0.021	-0.039
-285.559	800.000	-0.089	-0.273
-284.545	318.652	-0.188	0.358
-283.530	-200.000	0.010	-0.227
-282.516	-200.000	-0.014	-0.274
-281.501	-134.304	0.164	-0.020
-280.486	800.000	0.064	-0.251
-279.472	-200.000	-0.010	0.062
-278.457	18.519	0.333	0.267
-277.443	35.713	-0.289	0.254
-276.428	190.297	-0.197	-0.296
-275.413	104.218	0.057	0.068
-274.399	38.842	0.288	-0.257
-273.384	-22.420	0.284	-0.172
-272.370	-200.000	0.021	-0.211
-271.355	800.000	-0.077	-0.295
-270.340	-2.716	0.177	0.124
-269.326	-26.985	-0.238	0.139
-268.311	-200.000	-0.019	0.182
-267.297	701.706	-0.019	0.050
-266.282	-178.667	0.157	0.004
-265.267	-200.000	-0.006	0.173
-264.253	114.616	0.033	0.040
-263.238	499.443	-0.026	-0.061
-262.224	-81.182	-0.215	0.071
-261.209	620.152	0.056	0.140
-260.195	800.000	-0.094	0.413
-259.180	-18.043	0.217	0.136
-258.165	218.035	-0.080	-0.128
-257.151	136.363	0.174	0.227
-256.136	-75.367	0.327	0.117
-255.122	77.529	-0.148	0.158
-254.107	367.904	0.060	-0.122
-253.092	800.000	0.041	-0.133
-252.078	32.831	0.417	0.361
-251.063	249.701	-0.075	-0.128
-250.049	273.102	-0.128	0.226
-249.034	233.974	0.083	0.136
-248.019	-188.352	-0.287	0.004
-247.005	50.148	0.035	-0.033
-245.990	-27.363	0.144	-0.084
-244.976	-158.101	0.108	0.006
-243.961	-59.856	-0.199	0.085
-242.946	458.236	0.099	0.220
-241.932	546.292	-0.191	-0.458
-240.917	800.000	0.040	-0.113
-239.903	194.866	0.135	-0.204
-238.888	434.437	-0.114	-0.249
-237.873	-200.000	-0.016	-0.295
-236.859	82.482	-0.226	0.245
-235.844	-163.415	0.260	0.012
-234.830	-200.000	-0.040	-0.246
-233.815	300.203	0.147	-0.272
-232.800	-117.637	-0.295	0.053
-231.786	-31.348	-0.077	0.043
-230.771	73.767	0.061	0.064
-229.757	-105.391	-0.076	-0.017
-228.742	-78.251	0.116	-0.040
-227.727	-30.294	-0.359	-0.204
-226.713	-200.000	0.033	-0.153
-225.698	-200.000	0.004	-0.060
-224.684	51.919	-0.043	0.041
-223.669	369.181	0.038	-0.078
-222.655	391.297	0.028	-0.057
-221.640	486.322	0.024	0.055
-220.625	-121.948	0.468	0.077
-219.611	205.865	0.144	0.224
-218.596	40.423	0.301	-0.271
-217.582	800.000	0.029	-0.106
-216.567	520.895	0.029	0.068
-215.552	-200.000	-0.021	0.158
-214.538	626.825	-0.053	-0.134
-213.523	710.899	-0.115	-0.303
-212.509	800.000	0.030	-0.119
-211.494	-55.106	-0.022	0.010
-210.479	-143.996	-0.093	0.009
-209.465	429.906	0.098	0.213
-208.450	-41.361	-0.243	-0.125
-207.436	800.000	0.015	0.042
-206.421	71.017	-0.065	-0.067
-205.406	-171.260	-0.240	0.008
-204.392	-200.000	0.053	-0.447
-203.377	100.562	0.139	0.162
-202.363	-118.577	-0.141	-0.025
-201.348	-170.578	0.076	-0.003
-200.333	-165.270	-0.159	-0.007
-199.319	-200.000	-0.005	0.261
-198.304	-5.112	0.208	0.143
-197.290	-27.682	-0.148	-0.085
-196.275	296.757	0.075	-0.137
-195.260	-141.873	0.339	-0.034
-194.246	800.000	-0.154	0.543
-193.231	-81.559	-0.024	0.008
-192.217	-72.904	-0.227	-0.083
-191.202	-200.000	-0.353	-0.000
-190.187	-134.866	0.211	-0.026
-189.173	-200.000	0.021	0.327
-188.158	-200.000	-0.002	-0.373
-187.144	-4.976	-0.153	-0.105
-186.129	578.322	-0.154	0.376
-185.114	-95.677	-0.469	0.125
-184.100	6.398	0.299	0.221
-183.085	-200.000	-0.004	0.260
-182.071	-45.366	-0.126	-0.063
-181.056	377.574	-0.021	-0.043
-180.042	-200.000	0.029	0.257
-179.027	-136.238	0.211	0.025
-178.012	-122.792	-0.374	-0.060
-176.998	-200.000	-0.013	0.119
-175.983	-26.521	-0.110	0.064
-174.969	46.470	-0.087	-0.081
-173.954	71.878	-0.111	0.115
-172.939	-47.631	0.195	0.094
-171.925	-200.000	0.019	-0.143
-170.910	-121.264	0.122	-0.020
-169.896	800.000	0.105	-0.293
-168.881	-122.534	-0.088	0.014
-167.866	800.000	0.090	0.262
-166.852	800.000	0.077	0.279
-165.837	-75.404	-0.310	0.110
-164.823	-131.502	0.271	-0.036
-163.808	25.896	0.259	0.215
-162.793	800.000	0.059	0.244
-161.779	-67.258	0.108	0.042
-160.764	36.852	0.110	-0.097
-159.750	-200.000	0.015	0.304
-158.735	-60.715	0.197	-0.083
-157.720	-182.684	0.138	0.003
-156.706	-71.193	0.256	0.096
-155.691	-92.035	-0.265	-0.075
-154.677	-200.000	-0.033	0.145
-153.662	74.969	0.047	0.049
-152.647	-85.586	0.035	0.011
-151.633	-200.000	-0.013	0.219
-150.618	-200.000	0.012	0.258
-149.604	-200.000	-0.040	-0.395
-148.589	800.000	-0.021	-0.079
-147.574	-115.071	0.362	-0.068
-146.560	-133.906	0.310	0.038
-145.545	650.392	0.059	0.150
-144.531	7.298	0.383	-0.285
-143.516	134.458	-0.173	-0.223
-142.502	-16.337	0.149	0.094
-141.487	16.609	-0.288	-0.227
-140.472	-142.019	-0.152	0.015
-139.458	352.871	0.063	0.124
-138.443	-130.102	0.394	0.054
-137.429	-143.919	-0.208	-0.019
-136.414	40.051	-0.208	0.186
-135.399	-98.242	-0.387	0.099
-134.385	-48.881	0.473	0.226
-133.370	-200.000	-0.013	0.280
-132.356	800.000	0.092	-0.294
-131.341	52.809	0.044	0.042
-130.326	-102.177	-0.047	0.011
-129.312	238.240	-0.218	0.360
-128.297	-1.402	-0.151	0.106
-127.283	39.623	0.046	-0.041
-126.268	43.278	0.134	-0.122
-125.253	-69.357	-0.472	-0.180
-124.239	668.478	0.104	0.268
-123.224	141.159	0.071	0.094
-122.210	231.909	-0.064	-0.105
-121.195	7.450	0.073	-0.054
-120.180	800.000	-0.051	-0.174
-119.166	54.572	0.036	-0.035
-118.151	-45.813	0.201	0.099
-117.137	-200.000	-0.018	-0.145
-116.122	181.241	0.175	-0.256
-115.107	148.652	0.189	-0.254
-114.093	-116.555	-0.466	-0.085
-113.078	179.056	-0.027	-0.040
-112.064	85.344	-0.070	0.077
-111.049	-159.629	0.308	-0.017
-110.034	28.178	-0.297	0.249
-109.020	85.180	0.081	0.088
-108.005	-38.205	-0.209	0.110
-106.991	-165.436	-0.105	0.005
-105.976	121.233	-0.154	0.191
-104.962	235.457	-0.046	-0.076
-103.947	3.829	-0.192	-0.139
-102.932	-69.897	-0.079	-0.030
-101.918	-25.667	0.010	0.006
-100.903	92.534	-0.077	-0.086
-99.889	-184.886	0.317	-0.005
-98.874	-77.414	0.138	0.048
-97.859	290.111	-0.110	0.198
-96.845	-200.000	0.003	-0.231
-95.830	-48.706	-0.206	-0.098
-94.816	-67.190	0.106	0.041
-93.801	-200.000	-0.080	0.392
-92.786	525.951	0.149	0.348
-91.772	-116.522	-0.185	0.034
-90.757	15.550	0.289	0.226
-89.743	-200.000	0.050	-0.300
-88.728	-200.000	0.017	-0.099
-87.713	800.000	0.036	0.116
-86.699	-130.567	-0.314	0.042
-85.684	-23.708	0.315	-0.187
-84.670	-54.029	0.188	0.085
-83.655	800.000	0.072	-0.200
-82.640	-200.000	0.337	-0.000
-81.626	-200.000	-0.037	0.363
-80.611	516.127	-0.025	0.059
-79.597	-200.000	0.019	-0.098
-78.582	-200.000	-0.019	-0.119
-77.567	-85.733	0.264	0.081
-76.553	-27.595	-0.197	-0.114
-75.538	-180.555	0.157	-0.003
-74.524	-119.524	-0.260	0.045
-73.509	-10.165	-0.093	-0.062
-72.494	24.279	0.178	0.146
-71.480	-32.940	0.209	0.115
-70.465	-200.000	-0.031	-0.185
-69.451	67.423	-0.169	0.172
-68.436	74.605	-0.156	0.163
-67.422	156.544	0.200	-0.275
-66.407	-200.000	0.018	0.288
-65.392	-130.742	0.151	-0.020
-64.378	-63.868	-0.247	-0.100
-63.363	-174.283	0.379	0.011
-62.349	800.000	-0.130	-0.384
-61.334	129.476	-0.792	-1.005
-60.319	44.424	0.417	0.380
-59.305	-200.000	-0.186	-0.827
-58.290	91.645	0.707	0.789
-57.276	800.000	0.448	1.552
-56.261	-200.000	90.254	520.183
-55.246	484.117	1385.308	3129.405
-54.232	148.204	2596.877	3479.148
-53.217	111.735	2202.453	2639.059
-52.203	47.023	1650.396	1523.858
-51.188	39.372	1382.565	1228.984
-50.173	36.111	1339.379	1170.782
-49.159	55.861	1385.653	1333.643
-48.144	60.409	1403.815	1379.139
-47.130	39.988	1359.819	1212.356
-46.115	36.198	1342.111	1173.511
-45.100	36.000	1337.617	1168.339
-44.086	35.948	1334.944	1165.639
-43.071	35.798	1333.099	1163.074
-42.057	35.849	1330.458	1161.030
-41.042	35.932	1329.094	1160.300
-40.027	35.916	1326.710	1158.074
-39.013	35.891	1325.318	1156.662
-37.998	35.914	1323.377	1155.061
-36.984	35.909	1321.816	1153.621
-35.969	35.973	1319.537	1151.973
-34.954	36.117	1317.473	1150.983
-33.940	36.018	1316.777	1149.736
-32.925	36.121	1315.076	1148.820
-31.911	36.174	1313.796	1147.973
-30.896	36.202	1312.124	1146.634
-29.881	36.065	1311.107	1144.883
-28.867	36.122	1309.349	1143.644
-27.852	36.143	1307.754	1142.329
-26.838	36.116	1306.548	1141.073
-25.823	36.120	1304.984	1139.683
-24.809	36.159	1303.289	1138.385
-23.794	36.029	1302.372	1136.772
-22.779	36.143	1300.691	1135.931
-21.765	36.099	1299.294	1134.412
-20.750	36.016	1298.051	1132.790
-19.736	35.998	1296.304	1131.113
-18.721	35.984	1295.696	1130.458
-17.706	35.865	1294.510	1128.682
-16.692	35.910	1293.093	1127.662
-15.677	36.011	1291.709	1127.002
-14.663	35.964	1290.480	1125.612
-13.648	36.030	1289.680	1125.256
-12.633	35.951	1288.795	1123.977
-11.619	35.983	1287.438	1122.935
-10.604	36.039	1286.501	1122.402
-9.590	35.846	1285.773	1120.599
-8.575	35.869	1285.035	1120.045
-7.560	35.852	1284.422	1119.365
-6.546	35.787	1283.612	1118.234
-5.531	35.824	1282.834	1117.732
-4.517	35.886	1281.647	1117.012
-3.502	35.949	1280.516	1116.344
-2.487	36.031	1279.048	1115.496
-1.473	35.950	1275.624	1112.001
-0.458	34.829	1260.554	1092.418
0.556	31.404	1242.516	1054.555
1.571	27.617	1247.766	1037.415
2.586	26.834	1262.215	1044.824
3.600	25.816	1251.275	1029.859
4.615	18.554	1174.995	927.850
5.629	7.174	1093.905	806.105
6.644	2.268	1071.347	764.910
7.659	1.819	1068.647	760.669
8.673	1.629	1067.478	758.823
9.688	1.626	1065.855	757.590
10.702	1.878	1064.732	757.979
11.717	8.516	1074.718	798.250
12.731	19.259	1090.656	864.177
13.746	24.547	1096.273	895.131
14.761	25.119	1097.150	898.636
15.775	25.040	1096.484	897.617
16.790	24.870	1095.439	895.830
17.804	24.904	1094.531	895.179
18.819	24.977	1094.391	895.351
19.834	25.031	1094.186	895.373
20.848	25.030	1093.754	894.935
21.863	25.164	1092.763	894.712
22.877	25.051	1092.763	894.069
23.892	24.937	1091.740	892.583
24.907	24.976	1091.169	892.233
25.921	24.970	1090.269	891.391
26.936	24.977	1088.743	890.097
27.950	24.993	1086.828	888.535
28.965	24.794	1084.783	885.799
29.980	25.012	1083.361	885.637
30.994	25.070	1082.763	885.355
32.009	25.111	1081.795	884.684
33.023	24.905	1080.105	882.212
34.038	24.996	1079.863	882.382
35.053	25.081	1079.516	882.440
36.067	25.078	1078.141	881.222
37.082	25.115	1077.804	881.051
38.096	25.226	1077.341	881.142
39.111	25.291	1076.129	880.388
40.126	25.068	1075.336	878.572
41.140	24.833	1072.886	875.345
42.155	24.648	1071.905	873.560
43.169	24.653	1070.962	872.741
44.184	24.591	1070.190	871.732
45.199	24.620	1069.033	870.854
46.213	24.711	1068.185	870.528
47.228	24.803	1067.338	870.207
48.242	24.860	1066.666	869.862
49.257	24.940	1066.012	869.637
50.271	25.019	1065.172	869.259
51.286	25.017	1064.371	868.517
52.301	25.058	1063.657	868.055
53.315	25.054	1062.028	866.632
54.330	24.967	1061.448	865.661
55.344	24.956	1060.653	864.883
56.359	24.969	1059.547	863.969
57.374	24.732	1058.958	862.266
58.388	24.813	1057.923	861.738
59.403	24.696	1057.349	860.632
60.417	24.598	1056.233	859.177
61.432	24.538	1056.088	858.696
62.447	24.783	1054.814	858.761
63.461	24.703	1054.530	858.069
64.476	24.808	1052.729	857.031
65.490	24.718	1052.246	856.130
66.505	24.776	1051.295	855.556
67.520	24.704	1051.161	855.027
68.534	24.534	1049.736	852.980
69.549	24.250	1048.790	850.781
70.563	24.145	1048.237	849.755
71.578	24.226	1047.011	849.073
72.593	24.041	1046.120	847.394
73.607	24.200	1045.774	847.798
74.622	24.523	1045.616	849.130
75.636	24.540	1044.539	848.263
76.651	24.378	1043.591	846.650
77.666	24.425	1042.514	845.923
78.680	24.445	1042.156	845.651
79.695	24.434	1042.124	845.499
80.709	24.522	1041.053	844.970
81.724	24.548	1040.311	844.417
82.739	24.754	1039.318	844.510
83.753	25.070	1038.703	845.428
84.768	25.379	1038.150	846.358
85.782	25.430	1037.696	846.153
86.797	25.391	1036.232	844.699
87.812	25.118	1035.730	842.935
88.826	25.215	1034.476	842.295
89.841	25.449	1033.539	842.552
90.855	25.383	1032.788	841.560
91.870	25.243	1031.725	839.959
92.884	25.121	1030.673	838.460
93.899	25.163	1029.358	837.514
94.914	25.431	1028.468	837.962
95.928	25.146	1027.582	835.837
96.943	24.857	1026.425	833.479
97.957	24.638	1025.381	831.539
98.972	24.441	1024.650	829.955
99.987	24.734	1023.589	830.385
101.001	24.899	1023.074	830.657
102.016	24.969	1022.062	830.086
103.030	24.770	1021.588	828.710
104.045	24.677	1020.175	827.060
105.060	24.652	1019.006	825.922
106.074	24.665	1018.719	825.677
107.089	25.078	1018.314	827.181
108.103	24.933	1017.267	825.590
109.118	24.678	1016.127	823.418
110.133	24.620	1015.102	822.248
111.147	24.405	1013.694	820.044
112.162	24.381	1012.532	818.924
113.176	24.709	1012.321	820.184
114.191	24.619	1011.484	819.019
115.206	24.217	1010.419	816.247
116.220	24.132	1009.743	815.236
117.235	24.474	1008.450	815.683
118.249	24.393	1007.536	814.504
119.264	24.156	1007.227	813.102
120.279	24.368	1006.508	813.415
121.293	24.484	1005.626	813.156
122.308	24.489	1004.861	812.491
123.322	24.281	1003.517	810.384
124.337	24.270	1002.059	809.088
125.352	23.846	1000.454	805.799
126.366	23.642	999.605	804.120
127.381	24.357	1000.134	807.713
128.395	24.905	999.342	809.480
129.410	25.078	998.399	809.428
130.424	25.027	997.483	808.381
131.439	24.973	996.801	807.512
132.454	24.978	995.742	806.609
133.468	24.804	995.237	805.344
134.483	25.013	994.159	805.337
135.497	25.239	993.076	805.404
136.512	25.145	992.795	804.685
137.527	25.115	991.969	803.808
138.541	25.287	991.097	803.803
139.556	25.305	990.236	803.112
140.570	25.265	989.334	802.131
141.585	25.204	988.636	801.221
142.600	25.349	986.782	800.298
143.614	25.449	986.604	800.527
144.629	25.418	986.484	800.220
145.643	25.381	984.538	798.406
146.658	25.110	983.529	796.313
147.673	25.058	982.164	794.905
148.687	25.014	981.276	793.921
149.702	24.853	980.456	792.476
150.716	24.966	979.427	792.076
151.731	24.976	979.056	791.746
152.746	25.270	978.473	792.505
153.760	25.435	977.475	792.355
154.775	25.521	976.673	792.013
155.789	25.416	975.990	790.927
156.804	25.161	975.176	789.076
157.819	25.343	974.266	789.069
158.833	25.478	973.634	789.079
159.848	25.497	972.596	788.254
160.862	25.225	971.455	786.067
161.877	25.311	970.579	785.663
162.892	25.369	969.568	785.030
163.906	25.227	968.392	783.389
164.921	25.235	967.518	782.650
165.935	25.290	966.571	782.051
166.950	25.368	965.469	781.432
167.964	25.307	964.857	780.603
168.979	25.215	964.176	779.582
169.994	25.181	963.170	778.551
171.008	25.367	962.763	778.962
172.023	25.357	961.856	778.114
173.037	25.120	960.608	776.012
174.052	25.064	959.489	774.796
175.067	24.936	959.155	773.904
176.081	25.097	958.899	774.326
177.096	25.022	958.111	773.295
178.110	24.663	956.817	770.635
179.125	24.554	956.449	769.799
180.140	24.732	955.724	769.918
181.154	24.917	955.091	770.134
182.169	25.204	955.036	771.254
183.183	25.372	954.685	771.628
184.198	25.236	953.683	770.166
185.213	25.241	953.290	769.799
186.227	25.380	952.328	769.549
187.242	25.429	951.440	768.973
188.256	25.367	951.118	768.382
189.271	25.376	950.394	767.768
190.286	25.084	949.173	765.463
191.300	24.394	947.864	761.398
192.315	23.637	945.968	756.584
193.329	23.662	945.557	756.294
194.344	24.445	946.128	760.020
195.359	25.189	946.385	763.327
196.373	25.257	945.640	762.949
197.388	25.133	945.053	761.878
198.402	25.136	944.518	761.394
199.417	25.188	943.558	760.772
200.432	24.780	942.875	758.426
201.446	24.731	942.245	757.643
202.461	24.980	941.083	757.696
203.475	24.001	939.448	752.174
204.490	23.231	938.196	747.857
205.504	24.134	938.628	751.947
206.519	24.816	938.420	754.593
207.534	24.830	938.346	754.526
208.548	25.343	938.216	756.515
209.563	25.019	937.073	754.162
210.577	24.925	936.750	753.443
211.592	25.513	936.119	755.338
212.607	25.398	935.242	754.084
213.621	25.310	934.646	753.164
214.636	25.490	933.821	753.189
215.650	25.267	933.269	751.743
216.665	25.363	932.707	751.625
217.680	25.368	931.924	750.950
218.694	25.024	930.371	748.196
219.709	24.897	929.661	747.026
220.723	25.046	929.639	747.566
221.738	25.195	928.775	747.425
222.753	25.275	927.992	747.061
223.767	25.368	927.509	746.995
224.782	25.445	927.522	747.259
225.796	25.437	927.010	746.744
226.811	24.918	925.335	743.177
227.826	24.232	924.206	739.361
228.840	24.445	923.618	739.706
229.855	24.496	922.710	739.125
230.869	24.101	921.872	736.754
231.884	24.400	922.264	738.240
232.899	25.168	921.855	741.024
233.913	25.170	921.035	740.307
234.928	25.124	920.239	739.411
235.942	24.958	919.835	738.338
236.957	24.824	918.966	737.020
237.972	24.888	918.287	736.675
238.986	24.783	918.105	736.033
240.001	25.030	916.789	735.925
241.015	25.018	916.483	735.567
242.030	25.282	916.121	736.294
243.045	25.177	916.115	735.795
244.059	25.320	915.583	735.887
245.074	25.074	914.522	733.962
246.088	24.863	913.491	732.206
247.103	25.051	912.851	732.396
248.117	25.660	913.115	735.033
249.132	25.934	912.788	735.825
250.147	25.895	912.250	735.164
251.161	26.137	911.377	735.383
252.176	26.090	911.483	735.212
253.190	26.083	910.620	734.421
254.205	26.274	910.183	734.780
255.220	26.188	909.783	734.042
256.234	26.021	908.845	732.543
257.249	25.847	908.269	731.311
258.263	26.049	907.281	731.269
259.278	26.149	906.729	731.164
260.293	26.091	906.427	730.619
261.307	26.008	905.608	729.560
262.322	25.976	904.414	728.403
263.336	25.066	902.779	723.351
264.351	24.186	900.618	718.011
265.366	24.215	900.642	718.086
266.380	25.367	901.474	723.328
267.395	25.578	901.433	724.078
268.409	25.601	900.625	723.460
269.424	25.831	899.833	723.684
270.439	25.867	899.446	723.450
271.453	26.025	898.715	723.435
272.468	26.058	898.263	723.138
273.482	26.161	897.558	722.920
274.497	25.745	896.411	720.266
275.512	25.349	895.651	718.010
276.526	25.790	895.952	719.951
277.541	26.083	895.484	720.684
278.555	25.714	894.926	718.696
279.570	25.620	893.623	717.210
280.585	25.721	893.272	717.270
281.599	25.753	892.450	716.672
282.614	25.068	891.086	712.791
283.628	25.204	890.691	712.952
284.643	25.440	890.476	713.656
285.657	25.043	889.338	711.104
286.672	24.898	888.380	709.699
287.687	25.306	888.491	711.341
288.701	25.415	887.960	711.287
289.716	25.105	886.814	709.080
290.730	25.182	885.912	708.600
291.745	24.847	885.033	706.510
292.760	25.112	885.161	707.597
293.774	26.069	885.623	711.683
294.789	26.381	885.737	712.941
295.803	26.439	884.761	712.320
296.818	26.504	883.932	711.845
297.833	26.094	882.699	709.179
298.847	25.831	881.892	707.435
299.862	26.165	882.043	708.806
300.876	26.372	881.702	709.282
301.891	26.389	880.743	708.515
302.906	25.833	880.185	705.822
303.920	26.034	880.085	706.470
304.935	26.503	879.455	707.735
305.949	26.335	878.553	706.289
306.964	26.148	877.753	704.856
307.979	26.235	877.547	704.966
308.993	26.468	876.978	705.356
310.008	26.632	876.344	705.423
311.022	26.300	875.757	703.596
312.037	26.079	875.117	702.157
313.052	25.804	873.963	700.103
314.066	25.004	872.700	695.921
315.081	24.496	872.269	693.543
316.095	25.402	872.672	697.322
317.110	26.045	872.136	699.324
318.125	25.115	870.905	694.674
319.139	24.195	869.078	689.598
320.154	24.062	868.803	688.801
321.168	24.942	869.448	692.658
322.183	25.758	869.507	695.800
323.197	25.807	869.261	695.728
324.212	26.208	868.433	696.554
325.227	26.172	867.882	695.909
326.241	26.033	867.119	694.702
327.256	26.025	866.487	694.101
328.270	25.857	865.954	692.969
329.285	25.706	864.811	691.412
330.300	25.457	864.579	690.211
331.314	25.708	864.168	690.784
332.329	26.117	863.932	692.103
333.343	26.254	863.774	692.442
334.358	26.338	863.185	692.230
335.373	26.237	863.244	691.827
336.387	26.646	862.937	693.087
337.402	26.669	863.022	693.183
338.416	26.657	862.286	692.482
339.431	26.811	861.743	692.575
340.446	26.938	861.746	693.000
341.460	26.916	860.772	692.073
342.475	26.681	860.321	690.751
343.489	26.603	860.004	690.138
344.504	26.990	859.639	691.257
345.519	27.152	859.564	691.755
346.533	27.305	858.671	691.556
347.548	27.163	858.372	690.715
348.562	27.037	857.839	689.745
349.577	26.951	857.279	688.908
350.592	27.004	856.356	688.304
351.606	26.990	855.637	687.613
352.621	26.776	854.878	686.134
353.635	26.821	853.987	685.529
354.650	26.126	852.904	681.971
355.665	25.176	851.235	676.992
356.679	25.574	851.090	678.320
357.694	26.129	850.495	679.879
358.708	26.042	850.101	679.174
359.723	26.424	850.080	680.535
360.738	26.676	849.739	681.150
361.752	26.802	848.920	680.906
362.767	27.034	848.889	681.692
363.781	27.322	848.690	682.552
364.796	27.458	848.126	682.549
365.810	27.391	847.715	681.906
366.825	27.476	847.342	681.862
367.840	27.191	846.302	679.903
368.854	26.807	845.545	677.797
369.869	26.750	845.403	677.410
370.883	26.817	844.935	677.226
371.898	26.720	844.656	676.582
372.913	26.810	844.395	676.648
373.927	26.902	843.588	676.283
374.942	26.918	843.131	675.916
375.956	27.256	842.907	676.937
376.971	27.398	842.443	677.033
377.986	27.472	841.908	676.815
379.000	27.453	840.942	675.912
380.015	27.304	840.561	674.991
381.029	27.313	839.921	674.451
382.044	27.344	839.951	674.531
383.059	27.505	839.062	674.353
384.073	27.546	838.280	673.817
385.088	27.402	837.776	672.819
386.102	27.070	837.164	671.041
387.117	27.092	836.197	670.287
388.132	26.755	835.414	668.359
389.146	26.220	834.435	665.546
390.161	26.788	834.282	667.457
391.175	27.130	834.201	668.591
392.190	26.738	832.921	666.068
393.205	25.544	830.684	659.842
394.219	23.910	829.042	652.488
395.234	23.702	829.061	651.680
396.248	25.424	830.533	659.105
397.263	26.888	831.343	665.060
398.278	26.896	831.074	664.815
399.292	26.629	830.297	663.157
400.307	26.779	829.129	662.714
401.321	26.739	829.010	662.413
402.336	27.211	828.687	663.821
403.350	27.650	829.178	665.760
404.365	27.944	828.808	666.476
405.380	28.153	828.521	666.949
406.394	28.259	827.999	666.853
407.409	28.114	827.398	665.786
408.423	28.038	826.908	665.055
409.438	28.113	826.777	665.163
410.453	28.101	826.331	664.702
411.467	28.093	825.848	664.226
412.482	28.176	825.098	663.866
413.496	28.159	825.038	663.697
414.511	28.281	824.353	663.528
415.526	28.228	823.895	662.909
416.540	28.040	823.163	661.580
417.555	27.845	822.484	660.273
418.569	27.858	822.401	660.195
419.584	27.702	821.908	659.175
420.599	27.570	821.230	658.099
421.613	103.334	1281.356	1431.109
422.628	89.356	1348.411	1431.248
