DTS Sentinel unit serial number:	SN413079Multiplexer serial number:	ORYXHardware model number:	OX4-SRSoftware version number:	ORYX F/W v4.00 Oryx Data Collector v3.7.2.0data status	okinstallation	princeton_trtdifferential loss correction	single-endedforward channel	channel 1reverse channel	N/Adate	2019/09/16time	04:34:35forward acquisition time	60.00reverse acquisition time	0.00gamma	496.2192k internal	0.2333k external	0.2333temperature offset calibration	0.9983default loss term (dB/km)	0.3790temperature slope calibration	1.0000multiplexer offset coefficient	1.0000multiplexer slope coefficient	1.0000fibre end	0.00T internal ref (°C)	27.25T ext. ref 1 (°C)	10.87T ext. ref 2 (°C)	21.36length (m)	temperature (°C)	Stokes	anti-Stokes-747.200	-200.000	0.045	0.279
-746.185	-200.000	-0.067	0.304
-745.171	23.343	0.265	-0.219
-744.156	-200.000	-0.013	0.518
-743.142	800.000	-0.064	0.274
-742.127	-175.999	-0.250	0.007
-741.112	3.987	-0.117	0.086
-740.098	45.262	-0.258	0.239
-739.083	369.743	-0.048	-0.098
-738.069	-152.289	-0.117	-0.008
-737.054	-57.696	0.187	-0.082
-736.039	-97.181	-0.398	-0.104
-735.025	260.899	0.130	0.226
-734.010	224.906	-0.243	-0.396
-732.996	800.000	0.053	-0.175
-731.981	58.918	0.009	-0.009
-730.966	-200.000	0.009	-0.266
-729.952	-32.862	-0.128	-0.072
-728.937	800.000	0.054	-0.208
-727.923	-61.367	0.265	-0.112
-726.908	324.521	-0.097	-0.185
-725.894	200.303	0.159	-0.245
-724.879	465.560	-0.099	-0.223
-723.864	-21.817	-0.187	-0.114
-722.850	341.116	-0.053	0.104
-721.835	-59.459	-0.286	-0.123
-720.821	-3.491	-0.294	0.206
-719.806	227.620	0.159	0.260
-718.791	800.000	-0.011	-0.031
-717.777	-155.992	-0.107	-0.007
-716.762	61.199	-0.097	0.097
-715.748	321.397	-0.187	0.356
-714.733	-200.000	0.006	-0.198
-713.718	185.011	-0.281	-0.419
-712.704	18.108	0.115	-0.092
-711.689	-89.394	0.079	0.023
-710.675	-126.407	0.231	-0.034
-709.660	-8.438	0.112	0.076
-708.645	84.535	-0.085	0.093
-707.631	-200.000	-0.016	0.124
-706.616	-43.202	-0.019	-0.009
-705.602	-29.215	0.102	0.059
-704.587	645.361	-0.132	-0.338
-703.572	-56.974	0.159	0.070
-702.558	185.343	-0.211	-0.314
-701.543	800.000	-0.120	-0.389
-700.529	800.000	-0.065	-0.187
-699.514	-117.529	0.304	0.055
-698.499	-154.076	-0.304	-0.021
-697.485	342.592	0.053	-0.103
-696.470	-180.847	-0.171	-0.003
-695.456	-6.203	0.360	-0.247
-694.441	26.155	-0.162	0.136
-693.426	-83.857	0.049	-0.016
-692.412	261.584	0.225	0.391
-691.397	23.781	0.246	0.203
-690.383	-123.316	0.124	-0.020
-689.368	105.472	0.048	0.057
-688.354	310.478	-0.075	0.141
-687.339	-117.041	0.123	0.023
-686.324	58.287	0.134	-0.132
-685.310	42.957	0.189	-0.173
-684.295	22.115	0.244	-0.200
-683.281	-78.186	-0.367	-0.127
-682.266	168.039	-0.149	-0.213
-681.251	-200.000	0.009	0.126
-680.237	-71.799	0.334	0.125
-679.222	-136.325	0.237	-0.028
-678.208	103.804	-0.105	0.124
-677.193	-141.713	-0.287	0.029
-676.178	-74.747	0.120	0.043
-675.164	-177.872	0.148	0.004
-674.149	-65.569	0.159	-0.064
-673.135	393.751	-0.124	0.258
-672.120	554.825	0.070	0.168
-671.105	-65.157	-0.165	0.067
-670.091	364.723	0.043	0.086
-669.076	762.885	0.086	-0.235
-668.062	-148.552	-0.144	-0.012
-667.047	437.189	-0.117	-0.255
-666.032	514.158	0.066	0.154
-665.018	565.232	-0.115	0.278
-664.003	-200.000	-0.042	-0.355
-662.989	-149.254	-0.226	0.018
-661.974	746.918	0.089	-0.239
-660.959	-181.871	-0.379	0.007
-659.945	-42.132	-0.312	0.160
-658.930	125.014	-0.140	-0.177
-657.916	36.766	-0.243	0.215
-656.901	42.675	0.219	0.200
-655.886	-173.638	0.052	-0.002
-654.872	644.827	0.085	0.217
-653.857	-17.507	-0.120	-0.076
-652.843	-200.000	-0.072	-0.355
-651.828	-200.000	0.017	0.144
-650.814	-200.000	-0.018	-0.119
-649.799	-200.000	0.025	-0.112
-648.784	-65.874	-0.232	0.093
-647.770	350.144	-0.009	0.019
-646.755	800.000	-0.110	-0.408
-645.741	341.885	-0.117	-0.229
-644.726	800.000	-0.037	0.122
-643.711	-24.618	0.179	0.107
-642.697	-105.154	0.044	0.010
-641.682	-94.181	0.174	0.048
-640.668	13.427	-0.130	0.101
-639.653	284.724	-0.043	-0.078
-638.638	800.000	0.071	0.253
-637.624	-119.084	-0.192	-0.034
-636.609	460.924	-0.107	-0.238
-635.595	-102.154	-0.234	-0.056
-634.580	57.205	0.140	-0.137
-633.565	-194.964	0.048	0.000
-632.551	800.000	0.065	-0.271
-631.536	-200.000	-0.021	-0.398
-630.522	-43.269	0.246	0.125
-629.507	31.991	0.217	-0.187
-628.492	-59.682	0.233	-0.100
-627.478	-124.785	0.158	-0.024
-626.463	52.390	-0.283	0.270
-625.449	168.126	0.156	-0.222
-624.434	41.995	0.291	0.264
-623.419	36.452	0.035	-0.031
-622.405	784.136	-0.026	-0.072
-621.390	-200.000	-0.097	-0.427
-620.376	-12.850	0.102	0.067
-619.361	-117.686	-0.044	0.008
-618.346	227.256	0.148	-0.241
-617.332	305.424	0.079	-0.147
-616.317	447.535	0.058	-0.128
-615.303	-68.297	0.330	-0.128
-614.288	-115.130	-0.126	0.024
-613.273	-200.000	-0.013	-0.238
-612.259	-43.043	-0.413	-0.209
-611.244	238.288	-0.196	-0.326
-610.230	145.512	0.166	-0.222
-609.215	434.772	0.128	-0.279
-608.201	-160.747	-0.221	0.012
-607.186	40.448	-0.371	-0.334
-606.171	-17.715	-0.085	-0.053
-605.157	-116.071	0.177	0.033
-604.142	-200.000	0.057	-0.292
-603.128	56.363	-0.124	-0.121
-602.113	-200.000	0.004	-0.119
-601.098	234.367	-0.054	-0.088
-600.084	800.000	-0.069	0.202
-599.069	-200.000	0.024	0.302
-598.055	11.465	0.127	-0.097
-597.040	229.648	-0.142	-0.233
-596.025	292.756	-0.107	-0.195
-595.011	-47.056	0.087	0.043
-593.996	539.781	0.059	-0.140
-592.982	29.001	0.091	-0.077
-591.967	301.451	-0.053	-0.097
-590.952	800.000	-0.059	-0.214
-589.938	50.163	-0.244	0.230
-588.923	-35.693	-0.128	0.069
-587.909	341.001	0.048	-0.094
-586.894	800.000	-0.138	0.572
-585.879	-200.000	0.007	-0.113
-584.865	-131.761	-0.236	0.031
-583.850	-200.000	0.038	0.188
-582.836	800.000	0.059	-0.183
-581.821	201.695	0.088	0.136
-580.806	-95.124	0.262	0.071
-579.792	-84.606	0.229	0.072
-578.777	800.000	0.035	0.114
-577.763	162.181	0.096	0.134
-576.748	-4.307	-0.160	0.111
-575.733	-31.716	-0.434	0.243
-574.719	800.000	-0.096	-0.270
-573.704	-104.502	-0.041	-0.009
-572.690	800.000	-0.041	-0.130
-571.675	669.236	0.132	-0.340
-570.661	-200.000	-0.012	0.187
-569.646	187.872	-0.076	-0.113
-568.631	35.531	-0.170	0.149
-567.617	261.749	0.069	0.119
-566.602	767.029	0.113	0.307
-565.588	-200.000	0.023	0.170
-564.573	473.599	-0.028	-0.062
-563.558	800.000	0.028	-0.104
-562.544	566.275	0.055	-0.134
-561.529	171.415	-0.222	0.319
-560.515	29.922	0.193	0.164
-559.500	-200.000	0.007	0.062
-558.485	-129.683	0.247	-0.034
-557.471	-37.712	0.146	0.077
-556.456	-104.825	0.285	-0.065
-555.442	-200.000	0.006	-0.072
-554.427	503.590	-0.103	-0.238
-553.412	-173.554	-0.128	0.004
-552.398	-60.021	0.119	-0.051
-551.383	-87.631	-0.126	-0.038
-550.369	521.071	-0.132	0.308
-549.354	-200.000	-0.016	-0.193
-548.339	704.252	0.123	-0.325
-547.325	620.032	-0.048	0.121
-546.310	89.532	-0.170	0.189
-545.296	-200.000	0.048	-0.279
-544.281	-200.000	0.003	-0.304
-543.266	218.204	0.079	-0.126
-542.252	192.616	-0.095	-0.143
-541.237	-77.980	0.322	0.111
-540.223	-61.569	0.081	-0.034
-539.208	-200.000	-0.019	-0.188
-538.193	248.399	-0.111	-0.187
-537.179	12.883	-0.104	-0.081
-536.164	-25.007	-0.358	-0.212
-535.150	800.000	0.031	0.091
-534.135	-54.717	0.167	0.075
-533.121	20.681	-0.179	-0.144
-532.106	-5.196	0.222	-0.152
-531.091	800.000	0.056	-0.229
-530.077	800.000	-0.047	0.158
-529.062	492.605	0.081	0.184
-528.048	-38.019	0.173	0.092
-527.033	-115.829	0.165	0.031
-526.018	61.694	-0.068	-0.068
-525.004	261.169	0.208	-0.358
-523.989	800.000	0.037	-0.156
-522.975	-81.950	0.202	0.066
-521.960	-200.000	-0.004	0.094
-520.945	33.749	-0.085	-0.074
-519.931	-64.236	-0.142	0.058
-518.916	-154.715	-0.101	-0.007
-517.902	-200.000	0.010	-0.229
-516.887	-121.960	0.457	0.075
-515.872	18.861	0.184	-0.147
-514.858	-8.636	0.136	-0.091
-513.843	268.967	-0.151	0.264
-512.829	800.000	0.015	-0.059
-511.814	236.659	0.115	-0.189
-510.799	-12.937	-0.099	-0.064
-509.785	119.102	0.125	-0.154
-508.770	83.885	-0.154	-0.167
-507.756	-40.067	0.206	-0.107
-506.741	53.992	0.221	0.212
-505.726	6.097	-0.143	-0.106
-504.712	-200.000	0.022	0.098
-503.697	-200.000	0.034	0.284
-502.683	326.918	0.117	-0.223
-501.668	-31.051	0.196	0.110
-500.653	10.260	0.130	0.098
-499.639	354.271	0.055	-0.109
-498.624	120.321	0.107	-0.132
-497.610	-200.000	-0.012	-0.068
-496.595	-164.306	-0.246	0.011
-495.581	-200.000	0.062	0.283
-494.566	30.217	0.191	0.162
-493.551	73.365	-0.256	0.267
-492.537	800.000	0.026	0.089
-491.522	59.447	0.125	0.122
-490.508	309.995	-0.056	0.104
-489.493	-1.363	0.074	0.052
-488.478	-101.462	0.181	0.044
-487.464	139.004	-0.217	0.285
-486.449	118.784	0.126	0.155
-485.435	64.318	-0.210	-0.210
-484.420	50.245	-0.351	-0.330
-483.405	-44.205	0.120	-0.060
-482.391	-32.298	0.189	0.105
-481.376	-167.935	-0.051	0.002
-480.362	520.437	-0.081	-0.188
-479.347	-77.399	0.210	-0.072
-478.332	-90.433	-0.069	-0.020
-477.318	-5.233	-0.058	-0.040
-476.303	46.186	0.133	0.122
-475.289	-46.999	0.127	-0.062
-474.274	-58.955	-0.106	0.046
-473.259	200.190	-0.035	0.053
-472.245	-62.281	0.427	0.177
-471.230	-151.643	-0.393	0.029
-470.216	128.166	-0.142	-0.179
-469.201	7.720	-0.220	-0.164
-468.186	576.552	0.010	0.024
-467.172	-74.009	-0.309	-0.112
-466.157	-140.990	0.295	0.030
-465.143	-200.000	-0.060	0.272
-464.128	-200.000	0.031	0.140
-463.113	-200.000	-0.008	-0.066
-462.099	-200.000	0.004	0.034
-461.084	-71.700	0.141	0.052
-460.070	-200.000	0.027	0.245
-459.055	800.000	-0.058	-0.207
-458.040	-200.000	0.006	0.064
-457.026	183.628	-0.062	-0.091
-456.011	-158.729	-0.325	0.019
-454.997	75.444	0.307	0.322
-453.982	50.057	-0.121	-0.113
-452.968	-134.165	-0.343	-0.042
-451.953	124.122	0.013	0.016
-450.938	-5.845	0.178	-0.121
-449.924	140.963	0.101	-0.133
-448.909	126.628	0.130	-0.163
-447.895	110.509	-0.194	-0.232
-446.880	-69.044	-0.388	0.149
-445.865	39.602	0.301	0.268
-444.851	-200.000	-0.031	-0.169
-443.836	561.825	0.070	-0.168
-442.822	800.000	-0.082	0.295
-441.807	11.785	0.164	0.125
-440.792	800.000	0.043	0.143
-439.778	-74.939	-0.100	-0.035
-438.763	1.823	0.314	0.225
-437.749	1.836	0.190	-0.136
-436.734	-110.790	0.226	-0.046
-435.719	-35.162	-0.070	0.038
-434.705	179.701	-0.112	0.163
-433.690	-72.362	-0.023	-0.008
-432.676	49.017	0.154	0.144
-431.661	-200.000	0.018	-0.203
-430.646	103.126	-0.144	0.168
-429.632	-143.339	-0.173	0.016
-428.617	-119.688	0.171	-0.029
-427.603	800.000	0.057	0.183
-426.588	131.297	-0.257	0.328
-425.573	12.367	-0.183	0.140
-424.559	18.528	0.277	-0.220
-423.544	52.076	-0.196	-0.186
-422.530	-89.938	-0.133	0.038
-421.515	-88.935	-0.230	-0.068
-420.500	2.843	-0.205	0.148
-419.486	-121.577	0.195	0.032
-418.471	2.660	-0.189	0.136
-417.457	289.228	0.055	0.098
-416.442	-200.000	0.047	0.362
-415.428	217.569	0.030	-0.048
-414.413	-200.000	-0.001	-0.104
-413.398	800.000	-0.038	0.140
-412.384	800.000	-0.034	-0.125
-411.369	-126.913	0.198	0.029
-410.355	309.661	0.134	-0.249
-409.340	343.540	0.094	0.182
-408.325	-117.655	-0.110	-0.020
-407.311	478.228	-0.095	0.214
-406.296	129.979	0.323	0.410
-405.282	-159.910	-0.191	-0.010
-404.267	-200.000	0.026	0.396
-403.252	250.756	-0.073	-0.123
-402.238	-49.869	0.283	-0.133
-401.223	-76.209	-0.315	-0.110
-400.209	281.576	0.086	-0.152
-399.194	62.334	-0.159	-0.157
-398.179	-194.427	-0.308	-0.002
-397.165	-165.738	-0.384	0.016
-396.150	304.213	0.203	0.374
-395.136	800.000	-0.040	-0.169
-394.121	-52.360	0.179	-0.082
-393.106	-200.000	-0.014	-0.077
-392.092	-62.536	-0.202	-0.083
-391.077	139.444	0.426	-0.557
-390.063	272.082	-0.052	-0.090
-389.048	-142.629	-0.251	0.024
-388.033	-200.000	-0.034	-0.176
-387.019	-89.580	-0.149	0.043
-386.004	-200.000	-0.013	0.190
-384.990	-200.000	-0.020	-0.117
-383.975	396.071	0.172	0.357
-382.960	-79.612	0.203	0.068
-381.946	-200.000	-0.006	-0.044
-380.931	175.293	-0.071	0.102
-379.917	127.368	0.046	-0.057
-378.902	-200.000	-0.011	-0.435
-377.888	800.000	0.012	0.047
-376.873	-58.631	-0.241	-0.104
-375.858	-52.694	-0.071	-0.033
-374.844	-68.097	-0.105	0.041
-373.829	-200.000	0.026	-0.146
-372.815	52.966	-0.182	0.172
-371.800	133.579	-0.108	0.139
-370.785	-85.605	0.489	-0.151
-369.771	-35.301	0.117	-0.063
-368.756	-80.729	-0.208	0.069
-367.742	-200.000	0.029	0.179
-366.727	92.792	0.153	-0.171
-365.712	-28.485	0.140	0.080
-364.698	-173.071	-0.097	0.003
-363.683	-150.553	0.431	0.033
-362.669	-127.739	0.064	0.009
-361.654	129.854	0.022	-0.028
-360.639	179.325	-0.193	0.280
-359.625	-93.356	-0.219	0.060
-358.610	800.000	0.121	-0.345
-357.596	-104.351	-0.139	0.032
-356.581	-200.000	-0.074	0.339
-355.566	247.347	0.199	-0.333
-354.552	-200.000	-0.002	0.323
-353.537	-200.000	-0.003	0.241
-352.523	479.292	-0.108	0.242
-351.508	-200.000	0.019	0.346
-350.493	-50.735	0.116	0.054
-349.479	339.014	-0.084	0.163
-348.464	-142.449	0.262	-0.026
-347.450	138.208	-0.131	-0.170
-346.435	-23.235	-0.443	-0.264
-345.420	-31.092	0.190	-0.106
-344.406	569.410	0.062	0.148
-343.391	200.768	0.104	0.159
-342.377	-200.000	-0.053	-0.250
-341.362	19.566	-0.157	-0.125
-340.348	46.997	-0.073	-0.067
-339.333	14.477	0.196	0.152
-338.318	800.000	0.044	0.185
-337.304	76.113	0.198	-0.207
-336.289	-45.328	0.016	0.008
-335.275	-110.031	0.213	0.044
-334.260	800.000	-0.026	-0.105
-333.245	77.150	0.159	-0.167
-332.231	800.000	-0.120	0.454
-331.216	270.101	-0.095	0.165
-330.202	-200.000	-0.007	0.088
-329.187	-120.114	-0.156	-0.026
-328.172	240.761	-0.168	-0.277
-327.158	556.560	-0.116	-0.276
-326.143	452.010	-0.045	-0.098
-325.129	-121.475	0.115	0.019
-324.114	544.124	0.123	0.291
-323.099	-200.000	-0.014	-0.338
-322.085	283.040	-0.065	-0.116
-321.070	-142.131	0.132	-0.013
-320.056	-74.801	0.300	-0.107
-319.041	-129.242	-0.208	-0.029
-318.026	-8.034	-0.138	0.092
-317.012	319.983	0.036	0.067
-315.997	-122.199	-0.520	-0.084
-314.983	800.000	0.071	-0.292
-313.968	-101.720	0.139	-0.033
-312.953	106.461	0.100	-0.117
-311.939	337.534	0.108	-0.208
-310.924	75.137	-0.185	0.192
-309.910	536.921	0.102	0.241
-308.895	-114.972	-0.207	0.039
-307.880	-14.737	-0.107	0.068
-306.866	-9.285	0.202	-0.133
-305.851	98.313	0.247	-0.281
-304.837	-60.046	0.130	0.055
-303.822	-89.891	-0.156	0.045
-302.807	-70.168	-0.082	-0.031
-301.793	214.404	0.136	-0.213
-300.778	189.127	0.088	-0.131
-299.764	-200.000	0.029	0.130
-298.749	-10.100	-0.246	0.161
-297.735	164.273	-0.110	-0.153
-296.720	800.000	0.052	-0.213
-295.705	-22.501	-0.309	0.185
-294.691	-66.347	0.029	-0.011
-293.676	302.264	0.116	0.212
-292.662	-137.556	-0.030	0.003
-291.647	20.610	0.152	-0.122
-290.632	-42.552	-0.159	0.080
-289.618	105.367	0.319	0.373
-288.603	-129.820	0.151	-0.021
-287.589	-200.000	0.022	-0.174
-286.574	-12.083	-0.131	-0.085
-285.559	68.819	-0.166	-0.168
-284.545	-76.287	0.197	0.068
-283.530	12.865	-0.157	0.120
-282.516	-118.090	-0.194	0.034
-281.501	168.794	0.048	-0.067
-280.486	198.662	0.195	0.294
-279.472	-93.397	0.187	0.051
-278.457	118.360	0.203	-0.247
-277.443	577.269	-0.059	0.142
-276.428	-38.146	-0.138	0.072
-275.413	-94.001	0.115	-0.031
-274.399	-154.163	-0.345	0.023
-273.384	-40.062	-0.190	0.098
-272.370	-25.504	-0.220	0.128
-271.355	180.663	0.175	-0.253
-270.340	-74.952	0.407	0.144
-269.326	-200.000	-0.060	0.308
-268.311	-80.278	-0.190	0.063
-267.297	-200.000	-0.041	0.357
-266.282	29.159	0.187	0.157
-265.267	-121.515	0.223	-0.037
-264.253	245.743	0.107	0.177
-263.238	170.492	0.193	0.273
-262.224	73.135	-0.166	0.172
-261.209	-149.426	0.042	0.003
-260.195	75.337	-0.071	-0.074
-259.180	-105.460	0.303	-0.068
-258.165	-95.644	-0.158	0.042
-257.151	-140.991	-0.131	-0.013
-256.136	135.516	-0.269	0.345
-255.122	-200.000	0.036	0.199
-254.107	-200.000	-0.024	0.225
-253.092	230.071	-0.197	0.317
-252.078	-72.124	0.348	0.128
-251.063	653.354	0.044	0.112
-250.049	230.266	0.098	0.157
-249.034	336.098	-0.153	0.293
-248.019	-48.633	-0.217	-0.103
-247.005	194.407	0.177	-0.265
-245.990	8.547	-0.095	-0.071
-244.976	-53.154	0.323	0.146
-243.961	800.000	0.026	0.099
-242.946	800.000	0.017	-0.074
-241.932	629.785	0.093	-0.233
-240.917	97.779	0.310	0.352
-239.903	181.930	0.152	0.221
-238.888	376.693	0.096	-0.193
-237.873	161.470	0.134	-0.184
-236.859	-200.000	0.022	-0.138
-235.844	-200.000	-0.010	0.109
-234.830	800.000	-0.031	0.103
-233.815	100.213	-0.153	-0.175
-232.800	-81.161	0.252	-0.082
-231.786	-75.346	0.241	0.085
-230.771	156.122	-0.215	-0.292
-229.757	-200.000	-0.017	0.257
-228.742	36.403	0.087	-0.076
-227.727	-132.037	-0.278	0.036
-226.713	-97.024	-0.267	-0.069
-225.698	-58.562	-0.323	0.138
-224.684	-200.000	-0.020	0.094
-223.669	-10.824	-0.232	-0.151
-222.655	-48.543	-0.280	-0.132
-221.640	-74.775	-0.066	-0.024
-220.625	-200.000	-0.026	-0.251
-219.611	800.000	-0.021	0.081
-218.596	405.411	-0.064	0.133
-217.582	-58.472	-0.064	-0.027
-216.567	480.876	0.113	-0.252
-215.552	-200.000	-0.008	0.038
-214.538	-111.919	-0.167	0.033
-213.523	691.280	-0.073	0.188
-212.509	564.244	-0.031	-0.073
-211.494	255.338	-0.017	-0.028
-210.479	479.531	-0.127	0.283
-209.465	-200.000	0.004	-0.036
-208.450	-200.000	-0.066	-0.317
-207.436	-85.348	-0.397	-0.122
-206.421	-200.000	-0.005	-0.092
-205.406	496.481	-0.073	-0.165
-204.392	5.027	0.148	0.107
-203.377	-200.000	0.043	0.287
-202.363	800.000	0.114	0.367
-201.348	240.448	-0.132	0.217
-200.333	56.845	-0.081	0.077
-199.319	-61.919	-0.139	0.057
-198.304	-81.034	-0.196	0.064
-197.290	-44.654	0.099	0.049
-196.275	800.000	-0.029	0.113
-195.260	-97.378	-0.190	-0.049
-194.246	800.000	-0.055	-0.175
-193.231	-115.773	0.157	0.029
-192.217	55.536	-0.181	0.172
-191.202	174.804	0.134	-0.190
-190.187	96.359	-0.171	0.192
-189.173	192.378	-0.117	0.174
-188.158	-13.129	-0.117	-0.075
-187.144	-14.205	0.142	-0.090
-186.129	-180.380	0.159	0.003
-185.114	121.747	-0.169	-0.207
-184.100	106.680	-0.212	0.248
-183.085	76.268	-0.094	0.098
-182.071	133.158	0.103	-0.131
-181.056	-200.000	0.015	-0.094
-180.042	99.207	0.176	-0.200
-179.027	-107.533	0.157	-0.034
-178.012	800.000	-0.022	-0.070
-176.998	144.157	0.132	-0.173
-175.983	-112.406	0.073	0.014
-174.969	-105.077	0.202	0.045
-173.954	-61.719	0.192	0.079
-172.939	800.000	0.034	0.097
-171.925	111.148	0.184	0.218
-170.910	159.236	0.105	-0.144
-169.896	-200.000	-0.005	-0.045
-168.881	300.861	0.068	0.123
-167.866	138.077	-0.126	0.163
-166.852	780.341	-0.020	-0.054
-165.837	2.136	0.145	0.103
-164.823	393.374	0.007	-0.015
-163.808	24.632	-0.257	0.209
-162.793	48.930	-0.047	0.043
-161.779	119.060	0.132	0.161
-160.764	436.221	0.059	0.125
-159.750	-117.218	-0.157	0.028
-158.735	800.000	-0.026	0.089
-157.720	204.167	0.204	-0.311
-156.706	-200.000	-0.029	-0.366
-155.691	-65.004	-0.098	-0.039
-154.677	110.130	-0.034	-0.040
-153.662	-40.622	-0.069	-0.035
-152.647	51.107	0.124	0.115
-151.633	-100.248	-0.073	0.018
-150.618	-155.844	0.120	0.007
-149.604	-118.269	0.209	0.036
-148.589	8.798	0.284	0.210
-147.574	-41.759	-0.363	0.183
-146.560	-200.000	-0.018	0.641
-145.545	126.604	0.107	0.133
-144.531	-200.000	-0.018	0.235
-143.516	296.449	0.035	-0.062
-142.502	466.150	0.098	0.216
-141.487	31.859	-0.135	-0.114
-140.472	800.000	-0.089	-0.248
-139.458	-200.000	0.004	0.084
-138.443	-200.000	-0.011	0.138
-137.429	800.000	-0.083	0.252
-136.414	-148.455	0.043	-0.003
-135.399	800.000	-0.057	-0.158
-134.385	-94.123	0.424	-0.114
-133.370	62.427	-0.187	0.183
-132.356	-96.648	0.094	-0.024
-131.341	505.228	-0.156	-0.354
-130.326	634.901	0.069	0.173
-129.312	-42.742	-0.208	-0.104
-128.297	-6.946	0.235	0.156
-127.283	-176.472	-0.193	-0.005
-126.268	69.477	-0.217	-0.219
-125.253	800.000	-0.058	-0.200
-124.239	707.953	-0.084	-0.217
-123.224	-200.000	0.010	0.175
-122.210	140.769	-0.222	-0.288
-121.195	479.424	-0.088	0.195
-120.180	-166.676	-0.221	-0.009
-119.166	54.846	0.353	-0.335
-118.151	-119.765	0.395	-0.067
-117.137	-200.000	-0.115	-0.520
-116.122	-200.000	0.017	0.085
-115.107	-132.177	0.275	0.035
-114.093	-41.437	0.218	0.110
-113.078	-3.278	-0.222	0.152
-112.064	31.986	0.245	-0.207
-111.049	164.983	0.282	0.390
-110.034	-200.000	-0.104	0.634
-109.020	161.861	0.147	-0.202
-108.005	800.000	0.095	0.296
-106.991	-50.047	-0.184	0.086
-105.976	-200.000	-0.031	0.191
-104.962	-43.486	-0.175	-0.087
-103.947	800.000	0.065	-0.180
-102.932	800.000	-0.041	-0.121
-101.918	800.000	0.084	0.296
-100.903	-133.315	0.069	-0.008
-99.889	110.295	0.390	-0.460
-98.874	-110.573	0.135	0.027
-97.859	-94.017	-0.184	0.049
-96.845	800.000	0.072	0.221
-95.830	-125.356	0.231	-0.034
-94.816	729.603	0.041	0.108
-93.801	338.697	-0.053	-0.101
-92.786	-43.593	0.173	-0.086
-91.772	800.000	-0.030	-0.127
-90.757	-68.135	0.129	-0.049
-89.743	231.748	0.133	-0.214
-88.728	113.126	-0.162	-0.192
-87.713	800.000	0.024	0.067
-86.699	572.182	0.112	-0.266
-85.684	-160.751	0.053	0.003
-84.670	800.000	-0.038	-0.111
-83.655	-20.590	-0.340	0.205
-82.640	-85.329	-0.181	-0.055
-81.626	-113.262	0.097	-0.019
-80.611	-121.788	0.185	0.030
-79.597	-200.000	0.015	-0.449
-78.582	800.000	0.009	0.035
-77.567	-159.470	0.154	-0.008
-76.553	-61.123	0.131	0.054
-75.538	-125.286	-0.308	-0.046
-74.524	-95.922	0.206	-0.054
-73.509	38.254	-0.090	-0.078
-72.494	800.000	0.018	-0.063
-71.480	5.705	0.133	0.096
-70.465	-31.974	0.120	-0.066
-69.451	348.184	0.141	0.273
-68.436	401.059	0.062	0.128
-67.422	-200.000	0.045	0.219
-66.407	175.198	-0.108	0.153
-65.392	18.468	-0.279	0.218
-64.378	91.072	-0.243	0.267
-63.363	26.281	-0.084	0.068
-62.349	218.219	-0.067	-0.104
-61.334	119.981	-1.092	-1.325
-60.319	-15.416	0.654	0.409
-59.305	800.000	-0.442	-1.379
-58.290	214.871	0.766	1.189
-57.276	626.491	0.708	1.751
-56.261	-200.000	115.132	645.103
-55.246	466.903	1511.819	3316.560
-54.232	146.789	2677.721	3523.352
-53.217	103.035	2151.421	2467.242
-52.203	38.641	1597.044	1394.666
-51.188	30.395	1342.697	1122.894
-50.173	27.681	1303.928	1074.465
-49.159	55.030	1360.147	1285.894
-48.144	53.557	1374.326	1290.421
-47.130	30.758	1329.925	1114.211
-46.115	27.343	1312.658	1079.481
-45.100	27.144	1307.297	1073.852
-44.086	27.065	1304.874	1071.353
-43.071	27.038	1302.433	1069.148
-42.057	26.965	1300.714	1067.268
-41.042	27.035	1299.146	1066.347
-40.027	27.028	1297.785	1065.149
-39.013	27.070	1295.531	1063.500
-37.998	27.198	1293.089	1062.204
-36.984	27.252	1291.268	1060.977
-35.969	27.180	1289.959	1059.445
-34.954	27.275	1288.457	1058.720
-33.940	27.308	1286.887	1057.578
-32.925	27.343	1285.783	1056.834
-31.911	27.226	1284.325	1054.915
-30.896	27.276	1282.693	1053.824
-29.881	27.385	1281.198	1053.181
-28.867	27.426	1279.463	1051.949
-27.852	27.427	1278.279	1050.942
-26.838	27.355	1277.223	1049.619
-25.823	27.330	1275.771	1048.241
-24.809	27.370	1274.495	1047.376
-23.794	27.354	1273.345	1046.299
-22.779	27.238	1272.103	1044.570
-21.765	27.305	1270.750	1043.805
-20.750	27.233	1269.282	1042.145
-19.736	27.378	1267.969	1041.852
-18.721	27.242	1267.083	1040.306
-17.706	27.136	1265.863	1038.657
-16.692	27.254	1264.628	1038.278
-15.677	27.277	1263.620	1037.539
-14.663	27.155	1262.668	1036.019
-13.648	27.206	1261.226	1035.087
-12.633	27.113	1260.545	1033.956
-11.619	27.164	1259.355	1033.233
-10.604	27.238	1258.776	1033.133
-9.590	27.291	1257.518	1032.361
-8.575	27.103	1256.825	1030.684
-7.560	27.169	1255.643	1030.051
-6.546	27.286	1254.687	1029.889
-5.531	27.174	1253.969	1028.622
-4.517	27.201	1252.861	1027.828
-3.502	27.269	1252.290	1027.704
-2.487	27.317	1251.349	1027.159
-1.473	27.093	1247.337	1022.566
-0.458	25.599	1232.522	1002.065
0.556	20.774	1215.801	964.917
1.571	17.163	1221.882	949.510
2.586	16.392	1237.038	956.838
3.600	16.558	1225.957	949.116
4.615	15.155	1160.150	890.634
5.629	12.531	1093.859	826.495
6.644	11.003	1077.691	806.638
7.659	10.863	1075.817	804.473
8.673	10.893	1074.097	803.267
9.688	10.721	1073.216	801.687
10.702	10.940	1070.717	800.828
11.717	12.608	1071.718	809.716
12.731	15.452	1076.195	827.062
13.746	17.511	1077.921	838.464
14.761	17.603	1077.646	838.628
15.775	16.680	1075.819	832.593
16.790	15.643	1073.710	825.797
17.804	14.902	1071.847	820.654
18.819	14.438	1070.567	817.330
19.834	14.150	1070.029	815.435
20.848	13.879	1068.943	813.209
21.863	13.801	1067.712	811.816
22.877	13.563	1067.141	810.147
23.892	13.635	1066.751	810.131
24.907	13.539	1066.166	809.147
25.921	13.567	1065.055	808.369
26.936	13.495	1064.007	807.151
27.950	13.775	1062.046	806.954
28.965	13.687	1061.038	805.690
29.980	13.795	1059.359	804.865
30.994	13.840	1058.126	804.074
32.009	13.714	1057.312	802.774
33.023	13.850	1055.973	802.346
34.038	13.821	1055.124	801.491
35.053	13.816	1053.772	800.370
36.067	13.738	1053.296	799.560
37.082	13.804	1052.142	798.932
38.096	13.876	1051.776	798.930
39.111	13.664	1051.044	797.284
40.126	13.664	1049.743	796.226
41.140	13.606	1048.500	794.934
42.155	13.569	1046.977	793.534
43.169	13.621	1045.584	792.656
44.184	13.441	1045.305	791.513
45.199	13.555	1043.740	790.802
46.213	13.626	1043.049	790.548
47.228	13.664	1042.351	790.130
48.242	13.638	1040.921	788.850
49.257	13.663	1039.765	788.024
50.271	13.752	1039.406	788.106
51.286	13.681	1038.303	786.864
52.301	13.717	1037.163	786.099
53.315	13.625	1036.313	784.951
54.330	13.656	1035.148	784.145
55.344	13.520	1034.879	783.229
56.359	13.607	1033.375	782.432
57.374	13.607	1032.180	781.460
58.388	13.598	1031.547	780.864
59.403	13.633	1030.561	780.218
60.417	13.545	1029.662	779.053
61.432	13.579	1028.893	778.560
62.447	13.450	1027.802	777.061
63.461	13.525	1027.231	776.912
64.476	13.431	1026.577	775.908
65.490	13.540	1025.262	775.356
66.505	13.548	1024.673	774.879
67.520	13.530	1023.909	774.152
68.534	13.621	1023.395	774.119
69.549	13.473	1023.037	773.086
70.563	13.563	1021.955	772.622
71.578	13.376	1021.226	771.130
72.593	13.380	1020.513	770.542
73.607	13.274	1019.651	769.329
74.622	13.354	1019.208	769.300
75.636	13.423	1018.635	769.118
76.651	13.538	1017.606	768.808
77.666	13.280	1017.322	767.328
78.680	13.243	1016.785	766.683
79.695	13.571	1015.554	767.206
80.709	13.469	1015.261	766.447
81.724	13.492	1014.531	765.933
82.739	13.561	1013.805	765.634
83.753	13.710	1013.051	765.689
84.768	13.688	1012.004	764.725
85.782	13.961	1010.703	764.933
86.797	13.758	1010.407	763.708
87.812	13.639	1009.501	762.407
88.826	13.627	1008.513	761.538
89.841	13.773	1007.098	761.071
90.855	13.870	1006.418	760.936
91.870	13.817	1005.813	760.167
92.884	13.830	1004.700	759.321
93.899	13.828	1003.933	758.663
94.914	13.785	1003.619	758.161
95.928	13.932	1002.212	757.705
96.943	13.765	1001.747	756.522
97.957	13.833	1000.466	755.799
98.972	13.771	999.597	754.795
99.987	13.884	998.958	754.757
101.001	13.798	998.225	753.746
102.016	13.840	997.217	753.108
103.030	13.875	996.313	752.517
104.045	13.794	995.445	751.430
105.060	13.821	994.659	750.891
106.074	13.696	993.772	749.589
107.089	13.609	992.727	748.342
108.103	13.495	992.067	747.265
109.118	13.606	990.655	746.636
110.133	13.508	989.761	745.456
111.147	13.641	989.054	745.452
112.162	13.724	987.765	744.792
113.176	13.742	987.435	744.557
114.191	13.700	986.891	743.891
115.206	13.622	986.187	742.944
116.220	13.734	985.223	742.653
117.235	13.664	984.128	741.453
118.249	13.575	983.219	740.303
119.264	13.730	982.591	740.455
120.279	13.659	981.512	739.259
121.293	13.588	980.994	738.490
122.308	13.511	980.413	737.645
123.322	13.639	978.554	736.747
124.337	13.694	977.483	736.121
125.352	13.589	977.032	735.249
126.366	13.665	975.955	734.712
127.381	13.570	975.362	733.781
128.395	13.583	974.176	732.881
129.410	13.534	973.134	731.815
130.424	13.663	972.481	731.828
131.439	13.673	971.465	731.044
132.454	13.605	971.135	730.430
133.468	13.666	970.179	729.917
134.483	13.730	969.304	729.476
135.497	13.636	968.371	728.294
136.512	13.689	967.419	727.747
137.527	13.647	966.705	726.962
138.541	13.663	966.204	726.590
139.556	13.757	965.372	726.310
140.570	13.862	964.438	726.001
141.585	13.934	963.738	725.726
142.600	13.858	963.157	724.893
143.614	13.875	962.117	724.121
144.629	14.021	961.053	723.890
145.643	13.941	960.389	722.980
146.658	13.875	959.144	721.690
147.673	13.776	958.571	720.767
148.687	13.904	957.462	720.425
149.702	13.777	956.754	719.276
150.716	13.829	955.877	718.781
151.731	13.799	955.281	718.137
152.746	13.793	954.673	717.592
153.760	13.821	953.895	717.063
154.775	13.885	953.399	716.904
155.789	13.973	952.873	716.826
156.804	13.997	952.237	716.388
157.819	13.978	951.556	715.729
158.833	14.053	950.840	715.449
159.848	14.015	950.100	714.665
160.862	14.073	948.412	713.581
161.877	13.904	947.840	712.365
162.892	14.012	946.574	711.814
163.906	13.878	945.943	710.701
164.921	13.853	944.990	709.815
165.935	13.993	944.108	709.689
166.950	14.113	943.219	709.470
167.964	13.989	942.660	708.458
168.979	13.969	941.524	707.457
169.994	14.059	940.711	707.163
171.008	14.130	939.861	706.764
172.023	14.165	939.459	706.548
173.037	14.070	938.669	705.489
174.052	14.050	938.471	705.192
175.067	13.878	937.793	703.891
176.081	14.016	937.074	703.873
177.096	13.865	936.472	702.721
178.110	14.100	936.262	703.495
179.125	14.162	935.296	702.969
180.140	14.157	934.331	702.161
181.154	14.208	934.279	702.274
182.169	14.262	933.559	701.900
183.183	14.295	932.888	701.471
184.198	14.271	932.161	700.760
185.213	14.352	931.259	700.363
186.227	14.273	931.049	699.812
187.242	14.258	930.489	699.266
188.256	14.390	929.530	699.038
189.271	14.289	929.131	698.251
190.286	14.155	928.239	696.956
191.300	13.983	927.309	695.476
192.315	14.021	926.475	694.950
193.329	14.090	926.206	694.976
194.344	14.124	925.942	694.858
195.359	14.170	925.002	694.282
196.373	14.369	924.191	694.440
197.388	14.306	924.362	694.244
198.402	14.504	923.638	694.465
199.417	14.522	923.065	694.049
200.432	14.551	922.245	693.491
201.446	14.615	921.736	693.314
202.461	14.681	921.543	693.378
203.475	14.626	920.756	692.497
204.490	14.500	920.161	691.467
205.504	14.488	918.914	690.419
206.519	14.454	918.346	689.792
207.534	14.576	917.739	689.779
208.548	14.516	916.953	688.877
209.563	14.446	916.790	688.406
210.577	14.449	915.751	687.576
211.592	14.617	915.316	687.881
212.607	14.766	913.979	687.431
213.621	14.724	913.471	686.812
214.636	14.702	912.800	686.157
215.650	14.687	912.160	685.554
216.665	14.741	911.861	685.491
217.680	14.715	910.952	684.642
218.694	14.806	910.055	684.278
219.709	14.698	909.894	683.654
220.723	14.726	909.131	683.134
221.738	14.719	908.611	682.654
222.753	14.754	907.736	682.082
223.767	14.785	907.106	681.676
224.782	14.995	906.591	682.083
225.796	14.823	906.144	680.986
226.811	14.849	905.324	680.414
227.826	14.725	904.997	679.605
228.840	14.807	903.703	678.903
229.855	14.712	903.058	677.973
230.869	14.827	902.460	677.931
231.884	14.814	901.595	677.169
232.899	14.736	901.187	676.487
233.913	14.883	900.359	676.400
234.928	14.829	899.153	675.217
235.942	14.737	898.825	674.538
236.957	14.727	898.774	674.400
237.972	14.746	898.174	673.969
238.986	14.934	896.976	673.767
240.001	14.915	896.294	673.118
241.015	14.973	895.864	672.968
242.030	14.832	895.422	672.011
243.045	14.864	895.110	671.845
244.059	14.968	894.468	671.723
245.074	14.845	893.789	670.660
246.088	15.054	892.707	670.626
247.103	15.087	892.041	670.199
248.117	15.120	891.795	670.086
249.132	15.138	891.114	669.588
250.147	15.228	890.904	669.728
251.161	15.340	890.043	669.469
252.176	15.301	889.298	668.696
253.190	15.372	888.460	668.287
254.205	15.402	887.971	667.980
255.220	15.449	886.847	667.261
256.234	15.405	886.705	666.922
257.249	15.325	886.250	666.204
258.263	15.358	885.185	665.474
259.278	15.262	884.873	664.800
260.293	15.348	883.981	664.413
261.307	15.482	883.290	664.363
262.322	15.552	883.085	664.428
263.336	15.471	882.476	663.592
264.351	15.648	881.160	663.240
265.366	15.626	880.815	662.838
266.380	15.579	880.360	662.250
267.395	15.476	879.866	661.414
268.409	15.655	878.864	661.308
269.424	15.561	878.099	660.303
270.439	15.583	877.093	659.575
271.453	15.583	876.682	659.205
272.468	15.773	875.723	659.173
273.482	15.567	875.758	658.332
274.497	15.623	874.897	657.848
275.512	15.543	874.636	657.279
276.526	15.558	874.158	656.922
277.541	15.635	873.653	656.782
278.555	15.669	873.023	656.384
279.570	15.700	872.186	655.820
280.585	15.787	871.360	655.477
281.599	15.735	870.782	654.782
282.614	15.710	869.825	653.906
283.628	15.729	869.685	653.817
284.643	15.795	868.885	653.416
285.657	15.797	868.051	652.738
286.672	15.794	867.588	652.322
287.687	15.817	866.799	651.761
288.701	15.849	866.643	651.709
289.716	15.808	866.086	651.072
290.730	15.935	865.588	651.131
291.745	15.884	864.797	650.283
292.760	15.976	863.519	649.617
293.774	16.099	863.391	649.940
294.789	15.941	862.690	648.746
295.803	15.887	862.197	648.110
296.818	15.851	861.595	647.460
297.833	15.990	860.682	647.252
298.847	16.055	860.057	646.974
299.862	15.889	859.847	646.120
300.876	16.060	858.945	646.042
301.891	16.116	858.277	645.696
302.906	16.046	857.930	645.111
303.920	16.201	857.512	645.330
304.935	16.204	857.149	645.014
305.949	16.241	856.313	644.469
306.964	16.171	855.705	643.685
307.979	16.060	855.357	642.944
308.993	16.372	854.468	643.410
310.008	16.358	854.131	643.044
311.022	16.297	853.351	642.167
312.037	16.123	852.842	641.067
313.052	16.219	852.249	640.929
314.066	16.128	851.743	640.148
315.081	16.200	850.911	639.737
316.095	16.059	850.490	638.830
317.110	16.216	849.947	638.959
318.125	16.165	849.488	638.367
319.139	16.246	848.807	638.102
320.154	16.031	848.484	636.992
321.168	16.215	847.887	637.181
322.183	16.427	847.022	637.275
323.197	16.156	847.041	636.211
324.212	16.375	846.102	636.274
325.227	16.287	845.919	635.749
326.241	16.228	845.137	634.883
327.256	16.376	844.434	634.857
328.270	16.239	844.079	634.016
329.285	16.306	843.682	633.913
330.300	16.266	842.795	633.043
331.314	16.282	842.499	632.824
332.329	16.473	841.733	632.908
333.343	16.431	841.492	632.515
334.358	16.463	840.943	632.165
335.373	16.461	840.850	632.030
336.387	16.596	840.435	632.170
337.402	16.425	840.498	631.520
338.416	16.665	839.838	631.866
339.431	16.610	839.401	631.275
340.446	16.599	838.792	630.720
341.460	16.697	838.487	630.799
342.475	16.788	838.323	630.958
343.489	16.694	837.649	630.047
344.504	16.800	837.202	630.048
345.519	16.727	836.838	629.448
346.533	16.715	836.361	628.988
347.548	16.662	835.549	628.125
348.562	16.692	834.815	627.628
349.577	16.604	834.608	627.091
350.592	16.659	833.780	626.618
351.606	16.645	833.376	626.208
352.621	16.609	832.411	625.292
353.635	16.714	831.859	625.210
354.650	16.775	831.272	624.940
355.665	16.954	830.306	624.818
356.679	16.931	829.722	624.237
357.694	16.639	829.541	622.973
358.708	16.932	828.647	623.324
359.723	16.910	827.947	622.660
360.738	16.882	827.228	621.960
361.752	16.826	827.256	621.722
362.767	17.065	826.394	621.895
363.781	17.099	825.878	621.578
364.796	17.080	825.834	621.417
365.810	17.112	825.257	621.048
366.825	17.146	824.621	620.639
367.840	17.154	824.232	620.318
368.854	17.133	823.486	619.626
369.869	17.232	823.170	619.694
370.883	17.118	823.239	619.277
371.898	17.127	822.946	619.034
372.913	17.077	822.678	618.594
373.927	17.190	821.502	618.066
374.942	17.095	821.252	617.477
375.956	17.220	820.793	617.532
376.971	17.376	820.317	617.686
377.986	17.360	819.829	617.206
379.000	17.460	819.549	617.305
380.015	17.413	819.091	616.736
381.029	17.367	818.472	616.048
382.044	17.434	817.713	615.664
383.059	17.350	817.064	614.818
384.073	17.263	816.682	614.161
385.088	17.344	816.025	613.905
386.102	17.328	815.708	613.554
387.117	17.312	814.854	612.799
388.132	17.478	814.212	612.860
389.146	17.380	813.898	612.216
390.161	17.381	813.433	611.816
391.175	17.453	813.190	611.839
392.190	17.385	812.321	610.885
393.205	17.554	811.654	610.936
394.219	17.468	811.658	610.579
395.234	17.328	811.241	609.708
396.248	17.422	810.789	609.652
397.263	17.343	810.433	609.047
398.278	17.303	810.209	608.682
399.292	17.410	809.289	608.321
400.307	17.332	809.063	607.816
401.321	17.287	808.751	607.367
402.336	17.445	808.060	607.359
403.350	17.483	807.536	607.047
404.365	17.542	807.162	606.921
405.380	17.619	806.463	606.617
406.394	17.776	805.830	606.645
407.409	17.641	805.711	606.021
408.423	17.814	805.247	606.236
409.438	17.703	805.217	605.763
410.453	17.701	804.884	605.452
411.467	17.931	804.038	605.577
412.482	17.693	804.313	604.887
413.496	18.056	803.135	605.233
414.511	18.117	802.311	604.777
415.526	17.906	802.041	603.771
416.540	18.012	802.074	604.116
417.555	17.813	801.523	602.946
418.569	18.009	800.983	603.177
419.584	17.836	800.928	602.475
420.599	17.949	800.397	602.420
421.613	111.588	1295.027	1475.758
422.628	96.134	1367.051	1475.845
