DTS Sentinel unit serial number:	SN413079Multiplexer serial number:	ORYXHardware model number:	OX4-SRSoftware version number:	ORYX F/W v4.00 Oryx Data Collector v3.7.2.0data status	okinstallation	princeton_trtdifferential loss correction	single-endedforward channel	channel 1reverse channel	N/Adate	2019/09/15time	08:34:35forward acquisition time	60.00reverse acquisition time	0.00gamma	496.2192k internal	0.2320k external	0.2320temperature offset calibration	0.9988default loss term (dB/km)	0.3790temperature slope calibration	1.0000multiplexer offset coefficient	1.0000multiplexer slope coefficient	1.0000fibre end	0.00T internal ref (°C)	31.77T ext. ref 1 (°C)	4.98T ext. ref 2 (°C)	29.08length (m)	temperature (°C)	Stokes	anti-Stokes-747.200	334.463	0.073	0.144
-746.185	220.663	0.097	0.157
-745.171	153.355	0.262	0.362
-744.156	-70.623	-0.409	0.156
-743.142	-127.328	-0.078	0.011
-742.127	610.593	-0.040	-0.101
-741.112	-200.000	-0.009	0.191
-740.098	99.631	-0.300	0.351
-739.083	114.456	-0.156	0.192
-738.069	-200.000	-0.026	-0.230
-737.054	-2.293	0.320	0.227
-736.039	-31.040	-0.046	0.026
-735.025	-200.000	-0.054	0.243
-734.010	102.093	0.183	-0.216
-732.996	-31.760	-0.175	-0.099
-731.981	188.664	-0.137	0.208
-730.966	24.427	0.077	-0.064
-729.952	-200.000	0.008	-0.232
-728.937	615.989	-0.083	-0.210
-727.923	449.022	0.064	-0.142
-726.908	170.851	-0.207	-0.300
-725.894	-200.000	-0.012	0.063
-724.879	54.294	0.338	-0.329
-723.864	-92.937	0.233	-0.066
-722.850	-200.000	-0.037	0.305
-721.835	-117.908	-0.297	-0.054
-720.821	-200.000	0.000	0.013
-719.806	-200.000	-0.005	-0.270
-718.791	-200.000	0.037	-0.210
-717.777	121.414	-0.110	0.138
-716.762	-172.209	-0.255	-0.008
-715.748	-200.000	-0.005	-0.128
-714.733	367.991	0.150	-0.306
-713.718	18.412	-0.116	0.094
-712.704	-200.000	0.074	-0.406
-711.689	-200.000	-0.006	0.031
-710.675	-200.000	-0.004	-0.043
-709.660	-200.000	-0.003	0.068
-708.645	94.889	0.117	0.135
-707.631	4.295	-0.146	-0.108
-706.616	800.000	0.042	-0.127
-705.602	-88.931	0.346	0.104
-704.587	48.080	0.310	-0.292
-703.572	-200.000	-0.020	-0.133
-702.558	189.529	0.038	-0.057
-701.543	-200.000	-0.022	-0.164
-700.529	800.000	0.051	0.206
-699.514	-200.000	0.043	0.229
-698.499	752.209	0.097	0.263
-697.485	111.600	0.159	0.193
-696.470	-52.593	0.215	0.100
-695.456	70.909	-0.201	0.210
-694.441	-196.603	0.365	-0.002
-693.426	41.929	0.085	0.077
-692.412	133.140	0.149	-0.194
-691.397	8.886	-0.119	-0.091
-690.383	-154.571	0.109	-0.007
-689.368	-126.624	-0.179	0.027
-688.354	-200.000	0.012	-0.290
-687.339	-200.000	0.045	-0.217
-686.324	139.938	-0.151	0.201
-685.310	256.733	-0.098	0.169
-684.295	61.070	-0.372	-0.372
-683.281	353.953	-0.144	-0.288
-682.266	-200.000	-0.037	0.168
-681.251	762.713	0.065	-0.179
-680.237	-1.721	0.220	-0.156
-679.222	73.651	0.187	0.198
-678.208	-200.000	0.017	0.344
-677.193	-107.317	-0.115	0.025
-676.178	266.081	0.097	0.170
-675.164	-137.102	0.141	-0.016
-674.149	-154.039	-0.127	-0.009
-673.135	-200.000	0.005	0.061
-672.120	800.000	-0.019	0.080
-671.105	598.875	-0.057	0.142
-670.091	-150.025	-0.250	0.020
-669.076	113.905	0.160	-0.196
-668.062	800.000	0.056	0.192
-667.047	-80.201	-0.324	-0.109
-666.032	0.764	-0.115	-0.083
-665.018	52.559	0.092	0.089
-664.003	-134.357	-0.099	0.012
-662.989	-100.218	0.237	0.059
-661.974	-42.951	-0.243	0.124
-660.959	27.659	-0.099	0.084
-659.945	-148.335	0.036	0.003
-658.930	-177.450	-0.190	-0.005
-657.916	-22.759	-0.231	-0.141
-656.901	-200.000	-0.026	-0.226
-655.886	112.165	0.078	0.095
-654.872	119.256	-0.231	0.288
-653.857	253.688	0.087	-0.150
-652.843	-49.969	-0.434	-0.208
-651.828	-200.000	-0.012	0.220
-650.814	-200.000	-0.001	-0.252
-649.799	-200.000	0.012	0.223
-648.784	-200.000	-0.012	-0.137
-647.770	7.799	-0.131	-0.099
-646.755	-149.843	0.209	0.017
-645.741	366.307	-0.139	-0.282
-644.726	-123.699	-0.301	0.048
-643.711	-22.541	0.071	0.043
-642.697	-80.740	-0.251	0.084
-641.682	128.055	0.089	0.114
-640.668	59.210	0.092	0.091
-639.653	-122.999	0.140	0.023
-638.638	59.440	0.124	0.123
-637.624	562.375	0.152	-0.371
-636.609	80.815	0.132	0.144
-635.595	-200.000	-0.007	-0.103
-634.580	800.000	-0.093	-0.305
-633.565	800.000	-0.119	-0.334
-632.551	800.000	-0.101	0.325
-631.536	-200.000	-0.012	0.184
-630.522	365.017	0.184	-0.373
-629.507	-121.440	0.158	-0.027
-628.492	-200.000	0.017	-0.100
-627.478	138.048	0.053	0.070
-626.463	-200.000	0.030	0.418
-625.449	-35.048	0.296	-0.163
-624.434	-145.676	-0.275	-0.025
-623.419	-200.000	-0.017	-0.245
-622.405	-200.000	0.054	-0.330
-621.390	107.479	-0.059	-0.070
-620.376	20.825	-0.279	-0.227
-619.361	782.654	-0.125	-0.345
-618.346	800.000	0.033	-0.114
-617.332	199.012	-0.091	0.141
-616.317	800.000	-0.027	-0.109
-615.303	87.899	0.071	0.079
-614.288	240.209	-0.241	0.404
-613.273	-48.519	-0.116	0.056
-612.259	-52.220	-0.020	-0.009
-611.244	800.000	0.021	0.072
-610.230	16.359	0.213	-0.169
-609.215	251.517	0.217	0.372
-608.201	165.261	-0.170	0.242
-607.186	-37.600	-0.146	0.078
-606.171	-81.624	0.073	-0.024
-605.157	800.000	-0.046	0.156
-604.142	267.591	0.060	0.106
-603.128	342.456	0.147	0.290
-602.113	-102.579	0.102	-0.024
-601.098	165.866	-0.183	-0.261
-600.084	-27.459	-0.086	-0.050
-599.069	-44.990	0.099	-0.050
-598.055	-131.683	-0.445	0.059
-597.040	21.232	0.276	-0.225
-596.025	-200.000	0.045	-0.327
-595.011	162.455	-0.067	0.094
-593.996	-62.088	0.467	-0.196
-592.982	342.680	-0.146	-0.287
-591.967	-112.218	-0.151	-0.030
-590.952	31.692	-0.207	-0.179
-589.938	49.265	0.240	-0.227
-588.923	44.059	-0.097	0.089
-587.909	211.681	0.108	0.171
-586.894	-193.613	-0.305	-0.003
-585.879	-70.395	0.173	-0.066
-584.865	250.128	-0.074	-0.127
-583.850	-200.000	-0.031	-0.150
-582.836	-107.473	0.291	0.064
-581.821	140.489	-0.247	0.328
-580.806	-116.700	-0.316	0.058
-579.792	-68.057	-0.131	0.051
-578.777	385.639	0.080	0.166
-577.763	-29.971	-0.111	-0.063
-576.748	325.468	-0.051	0.097
-575.733	-65.561	0.385	0.155
-574.719	301.195	-0.007	-0.012
-573.704	-200.000	-0.015	-0.290
-572.690	-107.262	0.284	-0.063
-571.675	-0.164	0.067	-0.048
-570.661	65.228	-0.058	-0.059
-569.646	198.355	-0.198	0.304
-568.631	-52.251	-0.103	0.048
-567.617	-71.231	0.126	0.048
-566.602	289.676	-0.096	-0.176
-565.588	294.781	-0.066	0.121
-564.573	368.725	0.113	-0.230
-563.558	-127.041	-0.202	-0.030
-562.544	-200.000	-0.076	-0.389
-561.529	25.552	0.281	-0.235
-560.515	-165.122	0.302	-0.013
-559.500	-90.756	-0.323	-0.094
-558.485	123.692	0.122	-0.153
-557.471	66.319	0.106	-0.109
-556.456	-29.417	0.218	-0.125
-555.442	-200.000	-0.011	-0.068
-554.427	-126.312	0.115	-0.017
-553.412	6.449	-0.410	0.306
-552.398	31.761	0.064	0.056
-551.383	-200.000	-0.015	0.109
-550.369	-42.812	0.237	0.121
-549.354	138.645	-0.183	-0.241
-548.339	-161.633	0.198	-0.010
-547.325	-111.311	-0.241	-0.049
-546.310	-54.913	0.130	-0.059
-545.296	-200.000	-0.010	-0.172
-544.281	-115.902	0.176	-0.033
-543.266	800.000	0.066	0.286
-542.252	186.546	0.368	0.550
-541.237	-18.669	-0.029	0.018
-540.223	364.009	-0.055	-0.112
-539.208	91.179	-0.201	0.226
-538.193	-41.331	0.041	0.021
-537.179	-33.455	-0.363	-0.201
-536.164	-200.000	-0.022	0.129
-535.150	-109.195	-0.159	-0.034
-534.135	-156.891	0.186	0.011
-533.121	800.000	-0.097	0.341
-532.106	800.000	0.080	-0.311
-531.091	-79.735	0.170	0.057
-530.077	46.345	-0.205	-0.190
-529.062	-20.988	-0.297	0.182
-528.048	-200.000	0.049	-0.402
-527.033	64.899	0.039	-0.039
-526.018	-115.496	-0.208	0.039
-525.004	-104.032	-0.266	0.062
-523.989	-79.546	-0.296	-0.100
-522.975	114.540	0.022	-0.026
-521.960	-104.203	-0.037	-0.009
-520.945	-87.498	0.260	-0.079
-519.931	-99.409	-0.176	-0.044
-518.916	67.270	-0.351	-0.359
-517.902	-52.901	-0.170	0.078
-516.887	24.866	-0.116	-0.096
-515.872	178.791	-0.133	0.195
-514.858	-200.000	0.020	0.098
-513.843	116.905	-0.147	-0.181
-512.829	371.772	-0.117	0.239
-511.814	-163.593	-0.180	0.009
-510.799	242.048	0.089	-0.149
-509.785	42.926	-0.146	0.134
-508.770	65.743	0.079	-0.081
-507.756	-161.336	0.318	0.017
-506.741	126.734	0.092	0.117
-505.726	-129.712	-0.076	0.010
-504.712	800.000	0.035	0.128
-503.697	-169.697	0.117	-0.004
-502.683	267.591	-0.141	-0.247
-501.668	58.638	-0.127	-0.125
-500.653	-108.730	-0.156	-0.033
-499.639	124.521	-0.050	-0.063
-498.624	56.461	0.187	-0.182
-497.610	68.146	0.100	-0.103
-496.595	-68.917	0.242	-0.094
-495.581	-114.334	-0.192	0.037
-494.566	355.606	-0.103	0.205
-493.551	800.000	0.068	-0.201
-492.537	-200.000	0.021	0.124
-491.522	75.148	0.043	-0.046
-490.508	-191.651	0.303	0.003
-489.493	-200.000	-0.004	-0.034
-488.478	-99.960	-0.222	0.055
-487.464	-200.000	-0.036	-0.185
-486.449	-107.211	-0.032	0.007
-485.435	-149.061	-0.445	0.036
-484.420	188.295	-0.129	0.193
-483.405	-114.396	-0.231	0.045
-482.391	364.319	-0.046	0.092
-481.376	135.998	-0.156	0.204
-480.362	-102.098	0.280	0.067
-479.347	-90.028	0.219	0.064
-478.332	7.823	0.079	0.059
-477.318	103.346	-0.112	0.131
-476.303	-34.592	0.155	-0.085
-475.289	-200.000	0.045	-0.318
-474.274	-43.743	0.039	0.019
-473.259	800.000	0.040	0.119
-472.245	-125.416	0.032	0.005
-471.230	800.000	-0.033	-0.147
-470.216	348.892	0.036	-0.071
-469.201	94.976	0.167	-0.190
-468.186	800.000	-0.058	-0.205
-467.172	800.000	-0.059	-0.193
-466.157	189.923	-0.115	-0.173
-465.143	800.000	-0.013	-0.053
-464.128	30.390	0.291	-0.248
-463.113	-200.000	-0.014	0.253
-462.099	-145.890	-0.304	-0.027
-461.084	78.236	-0.118	0.126
-460.070	-72.641	0.079	-0.029
-459.055	-200.000	0.028	0.125
-458.040	-200.000	-0.001	-0.187
-457.026	-200.000	0.025	-0.199
-456.011	-96.083	0.366	0.097
-454.997	293.760	-0.166	0.303
-453.982	478.352	0.049	0.110
-452.968	800.000	-0.098	-0.333
-451.953	800.000	0.048	0.205
-450.938	-98.719	0.504	-0.128
-449.924	17.552	-0.272	-0.216
-448.909	-23.275	0.045	-0.027
-447.895	51.401	0.165	0.157
-446.880	126.743	-0.022	-0.028
-445.865	-156.310	-0.420	0.026
-444.851	-200.000	-0.005	0.374
-443.836	-27.851	-0.224	-0.129
-442.822	292.144	0.102	-0.185
-441.807	-88.018	-0.238	-0.071
-440.792	321.366	-0.029	-0.055
-439.778	800.000	0.120	-0.340
-438.763	-200.000	0.056	0.463
-437.749	-92.432	0.192	-0.054
-436.734	-67.899	-0.257	0.100
-435.719	-146.115	0.328	-0.029
-434.705	65.877	0.139	-0.141
-433.690	-162.808	0.294	-0.014
-432.676	800.000	0.061	-0.224
-431.661	-200.000	0.026	-0.256
-430.646	-200.000	-0.029	-0.253
-429.632	800.000	-0.066	-0.262
-428.617	-3.425	-0.172	0.120
-427.603	40.823	0.187	-0.169
-426.588	-38.297	-0.233	0.123
-425.573	517.321	0.087	-0.203
-424.559	-11.969	0.168	0.110
-423.544	24.805	-0.145	0.120
-422.530	-166.031	-0.120	0.005
-421.515	228.352	0.152	-0.247
-420.500	724.883	-0.059	0.157
-419.486	-126.350	-0.325	-0.048
-418.471	-200.000	-0.053	0.274
-417.457	-200.000	-0.009	0.148
-416.442	74.335	-0.106	-0.112
-415.428	293.479	0.106	0.193
-414.413	-104.929	-0.046	0.011
-413.398	-4.852	0.274	-0.189
-412.384	102.610	-0.178	0.208
-411.369	-143.806	0.448	-0.042
-410.355	-85.546	0.246	0.076
-409.340	294.532	-0.156	0.285
-408.325	-8.273	0.069	0.046
-407.311	-34.599	0.228	-0.124
-406.296	-105.367	-0.299	-0.068
-405.282	-200.000	0.020	0.246
-404.267	42.419	-0.112	-0.102
-403.252	-90.982	-0.163	0.047
-402.238	454.384	-0.092	0.203
-401.223	529.749	0.105	0.248
-400.209	160.081	-0.143	-0.199
-399.194	422.092	-0.113	0.241
-398.179	36.273	-0.118	0.104
-397.165	339.588	-0.055	-0.107
-396.150	-36.950	0.113	-0.060
-395.136	161.278	-0.209	0.291
-394.121	-24.692	0.081	0.048
-393.106	92.548	0.086	-0.096
-392.092	-73.413	0.300	-0.109
-391.077	-200.000	0.016	0.079
-390.063	33.906	-0.320	-0.278
-389.048	306.824	0.124	-0.231
-388.033	-92.661	-0.246	-0.069
-387.019	97.276	0.036	-0.041
-386.004	-65.731	-0.393	0.157
-384.990	19.193	0.056	-0.044
-383.975	-200.000	-0.016	0.148
-382.960	0.799	0.045	-0.032
-381.946	72.126	-0.067	-0.069
-380.931	79.116	0.129	-0.138
-379.917	715.470	0.115	-0.305
-378.902	-37.653	-0.400	0.213
-377.888	800.000	-0.030	0.114
-376.873	-107.515	0.260	-0.057
-375.858	-135.146	0.201	0.024
-374.844	56.763	-0.072	0.070
-373.829	129.351	-0.171	0.217
-372.815	-69.635	0.164	-0.063
-371.800	549.219	0.079	-0.188
-370.785	800.000	0.084	-0.343
-369.771	206.495	-0.152	-0.237
-368.756	-11.948	0.199	0.130
-367.742	19.511	0.117	0.094
-366.727	166.919	0.142	0.201
-365.712	44.692	0.129	-0.118
-364.698	5.090	0.176	0.129
-363.683	-200.000	-0.054	0.392
-362.669	-200.000	-0.036	-0.292
-361.654	-200.000	-0.055	0.248
-360.639	707.385	0.091	-0.240
-359.625	-200.000	-0.037	0.201
-358.610	-59.706	0.399	-0.170
-357.596	-200.000	0.060	-0.297
-356.581	-89.106	-0.138	-0.041
-355.566	-110.687	0.324	0.067
-354.552	800.000	0.064	-0.195
-353.537	-40.322	-0.049	-0.025
-352.523	800.000	-0.089	-0.332
-351.508	278.932	-0.140	-0.248
-350.493	800.000	-0.103	-0.423
-349.479	740.965	-0.129	0.346
-348.464	-16.382	0.175	-0.111
-347.450	695.730	-0.045	0.117
-346.435	-36.578	-0.236	0.126
-345.420	-49.086	0.524	0.249
-344.406	800.000	-0.079	0.247
-343.391	428.304	0.134	-0.288
-342.377	726.186	0.041	0.110
-341.362	-147.698	-0.223	0.019
-340.348	17.783	-0.099	0.079
-339.333	482.720	-0.077	0.174
-338.318	-200.000	-0.047	-0.270
-337.304	48.498	0.196	0.182
-336.289	-16.628	0.246	0.155
-335.275	89.074	-0.111	0.123
-334.260	-22.242	0.138	0.083
-333.245	-200.000	-0.002	-0.152
-332.231	-149.964	-0.055	-0.004
-331.216	77.351	0.242	-0.256
-330.202	82.512	-0.235	-0.254
-329.187	-200.000	0.006	-0.097
-328.172	4.747	-0.086	-0.063
-327.158	-171.002	-0.326	0.011
-326.143	-200.000	0.002	0.077
-325.129	-170.175	0.039	0.001
-324.114	-37.010	0.049	-0.026
-323.099	53.582	-0.176	-0.168
-322.085	186.536	-0.160	0.237
-321.070	54.891	-0.115	-0.111
-320.056	-36.032	0.138	-0.074
-319.041	-200.000	-0.044	-0.225
-318.026	-17.086	0.280	0.176
-317.012	348.681	0.155	0.303
-315.997	-193.619	-0.448	-0.004
-314.983	-47.700	-0.140	-0.067
-313.968	196.162	0.349	0.529
-312.953	-80.084	0.342	-0.114
-311.939	-62.799	-0.006	-0.002
-310.924	38.327	0.205	-0.181
-309.910	27.260	0.235	0.196
-308.895	-124.489	-0.232	0.036
-307.880	642.548	-0.182	-0.460
-306.866	-45.188	0.274	-0.136
-305.851	26.927	0.071	0.059
-304.837	800.000	0.058	-0.184
-303.822	59.109	0.373	-0.365
-302.807	757.693	-0.116	0.311
-301.793	-12.257	0.224	0.146
-300.778	-0.165	0.299	-0.211
-299.764	-59.330	-0.064	-0.027
-298.749	-59.167	0.114	0.049
-297.735	800.000	-0.086	0.249
-296.720	-38.079	0.163	0.086
-295.705	-200.000	-0.007	0.187
-294.691	51.132	0.096	0.090
-293.676	286.208	0.055	-0.098
-292.662	-200.000	0.026	0.248
-291.647	218.199	-0.110	0.174
-290.632	-123.719	0.335	0.053
-289.618	232.565	-0.136	-0.221
-288.603	-44.027	0.184	-0.092
-287.589	800.000	-0.067	-0.204
-286.574	-78.262	-0.034	-0.012
-285.559	-103.754	0.131	-0.031
-284.545	-78.571	0.166	0.056
-283.530	800.000	-0.063	0.267
-282.516	103.588	-0.118	0.137
-281.501	-200.000	-0.021	0.146
-280.486	-19.042	0.107	-0.066
-279.472	490.865	-0.054	-0.122
-278.457	800.000	-0.094	0.258
-277.443	-71.499	0.208	0.077
-276.428	110.652	-0.121	0.144
-275.413	371.436	-0.103	0.207
-274.399	-15.493	0.194	-0.123
-273.384	-3.350	0.138	0.095
-272.370	-104.467	0.296	-0.068
-271.355	-200.000	-0.042	0.284
-270.340	-200.000	0.006	-0.125
-269.326	265.430	0.104	0.180
-268.311	-118.595	0.450	-0.079
-267.297	-88.400	-0.073	0.022
-266.282	-43.504	-0.073	0.036
-265.267	-200.000	-0.003	-0.185
-264.253	6.146	0.083	-0.061
-263.238	-0.614	-0.260	0.183
-262.224	20.830	0.099	-0.080
-261.209	103.493	-0.110	-0.128
-260.195	800.000	-0.045	-0.140
-259.180	325.392	0.031	0.060
-258.165	-28.099	0.151	0.087
-257.151	382.398	0.054	0.110
-256.136	-80.689	-0.201	-0.066
-255.122	100.956	0.299	0.345
-254.107	-62.095	-0.138	0.057
-253.092	290.151	0.070	-0.125
-252.078	44.588	-0.077	-0.070
-251.063	-85.133	0.059	-0.018
-250.049	-200.000	0.004	-0.336
-249.034	-200.000	-0.049	-0.307
-248.019	2.991	-0.060	0.043
-247.005	17.933	0.122	0.096
-245.990	-200.000	0.004	-0.085
-244.976	-127.879	0.122	-0.017
-243.961	-69.426	0.088	0.033
-242.946	424.423	-0.043	-0.092
-241.932	19.371	-0.075	0.060
-240.917	-200.000	-0.032	-0.182
-239.903	177.618	0.058	-0.084
-238.888	-111.052	-0.094	-0.019
-237.873	-59.416	-0.056	0.024
-236.859	-200.000	-0.062	0.312
-235.844	-142.752	-0.372	-0.036
-234.830	104.884	-0.248	0.290
-233.815	-99.923	-0.171	-0.042
-232.800	438.560	0.054	0.117
-231.786	166.367	-0.194	0.272
-230.771	-105.616	-0.131	-0.029
-229.757	-100.576	-0.255	-0.062
-228.742	800.000	-0.055	0.156
-227.727	-200.000	0.001	-0.101
-226.713	-200.000	-0.063	0.291
-225.698	-89.323	-0.052	-0.015
-224.684	-156.612	-0.267	-0.016
-223.669	-200.000	-0.031	0.348
-222.655	-200.000	0.004	0.233
-221.640	-145.233	-0.084	-0.008
-220.625	-102.285	0.331	0.079
-219.611	-200.000	0.016	-0.330
-218.596	800.000	-0.064	0.212
-217.582	26.333	-0.090	0.074
-216.567	-121.803	-0.146	-0.024
-215.552	109.791	0.067	-0.080
-214.538	21.594	-0.203	0.164
-213.523	-200.000	-0.006	0.347
-212.509	-53.770	-0.059	-0.027
-211.494	-54.418	0.139	0.063
-210.479	60.784	-0.117	0.115
-209.465	800.000	-0.022	-0.072
-208.450	45.234	0.413	-0.377
-207.436	-200.000	-0.039	-0.311
-206.421	154.517	0.164	0.224
-205.406	-62.319	0.045	0.019
-204.392	242.913	-0.059	-0.098
-203.377	102.450	-0.202	0.234
-202.363	-111.268	-0.572	0.116
-201.348	-110.174	0.363	-0.075
-200.333	-30.013	-0.047	-0.026
-199.319	39.247	-0.160	0.142
-198.304	-82.418	0.138	0.044
-197.290	-31.674	-0.260	-0.144
-196.275	61.059	-0.178	-0.175
-195.260	-35.668	0.213	0.114
-194.246	-142.347	-0.193	-0.019
-193.231	268.860	0.199	0.345
-192.217	-114.823	-0.315	0.060
-191.202	-104.709	-0.175	0.040
-190.187	426.194	-0.150	0.320
-189.173	-200.000	-0.017	-0.111
-188.158	-172.666	0.068	0.002
-187.144	-3.810	0.217	0.149
-186.129	-200.000	-0.004	-0.086
-185.114	48.554	-0.149	0.138
-184.100	145.667	0.240	0.318
-183.085	175.818	-0.037	0.053
-182.071	184.623	0.156	0.228
-181.056	800.000	-0.119	0.426
-180.042	-94.031	-0.058	0.016
-179.027	624.663	-0.030	-0.075
-178.012	571.502	-0.028	-0.067
-176.998	-200.000	0.015	0.200
-175.983	-200.000	0.007	-0.165
-174.969	-16.101	-0.171	-0.108
-173.954	-38.294	0.137	0.072
-172.939	-200.000	-0.034	0.193
-171.925	-102.749	0.223	-0.052
-170.910	-141.673	0.302	-0.030
-169.896	-64.838	0.113	0.045
-168.881	800.000	-0.124	0.469
-167.866	87.866	0.037	0.040
-166.852	800.000	0.132	0.375
-165.837	-200.000	0.074	-0.449
-164.823	158.111	0.065	-0.089
-163.808	25.742	0.123	-0.102
-162.793	-86.249	-0.207	-0.063
-161.779	776.447	-0.055	0.148
-160.764	81.316	0.135	-0.145
-159.750	377.088	0.045	-0.090
-158.735	-15.445	0.215	0.136
-157.720	800.000	-0.098	0.360
-156.706	-200.000	0.005	-0.045
-155.691	402.462	-0.105	-0.217
-154.677	-200.000	-0.055	0.381
-153.662	800.000	0.096	-0.302
-152.647	800.000	0.019	-0.071
-151.633	353.561	0.167	-0.327
-150.618	-68.551	0.373	-0.143
-149.604	-200.000	0.042	-0.207
-148.589	-5.078	-0.319	-0.217
-147.574	-106.614	-0.381	0.084
-146.560	-77.908	0.167	-0.057
-145.545	320.014	0.167	0.313
-144.531	239.119	-0.144	-0.237
-143.516	-127.993	0.073	-0.010
-142.502	-200.000	0.002	-0.034
-141.487	-200.000	-0.005	-0.221
-140.472	-19.390	-0.235	0.144
-139.458	-134.032	0.187	0.023
-138.443	-166.617	-0.395	0.016
-137.429	591.477	-0.086	-0.210
-136.414	551.908	-0.161	0.383
-135.399	-93.613	-0.336	0.092
-134.385	49.681	0.185	0.172
-133.370	-200.000	-0.002	0.197
-132.356	30.242	-0.152	0.128
-131.341	42.872	0.129	0.116
-130.326	756.316	0.106	-0.282
-129.312	-87.948	-0.067	0.020
-128.297	-200.000	0.058	0.311
-127.283	18.567	0.323	0.255
-126.268	42.204	0.075	0.067
-125.253	-200.000	-0.031	0.186
-124.239	-26.179	-0.127	0.074
-123.224	66.106	0.106	-0.106
-122.210	84.110	0.076	-0.082
-121.195	41.778	0.125	-0.112
-120.180	-200.000	-0.047	-0.207
-119.166	311.846	0.030	0.055
-118.151	-8.985	-0.145	-0.096
-117.137	231.193	0.106	0.171
-116.122	800.000	-0.029	-0.121
-115.107	-149.844	0.141	-0.011
-114.093	-200.000	-0.049	0.248
-113.078	82.870	0.105	-0.112
-112.064	-53.558	-0.236	0.106
-111.049	188.870	0.170	-0.251
-110.034	-175.164	0.052	-0.001
-109.020	427.772	-0.089	-0.189
-108.005	-146.988	0.241	-0.020
-106.991	-26.806	-0.314	-0.181
-105.976	-65.652	0.226	-0.089
-104.962	69.433	0.134	0.136
-103.947	800.000	-0.118	-0.387
-102.932	800.000	0.031	0.120
-101.918	210.418	-0.166	0.257
-100.903	68.808	0.319	0.323
-99.889	-47.548	0.193	0.093
-98.874	-100.535	0.049	0.012
-97.859	800.000	0.035	-0.146
-96.845	794.555	0.106	-0.287
-95.830	363.221	0.103	-0.204
-94.816	142.765	0.190	-0.249
-93.801	800.000	0.150	0.417
-92.786	-18.461	-0.289	-0.178
-91.772	-200.000	-0.017	0.097
-90.757	-94.106	0.071	0.019
-89.743	-106.565	0.096	-0.021
-88.728	-81.656	0.429	0.139
-87.713	-48.632	-0.156	-0.074
-86.699	-76.355	0.027	0.009
-85.684	-27.088	0.137	-0.079
-84.670	158.228	-0.162	0.221
-83.655	-173.960	0.539	0.016
-82.640	176.647	-0.160	-0.229
-81.626	-80.306	-0.234	0.077
-80.611	370.587	-0.102	0.205
-79.597	109.397	0.091	0.107
-78.582	154.882	-0.101	-0.137
-77.567	-200.000	-0.026	-0.251
-76.553	73.671	0.169	0.175
-75.538	-54.798	0.138	0.061
-74.524	48.436	0.230	0.212
-73.509	-30.502	0.134	-0.075
-72.494	71.597	-0.171	0.175
-71.480	-191.511	0.305	0.003
-70.465	-122.795	0.097	0.015
-69.451	-89.326	0.253	-0.073
-68.436	25.713	-0.128	-0.105
-67.422	-107.341	0.275	0.060
-66.407	-64.068	-0.166	0.067
-65.392	-10.746	0.019	0.012
-64.378	-200.000	-0.009	0.363
-63.363	635.521	-0.091	0.228
-62.349	-28.115	0.189	0.108
-61.334	195.821	-0.782	-1.171
-60.319	336.783	0.255	0.488
-59.305	800.000	-0.271	-0.831
-58.290	57.764	0.883	0.850
-57.276	800.000	0.527	1.773
-56.261	-200.000	96.262	601.155
-55.246	655.695	1390.430	3515.228
-54.232	194.785	2570.701	3839.795
-53.217	120.860	2153.203	2635.818
-52.203	44.035	1609.237	1451.963
-51.188	35.307	1344.886	1160.860
-50.173	31.985	1303.892	1105.892
-49.159	54.982	1350.020	1283.194
-48.144	56.871	1366.431	1310.028
-47.130	35.469	1325.917	1145.269
-46.115	32.049	1308.252	1109.790
-45.100	31.766	1303.247	1103.836
-44.086	31.687	1300.698	1101.164
-43.071	31.691	1298.661	1099.423
-42.057	31.547	1296.749	1096.918
-41.042	31.513	1295.120	1095.297
-40.027	31.706	1293.285	1094.830
-39.013	31.720	1291.394	1093.263
-37.998	31.644	1289.769	1091.405
-36.984	31.735	1288.105	1090.480
-35.969	31.743	1286.182	1088.857
-34.954	31.769	1284.589	1087.617
-33.940	31.786	1283.273	1086.559
-32.925	31.897	1281.555	1085.703
-31.911	31.837	1280.290	1084.242
-30.896	31.793	1279.051	1082.892
-29.881	31.811	1277.804	1081.898
-28.867	31.918	1276.141	1081.068
-27.852	31.892	1274.106	1079.150
-26.838	32.137	1272.672	1079.297
-25.823	31.956	1271.490	1077.215
-24.809	31.863	1270.463	1075.769
-23.794	31.888	1269.514	1075.064
-22.779	31.844	1267.988	1073.479
-21.765	31.924	1266.211	1072.386
-20.750	31.898	1264.983	1071.156
-19.736	31.774	1264.080	1069.641
-18.721	31.724	1263.051	1068.446
-17.706	31.637	1261.867	1066.906
-16.692	31.780	1260.327	1066.373
-15.677	31.691	1259.765	1065.348
-14.663	31.585	1258.439	1063.586
-13.648	31.709	1257.036	1063.061
-12.633	31.768	1255.998	1062.472
-11.619	31.660	1255.586	1061.473
-10.604	31.683	1254.492	1060.637
-9.590	31.634	1253.559	1059.528
-8.575	31.754	1252.451	1059.229
-7.560	31.583	1251.819	1057.684
-6.546	31.622	1250.851	1057.047
-5.531	31.603	1250.178	1056.325
-4.517	31.561	1249.175	1055.200
-3.502	31.598	1248.281	1054.614
-2.487	31.660	1247.388	1054.162
-1.473	31.731	1243.233	1051.008
-0.458	30.738	1229.017	1033.439
0.556	26.587	1212.144	999.119
1.571	23.463	1218.049	986.546
2.586	22.519	1233.686	993.803
3.600	21.902	1222.199	981.013
4.615	16.780	1150.752	896.547
5.629	8.709	1077.270	799.085
6.644	5.281	1057.510	767.537
7.659	4.994	1055.063	764.286
8.673	4.907	1053.584	762.721
9.688	4.730	1052.483	760.994
10.702	5.133	1050.703	761.604
11.717	10.135	1057.657	791.099
12.731	17.265	1067.517	833.489
13.746	19.182	1069.503	844.370
14.761	18.081	1067.406	837.249
15.775	17.012	1065.054	830.107
16.790	15.920	1063.137	823.201
17.804	15.198	1061.565	818.388
18.819	15.006	1060.445	816.514
19.834	14.683	1059.391	814.055
20.848	14.355	1058.323	811.566
21.863	14.164	1057.824	810.181
22.877	14.102	1057.105	809.256
23.892	14.106	1055.756	808.171
24.907	14.041	1055.625	807.684
25.921	14.098	1054.106	806.727
26.936	14.065	1053.548	806.069
27.950	14.171	1051.789	805.167
28.965	14.237	1050.085	804.109
29.980	14.348	1048.597	803.433
30.994	14.310	1047.486	802.330
32.009	14.444	1046.298	801.994
33.023	14.262	1045.925	800.761
34.038	14.157	1044.603	799.174
35.053	14.179	1043.827	798.613
36.067	14.183	1042.766	797.752
37.082	14.176	1042.022	797.077
38.096	14.277	1041.244	796.893
39.111	14.216	1040.722	796.135
40.126	14.160	1039.587	794.926
41.140	14.057	1037.896	793.072
42.155	14.021	1036.793	791.988
43.169	13.967	1036.063	791.101
44.184	13.896	1035.082	789.944
45.199	13.950	1033.810	789.162
46.213	14.015	1032.710	788.559
47.228	14.000	1032.085	787.944
48.242	14.074	1030.710	787.174
49.257	14.192	1029.357	786.627
50.271	14.244	1028.602	786.229
51.286	14.190	1027.860	785.338
52.301	14.190	1026.305	784.078
53.315	14.112	1025.775	783.238
54.330	14.047	1024.607	781.971
55.344	14.058	1023.841	781.368
56.359	14.075	1022.978	780.721
57.374	14.028	1022.049	779.720
58.388	13.996	1021.173	778.834
59.403	13.997	1020.475	778.238
60.417	14.037	1019.566	777.664
61.432	13.870	1018.916	776.318
62.447	13.811	1018.504	775.659
63.461	13.941	1016.966	775.027
64.476	13.839	1016.730	774.300
65.490	13.804	1015.928	773.457
66.505	13.971	1014.612	773.165
67.520	13.908	1014.250	772.526
68.534	14.017	1013.798	772.623
69.549	13.803	1013.323	771.200
70.563	13.926	1012.059	770.739
71.578	13.824	1011.771	769.979
72.593	13.786	1010.654	768.885
73.607	13.677	1010.015	767.823
74.622	13.668	1009.766	767.528
75.636	13.843	1008.978	767.669
76.651	13.776	1008.270	766.751
77.666	13.897	1007.271	766.484
78.680	13.858	1006.854	765.916
79.695	13.884	1006.164	765.446
80.709	13.822	1005.735	764.766
81.724	13.937	1004.855	764.557
82.739	14.067	1004.050	764.475
83.753	14.184	1003.096	764.217
84.768	14.361	1002.748	764.700
85.782	14.297	1001.547	763.420
86.797	14.250	1000.700	762.495
87.812	14.167	999.691	761.277
88.826	14.248	998.818	760.916
89.841	14.173	998.221	760.049
90.855	14.205	997.117	759.291
91.870	14.237	996.571	758.953
92.884	14.257	995.590	758.227
93.899	14.250	994.662	757.422
94.914	14.490	993.218	757.347
95.928	14.336	992.885	756.329
96.943	14.285	991.850	755.239
97.957	14.249	991.169	754.490
98.972	14.314	990.180	753.966
99.987	14.187	989.838	753.062
101.001	14.269	988.601	752.428
102.016	14.265	987.897	751.806
103.030	14.213	987.076	750.880
104.045	14.346	985.995	750.589
105.060	14.224	985.100	749.294
106.074	14.040	984.422	747.885
107.089	13.997	983.433	746.875
108.103	14.004	982.341	746.010
109.118	13.951	981.557	745.113
110.133	14.058	980.382	744.630
111.147	13.981	979.944	743.889
112.162	14.038	978.960	743.332
113.176	14.140	978.082	743.056
114.191	14.268	977.234	742.915
115.206	14.233	976.710	742.297
116.220	14.046	976.091	740.928
117.235	14.191	974.415	740.232
118.249	14.253	973.820	739.992
119.264	14.130	973.036	738.784
120.279	14.120	972.438	738.219
121.293	14.075	971.520	737.257
122.308	13.890	971.164	736.104
123.322	14.094	969.507	735.683
124.337	14.135	968.630	735.134
125.352	13.970	967.243	733.288
126.366	13.846	966.891	732.409
127.381	14.010	965.323	731.881
128.395	14.053	964.467	731.357
129.410	14.034	964.131	730.952
130.424	14.080	963.133	730.334
131.439	14.180	962.232	730.025
132.454	14.139	961.378	729.131
133.468	14.264	960.397	728.869
134.483	14.150	960.111	728.092
135.497	14.143	959.152	727.267
136.512	14.195	958.161	726.679
137.527	14.071	957.527	725.595
138.541	14.233	956.633	725.558
139.556	14.225	955.879	724.886
140.570	14.245	955.316	724.485
141.585	14.382	954.536	724.423
142.600	14.323	953.510	723.324
143.614	14.487	952.425	723.149
144.629	14.381	952.038	722.330
145.643	14.305	951.383	721.441
146.658	14.202	950.224	720.051
147.673	14.322	949.216	719.742
148.687	14.156	948.292	718.263
149.702	14.149	947.815	717.806
150.716	14.219	947.040	717.459
151.731	14.213	946.176	716.716
152.746	14.300	945.150	716.248
153.760	14.245	945.027	715.856
154.775	14.346	944.518	715.842
155.789	14.433	943.354	715.269
156.804	14.355	942.732	714.401
157.819	14.491	941.629	714.083
158.833	14.527	941.443	714.035
159.848	14.474	940.715	713.190
160.862	14.576	939.079	712.323
161.877	14.441	938.365	711.145
162.892	14.206	937.692	709.569
163.906	14.254	936.722	708.973
164.921	14.316	935.800	708.480
165.935	14.441	934.991	708.333
166.950	14.461	934.164	707.729
167.964	14.387	932.924	706.414
168.979	14.300	932.583	705.724
169.994	14.410	931.403	705.237
171.008	14.351	930.426	704.184
172.023	14.509	930.343	704.725
173.037	14.572	929.460	704.261
174.052	14.601	928.874	703.878
175.067	14.307	928.330	702.164
176.081	14.292	927.696	701.557
177.096	14.407	927.003	701.458
178.110	14.566	926.299	701.531
179.125	14.479	925.808	700.731
180.140	14.366	925.344	699.844
181.154	14.561	924.835	700.213
182.169	14.647	924.060	699.924
183.183	14.618	923.434	699.269
184.198	14.649	922.848	698.894
185.213	14.659	922.097	698.304
186.227	14.667	921.298	697.669
187.242	14.630	921.271	697.432
188.256	14.787	920.622	697.536
189.271	14.826	919.237	696.587
190.286	14.613	918.315	694.940
191.300	14.450	917.367	693.482
192.315	14.393	917.000	692.907
193.329	14.471	916.360	692.688
194.344	14.552	915.709	692.468
195.359	14.642	915.047	692.282
196.373	14.657	914.840	692.128
197.388	14.779	914.388	692.227
198.402	14.900	913.817	692.233
199.417	14.983	913.177	692.034
200.432	15.019	912.838	691.861
201.446	14.996	912.057	691.113
202.461	15.062	911.988	691.276
203.475	14.973	911.113	690.184
204.490	14.793	910.397	688.837
205.504	14.799	909.603	688.199
206.519	14.946	908.239	687.711
207.534	14.920	907.889	687.279
208.548	14.945	907.316	686.889
209.563	14.964	906.644	686.394
210.577	14.966	906.014	685.867
211.592	15.123	905.326	685.928
212.607	15.067	904.618	685.101
213.621	15.047	903.952	684.454
214.636	15.049	903.345	683.943
215.650	15.138	902.250	683.416
216.665	15.158	901.762	683.070
217.680	15.213	901.403	682.961
218.694	15.376	900.317	682.740
219.709	15.131	899.978	681.426
220.723	15.229	898.853	680.911
221.738	15.199	898.373	680.367
222.753	15.275	897.741	680.137
223.767	15.190	897.664	679.673
224.782	15.316	896.432	679.190
225.796	15.238	896.506	678.869
226.811	15.299	895.897	678.594
227.826	15.265	894.821	677.583
228.840	15.217	893.782	676.544
229.855	15.191	893.219	675.953
230.869	15.250	892.479	675.571
231.884	15.287	891.871	675.198
232.899	15.072	891.261	673.810
233.913	15.193	890.646	673.775
234.928	15.134	889.990	672.978
235.942	15.283	889.305	673.000
236.957	15.251	888.710	672.364
237.972	15.207	888.377	671.875
238.986	15.299	887.390	671.440
240.001	15.320	886.658	670.909
241.015	15.212	886.494	670.295
242.030	15.333	885.578	670.023
243.045	15.344	884.945	669.532
244.059	15.283	884.412	668.823
245.074	15.249	884.324	668.562
246.088	15.311	883.558	668.173
247.103	15.504	882.781	668.294
248.117	15.665	882.003	668.283
249.132	15.668	881.753	668.048
250.147	15.701	881.102	667.628
251.161	15.684	880.558	667.088
252.176	15.844	879.747	667.050
253.190	15.767	879.454	666.462
254.205	15.852	878.732	666.195
255.220	15.771	877.935	665.209
256.234	15.889	876.900	664.835
257.249	15.931	876.311	664.493
258.263	15.889	875.661	663.777
259.278	15.865	875.178	663.255
260.293	15.869	874.954	663.043
261.307	15.936	874.487	662.896
262.322	15.944	873.601	662.197
263.336	15.976	872.925	661.750
264.351	16.061	872.149	661.440
265.366	16.068	871.341	660.793
266.380	15.979	871.098	660.201
267.395	15.934	870.327	659.384
268.409	15.963	869.433	658.760
269.424	16.019	868.613	658.299
270.439	16.051	867.623	657.619
271.453	16.001	867.256	657.085
272.468	15.816	866.862	656.009
273.482	15.973	866.465	656.263
274.497	15.990	865.516	655.552
275.512	15.912	865.389	655.093
276.526	15.905	864.720	654.503
277.541	16.172	864.064	654.981
278.555	16.111	863.492	654.255
279.570	16.134	862.948	653.872
280.585	16.322	862.263	654.026
281.599	16.052	861.430	652.293
282.614	16.095	860.951	652.037
283.628	16.178	860.460	651.929
284.643	16.266	859.703	651.636
285.657	16.192	858.818	650.622
286.672	16.183	858.423	650.231
287.687	16.283	857.420	649.800
288.701	16.190	857.459	649.412
289.716	16.302	856.708	649.218
290.730	16.228	855.961	648.311
291.745	16.269	855.690	648.204
292.760	16.244	855.073	647.583
293.774	16.263	854.525	647.183
294.789	16.319	853.883	646.856
295.803	16.198	853.030	645.691
296.818	16.445	852.091	645.865
297.833	16.197	852.123	644.885
298.847	16.287	851.111	644.406
299.862	16.380	850.735	644.419
300.876	16.396	850.343	644.127
301.891	16.354	849.648	643.382
302.906	16.311	849.107	642.752
303.920	16.517	848.473	642.998
304.935	16.625	848.166	643.119
305.949	16.626	847.282	642.397
306.964	16.730	846.338	642.019
307.979	16.624	846.009	641.311
308.993	16.542	845.716	640.720
310.008	16.651	845.035	640.559
311.022	16.614	844.589	640.024
312.037	16.546	843.789	639.104
313.052	16.494	842.940	638.207
314.066	16.415	842.635	637.624
315.081	16.387	842.201	637.134
316.095	16.562	841.392	637.123
317.110	16.540	841.020	636.705
318.125	16.543	840.575	636.323
319.139	16.563	839.984	635.893
320.154	16.507	839.508	635.266
321.168	16.537	838.929	634.885
322.183	16.629	838.355	634.737
323.197	16.639	837.966	634.425
324.212	16.573	837.652	633.885
325.227	16.680	836.588	633.424
326.241	16.612	836.013	632.676
327.256	16.535	835.620	632.035
328.270	16.596	834.984	631.727
329.285	16.515	834.533	631.030
330.300	16.600	834.183	631.025
331.314	16.684	833.690	630.908
332.329	16.740	833.146	630.649
333.343	16.711	832.606	630.078
334.358	16.879	832.215	630.350
335.373	16.700	832.312	629.703
336.387	16.923	831.702	630.014
337.402	16.939	831.406	629.795
338.416	17.014	830.710	629.488
339.431	16.958	830.451	629.031
340.446	16.951	830.533	629.009
341.460	17.112	829.675	628.901
342.475	17.092	829.410	628.572
343.489	17.163	829.018	628.481
344.504	17.139	828.417	627.878
345.519	17.182	827.971	627.647
346.533	17.251	827.237	627.287
347.548	17.002	827.036	626.160
348.562	16.927	826.266	625.248
349.577	16.902	825.518	624.532
350.592	16.982	824.871	624.283
351.606	17.032	824.263	623.950
352.621	17.017	823.641	623.370
353.635	17.164	822.754	623.182
354.650	17.042	822.637	622.592
355.665	17.192	821.854	622.492
356.679	17.101	821.230	621.635
357.694	17.180	820.639	621.419
358.708	17.243	820.139	621.217
359.723	17.194	819.425	620.442
360.738	17.172	818.815	619.842
361.752	17.189	818.478	619.597
362.767	17.218	818.009	619.292
363.781	17.286	817.470	619.078
364.796	17.373	817.075	619.038
365.810	17.543	816.778	619.378
366.825	17.545	816.268	618.943
367.840	17.379	816.141	618.189
368.854	17.467	815.264	617.789
369.869	17.473	814.970	617.533
370.883	17.441	814.444	616.967
371.898	17.497	813.921	616.718
372.913	17.575	813.687	616.766
373.927	17.594	812.988	616.252
374.942	17.483	812.648	615.540
375.956	17.633	812.232	615.711
376.971	17.756	811.786	615.762
377.986	17.791	811.257	615.433
379.000	17.710	811.033	614.917
380.015	17.774	810.256	614.505
381.029	17.724	809.950	614.035
382.044	17.783	808.844	613.357
383.059	17.876	808.612	613.461
384.073	17.622	808.168	612.155
385.088	17.681	807.375	611.715
386.102	17.839	806.733	611.740
387.117	17.677	806.408	610.858
388.132	17.787	805.522	610.526
389.146	17.790	804.994	610.086
390.161	17.838	805.067	610.257
391.175	17.963	804.409	610.150
392.190	17.888	803.931	609.465
393.205	17.711	803.803	608.682
394.219	17.842	803.191	608.635
395.234	17.830	802.348	607.897
396.248	17.568	802.352	606.915
397.263	17.699	801.888	606.976
398.278	17.732	801.142	606.474
399.292	17.641	800.744	605.796
400.307	17.863	800.361	606.242
401.321	17.769	799.799	605.428
402.336	17.724	799.758	605.185
403.350	17.860	799.238	605.220
404.365	17.903	798.730	604.935
405.380	17.968	798.391	604.853
406.394	17.990	797.664	604.326
407.409	18.071	797.370	604.337
408.423	18.074	797.340	604.270
409.438	18.049	796.941	603.827
410.453	18.151	796.458	603.768
411.467	18.387	795.600	603.898
412.482	18.164	795.778	603.191
413.496	18.244	795.554	603.249
414.511	18.202	794.690	602.395
415.526	18.207	794.364	602.110
416.540	18.165	794.040	601.667
417.555	18.339	793.119	601.524
418.569	18.462	792.623	601.529
419.584	18.326	792.473	600.881
420.599	18.419	791.889	600.711
421.613	155.863	1369.972	1792.548
422.628	134.860	1454.213	1792.628
