DTS Sentinel unit serial number:	SN413079Multiplexer serial number:	ORYXHardware model number:	OX4-SRSoftware version number:	ORYX F/W v4.00 Oryx Data Collector v3.7.2.0data status	okinstallation	princeton_trtdifferential loss correction	single-endedforward channel	channel 1reverse channel	N/Adate	2019/09/12time	18:13:34forward acquisition time	15.00reverse acquisition time	0.00gamma	496.2192k internal	0.2317k external	0.2317temperature offset calibration	1.0105default loss term (dB/km)	0.3790temperature slope calibration	1.0000multiplexer offset coefficient	1.0000multiplexer slope coefficient	1.0000fibre end	0.00T internal ref (°C)	33.56T ext. ref 1 (°C)	2.99T ext. ref 2 (°C)	28.09length (m)	temperature (°C)	Stokes	anti-Stokes-747.200	-158.669	-0.312	0.018
-746.185	800.000	-0.197	0.564
-745.171	75.797	-0.409	0.438
-744.156	-27.133	-0.507	-0.299
-743.142	-67.423	-0.236	-0.094
-742.127	-118.160	-0.546	0.099
-741.112	-6.462	0.652	0.450
-740.098	800.000	-0.090	-0.323
-739.083	-156.864	0.679	-0.042
-738.069	-66.542	-0.504	0.202
-737.054	-43.656	0.738	0.377
-736.039	134.365	-0.347	-0.456
-735.025	78.785	0.413	-0.447
-734.010	-99.213	0.151	0.039
-732.996	-8.613	-0.309	0.210
-731.981	25.907	0.219	0.185
-730.966	-191.000	0.190	-0.002
-729.952	155.810	0.283	-0.394
-728.937	-172.536	0.836	0.027
-727.923	-31.528	-0.352	0.200
-726.908	-138.497	0.543	0.060
-725.894	-59.624	-0.573	-0.249
-724.879	73.106	-0.719	-0.761
-723.864	6.530	-0.329	-0.247
-722.850	219.589	0.291	-0.471
-721.835	-2.106	0.450	-0.320
-720.821	77.506	0.617	0.664
-719.806	-89.660	0.381	0.113
-718.791	-43.886	0.295	0.150
-717.777	-45.197	-0.969	0.487
-716.762	-200.000	-0.126	0.636
-715.748	239.373	0.347	-0.584
-714.733	-200.000	-0.009	-0.404
-713.718	100.946	-0.511	-0.601
-712.704	404.288	0.310	0.661
-711.689	-22.714	-0.244	-0.149
-710.675	-71.598	-0.494	0.187
-709.660	361.328	-0.300	-0.607
-708.645	800.000	0.374	-1.176
-707.631	54.712	-0.276	-0.269
-706.616	34.787	-0.632	0.559
-705.602	-150.382	-0.086	-0.007
-704.587	-163.732	-0.373	-0.018
-703.572	-72.987	-0.277	0.103
-702.558	-200.000	0.099	0.728
-701.543	-200.000	0.121	-0.583
-700.529	800.000	0.158	0.443
-699.514	-200.000	0.026	-0.779
-698.499	131.333	0.339	-0.440
-697.485	-200.000	-0.020	0.377
-696.470	452.339	0.296	-0.663
-695.456	800.000	0.340	1.195
-694.441	-184.674	-0.659	-0.011
-693.426	800.000	-0.156	-0.522
-692.412	-200.000	-0.045	-0.436
-691.397	-58.547	0.399	0.175
-690.383	71.617	0.272	0.285
-689.368	800.000	0.216	0.603
-688.354	800.000	-0.116	0.396
-687.339	800.000	0.160	0.483
-686.324	44.269	-0.325	-0.302
-685.310	-200.000	-0.205	0.976
-684.295	496.979	-0.216	0.501
-683.281	269.661	0.066	0.117
-682.266	-61.693	0.610	-0.258
-681.251	-43.059	1.239	0.634
-680.237	-76.739	-0.321	0.114
-679.222	197.028	-0.178	-0.274
-678.208	45.555	-0.552	-0.515
-677.193	800.000	-0.299	-0.935
-676.178	800.000	-0.123	0.375
-675.164	-7.084	-0.721	0.494
-674.149	-200.000	0.115	0.592
-673.135	800.000	-0.212	-0.654
-672.120	800.000	0.070	-0.215
-671.105	800.000	0.154	0.521
-670.091	206.748	0.088	0.139
-669.076	641.783	-0.187	0.480
-668.062	-45.328	-0.638	-0.320
-667.047	-94.429	0.533	0.147
-666.032	29.291	-0.470	-0.403
-665.018	800.000	0.201	0.589
-664.003	-156.947	0.859	0.053
-662.989	-101.903	-0.466	0.114
-661.974	-99.072	-0.526	0.134
-660.959	-8.763	0.254	-0.172
-659.945	-140.570	0.770	0.081
-658.930	-200.000	0.006	0.900
-657.916	656.160	0.252	0.652
-656.901	-33.149	0.732	0.409
-655.886	-193.085	-0.669	-0.006
-654.872	-55.287	0.351	-0.159
-653.857	-200.000	-0.040	-0.371
-652.843	6.631	-0.781	0.586
-651.828	-54.717	-0.518	-0.236
-650.814	800.000	-0.073	-0.316
-649.799	-40.374	-0.379	-0.199
-648.784	-52.066	-0.785	-0.368
-647.770	-80.781	-0.684	0.229
-646.755	297.748	-0.104	0.192
-645.741	-7.203	-0.270	0.185
-644.726	800.000	-0.123	0.391
-643.711	-113.164	0.551	0.109
-642.697	-89.779	-0.845	0.249
-641.682	542.651	0.258	0.621
-640.668	800.000	-0.189	0.533
-639.653	800.000	-0.103	-0.289
-638.638	-110.810	1.269	0.264
-637.624	86.642	-0.587	-0.652
-636.609	94.620	0.584	-0.669
-635.595	390.299	0.161	0.336
-634.580	115.115	0.041	-0.051
-633.565	26.158	0.991	0.834
-632.551	-64.274	-0.361	0.148
-631.536	-200.000	-0.000	0.031
-630.522	627.036	-0.364	0.926
-629.507	29.153	0.250	0.214
-628.492	-116.566	-0.868	-0.161
-627.478	31.908	0.209	0.181
-626.463	289.447	-0.107	0.195
-625.449	170.710	0.423	0.611
-624.434	800.000	0.129	-0.459
-623.419	39.046	0.445	0.401
-622.405	-92.896	-0.712	0.200
-621.390	-116.817	0.245	-0.045
-620.376	354.912	-0.120	-0.240
-619.361	800.000	0.330	1.131
-618.346	-200.000	0.090	-0.499
-617.332	-45.334	-0.056	-0.028
-616.317	-200.000	-0.235	1.060
-615.303	40.820	0.348	-0.316
-614.288	-52.454	0.942	0.439
-613.273	-39.078	0.467	-0.248
-612.259	76.156	0.338	-0.361
-611.244	72.445	0.688	0.723
-610.230	-100.474	0.540	0.135
-609.215	-77.834	0.638	0.222
-608.201	800.000	-0.227	0.895
-607.186	-26.943	-0.564	-0.332
-606.171	95.141	0.266	0.305
-605.157	388.012	0.496	1.033
-604.142	-131.791	0.685	0.090
-603.128	-100.534	0.430	-0.107
-602.113	-200.000	-0.031	-0.400
-601.098	312.977	-0.443	-0.839
-600.084	35.127	-0.470	0.415
-599.069	679.217	-0.077	-0.201
-598.055	71.320	-0.354	-0.370
-597.040	-7.238	0.196	-0.134
-596.025	800.000	0.107	0.312
-595.011	107.473	-0.693	-0.829
-593.996	-200.000	0.172	-1.069
-592.982	-169.997	0.322	0.012
-591.967	800.000	-0.172	0.607
-590.952	-19.592	0.257	0.160
-589.938	-105.492	0.339	-0.077
-588.923	188.984	0.362	0.545
-587.909	-66.945	0.379	-0.151
-586.894	-126.135	-0.929	0.140
-585.879	-58.059	-0.864	-0.379
-584.865	-200.000	0.065	-0.496
-583.850	-200.000	0.028	0.208
-582.836	-111.013	1.174	0.243
-581.821	-123.513	-0.382	-0.061
-580.806	331.550	-0.086	-0.167
-579.792	-73.723	-0.548	0.201
-578.777	-90.904	0.894	-0.259
-577.763	-161.382	-0.211	0.011
-576.748	800.000	-0.135	-0.594
-575.733	-79.351	0.896	-0.305
-574.719	551.659	-0.169	-0.408
-573.704	46.762	-0.302	0.282
-572.690	37.181	0.297	0.265
-571.675	-9.728	-0.457	-0.306
-570.661	-147.791	0.507	0.043
-569.646	-7.048	-0.818	0.558
-568.631	800.000	-0.047	-0.147
-567.617	-84.806	0.358	-0.113
-566.602	-107.267	0.442	0.098
-565.588	197.271	0.236	-0.362
-564.573	-48.250	-0.171	-0.083
-563.558	-120.520	-0.414	0.071
-562.544	800.000	0.142	0.558
-561.529	-200.000	-0.007	-0.421
-560.515	-47.532	-0.488	0.238
-559.500	-141.547	0.290	-0.029
-558.485	800.000	0.126	0.485
-557.471	125.747	-0.232	-0.294
-556.456	597.314	0.256	-0.637
-555.442	-200.000	-0.064	-0.411
-554.427	-31.690	-0.436	-0.246
-553.412	-60.457	-0.419	0.179
-552.398	13.726	0.360	0.281
-551.383	-91.678	-0.598	-0.171
-550.369	800.000	-0.132	0.381
-549.354	504.365	-0.195	-0.454
-548.339	26.817	-0.266	0.224
-547.325	800.000	-0.125	0.401
-546.310	161.429	1.017	-1.429
-545.296	-44.430	-0.884	-0.444
-544.281	-200.000	0.046	-0.287
-543.266	345.086	0.475	-0.937
-542.252	-200.000	0.095	-1.223
-541.237	-30.365	0.052	0.029
-540.223	-200.000	0.124	-0.604
-539.208	457.994	0.357	-0.797
-538.193	-179.122	-1.234	0.028
-537.179	106.195	0.112	0.133
-536.164	243.310	0.316	0.532
-535.150	165.519	-0.182	-0.259
-534.135	123.669	0.433	-0.546
-533.121	800.000	-0.105	-0.297
-532.106	64.922	-0.434	-0.440
-531.091	-200.000	-0.015	-0.094
-530.077	50.966	0.760	0.723
-529.062	-89.966	-0.640	0.188
-528.048	69.681	-0.599	0.620
-527.033	55.302	0.383	-0.372
-526.018	-154.846	-0.957	0.063
-525.004	-200.000	-0.071	0.557
-523.989	54.050	0.057	-0.055
-522.975	-182.698	0.358	0.007
-521.960	-200.000	0.029	-0.469
-520.945	150.594	-0.466	-0.635
-519.931	-117.879	-0.619	-0.111
-518.916	-15.348	-0.361	-0.231
-517.902	800.000	0.080	0.272
-516.887	-55.939	0.538	0.241
-515.872	-72.738	-1.106	-0.409
-514.858	-200.000	0.032	0.293
-513.843	208.004	-0.174	0.273
-512.829	-87.282	0.353	-0.108
-511.814	800.000	-0.137	0.571
-510.799	210.478	0.317	-0.500
-509.785	-137.770	0.764	-0.086
-508.770	92.591	-0.338	0.383
-507.756	800.000	-0.047	-0.166
-506.741	108.832	0.331	0.397
-505.726	139.099	-0.390	-0.514
-504.712	-66.443	-0.636	-0.253
-503.697	-90.247	-0.784	-0.229
-502.683	800.000	-0.109	-0.302
-501.668	-102.936	0.568	0.135
-500.653	-12.591	-0.149	-0.097
-499.639	224.724	0.309	-0.500
-498.624	-167.553	0.233	0.009
-497.610	-56.545	0.544	0.242
-496.595	4.205	-0.315	0.231
-495.581	-66.467	-0.267	0.106
-494.566	-200.000	0.024	0.505
-493.551	125.343	-0.410	-0.518
-492.537	34.157	0.790	0.691
-491.522	-123.122	0.262	-0.042
-490.508	625.847	0.381	0.963
-489.493	489.557	-0.214	0.491
-488.478	-93.270	0.420	0.117
-487.464	800.000	0.079	0.294
-486.449	-181.791	0.160	0.003
-485.435	4.671	-0.830	0.611
-484.420	800.000	-0.149	-0.539
-483.405	400.586	-0.294	0.619
-482.391	2.769	0.616	-0.448
-481.376	26.049	0.643	-0.538
-480.362	13.841	0.292	-0.227
-479.347	182.766	-0.071	-0.105
-478.332	-123.215	-0.315	-0.051
-477.318	70.296	0.301	0.312
-476.303	175.585	0.345	-0.501
-475.289	771.533	0.133	0.364
-474.274	-200.000	-0.157	1.108
-473.259	166.455	-0.355	-0.504
-472.245	-101.555	-0.468	0.114
-471.230	262.647	-0.310	0.538
-470.216	-200.000	-0.004	0.208
-469.201	25.087	-0.305	-0.254
-468.186	-166.558	-0.558	-0.023
-467.172	800.000	0.201	0.626
-466.157	-200.000	0.116	0.527
-465.143	89.975	-0.459	0.513
-464.128	360.831	0.206	0.413
-463.113	-78.284	-0.446	-0.153
-462.099	401.052	0.276	-0.579
-461.084	166.603	-0.417	-0.592
-460.070	-200.000	0.042	-0.532
-459.055	-200.000	0.085	-0.651
-458.040	-200.000	0.049	0.527
-457.026	-18.710	0.226	0.141
-456.011	598.395	-0.174	-0.432
-454.997	-71.399	-0.900	-0.337
-453.982	-18.986	0.588	-0.366
-452.968	-108.164	-1.208	0.262
-451.953	-68.613	0.428	0.166
-450.938	523.108	0.243	0.572
-449.924	800.000	-0.208	0.783
-448.909	183.520	0.246	0.364
-447.895	39.976	-0.379	0.341
-446.880	-41.915	0.541	0.278
-445.865	426.642	-0.115	0.248
-444.851	-200.000	0.004	0.307
-443.836	47.903	0.256	-0.239
-442.822	77.424	-0.034	-0.037
-441.807	107.240	-0.709	0.843
-440.792	764.765	-0.139	-0.378
-439.778	800.000	-0.218	-0.867
-438.763	-200.000	0.206	1.421
-437.749	494.539	-0.055	-0.127
-436.734	-76.835	-0.437	-0.153
-435.719	-200.000	-0.103	0.579
-434.705	450.212	-0.230	0.507
-433.690	-200.000	-0.048	-0.527
-432.676	-200.000	-0.135	0.698
-431.661	40.673	-0.256	0.231
-430.646	-128.841	0.213	-0.030
-429.632	-73.584	-0.758	-0.276
-428.617	-39.340	0.315	0.165
-427.603	800.000	0.218	0.661
-426.588	140.539	-0.505	0.667
-425.573	448.737	-0.208	-0.458
-424.559	-96.619	0.467	0.123
-423.544	-99.756	0.210	0.053
-422.530	-62.975	0.509	-0.210
-421.515	-113.919	-0.848	-0.165
-420.500	487.563	0.276	0.630
-419.486	-200.000	0.058	-0.259
-418.471	35.418	0.529	0.464
-417.457	352.165	0.255	-0.506
-416.442	-46.022	0.583	-0.287
-415.428	104.343	0.110	-0.129
-414.413	-19.105	-0.453	-0.281
-413.398	-147.483	-0.713	-0.060
-412.384	-129.229	-0.320	0.045
-411.369	-3.566	0.537	0.373
-410.355	144.069	0.256	-0.341
-409.340	-200.000	0.046	-0.719
-408.325	-200.000	-0.065	0.881
-407.311	24.938	-0.740	-0.613
-406.296	354.360	-0.193	-0.383
-405.282	222.968	-0.331	0.534
-404.267	-26.801	0.380	0.222
-403.252	311.000	-0.288	0.539
-402.238	800.000	0.069	-0.221
-401.223	43.226	0.291	-0.265
-400.209	316.886	0.252	-0.475
-399.194	191.860	0.386	-0.581
-398.179	131.360	-0.242	-0.310
-397.165	-1.703	0.108	-0.076
-396.150	-200.000	0.003	-0.881
-395.136	75.604	-0.310	-0.327
-394.121	-200.000	0.053	0.791
-393.106	14.809	0.307	-0.239
-392.092	65.647	-0.076	0.077
-391.077	-40.758	-0.241	0.124
-390.063	-70.367	-0.626	0.237
-389.048	-100.083	-1.370	0.341
-388.033	-72.980	0.361	-0.133
-387.019	144.166	0.055	-0.074
-386.004	296.595	-0.592	-1.084
-384.990	-78.839	-0.679	-0.231
-383.975	-21.821	0.231	0.140
-382.960	290.089	0.295	-0.534
-381.946	-200.000	0.010	-0.174
-380.931	64.080	-0.397	0.398
-379.917	86.175	0.419	-0.460
-378.902	-134.968	-0.590	0.071
-377.888	-18.108	-0.459	0.287
-376.873	60.017	-0.331	0.326
-375.858	-200.000	-0.022	0.158
-374.844	650.896	0.107	-0.274
-373.829	-34.816	-0.841	-0.458
-372.815	-41.707	0.919	0.471
-371.800	-85.987	0.586	-0.181
-370.785	-83.448	-0.471	0.151
-369.771	212.493	0.058	0.092
-368.756	-200.000	0.052	-0.440
-367.742	-150.016	0.749	-0.058
-366.727	-200.000	-0.110	0.599
-365.712	-110.284	0.679	0.141
-364.698	-200.000	0.034	-1.615
-363.683	800.000	-0.088	-0.367
-362.669	-28.318	-0.889	0.512
-361.654	216.050	0.237	-0.376
-360.639	-192.952	0.938	0.008
-359.625	210.703	0.370	0.580
-358.610	-200.000	0.010	0.565
-357.596	-134.480	0.361	-0.044
-356.581	-200.000	0.152	-0.979
-355.566	-52.813	-0.054	-0.025
-354.552	59.407	-0.099	-0.097
-353.537	-112.056	-0.727	-0.146
-352.523	480.201	0.206	-0.465
-351.508	-43.633	0.816	-0.411
-350.493	-200.000	0.099	0.826
-349.479	-6.714	0.372	-0.252
-348.464	-75.338	0.942	-0.335
-347.450	800.000	-0.053	-0.196
-346.435	19.541	0.100	0.080
-345.420	649.127	-0.226	0.577
-344.406	457.131	0.134	0.297
-343.391	-31.486	-0.484	-0.271
-342.377	217.922	0.153	-0.243
-341.362	138.982	-0.205	0.268
-340.348	-39.584	-0.544	-0.284
-339.333	300.743	-0.287	-0.528
-338.318	272.855	-0.256	0.451
-337.304	-200.000	-0.072	0.961
-336.289	-200.000	-0.023	0.128
-335.275	459.648	-0.057	0.126
-334.260	-200.000	-0.132	0.001
-333.245	615.066	0.227	-0.566
-332.231	210.978	0.309	0.483
-331.216	-88.242	0.305	0.091
-330.202	145.888	-0.076	0.101
-329.187	-200.000	0.028	-0.203
-328.172	-68.000	-0.200	-0.078
-327.158	361.288	0.558	1.114
-326.143	168.893	-0.301	-0.428
-325.129	330.088	0.068	0.131
-324.114	27.266	0.636	0.532
-323.099	-98.549	-0.889	-0.226
-322.085	90.809	0.422	-0.471
-321.070	-200.000	-0.151	-0.760
-320.056	300.343	0.464	0.853
-319.041	-200.000	0.012	0.162
-318.026	-200.000	0.112	0.804
-317.012	-165.100	0.353	0.016
-315.997	-132.564	0.091	0.012
-314.983	-12.743	0.242	0.157
-313.968	-200.000	0.068	-0.368
-312.953	-75.319	0.476	0.169
-311.939	324.107	-0.396	-0.753
-310.924	-200.000	0.059	0.318
-309.910	-49.888	0.799	0.378
-308.895	800.000	0.105	0.292
-307.880	210.683	-0.456	-0.714
-306.866	461.029	-0.101	-0.224
-305.851	194.504	0.326	-0.492
-304.837	-8.143	-0.352	0.236
-303.822	119.379	-0.339	-0.418
-302.807	-40.286	0.296	-0.153
-301.793	292.448	0.270	-0.489
-300.778	99.093	-0.495	-0.569
-299.764	30.904	0.473	-0.403
-298.749	-165.474	-0.548	0.024
-297.735	800.000	-0.216	0.834
-296.720	-146.798	0.196	-0.017
-295.705	659.955	0.211	0.541
-294.691	-200.000	-0.106	0.858
-293.676	296.295	0.240	0.438
-292.662	-155.212	-0.367	-0.024
-291.647	63.085	-0.579	0.577
-290.632	-126.751	0.242	0.036
-289.618	-14.086	-0.320	0.205
-288.603	75.112	0.233	-0.245
-287.589	800.000	-0.110	-0.453
-286.574	163.735	0.760	1.064
-285.559	-110.895	0.318	-0.065
-284.545	800.000	-0.236	-0.852
-283.530	-200.000	-0.036	-0.293
-282.516	80.086	0.161	0.172
-281.501	398.341	-0.092	-0.192
-280.486	189.805	-0.234	0.349
-279.472	-75.138	0.706	0.251
-278.457	-60.002	0.434	-0.184
-277.443	-200.000	-0.001	0.167
-276.428	51.305	-0.739	-0.697
-275.413	399.188	0.282	0.587
-274.399	-104.692	-0.270	-0.062
-273.384	105.777	0.724	-0.851
-272.370	800.000	-0.005	0.014
-271.355	-33.176	0.510	0.281
-270.340	153.096	0.137	-0.186
-269.326	217.553	0.341	0.540
-268.311	800.000	-0.065	0.223
-267.297	800.000	0.114	-0.367
-266.282	-64.731	-0.897	-0.361
-265.267	389.911	-0.486	1.002
-264.253	98.796	-0.352	-0.404
-263.238	-17.385	-0.512	0.321
-262.224	-34.163	0.205	0.112
-261.209	-16.013	-0.161	0.102
-260.195	451.852	0.245	-0.538
-259.180	464.805	-0.336	0.747
-258.165	-87.867	-0.352	-0.105
-257.151	3.318	0.151	-0.109
-256.136	658.401	0.141	0.361
-255.122	-200.000	-0.075	0.432
-254.107	-35.133	-0.154	-0.084
-253.092	-115.868	-0.309	0.057
-252.078	-123.264	0.333	0.053
-251.063	-94.284	0.342	-0.093
-250.049	-47.402	0.769	0.371
-249.034	415.708	-0.127	0.270
-248.019	800.000	-0.158	-0.575
-247.005	613.412	-0.128	-0.318
-245.990	-200.000	-0.052	0.519
-244.976	-125.560	-0.637	0.096
-243.961	-86.896	0.291	0.088
-242.946	625.073	-0.186	0.465
-241.932	800.000	-0.218	-0.713
-240.917	800.000	-0.083	0.237
-239.903	-200.000	-0.124	0.788
-238.888	-165.867	-0.307	0.013
-237.873	168.035	0.484	-0.683
-236.859	800.000	-0.104	-0.296
-235.844	-92.531	0.352	-0.098
-234.830	339.074	-0.112	0.217
-233.815	247.600	-0.355	0.596
-232.800	-11.338	0.761	-0.498
-231.786	-121.315	-0.118	-0.019
-230.771	246.719	-0.329	-0.550
-229.757	43.074	-0.222	0.201
-228.742	-200.000	-0.076	-0.358
-227.727	-20.031	0.367	0.225
-226.713	-55.667	-0.389	-0.173
-225.698	67.948	0.458	-0.464
-224.684	-200.000	-0.011	-0.517
-223.669	91.049	0.721	0.802
-222.655	603.492	-0.351	-0.866
-221.640	28.413	-0.359	-0.301
-220.625	800.000	0.326	1.372
-219.611	800.000	0.223	-0.932
-218.596	440.048	0.225	0.488
-217.582	-16.399	-0.494	-0.311
-216.567	800.000	0.244	0.805
-215.552	-200.000	-0.106	1.223
-214.538	800.000	0.123	-0.460
-213.523	-200.000	0.030	-0.272
-212.509	-94.923	0.786	-0.211
-211.494	800.000	-0.125	0.494
-210.479	246.504	0.117	-0.196
-209.465	60.619	-0.600	-0.589
-208.450	-200.000	-0.133	-0.678
-207.436	187.293	-0.064	0.094
-206.421	34.085	0.336	-0.290
-205.406	-200.000	-0.106	0.570
-204.392	800.000	0.038	0.122
-203.377	-105.857	-0.650	-0.145
-202.363	313.799	0.321	-0.600
-201.348	-200.000	0.013	-0.261
-200.333	-85.547	0.795	0.245
-199.319	37.109	-0.309	0.271
-198.304	-3.093	-0.242	0.167
-197.290	6.507	0.178	0.131
-196.275	-166.779	0.454	0.019
-195.260	-200.000	-0.116	-0.530
-194.246	-53.997	0.454	0.205
-193.231	125.041	0.026	-0.033
-192.217	69.933	0.917	-0.937
-191.202	-200.000	-0.024	-0.627
-190.187	-111.193	0.492	0.100
-189.173	89.715	0.436	-0.482
-188.158	282.448	0.037	-0.066
-187.144	14.140	-0.945	0.729
-186.129	-94.557	-0.703	0.189
-185.114	-174.769	-0.625	-0.017
-184.100	188.420	0.112	-0.166
-183.085	31.012	0.040	-0.034
-182.071	800.000	-0.098	0.329
-181.056	-98.415	0.667	0.169
-180.042	-64.612	0.169	0.068
-179.027	-60.133	-0.127	-0.054
-178.012	106.287	0.615	-0.721
-176.998	-200.000	0.103	-0.990
-175.983	354.210	0.072	-0.141
-174.969	-59.790	-0.827	-0.351
-173.954	18.743	0.642	0.509
-172.939	-20.182	0.452	0.276
-171.925	102.952	-0.480	-0.557
-170.910	68.969	-0.396	-0.403
-169.896	-136.477	0.748	0.086
-168.881	-200.000	0.053	-0.835
-167.866	25.444	-0.020	0.017
-166.852	201.282	0.298	-0.455
-165.837	108.702	0.311	-0.368
-164.823	741.542	0.144	-0.382
-163.808	8.548	-0.077	-0.057
-162.793	-169.418	-0.227	0.008
-161.779	141.670	-0.308	0.404
-160.764	-2.675	-0.644	-0.446
-159.750	-200.000	0.104	1.286
-158.735	-27.308	-0.378	0.218
-157.720	-12.974	-0.033	-0.021
-156.706	-85.913	0.840	-0.257
-155.691	-36.200	0.113	0.060
-154.677	-144.809	-0.665	0.060
-153.662	800.000	-0.232	-0.759
-152.647	-200.000	0.093	0.454
-151.633	330.956	0.226	0.431
-150.618	-132.357	-0.785	0.100
-149.604	-62.207	0.263	-0.109
-148.589	-200.000	0.062	0.299
-147.574	-34.336	0.329	-0.178
-146.560	-45.449	-0.110	0.054
-145.545	208.654	0.445	-0.689
-144.531	26.182	0.469	-0.387
-143.516	-97.179	-0.391	0.101
-142.502	-50.915	-0.102	-0.048
-141.487	172.511	-0.243	-0.346
-140.472	-200.000	-0.088	-0.639
-139.458	-158.047	0.240	-0.014
-138.443	136.926	-0.473	0.611
-137.429	141.991	-0.236	0.310
-136.414	-0.239	0.843	0.593
-135.399	91.485	-0.510	0.567
-134.385	22.734	-0.631	0.511
-133.370	38.206	0.753	0.663
-132.356	11.084	-0.494	-0.374
-131.341	25.506	-0.280	-0.231
-130.326	-124.075	1.304	-0.202
-129.312	104.360	0.401	-0.466
-128.297	-78.886	0.821	0.277
-127.283	-81.063	-0.525	-0.172
-126.268	-73.012	0.573	0.208
-125.253	3.821	0.174	-0.126
-124.239	403.063	0.162	-0.336
-123.224	-15.634	0.875	0.552
-122.210	37.213	-0.723	-0.632
-121.195	-99.172	0.404	0.101
-120.180	-49.404	0.263	0.124
-119.166	-200.000	-0.040	-0.206
-118.151	-167.885	-0.396	-0.015
-117.137	-102.784	-0.495	0.116
-116.122	-200.000	-0.057	-0.825
-115.107	-75.900	-0.678	0.237
-114.093	11.558	0.440	-0.333
-113.078	-85.170	-0.526	-0.162
-112.064	134.478	-0.503	0.645
-111.049	56.366	0.550	-0.528
-110.034	48.936	-0.378	0.350
-109.020	-110.823	0.398	0.081
-108.005	-200.000	-0.041	0.473
-106.991	-45.149	-0.328	0.161
-105.976	23.362	-0.243	0.197
-104.962	-54.098	1.083	-0.486
-103.947	-94.025	0.219	-0.059
-102.932	-200.000	0.032	0.743
-101.918	-49.921	0.253	0.118
-100.903	0.552	-0.435	-0.307
-99.889	479.462	0.276	-0.619
-98.874	-101.629	0.746	-0.179
-97.859	770.954	0.163	-0.437
-96.845	-2.277	-0.470	0.326
-95.830	12.772	-0.428	0.327
-94.816	800.000	0.134	-0.422
-93.801	138.480	0.511	0.662
-92.786	288.002	0.260	-0.465
-91.772	137.443	0.539	0.696
-90.757	-89.077	0.954	0.278
-89.743	-47.037	0.530	-0.255
-88.728	-2.621	0.308	0.213
-87.713	-85.000	-0.429	0.133
-86.699	150.175	0.967	1.295
-85.684	-200.000	0.017	-0.703
-84.670	-105.107	0.624	0.141
-83.655	-32.805	-0.315	-0.173
-82.640	-78.403	-0.343	0.116
-81.626	-200.000	0.023	-0.114
-80.611	-200.000	-0.160	-1.093
-79.597	-200.000	0.130	0.584
-78.582	97.463	-0.332	-0.376
-77.567	-200.000	-0.194	-0.870
-76.553	-47.433	0.283	-0.136
-75.538	86.797	-0.399	-0.434
-74.524	26.808	0.586	-0.484
-73.509	-58.539	-0.246	0.105
-72.494	800.000	-0.216	-0.601
-71.480	-121.859	1.257	-0.204
-70.465	-200.000	0.021	-0.173
-69.451	-200.000	-0.065	-0.599
-68.436	31.095	-0.559	0.472
-67.422	-200.000	0.044	-0.249
-66.407	196.268	-0.316	-0.475
-65.392	119.415	-0.372	-0.454
-64.378	103.115	0.378	-0.437
-63.363	-68.440	-0.647	0.248
-62.349	-127.745	-0.902	0.128
-61.334	97.253	-1.055	-1.194
-60.319	43.036	0.277	0.249
-59.305	-167.184	-0.538	-0.021
-58.290	-200.000	0.105	0.945
-57.276	475.469	0.744	1.657
-56.261	-200.000	97.896	570.886
-55.246	624.827	1376.808	3421.365
-54.232	198.339	2546.830	3839.062
-53.217	117.333	2134.029	2585.754
-52.203	44.819	1600.833	1451.626
-51.188	37.120	1339.983	1168.887
-50.173	33.761	1298.662	1113.142
-49.159	57.020	1347.434	1294.224
-48.144	58.555	1363.939	1319.168
-47.130	37.259	1322.436	1154.223
-46.115	33.527	1305.193	1117.185
-45.100	33.568	1299.473	1112.482
-44.086	33.581	1296.709	1110.147
-43.071	33.227	1295.956	1107.388
-42.057	33.473	1292.352	1105.702
-41.042	33.273	1291.625	1103.866
-40.027	33.448	1290.307	1103.717
-39.013	33.497	1288.027	1102.008
-37.998	33.532	1285.899	1100.350
-36.984	33.642	1283.353	1098.764
-35.969	33.604	1282.691	1097.931
-34.954	33.655	1281.050	1096.779
-33.940	33.717	1279.230	1095.536
-32.925	33.697	1277.927	1094.258
-31.911	33.592	1276.929	1092.757
-30.896	33.528	1276.461	1091.943
-29.881	33.585	1275.563	1091.460
-28.867	33.746	1273.279	1090.388
-27.852	33.524	1272.950	1088.789
-26.838	33.671	1270.323	1087.341
-25.823	33.716	1269.380	1086.751
-24.809	33.690	1268.020	1085.395
-23.794	33.674	1266.423	1083.894
-22.779	33.839	1263.916	1082.642
-21.765	33.532	1264.398	1081.260
-20.750	33.391	1263.508	1079.657
-19.736	33.747	1261.168	1079.639
-18.721	33.339	1261.108	1077.220
-17.706	33.653	1259.435	1077.534
-16.692	33.336	1257.803	1074.295
-15.677	33.687	1255.892	1074.609
-14.663	33.299	1255.527	1072.058
-13.648	33.438	1254.959	1072.316
-12.633	33.154	1254.874	1070.591
-11.619	33.510	1253.353	1071.267
-10.604	33.759	1250.601	1070.278
-9.590	33.464	1251.231	1069.109
-8.575	33.624	1250.260	1069.137
-7.560	33.657	1248.412	1067.703
-6.546	33.545	1248.087	1066.753
-5.531	33.305	1248.614	1065.807
-4.517	33.410	1246.177	1064.275
-3.502	33.653	1245.431	1064.958
-2.487	33.392	1245.731	1063.709
-1.473	33.477	1241.837	1060.815
-0.458	31.815	1226.795	1038.728
0.556	29.102	1207.959	998.986
1.571	24.847	1213.570	980.286
2.586	24.015	1228.174	987.379
3.600	23.273	1218.114	975.118
4.615	17.494	1145.610	886.981
5.629	7.749	1068.834	779.873
6.644	3.548	1048.077	744.423
7.659	2.931	1046.347	740.157
8.673	2.922	1043.770	738.225
9.688	2.564	1043.664	736.365
10.702	3.283	1041.912	738.513
11.717	9.406	1049.958	773.670
12.731	19.134	1063.631	830.846
13.746	24.812	1069.793	863.061
14.761	25.923	1072.285	870.363
15.775	26.116	1072.097	871.062
16.790	25.870	1071.476	869.297
17.804	25.613	1070.718	867.363
18.819	25.703	1070.219	867.317
19.834	26.028	1069.741	868.419
20.848	26.188	1069.211	868.679
21.863	25.951	1068.997	867.290
22.877	26.079	1068.159	867.148
23.892	26.167	1067.050	866.592
24.907	25.841	1066.729	864.692
25.921	25.851	1065.198	863.420
26.936	26.130	1063.056	862.944
27.950	25.876	1063.680	862.156
28.965	25.808	1061.787	860.225
29.980	25.843	1059.908	858.791
30.994	26.083	1058.989	859.116
32.009	25.679	1058.870	857.017
33.023	25.995	1057.040	856.961
34.038	26.008	1056.070	856.163
35.053	26.172	1055.192	856.153
36.067	25.976	1053.852	854.060
37.082	26.116	1053.449	854.324
38.096	26.417	1053.076	855.368
39.111	26.245	1051.990	853.598
40.126	26.071	1051.397	852.219
41.140	25.771	1049.767	849.409
42.155	25.528	1048.328	847.023
43.169	25.657	1046.857	846.369
44.184	25.952	1045.899	846.904
45.199	25.559	1044.904	844.177
46.213	25.394	1044.869	843.299
47.228	25.596	1044.554	843.918
48.242	25.972	1043.700	844.915
49.257	25.989	1042.393	843.865
50.271	26.073	1042.319	844.123
51.286	26.060	1041.207	843.085
52.301	26.028	1040.324	842.145
53.315	26.183	1038.441	841.272
54.330	25.977	1038.414	840.212
55.344	26.131	1037.581	840.185
56.359	25.998	1037.626	839.525
57.374	25.916	1035.818	837.609
58.388	25.974	1036.001	837.953
59.403	25.670	1034.179	834.992
60.417	25.640	1033.072	833.887
61.432	25.657	1033.331	834.101
62.447	25.778	1032.544	833.951
63.461	26.012	1031.530	834.142
64.476	25.780	1030.286	831.992
65.490	25.707	1029.201	830.705
66.505	25.910	1028.353	830.881
67.520	25.999	1027.251	830.327
68.534	25.556	1027.108	828.099
69.549	25.319	1026.982	826.831
70.563	25.371	1025.253	825.605
71.578	25.514	1024.621	825.681
72.593	24.968	1023.567	822.254
73.607	25.293	1022.880	823.117
74.622	25.704	1022.365	824.517
75.636	25.638	1022.708	824.418
76.651	25.604	1020.857	822.694
77.666	25.501	1021.265	822.482
78.680	25.428	1020.334	821.326
79.695	25.530	1019.241	820.839
80.709	25.447	1019.275	820.412
81.724	25.646	1017.525	819.837
82.739	25.828	1016.929	820.113
83.753	26.041	1016.524	820.686
84.768	26.370	1016.767	822.303
85.782	26.491	1015.622	821.857
86.797	26.328	1014.880	820.445
87.812	26.045	1013.396	817.889
88.826	26.152	1013.043	818.017
89.841	26.243	1012.282	817.741
90.855	26.482	1010.615	817.404
91.870	26.189	1009.792	815.340
92.884	26.314	1007.849	814.262
93.899	26.309	1006.516	813.093
94.914	26.478	1007.019	814.187
95.928	26.627	1004.642	812.863
96.943	25.942	1004.989	809.996
97.957	25.667	1003.367	807.380
98.972	25.742	1001.602	806.224
99.987	25.913	1001.611	806.925
101.001	26.036	1001.219	807.092
102.016	26.214	1000.253	807.035
103.030	26.237	998.909	805.982
104.045	26.030	998.367	804.549
105.060	25.956	997.463	803.422
106.074	25.697	997.504	802.231
107.089	26.337	996.356	804.085
108.103	26.204	994.416	801.858
109.118	25.661	994.506	799.444
110.133	26.049	993.107	799.973
111.147	25.582	992.630	797.446
112.162	25.513	990.149	795.079
113.176	26.262	989.225	797.571
114.191	25.442	990.483	794.888
115.206	25.198	989.343	792.828
116.220	25.487	987.951	792.918
117.235	25.703	986.877	792.936
118.249	25.438	986.302	791.235
119.264	25.378	985.460	790.226
120.279	25.801	984.719	791.424
121.293	25.832	984.203	791.075
122.308	26.182	982.475	791.149
123.322	25.648	982.470	788.734
124.337	25.269	980.916	785.758
125.352	24.936	979.897	783.415
126.366	24.827	978.386	781.664
127.381	25.495	978.263	784.412
128.395	25.932	977.700	785.794
129.410	26.085	977.935	786.582
130.424	25.876	977.833	785.518
131.439	25.824	975.386	783.259
132.454	26.038	974.420	783.342
133.468	26.004	973.742	782.581
134.483	26.180	973.953	783.444
135.497	26.313	973.078	783.248
136.512	26.430	971.797	782.656
137.527	26.184	971.962	781.652
138.541	26.792	969.957	782.595
139.556	26.192	969.777	779.793
140.570	26.051	970.278	779.516
141.585	26.464	968.641	779.915
142.600	26.348	967.368	778.323
143.614	26.284	965.720	776.650
144.629	26.790	966.090	779.054
145.643	26.494	964.723	776.613
146.658	26.532	962.510	774.925
147.673	26.252	962.306	773.493
148.687	26.291	960.677	772.283
149.702	26.333	960.427	772.193
150.716	26.277	959.777	771.363
151.731	26.207	959.564	770.824
152.746	26.360	958.574	770.614
153.760	26.610	956.490	769.932
154.775	26.228	958.122	769.553
155.789	26.507	956.026	768.984
156.804	26.649	954.464	768.265
157.819	26.255	955.470	767.332
158.833	26.397	955.252	767.692
159.848	26.771	952.195	766.750
160.862	26.570	951.505	765.276
161.877	26.729	950.868	765.370
162.892	26.365	950.257	763.273
163.906	26.602	948.424	762.732
164.921	26.290	948.644	761.524
165.935	26.714	947.833	762.594
166.950	26.633	946.637	761.222
167.964	26.336	946.381	759.703
168.979	26.213	944.891	757.921
169.994	26.321	942.916	756.723
171.008	26.604	942.985	757.897
172.023	26.187	943.299	756.334
173.037	26.161	941.073	754.375
174.052	26.257	940.805	754.493
175.067	26.135	940.253	753.475
176.081	26.224	939.165	752.907
177.096	26.439	938.506	753.206
178.110	26.271	937.146	751.351
179.125	25.769	937.734	749.669
180.140	26.061	936.246	749.626
181.154	25.885	936.753	749.233
182.169	26.353	935.917	750.440
183.183	26.485	936.034	751.017
184.198	26.273	934.679	748.984
185.213	26.422	933.773	748.809
186.227	26.437	933.303	748.429
187.242	26.454	933.193	748.344
188.256	26.722	932.413	748.761
189.271	26.571	931.533	747.363
190.286	26.383	929.939	745.244
191.300	26.037	928.468	742.574
192.315	24.880	927.767	737.186
193.329	24.800	927.828	736.839
194.344	25.798	928.008	741.026
195.359	26.692	927.494	744.224
196.373	26.367	927.051	742.467
197.388	26.536	926.652	742.777
198.402	26.275	926.077	741.181
199.417	26.408	925.306	741.042
200.432	26.601	923.443	740.276
201.446	25.990	923.576	737.814
202.461	26.459	922.712	738.975
203.475	25.342	921.447	733.341
204.490	24.807	919.574	729.604
205.504	25.402	920.418	732.637
206.519	26.001	920.261	734.889
207.534	25.849	920.110	734.082
208.548	26.517	919.371	736.145
209.563	26.068	918.201	733.320
210.577	26.175	918.896	734.247
211.592	26.770	917.064	735.130
212.607	26.819	917.182	735.359
213.621	26.528	917.089	734.039
214.636	26.218	916.051	731.885
215.650	26.601	913.571	731.389
216.665	26.690	914.852	732.710
217.680	26.866	912.786	731.697
218.694	26.100	912.482	728.300
219.709	25.997	912.373	727.735
220.723	26.389	911.334	728.419
221.738	26.136	910.915	727.003
222.753	26.835	909.166	728.351
223.767	26.384	909.700	726.900
224.782	26.481	909.934	727.412
225.796	26.736	908.645	727.341
226.811	25.886	908.103	723.435
227.826	25.414	906.238	719.993
228.840	25.637	905.308	720.081
229.855	25.697	904.747	719.814
230.869	25.450	903.254	717.577
231.884	26.020	903.836	720.252
232.899	26.527	904.121	722.438
233.913	26.369	903.042	720.881
234.928	26.272	902.268	719.813
235.942	26.176	902.476	719.532
236.957	25.887	901.625	717.640
237.972	26.223	900.049	717.659
238.986	26.053	899.549	716.520
240.001	25.991	899.642	716.283
241.015	26.284	899.296	717.110
242.030	26.307	898.438	716.455
243.045	26.550	897.951	716.966
244.059	26.667	897.773	717.223
245.074	26.365	897.017	715.360
246.088	26.073	895.519	712.949
247.103	26.625	894.688	714.401
248.117	26.988	895.490	716.414
249.132	27.202	896.161	717.730
250.147	27.492	895.046	717.916
251.161	27.501	894.084	717.118
252.176	27.145	894.038	715.614
253.190	27.599	893.075	716.567
254.205	27.452	893.298	716.104
255.220	27.556	892.012	715.418
256.234	27.176	890.587	712.724
257.249	27.000	890.430	711.844
258.263	27.244	889.598	712.070
259.278	27.190	890.371	712.413
260.293	27.284	889.012	711.633
261.307	27.376	888.331	711.382
262.322	27.249	886.726	709.538
263.336	26.405	885.900	705.526
264.351	25.386	883.924	699.922
265.366	25.493	883.999	700.335
266.380	26.633	883.732	704.499
267.395	27.055	883.710	706.061
268.409	27.065	883.354	705.752
269.424	27.099	883.402	705.861
270.439	27.472	881.079	705.387
271.453	27.297	882.677	705.926
272.468	27.062	882.106	704.494
273.482	27.622	880.577	705.377
274.497	27.250	879.899	703.332
275.512	26.463	879.258	699.714
276.526	27.391	878.562	702.683
277.541	27.157	878.118	701.363
278.555	26.521	878.172	698.892
279.570	26.963	876.687	699.349
280.585	27.527	875.159	700.239
281.599	27.195	876.256	699.777
282.614	26.201	875.270	695.103
283.628	26.360	874.277	694.865
284.643	26.671	873.864	695.669
285.657	26.092	872.879	692.600
286.672	26.328	871.699	692.507
287.687	26.858	871.198	694.079
288.701	26.767	870.960	693.477
289.716	26.449	870.436	691.783
290.730	26.768	868.859	691.686
291.745	26.269	868.570	689.491
292.760	26.583	868.341	690.446
293.774	27.651	869.535	695.410
294.789	27.647	868.800	694.745
295.803	27.659	867.430	693.634
296.818	27.468	867.644	693.019
297.833	27.303	865.814	690.868
298.847	26.882	866.368	689.649
299.862	27.440	866.073	691.475
300.876	27.854	865.832	692.792
301.891	27.637	864.924	691.181
302.906	27.129	863.780	688.280
303.920	27.253	863.811	688.713
304.935	28.011	862.866	690.765
305.949	27.688	861.936	688.739
306.964	27.272	861.227	686.545
307.979	27.455	861.731	687.575
308.993	27.977	860.669	688.634
310.008	27.736	860.952	687.891
311.022	27.511	859.812	686.074
312.037	27.718	858.467	685.718
313.052	27.235	857.412	683.000
314.066	26.128	856.325	677.919
315.081	26.211	855.084	677.189
316.095	26.586	855.964	679.231
317.110	26.987	855.922	680.642
318.125	26.414	854.258	677.116
319.139	25.762	852.377	673.126
320.154	25.543	853.505	673.138
321.168	26.378	853.212	675.972
322.183	27.151	853.126	678.730
323.197	27.089	853.510	678.747
324.212	27.005	853.135	678.072
325.227	27.097	851.533	677.083
326.241	27.195	851.495	677.358
327.256	27.069	850.574	676.097
328.270	27.093	849.793	675.503
329.285	26.851	848.702	673.680
330.300	26.576	848.693	672.592
331.314	27.081	848.240	674.047
332.329	27.614	848.059	675.818
333.343	27.985	846.734	676.075
334.358	27.814	847.436	675.946
335.373	27.740	846.628	674.967
336.387	27.794	847.406	675.728
337.402	28.067	847.485	676.740
338.416	27.952	846.423	675.408
339.431	28.219	845.942	675.951
340.446	28.397	845.540	676.225
341.460	28.068	845.153	674.642
342.475	27.787	844.636	673.134
343.489	28.279	843.987	674.372
344.504	28.396	843.837	674.620
345.519	28.186	844.293	674.152
346.533	27.996	843.758	672.967
347.548	28.092	842.988	672.645
348.562	28.291	842.222	672.707
349.577	28.150	841.095	671.229
350.592	28.338	840.401	671.306
351.606	28.303	839.880	670.700
352.621	28.008	839.184	669.005
353.635	28.176	838.328	668.879
354.650	27.452	837.066	665.171
355.665	26.388	835.941	660.335
356.679	26.772	835.126	661.030
357.694	27.460	834.776	663.201
358.708	27.284	834.891	662.594
359.723	27.562	834.978	663.617
360.738	27.495	835.371	663.626
361.752	28.131	833.921	664.729
362.767	28.309	833.414	664.913
363.781	28.365	833.344	665.000
364.796	28.946	832.320	666.228
365.810	28.454	833.229	665.116
366.825	29.103	831.167	665.758
367.840	28.178	831.000	662.217
368.854	28.299	829.875	661.700
369.869	28.083	829.519	660.579
370.883	28.059	829.351	660.300
371.898	27.791	829.374	659.289
372.913	27.906	829.562	659.798
373.927	28.167	827.548	659.077
374.942	28.409	827.788	660.081
375.956	28.300	827.962	659.769
376.971	28.181	827.467	658.889
377.986	28.232	827.527	659.061
379.000	28.375	826.467	658.675
380.015	28.299	825.274	657.390
381.029	28.315	824.789	657.003
382.044	28.737	824.462	658.196
383.059	28.961	823.668	658.308
384.073	28.885	823.878	658.145
385.088	28.495	823.521	656.407
386.102	28.553	822.387	655.651
387.117	28.556	820.399	654.018
388.132	28.472	819.314	652.798
389.146	27.860	819.306	650.552
390.161	28.405	818.298	651.635
391.175	28.752	818.353	652.853
392.190	27.922	818.215	649.735
393.205	26.965	816.574	644.974
394.219	25.043	814.458	636.431
395.234	24.993	814.650	636.346
396.248	27.004	814.815	643.554
397.263	28.461	816.198	649.757
398.278	28.033	816.181	648.170
399.292	27.807	815.402	646.694
400.307	27.869	814.423	646.079
401.321	28.290	814.456	647.535
402.336	28.155	815.110	647.522
403.350	28.704	814.406	648.845
404.365	29.172	814.230	650.301
405.380	29.565	813.352	650.928
406.394	29.562	813.629	651.083
407.409	29.460	813.031	650.185
408.423	29.189	812.370	648.646
409.438	29.334	812.597	649.282
410.453	29.496	811.743	649.109
411.467	29.356	811.425	648.305
412.482	29.397	810.958	648.018
413.496	29.292	810.405	647.151
414.511	29.144	809.920	646.189
415.526	29.920	808.626	647.815
416.540	29.365	808.547	645.752
417.555	29.028	807.787	643.908
418.569	29.270	807.312	644.319
419.584	29.213	807.144	643.930
420.599	29.084	806.012	642.520
421.613	159.657	1371.058	1793.402
422.628	138.763	1453.369	1793.507
