DTS Sentinel unit serial number:	SN413079Multiplexer serial number:	ORYXHardware model number:	OX4-SRSoftware version number:	ORYX F/W v4.00 Oryx Data Collector v3.7.2.0data status	okinstallation	princeton_trtdifferential loss correction	single-endedforward channel	channel 1reverse channel	N/Adate	2019/09/13time	18:18:35forward acquisition time	60.00reverse acquisition time	0.00gamma	496.2192k internal	0.2313k external	0.2313temperature offset calibration	1.0138default loss term (dB/km)	0.3790temperature slope calibration	1.0000multiplexer offset coefficient	1.0000multiplexer slope coefficient	1.0000fibre end	0.00T internal ref (°C)	34.02T ext. ref 1 (°C)	4.40T ext. ref 2 (°C)	26.86length (m)	temperature (°C)	Stokes	anti-Stokes-747.200	219.971	-0.106	-0.172
-746.185	-30.910	0.279	0.160
-745.171	-67.486	-0.100	0.040
-744.156	-200.000	-0.039	0.400
-743.142	-80.817	0.211	-0.071
-742.127	22.994	-0.274	-0.228
-741.112	-166.147	0.328	-0.014
-740.098	-200.000	0.049	0.407
-739.083	2.925	-0.317	-0.233
-738.069	293.296	0.019	-0.034
-737.054	440.766	0.212	0.470
-736.039	257.327	-0.100	-0.175
-735.025	-81.701	0.205	0.068
-734.010	800.000	0.022	0.061
-732.996	-55.712	-0.444	-0.201
-731.981	793.747	0.044	-0.123
-730.966	-200.000	0.003	0.216
-729.952	-115.063	-0.465	-0.090
-728.937	-158.263	-0.279	-0.017
-727.923	-200.000	-0.010	-0.058
-726.908	800.000	0.081	-0.344
-725.894	-200.000	-0.226	0.000
-724.879	312.137	-0.072	0.137
-723.864	150.266	-0.087	-0.120
-722.850	59.280	-0.109	0.109
-721.835	-68.742	0.239	-0.094
-720.821	-82.013	-0.187	-0.062
-719.806	-200.000	0.021	-0.117
-718.791	127.179	0.176	-0.227
-717.777	-143.963	-0.188	0.018
-716.762	-36.987	-0.102	0.056
-715.748	-90.924	-0.088	0.026
-714.733	161.914	-0.246	0.348
-713.718	-65.428	0.278	-0.113
-712.704	-52.794	0.080	-0.037
-711.689	304.550	0.134	-0.251
-710.675	128.515	-0.075	-0.096
-709.660	26.094	-0.188	-0.159
-708.645	800.000	-0.056	-0.206
-707.631	135.742	0.124	-0.164
-706.616	800.000	-0.066	-0.282
-705.602	5.944	-0.131	-0.098
-704.587	-179.211	0.186	-0.004
-703.572	390.973	0.125	-0.263
-702.558	-119.347	0.176	0.031
-701.543	-65.949	0.089	-0.036
-700.529	-200.000	0.016	-0.577
-699.514	-9.482	0.088	-0.060
-698.499	-148.524	0.256	0.021
-697.485	-79.774	-0.157	0.054
-696.470	-40.717	0.206	0.108
-695.456	614.535	0.027	0.068
-694.441	101.843	0.169	0.199
-693.426	53.091	0.245	-0.238
-692.412	800.000	0.019	-0.060
-691.397	-191.379	-0.290	0.003
-690.383	-200.000	-0.037	0.255
-689.368	334.290	-0.141	-0.277
-688.354	-48.973	0.144	-0.070
-687.339	-26.343	0.199	-0.118
-686.324	-114.020	0.261	-0.051
-685.310	102.275	-0.054	0.064
-684.295	29.895	-0.217	0.187
-683.281	28.548	0.080	0.069
-682.266	-81.429	0.130	-0.043
-681.251	-126.807	-0.201	0.030
-680.237	-200.000	0.015	-0.220
-679.222	800.000	-0.015	0.063
-678.208	39.515	-0.157	-0.143
-677.193	800.000	-0.023	-0.097
-676.178	-200.000	0.022	-0.131
-675.164	800.000	0.118	-0.354
-674.149	356.704	-0.175	-0.353
-673.135	569.361	0.032	0.080
-672.120	-33.180	-0.271	-0.152
-671.105	146.861	0.131	-0.178
-670.091	-200.000	0.003	0.323
-669.076	-176.827	-0.313	0.008
-668.062	-61.004	0.020	-0.008
-667.047	-12.670	0.098	0.065
-666.032	-23.518	-0.292	0.177
-665.018	-200.000	0.040	-0.285
-664.003	-110.204	-0.161	0.034
-662.989	800.000	-0.081	0.298
-661.974	800.000	-0.016	0.066
-660.959	-85.278	0.266	0.084
-659.945	102.728	0.159	-0.188
-658.930	-164.282	-0.230	-0.011
-657.916	47.462	-0.293	-0.276
-656.901	-200.000	-0.007	-0.084
-655.886	138.561	0.056	-0.075
-654.872	-200.000	0.004	0.074
-653.857	-200.000	0.006	-0.204
-652.843	-31.881	0.100	-0.056
-651.828	651.847	0.123	0.320
-650.814	-87.106	0.151	0.046
-649.799	61.079	0.187	-0.188
-648.784	122.739	0.123	-0.155
-647.770	293.854	-0.200	-0.369
-646.755	76.445	-0.067	0.071
-645.741	90.402	0.207	-0.234
-644.726	242.013	0.108	-0.183
-643.711	-168.689	-0.274	0.010
-642.697	-189.566	-0.115	0.001
-641.682	-200.000	0.008	0.055
-640.668	64.659	0.283	-0.288
-639.653	9.224	0.074	0.057
-638.638	-127.466	0.197	0.029
-637.624	-82.543	0.290	-0.095
-636.609	-152.641	0.313	-0.023
-635.595	95.936	0.211	0.244
-634.580	103.299	-0.342	-0.405
-633.565	26.783	-0.271	-0.229
-632.551	-54.389	-0.110	0.050
-631.536	-161.170	0.236	0.012
-630.522	800.000	-0.056	0.204
-629.507	-200.000	0.024	-0.122
-628.492	-119.707	0.221	0.039
-627.478	-161.381	0.308	-0.016
-626.463	-21.201	-0.188	-0.116
-625.449	-68.617	-0.238	-0.093
-624.434	-200.000	0.076	-0.342
-623.419	308.022	-0.111	-0.209
-622.405	206.355	-0.189	0.297
-621.390	-8.256	0.059	0.040
-620.376	-71.136	0.095	-0.036
-619.361	-23.677	0.179	-0.108
-618.346	22.049	0.191	-0.157
-617.332	572.425	-0.075	-0.184
-616.317	-117.751	-0.067	-0.012
-615.303	115.598	-0.133	-0.164
-614.288	81.755	-0.150	-0.164
-613.273	-27.060	0.137	0.081
-612.259	-15.886	-0.152	0.098
-611.244	-16.748	0.164	0.105
-610.230	-200.000	0.012	0.149
-609.215	-40.953	0.234	-0.122
-608.201	-200.000	0.015	-0.068
-607.186	-94.384	0.312	0.086
-606.171	-200.000	-0.049	0.231
-605.157	-200.000	-0.044	-0.251
-604.142	68.272	-0.141	-0.145
-603.128	-126.525	0.125	0.019
-602.113	498.491	-0.147	-0.342
-601.098	-81.108	0.067	0.022
-600.084	405.770	-0.062	-0.132
-599.069	800.000	0.036	-0.103
-598.055	-200.000	-0.039	-0.246
-597.040	11.805	-0.071	0.055
-596.025	-200.000	0.021	0.134
-595.011	473.153	-0.092	0.208
-593.996	-119.040	-0.140	-0.025
-592.982	-197.209	-0.249	0.002
-591.967	752.641	0.068	0.186
-590.952	-200.000	0.006	-0.174
-589.938	251.784	-0.077	0.132
-588.923	149.231	-0.115	0.158
-587.909	-21.537	-0.132	-0.081
-586.894	-152.642	-0.066	-0.005
-585.879	25.868	-0.227	0.191
-584.865	800.000	0.082	-0.296
-583.850	-124.640	-0.231	-0.036
-582.836	800.000	-0.060	-0.258
-581.821	-132.554	-0.290	0.038
-580.806	17.064	-0.032	-0.026
-579.792	129.563	0.157	-0.202
-578.777	-48.718	-0.174	-0.084
-577.763	-119.966	0.471	-0.081
-576.748	800.000	-0.077	-0.238
-575.733	74.894	-0.084	-0.089
-574.719	50.196	0.262	0.249
-573.704	800.000	0.086	0.342
-572.690	-67.821	-0.410	0.162
-571.675	-82.487	0.269	-0.088
-570.661	524.396	0.040	0.096
-569.646	-127.185	-0.068	0.010
-568.631	-31.277	-0.257	-0.146
-567.617	12.938	-0.029	0.023
-566.602	-1.590	0.080	0.057
-565.588	-34.446	0.204	-0.112
-564.573	112.576	-0.174	0.213
-563.558	-142.632	0.110	-0.011
-562.544	342.020	0.168	0.332
-561.529	-200.000	-0.017	0.370
-560.515	800.000	0.059	-0.227
-559.500	-200.000	0.070	-0.459
-558.485	514.565	0.070	-0.166
-557.471	27.548	-0.096	-0.082
-556.456	131.690	0.174	-0.225
-555.442	-200.000	-0.015	0.141
-554.427	800.000	0.104	-0.460
-553.412	52.124	0.073	-0.070
-552.398	-15.898	-0.378	0.242
-551.383	71.527	-0.162	-0.169
-550.369	-200.000	0.005	-0.027
-549.354	303.588	0.120	0.224
-548.339	-126.364	0.200	0.030
-547.325	-166.153	-0.375	-0.016
-546.310	169.651	0.261	-0.375
-545.296	147.834	-0.117	-0.158
-544.281	-200.000	-0.013	-0.102
-543.266	-139.812	0.131	0.014
-542.252	241.744	-0.114	0.192
-541.237	212.474	0.164	-0.261
-540.223	-200.000	0.050	0.381
-539.208	320.821	-0.118	-0.225
-538.193	800.000	0.049	0.215
-537.179	-69.642	-0.179	0.069
-536.164	-117.211	0.352	0.064
-535.150	21.240	-0.062	0.050
-534.135	-76.422	0.155	0.055
-533.121	152.828	-0.147	-0.203
-532.106	-200.000	-0.000	-0.164
-531.091	649.212	0.083	0.213
-530.077	378.742	-0.047	0.097
-529.062	-31.215	0.177	0.100
-528.048	114.289	-0.088	0.107
-527.033	800.000	0.019	0.069
-526.018	-200.000	0.004	0.139
-525.004	574.834	-0.141	-0.347
-523.989	-150.388	-0.247	0.019
-522.975	315.645	-0.331	-0.628
-521.960	343.302	0.063	-0.124
-520.945	-200.000	0.020	0.185
-519.931	-200.000	0.197	0.001
-518.916	526.677	0.087	-0.207
-517.902	800.000	0.025	-0.073
-516.887	351.084	0.078	0.155
-515.872	202.999	-0.083	0.129
-514.858	-124.688	0.258	0.040
-513.843	-135.061	-0.204	-0.025
-512.829	-36.420	0.261	-0.141
-511.814	238.409	-0.064	0.107
-510.799	-24.588	0.440	-0.263
-509.785	800.000	-0.026	0.107
-508.770	121.015	0.212	0.265
-507.756	-200.000	-0.084	-0.522
-506.741	-84.725	-0.118	-0.037
-505.726	-173.663	-0.162	0.005
-504.712	534.313	0.071	0.170
-503.697	-12.843	-0.245	-0.160
-502.683	-200.000	0.002	0.019
-501.668	-200.000	-0.007	-0.332
-500.653	172.713	-0.161	-0.233
-499.639	-200.000	0.000	-0.286
-498.624	-8.725	-0.397	-0.267
-497.610	-95.173	-0.279	0.075
-496.595	-200.000	-0.007	-0.193
-495.581	-150.187	-0.347	0.027
-494.566	10.326	0.190	-0.145
-493.551	-200.000	-0.002	-0.118
-492.537	-19.066	0.256	0.160
-491.522	-35.925	-0.112	-0.061
-490.508	-103.398	-0.105	0.025
-489.493	-19.462	-0.199	0.124
-488.478	-1.917	0.089	-0.063
-487.464	209.131	0.133	0.210
-486.449	800.000	-0.076	-0.314
-485.435	794.319	-0.089	0.246
-484.420	210.676	0.028	0.043
-483.405	-76.905	0.225	0.079
-482.391	-19.831	-0.083	0.051
-481.376	-200.000	-0.028	0.254
-480.362	105.112	-0.076	-0.090
-479.347	-107.033	0.171	0.038
-478.332	-119.450	-0.095	0.017
-477.318	-87.515	0.167	-0.051
-476.303	671.357	0.129	-0.336
-475.289	643.242	-0.071	-0.183
-474.274	70.051	0.058	-0.060
-473.259	-37.947	0.162	0.086
-472.245	-77.434	0.126	0.044
-471.230	-79.733	0.202	0.068
-470.216	-49.091	-0.138	0.066
-469.201	148.150	0.208	0.282
-468.186	-144.050	0.043	0.004
-467.172	-135.448	-0.287	0.034
-466.157	-87.043	-0.067	-0.020
-465.143	-200.000	0.000	0.192
-464.128	-200.000	0.028	0.245
-463.113	452.551	0.047	0.104
-462.099	-200.000	0.040	0.399
-461.084	64.885	0.386	-0.390
-460.070	-4.633	-0.099	0.069
-459.055	-60.848	-0.094	0.040
-458.040	-200.000	0.020	0.124
-457.026	-2.416	0.004	-0.003
-456.011	-121.462	-0.191	-0.032
-454.997	-200.000	0.004	-0.141
-453.982	9.585	0.107	-0.081
-452.968	-33.701	0.083	0.046
-451.953	614.132	0.124	-0.310
-450.938	254.060	0.217	0.372
-449.924	145.127	-0.159	-0.214
-448.909	499.198	0.097	-0.225
-447.895	-200.000	0.028	0.335
-446.880	-121.214	-0.414	0.069
-445.865	532.810	-0.041	-0.097
-444.851	-200.000	0.007	-0.045
-443.836	513.908	-0.063	0.148
-442.822	-200.000	-0.004	0.216
-441.807	199.093	0.179	0.275
-440.792	-2.541	-0.128	0.090
-439.778	-89.726	-0.167	0.049
-438.763	-147.227	-0.074	0.006
-437.749	-166.726	-0.018	-0.001
-436.734	-200.000	-0.035	-0.174
-435.719	40.244	-0.303	-0.273
-434.705	209.285	-0.078	-0.122
-433.690	-200.000	-0.057	-0.427
-432.676	60.338	-0.201	0.199
-431.661	-122.306	-0.185	0.030
-430.646	-200.000	0.030	0.167
-429.632	-83.816	-0.219	0.070
-428.617	-133.164	0.292	-0.037
-427.603	-200.000	0.030	0.283
-426.588	-4.985	0.222	-0.153
-425.573	-6.389	0.184	0.126
-424.559	-53.727	0.312	0.143
-423.544	-72.028	-0.327	-0.122
-422.530	526.832	0.085	0.201
-421.515	-200.000	0.054	-0.387
-420.500	-145.937	-0.289	0.026
-419.486	395.910	-0.067	0.139
-418.471	10.211	-0.091	-0.069
-417.457	-154.380	0.208	0.014
-416.442	-91.692	-0.167	-0.048
-415.428	-79.656	0.158	-0.053
-414.413	205.744	-0.063	-0.098
-413.398	3.145	0.470	0.342
-412.384	424.312	-0.083	-0.179
-411.369	-48.783	-0.426	0.205
-410.355	-118.112	0.106	0.019
-409.340	452.588	-0.133	-0.295
-408.325	-129.297	0.352	0.049
-407.311	97.197	-0.184	-0.212
-406.296	-6.412	0.222	-0.152
-405.282	-108.379	-0.225	0.049
-404.267	171.757	0.117	0.168
-403.252	-200.000	-0.009	0.346
-402.238	663.603	0.057	-0.146
-401.223	20.387	-0.240	-0.194
-400.209	181.369	-0.221	0.325
-399.194	-48.673	-0.205	0.099
-398.179	-200.000	-0.038	-0.207
-397.165	111.582	-0.232	-0.280
-396.150	315.169	-0.089	0.168
-395.136	489.669	0.205	0.470
-394.121	-200.000	0.020	-0.377
-393.106	-89.849	-0.077	-0.023
-392.092	-33.941	-0.266	-0.147
-391.077	-38.683	-0.158	0.084
-390.063	-46.609	-0.159	-0.078
-389.048	106.430	0.271	0.322
-388.033	-74.008	0.270	-0.098
-387.019	-164.862	0.142	-0.006
-386.004	-44.284	-0.080	0.040
-384.990	-115.176	0.164	0.031
-383.975	114.663	0.118	0.144
-382.960	-69.566	0.143	0.055
-381.946	-177.981	-0.173	0.004
-380.931	81.553	0.087	-0.094
-379.917	-200.000	0.022	-0.196
-378.902	-37.513	0.203	0.108
-377.888	-62.947	0.241	-0.100
-376.873	0.385	0.195	-0.139
-375.858	-8.115	0.318	0.214
-374.844	800.000	0.088	-0.282
-373.829	-92.806	-0.135	0.038
-372.815	-200.000	-0.004	-0.183
-371.800	255.547	-0.140	-0.241
-370.785	105.730	0.199	-0.236
-369.771	179.805	0.154	0.225
-368.756	369.263	0.100	0.202
-367.742	46.455	0.212	0.197
-366.727	-200.000	0.006	0.083
-365.712	-200.000	-0.024	0.385
-364.698	-200.000	0.040	-0.226
-363.683	-104.391	0.127	0.029
-362.669	-1.360	-0.205	0.145
-361.654	113.027	-0.219	-0.265
-360.639	328.502	0.080	0.153
-359.625	-34.998	0.129	0.071
-358.610	432.976	-0.162	0.351
-357.596	495.110	0.057	-0.130
-356.581	-200.000	-0.034	0.287
-355.566	-200.000	-0.025	0.253
-354.552	523.989	0.034	0.080
-353.537	-43.625	0.147	0.074
-352.523	800.000	-0.040	-0.125
-351.508	491.802	0.052	-0.119
-350.493	800.000	-0.034	0.130
-349.479	749.587	0.050	0.135
-348.464	591.289	-0.096	0.236
-347.450	49.302	-0.096	0.090
-346.435	-98.163	-0.144	-0.037
-345.420	-15.662	-0.256	0.163
-344.406	-119.378	-0.338	-0.059
-343.391	-200.000	0.013	0.363
-342.377	-181.888	-0.196	0.004
-341.362	-4.267	0.153	0.106
-340.348	-60.784	-0.462	0.195
-339.333	-23.246	-0.073	0.044
-338.318	498.699	-0.070	-0.161
-337.304	-18.779	0.238	0.148
-336.289	-53.791	0.184	0.084
-335.275	-153.449	0.344	0.024
-334.260	800.000	-0.037	-0.137
-333.245	-79.593	-0.198	0.067
-332.231	-104.612	0.066	0.015
-331.216	797.134	0.070	0.192
-330.202	16.139	0.094	0.074
-329.187	8.091	-0.089	0.067
-328.172	-91.997	0.135	0.038
-327.158	84.310	-0.031	-0.034
-326.143	-10.447	-0.137	-0.090
-325.129	-200.000	0.021	-0.162
-324.114	-166.471	0.285	0.012
-323.099	306.873	-0.195	0.363
-322.085	-0.419	0.236	0.167
-321.070	-17.508	0.338	-0.212
-320.056	258.327	-0.069	0.118
-319.041	24.699	0.191	0.158
-318.026	620.943	0.166	0.418
-317.012	-140.262	0.245	-0.026
-315.997	-200.000	0.022	0.194
-314.983	-200.000	-0.031	-0.380
-313.968	123.823	0.143	0.178
-312.953	-200.000	0.000	-0.219
-311.939	-78.367	-0.046	0.016
-310.924	-88.621	-0.224	0.066
-309.910	-200.000	0.005	0.359
-308.895	-200.000	0.064	0.366
-307.880	126.311	0.068	0.086
-306.866	-153.428	0.175	0.012
-305.851	-69.772	-0.164	0.063
-304.837	800.000	-0.103	-0.378
-303.822	411.935	-0.080	-0.170
-302.807	40.578	-0.093	-0.084
-301.793	27.410	0.259	0.217
-300.778	800.000	0.128	-0.391
-299.764	473.566	0.125	-0.282
-298.749	800.000	0.059	0.171
-297.735	-6.408	-0.110	-0.075
-296.720	-128.937	-0.077	0.011
-295.705	25.586	-0.076	0.063
-294.691	-30.844	-0.108	0.061
-293.676	-200.000	-0.018	0.171
-292.662	49.085	0.187	0.175
-291.647	-11.215	0.101	0.067
-290.632	145.017	0.117	-0.156
-289.618	-22.849	0.240	-0.144
-288.603	-200.000	-0.012	0.348
-287.589	800.000	0.047	0.152
-286.574	750.018	-0.127	-0.340
-285.559	42.317	-0.148	-0.134
-284.545	-166.547	-0.129	-0.005
-283.530	800.000	-0.053	0.230
-282.516	440.715	-0.075	0.164
-281.501	-179.507	0.441	-0.010
-280.486	800.000	-0.079	-0.312
-279.472	83.833	-0.095	0.103
-278.457	-200.000	0.025	-0.175
-277.443	254.612	-0.156	0.266
-276.428	-200.000	-0.341	-0.001
-275.413	-200.000	0.013	0.126
-274.399	-50.627	-0.209	-0.098
-273.384	-200.000	0.003	0.031
-272.370	-35.515	-0.230	0.125
-271.355	-41.663	-0.177	-0.091
-270.340	800.000	0.104	-0.305
-269.326	40.797	0.153	-0.137
-268.311	800.000	0.051	0.178
-267.297	800.000	-0.104	0.310
-266.282	-132.955	-0.115	0.015
-265.267	153.179	0.080	-0.109
-264.253	56.896	-0.125	0.121
-263.238	22.362	-0.208	-0.169
-262.224	195.344	0.124	0.187
-261.209	-200.000	-0.058	-0.445
-260.195	800.000	-0.066	-0.252
-259.180	-200.000	0.025	-0.174
-258.165	-32.052	-0.045	0.025
-257.151	800.000	-0.013	-0.046
-256.136	172.048	-0.339	0.485
-255.122	800.000	0.123	0.406
-254.107	-34.912	-0.083	-0.045
-253.092	677.357	0.249	0.645
-252.078	-40.433	0.134	-0.069
-251.063	800.000	0.023	0.095
-250.049	-0.420	0.145	0.102
-249.034	32.590	0.103	-0.088
-248.019	329.087	0.125	-0.239
-247.005	81.585	0.123	0.133
-245.990	-119.482	0.060	-0.010
-244.976	190.348	0.066	0.099
-243.961	-60.565	-0.154	-0.065
-242.946	-51.046	-0.163	0.076
-241.932	-113.391	0.183	-0.036
-240.917	-27.805	-0.300	-0.173
-239.903	-127.485	-0.162	-0.023
-238.888	391.946	0.061	0.127
-237.873	250.992	0.197	-0.332
-236.859	164.125	-0.263	0.369
-235.844	-117.205	0.170	0.031
-234.830	-200.000	-0.018	-0.272
-233.815	-41.890	-0.095	-0.048
-232.800	800.000	-0.070	0.257
-231.786	-63.253	0.136	-0.056
-230.771	-70.993	0.199	0.074
-229.757	98.598	-0.129	0.148
-228.742	153.751	-0.151	0.205
-227.727	-200.000	-0.055	-0.241
-226.713	-94.211	0.243	-0.066
-225.698	-44.125	-0.045	-0.022
-224.684	-200.000	-0.042	0.255
-223.669	23.498	-0.195	0.159
-222.655	-60.181	-0.245	0.104
-221.640	93.913	0.068	0.076
-220.625	29.654	-0.153	-0.130
-219.611	-50.267	-0.265	0.125
-218.596	-139.612	0.187	-0.020
-217.582	50.855	0.046	0.043
-216.567	-200.000	0.031	-0.376
-215.552	-87.398	0.162	0.049
-214.538	-141.037	0.286	0.029
-213.523	73.180	0.346	0.360
-212.509	48.077	-0.026	-0.024
-211.494	37.778	-0.135	0.120
-210.479	185.051	0.125	0.185
-209.465	-200.000	-0.010	-0.179
-208.450	-200.000	0.020	-0.122
-207.436	137.652	0.041	0.054
-206.421	241.561	0.196	0.325
-205.406	-180.619	-0.136	0.003
-204.392	71.113	0.146	-0.150
-203.377	-200.000	-0.050	-0.296
-202.363	-200.000	-0.014	-0.206
-201.348	206.266	-0.189	-0.292
-200.333	36.891	0.490	0.430
-199.319	85.917	-0.141	0.154
-198.304	-172.147	-0.371	-0.012
-197.290	10.133	0.188	0.142
-196.275	12.556	0.088	0.067
-195.260	38.970	-0.174	0.155
-194.246	-46.340	0.160	-0.078
-193.231	-79.762	-0.115	0.039
-192.217	-200.000	-0.029	-0.248
-191.202	13.602	0.072	-0.055
-190.187	-28.493	0.115	0.066
-189.173	5.861	-0.212	0.156
-188.158	-40.481	0.087	-0.045
-187.144	-200.000	0.019	-0.135
-186.129	-200.000	-0.015	-0.427
-185.114	-173.910	-0.163	-0.005
-184.100	-130.756	0.067	0.009
-183.085	62.258	-0.267	0.265
-182.071	127.520	-0.273	0.344
-181.056	-200.000	-0.005	-0.026
-180.042	497.673	0.075	-0.171
-179.027	-78.711	-0.120	0.041
-178.012	64.879	-0.153	-0.153
-176.998	337.460	-0.144	-0.277
-175.983	68.103	0.087	-0.089
-174.969	-73.865	0.331	0.119
-173.954	-200.000	-0.030	-0.201
-172.939	-200.000	0.070	0.439
-171.925	731.748	-0.064	-0.170
-170.910	-200.000	0.001	0.016
-169.896	800.000	-0.121	0.344
-168.881	-69.104	-0.131	-0.050
-167.866	121.561	-0.222	0.275
-166.852	32.542	-0.074	-0.063
-165.837	-51.240	0.100	-0.046
-164.823	160.271	-0.171	-0.236
-163.808	800.000	0.079	0.225
-162.793	-74.570	0.386	0.138
-161.779	800.000	0.077	-0.295
-160.764	626.375	-0.065	0.163
-159.750	446.431	-0.075	-0.164
-158.735	-200.000	0.020	0.363
-157.720	-129.750	0.261	-0.036
-156.706	1.368	-0.223	-0.159
-155.691	-200.000	-0.048	-0.405
-154.677	-147.993	0.123	-0.010
-153.662	-200.000	-0.050	-0.296
-152.647	216.830	0.001	0.001
-151.633	-40.004	-0.100	0.052
-150.618	800.000	0.049	0.149
-149.604	111.779	-0.158	-0.189
-148.589	-200.000	0.026	-0.194
-147.574	0.049	-0.061	0.043
-146.560	60.454	-0.069	-0.068
-145.545	-62.295	0.161	0.066
-144.531	-41.636	-0.231	-0.118
-143.516	-91.666	0.357	-0.101
-142.502	291.085	-0.245	-0.442
-141.487	331.221	0.126	0.241
-140.472	-43.422	0.192	0.096
-139.458	696.962	-0.133	0.346
-138.443	140.474	0.024	0.031
-137.429	104.823	0.125	-0.146
-136.414	-137.489	0.242	-0.027
-135.399	12.085	0.235	-0.179
-134.385	-200.000	-0.000	0.398
-133.370	239.770	-0.120	0.198
-132.356	-78.780	-0.280	-0.095
-131.341	-120.317	0.287	0.049
-130.326	369.306	-0.103	-0.207
-129.312	142.381	-0.173	0.227
-128.297	28.945	0.160	0.134
-127.283	800.000	0.063	0.186
-126.268	342.543	0.055	0.107
-125.253	-118.186	-0.104	0.018
-124.239	231.471	-0.051	-0.084
-123.224	-139.468	0.231	0.024
-122.210	266.215	0.125	0.216
-121.195	32.685	-0.346	0.296
-120.180	-151.204	0.176	0.013
-119.166	-1.770	-0.153	-0.107
-118.151	800.000	-0.076	0.210
-117.137	37.503	-0.131	0.115
-116.122	-200.000	0.017	0.151
-115.107	81.752	0.245	-0.263
-114.093	-145.014	0.126	0.011
-113.078	-200.000	0.004	0.052
-112.064	-3.041	-0.327	-0.226
-111.049	-62.262	-0.034	0.014
-110.034	-200.000	0.022	0.319
-109.020	114.924	-0.288	-0.348
-108.005	199.661	0.094	-0.142
-106.991	-91.301	0.279	-0.079
-105.976	-43.847	0.271	-0.135
-104.962	-135.613	0.337	0.040
-103.947	-147.216	0.044	0.004
-102.932	-147.405	0.372	0.031
-101.918	-38.057	-0.152	0.080
-100.903	800.000	0.107	0.300
-99.889	762.675	-0.017	-0.045
-98.874	-112.881	-0.294	-0.058
-97.859	374.534	-0.068	0.137
-96.845	-118.478	0.242	-0.042
-95.830	-200.000	0.010	-0.439
-94.816	67.608	-0.056	0.057
-93.801	-200.000	-0.014	0.480
-92.786	-200.000	-0.053	0.233
-91.772	-120.681	0.062	-0.010
-90.757	-62.269	0.510	-0.210
-89.743	5.959	-0.046	-0.034
-88.728	-20.235	0.290	-0.177
-87.713	639.759	0.147	-0.369
-86.699	-200.000	0.025	-0.132
-85.684	-200.000	0.022	-0.140
-84.670	61.184	0.286	-0.281
-83.655	61.543	-0.223	-0.219
-82.640	1.139	0.253	-0.180
-81.626	485.046	-0.094	0.211
-80.611	8.328	0.267	-0.198
-79.597	347.471	0.085	-0.166
-78.582	800.000	-0.050	0.183
-77.567	35.055	-0.058	0.050
-76.553	-119.560	0.048	-0.008
-75.538	87.698	-0.146	-0.160
-74.524	94.883	0.160	0.180
-73.509	-10.236	0.197	-0.129
-72.494	-167.033	0.247	0.010
-71.480	-112.850	-0.217	-0.042
-70.465	55.350	0.087	-0.083
-69.451	-157.801	0.215	0.013
-68.436	-52.093	0.224	0.103
-67.422	45.722	0.118	0.108
-66.407	800.000	0.043	0.132
-65.392	-200.000	0.036	0.239
-64.378	-200.000	0.039	-0.198
-63.363	595.714	-0.052	-0.128
-62.349	-155.991	0.111	-0.007
-61.334	33.650	-0.987	-0.847
-60.319	17.458	0.726	0.570
-59.305	-200.000	0.060	-0.943
-58.290	56.150	0.667	0.639
-57.276	800.000	0.421	1.342
-56.261	-200.000	96.624	573.585
-55.246	618.799	1394.454	3458.967
-54.232	191.497	2581.779	3839.296
-53.217	118.414	2161.202	2632.959
-52.203	45.505	1619.043	1475.921
-51.188	37.513	1356.652	1188.117
-50.173	34.315	1314.028	1131.778
-49.159	56.789	1360.814	1308.226
-48.144	59.345	1377.952	1340.052
-47.130	37.614	1335.714	1170.202
-46.115	34.122	1318.591	1134.379
-45.100	34.021	1313.963	1129.751
-44.086	33.890	1311.619	1126.913
-43.071	33.794	1308.951	1124.012
-42.057	33.816	1307.069	1122.482
-41.042	33.836	1305.665	1121.346
-40.027	33.885	1304.025	1120.182
-39.013	33.787	1302.231	1118.024
-37.998	33.933	1300.393	1117.260
-36.984	34.046	1298.623	1116.355
-35.969	33.983	1297.092	1114.624
-34.954	33.971	1295.027	1112.736
-33.940	34.215	1293.700	1112.977
-32.925	34.181	1292.343	1111.571
-31.911	34.119	1290.880	1109.906
-30.896	34.105	1289.667	1108.736
-29.881	34.065	1288.564	1107.514
-28.867	34.091	1287.027	1106.299
-27.852	34.228	1285.457	1105.698
-26.838	34.198	1284.281	1104.468
-25.823	34.110	1283.094	1102.895
-24.809	34.141	1281.770	1101.892
-23.794	33.943	1280.388	1099.518
-22.779	34.067	1279.092	1099.076
-21.765	34.195	1277.618	1098.506
-20.750	34.106	1275.999	1096.556
-19.736	34.101	1274.918	1095.552
-18.721	33.925	1274.220	1093.897
-17.706	33.909	1273.090	1092.795
-16.692	34.028	1271.161	1091.778
-15.677	33.962	1270.455	1090.750
-14.663	34.049	1269.394	1090.293
-13.648	33.988	1268.224	1088.893
-12.633	33.914	1267.501	1087.807
-11.619	33.941	1266.878	1087.384
-10.604	34.044	1265.728	1086.944
-9.590	33.950	1264.655	1085.442
-8.575	33.812	1264.087	1084.125
-7.560	33.865	1263.259	1083.676
-6.546	33.871	1262.544	1083.048
-5.531	33.927	1261.417	1082.360
-4.517	33.912	1260.422	1081.378
-3.502	33.982	1259.524	1080.963
-2.487	33.998	1258.848	1080.432
-1.473	33.831	1254.298	1075.538
-0.458	31.917	1238.278	1051.042
0.556	28.634	1217.741	1003.200
1.571	23.769	1221.193	979.215
2.586	22.235	1235.766	982.250
3.600	21.281	1223.829	967.396
4.615	15.953	1152.723	883.244
5.629	8.129	1078.945	788.100
6.644	4.607	1059.158	756.466
7.659	4.358	1056.270	753.126
8.673	4.237	1055.508	751.933
9.688	4.399	1054.143	751.676
10.702	4.492	1052.308	750.750
11.717	8.679	1058.913	775.725
12.731	16.665	1069.371	822.257
13.746	20.877	1074.814	846.887
14.761	21.015	1074.325	847.098
15.775	20.289	1071.998	841.670
16.790	19.124	1070.402	834.694
17.804	18.532	1068.693	830.425
18.819	18.185	1067.729	827.919
19.834	18.031	1066.965	826.510
20.848	17.880	1066.198	825.115
21.863	17.676	1065.598	823.589
22.877	17.618	1064.524	822.406
23.892	17.505	1063.935	821.335
24.907	17.545	1063.430	821.066
25.921	17.636	1061.809	820.179
26.936	17.642	1060.325	818.990
27.950	17.499	1059.774	817.804
28.965	17.677	1057.786	817.051
29.980	17.845	1056.359	816.680
30.994	17.894	1055.864	816.458
32.009	17.938	1054.409	815.472
33.023	17.822	1053.668	814.272
34.038	17.652	1052.847	812.755
35.053	17.555	1052.046	811.604
36.067	17.756	1050.659	811.417
37.082	17.652	1049.926	810.287
38.096	17.870	1049.628	811.022
39.111	17.830	1048.999	810.274
40.126	17.591	1047.542	807.942
41.140	17.484	1045.869	806.076
42.155	17.339	1045.005	804.651
43.169	17.097	1044.454	803.011
44.184	17.272	1042.558	802.311
45.199	17.317	1041.335	801.510
46.213	17.464	1040.447	801.448
47.228	17.563	1039.825	801.363
48.242	17.651	1038.887	800.981
49.257	17.618	1037.713	799.849
50.271	17.731	1037.226	799.936
51.286	17.651	1036.191	798.692
52.301	17.753	1034.940	798.133
53.315	17.508	1034.048	796.229
54.330	17.389	1033.320	795.040
55.344	17.394	1032.666	794.493
56.359	17.567	1031.411	794.265
57.374	17.441	1030.241	792.704
58.388	17.284	1029.780	791.549
59.403	17.181	1028.893	790.317
60.417	17.166	1028.811	790.114
61.432	17.278	1027.840	789.818
62.447	17.292	1026.227	788.576
63.461	17.175	1026.017	787.804
64.476	17.232	1024.675	786.966
65.490	16.980	1024.418	785.531
66.505	17.086	1023.716	785.417
67.520	17.046	1023.101	784.690
68.534	17.183	1021.932	784.356
69.549	17.248	1021.165	783.998
70.563	17.138	1020.226	782.701
71.578	17.031	1019.556	781.624
72.593	16.980	1018.773	780.721
73.607	16.994	1018.090	780.192
74.622	17.019	1017.411	779.717
75.636	17.027	1016.836	779.244
76.651	17.018	1016.245	778.679
77.666	17.071	1015.651	778.400
78.680	17.071	1014.942	777.788
79.695	17.118	1014.397	777.516
80.709	17.167	1014.057	777.411
81.724	17.359	1013.023	777.425
82.739	17.429	1012.363	777.174
83.753	17.656	1012.069	777.913
84.768	17.906	1011.106	778.245
85.782	18.044	1010.022	777.970
86.797	17.880	1009.180	776.506
87.812	17.634	1008.712	774.961
88.826	17.715	1007.391	774.243
89.841	17.695	1006.958	773.752
90.855	17.829	1005.766	773.375
91.870	17.948	1004.911	773.189
92.884	17.887	1004.162	772.267
93.899	17.941	1003.177	771.683
94.914	17.988	1002.602	771.385
95.928	17.985	1001.442	770.412
96.943	17.953	999.967	769.065
97.957	17.917	999.214	768.254
98.972	17.896	998.873	767.834
99.987	17.737	998.283	766.597
101.001	17.751	997.113	765.690
102.016	17.771	996.251	765.050
103.030	17.932	995.389	765.042
104.045	17.879	994.674	764.187
105.060	17.597	993.999	762.339
106.074	17.557	992.394	760.866
107.089	17.482	991.083	759.457
108.103	17.252	990.547	757.954
109.118	17.263	989.639	757.240
110.133	17.254	988.550	756.298
111.147	17.235	987.898	755.649
112.162	17.315	986.765	755.072
113.176	17.374	986.331	754.934
114.191	17.529	985.874	755.204
115.206	17.463	984.730	753.968
116.220	17.338	984.301	753.020
117.235	17.329	983.348	752.188
118.249	17.302	982.395	751.270
119.264	17.206	981.743	750.285
120.279	17.190	980.699	749.349
121.293	17.165	979.774	748.463
122.308	17.141	978.627	747.418
123.322	16.930	977.850	745.827
124.337	17.060	976.786	745.523
125.352	17.130	975.725	744.953
126.366	17.062	974.628	743.751
127.381	17.175	973.239	743.121
128.395	17.136	972.782	742.535
129.410	17.244	972.225	742.519
130.424	17.358	971.336	742.272
131.439	17.369	970.491	741.608
132.454	17.484	969.907	741.597
133.468	17.405	969.392	740.791
134.483	17.311	968.713	739.799
135.497	17.534	967.474	739.757
136.512	17.481	966.852	738.986
137.527	17.505	966.020	738.389
138.541	17.467	965.417	737.698
139.556	17.438	965.131	737.287
140.570	17.652	964.589	737.734
141.585	17.839	963.434	737.592
142.600	17.830	962.559	736.819
143.614	17.923	961.882	736.637
144.629	18.006	961.220	736.423
145.643	17.881	960.075	734.942
146.658	17.718	959.280	733.567
147.673	17.556	958.100	731.904
148.687	17.509	957.058	730.841
149.702	17.465	956.181	729.920
150.716	17.540	955.453	729.618
151.731	17.485	954.761	728.793
152.746	17.498	954.215	728.368
153.760	17.737	952.970	728.372
154.775	17.608	952.997	727.777
155.789	17.696	952.370	727.611
156.804	17.572	951.830	726.605
157.819	17.801	950.706	726.658
158.833	17.894	950.387	726.747
159.848	18.049	948.958	726.246
160.862	17.928	948.094	725.008
161.877	17.635	947.219	723.030
162.892	17.543	946.469	722.006
163.906	17.511	945.240	720.868
164.921	17.480	944.438	720.061
165.935	17.552	943.699	719.741
166.950	17.648	942.851	719.434
167.964	17.675	941.886	718.749
168.979	17.609	940.776	717.558
169.994	17.558	940.151	716.805
171.008	17.556	939.869	716.518
172.023	17.849	939.274	717.234
173.037	18.008	938.544	717.279
174.052	17.817	937.507	715.621
175.067	17.647	936.821	714.324
176.081	17.411	936.425	712.967
177.096	17.618	935.626	713.162
178.110	17.554	935.302	712.584
179.125	17.664	934.385	712.283
180.140	17.802	934.073	712.558
181.154	17.828	933.842	712.428
182.169	17.851	933.544	712.232
183.183	17.840	932.866	711.607
184.198	17.955	931.842	711.244
185.213	17.887	930.964	710.228
186.227	17.973	930.530	710.191
187.242	18.125	929.899	710.277
188.256	18.265	929.056	710.150
189.271	18.066	928.422	708.777
190.286	17.993	927.079	707.388
191.300	17.618	926.580	705.392
192.315	17.502	925.771	704.236
193.329	17.512	925.813	704.248
194.344	17.625	924.422	703.591
195.359	17.866	923.945	704.161
196.373	17.887	923.756	704.043
197.388	17.962	923.675	704.227
198.402	18.275	922.809	704.792
199.417	18.341	922.099	704.458
200.432	18.336	921.937	704.255
201.446	18.392	921.752	704.280
202.461	18.553	920.782	704.139
203.475	18.406	920.199	703.028
204.490	18.123	919.092	700.960
205.504	18.233	918.270	700.719
206.519	18.110	917.869	699.847
207.534	18.067	917.139	699.055
208.548	18.161	916.377	698.798
209.563	18.062	915.717	697.826
210.577	18.221	915.064	697.916
211.592	18.339	914.393	697.823
212.607	18.358	913.787	697.375
213.621	18.305	912.791	696.338
214.636	18.282	912.097	695.654
215.650	18.309	911.329	695.119
216.665	18.375	911.250	695.262
217.680	18.573	910.073	695.106
218.694	18.543	909.624	694.578
219.709	18.617	908.992	694.336
220.723	18.522	908.413	693.446
221.738	18.426	907.766	692.506
222.753	18.529	906.745	692.078
223.767	18.507	906.304	691.594
224.782	18.531	906.023	691.415
225.796	18.506	905.707	691.012
226.811	18.520	905.164	690.594
227.826	18.448	903.794	689.198
228.840	18.450	903.114	688.624
229.855	18.434	902.547	688.070
230.869	18.519	901.476	687.533
231.884	18.279	901.344	686.406
232.899	18.337	900.319	685.797
233.913	18.383	899.309	685.154
234.928	18.153	898.995	683.933
235.942	18.251	898.445	683.846
236.957	18.283	897.815	683.434
237.972	18.314	897.141	682.984
238.986	18.404	896.241	682.596
240.001	18.287	896.088	681.956
241.015	18.387	895.200	681.614
242.030	18.492	894.536	681.465
243.045	18.454	894.291	681.070
244.059	18.480	893.769	680.715
245.074	18.495	893.057	680.172
246.088	18.656	892.559	680.368
247.103	18.884	891.651	680.521
248.117	18.882	891.698	680.488
249.132	19.083	891.320	680.936
250.147	19.130	890.971	680.795
251.161	19.273	890.175	680.691
252.176	19.370	889.185	680.254
253.190	19.326	888.870	679.780
254.205	19.382	888.183	679.417
255.220	19.393	887.266	678.697
256.234	19.350	886.747	678.070
257.249	19.227	885.976	676.938
258.263	19.288	885.254	676.566
259.278	19.236	884.870	676.009
260.293	19.362	884.279	675.992
261.307	19.397	883.473	675.453
262.322	19.421	883.474	675.489
263.336	19.398	882.580	674.655
264.351	19.535	881.582	674.366
265.366	19.583	881.081	674.111
266.380	19.418	880.721	673.133
267.395	19.346	879.607	671.942
268.409	19.429	878.774	671.568
269.424	19.310	878.628	670.936
270.439	19.338	877.380	670.031
271.453	19.114	877.028	668.835
272.468	19.102	876.409	668.257
273.482	19.225	875.904	668.287
274.497	19.197	875.082	667.495
275.512	19.152	874.624	666.911
276.526	19.292	874.027	666.940
277.541	19.481	873.240	667.008
278.555	19.482	873.128	666.869
279.570	19.683	872.431	667.055
280.585	19.581	871.597	665.963
281.599	19.513	870.777	665.017
282.614	19.404	870.277	664.156
283.628	19.351	869.753	663.493
284.643	19.371	869.305	663.168
285.657	19.271	868.735	662.292
286.672	19.286	868.183	661.869
287.687	19.412	867.200	661.546
288.701	19.498	866.637	661.388
289.716	19.522	866.354	661.203
290.730	19.589	865.408	660.679
291.745	19.492	865.156	660.057
292.760	19.615	864.212	659.750
293.774	19.660	863.858	659.592
294.789	19.615	863.010	658.716
295.803	19.571	862.333	657.973
296.818	19.483	861.814	657.181
297.833	19.403	861.102	656.279
298.847	19.456	860.933	656.291
299.862	19.768	859.683	656.466
300.876	19.655	859.564	655.890
301.891	19.685	859.306	655.745
302.906	19.967	858.393	656.060
303.920	20.028	858.124	656.027
304.935	20.036	857.613	655.609
305.949	19.985	856.812	654.748
306.964	19.904	855.871	653.663
307.979	19.760	855.768	652.984
308.993	19.782	855.285	652.640
310.008	19.941	854.522	652.598
311.022	19.819	854.064	651.733
312.037	19.718	853.117	650.573
313.052	19.734	852.405	650.032
314.066	19.670	851.666	649.172
315.081	19.674	851.082	648.684
316.095	19.579	850.795	648.050
317.110	19.688	850.158	647.915
318.125	19.524	849.786	646.962
319.139	19.538	849.441	646.693
320.154	19.637	848.831	646.540
321.168	19.733	848.140	646.318
322.183	19.606	847.742	645.481
323.197	19.853	846.933	645.731
324.212	19.819	846.455	645.182
325.227	19.741	845.987	644.478
326.241	19.688	845.590	643.923
327.256	19.885	844.652	643.885
328.270	19.800	844.329	643.264
329.285	19.588	844.034	642.194
330.300	19.812	842.900	642.105
331.314	19.823	842.552	641.823
332.329	19.790	842.611	641.692
333.343	19.923	842.106	641.744
334.358	20.121	841.434	641.908
335.373	20.020	841.169	641.273
336.387	20.074	841.133	641.391
337.402	19.968	841.116	640.928
338.416	20.176	840.484	641.157
339.431	20.459	840.002	641.779
340.446	20.441	839.654	641.389
341.460	20.456	839.460	641.239
342.475	20.360	839.087	640.544
343.489	20.664	838.435	641.112
344.504	20.467	838.159	640.117
345.519	20.517	837.622	639.835
346.533	20.506	836.930	639.208
347.548	20.377	836.281	638.182
348.562	20.102	835.765	636.724
349.577	20.088	835.121	636.124
350.592	20.136	834.311	635.628
351.606	20.135	833.452	634.914
352.621	20.172	832.740	634.448
353.635	20.126	832.489	634.034
354.650	20.364	831.639	634.198
355.665	20.426	831.329	634.132
356.679	20.315	830.782	633.254
357.694	20.320	830.414	632.937
358.708	20.263	829.762	632.176
359.723	20.379	829.115	632.051
360.738	20.232	828.705	631.145
361.752	20.513	827.458	631.163
362.767	20.522	827.342	631.051
363.781	20.722	826.941	631.416
364.796	20.799	826.566	631.350
365.810	20.858	826.124	631.171
366.825	20.818	825.872	630.780
367.840	20.810	825.150	630.141
368.854	20.671	824.953	629.434
369.869	20.708	824.127	628.880
370.883	20.744	823.913	628.791
371.898	20.837	823.880	629.047
372.913	20.922	823.082	628.688
373.927	20.796	822.252	627.543
374.942	20.865	821.856	627.434
375.956	20.835	821.860	627.276
376.971	20.883	821.434	627.068
377.986	21.100	820.732	627.256
379.000	21.004	820.689	626.823
380.015	20.994	820.075	626.261
381.029	20.989	819.301	625.597
382.044	21.055	818.535	625.195
383.059	21.232	817.902	625.290
384.073	20.992	817.296	623.911
385.088	20.832	816.755	622.871
386.102	20.810	816.315	622.403
387.117	20.632	815.681	621.229
388.132	20.735	815.078	621.081
389.146	21.042	814.214	621.461
390.161	21.165	813.911	621.613
391.175	21.025	813.987	621.119
392.190	20.924	813.355	620.223
393.205	20.752	812.375	618.810
394.219	20.960	812.157	619.328
395.234	20.759	811.708	618.215
396.248	20.755	810.960	617.576
397.263	20.675	810.705	617.046
398.278	20.570	810.647	616.572
399.292	20.547	810.049	615.981
400.307	20.737	809.341	616.062
401.321	20.635	809.346	615.651
402.336	20.816	808.767	615.796
403.350	20.772	808.570	615.434
404.365	21.078	807.516	615.660
405.380	21.177	807.285	615.776
406.394	21.330	806.977	616.029
407.409	21.339	806.847	615.906
408.423	21.278	806.472	615.351
409.438	21.525	806.065	615.855
410.453	21.345	805.631	614.835
411.467	21.356	805.389	614.633
412.482	21.553	804.592	614.663
413.496	21.573	804.641	614.717
414.511	21.652	804.263	614.651
415.526	21.520	803.623	613.645
416.540	21.505	802.968	613.039
417.555	21.490	802.559	612.619
418.569	21.475	802.054	612.127
419.584	21.499	801.636	611.836
420.599	21.603	801.293	611.884
421.613	160.145	1370.411	1792.524
422.628	139.053	1453.337	1792.639
