DTS Sentinel unit serial number:	SN413079Multiplexer serial number:	ORYXHardware model number:	OX4-SRSoftware version number:	ORYX F/W v4.00 Oryx Data Collector v3.7.2.0data status	okinstallation	princeton_trtdifferential loss correction	single-endedforward channel	channel 1reverse channel	N/Adate	2019/09/16time	06:54:35forward acquisition time	60.00reverse acquisition time	0.00gamma	496.2192k internal	0.2331k external	0.2331temperature offset calibration	0.9982default loss term (dB/km)	0.3790temperature slope calibration	1.0000multiplexer offset coefficient	1.0000multiplexer slope coefficient	1.0000fibre end	0.00T internal ref (°C)	27.37T ext. ref 1 (°C)	11.47T ext. ref 2 (°C)	21.76length (m)	temperature (°C)	Stokes	anti-Stokes-747.200	533.695	0.021	0.050
-746.185	-200.000	0.002	-0.250
-745.171	-28.364	-0.276	-0.160
-744.156	800.000	0.079	0.220
-743.142	800.000	0.061	0.244
-742.127	-3.522	-0.237	0.166
-741.112	612.917	-0.041	0.103
-740.098	-12.045	0.200	0.132
-739.083	62.241	0.154	0.154
-738.069	132.412	0.154	0.199
-737.054	-102.295	-0.177	-0.043
-736.039	800.000	-0.151	-0.505
-735.025	312.152	-0.063	-0.119
-734.010	-98.061	-0.295	0.077
-732.996	-101.928	-0.090	0.022
-731.981	29.904	0.337	0.289
-730.966	63.167	-0.220	0.222
-729.952	-92.803	-0.080	-0.023
-728.937	-44.561	-0.253	0.127
-727.923	-112.675	0.245	-0.049
-726.908	-54.788	-0.334	-0.152
-725.894	-200.000	-0.037	-0.237
-724.879	25.501	-0.137	0.115
-723.864	-20.682	-0.041	-0.025
-722.850	561.696	-0.085	0.208
-721.835	800.000	0.022	-0.063
-720.821	108.176	0.205	-0.246
-719.806	231.518	0.086	-0.141
-718.791	97.464	-0.054	0.063
-717.777	-10.219	0.106	0.071
-716.762	-200.000	0.026	-0.212
-715.748	199.541	-0.084	-0.129
-714.733	800.000	0.074	0.277
-713.718	-113.296	0.124	0.024
-712.704	-8.918	-0.022	-0.015
-711.689	-194.747	0.106	0.001
-710.675	13.471	0.159	-0.124
-709.660	126.789	-0.217	0.277
-708.645	252.647	0.101	0.174
-707.631	-63.870	-0.116	-0.048
-706.616	-10.573	-0.348	-0.231
-705.602	-200.000	-0.001	0.225
-704.587	426.567	0.108	0.235
-703.572	586.608	0.048	0.120
-702.558	-52.504	-0.403	-0.187
-701.543	330.456	-0.186	-0.360
-700.529	-200.000	-0.018	0.157
-699.514	-117.128	0.360	-0.066
-698.499	200.376	0.158	-0.244
-697.485	800.000	-0.006	-0.021
-696.470	238.779	0.212	0.354
-695.456	-59.851	0.121	-0.052
-694.441	-122.684	-0.080	-0.013
-693.426	-74.289	0.190	-0.069
-692.412	167.642	0.046	0.065
-691.397	10.256	-0.207	0.158
-690.383	-5.308	0.096	-0.066
-689.368	16.012	-0.117	-0.093
-688.354	464.354	0.051	0.115
-687.339	339.028	0.098	0.191
-686.324	397.436	0.076	-0.160
-685.310	-67.118	0.121	0.048
-684.295	-12.880	-0.099	-0.064
-683.281	-155.160	-0.223	-0.015
-682.266	-39.664	-0.263	-0.138
-681.251	-71.201	-0.192	0.073
-680.237	-32.906	0.125	0.070
-679.222	-200.000	0.013	0.084
-678.208	512.609	0.165	-0.386
-677.193	-198.446	-0.275	0.002
-676.178	504.922	0.113	0.262
-675.164	800.000	-0.006	0.020
-674.149	-61.492	0.266	0.112
-673.135	572.527	0.026	0.064
-672.120	-200.000	0.008	-0.199
-671.105	752.430	0.045	-0.122
-670.091	800.000	-0.023	-0.065
-669.076	157.931	0.162	0.226
-668.062	-200.000	0.006	-0.065
-667.047	-75.882	-0.116	-0.041
-666.032	-200.000	0.035	-0.231
-665.018	159.695	0.272	-0.380
-664.003	-130.320	-0.136	-0.019
-662.989	138.125	0.020	-0.026
-661.974	256.694	-0.112	-0.193
-660.959	-200.000	-0.023	-0.304
-659.945	800.000	0.046	0.162
-658.930	-83.553	-0.208	0.067
-657.916	-200.000	-0.003	0.208
-656.901	-115.902	-0.413	0.077
-655.886	-115.766	0.024	0.004
-654.872	-200.000	-0.029	-0.131
-653.857	-150.305	-0.312	0.024
-652.843	107.125	0.252	-0.300
-651.828	132.880	-0.290	0.375
-650.814	65.115	0.271	-0.275
-649.799	-22.090	-0.155	0.094
-648.784	-27.279	0.327	0.191
-647.770	-86.841	-0.352	0.108
-646.755	-79.053	0.179	-0.061
-645.741	9.014	-0.207	0.156
-644.726	-200.000	-0.014	-0.189
-643.711	229.727	0.127	-0.208
-642.697	30.452	-0.107	0.091
-641.682	112.421	-0.079	0.095
-640.668	-200.000	-0.003	-0.034
-639.653	75.761	0.108	0.115
-638.638	-200.000	-0.001	0.074
-637.624	566.754	-0.108	0.263
-636.609	464.493	0.149	0.333
-635.595	-151.687	-0.074	0.005
-634.580	-102.638	0.197	0.047
-633.565	100.368	0.071	0.083
-632.551	-200.000	0.045	0.333
-631.536	38.417	0.104	0.093
-630.522	-129.435	-0.343	-0.048
-629.507	-200.000	0.001	0.135
-628.492	-18.315	0.203	-0.127
-627.478	306.941	-0.124	0.231
-626.463	558.401	-0.042	0.101
-625.449	89.364	-0.232	-0.259
-624.434	204.999	0.175	-0.272
-623.419	68.239	-0.199	0.204
-622.405	3.331	0.202	-0.147
-621.390	65.924	0.120	-0.121
-620.376	-147.770	-0.171	0.014
-619.361	-200.000	0.006	0.229
-618.346	-12.026	-0.090	0.059
-617.332	11.960	-0.062	-0.048
-616.317	800.000	-0.077	0.226
-615.303	800.000	-0.105	0.401
-614.288	-200.000	0.218	-0.000
-613.273	-39.311	-0.307	0.161
-612.259	352.105	0.145	0.287
-611.244	-28.686	0.165	0.095
-610.230	68.871	0.117	-0.120
-609.215	-162.931	-0.297	-0.014
-608.201	263.202	0.019	0.034
-607.186	65.429	-0.242	-0.245
-606.171	-150.611	0.122	0.009
-605.157	-103.753	-0.318	-0.075
-604.142	-200.000	0.054	-0.309
-603.128	127.847	-0.082	0.104
-602.113	-200.000	0.033	0.206
-601.098	456.181	-0.120	0.266
-600.084	768.152	-0.079	-0.215
-599.069	265.784	-0.102	-0.178
-598.055	-86.649	0.321	0.098
-597.040	-69.550	-0.093	-0.036
-596.025	-31.721	-0.323	-0.181
-595.011	-84.449	-0.349	0.110
-593.996	326.485	-0.055	-0.105
-592.982	-60.052	0.149	-0.064
-591.967	44.330	0.177	0.163
-590.952	-200.000	0.051	0.253
-589.938	-27.329	-0.449	0.262
-588.923	-56.859	-0.125	0.055
-587.909	-21.761	0.095	0.058
-586.894	-32.650	0.108	-0.060
-585.879	322.784	-0.124	0.236
-584.865	800.000	-0.033	-0.143
-583.850	296.984	-0.147	-0.271
-582.836	-152.030	0.092	-0.007
-581.821	-200.000	0.004	-0.210
-580.806	-200.000	0.050	-0.351
-579.792	800.000	-0.047	-0.192
-578.777	103.301	-0.147	-0.173
-577.763	-56.965	0.357	0.158
-576.748	-115.736	0.340	0.064
-575.733	-143.877	-0.093	-0.009
-574.719	800.000	-0.045	-0.168
-573.704	800.000	0.003	0.009
-572.690	800.000	-0.066	-0.183
-571.675	627.044	-0.146	-0.368
-570.661	179.501	0.338	-0.495
-569.646	52.607	0.231	0.221
-568.631	-85.707	-0.458	0.142
-567.617	-50.436	-0.231	-0.109
-566.602	-200.000	0.076	-0.376
-565.588	294.708	0.086	0.157
-564.573	800.000	0.103	-0.316
-563.558	-62.191	-0.148	0.062
-562.544	-118.963	-0.191	-0.033
-561.529	141.481	0.355	0.469
-560.515	800.000	0.038	-0.106
-559.500	-55.000	0.130	-0.059
-558.485	316.431	0.077	-0.146
-557.471	269.986	0.075	0.132
-556.456	255.169	0.168	-0.287
-555.442	-3.048	0.181	-0.126
-554.427	315.284	-0.038	0.071
-553.412	-42.548	-0.202	-0.103
-552.398	131.317	0.122	0.156
-551.383	128.330	0.145	-0.184
-550.369	715.974	-0.043	-0.114
-549.354	3.327	-0.083	0.061
-548.339	-200.000	0.010	-0.045
-547.325	-200.000	-0.103	0.510
-546.310	-49.250	-0.060	0.029
-545.296	162.557	-0.127	-0.178
-544.281	305.629	-0.117	-0.217
-543.266	-200.000	-0.003	0.080
-542.252	-200.000	0.046	-0.216
-541.237	13.334	0.240	-0.186
-540.223	-77.557	-0.121	0.042
-539.208	114.248	-0.190	-0.230
-538.193	-200.000	0.043	0.274
-537.179	-119.954	-0.475	-0.081
-536.164	-158.206	0.076	0.004
-535.150	564.882	-0.102	0.246
-534.135	-112.910	0.514	0.102
-533.121	-189.225	-0.230	-0.003
-532.106	403.300	-0.023	-0.049
-531.091	-78.012	0.201	-0.069
-530.077	-200.000	0.003	0.085
-529.062	110.474	0.081	0.098
-528.048	800.000	0.068	-0.288
-527.033	121.779	0.108	0.135
-526.018	20.491	-0.162	0.130
-525.004	32.150	-0.123	0.106
-523.989	800.000	0.111	0.374
-522.975	206.485	0.062	0.096
-521.960	-55.879	0.317	0.141
-520.945	-200.000	-0.014	0.152
-519.931	150.946	-0.286	-0.388
-518.916	-200.000	0.063	0.277
-517.902	-200.000	-0.013	-0.170
-516.887	-200.000	-0.003	-0.049
-515.872	-82.636	-0.249	-0.080
-514.858	-5.116	-0.189	0.130
-513.843	800.000	-0.037	0.140
-512.829	-133.816	-0.318	0.039
-511.814	-200.000	0.028	-0.171
-510.799	669.292	0.077	-0.200
-509.785	117.179	-0.094	0.115
-508.770	6.867	0.133	-0.098
-507.756	-121.521	-0.199	0.033
-506.741	163.813	-0.208	0.291
-505.726	-43.745	-0.043	0.021
-504.712	136.091	0.117	0.152
-503.697	159.824	-0.152	-0.211
-502.683	-200.000	-0.015	0.067
-501.668	-54.502	0.116	0.053
-500.653	800.000	0.051	-0.143
-499.639	-95.729	-0.201	0.054
-498.624	-74.112	0.413	0.149
-497.610	414.943	-0.132	-0.281
-496.595	-6.059	-0.054	-0.037
-495.581	3.213	-0.295	0.214
-494.566	800.000	0.058	-0.194
-493.551	15.473	-0.161	0.126
-492.537	41.705	-0.269	-0.243
-491.522	-48.035	-0.132	0.064
-490.508	497.849	-0.072	0.165
-489.493	-65.864	-0.202	-0.081
-488.478	-64.641	-0.237	-0.096
-487.464	-200.000	-0.004	-0.215
-486.449	485.678	-0.088	0.199
-485.435	800.000	0.069	-0.191
-484.420	800.000	-0.061	-0.234
-483.405	-200.000	0.017	0.188
-482.391	-200.000	-0.121	0.000
-481.376	22.521	0.184	-0.150
-480.362	800.000	0.061	-0.197
-479.347	460.498	-0.096	-0.213
-478.332	232.959	-0.152	-0.248
-477.318	-200.000	0.191	-0.000
-476.303	53.687	0.033	0.031
-475.289	-24.421	-0.171	0.101
-474.274	-200.000	0.028	-0.270
-473.259	-200.000	-0.006	-0.060
-472.245	53.500	-0.149	-0.143
-471.230	-76.196	0.186	-0.065
-470.216	-121.967	-0.004	-0.001
-469.201	-143.420	0.276	0.026
-468.186	151.921	-0.183	-0.248
-467.172	-200.000	0.036	0.185
-466.157	800.000	0.031	-0.085
-465.143	-105.681	0.271	0.061
-464.128	-200.000	0.056	0.300
-463.113	36.880	0.003	-0.003
-462.099	703.996	0.055	0.143
-461.084	298.031	0.081	0.149
-460.070	440.401	-0.229	0.498
-459.055	-11.724	-0.127	0.083
-458.040	317.533	-0.107	-0.201
-457.026	-2.624	0.102	-0.071
-456.011	-200.000	0.005	0.104
-454.997	-82.669	0.263	0.085
-453.982	800.000	-0.066	0.203
-452.968	-50.199	-0.103	0.049
-451.953	-200.000	0.004	-0.060
-450.938	800.000	-0.066	0.233
-449.924	638.205	0.043	0.109
-448.909	800.000	-0.057	-0.235
-447.895	18.433	-0.214	-0.170
-446.880	-200.000	-0.024	0.290
-445.865	-37.074	0.323	0.172
-444.851	-103.209	0.253	-0.059
-443.836	21.238	0.186	0.151
-442.822	304.514	0.129	-0.238
-441.807	35.935	-0.154	0.135
-440.792	569.722	0.123	0.296
-439.778	-177.330	-0.208	-0.005
-438.763	446.141	-0.091	-0.199
-437.749	115.383	-0.213	-0.259
-436.734	14.711	-0.181	-0.140
-435.719	-200.000	-0.025	0.271
-434.705	-200.000	-0.013	0.153
-433.690	-127.166	0.419	0.061
-432.676	177.883	0.095	-0.138
-431.661	73.299	0.052	-0.054
-430.646	24.274	-0.101	-0.083
-429.632	465.597	0.099	-0.221
-428.617	-200.000	-0.018	-0.300
-427.603	-31.865	0.237	0.132
-426.588	-180.623	0.268	0.005
-425.573	74.022	-0.270	-0.281
-424.559	800.000	0.070	-0.250
-423.544	794.755	0.180	0.491
-422.530	226.105	0.089	0.143
-421.515	27.091	0.070	-0.058
-420.500	-47.379	0.292	-0.141
-419.486	30.661	0.077	-0.066
-418.471	-84.463	0.219	0.069
-417.457	105.990	0.206	0.242
-416.442	-110.516	0.272	0.056
-415.428	-200.000	-0.015	0.249
-414.413	-66.723	0.345	0.136
-413.398	-200.000	0.011	0.175
-412.384	-200.000	0.081	0.525
-411.369	174.692	-0.169	-0.243
-410.355	-34.183	-0.370	-0.202
-409.340	-138.416	-0.211	-0.023
-408.325	-59.776	-0.163	0.069
-407.311	0.065	0.284	-0.201
-406.296	800.000	0.111	0.355
-405.282	-116.865	0.348	0.063
-404.267	-182.001	-0.278	-0.005
-403.252	-190.599	0.190	0.002
-402.238	575.149	0.095	-0.229
-401.223	-159.419	-0.186	-0.010
-400.209	63.243	0.288	-0.286
-399.194	-200.000	0.015	-0.162
-398.179	-101.730	0.582	0.140
-397.165	-131.953	-0.399	-0.052
-396.150	731.346	0.128	-0.340
-395.136	-106.553	-0.200	-0.044
-394.121	42.442	-0.255	-0.230
-393.106	-77.778	-0.129	0.044
-392.092	-200.000	-0.010	-0.091
-391.077	233.021	0.232	0.379
-390.063	-56.911	-0.117	0.051
-389.048	-200.000	-0.066	-0.439
-388.033	-55.369	0.162	0.072
-387.019	133.801	-0.209	-0.269
-386.004	-200.000	0.107	0.471
-384.990	122.720	0.116	-0.144
-383.975	-122.528	-0.187	-0.030
-382.960	-115.833	0.078	0.014
-381.946	261.260	-0.112	-0.192
-380.931	434.448	0.061	0.131
-379.917	158.337	-0.099	0.137
-378.902	116.768	-0.140	0.170
-377.888	104.816	-0.142	0.167
-376.873	10.631	0.091	0.069
-375.858	87.963	0.048	0.053
-374.844	-200.000	0.017	-0.384
-373.829	-177.985	0.168	0.004
-372.815	-200.000	0.014	-0.302
-371.800	66.158	-0.122	0.123
-370.785	-200.000	0.035	-0.344
-369.771	212.473	-0.130	0.203
-368.756	-95.732	-0.103	0.027
-367.742	405.245	0.088	-0.184
-366.727	524.317	-0.083	-0.194
-365.712	-200.000	-0.023	0.233
-364.698	650.249	0.114	0.289
-363.683	-200.000	-0.016	-0.121
-362.669	800.000	0.048	-0.182
-361.654	38.167	-0.161	0.142
-360.639	468.153	-0.107	-0.239
-359.625	-54.521	-0.204	-0.092
-358.610	346.898	0.107	-0.208
-357.596	21.759	0.196	0.158
-356.581	0.132	-0.237	0.168
-355.566	-126.125	-0.242	0.036
-354.552	800.000	0.081	-0.283
-353.537	-200.000	-0.081	0.375
-352.523	159.084	0.010	0.013
-351.508	-152.254	-0.135	-0.010
-350.493	-200.000	-0.250	0.000
-349.479	473.939	0.075	-0.168
-348.464	712.513	0.066	0.173
-347.450	-15.526	0.069	-0.044
-346.435	800.000	-0.092	-0.344
-345.420	-13.924	-0.140	0.090
-344.406	800.000	-0.040	0.135
-343.391	-200.000	0.005	-0.104
-342.377	-91.324	-0.194	-0.055
-341.362	-200.000	0.015	0.095
-340.348	-200.000	0.006	-0.071
-339.333	568.328	0.133	0.320
-338.318	-200.000	0.016	-0.097
-337.304	800.000	-0.078	0.223
-336.289	-147.988	-0.225	0.018
-335.275	-41.035	-0.090	-0.046
-334.260	-28.790	0.161	0.092
-333.245	-19.069	-0.146	0.090
-332.231	-46.951	-0.310	-0.150
-331.216	-125.625	0.200	-0.030
-330.202	-66.579	0.035	0.014
-329.187	-47.437	-0.036	-0.017
-328.172	189.705	-0.173	-0.256
-327.158	-200.000	0.027	0.126
-326.143	19.400	-0.129	-0.102
-325.129	800.000	-0.131	-0.391
-324.114	800.000	-0.027	-0.077
-323.099	-200.000	-0.009	-0.291
-322.085	-121.831	0.026	0.004
-321.070	-18.808	-0.116	-0.072
-320.056	42.563	-0.112	-0.101
-319.041	-32.841	-0.064	-0.035
-318.026	-43.696	0.097	-0.048
-317.012	-200.000	-0.036	-0.174
-315.997	447.919	-0.052	0.113
-314.983	-200.000	0.012	-0.057
-313.968	5.963	0.147	0.108
-312.953	800.000	-0.045	-0.141
-311.939	-148.704	-0.056	-0.005
-310.924	-128.839	-0.184	0.026
-309.910	-200.000	-0.011	0.120
-308.895	-106.907	0.298	-0.065
-307.880	-41.878	-0.251	-0.127
-306.866	38.300	-0.298	-0.263
-305.851	358.816	0.076	0.150
-304.837	459.564	0.110	-0.243
-303.822	264.763	-0.188	-0.325
-302.807	402.439	0.074	0.154
-301.793	115.838	0.176	-0.213
-300.778	26.442	0.005	-0.004
-299.764	-104.023	-0.169	0.039
-298.749	240.404	0.133	0.218
-297.735	-21.164	-0.241	0.146
-296.720	-12.874	0.121	0.078
-295.705	183.159	-0.125	0.182
-294.691	63.383	0.256	-0.254
-293.676	16.494	0.104	0.081
-292.662	800.000	0.143	0.429
-291.647	457.198	-0.071	0.155
-290.632	136.658	0.251	-0.324
-289.618	-49.046	-0.348	-0.165
-288.603	-17.712	0.206	-0.128
-287.589	-13.672	0.248	0.159
-286.574	-56.453	-0.147	0.065
-285.559	800.000	0.093	0.368
-284.545	750.899	-0.058	0.155
-283.530	-32.974	0.168	0.092
-282.516	118.045	-0.101	-0.124
-281.501	698.462	-0.116	-0.301
-280.486	-200.000	-0.005	-0.117
-279.472	-139.640	0.277	-0.029
-278.457	-122.353	0.273	-0.044
-277.443	70.128	-0.207	0.211
-276.428	-53.805	0.182	0.082
-275.413	-102.707	0.161	-0.038
-274.399	-200.000	0.051	-0.316
-273.384	-200.000	0.050	-0.367
-272.370	800.000	-0.064	-0.253
-271.355	-92.936	-0.189	0.052
-270.340	-44.189	0.168	0.083
-269.326	646.769	0.041	-0.104
-268.311	-130.014	-0.109	-0.015
-267.297	-163.165	0.071	0.003
-266.282	-200.000	-0.005	0.058
-265.267	-79.885	-0.317	-0.105
-264.253	290.918	0.198	0.355
-263.238	-63.003	0.271	-0.110
-262.224	-112.627	-0.354	-0.070
-261.209	58.697	-0.085	-0.083
-260.195	-113.462	0.253	-0.049
-259.180	-132.523	0.301	0.038
-258.165	125.123	-0.079	-0.098
-257.151	-43.036	0.102	0.051
-256.136	-200.000	-0.022	0.131
-255.122	800.000	0.045	-0.143
-254.107	5.263	0.139	-0.101
-253.092	-200.000	-0.016	-0.337
-252.078	-158.553	-0.315	0.018
-251.063	-200.000	-0.038	-0.312
-250.049	-200.000	-0.008	-0.123
-249.034	144.691	0.189	0.249
-248.019	-121.033	0.084	-0.014
-247.005	800.000	0.045	0.147
-245.990	428.861	-0.076	0.163
-244.976	-6.860	-0.260	0.174
-243.961	-200.000	0.037	0.190
-242.946	800.000	-0.077	-0.261
-241.932	-105.032	-0.278	-0.063
-240.917	800.000	0.099	-0.387
-239.903	800.000	0.028	0.101
-238.888	-133.309	-0.225	-0.028
-237.873	167.513	0.245	0.343
-236.859	-200.000	-0.014	-0.231
-235.844	800.000	-0.103	-0.376
-234.830	159.296	0.177	0.243
-233.815	172.064	0.123	-0.175
-232.800	-27.916	0.194	0.111
-231.786	716.704	-0.199	-0.521
-230.771	-55.747	-0.369	0.162
-229.757	-200.000	-0.039	0.180
-228.742	-67.593	-0.338	0.131
-227.727	764.016	0.066	0.176
-226.713	-200.000	-0.076	0.355
-225.698	-54.358	0.211	-0.095
-224.684	116.843	-0.146	0.177
-223.669	-200.000	-0.090	0.618
-222.655	567.344	0.167	0.399
-221.640	-13.972	0.167	0.106
-220.625	-43.631	0.291	0.145
-219.611	-29.077	0.286	0.162
-218.596	-131.381	0.109	0.014
-217.582	183.453	0.090	0.132
-216.567	-200.000	0.023	-0.169
-215.552	800.000	-0.079	-0.257
-214.538	-200.000	-0.017	-0.281
-213.523	137.328	0.172	-0.221
-212.509	-36.296	0.225	-0.120
-211.494	-126.692	-0.116	0.017
-210.479	231.342	0.153	-0.247
-209.465	-118.892	-0.168	0.029
-208.450	-200.000	-0.006	-0.214
-207.436	-75.164	-0.205	0.072
-206.421	800.000	-0.027	0.080
-205.406	-51.222	-0.080	0.037
-204.392	702.039	-0.047	0.121
-203.377	423.901	0.059	0.126
-202.363	800.000	0.134	0.479
-201.348	-64.204	0.186	-0.075
-200.333	-66.764	-0.250	0.097
-199.319	-200.000	0.017	-0.184
-198.304	17.089	-0.194	0.152
-197.290	-200.000	-0.010	0.183
-196.275	15.871	0.270	0.210
-195.260	-200.000	-0.004	-0.030
-194.246	-107.728	0.306	0.066
-193.231	2.846	-0.131	-0.093
-192.217	-60.346	-0.052	-0.022
-191.202	107.068	-0.096	0.112
-190.187	49.244	0.173	0.160
-189.173	-200.000	-0.032	0.146
-188.158	18.588	0.164	-0.129
-187.144	-200.000	-0.018	-0.224
-186.129	144.985	-0.123	-0.162
-185.114	-200.000	0.031	-0.176
-184.100	300.517	-0.077	-0.139
-183.085	-200.000	-0.037	0.209
-182.071	-200.000	-0.002	-0.030
-181.056	90.317	0.230	-0.253
-180.042	800.000	-0.112	-0.352
-179.027	202.872	-0.038	0.058
-178.012	-120.309	0.367	0.062
-176.998	787.028	-0.051	0.138
-175.983	2.477	-0.156	-0.111
-174.969	-83.991	0.194	0.061
-173.954	154.773	-0.066	0.089
-172.939	-25.618	0.255	0.148
-171.925	-84.523	0.242	-0.075
-170.910	581.700	0.065	-0.156
-169.896	126.454	0.081	0.101
-168.881	57.939	-0.203	0.196
-167.866	-200.000	-0.044	-0.246
-166.852	775.391	0.071	0.190
-165.837	-6.129	0.111	0.074
-164.823	36.542	0.177	0.153
-163.808	800.000	0.053	-0.151
-162.793	-121.352	0.096	-0.016
-161.779	181.641	0.228	0.330
-160.764	41.024	-0.144	0.128
-159.750	-200.000	-0.005	-0.046
-158.735	-200.000	0.090	0.389
-157.720	106.380	-0.034	-0.039
-156.706	-66.037	0.057	-0.022
-155.691	35.614	0.396	0.342
-154.677	285.924	0.192	-0.340
-153.662	42.518	0.087	0.078
-152.647	-14.185	-0.086	-0.055
-151.633	-200.000	-0.033	0.200
-150.618	-91.589	-0.193	-0.054
-149.604	-130.394	0.128	0.017
-148.589	-13.262	-0.110	0.070
-147.574	-200.000	-0.086	-0.411
-146.560	-200.000	-0.013	-0.225
-145.545	182.641	-0.108	0.156
-144.531	-74.890	0.239	0.084
-143.516	800.000	-0.075	0.271
-142.502	-45.303	0.117	0.057
-141.487	-97.840	-0.287	0.073
-140.472	148.559	0.098	0.130
-139.458	82.815	-0.012	-0.013
-138.443	-76.792	-0.299	-0.103
-137.429	-130.110	0.152	-0.020
-136.414	-53.343	0.131	-0.059
-135.399	-12.598	0.324	0.208
-134.385	38.991	0.081	-0.071
-133.370	-20.876	-0.099	0.059
-132.356	326.238	0.184	-0.346
-131.341	59.713	0.121	-0.117
-130.326	129.957	-0.195	-0.245
-129.312	800.000	-0.045	-0.162
-128.297	253.484	-0.195	0.327
-127.283	-17.915	-0.213	0.131
-126.268	405.000	-0.109	-0.225
-125.253	315.818	-0.141	0.262
-124.239	800.000	0.098	0.309
-123.224	94.684	-0.024	0.027
-122.210	127.548	0.076	-0.095
-121.195	-200.000	-0.017	0.241
-120.180	-1.524	0.062	-0.043
-119.166	-22.944	-0.185	-0.110
-118.151	231.766	0.129	-0.207
-117.137	30.726	-0.195	-0.164
-116.122	-167.018	-0.210	0.008
-115.107	13.401	-0.364	-0.277
-114.093	46.624	-0.200	-0.182
-113.078	-111.357	-0.123	-0.025
-112.064	-4.466	-0.155	-0.105
-111.049	-62.164	-0.348	-0.143
-110.034	-41.690	-0.023	0.012
-109.020	0.690	-0.408	0.287
-108.005	-200.000	-0.014	0.245
-106.991	-186.213	-0.069	0.001
-105.976	-24.730	-0.036	-0.021
-104.962	-67.312	0.039	0.015
-103.947	777.658	-0.087	-0.233
-102.932	179.912	0.082	0.119
-101.918	613.012	-0.078	-0.192
-100.903	-181.460	-0.111	-0.002
-99.889	800.000	-0.018	-0.063
-98.874	-89.553	0.113	-0.033
-97.859	74.815	0.133	-0.138
-96.845	429.282	0.078	0.166
-95.830	800.000	-0.058	-0.218
-94.816	401.068	0.221	0.455
-93.801	56.063	0.136	0.130
-92.786	-125.811	0.371	-0.055
-91.772	69.079	0.183	0.184
-90.757	-200.000	0.024	0.201
-89.743	-111.611	0.265	0.053
-88.728	-26.120	-0.124	0.071
-87.713	-61.293	-0.044	-0.018
-86.699	-200.000	0.007	-0.065
-85.684	362.224	-0.053	-0.103
-84.670	228.102	-0.354	0.566
-83.655	-200.000	0.040	-0.237
-82.640	-200.000	0.028	0.316
-81.626	261.134	0.153	-0.259
-80.611	314.593	0.059	0.109
-79.597	-129.938	0.073	0.010
-78.582	800.000	0.076	0.220
-77.567	-50.193	0.046	-0.021
-76.553	800.000	-0.061	-0.195
-75.538	-57.552	-0.287	0.123
-74.524	-132.646	0.217	-0.027
-73.509	68.070	0.332	0.333
-72.494	-200.000	-0.179	0.000
-71.480	-200.000	-0.053	0.366
-70.465	29.395	0.222	0.185
-69.451	-60.505	-0.073	0.031
-68.436	-0.265	-0.298	0.207
-67.422	-12.209	-0.249	0.160
-66.407	316.360	-0.120	0.222
-65.392	359.617	0.073	0.142
-64.378	-48.253	-0.191	0.090
-63.363	-200.000	0.024	-0.247
-62.349	-68.386	0.200	-0.076
-61.334	156.390	-0.870	-1.177
-60.319	16.895	0.786	0.610
-59.305	800.000	-0.279	-0.854
-58.290	388.216	0.661	1.339
-57.276	800.000	0.370	1.440
-56.261	-200.000	113.497	639.424
-55.246	465.238	1509.195	3307.704
-54.232	146.388	2679.818	3524.159
-53.217	103.615	2160.353	2483.946
-52.203	38.776	1604.793	1403.210
-51.188	30.576	1349.793	1130.576
-50.173	27.764	1311.670	1081.957
-49.159	55.478	1367.309	1296.077
-48.144	53.916	1382.376	1300.891
-47.130	30.923	1337.768	1122.417
-46.115	27.442	1319.890	1086.644
-45.100	27.202	1315.018	1081.162
-44.086	27.200	1312.392	1078.947
-43.071	27.184	1309.661	1076.564
-42.057	27.161	1307.904	1074.944
-41.042	27.208	1306.272	1073.839
-40.027	27.222	1304.508	1072.429
-39.013	27.182	1303.003	1070.911
-37.998	27.184	1300.892	1069.146
-36.984	27.326	1299.095	1068.463
-35.969	27.302	1297.293	1066.794
-34.954	27.486	1295.560	1066.407
-33.940	27.512	1293.754	1065.028
-32.925	27.508	1292.851	1064.218
-31.911	27.325	1292.050	1062.447
-30.896	27.442	1290.163	1061.539
-29.881	27.393	1288.924	1060.190
-28.867	27.431	1287.443	1059.151
-27.852	27.508	1285.707	1058.125
-26.838	27.563	1284.264	1057.216
-25.823	27.476	1283.384	1055.944
-24.809	27.475	1281.654	1054.478
-23.794	27.447	1280.401	1053.239
-22.779	27.490	1279.201	1052.462
-21.765	27.367	1278.621	1051.232
-20.750	27.517	1276.641	1050.426
-19.736	27.433	1275.312	1048.805
-18.721	27.404	1274.327	1047.787
-17.706	27.393	1273.007	1046.601
-16.692	27.347	1272.261	1045.679
-15.677	27.368	1271.219	1044.905
-14.663	27.343	1269.772	1043.530
-13.648	27.245	1268.930	1042.234
-12.633	27.329	1267.422	1041.432
-11.619	27.359	1266.599	1040.891
-10.604	27.273	1266.210	1040.037
-9.590	27.240	1265.439	1039.172
-8.575	27.384	1264.133	1038.882
-7.560	27.287	1263.140	1037.469
-6.546	27.295	1262.287	1036.775
-5.531	27.352	1260.986	1035.987
-4.517	27.312	1260.593	1035.397
-3.502	27.276	1260.243	1034.862
-2.487	27.347	1258.448	1033.751
-1.473	27.305	1254.822	1030.494
-0.458	25.798	1239.492	1009.428
0.556	21.042	1223.136	972.919
1.571	17.510	1229.611	958.141
2.586	16.719	1244.275	964.975
3.600	16.780	1233.508	956.887
4.615	15.667	1167.435	899.597
5.629	13.022	1100.999	834.961
6.644	11.492	1084.989	815.114
7.659	11.408	1082.634	812.857
8.673	11.464	1081.256	812.027
9.688	11.496	1079.864	811.068
10.702	11.568	1077.702	809.730
11.717	13.075	1079.158	818.227
12.731	15.809	1082.250	834.068
13.746	17.534	1084.760	844.491
14.761	17.529	1084.198	843.955
15.775	16.553	1081.958	837.306
16.790	15.666	1079.947	831.291
17.804	14.934	1078.437	826.437
18.819	14.363	1077.237	822.627
19.834	14.192	1076.158	820.887
20.848	13.975	1075.057	818.905
21.863	13.708	1074.667	817.222
22.877	13.505	1073.671	815.389
23.892	13.522	1072.487	814.503
24.907	13.614	1072.040	814.545
25.921	13.634	1070.912	813.714
26.936	13.568	1069.689	812.386
27.950	13.553	1068.838	811.594
28.965	13.688	1066.510	810.415
29.980	13.714	1065.138	809.432
30.994	13.793	1064.170	809.008
32.009	13.882	1063.241	808.666
33.023	13.614	1062.312	806.581
34.038	13.656	1061.271	805.925
35.053	13.682	1060.475	805.373
36.067	13.767	1059.153	804.710
37.082	13.714	1058.594	803.958
38.096	13.750	1057.590	803.299
39.111	13.710	1056.846	802.468
40.126	13.677	1055.980	801.584
41.140	13.613	1054.334	799.949
42.155	13.565	1053.445	798.974
43.169	13.578	1051.940	797.825
44.184	13.435	1051.517	796.745
45.199	13.482	1050.703	796.286
46.213	13.610	1049.097	795.614
47.228	13.702	1048.060	795.198
48.242	13.667	1047.140	794.260
49.257	13.499	1046.474	792.878
50.271	13.670	1045.042	792.545
51.286	13.628	1044.322	791.727
52.301	13.683	1043.199	791.067
53.315	13.636	1042.349	790.128
54.330	13.611	1041.540	789.325
55.344	13.624	1040.743	788.713
56.359	13.645	1039.317	787.664
57.374	13.474	1038.648	786.276
58.388	13.512	1037.663	785.641
59.403	13.510	1036.875	784.966
60.417	13.459	1036.064	784.041
61.432	13.362	1035.130	782.805
62.447	13.478	1034.273	782.635
63.461	13.435	1033.500	781.780
64.476	13.469	1032.608	781.194
65.490	13.349	1032.218	780.266
66.505	13.450	1031.181	779.886
67.520	13.494	1030.112	779.216
68.534	13.561	1029.898	779.303
69.549	13.456	1029.265	778.261
70.563	13.433	1028.014	777.137
71.578	13.367	1027.592	776.440
72.593	13.233	1027.211	775.452
73.607	13.329	1025.834	774.798
74.622	13.347	1025.524	774.579
75.636	13.390	1024.848	774.201
76.651	13.332	1024.447	773.557
77.666	13.337	1023.385	772.709
78.680	13.360	1022.810	772.317
79.695	13.329	1022.213	771.650
80.709	13.363	1021.954	771.544
81.724	13.544	1020.617	771.312
82.739	13.526	1020.126	770.789
83.753	13.629	1019.498	770.722
84.768	13.814	1018.739	770.943
85.782	13.759	1017.929	770.005
86.797	13.666	1016.457	768.392
87.812	13.588	1015.905	767.545
88.826	13.596	1014.676	766.587
89.841	13.713	1013.751	766.360
90.855	13.729	1012.509	765.428
91.870	13.706	1012.071	764.924
92.884	13.873	1010.986	764.807
93.899	13.808	1010.624	764.166
94.914	13.815	1010.010	763.662
95.928	13.882	1008.755	762.957
96.943	13.892	1008.175	762.495
97.957	13.763	1007.454	761.290
98.972	13.791	1006.028	760.276
99.987	13.733	1005.359	759.435
101.001	13.746	1004.260	758.596
102.016	13.606	1003.942	757.653
103.030	13.643	1003.207	757.197
104.045	13.893	1001.785	757.198
105.060	13.650	1001.331	755.681
106.074	13.598	1000.124	754.465
107.089	13.538	999.255	753.470
108.103	13.538	998.337	752.712
109.118	13.434	997.341	751.421
110.133	13.512	996.067	750.749
111.147	13.525	995.255	750.128
112.162	13.514	994.640	749.549
113.176	13.742	993.630	749.752
114.191	13.609	992.893	748.529
115.206	13.548	992.090	747.581
116.220	13.600	990.990	746.922
117.235	13.683	990.127	746.582
118.249	13.742	989.214	746.088
119.264	13.734	988.614	745.538
120.279	13.668	987.653	744.449
121.293	13.578	987.168	743.614
122.308	13.621	986.011	742.870
123.322	13.561	984.835	741.647
124.337	13.478	984.244	740.766
125.352	13.576	982.505	739.830
126.366	13.578	981.623	739.109
127.381	13.512	980.554	737.947
128.395	13.584	979.862	737.678
129.410	13.616	978.749	736.918
130.424	13.590	978.399	736.474
131.439	13.841	976.993	736.466
132.454	13.620	977.015	735.436
133.468	13.709	976.064	735.050
134.483	13.720	975.001	734.234
135.497	13.635	974.351	733.302
136.512	13.650	973.407	732.594
137.527	13.630	972.716	731.921
138.541	13.733	972.097	731.844
139.556	13.796	971.192	731.373
140.570	13.829	970.404	730.864
141.585	13.940	969.419	730.542
142.600	13.899	968.672	729.736
143.614	14.005	967.853	729.521
144.629	13.896	967.174	728.464
145.643	13.881	966.521	727.844
146.658	13.775	965.156	726.287
147.673	13.810	964.013	725.517
148.687	13.885	963.319	725.256
149.702	13.582	963.013	723.640
150.716	13.672	961.732	723.006
151.731	13.779	960.713	722.643
152.746	13.679	960.674	722.111
153.760	13.885	959.251	721.874
154.775	13.848	959.265	721.660
155.789	13.981	958.229	721.395
156.804	13.885	957.850	720.629
157.819	13.947	957.239	720.376
158.833	14.058	956.136	719.959
159.848	14.072	955.622	719.570
160.862	13.998	954.399	718.267
161.877	13.923	953.387	717.117
162.892	13.842	952.513	716.048
163.906	13.846	951.356	715.131
164.921	13.865	950.923	714.824
165.935	13.929	950.055	714.385
166.950	13.930	949.104	713.608
167.964	13.939	948.427	713.078
168.979	13.847	947.340	711.802
169.994	13.939	946.158	711.245
171.008	13.959	945.782	710.987
172.023	14.052	944.883	710.644
173.037	14.205	944.272	710.777
174.052	14.078	943.542	709.619
175.067	14.064	942.560	708.759
176.081	13.993	942.145	708.082
177.096	13.945	941.820	707.571
178.110	13.916	941.211	706.927
179.125	13.990	940.550	706.681
180.140	14.130	939.839	706.683
181.154	14.090	939.539	706.223
182.169	14.065	938.946	705.608
183.183	14.193	938.093	705.448
184.198	14.047	937.749	704.509
185.213	14.264	936.604	704.504
186.227	14.116	936.433	703.685
187.242	14.195	936.076	703.692
188.256	14.272	935.191	703.289
189.271	14.238	934.446	702.520
190.286	14.107	933.375	701.101
191.300	14.064	932.675	700.334
192.315	14.109	931.901	699.881
193.329	14.112	931.566	699.579
194.344	14.110	931.063	699.131
195.359	14.121	930.283	698.528
196.373	14.291	929.599	698.666
197.388	14.349	929.315	698.634
198.402	14.377	929.010	698.462
199.417	14.511	928.157	698.319
200.432	14.465	927.777	697.781
201.446	14.577	927.122	697.695
202.461	14.579	926.852	697.435
203.475	14.460	926.121	696.327
204.490	14.441	925.573	695.774
205.504	14.434	924.287	694.720
206.519	14.405	923.826	694.188
207.534	14.511	922.909	693.882
208.548	14.497	922.452	693.415
209.563	14.451	921.838	692.702
210.577	14.593	920.965	692.574
211.592	14.521	920.764	692.062
212.607	14.596	919.751	691.554
213.621	14.712	918.299	690.877
214.636	14.703	918.320	690.795
215.650	14.558	917.606	689.599
216.665	14.732	916.792	689.643
217.680	14.804	916.076	689.341
218.694	14.748	915.232	688.415
219.709	14.751	914.650	687.931
220.723	14.812	913.934	687.579
221.738	14.648	913.392	686.436
222.753	14.735	912.754	686.254
223.767	14.770	912.081	685.832
224.782	14.811	911.910	685.811
225.796	14.875	911.165	685.453
226.811	14.822	910.236	684.474
227.826	14.785	909.543	683.743
228.840	14.866	908.663	683.354
229.855	14.858	907.991	682.754
230.869	14.825	907.516	682.203
231.884	14.819	906.829	681.598
232.899	14.642	906.326	680.440
233.913	14.588	905.923	679.855
234.928	14.702	904.559	679.237
235.942	14.627	904.549	678.864
236.957	14.688	903.769	678.465
237.972	14.791	902.999	678.245
238.986	14.759	902.547	677.719
240.001	14.922	901.448	677.492
241.015	14.904	900.946	676.981
242.030	14.904	900.399	676.512
243.045	14.848	899.828	675.797
244.059	15.027	899.269	676.041
245.074	15.044	898.228	675.266
246.088	15.092	897.582	674.913
247.103	15.105	897.139	674.574
248.117	15.137	896.816	674.400
249.132	15.173	896.564	674.295
250.147	15.255	895.473	673.746
251.161	15.326	894.933	673.564
252.176	15.466	894.283	673.578
253.190	15.388	893.693	672.759
254.205	15.496	893.123	672.706
255.220	15.362	892.144	671.370
256.234	15.405	891.790	671.218
257.249	15.339	891.263	670.497
258.263	15.370	890.530	670.012
259.278	15.458	889.366	669.427
260.293	15.415	889.442	669.253
261.307	15.349	888.848	668.486
262.322	15.481	888.008	668.320
263.336	15.512	887.402	667.927
264.351	15.694	886.161	667.656
265.366	15.628	885.918	667.153
266.380	15.645	885.216	666.634
267.395	15.537	884.364	665.504
268.409	15.548	883.570	664.889
269.424	15.566	882.822	664.339
270.439	15.635	882.093	664.005
271.453	15.479	881.677	663.015
272.468	15.463	881.107	662.468
273.482	15.453	880.638	662.018
274.497	15.489	880.351	661.884
275.512	15.529	879.570	661.394
276.526	15.658	879.123	661.510
277.541	15.611	878.412	660.732
278.555	15.712	877.830	660.633
279.570	15.773	877.249	660.373
280.585	15.747	876.557	659.693
281.599	15.786	875.447	658.952
282.614	15.745	874.677	658.156
283.628	15.771	874.268	657.889
284.643	15.705	873.813	657.230
285.657	15.803	872.767	656.768
286.672	15.819	872.517	656.585
287.687	15.948	871.546	656.301
288.701	15.845	871.262	655.628
289.716	15.891	870.156	654.916
290.730	15.932	870.105	654.978
291.745	15.897	869.401	654.254
292.760	15.861	868.960	653.722
293.774	15.877	868.434	653.332
294.789	15.921	867.938	653.074
295.803	15.900	867.287	652.443
296.818	15.892	866.369	651.666
297.833	15.945	865.710	651.314
298.847	15.950	865.031	650.767
299.862	15.993	864.449	650.435
300.876	15.926	864.116	649.871
301.891	16.064	863.534	649.909
302.906	16.043	862.905	649.297
303.920	16.245	862.334	649.587
304.935	16.176	861.980	648.995
305.949	16.147	861.323	648.334
306.964	16.006	860.934	647.439
307.979	16.267	859.967	647.659
308.993	16.136	859.389	646.664
310.008	16.178	858.753	646.289
311.022	16.253	857.939	645.904
312.037	16.243	857.379	645.390
313.052	16.235	857.075	645.071
314.066	16.012	856.438	643.682
315.081	16.103	856.046	643.681
316.095	16.115	855.614	643.342
317.110	15.998	855.122	642.473
318.125	16.135	854.659	642.587
319.139	16.075	854.088	641.874
320.154	16.091	853.293	641.281
321.168	16.299	852.357	641.312
322.183	16.237	851.958	640.718
323.197	16.364	851.901	641.099
324.212	16.186	851.321	639.932
325.227	16.276	850.749	639.784
326.241	16.280	849.963	639.155
327.256	16.165	849.688	638.456
328.270	16.198	848.599	637.706
329.285	16.357	847.975	637.779
330.300	16.266	847.551	637.061
331.314	16.343	847.259	637.076
332.329	16.263	846.939	636.476
333.343	16.315	846.644	636.396
334.358	16.417	846.055	636.282
335.373	16.400	845.685	635.881
336.387	16.452	845.426	635.827
337.402	16.375	845.277	635.367
338.416	16.512	844.787	635.459
339.431	16.644	843.992	635.300
340.446	16.638	843.788	635.069
341.460	16.532	843.465	634.371
342.475	16.613	843.290	634.486
343.489	16.584	842.588	633.795
344.504	16.750	841.736	633.717
345.519	16.844	841.362	633.731
346.533	16.742	840.875	632.928
347.548	16.678	840.260	632.169
348.562	16.640	839.855	631.667
349.577	16.637	839.206	631.113
350.592	16.565	838.662	630.380
351.606	16.646	837.745	629.936
352.621	16.647	837.049	629.361
353.635	16.829	836.367	629.468
354.650	16.817	835.639	628.821
355.665	16.697	835.454	628.180
356.679	16.889	834.548	628.156
357.694	16.916	833.974	627.769
358.708	16.765	833.535	626.822
359.723	16.793	832.906	626.398
360.738	16.799	832.580	626.120
361.752	16.903	831.562	625.680
362.767	16.917	831.340	625.510
363.781	17.029	830.525	625.257
364.796	16.884	830.226	624.440
365.810	17.088	829.981	624.953
366.825	17.163	829.764	625.009
367.840	17.132	829.170	624.392
368.854	17.098	828.502	623.708
369.869	17.023	828.168	623.129
370.883	17.130	827.524	622.979
371.898	17.135	827.572	622.979
372.913	17.079	827.536	622.691
373.927	17.108	826.225	621.757
374.942	17.147	826.098	621.747
375.956	17.179	825.500	621.362
376.971	17.375	825.107	621.727
377.986	17.209	825.146	621.094
379.000	17.338	823.979	620.632
380.015	17.544	823.479	620.951
381.029	17.237	823.008	619.421
382.044	17.402	822.232	619.383
383.059	17.339	821.705	618.704
384.073	17.497	820.557	618.358
385.088	17.333	820.582	617.727
386.102	17.279	820.127	617.132
387.117	17.350	819.478	616.848
388.132	17.378	818.887	616.449
389.146	17.422	818.417	616.201
390.161	17.240	818.199	615.324
391.175	17.327	817.692	615.202
392.190	17.460	817.175	615.239
393.205	17.404	816.750	614.663
394.219	17.455	816.245	614.413
395.234	17.307	815.807	613.494
396.248	17.303	815.613	613.278
397.263	17.259	815.169	612.734
398.278	17.098	814.732	611.772
399.292	17.359	813.987	612.096
400.307	17.402	813.720	611.994
401.321	17.322	813.116	611.199
402.336	17.414	812.424	610.956
403.350	17.621	812.070	611.379
404.365	17.464	812.048	610.744
405.380	17.632	811.149	610.617
406.394	17.670	810.413	610.144
407.409	17.762	810.336	610.362
408.423	17.696	810.043	609.853
409.438	17.746	809.565	609.616
410.453	17.794	809.174	609.440
411.467	17.975	808.516	609.535
412.482	17.759	807.951	608.284
413.496	17.926	807.907	608.793
414.511	17.882	807.595	608.347
415.526	17.821	807.343	607.886
416.540	17.961	806.349	607.584
417.555	17.874	805.968	606.932
418.569	17.868	805.939	606.836
419.584	18.189	805.159	607.336
420.599	17.888	804.793	605.936
421.613	111.525	1294.978	1476.428
422.628	96.205	1366.366	1476.527
