DTS Sentinel unit serial number:	SN413079Multiplexer serial number:	ORYXHardware model number:	OX4-SRSoftware version number:	ORYX F/W v4.00 Oryx Data Collector v3.7.2.0data status	okinstallation	princeton_trtdifferential loss correction	single-endedforward channel	channel 1reverse channel	N/Adate	2019/09/14time	19:18:36forward acquisition time	60.00reverse acquisition time	0.00gamma	496.2192k internal	0.2311k external	0.2311temperature offset calibration	1.0028default loss term (dB/km)	0.3790temperature slope calibration	1.0000multiplexer offset coefficient	1.0000multiplexer slope coefficient	1.0000fibre end	0.00T internal ref (°C)	35.08T ext. ref 1 (°C)	4.87T ext. ref 2 (°C)	29.11length (m)	temperature (°C)	Stokes	anti-Stokes-747.200	56.279	0.270	0.266
-746.185	-6.660	0.173	0.119
-745.171	98.038	-0.143	0.167
-744.156	-46.290	0.119	0.059
-743.142	117.340	-0.141	0.176
-742.127	-17.420	0.226	0.144
-741.112	81.577	-0.156	0.172
-740.098	-200.000	-0.001	0.271
-739.083	224.687	-0.055	-0.091
-738.069	542.171	0.083	0.200
-737.054	477.236	0.018	-0.042
-736.039	44.339	-0.212	-0.197
-735.025	-83.920	0.304	0.098
-734.010	121.512	0.099	-0.125
-732.996	217.070	0.141	-0.227
-731.981	171.982	-0.118	-0.172
-730.966	-138.082	-0.156	-0.018
-729.952	-9.026	0.232	-0.157
-728.937	-126.524	0.172	0.026
-727.923	800.000	-0.055	0.186
-726.908	-200.000	0.003	0.089
-725.894	184.899	-0.112	-0.169
-724.879	-200.000	-0.336	0.001
-723.864	-60.228	-0.335	-0.145
-722.850	72.616	0.054	-0.057
-721.835	800.000	-0.020	0.087
-720.821	512.589	-0.028	0.067
-719.806	800.000	0.053	-0.172
-718.791	62.033	0.201	-0.203
-717.777	-23.715	-0.250	-0.152
-716.762	-152.218	-0.201	-0.015
-715.748	61.222	0.047	-0.048
-714.733	-87.385	-0.251	-0.077
-713.718	-71.150	-0.204	0.078
-712.704	85.865	-0.184	-0.205
-711.689	-200.000	0.069	-0.508
-710.675	1.876	0.072	-0.053
-709.660	-51.807	-0.088	0.042
-708.645	-152.669	0.352	-0.025
-707.631	45.474	-0.077	-0.072
-706.616	205.808	-0.103	0.162
-705.602	506.896	0.041	-0.097
-704.587	39.712	-0.165	0.150
-703.572	-70.746	0.175	-0.067
-702.558	-117.806	0.158	-0.029
-701.543	15.181	0.021	0.016
-700.529	-84.492	-0.232	0.074
-699.514	-155.756	0.316	0.020
-698.499	-193.498	-0.163	0.001
-697.485	-149.402	0.169	-0.014
-696.470	490.982	0.106	0.246
-695.456	37.889	0.156	-0.141
-694.441	-41.818	-0.254	-0.132
-693.426	750.668	-0.122	-0.335
-692.412	71.241	0.155	-0.163
-691.397	-160.907	0.437	0.023
-690.383	75.752	-0.072	0.077
-689.368	-200.000	0.052	0.275
-688.354	44.097	-0.113	-0.105
-687.339	800.000	0.039	-0.159
-686.324	135.063	0.251	0.330
-685.310	16.884	-0.185	0.149
-684.295	442.164	0.103	-0.229
-683.281	800.000	-0.132	-0.372
-682.266	800.000	-0.023	-0.071
-681.251	-10.976	-0.203	0.136
-680.237	-74.190	0.216	0.079
-679.222	-172.179	-0.346	-0.011
-678.208	-15.888	-0.354	0.228
-677.193	-24.508	-0.134	-0.081
-676.178	-88.956	-0.262	-0.079
-675.164	97.012	0.067	-0.077
-674.149	-49.022	-0.274	-0.133
-673.135	444.890	0.061	-0.136
-672.120	-84.557	0.170	-0.054
-671.105	271.564	-0.180	-0.321
-670.091	-15.420	0.085	0.055
-669.076	-200.000	0.031	-0.254
-668.062	168.737	0.100	0.144
-667.047	-36.254	0.326	0.178
-666.032	615.457	0.017	-0.043
-665.018	-16.659	0.158	-0.102
-664.003	800.000	-0.050	0.192
-662.989	79.200	0.237	-0.256
-661.974	-56.733	0.181	0.081
-660.959	101.397	-0.072	-0.085
-659.945	704.317	-0.089	-0.238
-658.930	13.749	-0.216	-0.169
-657.916	25.689	-0.111	0.094
-656.901	92.650	-0.085	-0.097
-655.886	123.196	0.064	0.081
-654.872	-132.841	0.072	-0.009
-653.857	-49.814	-0.203	0.097
-652.843	-86.446	0.296	0.092
-651.828	10.743	-0.225	0.174
-650.814	-180.946	0.299	0.006
-649.799	321.506	-0.147	-0.283
-648.784	-111.018	0.027	-0.006
-647.770	23.528	-0.296	-0.246
-646.755	9.198	0.359	-0.275
-645.741	-200.000	0.001	-0.125
-644.726	800.000	-0.078	0.234
-643.711	-200.000	-0.052	0.242
-642.697	-200.000	0.034	-0.223
-641.682	-58.913	0.017	0.007
-640.668	343.512	-0.179	0.355
-639.653	-200.000	-0.083	0.000
-638.638	544.484	0.159	-0.385
-637.624	289.508	0.087	-0.160
-636.609	-89.922	-0.364	-0.108
-635.595	-136.349	-0.157	-0.018
-634.580	365.397	0.057	0.117
-633.565	86.096	-0.205	0.229
-632.551	245.750	-0.148	-0.252
-631.536	-200.000	-0.012	0.084
-630.522	-30.813	-0.157	-0.090
-629.507	-71.216	0.264	0.100
-628.492	800.000	0.068	0.223
-627.478	-45.922	0.194	-0.097
-626.463	-200.000	0.001	0.014
-625.449	800.000	0.112	-0.376
-624.434	24.247	0.187	-0.156
-623.419	675.400	-0.098	0.258
-622.405	-200.000	0.031	0.383
-621.390	-200.000	-0.027	0.151
-620.376	683.114	0.083	-0.218
-619.361	-89.222	0.252	0.075
-618.346	-60.861	0.114	0.049
-617.332	232.391	0.058	0.096
-616.317	-200.000	-0.034	0.259
-615.303	800.000	0.007	-0.032
-614.288	-200.000	0.013	-0.169
-613.273	-74.427	-0.148	-0.054
-612.259	-90.924	-0.264	-0.077
-611.244	-200.000	-0.020	-0.288
-610.230	-200.000	-0.035	-0.177
-609.215	-130.401	-0.297	0.041
-608.201	-114.318	-0.207	0.040
-607.186	-59.878	0.215	-0.093
-606.171	176.779	-0.096	0.141
-605.157	800.000	0.007	0.028
-604.142	-93.290	0.233	-0.065
-603.128	-54.798	0.214	-0.098
-602.113	-200.000	0.005	-0.044
-601.098	800.000	0.146	-0.510
-600.084	97.656	0.101	-0.118
-599.069	-39.569	0.180	-0.095
-598.055	-100.133	-0.247	-0.062
-597.040	63.052	-0.125	0.126
-596.025	-130.487	-0.056	-0.008
-595.011	138.851	-0.040	-0.052
-593.996	174.144	-0.107	-0.156
-592.982	-200.000	0.007	0.065
-591.967	1.533	0.148	0.108
-590.952	214.064	0.106	0.170
-589.938	-200.000	0.030	-0.282
-588.923	800.000	-0.020	0.066
-587.909	363.616	-0.101	-0.206
-586.894	513.758	-0.097	-0.229
-585.879	-108.085	-0.160	0.035
-584.865	-20.435	-0.117	0.073
-583.850	-200.000	-0.001	-0.069
-582.836	-38.534	-0.136	0.072
-581.821	1.748	-0.134	-0.097
-580.806	-33.831	0.339	0.188
-579.792	203.404	-0.143	0.224
-578.777	87.160	-0.208	-0.232
-577.763	-59.255	-0.042	0.018
-576.748	-142.517	-0.242	-0.024
-575.733	800.000	-0.024	-0.081
-574.719	145.827	0.022	-0.030
-573.704	79.998	0.126	-0.137
-572.690	800.000	0.125	-0.441
-571.675	-23.631	0.213	0.129
-570.661	7.830	0.155	0.117
-569.646	-132.481	-0.147	-0.019
-568.631	-182.323	-0.075	-0.001
-567.617	-75.470	-0.284	0.102
-566.602	26.255	0.105	0.089
-565.588	-15.903	0.147	0.094
-564.573	-26.083	-0.222	-0.132
-563.558	-124.195	-0.458	0.072
-562.544	-200.000	-0.005	0.108
-561.529	-168.768	0.167	-0.006
-560.515	-200.000	0.018	-0.319
-559.500	332.146	-0.083	0.162
-558.485	-113.558	0.056	0.011
-557.471	-149.514	0.309	-0.025
-556.456	-68.939	-0.108	0.042
-555.442	-70.644	-0.097	0.037
-554.427	94.977	0.102	0.117
-553.412	-200.000	0.025	-0.143
-552.398	-41.258	0.131	-0.068
-551.383	43.518	-0.095	-0.088
-550.369	79.687	0.087	0.095
-549.354	-200.000	0.039	-0.259
-548.339	218.375	0.200	-0.322
-547.325	-140.213	-0.403	0.043
-546.310	-109.143	0.018	0.004
-545.296	127.181	0.050	-0.064
-544.281	29.141	-0.100	-0.086
-543.266	108.764	0.226	0.273
-542.252	-153.042	-0.261	-0.018
-541.237	800.000	0.102	-0.404
-540.223	23.203	-0.121	0.100
-539.208	-73.716	0.275	0.101
-538.193	653.158	0.076	0.195
-537.179	651.998	-0.130	-0.335
-536.164	46.752	-0.220	-0.206
-535.150	-84.799	0.251	0.080
-534.135	-160.887	0.267	-0.014
-533.121	-200.000	0.008	-0.245
-532.106	-38.061	0.070	-0.037
-531.091	38.340	-0.223	0.200
-530.077	13.310	0.211	0.165
-529.062	-155.934	0.120	-0.008
-528.048	339.581	0.049	-0.097
-527.033	800.000	0.070	-0.262
-526.018	-200.000	-0.059	-0.373
-525.004	-64.935	0.162	0.066
-523.989	-56.269	0.106	0.048
-522.975	40.117	0.063	0.057
-521.960	-151.179	0.131	-0.010
-520.945	-33.089	0.103	-0.057
-519.931	358.627	-0.049	-0.099
-518.916	-19.602	-0.159	-0.099
-517.902	800.000	-0.054	-0.203
-516.887	125.979	-0.197	-0.251
-515.872	107.324	-0.034	0.041
-514.858	-200.000	-0.031	0.207
-513.843	202.105	0.139	0.216
-512.829	-155.023	-0.011	-0.001
-511.814	-16.442	-0.275	0.175
-510.799	-200.000	0.025	-0.220
-509.785	-200.000	-0.048	-0.307
-508.770	13.657	0.233	-0.182
-507.756	52.702	-0.084	-0.081
-506.741	459.639	-0.047	-0.104
-505.726	800.000	-0.041	0.154
-504.712	-124.652	-0.223	-0.035
-503.697	800.000	-0.082	0.278
-502.683	279.731	0.041	0.075
-501.668	788.235	-0.144	0.397
-500.653	800.000	0.030	-0.092
-499.639	-123.507	0.073	0.012
-498.624	-200.000	0.025	-0.159
-497.610	16.277	0.260	0.207
-496.595	203.909	0.043	-0.067
-495.581	-113.427	0.178	-0.035
-494.566	103.519	0.202	0.238
-493.551	-200.000	0.224	0.001
-492.537	61.143	-0.286	-0.285
-491.522	800.000	0.038	0.140
-490.508	800.000	0.029	0.127
-489.493	242.740	-0.152	0.256
-488.478	-69.124	-0.215	0.083
-487.464	12.493	-0.090	-0.070
-486.449	800.000	0.104	0.324
-485.435	-35.419	-0.186	-0.101
-484.420	628.397	-0.137	0.347
-483.405	-47.054	0.206	-0.101
-482.391	-54.553	-0.341	-0.155
-481.376	-158.858	0.208	-0.012
-480.362	305.599	-0.067	0.125
-479.347	385.685	0.056	-0.116
-478.332	103.498	-0.034	0.040
-477.318	253.870	0.161	0.276
-476.303	800.000	-0.070	0.210
-475.289	-200.000	-0.025	0.132
-474.274	-147.804	-0.216	0.018
-473.259	800.000	0.079	0.237
-472.245	144.855	-0.120	0.161
-471.230	-166.681	-0.398	0.017
-470.216	-91.790	0.162	0.046
-469.201	14.331	0.035	-0.027
-468.186	-66.277	0.170	0.068
-467.172	800.000	-0.091	-0.357
-466.157	-158.820	-0.236	0.014
-465.143	-120.707	0.244	0.041
-464.128	201.959	0.107	0.166
-463.113	-200.000	-0.030	-0.223
-462.099	-122.078	0.169	0.028
-461.084	-95.857	-0.263	-0.070
-460.070	211.981	-0.056	-0.089
-459.055	-200.000	-0.034	-0.181
-458.040	95.961	0.111	0.127
-457.026	-45.643	-0.191	-0.095
-456.011	-200.000	-0.000	-0.077
-454.997	-46.727	0.167	0.082
-453.982	800.000	-0.026	0.073
-452.968	-87.593	-0.207	0.063
-451.953	-179.701	0.219	0.005
-450.938	-55.296	0.302	-0.136
-449.924	-200.000	-0.070	0.448
-448.909	36.440	-0.226	0.200
-447.895	163.451	-0.048	0.067
-446.880	-39.609	-0.122	-0.064
-445.865	-71.760	-0.225	-0.084
-444.851	-200.000	-0.078	0.349
-443.836	140.881	-0.120	-0.160
-442.822	588.190	0.115	0.283
-441.807	95.725	-0.166	0.190
-440.792	1.046	0.209	-0.150
-439.778	52.938	0.109	-0.105
-438.763	-111.561	-0.181	0.037
-437.749	-117.984	-0.220	-0.039
-436.734	21.899	-0.177	0.145
-435.719	-67.588	0.077	0.030
-434.705	130.451	0.106	0.136
-433.690	-77.178	0.163	0.057
-432.676	19.552	-0.128	-0.103
-431.661	-200.000	-0.002	-0.045
-430.646	-152.094	-0.254	0.018
-429.632	98.661	-0.119	0.138
-428.617	800.000	-0.040	-0.142
-427.603	459.706	-0.162	0.362
-426.588	-94.941	0.209	0.057
-425.573	-68.257	-0.072	0.028
-424.559	-150.532	0.084	-0.006
-423.544	-14.107	0.204	0.132
-422.530	-138.952	0.190	0.021
-421.515	3.925	-0.148	-0.109
-420.500	138.003	-0.158	-0.208
-419.486	-138.924	0.059	0.006
-418.471	410.031	-0.151	-0.321
-417.457	-200.000	0.000	-0.118
-416.442	-71.298	0.244	0.092
-415.428	-200.000	0.017	-0.350
-414.413	-51.620	-0.056	-0.026
-413.398	-35.498	-0.086	-0.047
-412.384	-46.330	0.250	0.123
-411.369	-103.610	0.333	0.078
-410.355	-200.000	-0.028	0.168
-409.340	800.000	0.091	0.286
-408.325	-123.141	-0.242	0.039
-407.311	-200.000	0.050	-0.232
-406.296	-200.000	0.013	-0.127
-405.282	450.311	0.093	-0.205
-404.267	-160.190	0.264	-0.014
-403.252	52.038	-0.050	-0.048
-402.238	-108.736	0.048	-0.010
-401.223	-60.525	-0.064	0.027
-400.209	443.055	-0.114	0.250
-399.194	-60.687	0.139	0.059
-398.179	-200.000	-0.036	-0.190
-397.165	227.638	-0.182	-0.296
-396.150	81.355	0.014	-0.015
-395.136	-195.984	-0.359	0.003
-394.121	-127.275	0.303	-0.044
-393.106	-148.184	-0.317	-0.026
-392.092	-119.291	0.106	0.018
-391.077	290.008	-0.064	0.116
-390.063	-68.835	0.366	0.141
-389.048	200.273	-0.161	0.247
-388.033	129.149	-0.283	-0.362
-387.019	-38.643	0.237	-0.125
-386.004	37.876	-0.160	-0.142
-384.990	5.248	-0.118	0.087
-383.975	764.805	-0.078	0.212
-382.960	-200.000	-0.044	-0.240
-381.946	-1.375	0.165	-0.116
-380.931	-84.928	0.340	0.107
-379.917	-10.978	0.288	0.190
-378.902	183.002	-0.238	-0.351
-377.888	800.000	-0.046	-0.134
-376.873	-49.456	-0.094	0.045
-375.858	800.000	-0.045	0.186
-374.844	-200.000	0.051	0.342
-373.829	487.343	-0.068	0.156
-372.815	105.413	-0.296	-0.350
-371.800	122.336	0.053	0.066
-370.785	-32.767	-0.186	-0.104
-369.771	-86.741	0.277	-0.085
-368.756	66.523	-0.085	0.086
-367.742	206.954	-0.065	0.101
-366.727	-124.367	-0.224	0.035
-365.712	-66.327	-0.154	0.061
-364.698	100.650	0.040	-0.046
-363.683	-200.000	0.003	-0.088
-362.669	-138.018	-0.333	-0.037
-361.654	-200.000	-0.025	0.310
-360.639	-200.000	0.010	-0.126
-359.625	-98.906	0.188	-0.048
-358.610	-200.000	0.002	-0.179
-357.596	29.391	-0.231	-0.196
-356.581	69.716	-0.067	0.069
-355.566	-200.000	-0.049	-0.376
-354.552	-60.948	0.193	0.082
-353.537	5.234	0.146	-0.108
-352.523	21.545	0.151	0.122
-351.508	-20.579	-0.227	-0.139
-350.493	-199.988	-0.177	-0.001
-349.479	-13.810	0.149	0.096
-348.464	-151.785	0.194	-0.014
-347.450	-80.442	0.083	0.028
-346.435	-110.817	0.247	0.051
-345.420	221.611	-0.061	0.098
-344.406	233.060	-0.073	0.119
-343.391	-200.000	0.014	0.217
-342.377	-32.502	0.443	0.247
-341.362	-200.000	-0.011	0.064
-340.348	-52.869	-0.402	-0.185
-339.333	-32.716	0.313	-0.174
-338.318	17.757	-0.093	0.074
-337.304	159.117	0.073	-0.102
-336.289	-39.735	0.263	-0.138
-335.275	-46.315	0.097	-0.048
-334.260	-4.399	-0.141	0.097
-333.245	-115.318	-0.295	-0.056
-332.231	-158.425	-0.302	-0.018
-331.216	-151.523	-0.498	-0.037
-330.202	225.618	-0.150	-0.243
-329.187	-200.000	0.041	0.298
-328.172	-149.840	0.135	0.011
-327.158	-173.319	0.080	-0.002
-326.143	83.154	-0.129	0.140
-325.129	405.407	0.139	-0.294
-324.114	132.034	-0.104	0.134
-323.099	-170.380	0.096	0.003
-322.085	-142.049	0.450	0.045
-321.070	800.000	-0.049	0.136
-320.056	-69.380	0.176	0.067
-319.041	141.947	0.196	-0.260
-318.026	48.039	-0.121	0.113
-317.012	755.950	-0.037	0.100
-315.997	47.597	-0.184	-0.171
-314.983	546.051	-0.052	-0.123
-313.968	800.000	-0.087	0.291
-312.953	-94.859	-0.154	-0.042
-311.939	331.005	-0.043	-0.082
-310.924	105.429	-0.187	-0.221
-309.910	-83.596	-0.134	-0.043
-308.895	127.035	0.126	-0.159
-307.880	11.980	0.233	-0.178
-306.866	129.685	0.100	0.127
-305.851	639.772	-0.077	0.195
-304.837	-200.000	0.004	-0.234
-303.822	-200.000	0.294	-0.000
-302.807	91.214	-0.157	0.176
-301.793	-43.864	0.338	-0.170
-300.778	40.677	-0.082	0.074
-299.764	27.423	0.140	-0.118
-298.749	-200.000	0.080	-0.349
-297.735	210.913	0.143	0.225
-296.720	-40.515	-0.330	-0.171
-295.705	-22.826	0.083	0.050
-294.691	-200.000	-0.034	0.255
-293.676	287.535	-0.098	0.177
-292.662	800.000	-0.101	0.419
-291.647	150.931	-0.070	-0.095
-290.632	88.704	-0.041	-0.045
-289.618	-167.786	0.286	-0.011
-288.603	-5.496	0.063	-0.043
-287.589	-52.227	0.162	0.075
-286.574	249.170	-0.109	-0.185
-285.559	36.602	-0.024	0.021
-284.545	800.000	0.064	0.232
-283.530	-200.000	-0.006	0.089
-282.516	287.769	-0.037	-0.068
-281.501	-200.000	-0.016	0.250
-280.486	-84.861	0.445	0.139
-279.472	226.545	0.099	-0.160
-278.457	-2.360	0.120	-0.084
-277.443	800.000	-0.021	0.058
-276.428	121.343	-0.233	-0.289
-275.413	283.396	-0.094	0.168
-274.399	-200.000	0.008	0.272
-273.384	14.687	0.199	0.155
-272.370	-200.000	-0.262	0.001
-271.355	-200.000	0.002	-0.131
-270.340	-37.400	0.164	0.087
-269.326	-120.024	0.246	-0.042
-268.311	-122.567	0.126	0.020
-267.297	61.798	-0.260	-0.258
-266.282	122.104	0.232	0.288
-265.267	-200.000	0.023	0.215
-264.253	-200.000	-0.043	0.371
-263.238	291.703	-0.071	0.129
-262.224	90.959	0.093	0.104
-261.209	38.396	-0.082	0.073
-260.195	70.732	0.177	-0.183
-259.180	-200.000	-0.018	0.086
-258.165	327.358	-0.074	-0.140
-257.151	-170.043	-0.293	0.010
-256.136	-87.494	-0.061	-0.018
-255.122	104.632	0.276	-0.324
-254.107	-121.009	-0.345	-0.058
-253.092	-97.236	0.316	-0.082
-252.078	-20.839	-0.103	0.063
-251.063	800.000	-0.037	-0.141
-250.049	5.806	-0.249	0.183
-249.034	-200.000	0.008	-0.070
-248.019	45.039	0.132	0.121
-247.005	-99.054	0.292	0.074
-245.990	-23.626	0.447	-0.267
-244.976	-149.763	0.023	0.002
-243.961	-200.000	0.010	0.108
-242.946	152.102	0.147	0.200
-241.932	-150.407	-0.183	-0.014
-240.917	134.373	0.085	0.109
-239.903	25.115	-0.395	-0.327
-238.888	-20.498	0.277	-0.169
-237.873	-200.000	-0.012	-0.067
-236.859	-19.458	-0.079	0.049
-235.844	800.000	-0.061	0.178
-234.830	-79.088	0.180	-0.061
-233.815	280.329	0.187	0.333
-232.800	-117.668	0.110	-0.020
-231.786	118.072	0.120	-0.147
-230.771	35.558	-0.185	-0.162
-229.757	800.000	0.068	0.208
-228.742	309.206	-0.185	-0.345
-227.727	4.291	-0.259	-0.189
-226.713	-59.844	0.182	0.077
-225.698	326.663	0.089	0.169
-224.684	183.984	-0.144	-0.212
-223.669	51.944	0.023	-0.021
-222.655	-86.984	0.236	-0.072
-221.640	277.519	-0.078	0.139
-220.625	519.000	0.158	-0.368
-219.611	179.921	-0.238	0.346
-218.596	-8.839	-0.416	0.277
-217.582	58.933	0.146	0.143
-216.567	-111.627	-0.098	0.020
-215.552	-0.816	-0.062	-0.044
-214.538	408.019	0.120	0.252
-213.523	-24.848	-0.142	0.084
-212.509	-45.683	0.203	-0.100
-211.494	124.745	-0.227	-0.284
-210.479	-82.903	-0.207	0.066
-209.465	-162.201	-0.246	0.012
-208.450	-36.419	0.064	0.034
-207.436	-7.584	-0.219	0.147
-206.421	800.000	0.046	-0.155
-205.406	-200.000	0.008	0.237
-204.392	553.426	0.111	-0.266
-203.377	-200.000	-0.003	0.166
-202.363	213.842	0.104	0.163
-201.348	-105.396	0.155	0.035
-200.333	-149.062	0.083	-0.007
-199.319	-115.777	-0.228	-0.042
-198.304	800.000	0.054	-0.225
-197.290	90.384	-0.190	-0.211
-196.275	-163.211	0.171	0.008
-195.260	-138.079	-0.350	0.039
-194.246	38.816	-0.253	0.224
-193.231	800.000	0.056	0.165
-192.217	-82.016	0.311	0.101
-191.202	103.132	0.239	-0.278
-190.187	112.337	0.168	0.202
-189.173	13.428	-0.127	-0.098
-188.158	800.000	0.047	-0.169
-187.144	-41.295	-0.203	0.104
-186.129	525.341	0.088	-0.206
-185.114	194.589	0.162	0.245
-184.100	-200.000	0.013	0.098
-183.085	-68.471	0.373	-0.144
-182.071	-200.000	0.002	-0.345
-181.056	704.083	-0.028	-0.072
-180.042	-3.994	-0.303	0.208
-179.027	88.657	-0.426	0.470
-178.012	675.336	-0.107	0.277
-176.998	-63.134	0.414	-0.170
-175.983	800.000	0.095	0.275
-174.969	-157.933	-0.237	-0.014
-173.954	673.702	0.105	0.272
-172.939	75.854	0.216	-0.227
-171.925	-200.000	0.009	0.207
-170.910	21.944	0.179	0.145
-169.896	152.579	-0.100	-0.135
-168.881	800.000	-0.028	-0.118
-167.866	-71.032	-0.096	0.036
-166.852	-139.884	0.084	0.009
-165.837	-37.795	0.112	-0.059
-164.823	75.568	0.140	0.147
-163.808	800.000	-0.106	0.340
-162.793	136.195	0.211	-0.273
-161.779	-200.000	-0.023	0.248
-160.764	-49.485	-0.143	0.068
-159.750	-110.484	0.077	-0.016
-158.735	-34.877	0.209	-0.113
-157.720	149.312	0.059	-0.079
-156.706	-83.559	0.379	0.120
-155.691	800.000	-0.044	-0.126
-154.677	-90.768	0.107	-0.031
-153.662	-75.912	0.191	0.067
-152.647	60.481	-0.099	0.097
-151.633	-140.092	0.125	-0.013
-150.618	800.000	0.043	0.169
-149.604	14.763	0.253	0.197
-148.589	97.726	0.155	-0.176
-147.574	139.782	-0.195	-0.255
-146.560	800.000	0.052	0.179
-145.545	121.962	-0.305	0.377
-144.531	-132.520	-0.346	-0.044
-143.516	433.152	0.072	0.155
-142.502	-46.494	0.250	0.121
-141.487	-4.902	-0.220	0.151
-140.472	185.432	0.091	0.134
-139.458	89.878	-0.314	-0.347
-138.443	-101.987	-0.207	0.050
-137.429	249.680	-0.275	0.462
-136.414	249.640	-0.221	-0.372
-135.399	-105.585	-0.124	0.028
-134.385	-106.914	-0.179	0.039
-133.370	-117.923	0.083	-0.015
-132.356	-132.750	0.171	-0.022
-131.341	-200.000	-0.020	-0.245
-130.326	102.165	-0.165	-0.191
-129.312	-200.000	-0.011	0.194
-128.297	-91.353	0.159	-0.045
-127.283	56.481	0.063	0.061
-126.268	-136.469	0.287	0.033
-125.253	90.691	0.246	-0.273
-124.239	-112.069	0.071	-0.014
-123.224	-200.000	0.052	0.264
-122.210	-121.874	-0.250	-0.041
-121.195	-3.270	0.110	-0.076
-120.180	-170.612	0.197	0.007
-119.166	-89.807	-0.216	-0.062
-118.151	-31.693	0.046	0.026
-117.137	-200.000	-0.052	0.313
-116.122	-91.088	-0.348	-0.099
-115.107	167.344	-0.117	-0.165
-114.093	-200.000	0.003	0.235
-113.078	15.949	-0.150	-0.117
-112.064	78.171	-0.118	0.124
-111.049	800.000	-0.107	0.303
-110.034	26.062	0.259	0.214
-109.020	-200.000	-0.019	0.085
-108.005	-200.000	0.011	-0.125
-106.991	35.293	0.071	-0.061
-105.976	10.315	-0.033	-0.025
-104.962	149.380	0.267	-0.358
-103.947	222.482	-0.040	0.064
-102.932	-44.440	-0.215	0.107
-101.918	226.489	-0.147	0.237
-100.903	85.596	-0.207	-0.226
-99.889	-124.728	0.097	-0.015
-98.874	-102.969	-0.107	-0.025
-97.859	-82.235	-0.195	-0.063
-96.845	134.618	0.139	0.179
-95.830	-46.275	-0.143	-0.070
-94.816	-51.357	0.183	-0.085
-93.801	43.146	-0.172	0.155
-92.786	800.000	0.031	-0.096
-91.772	-200.000	0.024	0.210
-90.757	34.595	0.176	0.152
-89.743	57.661	0.177	0.171
-88.728	-16.971	0.278	0.174
-87.713	182.266	-0.088	-0.128
-86.699	-28.694	0.072	-0.041
-85.684	-53.164	-0.107	-0.048
-84.670	800.000	-0.052	0.213
-83.655	21.240	0.153	0.123
-82.640	474.416	0.091	0.203
-81.626	-145.260	-0.181	-0.016
-80.611	-200.000	-0.003	-0.183
-79.597	800.000	-0.037	0.121
-78.582	-27.219	0.225	0.129
-77.567	61.582	-0.075	-0.074
-76.553	800.000	0.066	0.250
-75.538	-79.201	0.111	-0.037
-74.524	-149.844	-0.123	0.010
-73.509	-144.274	0.162	-0.015
-72.494	800.000	0.120	0.379
-71.480	-11.048	0.212	0.138
-70.465	-163.391	0.220	-0.010
-69.451	-21.911	0.131	-0.079
-68.436	-23.440	0.150	0.089
-67.422	-95.687	0.121	-0.032
-66.407	-78.827	-0.417	0.141
-65.392	-128.678	-0.148	-0.021
-64.378	-70.061	0.309	-0.116
-63.363	306.426	0.122	-0.224
-62.349	800.000	-0.038	0.112
-61.334	107.581	-0.658	-0.774
-60.319	-200.000	0.053	0.521
-59.305	-200.000	-0.082	-0.857
-58.290	167.960	0.759	1.067
-57.276	-200.000	0.244	1.426
-56.261	-200.000	97.454	589.534
-55.246	666.543	1386.548	3540.264
-54.232	189.724	2589.203	3837.110
-53.217	125.550	2166.297	2701.475
-52.203	47.042	1622.622	1491.255
-51.188	38.683	1359.006	1198.113
-50.173	35.369	1316.538	1140.952
-49.159	57.867	1366.496	1320.998
-48.144	62.414	1384.263	1365.576
-47.130	38.855	1338.487	1180.870
-46.115	35.229	1320.526	1143.396
-45.100	35.037	1315.636	1137.971
-44.086	34.872	1313.715	1135.286
-43.071	34.875	1311.156	1133.050
-42.057	34.945	1308.789	1131.371
-41.042	34.904	1307.375	1129.860
-40.027	34.990	1305.843	1129.003
-39.013	34.940	1304.209	1127.249
-37.998	35.016	1302.203	1125.919
-36.984	34.995	1300.478	1124.258
-35.969	35.202	1298.389	1123.622
-34.954	35.153	1296.859	1121.968
-33.940	35.189	1295.705	1121.131
-32.925	35.204	1294.283	1119.947
-31.911	35.263	1292.781	1118.945
-30.896	35.075	1291.594	1116.778
-29.881	35.075	1290.419	1115.720
-28.867	35.188	1288.590	1114.750
-27.852	35.199	1287.344	1113.692
-26.838	35.327	1285.640	1112.915
-25.823	35.284	1284.143	1111.330
-24.809	35.091	1283.830	1109.895
-23.794	35.206	1281.813	1108.773
-22.779	35.159	1280.587	1107.396
-21.765	35.223	1279.004	1106.352
-20.750	35.194	1277.865	1105.154
-19.736	35.005	1276.969	1103.245
-18.721	34.902	1275.915	1101.698
-17.706	35.000	1274.334	1100.853
-16.692	35.034	1273.130	1099.967
-15.677	34.996	1272.160	1098.864
-14.663	35.069	1271.034	1098.269
-13.648	35.013	1270.077	1097.077
-12.633	34.978	1269.304	1096.166
-11.619	35.060	1268.151	1095.597
-10.604	35.062	1267.166	1094.714
-9.590	34.956	1266.328	1093.342
-8.575	34.975	1265.390	1092.595
-7.560	34.964	1264.380	1091.618
-6.546	34.971	1263.716	1091.038
-5.531	34.914	1263.083	1090.126
-4.517	35.012	1261.872	1089.597
-3.502	35.102	1260.888	1089.212
-2.487	35.050	1260.227	1088.305
-1.473	35.063	1255.631	1084.364
-0.458	33.367	1240.861	1062.062
0.556	28.847	1222.083	1019.654
1.571	24.711	1226.660	1000.293
2.586	23.654	1240.623	1005.606
3.600	22.871	1229.482	992.089
4.615	17.282	1157.497	904.277
5.629	8.755	1081.995	802.644
6.644	4.972	1061.373	768.650
7.659	4.752	1059.171	765.906
8.673	4.875	1057.673	765.360
9.688	4.892	1056.618	764.613
10.702	4.876	1055.327	763.534
11.717	9.527	1061.504	790.817
12.731	16.971	1072.250	835.556
13.746	19.762	1074.426	850.929
14.761	18.764	1073.081	844.881
15.775	17.847	1070.325	838.137
16.790	16.729	1068.586	831.216
17.804	15.986	1066.831	826.135
18.819	15.644	1065.961	823.713
19.834	15.467	1064.532	821.668
20.848	15.253	1064.523	820.542
21.863	15.004	1063.351	818.349
22.877	14.874	1062.659	817.111
23.892	14.830	1061.697	816.082
24.907	14.904	1061.189	815.978
25.921	15.010	1059.537	815.154
26.936	14.960	1058.282	813.872
27.950	15.082	1056.740	813.210
28.965	15.032	1055.786	812.160
29.980	15.198	1054.369	811.802
30.994	15.201	1053.336	810.948
32.009	15.231	1052.412	810.312
33.023	15.040	1051.359	808.507
34.038	15.139	1050.084	807.933
35.053	14.935	1049.297	806.272
36.067	14.980	1048.481	805.791
37.082	14.988	1047.593	805.073
38.096	15.068	1046.618	804.641
39.111	15.081	1045.755	803.966
40.126	15.025	1044.367	802.557
41.140	14.847	1043.416	800.905
42.155	14.733	1042.105	799.280
43.169	14.725	1040.832	798.196
44.184	14.809	1040.115	797.980
45.199	14.782	1038.948	796.882
46.213	14.912	1037.553	796.362
47.228	14.919	1036.650	795.631
48.242	14.989	1035.512	795.019
49.257	14.970	1034.806	794.316
50.271	15.076	1034.150	794.247
51.286	15.124	1032.986	793.508
52.301	15.004	1031.832	791.983
53.315	14.978	1030.819	791.016
54.330	14.767	1030.015	789.330
55.344	14.843	1029.206	788.999
56.359	14.801	1028.269	788.012
57.374	14.885	1027.466	787.724
58.388	14.776	1026.118	786.109
59.403	14.667	1025.716	785.216
60.417	14.724	1024.948	784.831
61.432	14.763	1024.176	784.353
62.447	14.657	1023.232	783.062
63.461	14.623	1022.566	782.324
64.476	14.712	1021.394	781.775
65.490	14.687	1020.736	781.084
66.505	14.595	1020.620	780.498
67.520	14.766	1019.388	780.285
68.534	14.610	1018.839	779.064
69.549	14.649	1018.141	778.646
70.563	14.636	1017.032	777.669
71.578	14.631	1015.961	776.759
72.593	14.476	1015.199	775.385
73.607	14.548	1014.541	775.148
74.622	14.658	1014.176	775.311
75.636	14.711	1013.136	774.696
76.651	14.597	1012.619	773.701
77.666	14.659	1012.237	773.630
78.680	14.688	1011.514	773.143
79.695	14.642	1010.956	772.432
80.709	14.764	1010.148	772.312
81.724	14.794	1009.531	771.909
82.739	14.847	1009.119	771.773
83.753	15.004	1008.175	771.705
84.768	15.141	1007.384	771.666
85.782	15.070	1006.813	770.829
86.797	15.156	1005.560	770.201
87.812	15.007	1004.530	768.658
88.826	15.017	1003.724	768.021
89.841	15.018	1003.313	767.640
90.855	15.052	1002.250	766.915
91.870	15.117	1001.694	766.719
92.884	15.183	1000.192	765.805
93.899	15.196	999.529	765.287
94.914	15.249	998.741	764.859
95.928	15.182	998.088	763.985
96.943	15.184	996.726	762.885
97.957	15.259	996.000	762.603
98.972	15.200	995.335	761.759
99.987	15.140	994.573	760.835
101.001	15.207	993.337	760.124
102.016	15.119	992.585	759.086
103.030	15.121	992.220	758.747
104.045	14.989	991.596	757.605
105.060	15.063	990.560	757.080
106.074	14.842	989.904	755.513
107.089	14.862	988.216	754.247
108.103	14.780	987.569	753.319
109.118	14.754	986.571	752.375
110.133	14.814	985.373	751.662
111.147	14.713	985.111	750.941
112.162	14.865	983.716	750.494
113.176	14.818	983.550	750.092
114.191	14.831	982.728	749.456
115.206	14.832	982.142	748.948
116.220	14.833	980.931	747.961
117.235	14.801	980.132	747.146
118.249	14.907	979.540	747.101
119.264	14.957	978.671	746.593
120.279	14.832	977.666	745.204
121.293	14.840	977.001	744.669
122.308	14.610	976.419	743.134
123.322	14.641	975.143	742.236
124.337	14.646	974.660	741.823
125.352	14.798	973.189	741.312
126.366	14.695	972.484	740.255
127.381	14.749	971.008	739.304
128.395	14.732	970.561	738.824
129.410	14.790	969.530	738.230
130.424	14.880	968.709	737.936
131.439	14.926	967.952	737.496
132.454	15.029	967.209	737.317
133.468	14.983	966.718	736.676
134.483	14.985	965.398	735.615
135.497	14.914	964.991	734.927
136.512	14.867	964.256	734.098
137.527	14.998	963.162	733.772
138.541	15.038	962.494	733.374
139.556	15.101	961.716	732.995
140.570	15.105	961.065	732.448
141.585	15.183	959.963	731.887
142.600	15.183	959.485	731.457
143.614	15.256	958.743	731.142
144.629	15.210	958.117	730.400
145.643	15.254	957.084	729.742
146.658	15.125	955.930	728.234
147.673	15.156	954.832	727.470
148.687	14.967	954.426	726.276
149.702	14.988	953.126	725.311
150.716	14.987	952.631	724.867
151.731	15.069	951.557	724.340
152.746	15.167	950.817	724.137
153.760	15.193	950.561	723.992
154.775	15.090	950.125	723.151
155.789	15.270	948.999	723.006
156.804	15.200	948.625	722.356
157.819	15.218	948.330	722.143
158.833	15.275	947.120	721.405
159.848	15.378	946.364	721.208
160.862	15.228	945.702	719.993
161.877	15.144	944.257	718.471
162.892	15.061	943.432	717.422
163.906	15.141	942.247	716.800
164.921	15.103	941.800	716.234
165.935	15.206	940.884	715.913
166.950	15.089	940.401	714.985
167.964	15.139	939.379	714.358
168.979	15.202	938.322	713.758
169.994	15.048	937.723	712.584
171.008	15.202	937.253	712.820
172.023	15.365	936.239	712.676
173.037	15.239	935.675	711.649
174.052	15.388	934.598	711.398
175.067	15.296	933.915	710.429
176.081	15.168	933.356	709.398
177.096	15.115	932.993	708.836
178.110	15.403	932.113	709.321
179.125	15.273	931.703	708.397
180.140	15.247	931.420	708.009
181.154	15.250	931.042	707.670
182.169	15.414	930.013	707.517
183.183	15.444	929.970	707.552
184.198	15.419	929.348	706.909
185.213	15.418	927.991	705.810
186.227	15.522	927.872	706.095
187.242	15.642	927.164	705.996
188.256	15.641	926.986	705.794
189.271	15.513	925.988	704.437
190.286	15.316	924.987	702.786
191.300	15.183	923.766	701.241
192.315	15.053	923.297	700.279
193.329	15.136	923.147	700.448
194.344	15.253	922.137	700.108
195.359	15.228	921.756	699.653
196.373	15.474	920.912	699.978
197.388	15.593	921.036	700.506
198.402	15.576	920.338	699.840
199.417	15.808	919.368	700.008
200.432	15.891	919.183	700.149
201.446	15.792	918.743	699.343
202.461	15.960	918.106	699.493
203.475	15.848	917.166	698.250
204.490	15.665	916.786	697.138
205.504	15.665	916.117	696.568
206.519	15.583	915.158	695.439
207.534	15.654	914.561	695.219
208.548	15.675	914.043	694.850
209.563	15.737	913.396	694.551
210.577	15.803	912.494	694.076
211.592	15.951	911.951	694.214
212.607	15.953	911.205	693.591
213.621	15.914	910.188	692.594
214.636	15.898	909.664	692.069
215.650	15.810	909.276	691.353
216.665	15.944	908.352	691.136
217.680	16.123	907.541	691.194
218.694	16.021	907.335	690.557
219.709	15.997	906.832	690.016
220.723	16.000	906.096	689.405
221.738	15.915	905.386	688.456
222.753	16.026	904.643	688.286
223.767	16.098	903.799	687.875
224.782	15.973	903.779	687.288
225.796	16.094	903.381	687.421
226.811	16.092	902.069	686.354
227.826	16.105	901.427	685.857
228.840	15.920	900.567	684.388
229.855	15.943	899.890	683.908
230.869	15.967	899.102	683.347
231.884	16.071	898.292	683.089
232.899	15.959	897.621	682.067
233.913	15.952	896.818	681.366
234.928	15.903	896.498	680.866
235.942	15.917	895.552	680.145
236.957	15.838	895.437	679.679
237.972	16.049	894.310	679.611
238.986	15.951	893.861	678.817
240.001	15.843	893.706	678.204
241.015	15.998	892.711	678.012
242.030	16.053	892.018	677.645
243.045	16.192	891.258	677.569
244.059	15.990	890.912	676.432
245.074	15.981	890.460	675.994
246.088	16.252	889.541	676.324
247.103	16.226	889.209	675.907
248.117	16.394	888.987	676.349
249.132	16.386	888.312	675.746
250.147	16.529	887.508	675.646
251.161	16.628	886.832	675.467
252.176	16.508	886.266	674.496
253.190	16.669	885.537	674.523
254.205	16.615	885.111	673.925
255.220	16.625	884.417	673.377
256.234	16.515	883.869	672.463
257.249	16.630	883.195	672.348
258.263	16.748	882.171	671.975
259.278	16.657	881.713	671.209
260.293	16.719	880.961	670.822
261.307	16.739	880.343	670.370
262.322	16.805	879.404	669.856
263.336	16.817	879.316	669.778
264.351	16.915	878.164	669.229
265.366	16.778	877.973	668.482
266.380	16.911	877.201	668.360
267.395	16.734	876.668	667.199
268.409	16.833	875.680	666.777
269.424	16.891	874.989	666.420
270.439	16.763	874.098	665.180
271.453	16.847	873.489	664.987
272.468	16.804	872.993	664.383
273.482	16.805	872.479	663.936
274.497	16.742	872.012	663.275
275.512	16.919	871.193	663.286
276.526	16.722	871.035	662.335
277.541	16.893	870.626	662.633
278.555	16.796	869.830	661.590
279.570	17.046	869.032	661.900
280.585	16.888	868.610	660.907
281.599	17.040	867.442	660.549
282.614	16.990	866.887	659.874
283.628	16.852	866.913	659.296
284.643	16.943	865.978	658.883
285.657	17.015	864.886	658.271
286.672	16.951	864.582	657.737
287.687	16.858	864.112	656.959
288.701	17.038	863.521	657.148
289.716	17.092	862.766	656.726
290.730	17.112	862.068	656.212
291.745	17.251	861.578	656.319
292.760	17.155	860.963	655.419
293.774	17.187	860.399	655.057
294.789	17.186	859.990	654.685
295.803	17.163	859.071	653.839
296.818	17.067	858.551	653.016
297.833	17.008	857.835	652.184
298.847	17.080	857.269	651.975
299.862	17.209	856.644	651.938
300.876	17.238	856.207	651.657
301.891	17.235	855.879	651.338
302.906	17.325	854.934	650.908
303.920	17.438	854.587	651.016
304.935	17.478	854.172	650.796
305.949	17.453	853.061	649.795
306.964	17.326	852.825	649.074
307.979	17.377	852.116	648.671
308.993	17.378	851.828	648.400
310.008	17.343	851.186	647.719
311.022	17.244	850.338	646.638
312.037	17.394	849.756	646.711
313.052	17.229	849.275	645.663
314.066	17.298	848.765	645.478
315.081	17.249	848.231	644.830
316.095	17.280	847.119	644.042
317.110	17.287	846.867	643.823
318.125	17.236	846.124	643.008
319.139	17.206	846.017	642.755
320.154	17.330	845.658	642.894
321.168	17.371	844.947	642.453
322.183	17.384	844.321	641.967
323.197	17.316	844.145	641.519
324.212	17.320	843.521	641.005
325.227	17.432	843.026	640.993
326.241	17.384	842.248	640.167
327.256	17.412	841.770	639.851
328.270	17.372	841.114	639.146
329.285	17.469	840.158	638.726
330.300	17.478	839.693	638.351
331.314	17.344	839.508	637.649
332.329	17.698	838.584	638.218
333.343	17.580	838.823	637.902
334.358	17.635	838.065	637.473
335.373	17.484	837.962	636.773
336.387	17.575	837.348	636.594
337.402	17.677	837.160	636.775
338.416	17.819	836.654	636.863
339.431	17.689	836.687	636.346
340.446	17.903	836.004	636.567
341.460	17.898	835.574	636.166
342.475	17.966	835.264	636.128
343.489	17.944	834.758	635.602
344.504	18.093	834.135	635.627
345.519	17.996	833.986	635.095
346.533	17.970	833.434	634.523
347.548	17.987	832.745	634.007
348.562	17.939	831.888	633.120
349.577	17.894	831.574	632.659
350.592	17.774	831.034	631.747
351.606	17.804	830.125	631.110
352.621	17.730	829.424	630.249
353.635	17.776	829.074	630.096
354.650	17.744	828.389	629.401
355.665	17.836	827.830	629.261
356.679	17.926	827.395	629.206
357.694	18.063	826.578	629.035
358.708	18.066	825.951	628.511
359.723	17.851	825.728	627.496
360.738	17.848	825.085	626.942
361.752	17.949	824.482	626.798
362.767	18.292	823.823	627.500
363.781	18.096	823.516	626.490
364.796	18.370	822.747	626.855
365.810	18.449	822.556	626.942
366.825	18.301	822.179	626.059
367.840	18.334	821.494	625.602
368.854	18.201	821.140	624.789
369.869	18.315	820.559	624.710
370.883	18.312	820.230	624.392
371.898	18.294	820.069	624.148
372.913	18.501	819.559	624.461
373.927	18.258	818.986	623.083
374.942	18.426	818.432	623.220
375.956	18.447	818.337	623.167
376.971	18.493	817.696	622.792
377.986	18.543	817.359	622.661
379.000	18.474	816.912	622.014
380.015	18.576	816.274	621.842
381.029	18.727	815.335	621.620
382.044	18.754	814.812	621.264
383.059	18.655	814.431	620.562
384.073	18.574	813.754	619.697
385.088	18.549	813.284	619.196
386.102	18.560	812.395	618.503
387.117	18.453	812.363	618.036
388.132	18.483	811.490	617.427
389.146	18.382	810.998	616.633
390.161	18.560	811.018	617.234
391.175	18.574	810.284	616.671
392.190	18.598	809.756	616.303
393.205	18.466	808.861	615.092
394.219	18.449	808.949	615.043
395.234	18.441	808.151	614.354
396.248	18.465	807.736	614.071
397.263	18.540	807.021	613.740
398.278	18.506	806.848	613.432
399.292	18.464	806.738	613.146
400.307	18.414	806.248	612.541
401.321	18.578	805.545	612.538
402.336	18.538	805.181	612.063
403.350	18.616	804.959	612.120
404.365	18.590	804.848	611.888
405.380	18.817	803.936	611.950
406.394	18.866	803.395	611.658
407.409	18.870	803.244	611.504
408.423	18.935	802.757	611.307
409.438	19.028	802.183	611.148
410.453	18.890	802.067	610.516
411.467	18.834	801.890	610.127
412.482	19.073	801.158	610.364
413.496	19.030	801.068	610.088
414.511	19.158	800.343	609.936
415.526	19.118	799.814	609.337
416.540	19.113	799.402	608.953
417.555	19.147	798.936	608.665
418.569	19.040	798.509	607.906
419.584	19.134	798.236	607.977
420.599	19.207	797.639	607.726
421.613	155.306	1369.970	1789.465
422.628	134.546	1453.385	1789.545
