DTS Sentinel unit serial number:	SN413079Multiplexer serial number:	ORYXHardware model number:	OX4-SRSoftware version number:	ORYX F/W v4.00 Oryx Data Collector v3.7.2.0data status	okinstallation	princeton_trtdifferential loss correction	single-endedforward channel	channel 1reverse channel	N/Adate	2019/09/18time	04:38:35forward acquisition time	60.00reverse acquisition time	0.00gamma	496.2192k internal	0.2339k external	0.2339temperature offset calibration	0.9978default loss term (dB/km)	0.3790temperature slope calibration	1.0000multiplexer offset coefficient	1.0000multiplexer slope coefficient	1.0000fibre end	0.00T internal ref (°C)	23.41T ext. ref 1 (°C)	0.19T ext. ref 2 (°C)	17.66length (m)	temperature (°C)	Stokes	anti-Stokes-747.200	-141.856	0.370	0.037
-746.185	-122.337	-0.112	0.018
-745.171	-58.003	0.048	0.021
-744.156	108.218	-0.226	0.270
-743.142	-36.077	-0.250	0.136
-742.127	-81.478	-0.072	0.024
-741.112	-66.621	0.095	-0.038
-740.098	77.527	-0.238	0.254
-739.083	228.331	-0.102	0.167
-738.069	-43.351	-0.117	0.059
-737.054	-133.634	0.366	-0.046
-736.039	-107.248	-0.179	-0.040
-735.025	-70.828	0.330	-0.125
-734.010	47.982	-0.097	0.090
-732.996	-66.239	0.201	0.080
-731.981	800.000	-0.089	0.294
-730.966	96.646	0.085	0.098
-729.952	39.000	-0.143	0.128
-728.937	-13.189	-0.096	-0.062
-727.923	-53.332	-0.189	0.087
-726.908	51.189	0.079	0.075
-725.894	800.000	-0.059	-0.173
-724.879	-63.281	-0.417	0.172
-723.864	-200.000	-0.019	-0.324
-722.850	112.634	-0.134	-0.163
-721.835	84.597	-0.262	0.287
-720.821	105.673	0.161	0.191
-719.806	-106.673	-0.400	0.089
-718.791	-191.803	0.302	0.003
-717.777	-200.000	0.023	-0.132
-716.762	42.596	0.097	-0.088
-715.748	-123.174	0.148	-0.024
-714.733	-121.887	-0.135	0.022
-713.718	-35.606	-0.314	0.171
-712.704	-55.874	-0.174	0.078
-711.689	543.712	0.143	-0.342
-710.675	426.683	0.100	-0.216
-709.660	64.007	0.099	-0.100
-708.645	54.974	0.146	0.141
-707.631	-19.029	0.104	-0.065
-706.616	50.478	-0.107	-0.101
-705.602	-24.065	0.130	0.078
-704.587	800.000	0.048	-0.194
-703.572	291.297	0.076	0.138
-702.558	-40.856	-0.131	0.068
-701.543	-65.214	0.047	-0.019
-700.529	302.901	0.060	0.112
-699.514	-200.000	0.063	0.432
-698.499	-23.280	0.309	0.186
-697.485	75.516	-0.302	0.319
-696.470	146.210	0.279	-0.375
-695.456	-200.000	0.004	0.336
-694.441	50.725	-0.449	0.426
-693.426	-200.000	-0.016	0.139
-692.412	18.733	0.142	-0.114
-691.397	-118.501	0.117	0.021
-690.383	800.000	-0.179	-0.647
-689.368	418.663	0.177	-0.380
-688.354	-130.833	0.190	-0.026
-687.339	139.893	-0.229	0.302
-686.324	622.014	-0.018	-0.046
-685.310	346.224	-0.047	0.092
-684.295	4.302	0.259	0.190
-683.281	110.653	0.137	0.164
-682.266	800.000	0.037	0.121
-681.251	19.689	-0.117	0.095
-680.237	800.000	0.124	0.362
-679.222	-37.383	-0.139	0.074
-678.208	102.617	0.080	0.094
-677.193	-117.660	0.322	0.058
-676.178	-187.622	0.382	0.005
-675.164	17.722	-0.288	0.229
-674.149	118.813	-0.120	-0.148
-673.135	589.641	-0.070	0.174
-672.120	-17.430	0.060	0.038
-671.105	52.695	-0.196	-0.187
-670.091	185.189	0.016	0.024
-669.076	-96.669	-0.170	0.045
-668.062	-200.000	-0.014	0.164
-667.047	210.796	0.094	-0.148
-666.032	398.717	0.104	0.218
-665.018	-200.000	0.031	0.248
-664.003	-162.959	-0.193	0.009
-662.989	-18.865	0.084	-0.052
-661.974	44.964	0.165	-0.152
-660.959	-100.067	-0.378	0.094
-659.945	800.000	0.026	0.087
-658.930	11.521	0.177	-0.136
-657.916	-107.348	0.101	0.022
-656.901	-200.000	-0.026	0.186
-655.886	-200.000	0.004	0.225
-654.872	-75.010	0.212	0.076
-653.857	-100.641	-0.159	-0.039
-652.843	-115.802	-0.040	-0.008
-651.828	-114.984	-0.154	0.029
-650.814	800.000	-0.081	-0.306
-649.799	-75.247	-0.194	-0.069
-648.784	-60.771	-0.205	-0.087
-647.770	-164.295	-0.295	0.014
-646.755	-200.000	-0.036	0.215
-645.741	168.312	0.159	0.226
-644.726	-74.171	0.246	-0.089
-643.711	259.446	-0.030	0.052
-642.697	204.925	0.032	-0.050
-641.682	113.330	0.219	0.266
-640.668	-200.000	-0.001	-0.326
-639.653	-200.000	-0.036	0.233
-638.638	302.554	0.090	0.166
-637.624	206.516	0.186	-0.290
-636.609	-200.000	0.410	-0.002
-635.595	-1.837	0.252	0.177
-634.580	-164.204	-0.132	-0.006
-633.565	-200.000	0.029	0.221
-632.551	151.290	0.058	0.079
-631.536	603.709	0.073	-0.182
-630.522	-161.378	0.411	-0.021
-629.507	800.000	0.020	0.067
-628.492	233.367	-0.021	0.034
-627.478	-200.000	-0.018	-0.128
-626.463	800.000	0.058	-0.242
-625.449	-200.000	0.002	0.166
-624.434	9.668	0.048	0.036
-623.419	525.803	0.142	-0.333
-622.405	-122.335	0.530	0.086
-621.390	-8.106	-0.292	0.197
-620.376	-200.000	0.047	-0.450
-619.361	-76.601	0.082	0.029
-618.346	19.049	0.196	-0.157
-617.332	58.401	-0.041	0.040
-616.317	179.721	-0.072	0.106
-615.303	-8.668	-0.033	-0.022
-614.288	-200.000	0.011	0.254
-613.273	800.000	0.069	0.255
-612.259	348.908	-0.131	0.257
-611.244	-200.000	-0.010	0.264
-610.230	-41.598	-0.145	0.074
-609.215	16.006	-0.126	-0.099
-608.201	150.670	-0.117	0.158
-607.186	-200.000	-0.002	0.161
-606.171	430.116	-0.109	-0.236
-605.157	488.612	0.096	0.219
-604.142	56.625	0.156	0.152
-603.128	96.771	-0.235	0.269
-602.113	774.977	0.044	-0.119
-601.098	800.000	0.012	-0.043
-600.084	12.654	-0.267	-0.206
-599.069	-194.259	-0.329	-0.003
-598.055	641.693	0.073	0.184
-597.040	-200.000	-0.020	0.265
-596.025	-64.981	0.351	-0.141
-595.011	-200.000	-0.044	-0.388
-593.996	-58.955	0.116	-0.050
-592.982	92.333	-0.244	-0.275
-591.967	159.660	-0.175	0.243
-590.952	144.712	-0.085	-0.114
-589.938	-134.869	-0.210	-0.025
-588.923	183.297	-0.075	0.111
-587.909	539.734	0.040	0.096
-586.894	-87.095	0.293	0.089
-585.879	-111.914	-0.180	0.036
-584.865	55.715	0.035	0.034
-583.850	-107.770	-0.218	-0.047
-582.836	-58.932	-0.106	0.046
-581.821	-200.000	0.007	-0.125
-580.806	800.000	-0.070	-0.214
-579.792	103.705	0.019	-0.022
-578.777	-67.184	0.241	-0.094
-577.763	-59.270	0.300	-0.129
-576.748	305.715	-0.007	-0.013
-575.733	800.000	0.028	0.117
-574.719	530.096	-0.043	-0.101
-573.704	216.408	0.101	-0.160
-572.690	-162.850	-0.345	-0.017
-571.675	78.340	0.091	0.097
-570.661	69.547	0.301	0.309
-569.646	-7.893	-0.345	-0.232
-568.631	4.455	-0.147	-0.107
-567.617	800.000	-0.100	-0.332
-566.602	112.346	0.133	-0.160
-565.588	207.212	0.127	0.197
-564.573	235.695	0.104	0.171
-563.558	95.686	-0.242	0.275
-562.544	800.000	0.056	0.172
-561.529	-200.000	-0.013	-0.119
-560.515	-88.294	-0.458	0.136
-559.500	-163.990	-0.057	-0.003
-558.485	66.625	0.285	-0.289
-557.471	-200.000	-0.031	-0.239
-556.456	-145.829	0.090	-0.008
-555.442	150.814	-0.133	-0.180
-554.427	105.425	-0.287	0.338
-553.412	-114.426	0.392	0.075
-552.398	0.221	-0.291	-0.207
-551.383	-58.809	-0.034	0.015
-550.369	-53.526	-0.081	0.037
-549.354	-57.022	-0.358	0.157
-548.339	254.290	-0.105	-0.178
-547.325	-155.540	0.129	-0.008
-546.310	-142.336	-0.127	0.012
-545.296	-200.000	-0.054	0.369
-544.281	433.906	-0.116	-0.251
-543.266	-102.839	0.188	0.045
-542.252	-49.117	-0.123	0.058
-541.237	227.537	-0.218	-0.352
-540.223	33.372	-0.219	-0.189
-539.208	-200.000	0.083	0.000
-538.193	-150.752	-0.086	-0.007
-537.179	230.854	0.068	0.111
-536.164	-68.098	-0.265	-0.103
-535.150	-189.102	-0.151	0.002
-534.135	578.942	-0.100	-0.243
-533.121	1.226	0.088	-0.063
-532.106	114.523	-0.096	-0.116
-531.091	-64.464	-0.175	-0.071
-530.077	361.129	-0.128	-0.255
-529.062	-200.000	-0.018	-0.210
-528.048	800.000	0.127	-0.362
-527.033	540.334	0.011	0.027
-526.018	17.199	0.126	-0.099
-525.004	3.454	0.097	-0.070
-523.989	-25.404	0.136	-0.080
-522.975	11.086	-0.298	-0.226
-521.960	800.000	-0.074	0.287
-520.945	-29.888	-0.019	-0.011
-519.931	-153.888	0.330	0.022
-518.916	357.652	-0.049	-0.097
-517.902	15.240	0.212	-0.166
-516.887	-163.842	-0.112	0.005
-515.872	-101.249	0.062	0.015
-514.858	511.058	-0.006	0.013
-513.843	30.204	0.078	0.066
-512.829	800.000	-0.150	-0.532
-511.814	-200.000	0.027	0.199
-510.799	-72.144	-0.155	-0.057
-509.785	50.201	-0.297	0.279
-508.770	-126.419	0.128	0.019
-507.756	465.205	-0.080	-0.179
-506.741	-10.045	0.092	0.061
-505.726	800.000	-0.064	0.197
-504.712	784.637	-0.111	0.303
-503.697	77.416	0.215	0.227
-502.683	-59.225	0.104	-0.045
-501.668	-1.938	-0.047	0.033
-500.653	-66.518	-0.093	0.037
-499.639	272.831	-0.170	-0.298
-498.624	-93.615	0.162	0.044
-497.610	-0.343	0.212	0.150
-496.595	-101.263	-0.079	0.019
-495.581	-200.000	-0.035	-0.480
-494.566	-106.947	-0.125	0.027
-493.551	-123.686	-0.197	-0.031
-492.537	-5.879	-0.145	-0.098
-491.522	800.000	-0.079	0.287
-490.508	-200.000	0.030	0.184
-489.493	800.000	0.092	-0.291
-488.478	190.763	-0.081	-0.121
-487.464	-92.112	0.354	-0.099
-486.449	-83.043	0.175	0.056
-485.435	74.552	0.211	-0.220
-484.420	3.976	0.048	-0.035
-483.405	-150.336	0.097	0.007
-482.391	-200.000	-0.089	-0.392
-481.376	-81.134	-0.317	0.104
-480.362	800.000	-0.018	-0.061
-479.347	-111.279	-0.271	-0.055
-478.332	-64.741	-0.156	0.063
-477.318	-76.605	-0.335	0.117
-476.303	15.481	0.334	0.260
-475.289	196.058	-0.061	0.092
-474.274	-105.625	0.378	0.085
-473.259	-200.000	0.023	-0.282
-472.245	-167.306	-0.253	0.010
-471.230	273.465	0.228	0.401
-470.216	11.230	-0.134	0.102
-469.201	-200.000	0.071	0.500
-468.186	-103.588	0.348	-0.081
-467.172	-100.255	-0.272	0.067
-466.157	-143.147	-0.133	-0.013
-465.143	5.165	0.351	-0.257
-464.128	-102.748	-0.507	-0.120
-463.113	386.360	0.011	0.023
-462.099	38.737	-0.083	-0.074
-461.084	480.788	0.016	-0.035
-460.070	-200.000	-0.023	0.160
-459.055	-125.879	0.381	-0.057
-458.040	289.686	0.291	-0.523
-457.026	-62.696	-0.235	-0.097
-456.011	-145.773	0.191	-0.017
-454.997	800.000	0.119	-0.353
-453.982	174.718	0.003	-0.005
-452.968	1.884	0.209	-0.150
-451.953	-20.514	0.152	-0.092
-450.938	-32.758	0.345	0.190
-449.924	28.022	-0.202	0.169
-448.909	-152.016	-0.195	-0.014
-447.895	-200.000	0.049	0.299
-446.880	5.142	0.137	0.100
-445.865	12.365	-0.238	0.182
-444.851	800.000	0.065	-0.212
-443.836	-124.886	-0.186	-0.028
-442.822	-108.471	-0.175	-0.037
-441.807	13.280	0.189	0.146
-440.792	800.000	-0.049	0.144
-439.778	-200.000	0.003	-0.114
-438.763	-104.337	0.051	0.012
-437.749	-200.000	-0.008	0.301
-436.734	800.000	0.053	0.208
-435.719	-163.708	0.245	-0.011
-434.705	9.868	0.156	0.117
-433.690	36.142	0.106	-0.093
-432.676	154.468	-0.123	0.168
-431.661	76.600	0.181	-0.190
-430.646	-200.000	0.021	0.301
-429.632	698.124	-0.015	0.040
-428.617	-143.778	0.226	-0.021
-427.603	800.000	0.053	0.179
-426.588	-55.292	0.197	0.088
-425.573	406.771	0.065	0.136
-424.559	114.244	-0.110	0.132
-423.544	800.000	-0.095	0.285
-422.530	578.448	0.099	0.239
-421.515	-200.000	-0.009	0.048
-420.500	-110.348	0.205	0.042
-419.486	-200.000	-0.043	-0.274
-418.471	174.954	-0.156	-0.223
-417.457	197.432	0.051	-0.077
-416.442	649.746	0.072	0.181
-415.428	-200.000	-0.004	-0.025
-414.413	-42.509	-0.207	-0.105
-413.398	-182.149	-0.215	-0.004
-412.384	46.991	-0.078	0.072
-411.369	-200.000	0.020	0.114
-410.355	800.000	0.051	-0.213
-409.340	800.000	0.066	-0.199
-408.325	800.000	0.051	0.186
-407.311	382.499	-0.051	0.103
-406.296	113.651	0.150	-0.181
-405.282	-39.049	-0.204	0.106
-404.267	79.157	-0.098	-0.104
-403.252	-86.512	-0.232	-0.070
-402.238	33.145	0.195	-0.167
-401.223	800.000	0.087	0.304
-400.209	149.748	0.145	0.195
-399.194	-7.877	0.139	0.093
-398.179	-15.938	0.045	0.028
-397.165	800.000	-0.053	-0.165
-396.150	-200.000	-0.007	-0.294
-395.136	-95.878	0.331	0.087
-394.121	35.732	0.123	-0.107
-393.106	-137.369	-0.247	-0.028
-392.092	470.451	-0.142	-0.317
-391.077	-27.455	0.118	0.068
-390.063	115.653	0.018	-0.021
-389.048	373.464	0.086	-0.173
-388.033	-158.722	-0.390	0.022
-387.019	22.572	0.132	-0.107
-386.004	96.916	-0.151	-0.171
-384.990	-165.975	0.172	0.007
-383.975	-200.000	0.030	0.328
-382.960	67.579	0.147	-0.148
-381.946	-92.325	0.212	-0.059
-380.931	-200.000	-0.007	0.082
-379.917	-56.984	0.188	-0.082
-378.902	14.154	-0.183	0.141
-377.888	-98.507	0.266	0.067
-376.873	-33.618	0.157	-0.086
-375.858	587.894	0.135	0.328
-374.844	-200.000	-0.046	-0.288
-373.829	-130.918	-0.083	0.011
-372.815	135.079	-0.171	0.219
-371.800	-66.755	-0.157	-0.061
-370.785	-156.748	-0.338	-0.021
-369.771	-74.175	0.130	0.046
-368.756	-54.000	-0.265	-0.119
-367.742	-200.000	-0.112	0.572
-366.727	-200.000	0.083	0.446
-365.712	203.088	0.087	-0.133
-364.698	377.588	0.111	-0.225
-363.683	800.000	0.046	-0.198
-362.669	-78.617	-0.157	0.053
-361.654	-200.000	-0.031	-0.290
-360.639	-28.147	-0.080	0.046
-359.625	113.960	-0.146	-0.175
-358.610	-45.175	0.051	-0.025
-357.596	-68.289	0.194	-0.074
-356.581	-84.329	0.427	-0.133
-355.566	73.435	0.152	0.157
-354.552	461.116	-0.045	-0.100
-353.537	-99.135	-0.193	-0.048
-352.523	-200.000	-0.017	-0.138
-351.508	-147.307	-0.159	-0.013
-350.493	34.494	-0.222	-0.191
-349.479	118.665	-0.156	0.190
-348.464	510.242	0.143	0.329
-347.450	-178.715	-0.315	-0.007
-346.435	239.649	0.051	0.084
-345.420	-0.789	-0.097	-0.068
-344.406	-51.519	0.053	0.024
-343.391	-151.379	-0.329	0.024
-342.377	-32.394	0.100	0.055
-341.362	800.000	-0.081	0.249
-340.348	800.000	-0.119	-0.407
-339.333	-111.107	0.181	-0.037
-338.318	800.000	0.078	0.304
-337.304	-200.000	0.056	-0.418
-336.289	-134.582	0.147	-0.018
-335.275	-200.000	-0.024	-0.248
-334.260	800.000	-0.042	-0.178
-333.245	-105.824	-0.300	0.067
-332.231	34.938	-0.142	-0.123
-331.216	380.204	0.074	0.150
-330.202	800.000	-0.056	0.194
-329.187	-102.828	0.279	-0.065
-328.172	129.937	0.076	-0.096
-327.158	-136.560	-0.394	0.045
-326.143	119.127	-0.227	0.277
-325.129	-200.000	-0.001	-0.233
-324.114	-145.463	-0.457	0.041
-323.099	-200.000	0.005	-0.345
-322.085	184.465	-0.036	-0.053
-321.070	27.031	0.178	0.147
-320.056	-200.000	0.140	-0.000
-319.041	-171.554	0.227	-0.007
-318.026	103.456	-0.269	0.311
-317.012	-35.334	0.177	-0.095
-315.997	17.666	0.170	0.133
-314.983	-200.000	0.014	0.079
-313.968	-124.612	-0.251	0.038
-312.953	-186.409	0.242	0.003
-311.939	356.300	-0.067	0.132
-310.924	156.855	0.133	0.182
-309.910	-168.368	-0.321	-0.012
-308.895	-145.766	0.301	-0.026
-307.880	-200.000	-0.004	-0.092
-306.866	-34.605	-0.365	0.197
-305.851	800.000	-0.085	-0.255
-304.837	-40.665	0.271	-0.138
-303.822	84.495	-0.224	0.242
-302.807	-136.193	-0.104	0.012
-301.793	24.372	0.190	-0.155
-300.778	-53.741	0.094	-0.042
-299.764	-81.547	0.383	0.124
-298.749	-189.691	-0.382	0.004
-297.735	-0.007	-0.274	-0.193
-296.720	80.537	-0.077	0.082
-295.705	258.957	0.093	0.158
-294.691	30.728	0.144	-0.121
-293.676	42.667	0.202	-0.182
-292.662	209.046	0.171	-0.264
-291.647	98.951	-0.059	-0.067
-290.632	79.606	-0.124	-0.131
-289.618	-43.849	-0.097	-0.048
-288.603	-12.077	0.145	-0.094
-287.589	-148.317	0.106	0.009
-286.574	107.944	-0.089	-0.104
-285.559	-12.104	0.054	0.035
-284.545	75.933	0.180	-0.187
-283.530	422.624	0.069	-0.147
-282.516	29.155	-0.224	0.188
-281.501	-200.000	0.037	0.348
-280.486	-48.620	0.193	0.091
-279.472	-25.440	0.099	-0.058
-278.457	-65.366	-0.078	-0.031
-277.443	87.317	0.115	0.125
-276.428	63.429	-0.108	0.107
-275.413	-200.000	0.011	0.184
-274.399	-200.000	0.066	0.364
-273.384	-200.000	-0.002	-0.162
-272.370	-117.396	0.176	-0.031
-271.355	800.000	0.071	0.216
-270.340	-33.242	-0.259	-0.141
-269.326	-97.506	-0.174	0.045
-268.311	261.418	0.110	0.187
-267.297	-200.000	0.052	-0.387
-266.282	5.927	0.315	0.230
-265.267	-33.034	0.275	0.150
-264.253	-90.299	-0.195	-0.056
-263.238	174.839	-0.179	-0.255
-262.224	203.309	-0.155	-0.235
-261.209	10.747	0.061	0.046
-260.195	23.802	-0.125	-0.101
-259.180	221.339	0.162	0.256
-258.165	143.095	-0.043	0.057
-257.151	-88.736	-0.243	0.071
-256.136	-108.018	-0.090	0.019
-255.122	-200.000	-0.014	-0.171
-254.107	303.622	-0.081	-0.147
-253.092	-60.493	-0.053	0.022
-252.078	800.000	0.028	-0.093
-251.063	286.042	0.070	0.124
-250.049	-90.549	0.141	-0.040
-249.034	254.240	0.194	0.326
-248.019	90.121	0.101	-0.111
-247.005	-200.000	-0.045	0.212
-245.990	-24.145	0.252	-0.148
-244.976	62.345	-0.076	-0.075
-243.961	-200.000	0.053	-0.419
-242.946	-145.809	0.034	0.003
-241.932	-33.737	0.280	-0.152
-240.917	-72.961	-0.147	0.053
-239.903	130.246	0.082	-0.104
-238.888	-15.708	0.086	-0.054
-237.873	800.000	0.040	0.165
-236.859	800.000	0.085	0.284
-235.844	-200.000	-0.008	0.116
-234.830	800.000	-0.053	0.183
-233.815	574.771	-0.036	-0.086
-232.800	-130.716	0.500	-0.066
-231.786	-23.197	-0.169	0.100
-230.771	800.000	-0.100	0.272
-229.757	63.428	-0.019	0.019
-228.742	242.300	0.157	0.258
-227.727	507.466	0.082	0.188
-226.713	-97.943	0.365	0.093
-225.698	7.953	0.176	0.130
-224.684	-200.000	-0.001	-0.132
-223.669	800.000	-0.059	-0.161
-222.655	-17.525	0.449	-0.277
-221.640	193.438	-0.205	-0.304
-220.625	288.467	0.161	-0.287
-219.611	-97.860	0.311	-0.079
-218.596	96.836	-0.137	-0.155
-217.582	-200.000	-0.063	0.294
-216.567	-200.000	0.021	-0.271
-215.552	12.719	-0.123	-0.093
-214.538	-100.049	0.010	0.003
-213.523	-200.000	-0.056	0.315
-212.509	-31.872	-0.038	-0.021
-211.494	-176.963	0.240	-0.006
-210.479	376.057	0.114	0.229
-209.465	625.523	-0.091	0.226
-208.450	-200.000	-0.001	-0.208
-207.436	-108.671	0.110	-0.023
-206.421	86.145	-0.122	-0.132
-205.406	-98.202	0.168	-0.042
-204.392	800.000	0.081	-0.243
-203.377	186.953	-0.084	0.123
-202.363	17.082	0.135	0.105
-201.348	-66.332	-0.320	-0.125
-200.333	121.295	-0.151	0.184
-199.319	-131.655	0.228	-0.029
-198.304	-66.390	-0.088	-0.034
-197.290	-142.513	0.233	0.022
-196.275	-144.352	-0.112	0.010
-195.260	92.342	0.197	0.219
-194.246	-200.000	-0.011	-0.174
-193.231	-150.056	-0.327	0.025
-192.217	172.210	-0.063	-0.089
-191.202	800.000	0.131	0.417
-190.187	800.000	-0.048	0.137
-189.173	-200.000	0.018	-0.360
-188.158	-87.374	-0.122	-0.036
-187.144	-194.100	0.201	-0.002
-186.129	99.114	0.124	-0.141
-185.114	729.645	0.043	-0.114
-184.100	70.112	-0.281	-0.285
-183.085	209.864	-0.141	-0.217
-182.071	-200.000	-0.042	0.289
-181.056	220.153	-0.076	-0.120
-180.042	-200.000	-0.021	0.097
-179.027	-6.995	-0.491	0.327
-178.012	104.399	-0.076	0.087
-176.998	-200.000	0.049	0.320
-175.983	100.504	-0.134	-0.153
-174.969	150.269	-0.168	0.223
-173.954	53.743	0.202	-0.190
-172.939	93.639	-0.186	0.207
-171.925	-200.000	0.007	0.290
-170.910	14.173	-0.082	-0.062
-169.896	56.294	0.199	-0.190
-168.881	141.547	-0.138	0.179
-167.866	55.446	-0.166	0.158
-166.852	800.000	0.049	0.185
-165.837	388.987	0.016	0.032
-164.823	-117.864	-0.186	0.033
-163.808	-141.475	-0.255	0.025
-162.793	800.000	0.018	0.077
-161.779	-7.945	0.002	-0.001
-160.764	-200.000	0.058	-0.380
-159.750	326.947	-0.105	-0.197
-158.735	157.978	0.107	-0.145
-157.720	-74.210	-0.264	-0.094
-156.706	-200.000	-0.031	-0.220
-155.691	339.379	-0.146	0.279
-154.677	-29.344	0.196	0.110
-153.662	-112.643	0.161	-0.031
-152.647	1.169	0.126	0.088
-151.633	-200.000	0.044	0.339
-150.618	314.393	-0.186	0.343
-149.604	800.000	0.041	0.130
-148.589	-93.882	0.318	0.086
-147.574	-61.211	0.381	0.158
-146.560	67.276	-0.228	0.228
-145.545	35.115	-0.086	0.074
-144.531	-170.999	0.183	0.006
-143.516	182.009	-0.127	-0.184
-142.502	-200.000	0.076	0.471
-141.487	-200.000	0.054	-0.261
-140.472	-200.000	0.004	0.095
-139.458	64.082	-0.143	0.141
-138.443	-25.055	0.106	0.061
-137.429	-108.217	0.041	-0.009
-136.414	-162.379	0.113	-0.005
-135.399	-94.441	-0.269	-0.072
-134.385	-71.602	-0.202	-0.074
-133.370	-64.400	0.256	-0.102
-132.356	-48.860	-0.214	0.101
-131.341	-200.000	-0.012	0.177
-130.326	209.690	0.136	0.208
-129.312	591.877	-0.083	0.201
-128.297	-200.000	0.029	-0.200
-127.283	125.171	0.212	-0.262
-126.268	67.878	-0.128	-0.129
-125.253	-200.000	-0.019	0.258
-124.239	-63.324	-0.141	0.057
-123.224	-200.000	0.004	0.170
-122.210	-200.000	-0.035	-0.236
-121.195	-136.348	-0.197	0.022
-120.180	-200.000	0.006	-0.108
-119.166	800.000	-0.031	0.091
-118.151	-200.000	-0.203	-0.001
-117.137	-26.395	-0.405	0.232
-116.122	-200.000	0.013	0.312
-115.107	-30.548	0.219	-0.121
-114.093	182.994	0.142	0.205
-113.078	-200.000	0.027	-0.132
-112.064	800.000	0.031	0.108
-111.049	800.000	0.107	0.295
-110.034	800.000	0.021	0.091
-109.020	800.000	-0.038	0.117
-108.005	-200.000	0.021	0.147
-106.991	-154.423	-0.065	-0.004
-105.976	365.766	0.049	-0.097
-104.962	426.439	0.104	-0.219
-103.947	142.119	0.184	0.238
-102.932	59.763	0.223	0.215
-101.918	-119.207	0.391	0.067
-100.903	551.990	0.038	0.089
-99.889	612.673	-0.057	0.139
-98.874	80.526	-0.046	-0.049
-97.859	670.580	-0.103	0.261
-96.845	800.000	-0.053	-0.178
-95.830	136.118	-0.108	-0.137
-94.816	-200.000	-0.001	-0.174
-93.801	75.712	0.210	0.217
-92.786	-96.587	0.291	0.075
-91.772	22.551	0.113	-0.090
-90.757	94.417	-0.098	0.109
-89.743	653.846	-0.062	0.155
-88.728	-200.000	-0.049	0.213
-87.713	347.342	-0.081	-0.156
-86.699	-85.809	-0.327	-0.099
-85.684	-50.316	0.143	-0.066
-84.670	336.400	0.142	0.269
-83.655	67.935	0.094	0.094
-82.640	-83.923	-0.159	0.050
-81.626	-200.000	0.046	0.230
-80.611	-200.000	0.135	0.000
-79.597	800.000	-0.089	-0.357
-78.582	-200.000	0.049	-0.314
-77.567	-127.546	0.342	-0.049
-76.553	28.879	-0.130	-0.107
-75.538	42.531	0.172	-0.153
-74.524	800.000	-0.076	-0.215
-73.509	225.604	-0.165	-0.261
-72.494	-143.718	0.143	-0.013
-71.480	-69.842	0.174	-0.065
-70.465	-200.000	-0.006	0.079
-69.451	601.864	-0.088	0.213
-68.436	-200.000	0.011	0.308
-67.422	800.000	-0.068	0.186
-66.407	-53.567	0.119	0.053
-65.392	-43.305	0.193	-0.095
-64.378	-146.053	-0.255	0.022
-63.363	-181.110	-0.236	-0.005
-62.349	-97.672	-0.089	0.022
-61.334	55.048	-1.187	-1.120
-60.319	96.600	0.568	0.635
-59.305	-200.000	-0.114	-0.989
-58.290	128.586	1.132	1.409
-57.276	505.830	0.733	1.659
-56.261	-200.000	124.225	645.612
-55.246	413.433	1564.173	3248.449
-54.232	143.120	2721.047	3534.156
-53.217	96.227	2161.291	2412.802
-52.203	35.016	1594.639	1363.226
-51.188	26.618	1339.003	1094.154
-50.173	24.085	1301.438	1048.519
-49.159	51.468	1370.150	1270.758
-48.144	48.742	1381.771	1265.005
-47.130	26.793	1329.768	1087.484
-46.115	23.534	1310.625	1052.485
-45.100	23.349	1306.080	1047.701
-44.086	23.412	1303.532	1045.986
-43.071	23.318	1301.132	1043.468
-42.057	23.297	1299.125	1041.691
-41.042	23.301	1297.832	1040.635
-40.027	23.119	1296.611	1038.547
-39.013	23.355	1293.924	1037.736
-37.998	23.367	1292.274	1036.440
-36.984	23.264	1290.632	1034.481
-35.969	23.339	1289.168	1033.704
-34.954	23.414	1287.848	1033.040
-33.940	23.391	1286.281	1031.611
-32.925	23.441	1284.795	1030.668
-31.911	23.515	1283.002	1029.618
-30.896	23.480	1282.057	1028.618
-29.881	23.499	1280.807	1027.683
-28.867	23.561	1279.493	1026.945
-27.852	23.476	1278.117	1025.309
-26.838	23.607	1276.205	1024.495
-25.823	23.547	1275.065	1023.193
-24.809	23.524	1273.518	1021.775
-23.794	23.544	1272.716	1021.206
-22.779	23.510	1271.012	1019.605
-21.765	23.503	1269.825	1018.570
-20.750	23.507	1268.762	1017.703
-19.736	23.321	1267.474	1015.562
-18.721	23.389	1266.345	1015.005
-17.706	23.407	1264.990	1013.983
-16.692	23.367	1263.933	1012.866
-15.677	23.415	1262.868	1012.247
-14.663	23.343	1261.854	1010.982
-13.648	23.320	1260.898	1010.045
-12.633	23.418	1259.018	1009.057
-11.619	23.303	1259.222	1008.525
-10.604	23.255	1258.717	1007.809
-9.590	23.328	1257.429	1007.155
-8.575	23.358	1256.215	1006.312
-7.560	23.366	1255.049	1005.384
-6.546	23.357	1254.490	1004.840
-5.531	23.242	1254.170	1003.895
-4.517	23.349	1253.134	1003.632
-3.502	23.364	1252.389	1003.081
-2.487	23.261	1251.619	1001.842
-1.473	23.328	1246.963	998.451
-0.458	21.900	1231.726	978.255
0.556	16.972	1217.010	942.840
1.571	13.500	1224.835	929.364
2.586	13.007	1239.834	937.860
3.600	13.115	1227.867	929.335
4.615	9.595	1155.953	856.150
5.629	3.147	1084.968	771.260
6.644	0.441	1068.044	745.795
7.659	0.176	1066.028	743.016
8.673	0.123	1064.887	741.892
9.688	0.021	1063.938	740.666
10.702	0.356	1061.388	740.469
11.717	4.246	1065.873	762.691
12.731	11.191	1075.288	803.722
13.746	15.745	1080.594	830.143
14.761	16.861	1081.071	835.940
15.775	15.893	1080.171	830.402
16.790	15.090	1077.903	824.632
17.804	14.344	1076.255	819.628
18.819	14.125	1075.702	818.056
19.834	13.924	1074.616	816.171
20.848	13.625	1073.623	813.876
21.863	13.325	1072.533	811.504
22.877	13.239	1072.061	810.655
23.892	13.042	1071.524	809.212
24.907	13.220	1070.425	809.183
25.921	13.176	1069.477	808.177
26.936	13.223	1069.015	807.987
27.950	13.254	1067.412	806.852
28.965	13.331	1066.556	806.510
29.980	13.327	1065.724	805.790
30.994	13.532	1064.224	805.586
32.009	13.399	1063.281	804.151
33.023	13.379	1062.087	803.082
34.038	13.361	1061.437	802.434
35.053	13.350	1060.672	801.730
36.067	13.317	1059.969	800.968
37.082	13.310	1059.381	800.415
38.096	13.555	1058.088	800.554
39.111	13.384	1057.742	799.395
40.126	13.204	1056.589	797.585
41.140	13.156	1055.173	796.213
42.155	13.254	1053.707	795.510
43.169	13.122	1052.688	794.032
44.184	13.209	1051.971	793.843
45.199	13.089	1050.889	792.377
46.213	13.195	1049.595	791.841
47.228	13.262	1048.770	791.469
48.242	13.212	1047.932	790.525
49.257	13.211	1046.976	789.730
50.271	13.182	1046.195	788.934
51.286	13.284	1044.707	788.228
52.301	13.247	1044.192	787.594
53.315	13.259	1042.827	786.553
54.330	13.228	1041.735	785.511
55.344	13.245	1041.056	785.010
56.359	13.310	1040.118	784.542
57.374	13.279	1039.357	783.751
58.388	13.203	1038.679	782.813
59.403	13.063	1038.218	781.733
60.417	13.235	1037.005	781.564
61.432	13.020	1036.276	779.926
62.447	13.056	1035.492	779.439
63.461	13.061	1034.774	778.853
64.476	13.203	1033.410	778.429
65.490	13.036	1032.852	777.153
66.505	13.069	1032.092	776.664
67.520	13.111	1031.500	776.349
68.534	13.209	1030.345	775.871
69.549	13.091	1030.391	775.285
70.563	13.188	1028.940	774.577
71.578	13.007	1028.451	773.292
72.593	13.049	1027.788	772.921
73.607	13.171	1026.981	772.819
74.622	13.043	1026.571	771.844
75.636	13.084	1025.458	771.129
76.651	13.027	1025.035	770.475
77.666	12.956	1024.721	769.840
78.680	13.045	1023.893	769.568
79.695	13.199	1022.650	769.282
80.709	13.186	1022.406	768.970
81.724	13.208	1021.581	768.380
82.739	13.161	1021.065	767.709
83.753	13.294	1020.026	767.476
84.768	13.333	1019.026	766.837
85.782	13.315	1018.753	766.478
86.797	13.225	1018.078	765.488
87.812	13.199	1017.153	764.603
88.826	13.243	1015.496	763.496
89.841	13.232	1014.926	762.945
90.855	13.337	1013.878	762.578
91.870	13.245	1013.451	761.765
92.884	13.318	1012.382	761.228
93.899	13.445	1011.260	760.902
94.914	13.394	1010.496	760.027
95.928	13.494	1009.933	759.992
96.943	13.349	1009.158	758.676
97.957	13.288	1008.833	758.088
98.972	13.432	1007.117	757.389
99.987	13.359	1006.717	756.689
101.001	13.338	1005.508	755.614
102.016	13.311	1004.632	754.768
103.030	13.345	1003.984	754.371
104.045	13.379	1003.372	753.999
105.060	13.431	1002.503	753.513
106.074	13.208	1001.763	751.878
107.089	13.284	1000.346	751.090
108.103	13.378	999.403	750.745
109.118	13.210	998.529	749.258
110.133	13.241	997.958	748.908
111.147	13.236	997.107	748.176
112.162	13.336	996.047	747.768
113.176	13.256	995.322	746.797
114.191	13.469	994.472	747.052
115.206	13.336	994.266	746.233
116.220	13.331	993.299	745.419
117.235	13.323	992.117	744.432
118.249	13.341	991.427	743.928
119.264	13.263	990.860	743.083
120.279	13.269	989.847	742.286
121.293	13.279	988.976	741.613
122.308	13.132	988.307	740.386
123.322	13.179	987.381	739.837
124.337	13.280	985.964	739.162
125.352	13.254	985.144	738.367
126.366	13.362	983.996	737.920
127.381	13.362	983.029	737.130
128.395	13.325	982.038	736.160
129.410	13.420	980.950	735.699
130.424	13.290	980.428	734.665
131.439	13.304	979.529	733.988
132.454	13.315	978.979	733.563
133.468	13.346	977.944	732.860
134.483	13.429	977.144	732.562
135.497	13.516	975.970	731.999
136.512	13.323	975.450	730.693
137.527	13.371	974.732	730.301
138.541	13.314	974.132	729.536
139.556	13.361	973.376	729.115
140.570	13.328	972.982	728.608
141.585	13.463	971.743	728.209
142.600	13.508	970.909	727.721
143.614	13.537	970.189	727.242
144.629	13.557	968.994	726.368
145.643	13.503	968.008	725.328
146.658	13.408	967.283	724.309
147.673	13.431	966.224	723.550
148.687	13.381	965.391	722.643
149.702	13.409	964.631	722.131
150.716	13.313	964.169	721.305
151.731	13.357	963.112	720.639
152.746	13.490	962.579	720.757
153.760	13.498	961.925	720.238
154.775	13.605	961.412	720.255
155.789	13.541	961.135	719.708
156.804	13.564	960.008	718.899
157.819	13.623	959.370	718.614
158.833	13.638	958.972	718.316
159.848	13.862	957.771	718.323
160.862	13.700	956.752	716.794
161.877	13.550	956.346	715.778
162.892	13.609	955.245	715.148
163.906	13.560	954.221	714.108
164.921	13.805	953.168	714.309
165.935	13.537	952.878	712.878
166.950	13.689	951.561	712.483
167.964	13.598	951.209	711.764
168.979	13.716	949.840	711.182
169.994	13.607	949.428	710.345
171.008	13.573	948.802	709.667
172.023	13.782	947.779	709.733
173.037	13.724	947.183	708.973
174.052	13.827	946.157	708.583
175.067	13.741	945.961	708.006
176.081	13.656	945.503	707.239
177.096	13.633	944.808	706.558
178.110	13.706	944.146	706.313
179.125	13.799	943.298	706.013
180.140	13.710	943.130	705.445
181.154	13.778	942.580	705.259
182.169	13.868	942.107	705.227
183.183	13.891	941.587	704.870
184.198	13.838	940.759	703.965
185.213	13.786	939.828	702.986
186.227	13.844	939.422	702.867
187.242	14.040	938.670	703.069
188.256	14.001	938.213	702.499
189.271	13.815	937.445	701.079
190.286	13.908	936.422	700.642
191.300	13.755	935.819	699.486
192.315	13.739	934.929	698.692
193.329	13.846	934.524	698.775
194.344	13.828	934.106	698.324
195.359	13.935	933.055	697.927
196.373	13.989	932.639	697.781
197.388	13.949	932.596	697.521
198.402	13.991	932.002	697.189
199.417	14.058	931.559	697.079
200.432	14.033	930.761	696.316
201.446	14.234	929.862	696.424
202.461	14.228	929.644	696.170
203.475	14.107	929.301	695.349
204.490	14.123	928.159	694.499
205.504	14.161	927.309	693.961
206.519	14.046	926.867	693.089
207.534	14.208	925.975	693.034
208.548	14.276	924.921	692.467
209.563	14.257	924.630	692.108
210.577	14.169	924.148	691.321
211.592	14.129	923.570	690.661
212.607	14.368	922.782	691.003
213.621	14.375	921.727	690.181
214.636	14.307	921.279	689.502
215.650	14.420	920.303	689.176
216.665	14.313	919.628	688.167
217.680	14.407	918.808	687.882
218.694	14.474	918.405	687.798
219.709	14.384	917.761	686.884
220.723	14.373	917.393	686.503
221.738	14.443	916.704	686.213
222.753	14.521	915.725	685.741
223.767	14.427	915.503	685.126
224.782	14.363	915.094	684.498
225.796	14.539	914.582	684.775
226.811	14.542	913.314	683.781
227.826	14.384	913.138	682.939
228.840	14.494	912.053	682.516
229.855	14.631	910.732	682.030
230.869	14.428	910.516	680.977
231.884	14.530	909.771	680.776
232.899	14.514	908.934	680.023
233.913	14.631	908.232	679.916
234.928	14.467	907.540	678.669
235.942	14.472	907.440	678.553
236.957	14.582	906.775	678.445
237.972	14.549	906.028	677.693
238.986	14.533	905.563	677.219
240.001	14.664	904.648	677.007
241.015	14.535	904.410	676.244
242.030	14.580	903.438	675.641
243.045	14.758	902.677	675.734
244.059	14.572	902.733	674.960
245.074	14.553	902.021	674.291
246.088	14.666	900.890	673.845
247.103	14.761	900.152	673.615
248.117	14.753	899.519	673.050
249.132	14.731	899.316	672.750
250.147	14.788	898.388	672.225
251.161	14.939	897.824	672.351
252.176	14.886	897.260	671.657
253.190	14.994	896.176	671.216
254.205	15.028	895.870	671.067
255.220	15.012	895.027	670.311
256.234	15.035	894.416	669.886
257.249	15.040	893.742	669.341
258.263	15.011	893.435	668.937
259.278	15.015	892.015	667.830
260.293	15.120	891.656	667.920
261.307	15.133	891.353	667.687
262.322	15.070	890.904	667.041
263.336	15.181	890.095	666.816
264.351	15.268	889.480	666.643
265.366	15.210	888.699	665.771
266.380	15.230	888.140	665.370
267.395	15.184	887.781	664.863
268.409	15.229	886.585	664.084
269.424	15.223	885.881	663.475
270.439	15.188	884.918	662.555
271.453	15.107	884.592	661.932
272.468	15.121	884.160	661.607
273.482	15.173	883.679	661.395
274.497	15.218	882.985	660.993
275.512	15.186	882.437	660.400
276.526	15.283	882.103	660.473
277.541	15.269	881.566	659.955
278.555	15.416	880.523	659.696
279.570	15.314	880.174	658.974
280.585	15.449	879.171	658.697
281.599	15.375	878.446	657.804
282.614	15.413	878.040	657.592
283.628	15.456	877.160	657.042
284.643	15.448	876.528	656.477
285.657	15.410	876.229	656.050
286.672	15.547	875.395	655.900
287.687	15.486	874.446	654.894
288.701	15.539	873.979	654.695
289.716	15.420	873.801	654.038
290.730	15.601	872.780	653.922
291.745	15.551	872.152	653.197
292.760	15.557	871.938	653.002
293.774	15.654	871.081	652.680
294.789	15.795	870.148	652.471
295.803	15.550	869.913	651.287
296.818	15.520	868.952	650.391
297.833	15.668	868.359	650.464
298.847	15.708	867.846	650.177
299.862	15.654	867.502	649.652
300.876	15.674	866.895	649.217
301.891	15.595	865.938	648.139
302.906	15.787	865.490	648.486
303.920	15.747	864.979	647.892
304.935	15.871	864.273	647.782
305.949	15.812	863.909	647.226
306.964	15.862	863.302	646.906
307.979	15.854	862.873	646.495
308.993	15.881	862.274	646.095
310.008	16.101	861.406	646.232
311.022	15.827	861.087	644.884
312.037	15.844	860.791	644.672
313.052	15.749	859.802	643.509
314.066	15.927	859.061	643.578
315.081	15.843	858.748	642.966
316.095	15.985	857.745	642.701
317.110	15.786	857.159	641.445
318.125	15.870	857.107	641.669
319.139	15.997	856.356	641.534
320.154	15.927	856.140	641.050
321.168	15.953	855.806	640.841
322.183	15.991	854.867	640.224
323.197	16.086	854.167	640.007
324.212	15.912	854.197	639.309
325.227	16.063	853.038	638.961
326.241	15.918	852.705	638.105
327.256	16.019	852.353	638.166
328.270	16.035	851.645	637.640
329.285	16.114	851.099	637.475
330.300	16.053	850.360	636.632
331.314	16.037	850.051	636.284
332.329	16.193	849.249	636.218
333.343	16.077	848.974	635.516
334.358	16.063	848.784	635.268
335.373	16.189	848.167	635.224
336.387	16.130	847.833	634.695
337.402	16.369	847.265	635.112
338.416	16.229	847.120	634.422
339.431	16.340	846.622	634.408
340.446	16.245	846.328	633.775
341.460	16.239	845.987	633.440
342.475	16.397	845.420	633.554
343.489	16.280	845.207	632.900
344.504	16.409	844.738	632.975
345.519	16.350	844.267	632.346
346.533	16.541	843.619	632.518
347.548	16.366	843.251	631.532
348.562	16.415	842.467	631.073
349.577	16.513	842.100	631.106
350.592	16.494	840.841	630.039
351.606	16.479	840.305	629.525
352.621	16.468	839.933	629.148
353.635	16.453	839.167	628.464
354.650	16.340	838.832	627.737
355.665	16.355	838.146	627.224
356.679	16.370	837.821	626.980
357.694	16.528	836.942	626.855
358.708	16.595	836.092	626.409
359.723	16.537	835.542	625.728
360.738	16.611	834.668	625.293
361.752	16.710	834.094	625.172
362.767	16.577	833.810	624.412
363.781	16.740	833.359	624.620
364.796	16.590	832.665	623.493
365.810	16.685	832.565	623.712
366.825	16.753	831.972	623.463
367.840	16.682	831.545	622.827
368.854	16.736	831.113	622.645
369.869	16.796	830.670	622.481
370.883	16.877	830.314	622.454
371.898	16.831	829.701	621.770
372.913	16.792	829.650	621.535
373.927	16.866	829.217	621.429
374.942	16.921	828.357	620.931
375.956	16.945	827.915	620.631
376.971	16.978	827.900	620.687
377.986	17.018	827.346	620.361
379.000	16.975	826.883	619.801
380.015	17.012	826.235	619.398
381.029	16.969	825.724	618.802
382.044	16.973	825.584	618.656
383.059	17.011	824.533	617.954
384.073	17.067	824.132	617.802
385.088	16.951	823.459	616.822
386.102	16.965	822.942	616.430
387.117	17.162	822.132	616.483
388.132	17.055	821.322	615.435
389.146	17.054	820.934	615.086
390.161	17.275	820.629	615.603
391.175	17.122	820.320	614.763
392.190	17.201	819.461	614.350
393.205	17.252	819.049	614.170
394.219	17.235	818.914	613.953
395.234	17.255	818.481	613.647
396.248	16.975	818.486	612.585
397.263	17.107	817.735	612.444
398.278	17.111	817.403	612.157
399.292	17.125	816.495	611.475
400.307	17.050	816.448	611.115
401.321	16.996	816.101	610.604
402.336	17.192	815.247	610.619
403.350	17.202	814.990	610.407
404.365	17.355	814.314	610.397
405.380	17.300	813.810	609.767
406.394	17.299	813.671	609.605
407.409	17.330	813.321	609.400
408.423	17.313	812.856	608.936
409.438	17.536	812.215	609.201
410.453	17.484	812.031	608.824
411.467	17.571	811.208	608.463
412.482	17.554	811.119	608.282
413.496	17.637	810.777	608.266
414.511	17.525	810.313	607.464
415.526	17.738	809.632	607.659
416.540	17.630	809.011	606.755
417.555	17.670	808.425	606.403
418.569	17.598	808.352	606.039
419.584	17.589	808.140	605.796
420.599	17.410	807.737	604.804
421.613	113.509	1299.173	1486.999
422.628	98.041	1370.739	1487.079
