DTS Sentinel unit serial number:	SN413079Multiplexer serial number:	ORYXHardware model number:	OX4-SRSoftware version number:	ORYX F/W v4.00 Oryx Data Collector v3.7.2.0data status	okinstallation	princeton_trtdifferential loss correction	single-endedforward channel	channel 1reverse channel	N/Adate	2019/09/14time	02:14:36forward acquisition time	60.00reverse acquisition time	0.00gamma	496.2192k internal	0.2336k external	0.2336temperature offset calibration	1.0076default loss term (dB/km)	0.3790temperature slope calibration	1.0000multiplexer offset coefficient	1.0000multiplexer slope coefficient	1.0000fibre end	0.00T internal ref (°C)	26.50T ext. ref 1 (°C)	3.21T ext. ref 2 (°C)	21.46length (m)	temperature (°C)	Stokes	anti-Stokes-747.200	486.841	0.018	0.042
-746.185	93.130	-0.173	0.197
-745.171	800.000	0.049	0.141
-744.156	-66.558	-0.134	-0.053
-743.142	-46.128	0.266	-0.132
-742.127	-137.916	-0.103	-0.012
-741.112	-172.199	0.161	0.005
-740.098	-100.512	-0.051	-0.013
-739.083	-54.513	-0.143	0.065
-738.069	-108.274	-0.321	0.070
-737.054	422.243	-0.013	-0.027
-736.039	-25.671	-0.451	0.267
-735.025	11.133	0.160	0.122
-734.010	-77.639	-0.364	0.127
-732.996	668.650	-0.070	0.183
-731.981	-47.647	-0.176	0.086
-730.966	-120.738	-0.269	-0.046
-729.952	-60.201	-0.148	0.063
-728.937	-14.601	-0.364	-0.235
-727.923	6.386	-0.056	-0.042
-726.908	142.811	0.281	-0.374
-725.894	139.066	-0.228	-0.301
-724.879	5.060	0.048	0.035
-723.864	114.410	0.090	-0.110
-722.850	-21.210	-0.158	0.097
-721.835	-9.721	-0.195	-0.130
-720.821	800.000	0.028	0.082
-719.806	800.000	-0.080	-0.231
-718.791	-200.000	0.026	-0.159
-717.777	18.049	-0.151	-0.121
-716.762	5.078	0.242	-0.179
-715.748	-15.681	-0.254	-0.162
-714.733	-130.404	-0.315	0.043
-713.718	-200.000	-0.007	0.243
-712.704	-69.966	0.291	-0.111
-711.689	589.359	-0.023	0.057
-710.675	691.779	0.090	-0.235
-709.660	-40.416	0.196	-0.102
-708.645	-89.897	-0.157	-0.046
-707.631	10.940	-0.173	-0.132
-706.616	744.657	-0.028	0.075
-705.602	-200.000	-0.051	-0.255
-704.587	110.485	0.174	-0.210
-703.572	-68.619	-0.215	-0.084
-702.558	-108.583	-0.143	-0.031
-701.543	-167.871	0.171	0.007
-700.529	135.131	-0.078	-0.101
-699.514	-200.000	0.007	-0.030
-698.499	-107.227	-0.248	0.055
-697.485	24.169	-0.187	0.155
-696.470	91.963	-0.157	-0.177
-695.456	800.000	0.116	-0.400
-694.441	-119.670	0.251	-0.043
-693.426	-162.313	-0.293	-0.015
-692.412	-124.737	-0.194	0.030
-691.397	-200.000	-0.001	-0.405
-690.383	-200.000	0.001	-0.015
-689.368	475.088	-0.068	0.153
-688.354	-200.000	-0.046	0.368
-687.339	-133.503	-0.108	-0.014
-686.324	210.788	0.083	-0.130
-685.310	17.282	0.172	-0.137
-684.295	800.000	0.045	-0.134
-683.281	719.989	-0.058	0.154
-682.266	800.000	0.039	-0.122
-681.251	-200.000	0.036	0.213
-680.237	29.916	0.031	0.026
-679.222	-200.000	-0.020	-0.126
-678.208	7.947	0.344	-0.259
-677.193	101.079	-0.076	0.089
-676.178	5.497	0.239	-0.177
-675.164	800.000	0.045	-0.167
-674.149	-117.172	-0.018	-0.003
-673.135	-46.109	-0.106	0.052
-672.120	-169.444	-0.219	0.008
-671.105	381.044	-0.096	-0.197
-670.091	80.969	-0.226	0.244
-669.076	-200.000	0.024	0.162
-668.062	88.641	0.041	-0.046
-667.047	-107.938	0.144	0.031
-666.032	-200.000	0.012	-0.195
-665.018	641.137	-0.055	0.139
-664.003	800.000	0.041	-0.150
-662.989	-103.785	0.243	-0.057
-661.974	556.121	0.155	0.373
-660.959	35.479	-0.258	-0.227
-659.945	-24.402	0.196	0.117
-658.930	124.136	-0.124	-0.156
-657.916	-55.717	-0.257	0.115
-656.901	685.506	0.114	0.297
-655.886	437.882	-0.054	0.118
-654.872	-111.753	-0.162	-0.033
-653.857	13.045	0.228	0.176
-652.843	-200.000	0.032	-0.167
-651.828	-126.855	-0.215	-0.032
-650.814	-124.709	-0.221	0.034
-649.799	-200.000	-0.002	0.015
-648.784	98.016	0.127	-0.146
-647.770	-119.405	-0.073	-0.013
-646.755	175.531	0.139	0.201
-645.741	-140.060	-0.254	-0.027
-644.726	628.145	-0.067	-0.168
-643.711	-168.061	-0.278	-0.011
-642.697	800.000	0.105	0.343
-641.682	-23.827	-0.110	0.066
-640.668	-149.469	-0.508	-0.040
-639.653	346.190	0.005	0.010
-638.638	800.000	0.051	0.145
-637.624	271.740	0.121	0.214
-636.609	291.456	-0.109	0.198
-635.595	99.189	0.111	-0.128
-634.580	-148.272	0.219	-0.018
-633.565	-43.074	0.081	0.041
-632.551	13.110	0.128	-0.099
-631.536	603.443	-0.030	-0.076
-630.522	-80.800	-0.181	-0.060
-629.507	-200.000	0.052	-0.293
-628.492	800.000	-0.074	-0.249
-627.478	-2.764	0.151	-0.106
-626.463	-200.000	0.005	0.163
-625.449	77.498	-0.218	0.232
-624.434	-72.391	0.311	-0.115
-623.419	-55.117	-0.033	-0.015
-622.405	-87.603	-0.115	-0.035
-621.390	-68.784	0.360	0.139
-620.376	800.000	0.070	-0.265
-619.361	793.140	0.066	0.182
-618.346	128.066	-0.103	-0.131
-617.332	387.626	0.116	-0.240
-616.317	-42.572	0.103	0.052
-615.303	-59.983	-0.250	0.107
-614.288	21.256	-0.129	-0.105
-613.273	-25.469	0.223	-0.132
-612.259	32.963	-0.205	0.178
-611.244	800.000	0.031	-0.106
-610.230	98.845	0.184	-0.212
-609.215	-200.000	-0.019	-0.130
-608.201	468.723	-0.059	-0.131
-607.186	15.582	0.058	-0.045
-606.171	326.320	-0.086	-0.164
-605.157	-68.478	-0.112	0.043
-604.142	-200.000	-0.021	0.196
-603.128	-6.954	0.185	0.126
-602.113	180.403	-0.246	-0.361
-601.098	17.159	-0.168	0.133
-600.084	-153.678	0.167	0.011
-599.069	800.000	0.071	0.239
-598.055	-4.943	-0.207	-0.143
-597.040	212.048	0.050	-0.078
-596.025	12.126	0.115	-0.089
-595.011	207.782	0.197	-0.307
-593.996	-200.000	-0.035	0.240
-592.982	-34.205	-0.282	0.155
-591.967	-200.000	-0.001	-0.115
-590.952	-200.000	0.045	0.474
-589.938	-194.097	-0.082	-0.001
-588.923	-28.745	0.062	0.035
-587.909	-23.593	-0.235	-0.141
-586.894	-29.669	0.177	0.101
-585.879	-45.201	0.132	-0.066
-584.865	-147.281	0.058	0.005
-583.850	371.584	0.150	-0.304
-582.836	-68.336	-0.525	-0.204
-581.821	-91.106	-0.064	-0.018
-580.806	-66.878	-0.234	-0.092
-579.792	563.274	-0.047	-0.113
-578.777	-34.315	0.259	0.142
-577.763	375.469	0.102	0.207
-576.748	-200.000	0.014	-0.287
-575.733	-109.719	-0.143	0.030
-574.719	-147.018	0.095	-0.008
-573.704	-140.988	-0.498	0.051
-572.690	44.207	-0.125	-0.114
-571.675	12.920	-0.108	-0.083
-570.661	800.000	0.068	-0.284
-569.646	98.053	-0.193	0.222
-568.631	64.190	-0.102	0.103
-567.617	-45.970	0.124	0.061
-566.602	-77.418	-0.377	0.131
-565.588	306.514	-0.045	-0.083
-564.573	-150.987	-0.166	0.012
-563.558	644.081	0.057	0.145
-562.544	-200.000	-0.008	-0.169
-561.529	-200.000	-0.037	-0.355
-560.515	-200.000	-0.004	0.338
-559.500	-89.119	0.085	-0.025
-558.485	-176.393	0.258	0.007
-557.471	-200.000	-0.073	0.329
-556.456	601.222	-0.073	-0.181
-555.442	-152.209	-0.450	-0.032
-554.427	-124.040	0.100	0.016
-553.412	800.000	-0.087	0.375
-552.398	-200.000	-0.003	0.025
-551.383	-109.302	-0.177	-0.037
-550.369	-121.400	0.081	0.013
-549.354	-112.056	0.110	-0.022
-548.339	-17.819	-0.132	-0.082
-547.325	97.942	-0.183	-0.210
-546.310	-107.957	-0.553	0.120
-545.296	800.000	0.053	-0.153
-544.281	-81.449	-0.226	0.074
-543.266	-125.837	-0.320	-0.048
-542.252	-51.580	-0.039	-0.018
-541.237	-107.243	0.102	0.022
-540.223	-61.811	0.065	-0.027
-539.208	103.926	0.103	-0.120
-538.193	203.510	0.092	-0.142
-537.179	-200.000	0.014	0.108
-536.164	129.328	0.177	-0.225
-535.150	606.258	0.056	-0.139
-534.135	374.138	0.053	-0.107
-533.121	-100.686	-0.079	-0.019
-532.106	-200.000	-0.005	0.316
-531.091	86.779	-0.087	0.095
-530.077	-132.864	0.170	0.022
-529.062	-148.158	-0.197	-0.016
-528.048	135.150	-0.119	0.155
-527.033	408.903	0.083	-0.176
-526.018	800.000	-0.104	0.299
-525.004	-116.595	-0.209	-0.038
-523.989	714.183	0.078	-0.207
-522.975	-8.539	-0.077	0.051
-521.960	142.171	0.098	0.130
-520.945	800.000	-0.039	0.131
-519.931	52.060	0.119	0.113
-518.916	124.283	-0.257	-0.321
-517.902	800.000	0.088	-0.280
-516.887	800.000	-0.035	0.131
-515.872	-1.674	0.299	0.210
-514.858	-200.000	-0.001	-0.048
-513.843	59.891	-0.228	0.224
-512.829	42.057	0.355	-0.320
-511.814	800.000	0.091	0.275
-510.799	-181.420	-0.134	-0.003
-509.785	-195.996	0.549	-0.004
-508.770	-49.006	0.168	-0.080
-507.756	120.670	0.214	-0.264
-506.741	254.364	-0.058	-0.099
-505.726	-200.000	-0.033	0.345
-504.712	428.903	0.094	0.203
-503.697	568.567	0.181	-0.437
-502.683	-200.000	-0.027	-0.224
-501.668	115.090	-0.174	0.211
-500.653	98.009	-0.101	0.116
-499.639	-67.261	0.601	-0.235
-498.624	73.750	0.210	0.218
-497.610	800.000	0.099	-0.391
-496.595	-72.330	0.118	-0.043
-495.581	222.049	-0.087	-0.139
-494.566	495.013	-0.097	-0.222
-493.551	143.271	0.095	0.126
-492.537	-200.000	-0.004	-0.304
-491.522	-107.977	-0.210	-0.045
-490.508	-200.000	0.087	0.000
-489.493	229.829	0.143	0.233
-488.478	39.809	-0.019	-0.017
-487.464	35.858	0.369	0.323
-486.449	422.855	-0.092	-0.196
-485.435	800.000	0.042	0.138
-484.420	173.915	-0.027	0.039
-483.405	-124.465	-0.006	-0.001
-482.391	15.480	0.271	-0.212
-481.376	-200.000	-0.047	0.216
-480.362	122.033	-0.242	0.300
-479.347	-90.566	-0.324	0.093
-478.332	800.000	-0.069	0.214
-477.318	-98.129	0.377	-0.096
-476.303	-92.186	0.317	0.089
-475.289	265.168	-0.153	0.265
-474.274	-97.904	0.152	-0.039
-473.259	-108.814	0.129	0.027
-472.245	-48.692	0.122	-0.058
-471.230	54.940	-0.093	0.089
-470.216	72.021	0.281	-0.290
-469.201	-200.000	-0.023	0.225
-468.186	800.000	0.024	0.080
-467.172	-67.686	-0.151	-0.059
-466.157	-79.454	-0.141	-0.047
-465.143	-24.101	-0.158	-0.094
-464.128	-118.177	0.312	0.055
-463.113	-200.000	-0.013	0.335
-462.099	-70.801	0.113	0.043
-461.084	22.763	0.113	-0.092
-460.070	-200.000	-0.013	0.107
-459.055	42.229	-0.241	-0.217
-458.040	-200.000	-0.016	0.215
-457.026	-77.658	-0.092	-0.032
-456.011	169.358	0.064	0.090
-454.997	-177.394	-0.200	-0.005
-453.982	-153.731	-0.140	0.010
-452.968	-18.990	-0.275	-0.170
-451.953	-169.634	-0.130	0.005
-450.938	-19.743	-0.182	0.112
-449.924	-200.000	-0.086	-0.491
-448.909	58.832	-0.118	0.115
-447.895	45.777	-0.206	0.189
-446.880	-14.859	0.118	0.075
-445.865	216.329	-0.132	0.209
-444.851	-69.407	0.241	-0.092
-443.836	109.922	-0.147	-0.175
-442.822	71.300	0.223	0.229
-441.807	800.000	-0.035	0.128
-440.792	-100.242	-0.414	0.102
-439.778	-159.902	0.282	0.015
-438.763	12.431	-0.108	-0.082
-437.749	274.799	0.044	0.078
-436.734	284.668	0.138	-0.246
-435.719	-77.385	0.130	0.045
-434.705	131.409	-0.221	0.282
-433.690	-48.103	0.099	0.047
-432.676	120.999	0.128	-0.157
-431.661	-78.413	-0.216	-0.073
-430.646	-200.000	-0.006	-0.192
-429.632	-19.700	-0.273	0.168
-428.617	104.708	-0.126	0.148
-427.603	-28.780	-0.107	0.061
-426.588	-114.393	0.389	0.074
-425.573	-192.810	0.122	0.001
-424.559	-58.578	-0.156	0.067
-423.544	95.686	-0.135	-0.153
-422.530	-200.000	-0.016	0.106
-421.515	2.211	-0.082	0.059
-420.500	-170.767	0.287	0.010
-419.486	-80.118	-0.201	0.067
-418.471	449.177	-0.138	0.301
-417.457	369.012	0.111	0.223
-416.442	-61.042	-0.094	-0.039
-415.428	-200.000	-0.009	0.113
-414.413	62.044	-0.248	0.245
-413.398	110.814	0.071	-0.085
-412.384	-76.343	-0.347	0.121
-411.369	59.209	-0.203	-0.198
-410.355	286.345	-0.115	0.206
-409.340	516.746	0.034	0.079
-408.325	-10.974	0.177	-0.116
-407.311	-102.535	-0.326	0.077
-406.296	-56.947	0.414	0.181
-405.282	-155.552	-0.478	0.030
-404.267	282.637	0.146	0.259
-403.252	194.316	0.249	-0.374
-402.238	234.328	-0.110	0.180
-401.223	-142.045	-0.065	0.006
-400.209	164.796	-0.012	0.016
-399.194	54.241	-0.252	-0.241
-398.179	800.000	-0.015	-0.045
-397.165	166.715	-0.138	0.194
-396.150	-55.481	0.236	-0.105
-395.136	-25.081	0.192	-0.113
-394.121	-174.027	-0.383	-0.011
-393.106	63.873	0.198	-0.197
-392.092	-127.844	0.237	-0.034
-391.077	504.298	-0.122	-0.279
-390.063	38.745	0.138	0.122
-389.048	-101.238	-0.255	0.062
-388.033	-200.000	0.018	-0.217
-387.019	-151.801	-0.324	0.024
-386.004	-82.931	0.266	0.085
-384.990	150.657	0.171	-0.230
-383.975	-171.154	-0.040	-0.001
-382.960	-37.204	-0.076	0.040
-381.946	800.000	0.033	0.139
-380.931	-132.260	0.153	0.020
-379.917	-200.000	-0.014	-0.185
-378.902	48.854	0.075	0.070
-377.888	-123.679	-0.224	0.035
-376.873	147.996	0.206	0.275
-375.858	33.196	-0.142	-0.122
-374.844	114.986	-0.278	0.336
-373.829	-33.267	-0.179	0.098
-372.815	-200.000	-0.002	0.191
-371.800	142.314	0.290	-0.381
-370.785	46.093	0.108	-0.099
-369.771	-54.044	-0.265	-0.119
-368.756	-200.000	0.020	0.171
-367.742	-11.066	-0.043	-0.028
-366.727	-172.164	0.254	-0.008
-365.712	150.977	-0.102	0.138
-364.698	128.644	0.034	-0.042
-363.683	-200.000	-0.038	0.175
-362.669	-111.131	-0.135	-0.027
-361.654	318.552	-0.122	0.229
-360.639	31.413	0.301	0.256
-359.625	-49.306	-0.258	0.122
-358.610	-100.693	0.244	0.059
-357.596	570.202	0.130	-0.313
-356.581	-24.143	0.391	-0.231
-355.566	-120.843	-0.222	-0.037
-354.552	590.555	0.072	0.176
-353.537	-200.000	-0.007	-0.160
-352.523	-171.402	0.340	-0.011
-351.508	438.888	-0.081	-0.174
-350.493	84.563	0.233	-0.252
-349.479	43.289	-0.186	-0.168
-348.464	-200.000	-0.014	0.101
-347.450	-131.257	0.236	-0.031
-346.435	-130.202	-0.249	0.033
-345.420	-17.422	-0.161	0.100
-344.406	219.772	-0.102	-0.161
-343.391	-122.242	0.179	0.029
-342.377	800.000	0.160	0.678
-341.362	78.656	-0.017	-0.018
-340.348	10.848	0.128	0.097
-339.333	-73.141	0.019	-0.007
-338.318	32.757	-0.247	-0.211
-337.304	138.144	0.266	0.345
-336.289	-150.596	0.170	0.013
-335.275	800.000	-0.062	-0.265
-334.260	740.849	-0.177	0.470
-333.245	100.880	0.283	0.326
-332.231	-48.481	0.242	0.115
-331.216	93.268	0.330	-0.369
-330.202	-6.761	0.361	-0.242
-329.187	3.761	-0.174	0.125
-328.172	-123.051	-0.233	0.037
-327.158	96.962	-0.277	-0.314
-326.143	-20.688	0.147	0.089
-325.129	-200.000	0.033	0.228
-324.114	-200.000	0.041	0.208
-323.099	-200.000	-0.022	0.255
-322.085	63.205	0.102	-0.101
-321.070	-79.699	-0.488	-0.162
-320.056	441.712	0.174	-0.376
-319.041	-200.000	-0.005	-0.201
-318.026	-14.116	0.324	-0.207
-317.012	-200.000	0.016	0.090
-315.997	-174.304	0.356	-0.010
-314.983	78.503	-0.168	-0.177
-313.968	800.000	-0.082	0.291
-312.953	489.360	0.054	0.122
-311.939	-142.999	0.190	-0.018
-310.924	444.468	-0.078	-0.168
-309.910	-5.965	0.250	-0.169
-308.895	-15.499	0.487	-0.307
-307.880	800.000	-0.047	-0.204
-306.866	106.575	-0.014	0.016
-305.851	15.773	-0.183	-0.142
-304.837	-200.000	0.029	-0.189
-303.822	47.426	0.231	-0.213
-302.807	675.270	0.099	-0.254
-301.793	222.970	0.154	0.245
-300.778	-200.000	0.028	-0.284
-299.764	-90.404	0.178	-0.051
-298.749	800.000	-0.120	0.383
-297.735	65.251	-0.199	-0.199
-296.720	800.000	0.050	0.137
-295.705	-200.000	0.011	0.470
-294.691	188.187	0.119	0.175
-293.676	800.000	0.148	0.406
-292.662	-31.833	-0.076	-0.042
-291.647	-14.989	-0.237	-0.150
-290.632	800.000	0.072	0.226
-289.618	-29.668	-0.198	-0.112
-288.603	-115.085	0.409	0.077
-287.589	-11.007	0.256	0.166
-286.574	31.417	-0.079	0.067
-285.559	75.269	-0.055	0.057
-284.545	-104.198	-0.180	0.041
-283.530	143.631	-0.165	0.217
-282.516	54.331	-0.160	0.152
-281.501	77.314	-0.222	0.233
-280.486	-110.189	0.082	0.017
-279.472	29.954	0.092	-0.077
-278.457	123.110	0.085	-0.105
-277.443	-142.901	-0.564	-0.054
-276.428	-166.553	-0.296	0.012
-275.413	360.250	-0.189	0.373
-274.399	-33.235	0.096	0.052
-273.384	19.674	-0.087	-0.069
-272.370	-200.000	-0.010	0.184
-271.355	-113.827	0.109	0.021
-270.340	101.607	-0.191	-0.219
-269.326	282.921	-0.130	0.230
-268.311	-118.662	-0.419	-0.073
-267.297	24.705	0.316	0.258
-266.282	420.801	-0.135	-0.285
-265.267	-33.084	-0.155	0.085
-264.253	-196.740	0.251	0.002
-263.238	194.269	-0.098	-0.146
-262.224	30.592	0.284	-0.239
-261.209	-200.000	0.012	0.072
-260.195	16.320	0.234	-0.182
-259.180	84.421	0.126	-0.136
-258.165	6.344	0.291	-0.213
-257.151	800.000	0.096	0.281
-256.136	-200.000	0.004	0.151
-255.122	800.000	0.132	-0.387
-254.107	800.000	0.054	-0.180
-253.092	-7.668	0.256	-0.171
-252.078	-200.000	-0.019	0.202
-251.063	-188.841	-0.118	-0.001
-250.049	289.059	0.104	0.185
-249.034	-0.196	0.178	-0.125
-248.019	18.003	-0.093	-0.073
-247.005	48.491	0.027	0.025
-245.990	697.274	0.094	-0.243
-244.976	800.000	-0.052	-0.164
-243.961	102.964	-0.074	0.086
-242.946	-186.720	0.274	-0.004
-241.932	-67.103	-0.278	0.108
-240.917	800.000	-0.033	0.130
-239.903	-38.508	-0.298	-0.155
-238.888	81.039	0.284	0.302
-237.873	-101.321	0.167	-0.040
-236.859	-200.000	0.049	-0.215
-235.844	279.506	-0.133	-0.234
-234.830	-200.000	0.002	0.168
-233.815	-33.111	-0.132	0.072
-232.800	800.000	-0.069	0.265
-231.786	185.834	0.079	0.116
-230.771	-7.549	0.097	0.065
-229.757	-200.000	0.036	-0.267
-228.742	42.053	0.291	0.260
-227.727	55.618	0.021	-0.020
-226.713	266.458	0.138	0.237
-225.698	-106.490	0.321	0.071
-224.684	-72.438	0.231	0.084
-223.669	-200.000	0.032	-0.278
-222.655	76.794	-0.071	-0.074
-221.640	85.455	0.233	-0.252
-220.625	-192.455	-0.088	0.001
-219.611	183.279	0.191	-0.278
-218.596	7.449	-0.241	0.177
-217.582	-200.000	0.027	-0.363
-216.567	287.297	0.052	-0.093
-215.552	-148.282	-0.165	0.013
-214.538	-106.222	0.302	0.067
-213.523	-200.000	0.048	0.255
-212.509	123.049	0.111	0.136
-211.494	534.488	-0.097	-0.226
-210.479	139.120	0.166	0.215
-209.465	-167.406	-0.196	0.008
-208.450	325.697	-0.020	0.037
-207.436	-200.000	0.026	-0.124
-206.421	769.824	-0.105	-0.281
-205.406	-190.342	-0.304	0.003
-204.392	-200.000	0.008	0.081
-203.377	-200.000	0.023	0.301
-202.363	-200.000	-0.001	-0.169
-201.348	10.046	-0.150	-0.112
-200.333	272.321	-0.031	0.053
-199.319	-200.000	-0.021	-0.235
-198.304	113.643	-0.161	-0.193
-197.290	-200.000	0.025	0.293
-196.275	71.449	-0.233	-0.238
-195.260	284.142	-0.102	-0.180
-194.246	-200.000	0.008	-0.121
-193.231	-200.000	-0.003	0.068
-192.217	-176.519	-0.238	-0.006
-191.202	-89.934	0.173	0.050
-190.187	-75.573	0.475	-0.166
-189.173	800.000	-0.040	-0.127
-188.158	740.784	-0.087	-0.230
-187.144	-105.603	0.044	0.010
-186.129	237.911	0.154	0.252
-185.114	800.000	-0.052	-0.209
-184.100	-200.000	-0.014	0.263
-183.085	-113.428	0.311	0.060
-182.071	-200.000	-0.001	-0.140
-181.056	-95.740	-0.272	0.071
-180.042	-66.099	-0.409	-0.160
-179.027	94.383	0.113	-0.127
-178.012	478.159	-0.131	-0.292
-176.998	-98.096	-0.191	-0.048
-175.983	800.000	0.012	0.047
-174.969	9.431	0.147	0.109
-173.954	32.746	0.128	-0.109
-172.939	236.307	0.039	-0.063
-171.925	31.777	-0.116	0.098
-170.910	-130.661	0.123	-0.016
-169.896	-144.700	0.287	0.026
-168.881	-37.807	-0.092	0.048
-167.866	-200.000	0.059	-0.384
-166.852	-140.514	0.237	0.024
-165.837	542.857	-0.110	0.258
-164.823	-194.605	-0.229	-0.002
-163.808	115.764	-0.098	-0.118
-162.793	-200.000	0.021	-0.114
-161.779	19.997	-0.233	-0.185
-160.764	118.374	-0.057	-0.069
-159.750	31.367	-0.081	-0.069
-158.735	-8.840	0.203	0.134
-157.720	-51.734	0.446	-0.204
-156.706	74.854	-0.195	0.201
-155.691	-87.382	0.082	0.024
-154.677	-142.520	0.294	0.028
-153.662	-115.787	-0.400	0.073
-152.647	-200.000	0.019	0.109
-151.633	-200.000	-0.105	0.466
-150.618	353.557	-0.144	0.281
-149.604	8.538	0.142	-0.105
-148.589	755.283	0.106	0.280
-147.574	-189.886	-0.340	0.004
-146.560	59.602	0.258	0.250
-145.545	-131.419	0.283	-0.037
-144.531	-90.132	-0.239	-0.068
-143.516	-141.578	0.164	-0.016
-142.502	140.492	-0.155	0.201
-141.487	151.172	0.189	-0.253
-140.472	-91.013	-0.030	0.008
-139.458	-200.000	-0.012	-0.245
-138.443	-139.266	0.203	0.021
-137.429	247.421	-0.096	-0.159
-136.414	800.000	0.057	0.160
-135.399	800.000	-0.123	-0.353
-134.385	-13.694	0.241	-0.153
-133.370	76.438	0.091	0.095
-132.356	-151.136	0.202	0.015
-131.341	22.667	0.087	-0.070
-130.326	-200.000	-0.013	0.103
-129.312	-40.801	0.297	0.151
-128.297	219.160	-0.036	0.056
-127.283	206.549	0.054	0.083
-126.268	336.312	0.148	0.282
-125.253	208.180	0.206	0.315
-124.239	-9.788	-0.127	-0.083
-123.224	-198.523	0.279	0.002
-122.210	-200.000	0.033	0.195
-121.195	224.453	0.123	0.195
-120.180	2.349	-0.107	0.076
-119.166	521.465	-0.127	-0.292
-118.151	-106.551	-0.023	-0.005
-117.137	-5.668	-0.132	0.089
-116.122	562.621	-0.088	0.209
-115.107	22.869	0.056	-0.045
-114.093	800.000	-0.074	-0.262
-113.078	-56.152	0.254	0.111
-112.064	70.919	0.074	-0.075
-111.049	-73.006	-0.340	-0.122
-110.034	127.812	0.112	0.139
-109.020	589.994	-0.092	-0.221
-108.005	-68.505	0.161	-0.061
-106.991	502.901	-0.123	-0.279
-105.976	797.338	0.074	0.201
-104.962	-62.907	0.208	-0.084
-103.947	43.865	0.215	0.193
-102.932	-161.023	0.154	0.008
-101.918	-48.005	-0.406	-0.192
-100.903	133.582	0.167	0.211
-99.889	-50.855	0.207	-0.095
-98.874	-200.000	-0.002	-0.233
-97.859	-74.377	0.206	0.073
-96.845	-200.000	0.025	-0.136
-95.830	-83.664	-0.353	0.110
-94.816	-68.275	-0.098	0.037
-93.801	-80.523	0.207	0.068
-92.786	-200.000	0.024	0.232
-91.772	190.736	-0.203	-0.298
-90.757	-53.542	0.313	0.140
-89.743	-60.335	-0.263	-0.110
-88.728	24.663	0.037	-0.030
-87.713	47.548	-0.023	-0.021
-86.699	132.584	0.187	-0.237
-85.684	-29.531	-0.132	0.074
-84.670	-108.097	-0.322	-0.068
-83.655	350.166	-0.169	-0.327
-82.640	-200.000	0.016	0.178
-81.626	-200.000	-0.097	0.469
-80.611	-185.221	0.562	0.009
-79.597	-200.000	0.049	-0.307
-78.582	-200.000	-0.031	-0.156
-77.567	800.000	0.145	0.393
-76.553	-200.000	0.009	0.348
-75.538	-200.000	-0.024	0.331
-74.524	147.651	-0.043	-0.057
-73.509	138.908	0.144	-0.185
-72.494	201.777	0.124	-0.187
-71.480	282.165	0.103	0.180
-70.465	119.553	0.068	-0.083
-69.451	-36.673	-0.392	-0.206
-68.436	800.000	0.016	-0.059
-67.422	-35.771	-0.185	-0.098
-66.407	-200.000	0.042	-0.255
-65.392	-6.268	-0.140	0.093
-64.378	-54.651	0.270	-0.119
-63.363	301.136	-0.070	0.127
-62.349	-200.000	-0.041	0.275
-61.334	76.800	-1.158	-1.201
-60.319	91.730	0.625	0.687
-59.305	439.249	-0.504	-1.076
-58.290	150.311	0.938	1.245
-57.276	800.000	0.495	1.576
-56.261	-200.000	116.564	647.834
-55.246	506.080	1540.426	3490.088
-54.232	175.549	2710.506	3841.508
-53.217	105.953	2155.048	2492.984
-52.203	38.203	1588.703	1382.265
-51.188	29.918	1330.890	1108.539
-50.173	26.996	1292.504	1059.502
-49.159	53.560	1350.509	1266.276
-48.144	51.833	1364.206	1268.786
-47.130	30.049	1318.010	1098.413
-46.115	26.622	1300.630	1063.795
-45.100	26.415	1294.944	1057.894
-44.086	26.374	1292.682	1055.761
-43.071	26.417	1289.998	1053.781
-42.057	26.276	1288.490	1051.685
-41.042	26.379	1286.674	1050.763
-40.027	26.347	1284.792	1048.996
-39.013	26.319	1282.917	1047.264
-37.998	26.369	1281.447	1046.311
-36.984	26.399	1279.870	1045.154
-35.969	26.536	1277.501	1043.969
-34.954	26.519	1276.066	1042.656
-33.940	26.450	1275.117	1041.440
-32.925	26.545	1273.299	1040.460
-31.911	26.540	1271.943	1039.287
-30.896	26.671	1270.132	1038.517
-29.881	26.674	1268.963	1037.534
-28.867	26.654	1267.776	1036.409
-27.852	26.627	1265.943	1034.713
-26.838	26.612	1264.785	1033.642
-25.823	26.561	1263.698	1032.423
-24.809	26.607	1261.961	1031.224
-23.794	26.509	1260.981	1029.826
-22.779	26.638	1259.460	1029.276
-21.765	26.572	1258.455	1028.039
-20.750	26.533	1257.541	1027.030
-19.736	26.505	1256.132	1025.678
-18.721	26.515	1254.742	1024.556
-17.706	26.443	1253.930	1023.450
-16.692	26.573	1252.397	1022.890
-15.677	26.398	1251.683	1021.279
-14.663	26.332	1250.713	1020.075
-13.648	26.469	1249.213	1019.582
-12.633	26.386	1248.362	1018.379
-11.619	26.482	1247.138	1017.883
-10.604	26.458	1246.598	1017.262
-9.590	26.515	1245.451	1016.609
-8.575	26.474	1244.419	1015.494
-7.560	26.451	1243.909	1014.913
-6.546	26.548	1243.004	1014.674
-5.531	26.349	1242.360	1012.994
-4.517	26.464	1241.049	1012.529
-3.502	26.514	1240.054	1011.956
-2.487	26.444	1239.537	1011.102
-1.473	26.368	1235.717	1007.521
-0.458	24.981	1220.721	987.617
0.556	21.863	1204.643	951.777
1.571	18.298	1210.921	937.171
2.586	17.442	1225.921	943.953
3.600	17.092	1213.864	932.661
4.615	12.856	1143.428	856.499
5.629	6.187	1072.237	770.518
6.644	3.348	1054.674	744.133
7.659	3.173	1052.662	741.802
8.673	3.138	1051.978	741.085
9.688	3.191	1050.653	740.341
10.702	3.348	1047.907	739.097
11.717	7.177	1053.335	761.291
12.731	14.518	1063.228	803.882
13.746	19.028	1068.732	829.773
14.761	19.566	1069.359	832.780
15.775	18.734	1067.917	827.577
16.790	17.644	1066.375	821.059
17.804	17.123	1064.590	817.104
18.819	16.842	1062.986	814.452
19.834	16.625	1062.389	812.879
20.848	16.454	1061.728	811.482
21.863	16.242	1060.875	809.740
22.877	16.163	1060.364	808.899
23.892	16.151	1059.372	808.014
24.907	16.183	1058.123	807.142
25.921	16.103	1058.033	806.620
26.936	16.133	1056.775	805.732
27.950	16.299	1054.634	804.820
28.965	16.289	1053.440	803.790
29.980	16.364	1052.582	803.420
30.994	16.573	1050.974	803.117
32.009	16.507	1050.245	802.173
33.023	16.468	1049.145	801.079
34.038	16.399	1047.882	799.714
35.053	16.328	1047.376	798.924
36.067	16.396	1046.225	798.296
37.082	16.349	1045.477	797.435
38.096	16.484	1044.668	797.381
39.111	16.443	1043.781	796.443
40.126	16.097	1043.047	794.183
41.140	16.097	1041.404	792.861
42.155	15.865	1040.391	790.930
43.169	15.964	1038.929	790.211
44.184	15.957	1038.317	789.643
45.199	16.010	1036.969	788.798
46.213	16.169	1036.171	788.862
47.228	16.305	1034.982	788.525
48.242	16.221	1034.190	787.459
49.257	16.204	1033.424	786.729
50.271	16.297	1032.461	786.357
51.286	16.287	1031.833	785.761
52.301	16.256	1030.574	784.591
53.315	16.165	1029.821	783.524
54.330	16.179	1028.545	782.550
55.344	16.021	1028.139	781.438
56.359	16.179	1026.911	781.166
57.374	16.060	1025.882	779.766
58.388	16.056	1024.331	778.498
59.403	16.052	1023.956	778.125
60.417	15.934	1023.022	776.803
61.432	15.876	1022.690	776.216
62.447	15.835	1021.917	775.373
63.461	15.926	1020.365	774.544
64.476	15.755	1020.026	773.434
65.490	15.798	1019.267	772.987
66.505	15.857	1018.876	772.890
67.520	15.931	1017.611	772.205
68.534	15.893	1016.708	771.277
69.549	15.711	1016.638	770.319
70.563	15.867	1015.030	769.748
71.578	15.595	1014.201	767.809
72.593	15.692	1013.649	767.763
73.607	15.681	1012.921	767.094
74.622	15.795	1012.362	767.125
75.636	15.882	1011.713	766.961
76.651	15.749	1010.913	765.680
77.666	15.721	1010.103	764.871
78.680	15.781	1009.553	764.662
79.695	15.809	1008.979	764.285
80.709	15.928	1008.452	764.360
81.724	16.027	1008.001	764.398
82.739	15.992	1007.450	763.756
83.753	16.254	1006.210	763.932
84.768	16.433	1005.574	764.193
85.782	16.455	1005.272	763.993
86.797	16.479	1004.008	763.075
87.812	16.224	1003.121	761.181
88.826	16.305	1002.119	760.722
89.841	16.398	1001.537	760.631
90.855	16.502	1000.391	760.159
91.870	16.515	999.625	759.566
92.884	16.352	998.742	758.097
93.899	16.511	997.650	757.914
94.914	16.635	996.853	757.797
95.928	16.579	996.190	756.978
96.943	16.560	995.164	756.045
97.957	16.376	994.851	754.918
98.972	16.408	993.460	753.937
99.987	16.409	992.739	753.329
101.001	16.508	991.905	753.071
102.016	16.296	991.573	751.810
103.030	16.504	990.373	751.755
104.045	16.496	989.216	750.777
105.060	16.297	988.511	749.291
106.074	16.114	987.535	747.673
107.089	16.000	986.179	746.079
108.103	16.021	985.261	745.409
109.118	15.968	984.438	744.488
110.133	15.776	983.791	743.082
111.147	15.980	982.321	742.806
112.162	16.011	982.291	742.854
113.176	16.181	981.254	742.754
114.191	16.005	980.589	741.411
115.206	16.200	979.929	741.705
116.220	15.999	979.084	740.114
117.235	16.155	977.774	739.744
118.249	15.983	977.327	738.584
119.264	16.022	976.511	738.077
120.279	15.994	975.619	737.211
121.293	15.908	974.782	736.140
122.308	15.994	973.647	735.591
123.322	15.804	972.596	733.906
124.337	15.866	971.420	733.222
125.352	15.763	970.897	732.315
126.366	15.703	969.990	731.303
127.381	15.835	968.647	730.802
128.395	15.913	967.682	730.348
129.410	15.854	966.984	729.497
130.424	16.013	965.973	729.361
131.439	16.130	965.511	729.454
132.454	16.035	964.672	728.343
133.468	16.058	964.186	728.011
134.483	16.121	963.212	727.484
135.497	16.184	962.227	726.948
136.512	16.117	961.290	725.888
137.527	16.091	960.634	725.215
138.541	16.005	960.400	724.603
139.556	16.085	959.572	724.261
140.570	16.313	958.733	724.539
141.585	16.380	958.325	724.457
142.600	16.369	957.348	723.606
143.614	16.442	956.732	723.389
144.629	16.463	956.085	722.926
145.643	16.489	954.533	721.797
146.658	16.297	953.708	720.293
147.673	16.148	952.505	718.685
148.687	16.358	951.557	718.798
149.702	16.287	950.748	717.821
150.716	16.193	949.907	716.724
151.731	16.091	949.864	716.195
152.746	16.167	948.995	715.802
153.760	16.362	948.565	716.238
154.775	16.368	948.077	715.833
155.789	16.361	947.454	715.270
156.804	16.386	946.513	714.600
157.819	16.621	945.314	714.628
158.833	16.649	945.134	714.545
159.848	16.706	944.397	714.163
160.862	16.457	943.158	712.118
161.877	16.325	942.333	710.872
162.892	16.272	941.181	709.720
163.906	16.157	940.125	708.378
164.921	16.190	939.408	707.912
165.935	16.283	938.411	707.487
166.950	16.419	937.517	707.323
167.964	16.433	936.676	706.684
168.979	16.261	936.285	705.606
169.994	16.336	935.002	704.891
171.008	16.400	934.397	704.637
172.023	16.653	933.451	704.915
173.037	16.599	933.003	704.290
174.052	16.520	932.523	703.536
175.067	16.388	931.475	702.136
176.081	16.227	931.291	701.267
177.096	16.317	930.444	700.942
178.110	16.434	929.638	700.756
179.125	16.398	929.077	700.123
180.140	16.406	928.725	699.827
181.154	16.544	928.203	699.942
182.169	16.718	927.553	700.112
183.183	16.715	927.380	699.905
184.198	16.672	926.575	699.061
185.213	16.386	926.223	697.553
186.227	16.735	924.988	697.997
187.242	16.759	924.898	697.966
188.256	16.838	924.172	697.681
189.271	16.710	923.531	696.611
190.286	16.511	922.416	694.892
191.300	16.289	921.667	693.354
192.315	16.309	921.018	692.884
193.329	16.343	920.277	692.405
194.344	16.453	919.534	692.238
195.359	16.546	918.996	692.152
196.373	16.684	918.547	692.315
197.388	16.676	917.934	691.761
198.402	16.867	917.475	692.133
199.417	16.970	916.908	692.063
200.432	17.081	916.453	692.112
201.446	17.167	916.603	692.516
202.461	17.159	915.508	691.595
203.475	17.171	914.844	691.078
204.490	16.936	913.945	689.386
205.504	16.927	913.398	688.873
206.519	16.860	912.463	687.836
207.534	16.713	912.092	686.901
208.548	16.865	911.096	686.703
209.563	16.938	910.496	686.486
210.577	16.891	910.036	685.889
211.592	17.031	909.430	685.940
212.607	17.192	908.782	686.038
213.621	17.142	907.651	684.921
214.636	17.095	907.221	684.347
215.650	16.943	906.921	683.449
216.665	17.213	905.928	683.727
217.680	17.231	905.400	683.342
218.694	17.226	905.006	682.960
219.709	17.093	904.294	681.831
220.723	17.181	903.386	681.439
221.738	17.167	902.766	680.852
222.753	17.207	902.134	680.475
223.767	17.313	901.351	680.251
224.782	17.349	901.081	680.129
225.796	17.402	900.497	679.842
226.811	17.300	899.779	678.833
227.826	17.229	898.863	677.797
228.840	17.183	898.359	677.176
229.855	17.179	897.607	676.533
230.869	17.166	896.635	675.685
231.884	17.249	895.757	675.294
232.899	17.025	895.433	674.103
233.913	17.001	894.487	673.234
234.928	17.007	894.152	672.946
235.942	16.940	893.831	672.381
236.957	17.085	892.914	672.206
237.972	17.081	892.236	671.621
238.986	17.121	891.351	671.051
240.001	16.997	891.532	670.637
241.015	16.974	890.803	669.938
242.030	17.161	889.941	669.969
243.045	17.226	889.331	669.709
244.059	17.250	888.722	669.284
245.074	17.207	888.490	668.883
246.088	17.386	887.495	668.775
247.103	17.532	886.810	668.774
248.117	17.398	887.184	668.473
249.132	17.878	886.191	669.547
250.147	17.822	885.965	669.098
251.161	17.901	884.961	668.591
252.176	17.895	884.333	668.033
253.190	17.889	883.636	667.423
254.205	17.976	883.199	667.376
255.220	17.930	882.570	666.662
256.234	17.803	881.878	665.583
257.249	17.851	881.178	665.185
258.263	17.940	880.214	664.743
259.278	17.919	880.029	664.464
260.293	18.026	879.096	664.117
261.307	18.155	878.357	663.998
262.322	18.159	878.035	663.711
263.336	18.110	877.339	662.937
264.351	18.031	876.772	662.145
265.366	18.011	876.399	661.726
266.380	18.217	875.222	661.576
267.395	18.046	874.505	660.316
268.409	17.924	874.020	659.421
269.424	17.991	872.928	658.794
270.439	17.935	872.508	658.203
271.453	17.980	871.832	657.810
272.468	17.891	870.793	656.625
273.482	17.925	870.593	656.547
274.497	17.897	869.905	655.861
275.512	17.958	869.660	655.855
276.526	18.046	869.086	655.701
277.541	18.088	868.513	655.372
278.555	18.205	868.121	655.465
279.570	18.359	867.708	655.687
280.585	18.250	866.388	654.215
281.599	18.167	865.832	653.420
282.614	18.059	865.322	652.562
283.628	18.106	864.514	652.075
284.643	18.182	863.986	651.909
285.657	18.056	863.471	650.982
286.672	18.110	862.849	650.662
287.687	18.181	862.449	650.575
288.701	18.086	861.857	649.709
289.716	18.119	861.271	649.333
290.730	18.224	860.610	649.175
291.745	18.159	859.893	648.330
292.760	18.346	859.261	648.508
293.774	18.533	858.711	648.741
294.789	18.484	857.689	647.728
295.803	18.191	857.599	646.495
296.818	18.197	856.834	645.882
297.833	18.279	855.869	645.408
298.847	18.335	855.476	645.266
299.862	18.389	854.842	644.935
300.876	18.331	854.776	644.608
301.891	18.422	854.198	644.460
302.906	18.479	853.908	644.397
303.920	18.553	853.397	644.233
304.935	18.861	852.148	644.388
305.949	18.542	851.943	642.980
306.964	18.502	851.292	642.282
307.979	18.685	850.357	642.205
308.993	18.694	850.123	642.004
310.008	18.616	849.661	641.307
311.022	18.790	848.614	641.107
312.037	18.485	848.188	639.590
313.052	18.459	847.325	638.789
314.066	18.304	847.130	638.006
315.081	18.441	846.293	637.831
316.095	18.311	845.904	636.997
317.110	18.320	845.160	636.415
318.125	18.409	844.524	636.208
319.139	18.342	844.342	635.768
320.154	18.419	843.967	635.715
321.168	18.509	843.615	635.725
322.183	18.588	842.621	635.212
323.197	18.394	842.892	634.642
324.212	18.544	841.760	634.289
325.227	18.572	841.181	633.902
326.241	18.483	840.412	632.935
327.256	18.415	840.167	632.446
328.270	18.545	839.327	632.235
329.285	18.526	838.704	631.640
330.300	18.522	837.947	631.002
331.314	18.529	837.630	630.731
332.329	18.679	837.610	631.213
333.343	18.701	836.847	630.661
334.358	18.698	836.314	630.195
335.373	18.748	835.935	630.037
336.387	18.728	836.079	630.016
337.402	18.883	835.619	630.182
338.416	19.016	835.489	630.514
339.431	18.976	835.200	630.092
340.446	19.028	834.514	629.710
341.460	19.007	834.184	629.331
342.475	19.107	834.321	629.742
343.489	19.119	833.779	629.322
344.504	19.195	832.914	628.889
345.519	19.203	832.286	628.390
346.533	19.236	831.745	628.047
347.548	19.169	831.223	627.353
348.562	18.941	830.956	626.264
349.577	18.854	829.908	625.104
350.592	19.009	829.098	625.000
351.606	18.832	828.637	623.955
352.621	18.957	827.607	623.577
353.635	18.888	827.015	622.826
354.650	18.929	826.800	622.757
355.665	19.078	826.187	622.782
356.679	19.025	825.864	622.292
357.694	19.116	824.966	621.887
358.708	19.063	824.335	621.168
359.723	19.141	823.836	621.015
360.738	19.100	823.125	620.277
361.752	19.265	822.637	620.450
362.767	19.333	822.129	620.255
363.781	19.386	821.677	620.052
364.796	19.512	821.501	620.315
365.810	19.599	820.815	620.056
366.825	19.582	820.573	619.755
367.840	19.473	819.936	618.828
368.854	19.419	819.353	618.140
369.869	19.491	818.867	617.978
370.883	19.631	818.257	617.962
371.898	19.512	818.286	617.506
372.913	19.549	818.369	617.647
373.927	19.476	817.297	616.522
374.942	19.774	816.264	616.751
375.956	19.646	816.502	616.417
376.971	19.713	816.069	616.275
377.986	19.752	815.693	616.076
379.000	19.654	815.238	615.332
380.015	19.677	814.674	614.930
381.029	19.649	814.403	614.574
382.044	19.820	813.390	614.360
383.059	19.829	812.964	614.018
384.073	19.672	812.531	613.078
385.088	19.674	811.422	612.195
386.102	19.583	811.143	611.607
387.117	19.567	810.449	610.973
388.132	19.607	810.070	610.775
389.146	19.698	809.266	610.436
390.161	19.758	809.294	610.617
391.175	19.823	808.500	610.192
392.190	19.693	808.100	609.378
393.205	19.651	807.550	608.761
394.219	19.611	807.589	608.596
395.234	19.502	807.058	607.758
396.248	19.507	806.489	607.293
397.263	19.468	805.754	606.549
398.278	19.397	805.829	606.303
399.292	19.599	804.785	606.170
400.307	19.524	804.189	605.408
401.321	19.475	804.044	605.073
402.336	19.572	803.879	605.233
403.350	19.849	803.154	605.605
404.365	19.701	803.114	605.003
405.380	19.836	802.675	605.090
406.394	19.963	801.933	604.921
407.409	20.037	801.638	604.905
408.423	19.951	801.581	604.508
409.438	19.923	801.268	604.119
410.453	20.114	800.999	604.531
411.467	20.153	800.265	604.060
412.482	20.144	799.815	603.633
413.496	20.325	799.409	603.902
414.511	20.351	798.845	603.515
415.526	20.205	798.689	602.836
416.540	20.129	797.965	601.972
417.555	20.262	797.606	602.110
418.569	20.302	797.222	601.905
419.584	20.275	796.570	601.268
420.599	20.228	796.502	601.000
421.613	162.140	1371.881	1796.574
422.628	140.656	1455.709	1796.642
