DTS Sentinel unit serial number:	SN413079Multiplexer serial number:	ORYXHardware model number:	OX4-SRSoftware version number:	ORYX F/W v4.00 Oryx Data Collector v3.7.2.0data status	okinstallation	princeton_trtdifferential loss correction	single-endedforward channel	channel 1reverse channel	N/Adate	2019/09/18time	11:34:35forward acquisition time	60.00reverse acquisition time	0.00gamma	496.2192k internal	0.2325k external	0.2325temperature offset calibration	0.9978default loss term (dB/km)	0.3790temperature slope calibration	1.0000multiplexer offset coefficient	1.0000multiplexer slope coefficient	1.0000fibre end	0.00T internal ref (°C)	30.62T ext. ref 1 (°C)	0.45T ext. ref 2 (°C)	28.07length (m)	temperature (°C)	Stokes	anti-Stokes-747.200	-73.648	-0.186	0.068
-746.185	-35.950	0.137	-0.075
-745.171	-149.095	0.103	-0.008
-744.156	216.372	-0.068	0.109
-743.142	214.799	-0.094	0.150
-742.127	116.819	-0.215	0.267
-741.112	-200.000	-0.035	-0.000
-740.098	800.000	-0.093	0.286
-739.083	-200.000	0.025	-0.165
-738.069	128.850	0.264	0.340
-737.054	-6.114	0.053	0.037
-736.039	800.000	0.033	0.123
-735.025	211.034	0.065	-0.103
-734.010	-200.000	-0.005	0.083
-732.996	-43.469	0.331	0.169
-731.981	277.915	-0.128	-0.230
-730.966	107.385	-0.396	0.475
-729.952	800.000	0.076	0.336
-728.937	-69.081	-0.266	0.103
-727.923	-200.000	0.052	0.334
-726.908	10.807	-0.378	-0.291
-725.894	800.000	-0.066	-0.221
-724.879	-140.160	0.153	-0.016
-723.864	-122.679	-0.304	-0.050
-722.850	-200.000	0.066	0.397
-721.835	86.989	-0.139	-0.155
-720.821	-46.409	-0.143	-0.071
-719.806	265.478	0.162	0.285
-718.791	800.000	0.095	0.321
-717.777	-142.873	-0.300	0.029
-716.762	800.000	0.039	0.131
-715.748	0.537	0.196	-0.141
-714.733	-200.000	-0.237	0.001
-713.718	-92.759	0.234	0.066
-712.704	-36.287	-0.258	-0.140
-711.689	697.092	-0.025	0.065
-710.675	-20.105	-0.330	0.205
-709.660	-200.000	0.046	0.213
-708.645	-189.386	0.278	-0.003
-707.631	43.358	0.252	0.232
-706.616	-200.000	0.013	0.245
-705.602	-200.000	0.017	-0.088
-704.587	-79.050	-0.101	-0.035
-703.572	800.000	-0.105	-0.421
-702.558	101.437	-0.013	-0.015
-701.543	96.070	-0.061	0.070
-700.529	-200.000	0.038	-0.251
-699.514	-166.690	-0.212	-0.009
-698.499	-200.000	0.006	-0.296
-697.485	-36.878	0.173	0.093
-696.470	95.066	0.315	-0.361
-695.456	549.713	0.024	0.058
-694.441	-86.436	-0.268	0.083
-693.426	26.093	0.234	-0.196
-692.412	-56.296	-0.214	0.096
-691.397	-147.744	0.063	-0.005
-690.383	137.288	-0.216	-0.285
-689.368	800.000	0.115	-0.324
-688.354	257.717	-0.077	0.133
-687.339	12.453	0.080	-0.062
-686.324	-117.407	0.515	-0.094
-685.310	328.840	-0.107	-0.207
-684.295	-80.735	-0.457	0.153
-683.281	64.010	0.158	0.160
-682.266	800.000	0.019	0.056
-681.251	36.329	-0.128	0.113
-680.237	390.254	-0.092	-0.191
-679.222	-200.000	-0.005	-0.037
-678.208	710.291	-0.039	0.103
-677.193	202.331	0.238	0.370
-676.178	21.837	-0.160	0.131
-675.164	40.318	-0.212	-0.192
-674.149	18.096	0.116	-0.093
-673.135	800.000	0.052	-0.171
-672.120	-200.000	-0.003	0.054
-671.105	-119.124	-0.164	-0.029
-670.091	91.882	-0.174	-0.197
-669.076	55.254	0.077	0.075
-668.062	-200.000	0.061	0.319
-667.047	-63.151	0.180	0.075
-666.032	421.655	-0.058	0.125
-665.018	126.797	0.165	-0.210
-664.003	-200.000	-0.041	-0.580
-662.989	277.296	0.056	-0.100
-661.974	12.340	0.173	0.134
-660.959	-123.009	0.072	0.012
-659.945	-200.000	0.002	0.470
-658.930	-69.410	-0.100	0.039
-657.916	233.656	-0.074	0.123
-656.901	41.879	-0.066	-0.060
-655.886	-111.670	0.267	-0.054
-654.872	-17.676	-0.230	0.145
-653.857	-200.000	0.014	0.143
-652.843	204.416	0.073	0.114
-651.828	-90.791	0.117	-0.034
-650.814	106.661	0.216	0.258
-649.799	-200.000	0.029	0.192
-648.784	626.311	0.109	-0.278
-647.770	35.819	-0.054	-0.048
-646.755	800.000	-0.040	-0.129
-645.741	80.113	0.205	-0.222
-644.726	337.648	-0.046	-0.091
-643.711	-53.184	0.176	0.081
-642.697	30.078	-0.063	-0.054
-641.682	-200.000	-0.029	-0.133
-640.668	60.553	-0.089	0.089
-639.653	232.255	-0.169	-0.278
-638.638	-156.985	-0.166	-0.010
-637.624	586.701	0.124	0.305
-636.609	-173.327	0.226	0.007
-635.595	525.116	-0.123	-0.291
-634.580	-162.482	-0.432	-0.021
-633.565	63.638	-0.024	-0.024
-632.551	-200.000	0.017	0.095
-631.536	-200.000	-0.015	0.468
-630.522	473.752	-0.090	0.203
-629.507	305.929	-0.092	0.171
-628.492	198.210	0.088	0.135
-627.478	258.564	-0.139	-0.240
-626.463	-200.000	0.019	0.276
-625.449	-118.678	-0.153	-0.027
-624.434	-190.434	-0.265	-0.003
-623.419	398.654	0.086	0.182
-622.405	16.490	0.122	-0.096
-621.390	800.000	0.030	-0.096
-620.376	800.000	-0.082	-0.288
-619.361	-132.720	-0.198	-0.025
-618.346	49.375	0.086	-0.081
-617.332	369.324	-0.073	0.148
-616.317	-140.102	0.099	-0.010
-615.303	206.747	0.039	0.062
-614.288	-67.702	0.074	0.029
-613.273	800.000	-0.083	0.274
-612.259	121.575	0.256	0.320
-611.244	-19.918	-0.193	-0.120
-610.230	409.561	0.022	0.046
-609.215	221.652	-0.191	-0.309
-608.201	20.259	0.187	-0.151
-607.186	202.411	-0.085	0.132
-606.171	-34.065	-0.060	-0.033
-605.157	-178.710	0.266	-0.006
-604.142	36.866	-0.080	-0.071
-603.128	800.000	-0.030	-0.128
-602.113	206.293	-0.188	-0.293
-601.098	677.626	-0.049	0.128
-600.084	-200.000	0.043	0.216
-599.069	90.929	0.157	-0.176
-598.055	-200.000	-0.010	-0.227
-597.040	-162.504	-0.237	-0.012
-596.025	63.408	-0.100	-0.100
-595.011	46.918	-0.217	0.203
-593.996	-200.000	-0.032	0.347
-592.982	-96.881	0.184	0.048
-591.967	5.678	-0.189	-0.140
-590.952	-99.429	-0.249	0.063
-589.938	-200.000	0.010	-0.426
-588.923	-119.376	-0.238	-0.041
-587.909	-2.282	0.064	-0.045
-586.894	800.000	-0.067	-0.229
-585.879	266.238	-0.182	-0.319
-584.865	-111.703	-0.195	0.040
-583.850	146.382	0.094	0.127
-582.836	20.446	0.184	0.149
-581.821	-187.924	-0.417	0.005
-580.806	433.252	-0.081	0.176
-579.792	18.145	0.211	-0.169
-578.777	61.385	-0.068	-0.068
-577.763	-200.000	0.014	-0.068
-576.748	33.245	-0.284	0.247
-575.733	198.565	0.152	-0.234
-574.719	800.000	-0.123	-0.435
-573.704	93.304	-0.307	0.348
-572.690	-114.742	0.276	-0.053
-571.675	-7.267	0.309	-0.210
-570.661	-106.196	-0.222	0.050
-569.646	67.965	0.071	-0.072
-568.631	-200.000	-0.036	0.404
-567.617	-166.182	-0.152	0.006
-566.602	132.336	0.065	0.084
-565.588	-200.000	0.001	0.079
-564.573	-188.798	-0.169	0.002
-563.558	-1.545	0.212	0.150
-562.544	-96.590	-0.257	-0.068
-561.529	-192.868	-0.238	0.002
-560.515	198.017	-0.137	-0.210
-559.500	-200.000	0.002	0.177
-558.485	499.852	0.072	0.166
-557.471	-61.945	0.154	-0.065
-556.456	-48.145	-0.084	-0.041
-555.442	-200.000	-0.081	-0.367
-554.427	113.834	-0.299	-0.364
-553.412	5.393	-0.317	-0.234
-552.398	-153.821	0.314	0.022
-551.383	198.482	-0.220	0.337
-550.369	-200.000	0.033	-0.283
-549.354	-97.957	0.178	0.046
-548.339	-200.000	0.037	-0.264
-547.325	-82.039	-0.247	0.081
-546.310	412.551	0.090	0.192
-545.296	-200.000	-0.049	0.317
-544.281	800.000	-0.028	-0.101
-543.266	-111.343	-0.238	0.049
-542.252	8.158	-0.377	0.283
-541.237	-94.611	0.273	-0.074
-540.223	-200.000	0.022	0.280
-539.208	-13.058	-0.300	-0.195
-538.193	44.084	-0.138	-0.127
-537.179	-142.232	-0.221	0.022
-536.164	-131.629	-0.110	-0.014
-535.150	-200.000	0.006	-0.156
-534.135	-122.991	0.268	0.043
-533.121	-200.000	0.001	0.231
-532.106	147.032	0.078	0.104
-531.091	171.157	0.228	0.327
-530.077	-200.000	-0.015	-0.114
-529.062	184.857	-0.122	0.182
-528.048	-180.746	0.320	0.007
-527.033	89.721	-0.204	0.228
-526.018	68.118	0.140	0.144
-525.004	800.000	-0.058	0.169
-523.989	311.277	0.091	-0.171
-522.975	76.732	-0.056	-0.060
-521.960	-5.548	-0.227	-0.155
-520.945	-5.341	0.349	0.240
-519.931	461.835	0.031	0.069
-518.916	-94.075	-0.278	-0.076
-517.902	327.518	-0.102	-0.196
-516.887	-94.281	-0.264	-0.072
-515.872	-73.605	0.057	-0.021
-514.858	-19.964	-0.264	-0.163
-513.843	-66.785	-0.201	0.079
-512.829	290.624	0.199	-0.362
-511.814	-200.000	0.042	-0.295
-510.799	147.692	-0.204	0.275
-509.785	430.710	-0.064	0.138
-508.770	-200.000	-0.102	-0.548
-507.756	487.909	-0.073	0.167
-506.741	-122.363	0.249	-0.041
-505.726	165.837	-0.104	-0.147
-504.712	630.256	-0.083	-0.211
-503.697	-54.616	0.233	-0.105
-502.683	240.972	-0.127	-0.212
-501.668	-200.000	-0.037	-0.183
-500.653	-69.593	-0.145	-0.056
-499.639	587.537	-0.112	0.276
-498.624	-116.650	0.264	-0.049
-497.610	800.000	-0.079	-0.237
-496.595	-200.000	-0.029	0.455
-495.581	800.000	-0.037	0.117
-494.566	800.000	-0.107	0.309
-493.551	-86.392	0.204	-0.063
-492.537	-59.599	-0.147	-0.063
-491.522	363.026	-0.129	0.258
-490.508	-143.096	0.223	-0.021
-489.493	407.142	-0.032	0.067
-488.478	754.117	0.100	0.269
-487.464	-50.743	-0.088	-0.041
-486.449	-200.000	-0.005	-0.270
-485.435	0.135	0.087	-0.062
-484.420	-7.195	0.076	-0.051
-483.405	-60.859	-0.033	0.014
-482.391	523.917	-0.054	-0.126
-481.376	20.842	0.213	-0.173
-480.362	-200.000	-0.006	0.281
-479.347	-125.424	-0.165	0.025
-478.332	-200.000	0.020	0.336
-477.318	-126.143	0.409	0.061
-476.303	485.192	-0.076	0.172
-475.289	362.552	0.053	-0.105
-474.274	206.033	0.201	-0.312
-473.259	-96.253	0.232	0.062
-472.245	-111.309	-0.342	-0.070
-471.230	-117.318	-0.223	0.040
-470.216	-115.835	-0.051	0.009
-469.201	451.540	0.028	-0.061
-468.186	-53.828	0.293	0.133
-467.172	800.000	-0.095	-0.295
-466.157	-131.595	0.148	-0.019
-465.143	-111.430	0.341	-0.069
-464.128	-200.000	0.021	0.244
-463.113	133.148	0.030	0.038
-462.099	595.546	0.122	-0.300
-461.084	-164.345	0.397	-0.018
-460.070	-118.714	0.206	0.036
-459.055	-52.038	0.053	-0.025
-458.040	-113.733	-0.042	0.008
-457.026	-134.026	-0.210	-0.026
-456.011	443.578	-0.119	-0.260
-454.997	-200.000	-0.012	-0.089
-453.982	-89.149	-0.388	-0.114
-452.968	180.414	0.181	-0.265
-451.953	-88.636	-0.224	-0.067
-450.938	113.197	-0.141	-0.171
-449.924	26.161	0.215	0.179
-448.909	42.280	-0.201	0.182
-447.895	-42.378	0.138	0.070
-446.880	800.000	0.029	0.124
-445.865	-200.000	-0.011	-0.098
-444.851	163.000	0.188	-0.263
-443.836	254.183	-0.058	-0.098
-442.822	178.549	-0.160	-0.233
-441.807	-113.382	0.117	-0.023
-440.792	-200.000	0.109	-0.505
-439.778	-200.000	-0.034	-0.428
-438.763	-200.000	-0.027	-0.159
-437.749	94.504	-0.054	-0.061
-436.734	37.265	-0.383	-0.339
-435.719	80.928	0.254	0.273
-434.705	-200.000	0.073	0.401
-433.690	-17.931	0.137	0.086
-432.676	244.149	-0.159	0.267
-431.661	-125.126	0.080	-0.012
-430.646	-39.742	0.155	-0.081
-429.632	-116.474	-0.397	0.073
-428.617	-194.756	-0.114	0.001
-427.603	-66.705	0.115	-0.046
-426.588	800.000	-0.050	-0.205
-425.573	105.210	0.153	-0.179
-424.559	-54.331	0.124	-0.056
-423.544	358.419	-0.019	-0.038
-422.530	76.796	-0.068	-0.072
-421.515	154.124	-0.064	0.088
-420.500	-107.211	0.213	-0.047
-419.486	-200.000	0.002	0.335
-418.471	85.390	-0.308	0.337
-417.457	800.000	0.116	0.322
-416.442	-37.451	0.309	0.165
-415.428	800.000	-0.089	-0.251
-414.413	-56.420	0.329	0.145
-413.398	-200.000	-0.008	-0.405
-412.384	-67.203	0.375	-0.147
-411.369	503.833	-0.174	0.400
-410.355	-128.062	-0.184	-0.026
-409.340	83.400	-0.186	-0.202
-408.325	-118.008	0.310	-0.055
-407.311	800.000	0.042	-0.175
-406.296	-106.668	-0.061	0.014
-405.282	-20.129	-0.100	0.062
-404.267	-29.433	0.074	-0.042
-403.252	-73.751	0.235	0.085
-402.238	70.674	0.102	-0.106
-401.223	-43.035	-0.456	-0.230
-400.209	128.233	-0.195	0.247
-399.194	280.754	0.177	0.314
-398.179	-163.043	0.287	0.014
-397.165	-200.000	-0.035	0.283
-396.150	-200.000	0.043	0.209
-395.136	466.097	0.049	0.109
-394.121	-157.321	-0.178	-0.011
-393.106	-109.086	0.118	0.025
-392.092	20.170	-0.086	0.069
-391.077	-200.000	-0.109	0.480
-390.063	-200.000	0.057	0.250
-389.048	244.884	-0.191	-0.319
-388.033	378.272	0.065	0.132
-387.019	-200.000	-0.031	0.231
-386.004	-30.401	-0.101	0.057
-384.990	-125.852	-0.138	-0.021
-383.975	-102.841	0.114	-0.027
-382.960	4.448	-0.178	-0.130
-381.946	305.573	-0.022	-0.041
-380.931	-93.879	0.474	0.130
-379.917	-66.842	-0.175	0.069
-378.902	98.371	0.046	0.052
-377.888	-108.310	0.309	-0.066
-376.873	85.827	0.395	0.432
-375.858	-140.111	0.307	0.032
-374.844	-200.000	-0.016	-0.477
-373.829	713.259	0.101	-0.266
-372.815	737.280	-0.071	-0.188
-371.800	265.616	0.168	0.291
-370.785	-192.034	-0.349	0.003
-369.771	482.186	0.019	-0.043
-368.756	-80.078	-0.118	-0.039
-367.742	443.634	0.137	0.298
-366.727	-66.539	-0.255	-0.100
-365.712	-200.000	0.024	0.245
-364.698	-83.555	-0.183	-0.058
-363.683	-39.316	-0.121	0.063
-362.669	-200.000	-0.049	0.336
-361.654	-37.186	-0.186	-0.099
-360.639	-200.000	-0.059	0.308
-359.625	26.377	0.069	-0.057
-358.610	800.000	0.135	-0.473
-357.596	4.759	-0.231	-0.168
-356.581	-200.000	0.015	-0.196
-355.566	87.296	0.114	-0.125
-354.552	-153.329	0.388	0.027
-353.537	-8.742	-0.307	-0.205
-352.523	49.487	-0.114	-0.107
-351.508	0.471	0.092	0.065
-350.493	250.881	-0.028	0.048
-349.479	711.338	-0.076	-0.200
-348.464	40.283	0.074	-0.066
-347.450	7.407	0.091	-0.067
-346.435	137.102	0.065	-0.085
-345.420	-200.000	0.015	0.125
-344.406	-200.000	-0.012	0.135
-343.391	163.622	0.111	0.156
-342.377	-16.119	-0.353	-0.223
-341.362	-46.961	0.156	-0.076
-340.348	257.767	-0.216	-0.368
-339.333	51.389	-0.064	-0.061
-338.318	-132.543	0.144	-0.018
-337.304	12.041	-0.377	0.288
-336.289	800.000	0.065	0.219
-335.275	-56.767	0.222	-0.098
-334.260	800.000	-0.059	-0.169
-333.245	377.679	-0.104	0.211
-332.231	318.981	-0.064	-0.121
-331.216	650.534	-0.099	0.251
-330.202	-200.000	-0.063	-0.293
-329.187	800.000	-0.029	0.115
-328.172	186.887	0.179	-0.265
-327.158	-200.000	0.023	0.155
-326.143	-158.952	-0.049	0.003
-325.129	480.274	-0.090	0.202
-324.114	84.107	0.249	0.270
-323.099	800.000	-0.079	-0.315
-322.085	17.284	0.311	-0.245
-321.070	229.352	-0.147	-0.238
-320.056	-51.733	0.344	0.159
-319.041	33.671	0.266	0.229
-318.026	-200.000	-0.051	-0.558
-317.012	-16.258	0.082	0.052
-315.997	800.000	0.072	-0.284
-314.983	67.586	0.108	0.110
-313.968	174.622	0.050	-0.072
-312.953	127.004	-0.081	-0.102
-311.939	-0.718	-0.250	-0.176
-310.924	263.948	-0.259	0.447
-309.910	-60.511	-0.114	-0.048
-308.895	-29.322	0.207	-0.117
-307.880	-122.843	0.347	0.056
-306.866	190.777	0.108	-0.161
-305.851	-63.502	0.268	-0.109
-304.837	-200.000	-0.062	-0.294
-303.822	-200.000	0.008	0.090
-302.807	210.532	-0.190	0.296
-301.793	-200.000	0.018	0.192
-300.778	187.817	0.226	0.335
-299.764	-84.032	-0.059	0.019
-298.749	371.570	0.030	-0.060
-297.735	-41.407	0.032	0.016
-296.720	632.535	0.120	-0.302
-295.705	-200.000	-0.020	0.094
-294.691	582.643	-0.102	-0.249
-293.676	292.022	0.128	-0.231
-292.662	-72.837	0.129	-0.047
-291.647	26.500	-0.116	0.096
-290.632	-54.710	-0.289	-0.129
-289.618	38.778	0.147	0.130
-288.603	493.607	0.077	-0.175
-287.589	800.000	-0.043	-0.124
-286.574	-200.000	0.012	-0.177
-285.559	-11.369	0.203	-0.132
-284.545	-106.267	-0.389	-0.086
-283.530	-200.000	0.027	0.177
-282.516	-131.886	-0.141	-0.018
-281.501	-114.920	0.314	0.059
-280.486	-66.643	-0.158	-0.062
-279.472	-104.356	-0.295	-0.068
-278.457	18.214	0.107	-0.084
-277.443	-148.881	0.097	-0.008
-276.428	-145.095	-0.361	0.033
-275.413	800.000	0.049	0.154
-274.399	-19.773	-0.102	-0.063
-273.384	-132.324	-0.201	-0.026
-272.370	-200.000	-0.011	-0.286
-271.355	157.500	0.116	0.159
-270.340	-63.992	-0.064	-0.026
-269.326	186.763	0.211	-0.312
-268.311	-200.000	-0.056	-0.316
-267.297	-67.948	0.211	0.081
-266.282	-17.906	0.101	0.062
-265.267	-200.000	0.049	0.286
-264.253	-58.801	0.327	-0.140
-263.238	-200.000	0.050	0.271
-262.224	-103.906	0.361	-0.084
-261.209	76.673	-0.199	-0.209
-260.195	-188.926	0.297	0.004
-259.180	800.000	0.086	-0.266
-258.165	470.067	0.092	-0.204
-257.151	-200.000	0.023	-0.215
-256.136	-108.109	0.248	-0.053
-255.122	236.259	-0.016	-0.026
-254.107	363.630	-0.076	0.150
-253.092	-89.110	-0.092	-0.027
-252.078	-71.200	0.221	0.082
-251.063	-94.372	0.218	0.059
-250.049	1.972	0.147	-0.105
-249.034	800.000	-0.040	-0.160
-248.019	173.714	0.136	0.194
-247.005	269.360	0.194	-0.337
-245.990	166.177	-0.177	-0.247
-244.976	35.556	-0.207	0.180
-243.961	19.334	0.213	0.169
-242.946	-3.616	0.137	-0.094
-241.932	612.518	0.046	-0.115
-240.917	632.348	-0.066	0.165
-239.903	-36.246	-0.401	-0.214
-238.888	799.921	-0.028	-0.076
-237.873	-200.000	0.021	-0.290
-236.859	178.292	-0.035	0.050
-235.844	-89.668	0.156	0.045
-234.830	-200.000	-0.006	0.167
-233.815	62.164	0.235	0.232
-232.800	95.492	0.095	0.108
-231.786	-5.408	-0.160	-0.109
-230.771	800.000	-0.088	0.244
-229.757	-200.000	0.012	-0.127
-228.742	186.104	0.176	0.258
-227.727	-53.290	-0.265	0.120
-226.713	507.436	0.118	0.271
-225.698	645.987	0.122	0.307
-224.684	-200.000	0.050	0.226
-223.669	-147.321	0.069	-0.006
-222.655	199.132	-0.202	-0.306
-221.640	-200.000	0.004	-0.448
-220.625	-141.380	-0.081	-0.008
-219.611	-57.098	0.289	0.126
-218.596	-200.000	0.008	0.131
-217.582	-27.154	0.194	0.112
-216.567	-10.157	0.127	0.083
-215.552	-152.806	-0.108	0.008
-214.538	311.089	-0.054	0.101
-213.523	510.417	0.073	0.167
-212.509	-200.000	-0.051	0.291
-211.494	-184.841	-0.142	-0.002
-210.479	21.321	0.254	0.204
-209.465	-123.336	0.269	-0.042
-208.450	-57.777	0.187	-0.081
-207.436	472.127	0.025	0.055
-206.421	25.751	0.112	-0.092
-205.406	-200.000	-0.039	0.291
-204.392	-178.785	-0.102	-0.002
-203.377	734.026	-0.119	0.314
-202.363	-171.471	0.120	-0.004
-201.348	-39.701	-0.114	-0.059
-200.333	-200.000	-0.008	-0.340
-199.319	-200.000	0.001	-0.187
-198.304	-200.000	0.034	0.169
-197.290	-142.004	-0.249	-0.025
-196.275	54.650	0.162	0.154
-195.260	-200.000	-0.008	0.098
-194.246	-200.000	0.007	-0.077
-193.231	8.544	0.039	0.029
-192.217	-200.000	0.066	0.438
-191.202	99.213	0.135	-0.154
-190.187	425.252	0.050	-0.106
-189.173	314.240	0.169	0.314
-188.158	204.840	0.057	-0.087
-187.144	23.029	-0.090	-0.073
-186.129	-25.411	0.231	-0.135
-185.114	186.205	0.178	-0.261
-184.100	-107.236	0.278	-0.060
-183.085	-87.987	-0.190	-0.056
-182.071	-144.212	-0.360	0.033
-181.056	800.000	-0.028	0.121
-180.042	-0.847	-0.205	-0.143
-179.027	3.649	0.285	0.205
-178.012	-200.000	0.010	0.270
-176.998	126.564	-0.035	0.044
-175.983	22.298	0.196	0.158
-174.969	-89.880	-0.244	0.070
-173.954	276.384	0.093	0.164
-172.939	-77.583	-0.170	0.058
-171.925	-200.000	-0.003	0.332
-170.910	3.210	-0.158	0.113
-169.896	-200.000	-0.022	-0.324
-168.881	-33.490	0.166	-0.091
-167.866	-112.863	0.384	0.075
-166.852	-200.000	0.076	0.441
-165.837	-44.122	-0.157	0.078
-164.823	153.816	0.182	0.246
-163.808	-101.584	-0.248	-0.060
-162.793	310.047	-0.187	0.345
-161.779	233.262	0.099	0.160
-160.764	-200.000	0.030	0.382
-159.750	140.125	-0.164	-0.214
-158.735	105.444	0.093	0.109
-157.720	92.929	0.150	0.167
-156.706	-107.789	-0.099	-0.021
-155.691	31.357	-0.094	-0.080
-154.677	-122.991	0.214	0.034
-153.662	-8.944	-0.338	0.223
-152.647	-71.276	-0.281	-0.104
-151.633	-200.000	0.058	0.335
-150.618	-96.343	0.338	0.088
-149.604	-148.272	-0.436	-0.035
-148.589	-200.000	-0.028	-0.345
-147.574	77.299	-0.331	-0.347
-146.560	-100.083	0.341	-0.084
-145.545	-154.749	0.167	-0.011
-144.531	-200.000	0.027	-0.155
-143.516	-147.220	-0.192	-0.016
-142.502	96.601	-0.163	0.183
-141.487	-1.162	0.340	0.237
-140.472	2.551	-0.390	0.278
-139.458	74.258	0.179	0.185
-138.443	-47.660	-0.259	-0.124
-137.429	-85.184	-0.188	0.058
-136.414	-200.000	-0.013	0.254
-135.399	-2.243	0.087	-0.060
-134.385	-200.000	-0.015	0.335
-133.370	94.456	0.092	-0.103
-132.356	76.169	-0.234	0.244
-131.341	-200.000	-0.011	0.084
-130.326	-151.745	-0.396	0.029
-129.312	632.616	-0.198	0.495
-128.297	195.563	0.151	0.225
-127.283	275.748	-0.068	-0.119
-126.268	-170.008	-0.343	0.012
-125.253	-200.000	0.019	-0.160
-124.239	-134.527	0.237	0.029
-123.224	243.243	-0.114	0.188
-122.210	58.995	-0.107	-0.103
-121.195	800.000	0.042	-0.132
-120.180	-108.321	0.273	-0.058
-119.166	273.222	-0.091	0.158
-118.151	800.000	-0.015	0.045
-117.137	-7.352	-0.172	-0.115
-116.122	-51.072	0.220	-0.102
-115.107	-200.000	-0.007	0.050
-114.093	-200.000	-0.022	-0.338
-113.078	66.048	-0.101	-0.100
-112.064	-200.000	-0.015	-0.120
-111.049	75.373	0.220	-0.229
-110.034	-200.000	-0.081	-0.354
-109.020	173.292	-0.109	-0.155
-108.005	-63.520	-0.080	0.032
-106.991	74.913	-0.197	-0.204
-105.976	463.985	-0.067	0.147
-104.962	782.195	-0.104	0.280
-103.947	-129.171	0.330	0.045
-102.932	495.099	-0.028	-0.063
-101.918	-59.173	0.430	-0.182
-100.903	407.154	0.078	-0.162
-99.889	-12.338	0.292	-0.188
-98.874	51.814	0.219	-0.205
-97.859	-200.000	0.072	0.406
-96.845	-14.262	0.199	-0.126
-95.830	-188.312	0.119	0.001
-94.816	-155.272	-0.291	-0.019
-93.801	-83.101	-0.059	0.019
-92.786	-65.481	-0.231	-0.091
-91.772	-31.163	-0.041	0.023
-90.757	800.000	0.118	0.441
-89.743	-114.208	0.215	-0.041
-88.728	-200.000	0.037	-0.196
-87.713	609.165	0.050	-0.124
-86.699	800.000	0.044	0.175
-85.684	-92.318	-0.205	0.057
-84.670	-200.000	0.001	0.230
-83.655	-146.008	0.221	-0.019
-82.640	781.841	0.062	-0.166
-81.626	21.927	0.235	0.189
-80.611	-175.922	0.497	-0.013
-79.597	-200.000	-0.065	0.287
-78.582	525.724	0.064	-0.148
-77.567	-95.279	0.206	-0.055
-76.553	227.611	-0.106	0.170
-75.538	-54.448	0.414	-0.184
-74.524	-128.559	-0.062	0.009
-73.509	800.000	-0.081	0.244
-72.494	-126.519	0.129	0.019
-71.480	30.310	0.316	0.265
-70.465	288.055	0.033	0.058
-69.451	-200.000	0.019	0.287
-68.436	58.002	0.185	-0.178
-67.422	800.000	0.040	-0.125
-66.407	-133.561	-0.136	0.017
-65.392	3.197	0.172	0.123
-64.378	-89.375	0.214	0.062
-63.363	-193.554	0.212	-0.002
-62.349	-28.234	-0.194	0.110
-61.334	41.081	-1.018	-0.904
-60.319	466.203	0.219	0.482
-59.305	296.940	-0.588	-1.060
-58.290	112.006	0.891	1.057
-57.276	800.000	0.556	1.674
-56.261	-200.000	99.024	578.465
-55.246	487.633	1433.504	3212.869
-54.232	150.777	2633.846	3515.447
-53.217	111.120	2188.849	2588.962
-52.203	42.960	1626.645	1456.336
-51.188	34.225	1356.778	1161.676
-50.173	30.999	1315.038	1106.783
-49.159	54.525	1364.191	1290.781
-48.144	55.740	1380.642	1313.623
-47.130	34.401	1338.526	1146.929
-46.115	30.775	1321.245	1110.495
-45.100	30.620	1315.780	1104.934
-44.086	30.554	1313.622	1102.688
-43.071	30.472	1311.114	1100.050
-42.057	30.545	1308.867	1098.559
-41.042	30.431	1307.828	1096.965
-40.027	30.493	1306.175	1095.903
-39.013	30.593	1303.615	1094.300
-37.998	30.515	1302.526	1092.882
-36.984	30.504	1301.253	1091.706
-35.969	30.692	1299.090	1090.950
-34.954	30.710	1296.899	1089.174
-33.940	30.649	1295.940	1087.972
-32.925	30.797	1294.405	1087.499
-31.911	30.595	1293.640	1085.636
-30.896	30.759	1291.404	1084.674
-29.881	30.817	1289.635	1083.481
-28.867	30.847	1288.106	1082.327
-27.852	30.683	1287.386	1080.730
-26.838	30.834	1285.855	1080.278
-25.823	30.763	1284.386	1078.588
-24.809	30.710	1283.240	1077.276
-23.794	30.638	1281.984	1075.761
-22.779	30.806	1280.665	1075.582
-21.765	30.818	1278.738	1073.989
-20.750	30.636	1277.892	1072.186
-19.736	30.593	1276.671	1070.873
-18.721	30.519	1275.810	1069.681
-17.706	30.632	1274.550	1069.235
-16.692	30.580	1273.222	1067.779
-15.677	30.584	1272.076	1066.797
-14.663	30.549	1270.950	1065.611
-13.648	30.597	1269.887	1064.952
-12.633	30.491	1269.109	1063.652
-11.619	30.534	1268.064	1062.981
-10.604	30.597	1267.072	1062.466
-9.590	30.583	1266.154	1061.575
-8.575	30.533	1265.028	1060.301
-7.560	30.349	1264.696	1058.933
-6.546	30.539	1263.454	1058.932
-5.531	30.436	1262.548	1057.543
-4.517	30.485	1261.807	1057.162
-3.502	30.517	1260.655	1056.334
-2.487	30.657	1259.676	1056.270
-1.473	30.615	1256.069	1052.967
-0.458	29.707	1241.823	1035.896
0.556	25.222	1225.529	1001.131
1.571	21.758	1231.810	986.706
2.586	20.507	1247.018	991.668
3.600	19.652	1235.059	977.235
4.615	14.308	1160.728	889.855
5.629	5.316	1083.579	785.602
6.644	0.771	1063.102	748.237
7.659	0.363	1060.674	744.444
8.673	0.306	1060.273	743.816
9.688	0.352	1058.617	742.815
10.702	0.587	1057.057	742.815
11.717	5.769	1063.863	773.134
12.731	14.055	1074.751	822.112
13.746	17.256	1077.777	840.202
14.761	17.028	1076.999	838.392
15.775	16.137	1075.609	832.840
16.790	15.246	1073.130	826.452
17.804	14.665	1071.589	822.335
18.819	14.231	1070.623	819.385
19.834	13.912	1069.662	817.008
20.848	13.769	1068.194	815.111
21.863	13.379	1067.921	812.914
22.877	13.370	1066.946	812.055
23.892	13.212	1066.535	810.894
24.907	13.250	1065.887	810.520
25.921	13.197	1065.015	809.521
26.936	13.381	1063.992	809.572
27.950	13.338	1063.114	808.625
28.965	13.476	1061.923	808.323
29.980	13.414	1060.735	807.041
30.994	13.561	1059.181	806.503
32.009	13.470	1058.722	805.641
33.023	13.564	1057.699	805.248
34.038	13.482	1056.640	803.975
35.053	13.403	1055.616	802.739
36.067	13.332	1055.530	802.260
37.082	13.402	1054.177	801.496
38.096	13.511	1053.627	801.539
39.111	13.399	1052.698	800.218
40.126	13.382	1051.476	799.137
41.140	13.291	1050.388	797.797
42.155	13.218	1049.459	796.672
43.169	13.312	1048.282	796.158
44.184	13.235	1047.282	794.960
45.199	13.284	1046.194	794.299
46.213	13.289	1045.237	793.525
47.228	13.258	1043.803	792.219
48.242	13.256	1043.253	791.721
49.257	13.382	1042.051	791.340
50.271	13.324	1040.856	790.089
51.286	13.473	1040.047	790.115
52.301	13.349	1039.586	789.102
53.315	13.351	1038.544	788.253
54.330	13.206	1037.702	786.853
55.344	13.340	1036.438	786.460
56.359	13.356	1035.563	785.803
57.374	13.312	1034.561	784.764
58.388	13.238	1033.633	783.641
59.403	13.301	1032.966	783.367
60.417	13.237	1032.350	782.525
61.432	13.191	1031.468	781.568
62.447	13.177	1030.751	780.889
63.461	13.222	1029.817	780.328
64.476	13.198	1029.133	779.626
65.490	13.146	1028.203	778.609
66.505	13.233	1027.413	778.349
67.520	13.339	1026.411	778.021
68.534	13.208	1025.924	776.968
69.549	13.225	1025.677	776.793
70.563	13.260	1024.377	775.900
71.578	13.119	1023.868	774.786
72.593	13.094	1023.130	774.040
73.607	13.081	1022.087	773.126
74.622	13.109	1021.765	772.942
75.636	13.145	1020.909	772.395
76.651	13.211	1019.827	771.816
77.666	13.207	1019.400	771.408
78.680	13.171	1018.845	770.752
79.695	13.225	1017.961	770.263
80.709	13.197	1017.554	769.761
81.724	13.248	1016.665	769.255
82.739	13.189	1015.951	768.374
83.753	13.282	1015.275	768.227
84.768	13.415	1014.094	767.879
85.782	13.429	1013.116	767.139
86.797	13.322	1012.596	766.182
87.812	13.312	1011.344	765.120
88.826	13.306	1010.308	764.238
89.841	13.445	1009.396	764.123
90.855	13.466	1008.914	763.788
91.870	13.418	1008.356	763.077
92.884	13.530	1006.991	762.490
93.899	13.301	1006.845	761.261
94.914	13.533	1005.508	761.247
95.928	13.484	1004.888	760.488
96.943	13.417	1004.490	759.810
97.957	13.484	1003.121	759.016
98.972	13.490	1002.075	758.185
99.987	13.522	1001.077	757.506
101.001	13.466	1000.130	756.467
102.016	13.493	999.307	755.901
103.030	13.452	999.070	755.470
104.045	13.532	997.812	754.816
105.060	13.404	997.450	753.891
106.074	13.411	996.261	752.958
107.089	13.243	995.299	751.402
108.103	13.390	994.375	751.305
109.118	13.373	993.381	750.410
110.133	13.443	992.657	750.115
111.147	13.206	992.064	748.527
112.162	13.359	990.812	748.206
113.176	13.448	990.082	747.991
114.191	13.433	989.350	747.307
115.206	13.422	988.510	746.553
116.220	13.350	987.840	745.657
117.235	13.497	986.684	745.382
118.249	13.384	985.927	744.235
119.264	13.385	985.436	743.803
120.279	13.448	984.760	743.510
121.293	13.422	983.730	742.551
122.308	13.354	983.110	741.712
123.322	13.382	982.270	741.135
124.337	13.299	980.812	739.601
125.352	13.399	979.889	739.284
126.366	13.371	978.810	738.281
127.381	13.296	977.617	736.983
128.395	13.400	976.656	736.655
129.410	13.465	975.825	736.252
130.424	13.419	975.201	735.515
131.439	13.493	974.188	735.011
132.454	13.448	973.522	734.244
133.468	13.502	972.958	733.996
134.483	13.511	971.681	733.007
135.497	13.488	971.057	732.369
136.512	13.395	970.370	731.375
137.527	13.547	969.221	731.113
138.541	13.436	968.528	730.039
139.556	13.558	967.437	729.687
140.570	13.626	966.732	729.390
141.585	13.470	966.531	728.487
142.600	13.610	965.152	727.999
143.614	13.653	964.689	727.774
144.629	13.645	963.832	727.029
145.643	13.671	962.661	726.193
146.658	13.649	961.705	725.313
147.673	13.557	960.415	723.875
148.687	13.515	960.129	723.409
149.702	13.418	959.459	722.418
150.716	13.497	958.546	722.013
151.731	13.613	957.779	721.875
152.746	13.541	957.233	721.085
153.760	13.564	956.679	720.707
154.775	13.626	956.029	720.422
155.789	13.637	955.475	719.987
156.804	13.752	954.377	719.596
157.819	13.588	954.267	718.740
158.833	13.738	953.134	718.470
159.848	13.776	952.369	717.996
160.862	13.773	951.547	717.300
161.877	13.632	950.258	715.657
162.892	13.659	949.460	715.107
163.906	13.631	948.520	714.217
164.921	13.622	947.961	713.694
165.935	13.700	947.006	713.247
166.950	13.803	945.634	712.591
167.964	13.718	945.062	711.735
168.979	13.777	944.159	711.242
169.994	13.717	943.566	710.479
171.008	13.802	943.040	710.380
172.023	13.793	942.344	709.758
173.037	13.771	941.464	708.935
174.052	13.785	940.718	708.370
175.067	13.590	940.458	707.280
176.081	13.817	939.242	707.271
177.096	13.752	939.039	706.778
178.110	13.787	938.396	706.381
179.125	13.744	937.606	705.543
180.140	13.952	937.186	706.048
181.154	13.812	936.718	705.036
182.169	13.741	936.285	704.348
183.183	13.926	935.846	704.741
184.198	13.799	934.976	703.483
185.213	14.088	934.058	703.956
186.227	14.040	933.204	703.045
187.242	14.017	932.736	702.534
188.256	14.053	931.963	702.042
189.271	14.079	931.068	701.412
190.286	13.848	930.633	700.052
191.300	13.919	929.741	699.618
192.315	13.793	929.743	699.027
193.329	13.778	929.196	698.491
194.344	13.861	928.486	698.242
195.359	14.055	927.358	698.148
196.373	14.046	927.048	697.817
197.388	14.048	926.341	697.229
198.402	14.158	925.759	697.190
199.417	14.200	925.292	696.954
200.432	14.123	924.612	696.059
201.446	14.323	924.151	696.485
202.461	14.298	923.799	696.054
203.475	14.145	923.403	695.057
204.490	14.157	922.509	694.372
205.504	14.249	921.247	693.744
206.519	14.202	920.740	693.105
207.534	14.163	920.277	692.533
208.548	14.234	919.493	692.177
209.563	14.184	919.019	691.550
210.577	14.342	918.158	691.498
211.592	14.302	917.458	690.742
212.607	14.387	916.665	690.435
213.621	14.328	916.014	689.641
214.636	14.341	915.460	689.217
215.650	14.340	914.787	688.645
216.665	14.436	913.637	688.113
217.680	14.444	913.571	688.035
218.694	14.473	912.320	687.154
219.709	14.556	911.662	686.939
220.723	14.561	911.180	686.533
221.738	14.520	910.467	685.766
222.753	14.534	909.837	685.292
223.767	14.502	909.616	684.934
224.782	14.573	908.691	684.466
225.796	14.548	908.433	684.109
226.811	14.490	907.967	683.462
227.826	14.476	906.980	682.599
228.840	14.601	905.827	682.183
229.855	14.591	905.052	681.496
230.869	14.488	904.726	680.772
231.884	14.554	903.926	680.379
232.899	14.497	902.980	679.375
233.913	14.591	902.176	679.092
234.928	14.541	901.851	678.582
235.942	14.500	901.152	677.830
236.957	14.569	901.103	678.015
237.972	14.548	899.969	677.017
238.986	14.695	899.272	677.027
240.001	14.563	898.627	675.946
241.015	14.605	898.138	675.691
242.030	14.595	897.487	675.100
243.045	14.670	896.987	674.966
244.059	14.747	896.165	674.599
245.074	14.829	895.726	674.538
246.088	14.617	895.290	673.298
247.103	14.747	894.403	673.094
248.117	14.723	894.000	672.636
249.132	14.761	893.750	672.539
250.147	14.934	892.635	672.339
251.161	14.938	891.857	671.706
252.176	14.938	891.346	671.265
253.190	15.014	890.828	671.120
254.205	14.889	890.252	670.124
255.220	15.037	889.428	670.037
256.234	15.120	888.893	669.909
257.249	15.259	887.849	669.617
258.263	15.145	887.250	668.650
259.278	15.183	886.573	668.232
260.293	15.129	886.649	668.016
261.307	15.216	885.370	667.339
262.322	15.233	884.752	666.881
263.336	15.309	884.029	666.581
264.351	15.247	883.337	665.754
265.366	15.303	882.959	665.633
266.380	15.208	882.626	664.946
267.395	15.106	882.095	664.083
268.409	15.347	880.628	663.871
269.424	15.299	879.913	663.086
270.439	15.182	879.679	662.388
271.453	15.273	878.631	661.900
272.468	15.198	878.551	661.482
273.482	15.296	877.790	661.237
274.497	15.429	876.853	660.997
275.512	15.314	876.472	660.200
276.526	15.318	876.159	659.922
277.541	15.368	875.056	659.230
278.555	15.471	874.927	659.478
279.570	15.477	874.087	658.810
280.585	15.374	873.340	657.783
281.599	15.472	872.426	657.421
282.614	15.458	871.774	656.817
283.628	15.488	871.471	656.648
284.643	15.389	870.645	655.581
285.657	15.502	870.044	655.510
286.672	15.547	869.443	655.177
287.687	15.533	868.575	654.412
288.701	15.578	868.312	654.329
289.716	15.587	867.739	653.876
290.730	15.497	867.376	653.194
291.745	15.607	866.443	652.861
292.760	15.678	865.704	652.521
293.774	15.517	865.715	651.847
294.789	15.580	864.849	651.382
295.803	15.669	864.007	651.033
296.818	15.632	863.418	650.390
297.833	15.693	862.571	649.931
298.847	15.574	862.335	649.236
299.862	15.768	861.192	649.066
300.876	15.763	861.195	648.991
301.891	15.798	860.246	648.355
302.906	15.739	859.892	647.803
303.920	15.941	859.288	648.068
304.935	15.857	858.638	647.194
305.949	15.893	858.064	646.844
306.964	15.848	857.554	646.231
307.979	15.899	856.737	645.754
308.993	15.930	856.285	645.476
310.008	15.870	855.663	644.717
311.022	15.846	855.466	644.422
312.037	15.893	854.676	643.949
313.052	15.838	853.996	643.168
314.066	15.862	853.398	642.751
315.081	15.796	852.919	642.083
316.095	15.967	852.387	642.277
317.110	15.898	851.458	641.258
318.125	15.811	851.125	640.621
319.139	15.934	850.790	640.779
320.154	15.988	850.382	640.621
321.168	15.976	849.573	639.910
322.183	15.957	848.739	639.152
323.197	15.898	848.457	638.659
324.212	15.992	848.148	638.725
325.227	15.961	847.895	638.363
326.241	16.051	846.858	637.867
327.256	16.053	846.172	637.298
328.270	16.125	845.793	637.231
329.285	16.105	845.106	636.582
330.300	16.045	844.675	635.975
331.314	15.936	844.220	635.164
332.329	16.212	843.520	635.622
333.343	16.116	843.257	635.005
334.358	16.232	842.682	634.952
335.373	16.113	842.492	634.306
336.387	16.079	842.245	633.935
337.402	16.359	841.389	634.287
338.416	16.150	841.808	633.762
339.431	16.420	840.751	633.922
340.446	16.375	840.379	633.416
341.460	16.263	840.037	632.683
342.475	16.333	839.694	632.630
343.489	16.345	839.356	632.364
344.504	16.400	838.845	632.132
345.519	16.504	838.104	631.904
346.533	16.470	837.771	631.471
347.548	16.351	837.565	630.814
348.562	16.360	836.793	630.210
349.577	16.481	836.184	630.146
350.592	16.333	835.610	629.110
351.606	16.341	835.135	628.725
352.621	16.331	834.336	628.029
353.635	16.603	833.121	628.071
354.650	16.441	833.124	627.417
355.665	16.514	832.467	627.135
356.679	16.651	831.074	626.540
357.694	16.716	830.702	626.443
358.708	16.547	830.472	625.587
359.723	16.524	830.016	625.106
360.738	16.625	829.280	624.869
361.752	16.692	828.850	624.735
362.767	16.731	827.990	624.175
363.781	16.649	827.873	623.733
364.796	16.683	827.346	623.402
365.810	16.904	826.783	623.736
366.825	16.823	826.547	623.206
367.840	16.876	825.894	622.853
368.854	16.824	825.770	622.513
369.869	16.866	824.998	622.030
370.883	16.859	824.814	621.810
371.898	16.975	824.039	621.596
372.913	16.941	823.819	621.253
373.927	16.931	823.312	620.778
374.942	16.935	823.224	620.670
375.956	16.950	822.503	620.129
376.971	16.979	821.908	619.730
377.986	17.006	821.573	619.521
379.000	17.117	820.956	619.407
380.015	17.125	820.516	619.049
381.029	17.097	820.054	618.543
382.044	17.059	819.384	617.844
383.059	17.119	818.653	617.458
384.073	17.058	818.410	616.998
385.088	17.110	817.399	616.369
386.102	16.997	817.372	615.885
387.117	17.061	816.659	615.526
388.132	17.175	815.981	615.372
389.146	17.301	815.263	615.233
390.161	17.116	814.893	614.231
391.175	17.247	814.797	614.576
392.190	17.229	814.056	613.898
393.205	17.050	813.827	613.026
394.219	17.255	813.278	613.298
395.234	17.237	812.919	612.906
396.248	17.259	812.310	612.474
397.263	17.119	812.068	611.732
398.278	17.072	811.495	611.075
399.292	17.269	811.181	611.495
400.307	17.246	810.625	610.941
401.321	17.250	810.162	610.549
402.336	17.215	810.231	610.422
403.350	17.280	809.397	609.974
404.365	17.284	809.144	609.744
405.380	17.287	808.762	609.411
406.394	17.543	807.631	609.422
407.409	17.403	807.771	608.972
408.423	17.502	807.469	609.044
409.438	17.551	806.646	608.547
410.453	17.482	806.447	608.097
411.467	17.641	805.729	608.066
412.482	17.549	805.731	607.689
413.496	17.762	804.693	607.608
414.511	17.698	804.543	607.215
415.526	17.726	804.220	607.017
416.540	17.654	803.788	606.382
417.555	17.720	803.304	606.196
418.569	17.522	803.334	605.462
419.584	17.531	802.787	605.026
420.599	17.817	801.888	605.313
421.613	109.601	1291.595	1467.443
422.628	94.397	1362.947	1467.524
