DTS Sentinel unit serial number:	SN413079Multiplexer serial number:	ORYXHardware model number:	OX4-SRSoftware version number:	ORYX F/W v4.00 Oryx Data Collector v3.7.2.0data status	okinstallation	princeton_trtdifferential loss correction	single-endedforward channel	channel 1reverse channel	N/Adate	2019/09/19time	11:14:35forward acquisition time	60.00reverse acquisition time	0.00gamma	496.2192k internal	0.2339k external	0.2339temperature offset calibration	1.0012default loss term (dB/km)	0.3790temperature slope calibration	1.0000multiplexer offset coefficient	1.0000multiplexer slope coefficient	1.0000fibre end	0.00T internal ref (°C)	25.12T ext. ref 1 (°C)	0.76T ext. ref 2 (°C)	20.59length (m)	temperature (°C)	Stokes	anti-Stokes-747.200	273.952	-0.162	0.287
-746.185	182.248	0.374	0.553
-745.171	138.106	0.157	-0.207
-744.156	284.402	-0.020	0.036
-743.142	-158.486	0.103	0.006
-742.127	-142.112	0.160	0.016
-741.112	111.194	0.062	-0.074
-740.098	-200.000	-0.038	0.350
-739.083	800.000	0.110	-0.338
-738.069	-78.557	0.136	0.047
-737.054	-200.000	-0.024	0.416
-736.039	-144.406	-0.417	0.039
-735.025	491.767	-0.103	0.236
-734.010	-94.025	-0.314	-0.086
-732.996	226.596	0.023	0.037
-731.981	-200.000	-0.046	0.356
-730.966	5.072	-0.192	-0.142
-729.952	-70.864	-0.309	0.117
-728.937	-155.168	-0.198	-0.013
-727.923	-81.710	0.262	-0.086
-726.908	-147.260	-0.182	-0.016
-725.894	144.339	-0.099	-0.132
-724.879	-141.262	-0.289	0.029
-723.864	-53.471	-0.030	-0.014
-722.850	-200.000	-0.048	0.000
-721.835	146.271	-0.207	0.278
-720.821	-200.000	0.045	-0.219
-719.806	42.660	0.237	-0.216
-718.791	64.098	0.312	0.314
-717.777	7.136	0.342	-0.255
-716.762	-198.436	0.325	-0.002
-715.748	94.985	-0.220	-0.251
-714.733	-155.981	-0.225	0.014
-713.718	-200.000	0.018	-0.221
-712.704	226.475	0.119	-0.193
-711.689	-57.470	-0.318	-0.140
-710.675	-187.397	-0.436	-0.006
-709.660	800.000	-0.067	-0.275
-708.645	800.000	-0.054	-0.167
-707.631	-132.021	0.291	0.038
-706.616	244.888	-0.081	-0.136
-705.602	727.828	0.178	-0.477
-704.587	-200.000	-0.118	-0.537
-703.572	-134.292	0.413	-0.051
-702.558	-199.722	-0.362	0.002
-701.543	-93.421	-0.318	0.088
-700.529	57.585	0.087	-0.085
-699.514	86.122	0.031	0.034
-698.499	65.165	0.078	0.079
-697.485	-108.124	0.132	-0.029
-696.470	-200.000	-0.010	0.198
-695.456	-200.000	-0.027	-0.171
-694.441	187.720	0.184	-0.275
-693.426	-200.000	0.212	-0.000
-692.412	58.852	-0.247	-0.243
-691.397	373.694	-0.100	0.204
-690.383	-200.000	0.010	-0.144
-689.368	473.160	0.046	0.103
-688.354	-64.170	-0.196	0.080
-687.339	-143.915	0.298	-0.028
-686.324	-69.113	0.225	-0.087
-685.310	-169.445	-0.350	0.013
-684.295	316.390	-0.060	-0.113
-683.281	208.749	-0.236	-0.369
-682.266	33.106	0.136	-0.118
-681.251	800.000	0.103	-0.353
-680.237	310.107	0.108	-0.202
-679.222	-200.000	0.003	0.018
-678.208	81.813	-0.056	0.061
-677.193	-200.000	0.017	0.154
-676.178	-200.000	0.036	-0.365
-675.164	-43.238	-0.221	0.112
-674.149	8.510	-0.126	0.095
-673.135	50.683	-0.127	0.120
-672.120	124.810	0.260	-0.327
-671.105	493.662	0.065	0.149
-670.091	27.643	-0.290	0.244
-669.076	-142.429	-0.295	-0.029
-668.062	30.703	-0.175	-0.150
-667.047	623.060	-0.066	0.167
-666.032	-77.434	0.263	-0.091
-665.018	-200.000	0.001	-0.055
-664.003	-93.814	0.220	0.061
-662.989	-200.000	0.006	-0.036
-661.974	-200.000	-0.066	0.306
-660.959	727.920	-0.093	0.249
-659.945	622.566	-0.121	0.305
-658.930	537.577	-0.142	0.337
-657.916	800.000	0.083	0.324
-656.901	-191.144	0.210	-0.002
-655.886	689.760	-0.084	-0.220
-654.872	-200.000	0.012	-0.163
-653.857	49.237	0.085	-0.080
-652.843	-200.000	-0.022	0.167
-651.828	253.031	0.071	0.122
-650.814	-200.000	-0.053	0.301
-649.799	-200.000	0.038	-0.285
-648.784	-78.383	-0.026	-0.009
-647.770	-49.901	-0.214	-0.101
-646.755	-39.590	0.128	-0.067
-645.741	-46.965	0.106	-0.052
-644.726	-200.000	-0.005	0.053
-643.711	215.218	-0.205	-0.325
-642.697	-104.708	0.139	0.032
-641.682	-15.670	-0.216	-0.138
-640.668	533.106	-0.070	0.166
-639.653	-55.117	0.115	-0.052
-638.638	544.697	0.050	0.119
-637.624	-141.281	-0.198	-0.020
-636.609	48.155	-0.104	-0.097
-635.595	44.769	0.025	-0.023
-634.580	-200.000	0.008	0.163
-633.565	62.861	0.172	0.172
-632.551	-200.000	-0.001	-0.120
-631.536	410.004	-0.106	0.225
-630.522	499.849	0.055	0.126
-629.507	-9.905	0.168	0.112
-628.492	76.748	-0.149	0.157
-627.478	-3.603	0.298	0.207
-626.463	36.606	0.116	-0.102
-625.449	800.000	-0.116	-0.410
-624.434	-46.160	-0.360	0.177
-623.419	1.787	-0.075	0.054
-622.405	-26.664	0.238	-0.139
-621.390	-76.628	-0.172	-0.060
-620.376	55.911	0.187	0.181
-619.361	369.991	0.111	-0.224
-618.346	201.725	-0.168	-0.258
-617.332	695.360	-0.098	0.257
-616.317	-200.000	0.041	0.187
-615.303	460.279	-0.147	-0.327
-614.288	399.094	0.103	0.216
-613.273	81.230	0.134	0.144
-612.259	150.946	-0.227	0.308
-611.244	106.619	-0.097	0.115
-610.230	-200.000	0.005	-0.227
-609.215	129.812	0.200	-0.255
-608.201	-47.683	0.196	-0.095
-607.186	-151.988	-0.225	-0.016
-606.171	384.631	0.068	0.141
-605.157	-168.820	-0.271	-0.010
-604.142	241.961	0.013	-0.022
-603.128	-92.341	-0.163	-0.046
-602.113	46.816	-0.114	-0.106
-601.098	-1.427	0.424	-0.298
-600.084	74.846	-0.206	0.216
-599.069	30.372	-0.276	-0.235
-598.055	57.686	-0.055	-0.054
-597.040	-200.000	0.023	0.115
-596.025	-171.336	-0.268	0.009
-595.011	-121.823	0.079	-0.013
-593.996	-140.462	-0.122	0.013
-592.982	42.945	-0.070	0.063
-591.967	-111.009	0.134	-0.027
-590.952	81.594	-0.097	0.105
-589.938	321.414	-0.196	-0.372
-588.923	-71.361	0.393	0.147
-587.909	-99.996	0.029	-0.007
-586.894	800.000	-0.082	-0.270
-585.879	-6.849	-0.282	-0.191
-584.865	-168.396	0.250	0.010
-583.850	274.244	-0.095	-0.168
-582.836	-14.059	0.217	0.139
-581.821	-84.468	-0.340	-0.107
-580.806	241.854	0.194	0.324
-579.792	800.000	0.037	-0.155
-578.777	311.399	0.040	0.075
-577.763	118.189	-0.143	-0.176
-576.748	-100.931	0.099	-0.024
-575.733	-55.265	-0.143	-0.064
-574.719	-200.000	0.001	-0.134
-573.704	22.221	-0.060	-0.049
-572.690	-20.569	-0.255	-0.156
-571.675	-200.000	0.003	-0.097
-570.661	-31.001	0.050	-0.028
-569.646	24.436	0.281	0.231
-568.631	52.815	0.124	0.118
-567.617	-32.036	-0.055	-0.031
-566.602	-21.793	-0.237	-0.144
-565.588	-29.240	0.095	-0.054
-564.573	-200.000	-0.005	-0.243
-563.558	-177.718	0.305	-0.007
-562.544	800.000	0.035	0.131
-561.529	16.748	-0.255	0.201
-560.515	800.000	-0.068	0.197
-559.500	-200.000	-0.026	0.307
-558.485	-118.427	-0.033	-0.006
-557.471	-200.000	0.045	0.231
-556.456	446.607	-0.089	-0.194
-555.442	-35.364	0.239	0.130
-554.427	-200.000	0.027	0.149
-553.412	-200.000	-0.176	-0.000
-552.398	-200.000	0.020	0.107
-551.383	-67.029	-0.234	0.092
-550.369	800.000	-0.069	-0.275
-549.354	157.945	-0.202	0.278
-548.339	115.926	0.132	0.161
-547.325	3.748	0.037	0.027
-546.310	-100.487	0.632	0.156
-545.296	-175.841	-0.181	0.005
-544.281	430.719	-0.026	0.057
-543.266	242.517	0.137	-0.228
-542.252	479.349	0.099	-0.222
-541.237	-21.567	-0.194	0.118
-540.223	800.000	-0.047	-0.204
-539.208	-200.000	0.039	-0.421
-538.193	-200.000	-0.010	-0.293
-537.179	-47.772	0.168	-0.081
-536.164	-166.612	-0.199	-0.008
-535.150	-69.001	0.261	0.100
-534.135	-8.973	-0.048	-0.032
-533.121	-17.805	0.027	0.017
-532.106	-94.878	0.152	0.041
-531.091	-200.000	0.017	0.197
-530.077	20.430	-0.166	0.134
-529.062	-162.284	-0.175	-0.009
-528.048	-130.772	-0.423	0.056
-527.033	-73.039	0.402	0.147
-526.018	72.526	0.165	-0.172
-525.004	-50.022	0.094	-0.044
-523.989	-8.287	-0.062	0.041
-522.975	-138.545	0.090	0.010
-521.960	800.000	0.066	0.187
-520.945	367.835	-0.098	-0.197
-519.931	475.787	-0.149	-0.334
-518.916	6.572	0.057	-0.042
-517.902	764.091	0.056	0.152
-516.887	-120.429	-0.213	-0.036
-515.872	-200.000	-0.053	0.291
-514.858	-130.633	0.158	-0.021
-513.843	-200.000	-0.036	0.284
-512.829	133.410	-0.044	0.057
-511.814	800.000	-0.069	-0.208
-510.799	202.025	0.070	0.107
-509.785	229.418	0.061	-0.099
-508.770	40.276	-0.229	-0.205
-507.756	166.654	0.338	0.476
-506.741	53.764	-0.327	0.312
-505.726	-200.000	0.045	-0.264
-504.712	3.666	-0.273	0.198
-503.697	60.294	0.260	-0.256
-502.683	74.184	-0.248	0.259
-501.668	800.000	0.119	-0.436
-500.653	-11.369	-0.327	-0.214
-499.639	800.000	-0.025	0.107
-498.624	-139.452	0.309	-0.033
-497.610	800.000	0.071	0.233
-496.595	-111.352	0.105	-0.021
-495.581	800.000	0.114	-0.315
-494.566	112.315	0.209	-0.252
-493.551	-95.264	-0.406	-0.109
-492.537	-200.000	0.051	-0.227
-491.522	-92.597	0.184	0.051
-490.508	-200.000	-0.122	0.000
-489.493	-76.851	0.257	0.089
-488.478	-200.000	0.023	-0.152
-487.464	116.383	0.228	-0.278
-486.449	-24.176	0.042	-0.025
-485.435	-200.000	0.026	-0.180
-484.420	-200.000	0.056	-0.266
-483.405	118.158	-0.115	-0.141
-482.391	257.869	-0.100	-0.172
-481.376	119.672	0.135	0.166
-480.362	-41.593	0.035	-0.018
-479.347	-110.246	0.242	-0.050
-478.332	75.961	-0.320	-0.336
-477.318	-96.303	0.135	-0.036
-476.303	-41.086	0.109	0.056
-475.289	353.019	0.085	0.167
-474.274	527.163	-0.097	-0.226
-473.259	293.359	0.026	0.048
-472.245	-200.000	0.024	0.234
-471.230	-200.000	-0.011	0.161
-470.216	359.345	0.135	0.268
-469.201	800.000	0.077	0.217
-468.186	-45.244	0.370	0.182
-467.172	-200.000	0.035	-0.204
-466.157	800.000	-0.089	-0.260
-465.143	-113.126	0.081	0.016
-464.128	800.000	-0.063	0.243
-463.113	506.388	-0.132	0.303
-462.099	26.334	-0.072	0.060
-461.084	-88.124	0.378	0.112
-460.070	155.425	0.103	0.140
-459.055	-176.101	-0.156	0.004
-458.040	-160.579	0.271	-0.014
-457.026	-22.623	-0.082	0.049
-456.011	-200.000	0.064	0.345
-454.997	251.479	0.047	0.080
-453.982	21.753	-0.045	-0.036
-452.968	700.087	-0.053	-0.138
-451.953	-200.000	0.023	0.250
-450.938	-200.000	-0.043	0.255
-449.924	800.000	-0.044	0.141
-448.909	-200.000	-0.021	0.098
-447.895	-66.548	-0.457	-0.180
-446.880	-120.468	0.256	0.043
-445.865	-64.033	-0.219	0.089
-444.851	10.645	0.068	-0.052
-443.836	112.324	0.383	0.460
-442.822	-45.578	-0.098	0.048
-441.807	-27.166	0.298	0.172
-440.792	-30.818	-0.213	0.120
-439.778	800.000	0.132	0.413
-438.763	28.656	-0.300	-0.252
-437.749	-135.470	-0.118	-0.014
-436.734	800.000	0.110	-0.342
-435.719	36.736	0.260	-0.228
-434.705	-42.785	-0.192	0.097
-433.690	161.159	-0.115	0.160
-432.676	800.000	-0.061	-0.247
-431.661	281.661	-0.062	0.110
-430.646	-162.159	-0.160	0.008
-429.632	-125.159	-0.116	-0.018
-428.617	63.086	-0.147	-0.146
-427.603	38.717	-0.234	0.207
-426.588	-7.065	-0.070	0.047
-425.573	229.268	-0.158	-0.256
-424.559	-200.000	0.026	-0.114
-423.544	218.733	-0.120	0.189
-422.530	112.980	-0.170	0.204
-421.515	-200.000	-0.009	-0.099
-420.500	-200.000	0.001	0.132
-419.486	-167.593	0.397	0.016
-418.471	-200.000	0.009	-0.423
-417.457	134.223	-0.219	-0.281
-416.442	16.797	-0.244	-0.191
-415.428	-117.762	0.126	-0.022
-414.413	39.365	0.410	0.364
-413.398	-37.087	-0.189	0.100
-412.384	-13.765	-0.244	0.156
-411.369	53.835	-0.153	-0.145
-410.355	622.000	0.038	-0.094
-409.340	116.073	0.237	-0.287
-408.325	-200.000	-0.035	0.339
-407.311	23.936	-0.335	0.273
-406.296	36.435	-0.194	0.169
-405.282	109.751	0.037	0.044
-404.267	0.487	-0.142	0.101
-403.252	-140.385	0.231	0.024
-402.238	113.070	0.158	-0.190
-401.223	800.000	-0.084	0.264
-400.209	143.185	-0.189	0.249
-399.194	-59.441	0.210	-0.089
-398.179	10.024	0.208	-0.157
-397.165	-200.000	0.012	0.052
-396.150	-200.000	-0.031	0.175
-395.136	47.226	0.132	-0.121
-394.121	-36.717	0.192	0.102
-393.106	-93.449	0.501	0.137
-392.092	736.140	-0.067	-0.178
-391.077	14.985	0.245	-0.190
-390.063	-133.866	-0.168	0.021
-389.048	152.100	-0.248	-0.334
-388.033	-200.000	0.004	-0.266
-387.019	285.554	0.127	-0.227
-386.004	-200.000	0.015	-0.232
-384.990	85.936	-0.225	0.244
-383.975	-105.715	-0.361	0.081
-382.960	-200.000	0.043	0.192
-381.946	-200.000	0.043	-0.262
-380.931	-200.000	-0.099	0.000
-379.917	74.347	-0.180	0.187
-378.902	61.007	-0.355	-0.348
-377.888	88.732	-0.091	0.101
-376.873	-58.322	-0.342	0.147
-375.858	47.476	0.172	0.158
-374.844	-83.647	0.101	-0.032
-373.829	-12.109	-0.089	0.058
-372.815	285.066	0.175	-0.312
-371.800	526.622	0.143	-0.332
-370.785	800.000	-0.025	0.087
-369.771	603.114	0.148	-0.363
-368.756	-79.961	-0.112	-0.037
-367.742	-200.000	-0.054	0.253
-366.727	-200.000	0.019	-0.204
-365.712	622.674	0.028	0.070
-364.698	-200.000	0.008	0.335
-363.683	-153.104	0.226	-0.016
-362.669	309.424	0.077	-0.142
-361.654	-200.000	0.062	0.280
-360.639	-41.226	0.127	0.065
-359.625	-200.000	0.011	-0.463
-358.610	-108.787	-0.176	0.037
-357.596	-15.594	0.205	0.129
-356.581	-36.504	0.254	-0.135
-355.566	193.201	-0.098	0.147
-354.552	4.858	0.423	0.307
-353.537	-200.000	-0.005	-0.020
-352.523	340.758	0.121	-0.234
-351.508	43.854	0.126	0.114
-350.493	38.479	-0.040	0.035
-349.479	92.177	-0.135	0.150
-348.464	173.991	-0.189	-0.270
-347.450	-114.297	0.247	0.047
-346.435	-49.923	-0.080	0.038
-345.420	35.631	-0.079	0.069
-344.406	-200.000	0.022	-0.286
-343.391	800.000	0.062	0.188
-342.377	502.801	-0.131	0.299
-341.362	-40.238	0.208	-0.107
-340.348	235.860	-0.117	0.191
-339.333	276.669	-0.201	-0.353
-338.318	187.168	0.037	0.055
-337.304	-180.926	0.541	-0.011
-336.289	183.237	-0.178	0.259
-335.275	132.427	-0.063	0.081
-334.260	800.000	0.055	0.209
-333.245	95.184	-0.095	-0.107
-332.231	-126.531	-0.182	-0.027
-331.216	-113.529	-0.138	0.027
-330.202	800.000	-0.090	-0.318
-329.187	-47.917	-0.257	0.123
-328.172	166.539	-0.103	-0.144
-327.158	143.962	-0.065	0.086
-326.143	-175.518	-0.092	-0.002
-325.129	-68.066	-0.143	0.055
-324.114	125.787	-0.185	-0.230
-323.099	-200.000	0.009	-0.420
-322.085	-178.084	0.143	-0.003
-321.070	-200.000	0.014	-0.128
-320.056	142.944	-0.282	-0.370
-319.041	290.209	-0.208	-0.373
-318.026	-46.917	0.254	-0.123
-317.012	-158.368	-0.315	-0.018
-315.997	-200.000	-0.017	0.158
-314.983	129.438	0.183	-0.230
-313.968	-46.048	0.279	-0.136
-312.953	171.701	-0.080	-0.113
-311.939	281.580	0.074	-0.130
-310.924	-133.948	-0.184	0.022
-309.910	115.542	0.155	-0.186
-308.895	91.753	0.109	-0.121
-307.880	-29.280	0.277	-0.156
-306.866	-200.000	-0.070	0.364
-305.851	-25.752	0.136	-0.079
-304.837	-103.539	0.075	-0.017
-303.822	-35.681	-0.073	0.039
-302.807	-2.733	0.270	0.186
-301.793	432.265	-0.137	0.292
-300.778	-200.000	-0.039	-0.276
-299.764	800.000	0.016	-0.048
-298.749	-200.000	0.000	-0.009
-297.735	-16.811	0.144	-0.090
-296.720	-115.798	-0.212	-0.039
-295.705	224.763	0.054	-0.086
-294.691	-27.031	0.246	0.141
-293.676	41.580	0.326	0.291
-292.662	27.905	-0.133	0.110
-291.647	-180.097	-0.273	0.006
-290.632	-100.351	-0.342	0.084
-289.618	-200.000	-0.041	-0.238
-288.603	800.000	-0.096	-0.314
-287.589	-133.446	0.412	0.051
-286.574	15.147	-0.163	0.126
-285.559	-90.364	0.268	-0.077
-284.545	-127.007	-0.360	0.052
-283.530	91.976	-0.185	-0.205
-282.516	642.564	0.230	-0.579
-281.501	-14.956	-0.141	-0.089
-280.486	-56.355	0.150	0.066
-279.472	-41.206	-0.264	0.134
-278.457	35.196	0.241	-0.208
-277.443	115.268	-0.093	-0.112
-276.428	572.801	0.096	0.230
-275.413	-5.349	0.170	-0.115
-274.399	800.000	-0.075	-0.211
-273.384	201.265	0.297	0.450
-272.370	-87.841	-0.045	0.013
-271.355	-198.393	-0.248	0.001
-270.340	-148.212	-0.393	0.032
-269.326	-104.469	0.127	0.029
-268.311	113.640	0.071	-0.085
-267.297	53.693	-0.074	-0.070
-266.282	277.720	-0.039	0.068
-265.267	-43.748	0.390	-0.194
-264.253	-102.537	0.289	-0.068
-263.238	-183.905	-0.050	-0.001
-262.224	-200.000	-0.020	0.101
-261.209	-60.810	0.187	0.078
-260.195	800.000	0.076	0.207
-259.180	-37.018	0.256	0.135
-258.165	-88.376	-0.271	-0.080
-257.151	-43.102	0.091	0.045
-256.136	354.033	0.137	0.268
-255.122	-200.000	-0.057	0.258
-254.107	-113.648	0.265	-0.051
-253.092	-9.172	-0.111	0.073
-252.078	-13.137	-0.202	0.129
-251.063	291.105	0.268	0.479
-250.049	-165.117	-0.203	-0.009
-249.034	-6.738	-0.274	-0.183
-248.019	34.370	0.128	0.110
-247.005	16.854	-0.194	-0.151
-245.990	-200.000	-0.020	0.501
-244.976	62.192	-0.035	0.034
-243.961	-200.000	-0.023	0.113
-242.946	427.689	-0.113	0.240
-241.932	-36.535	-0.385	-0.204
-240.917	-109.376	0.390	-0.081
-239.903	-107.935	-0.112	0.024
-238.888	-33.304	-0.183	-0.100
-237.873	-32.576	-0.085	0.047
-236.859	-143.124	-0.026	-0.002
-235.844	800.000	-0.116	0.323
-234.830	800.000	0.039	0.152
-233.815	-200.000	-0.009	-0.074
-232.800	1.633	-0.285	-0.202
-231.786	-0.352	0.202	0.141
-230.771	-29.355	-0.145	-0.081
-229.757	-53.883	0.163	0.073
-228.742	250.591	-0.163	-0.272
-227.727	88.959	-0.161	0.177
-226.713	75.258	-0.189	-0.196
-225.698	-167.972	-0.446	-0.017
-224.684	149.883	0.072	0.096
-223.669	411.909	0.028	0.058
-222.655	278.364	0.134	-0.235
-221.640	-146.545	0.067	-0.006
-220.625	-49.742	-0.040	0.019
-219.611	-200.000	-0.013	0.288
-218.596	376.905	0.064	-0.128
-217.582	-68.261	0.376	0.144
-216.567	-200.000	0.043	-0.275
-215.552	-13.688	0.222	-0.141
-214.538	-26.730	-0.077	0.044
-213.523	-83.066	0.286	0.090
-212.509	112.963	-0.067	-0.079
-211.494	800.000	0.095	-0.265
-210.479	-200.000	-0.013	0.065
-209.465	800.000	0.030	-0.093
-208.450	315.605	-0.097	0.180
-207.436	-41.487	0.163	0.082
-206.421	-156.856	0.289	0.017
-205.406	92.678	0.152	-0.169
-204.392	-147.037	-0.276	-0.023
-203.377	166.315	0.055	0.076
-202.363	-200.000	0.010	0.242
-201.348	27.309	-0.251	-0.207
-200.333	362.500	-0.088	0.174
-199.319	-101.652	0.149	-0.035
-198.304	-4.793	0.185	-0.125
-197.290	419.343	0.052	0.109
-196.275	-200.000	-0.003	0.185
-195.260	93.329	-0.195	0.216
-194.246	159.139	0.014	-0.018
-193.231	-48.069	0.215	-0.102
-192.217	18.633	0.114	-0.089
-191.202	-179.487	-0.272	0.006
-190.187	-200.000	-0.048	-0.215
-189.173	-131.090	-0.088	-0.012
-188.158	-141.550	-0.073	0.007
-187.144	12.414	0.155	0.117
-186.129	-200.000	0.030	-0.340
-185.114	-80.625	-0.125	0.041
-184.100	88.978	0.040	0.044
-183.085	-200.000	-0.055	0.272
-182.071	-73.720	0.286	0.102
-181.056	144.350	-0.146	0.191
-180.042	135.354	-0.112	0.143
-179.027	-145.406	0.248	0.022
-178.012	60.158	-0.071	0.069
-176.998	-123.907	-0.323	-0.050
-175.983	-109.256	-0.288	0.060
-174.969	-129.849	0.165	-0.022
-173.954	147.824	0.100	0.132
-172.939	-200.000	-0.006	0.196
-171.925	-48.429	0.160	0.075
-170.910	-187.536	0.414	0.005
-169.896	-200.000	-0.000	0.126
-168.881	6.617	-0.046	-0.034
-167.866	57.538	0.356	-0.341
-166.852	-200.000	0.050	0.370
-165.837	223.382	0.197	0.311
-164.823	-154.547	-0.062	0.004
-163.808	-85.698	-0.107	0.033
-162.793	800.000	-0.104	0.342
-161.779	94.943	0.088	0.099
-160.764	-0.718	0.164	0.114
-159.750	-200.000	0.016	-0.101
-158.735	-129.245	-0.112	-0.015
-157.720	-70.161	0.216	0.081
-156.706	-146.056	0.121	-0.010
-155.691	747.915	-0.092	-0.242
-154.677	702.001	-0.070	0.181
-153.662	228.378	-0.060	-0.095
-152.647	-200.000	-0.091	-0.503
-151.633	-81.461	0.104	-0.034
-150.618	-200.000	-0.005	-0.246
-149.604	78.235	0.084	0.088
-148.589	-200.000	0.010	-0.117
-147.574	-12.459	-0.264	0.169
-146.560	-88.600	-0.316	0.092
-145.545	-200.000	-0.020	0.333
-144.531	-200.000	0.023	0.273
-143.516	-199.233	-0.439	0.002
-142.502	-135.308	0.364	-0.043
-141.487	-61.751	-0.111	-0.045
-140.472	-150.731	0.061	-0.005
-139.458	-63.965	0.426	-0.171
-138.443	-200.000	0.033	-0.204
-137.429	-15.386	0.150	0.094
-136.414	800.000	0.046	-0.186
-135.399	-200.000	0.026	-0.192
-134.385	200.919	-0.023	-0.035
-133.370	-62.240	0.335	-0.137
-132.356	-26.101	-0.206	0.119
-131.341	800.000	-0.032	-0.105
-130.326	-129.618	0.223	-0.030
-129.312	-200.000	0.028	-0.236
-128.297	-200.000	-0.032	0.235
-127.283	-163.188	-0.061	0.003
-126.268	-27.842	0.274	0.156
-125.253	153.673	-0.026	0.035
-124.239	-184.219	0.811	0.013
-123.224	-103.577	0.099	0.023
-122.210	123.392	0.275	0.338
-121.195	14.202	-0.107	-0.081
-120.180	800.000	0.023	-0.093
-119.166	-50.567	-0.132	-0.061
-118.151	28.915	-0.127	0.105
-117.137	-181.035	-0.162	0.003
-116.122	-51.251	-0.235	0.108
-115.107	550.634	-0.133	0.313
-114.093	-200.000	0.072	0.427
-113.078	75.020	-0.170	-0.176
-112.064	-52.819	-0.138	0.062
-111.049	-143.399	-0.159	0.015
-110.034	-200.000	0.004	0.180
-109.020	-56.416	0.153	0.067
-108.005	162.876	0.080	-0.110
-106.991	12.586	0.160	0.121
-105.976	-134.731	0.426	-0.051
-104.962	-200.000	0.000	0.057
-103.947	-200.000	0.025	-0.195
-102.932	200.844	-0.045	-0.068
-101.918	74.741	-0.093	-0.096
-100.903	-200.000	-0.004	0.110
-99.889	376.890	-0.037	0.075
-98.874	167.491	0.135	-0.188
-97.859	-95.761	0.245	0.064
-96.845	148.436	0.175	-0.232
-95.830	-87.010	-0.281	-0.084
-94.816	-19.506	-0.096	0.058
-93.801	-66.869	0.234	0.091
-92.786	91.890	-0.130	-0.143
-91.772	-16.709	0.107	-0.066
-90.757	-93.876	0.210	-0.057
-89.743	146.009	0.150	-0.197
-88.728	735.689	-0.101	-0.264
-87.713	-200.000	0.003	-0.121
-86.699	48.781	-0.043	-0.040
-85.684	211.344	0.263	0.405
-84.670	-11.987	-0.257	0.165
-83.655	68.782	0.106	-0.107
-82.640	-200.000	0.003	0.256
-81.626	16.318	-0.088	0.068
-80.611	-59.576	0.170	-0.071
-79.597	-200.000	0.005	-0.256
-78.582	38.363	-0.091	-0.079
-77.567	655.297	-0.103	-0.258
-76.553	214.354	-0.058	-0.089
-75.538	72.925	0.110	0.112
-74.524	800.000	0.097	-0.405
-73.509	-0.570	0.076	0.053
-72.494	74.460	0.099	0.102
-71.480	-170.424	-0.146	-0.005
-70.465	16.615	0.128	-0.099
-69.451	-79.888	-0.165	-0.054
-68.436	-140.255	-0.215	0.022
-67.422	149.478	0.096	0.127
-66.407	-91.830	0.196	-0.054
-65.392	379.455	-0.060	0.120
-64.378	67.447	-0.060	-0.060
-63.363	-200.000	-0.019	0.258
-62.349	-106.599	0.331	-0.072
-61.334	108.630	-1.162	-1.355
-60.319	228.611	0.303	0.482
-59.305	331.963	-0.483	-0.911
-58.290	125.061	0.828	1.020
-57.276	800.000	0.520	1.776
-56.261	-200.000	121.477	636.027
-55.246	396.480	1580.888	3223.997
-54.232	138.867	2754.161	3533.811
-53.217	97.367	2190.267	2455.554
-52.203	36.945	1615.085	1394.760
-51.188	28.497	1355.252	1119.031
-50.173	25.679	1316.784	1070.491
-49.159	52.516	1380.729	1287.029
-48.144	50.295	1393.654	1285.504
-47.130	28.693	1344.237	1110.949
-46.115	25.340	1325.551	1075.417
-45.100	25.106	1320.657	1070.006
-44.086	25.041	1318.045	1067.459
-43.071	25.015	1315.633	1065.313
-42.057	25.000	1313.392	1063.368
-41.042	24.983	1312.352	1062.379
-40.027	25.113	1310.350	1061.491
-39.013	25.084	1308.382	1059.682
-37.998	25.062	1307.118	1058.485
-36.984	25.109	1305.011	1057.014
-35.969	25.069	1303.759	1055.721
-34.954	25.080	1302.157	1054.447
-33.940	25.167	1300.269	1053.385
-32.925	25.079	1298.925	1051.739
-31.911	25.250	1297.445	1051.501
-30.896	25.269	1295.891	1050.311
-29.881	25.157	1294.933	1048.840
-28.867	25.294	1293.432	1048.385
-27.852	25.246	1291.588	1046.565
-26.838	25.217	1290.275	1045.294
-25.823	25.276	1289.008	1044.566
-24.809	25.216	1287.976	1043.344
-23.794	25.180	1286.449	1041.856
-22.779	25.250	1285.080	1041.111
-21.765	25.363	1283.755	1040.650
-20.750	25.323	1282.603	1039.441
-19.736	25.143	1281.384	1037.374
-18.721	25.089	1280.019	1035.914
-17.706	25.067	1279.300	1035.163
-16.692	24.999	1278.056	1033.725
-15.677	25.115	1276.331	1032.953
-14.663	25.110	1275.468	1032.188
-13.648	25.013	1274.636	1030.915
-12.633	24.972	1273.554	1029.761
-11.619	25.145	1272.633	1029.973
-10.604	25.083	1271.519	1028.674
-9.590	24.963	1270.742	1027.316
-8.575	25.007	1269.783	1026.751
-7.560	25.032	1268.776	1026.041
-6.546	25.066	1268.061	1025.616
-5.531	24.983	1267.544	1024.682
-4.517	25.141	1266.348	1024.576
-3.502	25.097	1265.668	1023.737
-2.487	25.074	1264.475	1022.598
-1.473	25.060	1260.455	1019.226
-0.458	23.727	1245.744	999.792
0.556	19.492	1230.016	963.845
1.571	16.031	1237.357	950.035
2.586	15.225	1252.504	956.979
3.600	14.934	1240.941	946.413
4.615	11.220	1167.108	870.223
5.629	4.107	1095.188	780.782
6.644	0.972	1076.502	751.841
7.659	0.681	1074.951	749.252
8.673	0.601	1074.130	748.218
9.688	0.797	1072.539	748.008
10.702	1.036	1070.617	747.783
11.717	5.150	1075.348	771.387
12.731	12.085	1084.337	812.224
13.746	16.331	1089.568	837.161
14.761	17.264	1090.446	842.389
15.775	16.645	1088.961	838.101
16.790	15.688	1086.978	831.767
17.804	15.012	1085.413	827.157
18.819	14.570	1084.141	823.935
19.834	14.327	1083.506	822.178
20.848	14.070	1082.681	820.213
21.863	13.953	1081.603	818.747
22.877	13.768	1080.381	816.836
23.892	13.679	1079.798	815.886
24.907	13.702	1079.099	815.401
25.921	13.731	1078.428	814.964
26.936	13.746	1077.411	814.193
27.950	13.735	1076.919	813.698
28.965	13.863	1075.423	813.124
29.980	13.822	1074.014	811.785
30.994	13.916	1072.928	811.352
32.009	13.901	1071.985	810.491
33.023	13.910	1070.676	809.474
34.038	13.810	1069.808	808.260
35.053	13.782	1069.021	807.459
36.067	13.871	1068.193	807.193
37.082	13.829	1067.355	806.285
38.096	13.882	1066.755	806.016
39.111	13.886	1066.081	805.457
40.126	13.677	1065.334	803.807
41.140	13.688	1063.957	802.751
42.155	13.756	1062.016	801.543
43.169	13.696	1061.482	800.782
44.184	13.683	1060.605	799.985
45.199	13.700	1059.398	799.085
46.213	13.608	1058.227	797.691
47.228	13.795	1057.261	797.790
48.242	13.731	1056.478	796.820
49.257	13.715	1055.388	795.854
50.271	13.742	1054.574	795.299
51.286	13.838	1053.617	794.964
52.301	13.752	1052.638	793.742
53.315	13.869	1051.393	793.292
54.330	13.750	1050.475	791.963
55.344	13.679	1049.653	790.935
56.359	13.638	1048.753	789.994
57.374	13.535	1048.133	788.964
58.388	13.740	1046.567	788.691
59.403	13.638	1046.043	787.741
60.417	13.635	1045.204	787.027
61.432	13.669	1044.114	786.296
62.447	13.680	1043.529	785.837
63.461	13.590	1042.976	784.927
64.476	13.587	1041.771	783.936
65.490	13.667	1040.720	783.455
66.505	13.617	1040.274	782.813
67.520	13.707	1039.397	782.506
68.534	13.852	1038.787	782.664
69.549	13.626	1038.211	781.095
70.563	13.681	1036.997	780.369
71.578	13.746	1036.304	780.086
72.593	13.583	1035.665	778.772
73.607	13.556	1035.527	778.468
74.622	13.528	1034.741	777.680
75.636	13.716	1033.519	777.576
76.651	13.507	1032.960	776.103
77.666	13.637	1032.200	776.072
78.680	13.735	1031.190	775.706
79.695	13.561	1030.725	774.470
80.709	13.709	1029.963	774.524
81.724	13.827	1028.955	774.248
82.739	13.641	1028.818	773.208
83.753	13.835	1028.047	773.463
84.768	13.898	1026.419	772.463
85.782	13.823	1025.678	771.488
86.797	13.790	1025.273	770.964
87.812	13.727	1024.389	769.936
88.826	13.822	1022.917	769.202
89.841	13.841	1021.973	768.513
90.855	13.797	1021.471	767.862
91.870	13.869	1020.661	767.521
92.884	13.897	1019.046	766.366
93.899	13.943	1018.111	765.808
94.914	13.924	1018.060	765.616
95.928	13.802	1017.524	764.580
96.943	13.913	1016.018	763.892
97.957	13.825	1015.378	762.939
98.972	13.910	1014.305	762.457
99.987	13.875	1013.309	761.480
101.001	13.967	1012.021	760.864
102.016	13.862	1011.675	760.058
103.030	13.871	1011.106	759.603
104.045	13.903	1010.016	758.862
105.060	13.858	1009.305	758.056
106.074	13.838	1007.933	756.870
107.089	13.695	1007.389	755.742
108.103	13.809	1006.310	755.385
109.118	13.784	1005.418	754.535
110.133	13.862	1004.245	753.940
111.147	13.581	1004.161	752.537
112.162	13.820	1003.025	752.703
113.176	13.861	1002.177	752.183
114.191	13.818	1001.186	751.179
115.206	13.911	1000.528	751.040
116.220	13.864	999.561	750.034
117.235	13.846	998.568	749.143
118.249	13.822	997.517	748.178
119.264	13.893	997.061	748.093
120.279	13.780	996.467	747.071
121.293	13.843	995.405	746.489
122.308	13.746	994.814	745.546
123.322	13.888	993.385	745.048
124.337	13.837	992.613	744.174
125.352	13.859	991.298	743.221
126.366	13.753	990.495	742.080
127.381	13.758	989.566	741.340
128.395	13.833	988.585	740.871
129.410	13.827	987.785	740.180
130.424	13.917	986.556	739.593
131.439	13.895	985.864	738.913
132.454	13.800	985.397	738.075
133.468	14.164	983.709	738.362
134.483	13.918	983.312	736.907
135.497	13.871	982.829	736.272
136.512	13.845	981.946	735.428
137.527	13.765	980.668	734.053
138.541	13.869	979.936	733.901
139.556	13.908	979.275	733.515
140.570	14.046	978.298	733.324
141.585	14.050	977.483	732.667
142.600	14.002	976.714	731.813
143.614	13.952	976.088	731.059
144.629	14.061	975.419	730.975
145.643	14.009	974.146	729.726
146.658	13.843	973.864	728.722
147.673	14.010	972.774	728.575
148.687	13.991	971.837	727.726
149.702	13.943	970.906	726.755
150.716	13.986	970.298	726.421
151.731	13.967	969.645	725.787
152.746	14.017	968.958	725.425
153.760	14.148	968.100	725.289
154.775	14.185	967.287	724.778
155.789	14.068	966.733	723.790
156.804	14.037	966.147	723.151
157.819	14.017	965.453	722.484
158.833	14.129	964.904	722.492
159.848	14.139	964.034	721.819
160.862	14.285	962.634	721.342
161.877	14.268	961.974	720.709
162.892	14.171	961.292	719.714
163.906	14.074	960.483	718.629
164.921	14.182	959.209	718.078
165.935	14.121	958.501	717.220
166.950	14.130	957.817	716.685
167.964	14.139	956.839	715.925
168.979	14.168	955.979	715.347
169.994	14.244	954.823	714.741
171.008	14.136	954.336	713.850
172.023	14.279	953.599	713.851
173.037	14.323	952.926	713.474
174.052	14.320	952.269	712.906
175.067	14.332	951.222	712.108
176.081	14.216	951.030	711.405
177.096	14.320	950.264	711.212
178.110	14.424	949.642	711.128
179.125	14.285	949.477	710.350
180.140	14.300	948.791	709.836
181.154	14.331	948.261	709.510
182.169	14.405	947.229	708.990
183.183	14.381	947.057	708.696
184.198	14.375	946.293	708.038
185.213	14.416	945.521	707.569
186.227	14.399	945.060	707.091
187.242	14.522	944.286	706.969
188.256	14.486	943.689	706.310
189.271	14.539	942.538	705.610
190.286	14.493	941.741	704.756
191.300	14.496	941.111	704.233
192.315	14.299	940.805	703.112
193.329	14.347	940.416	702.959
194.344	14.334	940.075	702.587
195.359	14.432	939.006	702.139
196.373	14.521	938.370	701.975
197.388	14.627	937.836	701.963
198.402	14.562	937.557	701.420
199.417	14.644	936.743	701.091
200.432	14.708	935.835	700.620
201.446	14.817	935.651	700.878
202.461	14.743	935.361	700.286
203.475	14.686	934.560	699.386
204.490	14.709	933.491	698.620
205.504	14.676	932.970	698.032
206.519	14.602	932.295	697.152
207.534	14.777	931.292	697.074
208.548	14.752	930.888	696.603
209.563	14.801	930.283	696.292
210.577	14.803	929.026	695.299
211.592	14.921	928.185	695.098
212.607	14.822	927.826	694.356
213.621	14.855	927.267	694.015
214.636	14.955	926.161	693.542
215.650	14.981	925.910	693.398
216.665	14.966	924.646	692.328
217.680	15.006	924.167	692.077
218.694	14.910	923.565	691.166
219.709	14.989	922.957	690.975
220.723	15.017	922.223	690.483
221.738	15.058	921.412	689.983
222.753	15.022	920.934	689.415
223.767	14.980	920.528	688.875
224.782	15.041	920.106	688.753
225.796	15.078	919.503	688.390
226.811	15.038	918.408	687.346
227.826	15.077	917.898	687.061
228.840	15.077	917.159	686.447
229.855	15.130	915.932	685.688
230.869	15.082	915.414	685.042
231.884	15.054	915.197	684.705
232.899	15.048	914.017	683.735
233.913	14.972	913.594	683.051
234.928	15.018	913.004	682.736
235.942	14.970	912.331	681.978
236.957	15.230	911.267	682.181
237.972	15.214	910.910	681.786
238.986	15.065	910.430	680.763
240.001	15.101	909.507	680.156
241.015	15.095	909.136	679.793
242.030	15.178	908.462	679.569
243.045	15.195	907.937	679.183
244.059	15.179	907.180	678.494
245.074	15.150	906.562	677.851
246.088	15.129	906.116	677.374
247.103	15.335	905.136	677.413
248.117	15.263	905.022	676.978
249.132	15.266	904.505	676.544
250.147	15.314	903.561	675.971
251.161	15.467	902.714	675.895
252.176	15.477	901.989	675.332
253.190	15.518	901.466	675.046
254.205	15.462	900.939	674.364
255.220	15.476	900.078	673.715
256.234	15.468	899.598	673.267
257.249	15.596	898.816	673.135
258.263	15.458	898.005	671.915
259.278	15.566	897.565	671.958
260.293	15.510	897.213	671.410
261.307	15.622	896.273	671.096
262.322	15.718	895.215	670.628
263.336	15.649	895.191	670.275
264.351	15.625	894.396	669.526
265.366	15.811	893.176	669.291
266.380	15.698	893.250	668.840
267.395	15.723	892.178	668.077
268.409	15.675	891.582	667.379
269.424	15.790	890.749	667.153
270.439	15.848	889.861	666.658
271.453	15.769	889.261	665.838
272.468	15.875	888.603	665.705
273.482	15.805	888.038	664.949
274.497	15.862	887.745	664.896
275.512	15.937	886.809	664.430
276.526	15.755	886.580	663.481
277.541	15.749	885.757	662.785
278.555	15.961	885.323	663.233
279.570	16.061	884.527	662.972
280.585	15.932	884.008	662.020
281.599	15.932	883.070	661.257
282.614	15.921	882.352	660.620
283.628	16.022	881.734	660.492
284.643	15.877	881.559	659.737
285.657	15.938	880.716	659.286
286.672	16.108	879.676	659.113
287.687	15.970	879.590	658.451
288.701	16.101	878.607	658.169
289.716	16.138	878.206	657.952
290.730	16.054	877.786	657.252
291.745	16.089	876.660	656.488
292.760	16.155	876.057	656.237
293.774	16.258	875.654	656.277
294.789	16.237	874.923	655.590
295.803	16.245	874.267	655.068
296.818	16.213	873.536	654.340
297.833	16.195	872.895	653.735
298.847	16.175	872.015	652.936
299.862	16.204	871.648	652.718
300.876	16.252	871.146	652.471
301.891	16.259	870.277	651.789
302.906	16.335	869.754	651.630
303.920	16.312	869.400	651.222
304.935	16.276	868.833	650.599
305.949	16.504	867.960	650.765
306.964	16.359	867.357	649.697
307.979	16.241	867.507	649.298
308.993	16.359	866.440	648.898
310.008	16.455	865.785	648.716
311.022	16.468	865.137	648.222
312.037	16.456	864.515	647.656
313.052	16.416	864.484	647.422
314.066	16.462	863.622	646.896
315.081	16.464	862.965	646.352
316.095	16.497	862.219	645.862
317.110	16.436	861.792	645.252
318.125	16.527	861.274	645.156
319.139	16.485	860.870	644.636
320.154	16.469	860.732	644.415
321.168	16.408	859.814	643.438
322.183	16.529	859.118	643.321
323.197	16.632	858.791	643.409
324.212	16.543	858.030	642.446
325.227	16.487	857.364	641.678
326.241	16.525	857.105	641.569
327.256	16.475	856.482	640.855
328.270	16.638	855.714	640.842
329.285	16.528	855.504	640.213
330.300	16.645	854.654	639.962
331.314	16.633	853.803	639.224
332.329	16.580	853.870	639.015
333.343	16.796	852.941	639.078
334.358	16.636	852.986	638.454
335.373	16.739	852.300	638.272
336.387	16.798	851.957	638.181
337.402	16.773	851.677	637.819
338.416	16.902	851.067	637.791
339.431	16.897	851.002	637.670
340.446	16.676	850.813	636.639
341.460	16.982	850.041	637.154
342.475	16.851	849.785	636.413
343.489	16.929	849.000	636.062
344.504	16.962	848.342	635.635
345.519	16.901	848.380	635.379
346.533	16.964	848.061	635.323
347.548	16.941	847.152	634.497
348.562	16.868	846.631	633.779
349.577	16.931	846.051	633.525
350.592	17.083	845.222	633.414
351.606	17.032	844.562	632.675
352.621	17.010	843.873	632.019
353.635	16.953	843.727	631.642
354.650	16.975	843.087	631.188
355.665	17.116	842.158	630.960
356.679	16.998	841.439	629.930
357.694	17.155	840.912	630.059
358.708	17.104	840.322	629.374
359.723	17.015	840.112	628.831
360.738	17.175	839.193	628.680
361.752	17.119	838.370	627.800
362.767	17.201	837.723	627.563
363.781	17.237	837.615	627.559
364.796	17.280	837.123	627.295
365.810	17.268	837.047	627.139
366.825	17.239	836.270	626.394
367.840	17.359	835.780	626.413
368.854	17.355	835.248	625.945
369.869	17.341	834.623	625.371
370.883	17.381	834.315	625.229
371.898	17.533	834.137	625.600
372.913	17.476	833.441	624.814
373.927	17.481	833.218	624.607
374.942	17.457	832.567	623.978
375.956	17.482	832.256	623.780
376.971	17.472	831.812	623.357
377.986	17.469	831.228	622.853
379.000	17.603	830.733	622.917
380.015	17.402	830.852	622.215
381.029	17.613	829.549	621.956
382.044	17.618	829.133	621.608
383.059	17.711	828.417	621.353
384.073	17.595	828.254	620.753
385.088	17.542	827.353	619.831
386.102	17.606	827.177	619.876
387.117	17.454	826.702	618.913
388.132	17.667	825.704	618.883
389.146	17.466	825.618	618.035
390.161	17.614	825.004	618.058
391.175	17.847	824.113	618.182
392.190	17.745	823.586	617.361
393.205	17.575	823.433	616.577
394.219	17.709	822.839	616.561
395.234	17.776	822.479	616.479
396.248	17.577	822.207	615.501
397.263	17.880	821.478	615.995
398.278	17.764	820.982	615.152
399.292	17.616	821.126	614.670
400.307	17.660	820.696	614.454
401.321	17.774	819.877	614.195
402.336	17.640	819.467	613.352
403.350	17.886	818.773	613.665
404.365	17.971	818.171	613.463
405.380	18.088	817.271	613.154
406.394	17.979	816.976	612.487
407.409	17.916	816.891	612.141
408.423	17.783	816.946	611.653
409.438	18.105	815.922	611.987
410.453	18.108	815.841	611.883
411.467	18.118	815.222	611.398
412.482	17.984	815.297	610.923
413.496	18.064	814.820	610.796
414.511	18.139	814.361	610.666
415.526	18.124	813.827	610.157
416.540	18.140	813.482	609.904
417.555	18.076	812.601	608.958
418.569	18.149	812.957	609.433
419.584	18.180	812.120	608.860
420.599	18.260	811.380	608.538
421.613	114.770	1297.542	1486.385
422.628	99.337	1368.340	1486.443
