DTS Sentinel unit serial number:	SN413079Multiplexer serial number:	ORYXHardware model number:	OX4-SRSoftware version number:	ORYX F/W v4.00 Oryx Data Collector v3.7.2.0data status	okinstallation	princeton_trtdifferential loss correction	single-endedforward channel	channel 1reverse channel	N/Adate	2019/09/11time	19:40:11forward acquisition time	60.00reverse acquisition time	0.00gamma	496.2192k internal	0.2299k external	0.2299temperature offset calibration	1.0029default loss term (dB/km)	0.3790temperature slope calibration	1.0000multiplexer offset coefficient	1.0000multiplexer slope coefficient	1.0000fibre end	0.00T internal ref (°C)	39.83T ext. ref 1 (°C)	1.35T ext. ref 2 (°C)	32.44length (m)	temperature (°C)	Stokes	anti-Stokes-747.200	-80.416	-0.210	-0.072
-746.185	-200.000	0.058	0.424
-745.171	-1.060	-0.100	0.072
-744.156	33.402	0.324	0.287
-743.142	329.658	-0.070	0.138
-742.127	800.000	-0.069	0.271
-741.112	134.525	0.373	0.494
-740.098	-38.951	-0.067	0.036
-739.083	-149.254	-0.168	0.014
-738.069	-112.340	0.331	0.068
-737.054	450.190	-0.021	0.047
-736.039	-151.606	-0.246	0.019
-735.025	149.750	0.236	0.326
-734.010	-89.854	-0.145	-0.043
-732.996	-200.000	-0.023	-0.427
-731.981	-200.000	-0.056	0.344
-730.966	-200.000	0.008	-0.128
-729.952	-14.641	-0.198	-0.130
-728.937	480.343	-0.114	-0.264
-727.923	-200.000	-0.014	0.063
-726.908	637.445	-0.078	0.201
-725.894	67.262	0.142	-0.147
-724.879	-46.629	0.146	-0.073
-723.864	-78.744	0.338	0.118
-722.850	-200.000	-0.065	-0.406
-721.835	-200.000	0.021	0.501
-720.821	-164.443	-0.324	-0.015
-719.806	-42.737	-0.298	0.155
-718.791	-200.000	0.061	0.421
-717.777	116.501	-0.118	-0.147
-716.762	-200.000	-0.014	0.072
-715.748	4.854	-0.278	0.208
-714.733	274.134	0.029	-0.053
-713.718	800.000	0.090	-0.311
-712.704	800.000	-0.071	-0.216
-711.689	-200.000	-0.013	-0.140
-710.675	233.148	0.047	-0.080
-709.660	800.000	0.062	0.198
-708.645	-115.791	-0.072	-0.014
-707.631	62.762	0.014	0.015
-706.616	261.178	0.164	-0.289
-705.602	213.924	0.049	-0.079
-704.587	231.330	0.074	0.123
-703.572	-56.731	0.401	0.181
-702.558	57.547	-0.206	0.205
-701.543	800.000	-0.060	-0.216
-700.529	64.490	-0.017	0.017
-699.514	-200.000	-0.002	-0.216
-698.499	-28.608	0.255	0.149
-697.485	573.556	-0.112	-0.278
-696.470	24.227	-0.139	-0.117
-695.456	-54.662	-0.090	-0.041
-694.441	-119.976	-0.230	0.040
-693.426	-66.844	0.313	0.126
-692.412	-154.251	0.187	0.013
-691.397	-42.649	-0.191	-0.099
-690.383	-200.000	-0.037	-0.187
-689.368	-103.496	0.113	-0.027
-688.354	-200.000	0.028	0.303
-687.339	-87.720	-0.171	-0.052
-686.324	-37.081	-0.073	0.040
-685.310	-159.823	0.039	0.002
-684.295	-107.084	0.037	0.008
-683.281	-200.000	-0.019	0.344
-682.266	-44.631	0.333	-0.169
-681.251	-119.746	-0.128	-0.022
-680.237	-200.000	0.023	0.136
-679.222	156.845	0.331	-0.466
-678.208	-200.000	0.059	-0.325
-677.193	-149.168	-0.292	-0.024
-676.178	31.471	0.091	-0.080
-675.164	-25.543	-0.130	-0.078
-674.149	-98.209	-0.399	0.104
-673.135	800.000	0.083	-0.343
-672.120	30.070	-0.055	0.048
-671.105	263.814	0.069	0.122
-670.091	197.425	0.198	-0.308
-669.076	800.000	-0.043	-0.186
-668.062	6.308	-0.223	-0.169
-667.047	-122.467	-0.084	-0.014
-666.032	425.740	0.116	0.255
-665.018	55.948	-0.306	-0.302
-664.003	491.385	0.015	-0.035
-662.989	-163.705	-0.201	0.010
-661.974	83.273	-0.244	-0.270
-660.959	800.000	-0.057	-0.186
-659.945	-200.000	0.014	0.085
-658.930	58.545	0.206	0.206
-657.916	-122.632	0.283	0.047
-656.901	29.244	-0.222	-0.192
-655.886	141.489	0.166	-0.223
-654.872	-170.690	-0.105	0.004
-653.857	-3.441	-0.112	0.080
-652.843	-65.753	-0.082	-0.033
-651.828	-200.000	0.003	0.231
-650.814	-108.212	-0.248	0.055
-649.799	-47.064	-0.104	-0.052
-648.784	800.000	0.071	-0.256
-647.770	20.782	0.235	0.193
-646.755	800.000	-0.064	0.251
-645.741	800.000	-0.051	0.146
-644.726	55.108	-0.323	0.318
-643.711	-200.000	-0.025	-0.242
-642.697	-87.163	0.336	0.104
-641.682	125.077	-0.137	-0.176
-640.668	-200.000	0.001	-0.062
-639.653	-9.724	-0.319	-0.216
-638.638	26.542	0.084	-0.071
-637.624	800.000	0.079	-0.257
-636.609	34.474	-0.304	0.270
-635.595	-111.699	0.231	0.048
-634.580	192.207	0.090	0.138
-633.565	390.740	0.223	0.471
-632.551	163.080	0.152	0.217
-631.536	-56.027	0.187	-0.085
-630.522	26.836	-0.307	0.262
-629.507	59.253	-0.042	-0.042
-628.492	98.865	0.041	0.048
-627.478	-200.000	0.070	-0.404
-626.463	-39.083	-0.274	-0.146
-625.449	411.790	-0.105	-0.226
-624.434	800.000	0.102	-0.394
-623.419	-141.323	-0.166	0.017
-622.405	601.239	0.019	-0.048
-621.390	-81.204	0.201	0.067
-620.376	-116.968	0.357	0.066
-619.361	800.000	0.077	-0.252
-618.346	495.237	-0.089	-0.207
-617.332	-200.000	0.256	0.000
-616.317	384.971	0.185	-0.387
-615.303	-200.000	0.042	-0.296
-614.288	-32.825	0.177	-0.100
-613.273	267.207	0.192	-0.341
-612.259	403.661	0.201	0.430
-611.244	-26.637	-0.267	0.159
-610.230	101.407	-0.239	0.282
-609.215	-80.501	0.088	-0.030
-608.201	-119.540	0.087	-0.015
-607.186	18.957	0.181	-0.147
-606.171	373.215	0.076	0.158
-605.157	-76.801	-0.246	0.087
-604.142	-29.159	0.075	-0.044
-603.128	-200.000	-0.012	0.214
-602.113	-156.597	-0.044	0.003
-601.098	-28.832	-0.133	0.078
-600.084	3.437	0.139	-0.103
-599.069	-16.484	0.107	-0.069
-598.055	-171.805	0.144	-0.005
-597.040	-22.985	0.192	0.117
-596.025	129.655	-0.170	-0.221
-595.011	129.980	-0.039	0.050
-593.996	-91.827	-0.066	0.019
-592.982	171.748	0.148	-0.216
-591.967	800.000	-0.026	-0.098
-590.952	435.294	-0.088	-0.195
-589.938	16.492	0.077	-0.062
-588.923	-200.000	-0.018	0.351
-587.909	-67.715	0.226	-0.090
-586.894	259.639	-0.071	-0.125
-585.879	234.277	-0.164	0.275
-584.865	-200.000	-0.002	0.009
-583.850	-200.000	-0.093	-0.458
-582.836	-200.000	-0.025	-0.250
-581.821	519.247	0.062	0.147
-580.806	685.047	-0.090	0.238
-579.792	17.533	-0.062	0.050
-578.777	95.619	0.201	0.232
-577.763	641.421	-0.064	-0.165
-576.748	52.658	0.091	0.088
-575.733	800.000	-0.131	0.412
-574.719	719.424	-0.092	0.248
-573.704	-200.000	-0.044	-0.334
-572.690	475.441	-0.084	0.192
-571.675	-200.000	0.044	-0.261
-570.661	101.907	0.320	0.378
-569.646	20.978	-0.234	0.192
-568.631	800.000	-0.067	-0.290
-567.617	12.808	-0.112	-0.087
-566.602	-134.513	0.082	-0.010
-565.588	304.382	-0.065	-0.122
-564.573	-61.626	-0.331	0.141
-563.558	211.970	0.099	0.158
-562.544	-23.342	0.115	0.070
-561.529	-200.000	-0.021	-0.124
-560.515	170.185	-0.176	-0.255
-559.500	-1.880	-0.160	-0.114
-558.485	247.404	-0.031	0.053
-557.471	360.617	-0.085	0.173
-556.456	260.533	0.131	-0.229
-555.442	251.781	-0.175	-0.302
-554.427	21.861	-0.194	-0.160
-553.412	800.000	0.068	0.222
-552.398	-164.971	-0.202	-0.009
-551.383	-200.000	-0.038	-0.219
-550.369	23.829	0.157	0.131
-549.354	290.773	-0.078	0.143
-548.339	-55.374	-0.296	-0.135
-547.325	-200.000	0.008	0.035
-546.310	138.750	-0.119	0.159
-545.296	-121.113	-0.732	-0.124
-544.281	-43.710	0.401	-0.205
-543.266	-60.266	0.060	0.026
-542.252	800.000	-0.110	-0.372
-541.237	-132.293	0.250	-0.033
-540.223	-177.081	-0.301	0.008
-539.208	105.179	-0.139	-0.167
-538.193	-150.642	-0.251	-0.019
-537.179	742.831	0.074	0.200
-536.164	-161.397	-0.226	0.012
-535.150	-71.733	0.139	-0.052
-534.135	47.374	-0.055	0.052
-533.121	-15.584	0.379	0.245
-532.106	800.000	0.038	0.122
-531.091	-72.440	0.186	0.069
-530.077	-71.424	0.051	0.019
-529.062	-99.504	-0.106	0.027
-528.048	-124.622	0.205	-0.032
-527.033	-147.815	0.371	-0.031
-526.018	3.484	0.148	0.109
-525.004	-29.987	-0.373	-0.215
-523.989	-12.279	-0.324	0.214
-522.975	-52.350	0.152	-0.071
-521.960	-24.445	0.046	0.028
-520.945	800.000	-0.077	0.237
-519.931	-118.298	0.438	-0.079
-518.916	-154.802	0.343	0.023
-517.902	-200.000	-0.027	0.249
-516.887	-89.748	0.338	-0.100
-515.872	800.000	0.061	0.258
-514.858	-200.000	-0.011	0.462
-513.843	-118.973	-0.420	-0.074
-512.829	33.178	0.111	-0.097
-511.814	-101.241	0.276	-0.068
-510.799	58.805	0.234	-0.232
-509.785	250.393	0.050	-0.085
-508.770	56.882	0.151	0.149
-507.756	12.981	0.317	-0.248
-506.741	-32.688	0.192	0.108
-505.726	28.325	0.106	-0.091
-504.712	41.124	0.094	-0.086
-503.697	148.382	-0.048	0.065
-502.683	32.969	0.156	-0.137
-501.668	4.798	-0.051	0.038
-500.653	521.668	-0.043	-0.102
-499.639	-149.300	0.517	-0.042
-498.624	800.000	0.020	-0.076
-497.610	79.953	-0.140	-0.152
-496.595	-71.205	0.160	-0.061
-495.581	-200.000	0.026	-0.218
-494.566	-200.000	0.001	0.213
-493.551	-200.000	0.008	-0.147
-492.537	34.630	-0.376	-0.332
-491.522	114.854	0.132	-0.163
-490.508	-140.985	-0.197	0.020
-489.493	543.219	0.137	0.331
-488.478	-200.000	-0.014	-0.282
-487.464	-148.365	0.321	0.027
-486.449	-153.737	0.161	-0.011
-485.435	298.796	0.119	-0.221
-484.420	2.483	0.192	-0.141
-483.405	510.108	-0.036	-0.086
-482.391	-37.057	0.025	0.013
-481.376	-200.000	0.016	-0.129
-480.362	-200.000	0.058	-0.262
-479.347	60.463	0.091	-0.091
-478.332	-126.678	0.152	-0.023
-477.318	800.000	-0.097	0.289
-476.303	-76.851	-0.182	0.064
-475.289	-200.000	0.023	0.384
-474.274	313.849	0.225	-0.428
-473.259	-59.714	-0.358	0.155
-472.245	-134.246	0.328	0.041
-471.230	140.230	0.097	-0.129
-470.216	800.000	0.032	-0.133
-469.201	-70.172	0.213	0.082
-468.186	-92.842	-0.204	-0.058
-467.172	-200.000	0.058	-0.361
-466.157	800.000	0.057	-0.182
-465.143	800.000	-0.119	-0.388
-464.128	12.005	-0.102	0.079
-463.113	800.000	-0.070	-0.212
-462.099	80.668	0.029	-0.032
-461.084	-151.335	0.248	0.019
-460.070	12.270	-0.214	0.167
-459.055	348.253	-0.122	-0.243
-458.040	2.397	0.111	0.081
-457.026	-49.603	-0.101	0.048
-456.011	-200.000	-0.037	0.170
-454.997	31.059	0.148	-0.128
-453.982	-53.165	0.185	-0.086
-452.968	-200.000	-0.035	-0.208
-451.953	-3.748	-0.147	-0.103
-450.938	-25.625	-0.232	-0.138
-449.924	98.585	0.062	-0.072
-448.909	-200.000	-0.008	-0.068
-447.895	-93.753	0.151	-0.042
-446.880	800.000	-0.047	-0.136
-445.865	-200.000	-0.020	0.213
-444.851	-77.209	-0.207	0.073
-443.836	311.413	-0.086	-0.162
-442.822	-25.636	0.109	0.065
-441.807	-21.509	-0.068	0.042
-440.792	51.276	0.031	-0.030
-439.778	361.167	0.127	0.256
-438.763	-94.534	0.238	-0.065
-437.749	168.286	-0.114	-0.164
-436.734	67.013	-0.201	0.206
-435.719	-200.000	-0.029	0.172
-434.705	-185.358	-0.358	0.006
-433.690	-157.955	-0.143	-0.009
-432.676	-10.337	-0.110	0.073
-431.661	800.000	0.054	0.170
-430.646	-142.721	-0.116	-0.011
-429.632	-70.709	-0.418	-0.159
-428.617	-200.000	-0.009	-0.280
-427.603	-200.000	-0.021	-0.363
-426.588	-14.230	-0.039	-0.025
-425.573	800.000	0.116	0.421
-424.559	521.951	0.091	-0.215
-423.544	16.158	0.200	-0.159
-422.530	94.076	-0.069	-0.078
-421.515	800.000	0.028	-0.078
-420.500	624.292	-0.118	-0.301
-419.486	-200.000	0.017	0.284
-418.471	-200.000	-0.004	-0.106
-417.457	-107.791	-0.286	-0.063
-416.442	-104.769	0.032	0.007
-415.428	-200.000	0.040	0.394
-414.413	273.993	0.118	-0.211
-413.398	-33.740	-0.287	-0.159
-412.384	69.661	-0.102	0.105
-411.369	112.564	-0.238	0.290
-410.355	-63.837	0.094	-0.039
-409.340	-200.000	-0.066	-0.298
-408.325	800.000	-0.061	0.206
-407.311	421.539	0.093	0.200
-406.296	800.000	0.030	0.096
-405.282	16.522	0.128	-0.102
-404.267	800.000	-0.118	0.454
-403.252	-200.000	0.025	0.244
-402.238	-200.000	-0.000	0.172
-401.223	-147.693	0.182	0.015
-400.209	-84.637	0.040	-0.013
-399.194	97.758	-0.064	-0.074
-398.179	513.146	-0.026	0.061
-397.165	-27.158	-0.131	-0.077
-396.150	-64.427	0.175	0.072
-395.136	-61.174	-0.162	0.069
-394.121	-49.506	0.225	0.108
-393.106	166.153	0.113	-0.161
-392.092	-43.885	-0.112	-0.057
-391.077	-175.946	-0.010	0.000
-390.063	171.329	0.124	-0.180
-389.048	-85.788	-0.206	-0.064
-388.033	234.870	0.160	-0.266
-387.019	-126.539	0.083	-0.012
-386.004	337.317	0.104	0.203
-384.990	76.387	0.065	0.069
-383.975	232.502	-0.119	0.197
-382.960	800.000	-0.064	0.183
-381.946	-37.974	-0.263	0.141
-380.931	185.010	-0.128	-0.191
-379.917	-115.839	-0.298	-0.056
-378.902	325.818	0.070	0.134
-377.888	-42.493	0.323	-0.165
-376.873	-200.000	-0.013	-0.294
-375.858	601.915	0.044	0.110
-374.844	-81.799	-0.315	0.104
-373.829	274.632	0.077	-0.137
-372.815	143.935	-0.038	0.051
-371.800	212.900	0.187	0.297
-370.785	-102.239	0.236	-0.057
-369.771	-42.402	-0.282	-0.145
-368.756	-200.000	0.005	-0.079
-367.742	33.878	0.144	-0.126
-366.727	-97.997	-0.072	-0.019
-365.712	199.569	0.141	0.217
-364.698	-155.493	0.110	-0.007
-363.683	800.000	0.002	-0.005
-362.669	-84.153	0.032	-0.010
-361.654	186.625	-0.143	0.213
-360.639	-67.434	-0.154	-0.061
-359.625	437.208	-0.117	-0.257
-358.610	67.310	0.307	0.315
-357.596	108.858	0.068	0.081
-356.581	372.410	-0.113	-0.231
-355.566	206.253	0.076	0.119
-354.552	455.489	0.066	-0.147
-353.537	-200.000	0.090	0.409
-352.523	800.000	0.027	-0.081
-351.508	-200.000	0.061	-0.268
-350.493	-73.694	-0.254	0.093
-349.479	-200.000	0.016	0.117
-348.464	800.000	-0.035	-0.141
-347.450	-92.708	-0.294	-0.083
-346.435	800.000	0.057	0.178
-345.420	-168.175	-0.417	0.016
-344.406	-130.769	-0.095	-0.013
-343.391	-32.720	-0.118	-0.066
-342.377	-200.000	0.015	-0.201
-341.362	-171.408	0.077	0.003
-340.348	-130.569	0.313	0.042
-339.333	-200.000	-0.034	-0.167
-338.318	617.671	0.014	0.034
-337.304	133.653	0.159	0.206
-336.289	73.993	0.190	0.200
-335.275	-51.036	0.121	0.057
-334.260	262.268	0.052	0.090
-333.245	-200.000	-0.022	0.136
-332.231	45.436	-0.310	0.287
-331.216	-126.012	-0.183	-0.028
-330.202	-83.419	0.226	0.073
-329.187	-57.223	-0.256	-0.113
-328.172	-200.000	0.006	0.238
-327.158	571.365	0.039	0.095
-326.143	80.527	0.124	0.134
-325.129	-66.358	0.117	0.047
-324.114	150.930	-0.102	-0.139
-323.099	-115.132	0.211	-0.040
-322.085	-195.150	0.044	-0.000
-321.070	-93.422	0.014	-0.004
-320.056	-142.885	0.414	0.040
-319.041	161.519	-0.131	0.184
-318.026	-200.000	-0.004	0.157
-317.012	800.000	0.087	-0.285
-315.997	-163.727	-0.368	0.017
-314.983	252.695	-0.129	0.222
-313.968	-173.534	-0.028	0.001
-312.953	-181.145	-0.427	0.009
-311.939	-200.000	0.001	0.368
-310.924	800.000	-0.021	-0.077
-309.910	205.754	-0.199	0.310
-308.895	-200.000	-0.032	0.155
-307.880	651.011	0.062	0.159
-306.866	347.993	0.057	0.113
-305.851	-200.000	0.038	-0.268
-304.837	14.003	0.054	0.042
-303.822	800.000	-0.034	0.134
-302.807	-148.695	0.170	-0.014
-301.793	100.271	-0.101	0.118
-300.778	126.257	0.108	-0.137
-299.764	-200.000	0.002	0.052
-298.749	-53.306	0.393	-0.181
-297.735	-200.000	-0.026	-0.153
-296.720	264.345	-0.196	0.342
-295.705	-200.000	-0.025	0.461
-294.691	432.001	-0.024	0.051
-293.676	76.967	-0.133	-0.142
-292.662	-200.000	-0.032	0.180
-291.647	-200.000	0.007	-0.040
-290.632	-200.000	-0.003	-0.121
-289.618	-34.753	0.122	0.067
-288.603	-49.703	-0.151	-0.072
-287.589	-39.741	0.387	-0.203
-286.574	203.012	-0.050	-0.077
-285.559	-200.000	-0.012	0.055
-284.545	-4.882	0.277	0.192
-283.530	-200.000	0.016	-0.283
-282.516	14.157	-0.178	0.139
-281.501	-100.209	-0.187	-0.047
-280.486	-200.000	0.003	-0.026
-279.472	92.047	-0.196	0.221
-278.457	230.346	0.072	0.118
-277.443	-40.512	-0.259	0.135
-276.428	52.120	-0.363	0.347
-275.413	7.083	0.161	0.120
-274.399	-53.696	0.157	-0.072
-273.384	800.000	0.057	0.182
-272.370	800.000	-0.024	-0.086
-271.355	447.608	-0.121	-0.267
-270.340	142.927	-0.215	-0.286
-269.326	-83.399	0.193	0.062
-268.311	321.487	-0.098	-0.186
-267.297	18.609	-0.220	-0.176
-266.282	-67.806	0.192	0.075
-265.267	800.000	-0.085	0.235
-264.253	145.437	-0.239	-0.321
-263.238	5.794	-0.285	0.211
-262.224	384.005	0.144	0.296
-261.209	476.865	0.126	-0.286
-260.195	-200.000	-0.045	0.407
-259.180	-74.836	0.067	0.024
-258.165	-137.152	-0.040	0.005
-257.151	91.029	0.154	0.173
-256.136	-48.940	-0.160	0.077
-255.122	800.000	-0.093	0.266
-254.107	123.450	0.151	0.190
-253.092	219.703	-0.111	-0.179
-252.078	-200.000	-0.058	0.254
-251.063	-17.180	-0.192	-0.121
-250.049	152.408	-0.149	0.204
-249.034	323.710	0.022	0.041
-248.019	42.406	0.179	0.163
-247.005	526.701	-0.139	-0.328
-245.990	800.000	-0.115	0.352
-244.976	-200.000	-0.009	-0.285
-243.961	-93.338	0.323	-0.090
-242.946	-63.214	-0.214	-0.088
-241.932	140.462	0.171	-0.226
-240.917	-11.249	-0.201	0.132
-239.903	-34.737	0.410	0.224
-238.888	-81.889	0.178	-0.058
-237.873	222.824	0.049	0.078
-236.859	162.838	-0.059	0.083
-235.844	319.314	0.145	-0.275
-234.830	800.000	-0.101	-0.279
-233.815	-180.246	-0.300	0.006
-232.800	69.079	0.178	0.183
-231.786	-142.193	0.174	0.017
-230.771	217.068	-0.125	-0.199
-229.757	48.437	-0.279	-0.261
-228.742	397.978	0.195	-0.409
-227.727	-200.000	-0.005	-0.139
-226.713	58.996	-0.154	-0.151
-225.698	65.289	0.103	0.104
-224.684	-71.317	0.344	-0.129
-223.669	65.158	0.275	0.278
-222.655	800.000	-0.111	-0.466
-221.640	130.824	-0.179	0.229
-220.625	-31.235	0.220	-0.124
-219.611	-200.000	0.029	-0.174
-218.596	65.519	0.053	-0.054
-217.582	465.465	-0.045	0.102
-216.567	-138.764	0.131	-0.014
-215.552	174.427	-0.121	-0.175
-214.538	-112.172	0.158	-0.032
-213.523	800.000	-0.041	0.147
-212.509	317.931	-0.097	0.183
-211.494	-79.477	-0.179	-0.061
-210.479	-106.573	0.404	-0.090
-209.465	-200.000	0.032	0.195
-208.450	282.109	0.030	0.054
-207.436	20.060	0.194	-0.156
-206.421	-51.983	-0.135	-0.063
-205.406	-200.000	-0.066	-0.329
-204.392	-14.086	-0.067	-0.043
-203.377	-161.040	0.015	0.001
-202.363	800.000	0.058	0.196
-201.348	109.894	-0.136	-0.162
-200.333	45.442	-0.064	0.059
-199.319	800.000	-0.148	0.425
-198.304	-200.000	-0.017	0.133
-197.290	243.535	-0.055	-0.091
-196.275	104.253	-0.126	-0.148
-195.260	-15.045	-0.090	0.058
-194.246	649.160	0.061	0.157
-193.231	-148.340	-0.189	-0.016
-192.217	-200.000	0.033	0.238
-191.202	-86.158	0.276	-0.085
-190.187	793.446	-0.016	0.045
-189.173	666.917	-0.092	0.238
-188.158	-10.039	-0.075	-0.049
-187.144	521.483	-0.058	-0.137
-186.129	-27.423	0.080	-0.046
-185.114	-96.718	0.090	-0.024
-184.100	387.523	-0.076	-0.158
-183.085	-138.252	0.076	0.008
-182.071	-101.271	0.102	0.025
-181.056	-183.518	-0.357	0.006
-180.042	129.113	-0.185	0.236
-179.027	-200.000	0.044	0.235
-178.012	127.672	-0.156	0.198
-176.998	106.018	0.046	0.054
-175.983	800.000	0.038	0.154
-174.969	-48.492	0.222	0.107
-173.954	-80.520	0.354	0.118
-172.939	69.284	-0.256	0.263
-171.925	106.882	-0.211	-0.250
-170.910	-200.000	0.035	-0.288
-169.896	195.301	0.032	0.048
-168.881	-7.531	0.095	0.064
-167.866	125.730	0.141	-0.177
-166.852	-200.000	-0.008	0.079
-165.837	274.134	-0.087	0.154
-164.823	262.718	-0.062	0.107
-163.808	-200.000	0.027	0.141
-162.793	-157.870	0.064	0.004
-161.779	-173.766	-0.437	-0.013
-160.764	-142.302	-0.073	0.007
-159.750	69.485	0.276	-0.284
-158.735	-51.358	0.092	-0.043
-157.720	128.466	-0.083	-0.105
-156.706	685.460	0.115	-0.299
-155.691	800.000	0.038	-0.138
-154.677	-200.000	0.001	-0.317
-153.662	504.968	0.072	0.167
-152.647	800.000	-0.027	0.095
-151.633	119.013	-0.249	0.307
-150.618	555.638	0.039	-0.093
-149.604	-200.000	0.002	-0.160
-148.589	-200.000	-0.055	0.242
-147.574	617.026	-0.170	0.426
-146.560	691.509	0.136	-0.355
-145.545	158.779	0.045	-0.063
-144.531	-91.993	-0.339	-0.096
-143.516	-45.738	-0.088	-0.044
-142.502	-39.568	-0.177	0.092
-141.487	29.159	0.334	0.282
-140.472	679.226	-0.061	0.157
-139.458	24.386	-0.118	0.098
-138.443	-110.646	-0.560	0.115
-137.429	-130.929	0.188	0.025
-136.414	-200.000	-0.005	0.191
-135.399	-19.473	0.339	0.209
-134.385	-191.037	0.066	-0.001
-133.370	-200.000	-0.000	0.091
-132.356	-200.000	-0.385	0.002
-131.341	-200.000	0.025	-0.171
-130.326	-200.000	-0.013	-0.131
-129.312	-200.000	0.039	-0.329
-128.297	-118.677	0.158	-0.028
-127.283	49.639	-0.251	0.236
-126.268	124.279	-0.133	0.167
-125.253	-95.517	-0.084	-0.022
-124.239	-162.547	-0.286	-0.014
-123.224	34.933	0.130	0.113
-122.210	172.640	0.160	-0.229
-121.195	-48.714	0.145	0.069
-120.180	37.134	0.220	-0.194
-119.166	488.835	0.066	0.150
-118.151	-61.954	0.032	-0.013
-117.137	-200.000	-0.028	-0.171
-116.122	-112.004	0.202	0.041
-115.107	239.382	-0.081	-0.133
-114.093	161.967	0.164	-0.229
-113.078	-40.062	-0.314	-0.163
-112.064	-184.101	-0.113	-0.002
-111.049	-48.762	-0.237	0.113
-110.034	193.313	-0.140	0.211
-109.020	-45.484	-0.305	0.150
-108.005	800.000	-0.107	-0.437
-106.991	-63.542	-0.141	0.057
-105.976	138.642	-0.186	0.243
-104.962	-70.701	0.204	0.077
-103.947	133.133	-0.295	-0.379
-102.932	-191.344	-0.135	-0.001
-101.918	-42.691	0.089	-0.045
-100.903	-33.787	-0.187	-0.103
-99.889	-200.000	-0.005	0.168
-98.874	216.265	-0.213	0.337
-97.859	48.527	-0.248	0.231
-96.845	-53.675	0.161	0.073
-95.830	-25.908	0.115	-0.068
-94.816	3.922	0.138	-0.100
-93.801	-74.565	-0.147	0.052
-92.786	-130.879	0.507	0.068
-91.772	-14.813	0.215	0.137
-90.757	-22.313	-0.184	-0.111
-89.743	800.000	-0.064	-0.262
-88.728	14.784	0.183	-0.142
-87.713	94.989	-0.037	0.042
-86.699	-200.000	-0.019	0.228
-85.684	-200.000	0.004	0.019
-84.670	-86.477	0.362	0.111
-83.655	-88.354	-0.113	0.033
-82.640	-200.000	-0.009	0.156
-81.626	-99.159	0.291	0.073
-80.611	-200.000	-0.163	-0.000
-79.597	800.000	-0.046	0.192
-78.582	-200.000	0.023	0.175
-77.567	-98.463	0.286	-0.073
-76.553	800.000	-0.036	-0.108
-75.538	-143.266	0.088	-0.008
-74.524	132.135	0.064	0.082
-73.509	800.000	-0.099	-0.382
-72.494	28.362	-0.180	0.152
-71.480	-181.912	-0.154	-0.003
-70.465	97.791	-0.189	0.216
-69.451	77.728	-0.270	0.286
-68.436	-91.745	0.067	-0.019
-67.422	7.118	0.125	0.093
-66.407	456.719	0.100	0.221
-65.392	5.655	0.113	0.083
-64.378	-200.000	-0.045	0.276
-63.363	52.621	-0.141	0.133
-62.349	-160.559	-0.255	-0.014
-61.334	63.177	-0.716	-0.713
-60.319	-200.000	-0.102	0.747
-59.305	-200.000	0.005	-0.726
-58.290	396.173	0.402	0.834
-57.276	397.046	0.769	1.597
-56.261	-200.000	81.318	496.420
-55.246	510.509	1334.215	3083.203
-54.232	151.147	2549.022	3445.243
-53.217	113.559	2205.774	2660.850
-52.203	50.608	1670.906	1570.504
-51.188	43.371	1404.476	1274.572
-50.173	40.010	1360.507	1214.020
-49.159	57.730	1400.270	1360.110
-48.144	63.879	1418.613	1416.094
-47.130	43.745	1378.789	1253.376
-46.115	39.873	1362.190	1214.486
-45.100	39.645	1357.767	1209.096
-44.086	39.619	1354.825	1206.268
-43.071	39.679	1352.764	1204.753
-42.057	39.590	1350.627	1202.260
-41.042	39.704	1348.561	1201.068
-40.027	39.718	1347.259	1199.947
-39.013	39.744	1345.390	1198.391
-37.998	39.755	1343.178	1196.437
-36.984	39.781	1341.632	1195.171
-35.969	39.707	1340.282	1193.475
-34.954	39.971	1337.868	1192.871
-33.940	39.803	1337.023	1191.058
-32.925	39.930	1335.781	1190.668
-31.911	39.982	1333.803	1189.175
-30.896	39.977	1332.050	1187.532
-29.881	39.960	1330.747	1186.219
-28.867	40.071	1329.266	1185.520
-27.852	39.985	1327.919	1183.756
-26.838	39.955	1326.319	1182.106
-25.823	39.853	1325.583	1180.793
-24.809	39.860	1323.833	1179.226
-23.794	39.858	1322.541	1178.014
-22.779	39.875	1320.696	1176.429
-21.765	39.932	1319.612	1175.756
-20.750	39.919	1318.273	1174.436
-19.736	39.883	1316.735	1172.806
-18.721	39.716	1315.942	1171.065
-17.706	39.748	1314.627	1170.039
-16.692	39.713	1313.518	1168.796
-15.677	39.737	1312.615	1168.086
-14.663	39.750	1311.480	1167.109
-13.648	39.764	1310.555	1166.321
-12.633	39.788	1308.928	1164.968
-11.619	39.738	1307.988	1163.795
-10.604	39.819	1307.081	1163.417
-9.590	39.789	1306.120	1162.335
-8.575	39.762	1305.476	1161.557
-7.560	39.754	1304.766	1160.832
-6.546	39.755	1303.740	1159.883
-5.531	39.763	1302.731	1158.985
-4.517	39.850	1301.651	1158.489
-3.502	39.759	1301.401	1157.686
-2.487	39.806	1299.907	1156.587
-1.473	39.647	1296.118	1152.242
-0.458	37.826	1280.047	1127.389
0.556	33.081	1258.386	1079.711
1.571	28.288	1261.912	1055.101
2.586	27.121	1276.469	1060.371
3.600	26.061	1265.390	1044.940
4.615	18.621	1188.873	941.020
5.629	7.018	1105.965	815.787
6.644	1.705	1082.247	771.354
7.659	1.376	1078.848	767.204
8.673	1.174	1078.157	765.626
9.688	1.136	1076.581	764.247
10.702	1.645	1075.442	765.934
11.717	8.560	1086.112	808.519
12.731	19.022	1101.197	873.040
13.746	23.548	1106.582	900.255
14.761	24.022	1107.129	903.026
15.775	24.087	1106.482	902.750
16.790	23.742	1105.676	900.264
17.804	23.685	1105.179	899.492
18.819	23.770	1105.122	899.796
19.834	23.881	1104.044	899.398
20.848	23.922	1104.130	899.597
21.863	24.025	1103.221	899.295
22.877	23.966	1102.553	898.372
23.892	23.796	1102.009	896.992
24.907	23.813	1101.214	896.354
25.921	23.802	1099.925	895.170
26.936	23.851	1098.541	894.209
27.950	23.753	1097.098	892.466
28.965	23.638	1095.085	890.174
29.980	23.750	1093.284	889.192
30.994	23.959	1092.437	889.468
32.009	23.884	1091.546	888.287
33.023	23.785	1090.233	886.648
34.038	23.790	1089.757	886.207
35.053	23.868	1089.436	886.259
36.067	24.004	1087.823	885.540
37.082	24.052	1087.494	885.437
38.096	24.213	1086.822	885.607
39.111	24.077	1086.234	884.378
40.126	24.118	1084.265	882.901
41.140	23.692	1082.687	879.425
42.155	23.569	1081.292	877.607
43.169	23.486	1080.895	876.797
44.184	23.620	1079.626	876.350
45.199	23.361	1078.527	874.105
46.213	23.522	1077.812	874.238
47.228	23.581	1077.171	873.932
48.242	23.813	1076.123	874.147
49.257	23.789	1075.397	873.365
50.271	24.030	1074.278	873.562
51.286	23.931	1073.825	872.629
52.301	23.961	1072.870	871.924
53.315	23.936	1071.749	870.811
54.330	23.830	1070.749	869.406
55.344	23.879	1070.519	869.380
56.359	23.826	1069.233	868.000
57.374	23.652	1068.331	866.340
58.388	23.699	1067.996	866.222
59.403	23.580	1067.128	864.861
60.417	23.518	1065.567	863.219
61.432	23.529	1065.292	862.971
62.447	23.766	1064.394	863.321
63.461	23.768	1063.866	862.824
64.476	23.728	1062.729	861.634
65.490	23.556	1061.783	859.958
66.505	23.574	1061.356	859.624
67.520	23.630	1060.619	859.222
68.534	23.419	1059.201	856.975
69.549	23.223	1058.162	855.113
70.563	23.230	1057.499	854.536
71.578	23.181	1056.603	853.498
72.593	23.032	1055.745	852.011
73.607	23.163	1054.776	851.784
74.622	23.468	1054.582	853.019
75.636	23.452	1054.042	852.431
76.651	23.372	1053.011	851.138
77.666	23.327	1052.143	850.144
78.680	23.213	1052.184	849.555
79.695	23.401	1050.981	849.411
80.709	23.413	1050.782	849.234
81.724	23.385	1049.695	848.142
82.739	23.495	1048.987	848.025
83.753	23.985	1048.282	849.719
84.768	24.189	1047.398	849.900
85.782	24.229	1047.083	849.762
86.797	24.156	1045.885	848.364
87.812	23.977	1045.250	846.926
88.826	24.039	1044.184	846.279
89.841	24.281	1042.646	846.107
90.855	24.063	1042.491	844.870
91.870	24.107	1041.111	843.885
92.884	23.958	1040.390	842.525
93.899	23.939	1038.881	841.136
94.914	24.079	1038.435	841.364
95.928	23.920	1037.015	839.388
96.943	23.775	1035.677	837.545
97.957	23.529	1034.883	835.670
98.972	23.453	1033.294	833.957
99.987	23.673	1032.787	834.508
101.001	23.993	1031.607	834.984
102.016	23.893	1031.283	834.176
103.030	23.692	1030.211	832.296
104.045	23.699	1028.623	830.972
105.060	23.516	1028.031	829.565
106.074	23.623	1027.904	829.887
107.089	23.924	1027.441	830.846
108.103	23.888	1025.839	829.310
109.118	23.652	1024.439	827.005
110.133	23.657	1023.423	826.137
111.147	23.344	1022.403	823.786
112.162	23.350	1021.710	823.180
113.176	23.643	1020.644	823.608
114.191	23.394	1020.268	822.079
115.206	23.152	1019.057	819.906
116.220	23.103	1018.508	819.166
117.235	23.318	1017.240	819.067
118.249	23.250	1016.776	818.307
119.264	23.138	1015.897	817.011
120.279	23.281	1014.890	816.787
121.293	23.401	1014.194	816.707
122.308	23.391	1013.553	816.076
123.322	23.242	1012.133	814.173
124.337	23.102	1011.326	812.807
125.352	22.648	1009.192	808.941
126.366	22.515	1008.725	807.884
127.381	23.243	1008.345	810.845
128.395	23.626	1007.879	812.152
129.410	23.920	1006.928	812.656
130.424	23.737	1005.869	810.892
131.439	23.835	1004.499	810.164
132.454	23.947	1003.835	810.067
133.468	23.806	1003.128	808.782
134.483	23.907	1002.691	808.819
135.497	24.064	1001.407	808.426
136.512	24.142	1000.619	808.071
137.527	24.168	999.954	807.581
138.541	24.082	999.137	806.462
139.556	24.086	998.277	805.711
140.570	24.165	997.577	805.432
141.585	24.268	996.474	804.938
142.600	24.087	995.510	803.272
143.614	24.327	994.703	803.630
144.629	24.424	993.951	803.389
145.643	24.329	992.553	801.758
146.658	24.175	990.777	799.565
147.673	24.097	989.969	798.490
148.687	23.882	989.197	796.835
149.702	23.698	988.503	795.381
150.716	23.842	987.129	794.849
151.731	23.955	986.219	794.550
152.746	24.189	986.060	795.395
153.760	24.369	985.099	795.353
154.775	24.253	984.606	794.369
155.789	24.131	983.817	793.119
156.804	24.205	983.081	792.784
157.819	24.269	981.813	791.977
158.833	24.410	981.329	792.139
159.848	24.269	980.149	790.493
160.862	24.208	979.297	789.467
161.877	24.183	978.375	788.541
162.892	24.316	977.374	788.254
163.906	24.244	976.121	786.855
164.921	24.199	974.934	785.629
165.935	24.139	974.734	785.135
166.950	24.346	973.086	784.650
167.964	24.223	972.568	783.622
168.979	23.981	971.460	781.595
169.994	24.048	970.494	781.043
171.008	24.203	970.232	781.446
172.023	24.176	969.238	780.454
173.037	24.200	968.043	779.530
174.052	23.946	967.040	777.542
175.067	23.867	966.686	776.844
176.081	23.988	966.091	776.827
177.096	23.948	965.514	776.117
178.110	23.620	964.410	773.734
179.125	23.622	963.522	772.959
180.140	23.644	963.125	772.669
181.154	23.829	962.899	773.227
182.169	24.073	962.411	773.826
183.183	24.259	962.481	774.621
184.198	24.116	960.950	772.700
185.213	24.130	960.153	772.049
186.227	24.194	959.698	771.897
187.242	24.279	958.745	771.425
188.256	24.106	958.148	770.130
189.271	24.249	957.153	769.879
190.286	23.985	956.381	768.051
191.300	23.315	954.873	763.886
192.315	22.566	953.048	759.134
193.329	22.481	952.869	758.558
194.344	23.529	953.052	763.148
195.359	24.016	953.120	765.228
196.373	24.196	952.669	765.571
197.388	24.038	951.913	764.216
198.402	24.167	951.176	764.113
199.417	24.183	950.314	763.422
200.432	23.896	949.417	761.405
201.446	23.718	948.451	759.798
202.461	23.754	948.099	759.605
203.475	22.800	946.833	754.449
204.490	22.120	945.136	750.125
205.504	23.016	945.566	754.225
206.519	23.602	945.355	756.490
207.534	23.745	945.245	756.946
208.548	24.153	944.546	758.053
209.563	23.948	943.662	756.405
210.577	23.933	942.805	755.591
211.592	24.267	943.161	757.228
212.607	24.223	941.651	755.761
213.621	24.212	941.373	755.425
214.636	24.216	940.564	754.726
215.650	24.124	939.907	753.743
216.665	24.320	939.368	754.072
217.680	24.225	938.417	752.841
218.694	23.833	937.197	750.140
219.709	23.794	936.314	749.203
220.723	23.962	936.259	749.803
221.738	24.084	935.601	749.720
222.753	23.963	934.889	748.575
223.767	24.171	934.362	748.961
224.782	24.346	934.180	749.487
225.796	24.303	933.774	748.915
226.811	23.827	931.759	745.237
227.826	23.108	930.621	741.247
228.840	23.269	930.318	741.613
229.855	23.407	929.519	741.491
230.869	22.918	928.605	738.648
231.884	23.434	928.737	740.845
232.899	24.128	928.508	743.496
233.913	24.016	927.814	742.409
234.928	24.076	927.083	742.007
235.942	24.001	926.565	741.214
236.957	23.686	925.586	739.056
237.972	23.647	925.513	738.768
238.986	23.790	924.444	738.447
240.001	23.854	923.705	738.057
241.015	23.907	923.372	737.945
242.030	24.009	923.012	738.015
243.045	24.219	922.289	738.240
244.059	24.246	922.001	738.057
245.074	24.038	921.144	736.445
246.088	23.688	919.988	734.008
247.103	24.176	919.247	735.366
248.117	24.460	919.857	736.961
249.132	24.747	919.129	737.500
250.147	24.876	918.503	737.463
251.161	25.051	918.189	737.867
252.176	24.950	917.651	736.951
253.190	25.015	917.184	736.781
254.205	25.296	916.353	737.202
255.220	24.982	916.191	735.714
256.234	24.988	915.183	734.865
257.249	24.936	914.302	733.880
258.263	24.870	913.805	733.146
259.278	25.063	912.812	733.076
260.293	25.064	912.278	732.583
261.307	25.051	911.834	732.110
262.322	24.792	910.948	730.278
263.336	24.020	908.762	725.314
264.351	22.900	907.289	719.516
265.366	23.193	906.427	719.959
266.380	24.169	907.058	724.367
267.395	24.572	907.044	725.930
268.409	24.487	906.472	725.065
269.424	24.739	905.887	725.555
270.439	24.772	905.386	725.223
271.453	24.754	905.039	724.808
272.468	24.871	904.813	725.038
273.482	25.073	903.985	725.128
274.497	24.789	902.521	722.740
275.512	24.378	901.473	720.179
276.526	24.852	901.274	721.870
277.541	24.923	901.467	722.244
278.555	24.720	900.519	720.603
279.570	24.496	899.867	719.116
280.585	24.745	899.083	719.430
281.599	24.641	898.084	718.149
282.614	24.130	897.010	715.172
283.628	24.000	896.605	714.265
284.643	24.424	896.200	715.582
285.657	24.051	894.621	712.762
286.672	23.734	894.235	711.126
287.687	24.306	894.131	713.267
288.701	24.434	893.660	713.339
289.716	24.132	892.860	711.434
290.730	23.943	892.308	710.176
291.745	23.731	890.964	708.199
292.760	24.151	891.013	709.849
293.774	24.984	891.357	713.376
294.789	25.329	890.976	714.381
295.803	25.245	890.629	713.706
296.818	25.464	889.557	713.656
297.833	25.079	888.546	711.254
298.847	24.713	888.047	709.341
299.862	25.089	887.788	710.562
300.876	25.524	887.349	711.867
301.891	25.114	886.761	709.713
302.906	24.803	885.749	707.609
303.920	25.000	885.437	708.077
304.935	25.264	885.154	708.831
305.949	25.278	884.425	708.238
306.964	24.997	883.886	706.635
307.979	25.057	883.633	706.606
308.993	25.371	883.078	707.341
310.008	25.456	882.321	707.005
311.022	25.196	881.501	705.261
312.037	25.056	880.879	704.154
313.052	24.941	879.995	702.931
314.066	23.956	878.166	697.550
315.081	23.712	877.620	696.096
316.095	24.700	877.657	699.936
317.110	24.930	878.055	701.091
318.125	24.131	876.321	696.521
319.139	23.062	874.868	691.128
320.154	23.011	874.349	690.460
321.168	24.089	874.222	694.505
322.183	24.687	874.835	697.263
323.197	24.811	874.659	697.543
324.212	25.164	874.070	698.389
325.227	25.206	873.581	698.098
326.241	25.058	872.861	696.887
327.256	24.905	872.273	695.761
328.270	24.913	871.244	694.911
329.285	24.609	870.491	693.069
330.300	24.471	869.632	691.786
331.314	24.714	869.462	692.532
332.329	25.071	869.547	693.921
333.343	25.246	869.327	694.363
334.358	25.274	868.454	693.711
335.373	25.284	868.103	693.410
336.387	25.414	868.391	694.079
337.402	25.640	868.225	694.758
338.416	25.433	867.655	693.442
339.431	25.637	867.165	693.776
340.446	25.864	867.030	694.480
341.460	25.614	866.594	693.106
342.475	25.567	865.603	692.073
343.489	25.521	865.925	692.094
344.504	25.876	865.257	692.862
345.519	25.908	864.697	692.475
346.533	26.156	864.280	693.033
347.548	25.929	864.019	691.889
348.562	25.959	863.360	691.418
349.577	25.803	862.717	690.240
350.592	25.868	862.026	689.877
351.606	25.872	861.183	689.159
352.621	25.836	860.098	688.091
353.635	25.792	859.074	687.044
354.650	25.091	858.180	683.594
355.665	24.140	856.791	678.803
356.679	24.654	855.931	680.021
357.694	24.977	856.101	681.323
358.708	24.862	855.614	680.438
359.723	25.305	855.422	681.908
360.738	25.609	854.963	682.637
361.752	25.691	854.418	682.453
362.767	26.068	853.958	683.453
363.781	26.228	853.717	683.807
364.796	26.346	853.161	683.746
365.810	26.444	853.206	684.092
366.825	26.382	852.584	683.297
367.840	26.159	851.676	681.667
368.854	25.759	850.696	679.313
369.869	25.580	850.618	678.518
370.883	25.686	849.787	678.194
371.898	25.646	849.647	677.870
372.913	25.679	849.081	677.482
373.927	25.754	848.929	677.583
374.942	25.969	848.230	677.775
375.956	26.033	847.846	677.649
376.971	26.253	847.625	678.237
377.986	26.476	847.207	678.680
379.000	26.385	846.875	678.014
380.015	26.097	845.929	676.116
381.029	26.114	845.747	675.973
382.044	26.342	845.202	676.333
383.059	26.247	844.368	675.250
384.073	26.249	843.832	674.769
385.088	26.170	843.276	673.971
386.102	26.048	842.492	672.827
387.117	26.058	841.682	672.159
388.132	25.700	840.535	669.853
389.146	25.271	839.783	667.599
390.161	25.463	839.552	668.070
391.175	25.942	839.509	669.758
392.190	25.755	838.274	668.019
393.205	24.309	836.384	661.095
394.219	22.885	834.363	654.169
395.234	22.774	834.538	653.838
396.248	24.429	835.695	660.820
397.263	25.839	836.716	666.794
398.278	25.757	836.185	666.007
399.292	25.590	835.537	664.815
400.307	25.731	834.955	664.812
401.321	25.595	834.523	663.909
402.336	26.067	834.273	665.392
403.350	26.400	834.753	666.946
404.365	26.727	834.106	667.575
405.380	27.010	833.788	668.303
406.394	27.144	832.969	668.078
407.409	26.995	832.360	666.986
408.423	26.887	832.458	666.608
409.438	26.968	831.976	666.458
410.453	26.883	831.548	665.745
411.467	26.969	830.650	665.284
412.482	27.125	830.534	665.704
413.496	27.020	830.186	664.980
414.511	26.966	829.783	664.402
415.526	27.020	829.168	664.047
416.540	26.882	828.532	662.974
417.555	26.624	827.978	661.530
418.569	26.738	827.158	661.234
419.584	26.746	826.782	660.903
420.599	26.576	826.119	659.696
421.613	98.325	1270.946	1397.213
422.628	85.030	1335.789	1397.341
