DTS Sentinel unit serial number:	SN413079Multiplexer serial number:	ORYXHardware model number:	OX4-SRSoftware version number:	ORYX F/W v4.00 Oryx Data Collector v3.7.2.0data status	okinstallation	princeton_trtdifferential loss correction	single-endedforward channel	channel 1reverse channel	N/Adate	2019/09/17time	22:38:35forward acquisition time	60.00reverse acquisition time	0.00gamma	496.2192k internal	0.2340k external	0.2340temperature offset calibration	0.9975default loss term (dB/km)	0.3790temperature slope calibration	1.0000multiplexer offset coefficient	1.0000multiplexer slope coefficient	1.0000fibre end	0.00T internal ref (°C)	25.19T ext. ref 1 (°C)	0.18T ext. ref 2 (°C)	18.53length (m)	temperature (°C)	Stokes	anti-Stokes-747.200	23.561	-0.288	-0.238
-746.185	74.230	-0.234	-0.246
-745.171	-31.369	0.247	-0.139
-744.156	675.319	-0.170	0.444
-743.142	-26.682	0.290	0.170
-742.127	-59.426	-0.223	-0.096
-741.112	112.049	0.071	0.086
-740.098	53.971	-0.431	0.416
-739.083	-200.000	-0.019	0.394
-738.069	454.237	-0.149	0.331
-737.054	-163.584	-0.045	0.002
-736.039	-199.350	-0.664	-0.004
-735.025	800.000	0.023	0.067
-734.010	800.000	0.054	-0.208
-732.996	-116.567	-0.378	-0.070
-731.981	-92.464	0.036	0.010
-730.966	800.000	-0.076	0.251
-729.952	330.861	0.055	-0.107
-728.937	-46.485	-0.369	-0.181
-727.923	146.774	0.119	-0.160
-726.908	-69.656	-0.138	0.053
-725.894	-172.351	-0.150	0.005
-724.879	-39.062	-0.132	0.070
-723.864	60.043	0.108	0.107
-722.850	-29.532	-0.085	0.049
-721.835	17.243	0.079	0.063
-720.821	-55.860	-0.393	-0.176
-719.806	213.215	0.157	-0.248
-718.791	-152.649	-0.545	0.039
-717.777	-200.000	0.040	-0.240
-716.762	-132.469	0.189	0.024
-715.748	-102.498	0.388	-0.093
-714.733	800.000	0.076	-0.211
-713.718	348.677	-0.211	-0.417
-712.704	72.236	0.039	-0.040
-711.689	-136.875	-0.073	-0.008
-710.675	75.629	0.222	-0.235
-709.660	46.722	-0.258	-0.239
-708.645	-97.423	-0.096	-0.025
-707.631	800.000	-0.044	-0.121
-706.616	-200.000	0.013	0.281
-705.602	63.602	0.352	0.354
-704.587	-14.489	-0.190	0.122
-703.572	89.773	0.206	-0.230
-702.558	17.975	0.274	0.219
-701.543	416.317	0.036	-0.078
-700.529	117.347	0.100	0.123
-699.514	-59.149	0.075	-0.032
-698.499	237.021	0.025	-0.041
-697.485	-156.354	-0.328	-0.021
-696.470	-200.000	-0.014	0.097
-695.456	-185.663	-0.092	0.001
-694.441	-176.816	-0.121	-0.003
-693.426	44.326	-0.295	0.271
-692.412	51.649	-0.244	-0.232
-691.397	102.674	0.008	0.010
-690.383	6.899	0.232	-0.173
-689.368	269.473	0.060	0.106
-688.354	717.805	-0.108	0.287
-687.339	-88.750	-0.252	0.075
-686.324	0.372	0.138	0.099
-685.310	-84.097	-0.359	-0.114
-684.295	-200.000	0.009	-0.313
-683.281	3.334	0.268	0.195
-682.266	800.000	0.052	0.159
-681.251	119.585	-0.085	-0.105
-680.237	50.799	0.036	-0.034
-679.222	-200.000	0.020	-0.119
-678.208	37.122	0.044	0.039
-677.193	-49.890	0.267	-0.127
-676.178	40.784	-0.186	0.168
-675.164	61.924	-0.109	-0.108
-674.149	50.787	0.109	0.103
-673.135	113.618	-0.282	0.342
-672.120	-200.000	0.008	-0.043
-671.105	-119.227	0.102	0.018
-670.091	-20.065	0.241	0.148
-669.076	-157.291	-0.124	0.007
-668.062	800.000	0.068	-0.231
-667.047	677.984	0.079	-0.206
-666.032	-61.137	0.034	0.014
-665.018	376.095	-0.095	-0.193
-664.003	-25.506	0.267	-0.157
-662.989	317.246	0.049	-0.093
-661.974	211.286	-0.083	0.131
-660.959	466.595	-0.109	0.245
-659.945	-83.429	-0.423	0.136
-658.930	800.000	0.016	0.071
-657.916	485.829	0.068	0.154
-656.901	-116.340	0.047	0.009
-655.886	-76.837	0.399	0.139
-654.872	-132.197	-0.295	0.038
-653.857	800.000	-0.224	-0.654
-652.843	160.271	-0.188	-0.262
-651.828	129.147	0.052	-0.067
-650.814	-143.361	-0.323	0.031
-649.799	-200.000	0.059	0.335
-648.784	-200.000	-0.086	0.386
-647.770	71.507	0.115	0.120
-646.755	-200.000	-0.010	0.414
-645.741	591.061	0.021	-0.052
-644.726	-88.974	0.192	-0.057
-643.711	-200.000	-0.012	0.251
-642.697	-200.000	-0.018	-0.232
-641.682	-7.166	0.144	0.098
-640.668	-200.000	-0.008	-0.198
-639.653	188.458	-0.057	-0.085
-638.638	55.318	0.279	0.269
-637.624	71.475	0.190	0.197
-636.609	-26.101	0.300	0.176
-635.595	11.000	-0.175	0.133
-634.580	-171.067	-0.045	0.002
-633.565	117.649	-0.140	-0.172
-632.551	373.180	-0.044	0.089
-631.536	94.560	0.231	0.262
-630.522	97.204	0.111	-0.127
-629.507	-76.250	-0.371	0.131
-628.492	800.000	-0.039	0.133
-627.478	257.525	0.092	-0.158
-626.463	-200.000	0.096	-0.448
-625.449	220.876	0.081	0.130
-624.434	42.152	0.084	-0.076
-623.419	21.398	-0.072	0.058
-622.405	-39.291	0.139	-0.073
-621.390	152.482	0.112	0.153
-620.376	308.886	-0.119	0.222
-619.361	-200.000	-0.282	0.000
-618.346	115.004	0.141	-0.171
-617.332	-36.897	-0.245	-0.131
-616.317	-200.000	-0.023	-0.293
-615.303	-23.393	-0.151	-0.090
-614.288	-118.602	-0.394	-0.069
-613.273	39.305	0.083	-0.074
-612.259	-200.000	-0.023	0.146
-611.244	-61.266	0.241	-0.101
-610.230	-200.000	0.010	-0.277
-609.215	-82.493	0.151	-0.049
-608.201	-200.000	-0.002	0.317
-607.186	-63.160	0.148	-0.061
-606.171	800.000	-0.026	-0.078
-605.157	-38.745	-0.126	0.066
-604.142	-109.664	-0.171	0.036
-603.128	-87.130	-0.068	-0.021
-602.113	800.000	-0.117	0.508
-601.098	-200.000	0.011	-0.157
-600.084	-77.818	-0.013	0.004
-599.069	-57.567	0.233	-0.102
-598.055	-200.000	0.000	0.234
-597.040	-120.336	0.169	0.029
-596.025	310.578	-0.187	0.349
-595.011	-200.000	-0.005	-0.052
-593.996	-87.350	0.122	-0.037
-592.982	-60.116	-0.245	0.104
-591.967	-200.000	0.072	0.482
-590.952	800.000	0.040	-0.135
-589.938	-200.000	-0.006	0.248
-588.923	800.000	-0.082	-0.263
-587.909	-101.919	0.185	-0.044
-586.894	65.892	-0.045	-0.046
-585.879	-39.672	0.262	0.137
-584.865	294.448	-0.099	-0.180
-583.850	164.078	-0.065	-0.091
-582.836	-104.148	0.168	0.039
-581.821	721.661	0.134	0.356
-580.806	-155.529	-0.128	0.008
-579.792	-200.000	-0.007	-0.323
-578.777	-200.000	0.042	-0.356
-577.763	-12.056	0.390	-0.255
-576.748	548.240	0.089	-0.213
-575.733	303.018	0.099	-0.182
-574.719	-14.228	0.088	-0.057
-573.704	-126.849	0.053	0.008
-572.690	-98.381	-0.110	-0.028
-571.675	73.257	-0.036	0.037
-570.661	-200.000	-0.023	0.251
-569.646	130.951	0.085	0.109
-568.631	-121.412	-0.291	-0.048
-567.617	800.000	-0.057	-0.193
-566.602	-80.847	-0.229	0.076
-565.588	-39.536	-0.230	0.120
-564.573	211.691	-0.059	-0.093
-563.558	-122.175	-0.133	-0.022
-562.544	78.240	0.161	0.171
-561.529	-65.581	-0.268	-0.107
-560.515	119.857	0.143	0.176
-559.500	-105.088	0.191	-0.044
-558.485	112.352	-0.199	0.240
-557.471	800.000	0.042	-0.154
-556.456	-200.000	0.078	-0.527
-555.442	45.088	0.079	-0.072
-554.427	-66.936	-0.125	0.049
-553.412	5.307	-0.028	0.021
-552.398	-200.000	0.018	-0.272
-551.383	-200.000	0.002	0.104
-550.369	-78.128	-0.279	0.095
-549.354	-18.507	-0.242	-0.150
-548.339	800.000	-0.097	0.418
-547.325	-40.935	-0.213	0.109
-546.310	98.633	0.129	-0.148
-545.296	-63.584	0.500	0.204
-544.281	-200.000	0.017	0.156
-543.266	-45.213	0.215	0.106
-542.252	-46.344	-0.118	0.058
-541.237	-200.000	0.036	-0.229
-540.223	-119.519	0.322	-0.055
-539.208	-118.161	0.133	0.024
-538.193	-59.878	0.153	0.065
-537.179	-101.616	0.306	0.074
-536.164	-200.000	0.007	0.087
-535.150	800.000	-0.053	0.151
-534.135	235.591	0.185	0.303
-533.121	-73.905	-0.312	-0.113
-532.106	-200.000	-0.006	-0.285
-531.091	-104.907	-0.329	-0.075
-530.077	-189.371	0.322	0.004
-529.062	-200.000	0.053	-0.289
-528.048	266.387	-0.120	-0.208
-527.033	32.015	-0.119	0.102
-526.018	-76.046	-0.087	0.030
-525.004	325.780	-0.131	0.248
-523.989	-200.000	0.107	-0.471
-522.975	317.489	0.064	-0.120
-521.960	-25.990	0.129	0.075
-520.945	-200.000	0.027	0.168
-519.931	394.569	-0.103	0.213
-518.916	-107.833	0.236	-0.051
-517.902	295.124	-0.045	0.083
-516.887	7.832	0.168	-0.125
-515.872	-200.000	-0.033	-0.202
-514.858	568.285	-0.069	0.166
-513.843	24.221	-0.203	0.166
-512.829	-108.673	-0.298	0.064
-511.814	-53.244	0.287	0.131
-510.799	116.964	0.074	-0.090
-509.785	285.259	-0.147	0.263
-508.770	231.069	0.071	-0.116
-507.756	14.981	-0.197	-0.154
-506.741	-79.709	-0.176	0.059
-505.726	-137.829	0.267	0.030
-504.712	302.741	0.048	-0.089
-503.697	-127.098	-0.133	-0.019
-502.683	362.754	0.094	-0.188
-501.668	30.038	-0.205	-0.174
-500.653	800.000	-0.060	-0.209
-499.639	32.883	0.140	0.120
-498.624	-110.825	-0.261	0.053
-497.610	-78.096	-0.138	0.047
-496.595	-113.385	-0.288	-0.056
-495.581	57.335	-0.168	-0.163
-494.566	-103.850	-0.458	-0.106
-493.551	800.000	0.062	0.211
-492.537	-71.093	-0.293	0.109
-491.522	53.517	0.153	0.145
-490.508	-75.497	-0.076	-0.027
-489.493	422.217	0.055	0.117
-488.478	257.521	-0.114	0.195
-487.464	-200.000	-0.010	-0.065
-486.449	-2.667	-0.111	-0.077
-485.435	605.007	0.108	0.267
-484.420	-61.193	0.043	-0.018
-483.405	-13.874	0.433	0.277
-482.391	165.870	-0.063	0.088
-481.376	168.330	0.218	-0.307
-480.362	561.528	-0.027	0.065
-479.347	357.988	-0.043	0.086
-478.332	3.072	-0.102	0.074
-477.318	-112.772	0.067	0.013
-476.303	800.000	0.037	-0.101
-475.289	-31.493	0.129	0.072
-474.274	800.000	0.104	0.415
-473.259	128.449	0.131	0.165
-472.245	105.737	0.190	0.223
-471.230	-200.000	-0.000	-0.409
-470.216	189.499	-0.162	-0.241
-469.201	-200.000	-0.066	0.342
-468.186	-97.947	0.340	0.087
-467.172	-107.569	-0.410	0.089
-466.157	800.000	-0.011	0.039
-465.143	91.620	-0.066	-0.074
-464.128	24.025	-0.116	-0.095
-463.113	800.000	-0.051	-0.142
-462.099	102.302	0.141	0.163
-461.084	156.015	0.112	-0.153
-460.070	-43.827	-0.324	-0.162
-459.055	12.781	0.300	0.230
-458.040	61.875	-0.096	0.094
-457.026	800.000	0.063	-0.271
-456.011	48.736	0.237	-0.220
-454.997	472.948	-0.121	-0.271
-453.982	-17.428	0.136	-0.085
-452.968	-200.000	-0.034	-0.192
-451.953	-200.000	-0.002	-0.089
-450.938	-200.000	0.020	0.097
-449.924	-83.189	0.318	0.101
-448.909	436.675	-0.023	0.049
-447.895	-5.039	0.094	-0.064
-446.880	-10.294	-0.101	0.067
-445.865	193.930	-0.154	-0.231
-444.851	-138.257	-0.267	0.029
-443.836	-119.815	-0.237	-0.040
-442.822	15.089	-0.231	0.179
-441.807	335.601	-0.098	0.189
-440.792	800.000	-0.070	0.215
-439.778	-84.819	-0.168	-0.052
-438.763	44.929	-0.169	-0.154
-437.749	284.275	-0.011	-0.019
-436.734	246.547	-0.227	-0.379
-435.719	-200.000	-0.030	0.218
-434.705	-78.712	0.036	0.012
-433.690	-120.458	0.190	0.032
-432.676	-200.000	-0.031	-0.209
-431.661	-51.706	0.187	0.086
-430.646	195.280	-0.121	0.183
-429.632	549.054	-0.096	-0.228
-428.617	-49.647	-0.352	0.166
-427.603	-99.165	0.150	0.037
-426.588	9.005	-0.017	0.013
-425.573	800.000	-0.067	0.248
-424.559	-146.315	0.656	0.057
-423.544	249.300	-0.055	0.092
-422.530	-200.000	-0.025	0.197
-421.515	-200.000	0.020	0.087
-420.500	394.624	-0.204	-0.421
-419.486	-200.000	0.031	-0.181
-418.471	-115.685	-0.276	0.051
-417.457	-63.666	0.184	-0.075
-416.442	-57.502	-0.356	0.155
-415.428	89.306	0.030	0.033
-414.413	510.094	0.078	0.179
-413.398	16.669	-0.263	-0.206
-412.384	500.570	0.207	0.473
-411.369	115.342	0.151	-0.183
-410.355	-67.228	-0.070	-0.027
-409.340	707.931	0.024	0.063
-408.325	-200.000	0.017	0.210
-407.311	-78.491	0.149	0.051
-406.296	-19.368	-0.125	-0.077
-405.282	-6.941	-0.175	-0.118
-404.267	-157.296	0.086	-0.005
-403.252	800.000	-0.037	0.158
-402.238	-200.000	0.011	-0.057
-401.223	-44.171	-0.122	-0.060
-400.209	79.255	-0.116	0.122
-399.194	36.956	-0.257	-0.225
-398.179	425.465	-0.115	0.244
-397.165	-200.000	-0.045	-0.282
-396.150	-141.732	0.189	-0.019
-395.136	-113.725	0.127	0.024
-394.121	800.000	-0.020	-0.059
-393.106	800.000	-0.050	0.215
-392.092	-24.919	0.232	-0.136
-391.077	800.000	-0.032	0.111
-390.063	-190.106	-0.301	0.003
-389.048	21.697	-0.218	0.175
-388.033	-200.000	-0.031	0.240
-387.019	165.307	0.131	-0.183
-386.004	212.552	-0.206	-0.321
-384.990	800.000	0.081	-0.299
-383.975	-186.050	0.374	-0.005
-382.960	-116.106	-0.173	-0.032
-381.946	88.380	-0.046	-0.050
-380.931	-5.075	-0.282	-0.192
-379.917	-72.570	-0.046	-0.017
-378.902	27.079	0.424	-0.352
-377.888	-200.000	-0.006	-0.089
-376.873	-103.216	0.061	0.014
-375.858	220.709	-0.166	0.264
-374.844	-141.777	-0.329	-0.033
-373.829	-24.006	-0.095	-0.056
-372.815	-169.865	0.136	-0.005
-371.800	-94.465	-0.109	-0.029
-370.785	180.790	0.113	-0.164
-369.771	-82.864	0.040	0.013
-368.756	-200.000	0.066	0.373
-367.742	73.479	-0.251	0.259
-366.727	179.251	0.176	0.254
-365.712	-108.136	-0.251	0.054
-364.698	-24.307	-0.315	-0.186
-363.683	-200.000	0.011	0.241
-362.669	-14.800	-0.265	-0.168
-361.654	31.250	-0.243	-0.206
-360.639	239.957	-0.008	-0.014
-359.625	800.000	-0.021	0.058
-358.610	269.690	-0.136	0.236
-357.596	800.000	0.009	0.032
-356.581	72.323	-0.186	0.191
-355.566	-41.309	-0.228	0.116
-354.552	-47.808	-0.120	-0.058
-353.537	-200.000	-0.007	0.191
-352.523	-163.995	-0.206	-0.009
-351.508	-0.925	-0.180	0.125
-350.493	-55.580	0.171	-0.076
-349.479	189.125	0.169	0.250
-348.464	800.000	0.054	0.184
-347.450	-200.000	0.044	0.197
-346.435	-54.030	0.182	-0.082
-345.420	-137.830	0.287	0.032
-344.406	-163.521	-0.252	0.012
-343.391	128.022	0.042	0.052
-342.377	800.000	0.114	0.341
-341.362	-36.841	0.210	-0.111
-340.348	-200.000	-0.188	0.000
-339.333	103.468	-0.240	0.277
-338.318	8.407	-0.063	-0.046
-337.304	143.313	-0.054	0.071
-336.289	-27.420	-0.178	0.102
-335.275	800.000	-0.112	-0.462
-334.260	16.390	0.116	-0.090
-333.245	189.851	0.070	0.104
-332.231	-79.813	-0.158	-0.052
-331.216	-58.574	0.299	-0.128
-330.202	-76.336	0.281	0.098
-329.187	587.750	0.069	0.169
-328.172	-158.321	0.172	-0.010
-327.158	-161.802	-0.037	-0.002
-326.143	551.757	0.107	-0.253
-325.129	80.102	-0.286	0.303
-324.114	215.311	0.156	-0.245
-323.099	800.000	0.057	0.163
-322.085	-192.448	-0.219	-0.002
-321.070	126.117	0.136	-0.170
-320.056	-44.855	-0.119	0.058
-319.041	-41.209	-0.464	-0.236
-318.026	-61.001	0.109	-0.045
-317.012	80.202	-0.042	-0.044
-315.997	-134.453	0.477	-0.058
-314.983	800.000	0.052	-0.162
-313.968	-200.000	-0.001	-0.226
-312.953	486.076	0.031	-0.070
-311.939	-200.000	0.033	-0.217
-310.924	800.000	0.129	0.433
-309.910	-20.595	0.170	-0.103
-308.895	-184.413	-0.108	-0.002
-307.880	244.406	-0.113	0.186
-306.866	-200.000	-0.000	-0.143
-305.851	-123.729	0.170	0.026
-304.837	-113.523	-0.387	-0.075
-303.822	-70.563	0.119	-0.044
-302.807	-200.000	0.035	0.197
-301.793	-63.947	0.132	0.053
-300.778	-200.000	0.002	-0.185
-299.764	-9.836	-0.156	0.103
-298.749	800.000	-0.036	0.124
-297.735	-111.031	-0.171	-0.035
-296.720	800.000	0.079	-0.255
-295.705	28.025	-0.131	-0.109
-294.691	213.619	-0.111	-0.173
-293.676	564.868	-0.090	-0.216
-292.662	-146.999	0.296	-0.025
-291.647	-117.848	0.097	0.017
-290.632	-133.544	-0.061	-0.008
-289.618	264.486	-0.120	0.206
-288.603	-88.120	0.235	0.069
-287.589	-3.595	0.144	-0.099
-286.574	-172.458	-0.160	-0.005
-285.559	800.000	0.020	-0.065
-284.545	19.804	-0.221	-0.175
-283.530	199.799	0.106	0.160
-282.516	-172.718	0.229	-0.007
-281.501	76.394	-0.091	-0.094
-280.486	-200.000	-0.004	-0.024
-279.472	141.226	-0.098	-0.128
-278.457	119.661	-0.152	-0.186
-277.443	67.861	0.151	0.152
-276.428	242.571	-0.159	0.262
-275.413	-13.856	0.282	0.179
-274.399	67.790	0.117	0.118
-273.384	-171.282	-0.213	0.007
-272.370	-200.000	0.010	0.113
-271.355	800.000	-0.143	0.428
-270.340	164.968	0.017	-0.023
-269.326	-159.017	0.296	0.017
-268.311	-51.809	-0.201	-0.092
-267.297	-96.694	-0.120	-0.031
-266.282	176.402	-0.125	-0.178
-265.267	-140.120	-0.236	0.024
-264.253	32.196	0.108	0.092
-263.238	-16.433	-0.421	-0.262
-262.224	-36.522	-0.234	-0.124
-261.209	-200.000	0.043	-0.331
-260.195	-56.522	0.386	-0.169
-259.180	20.028	0.144	-0.115
-258.165	647.562	-0.097	-0.245
-257.151	-200.000	-0.054	-0.295
-256.136	-200.000	0.005	0.052
-255.122	800.000	0.118	0.484
-254.107	146.816	0.167	0.220
-253.092	-200.000	0.026	-0.189
-252.078	147.768	0.208	-0.276
-251.063	419.468	0.051	-0.108
-250.049	194.493	0.056	0.084
-249.034	11.052	0.141	-0.106
-248.019	-39.408	-0.165	-0.085
-247.005	-154.598	0.099	-0.006
-245.990	-200.000	-0.008	-0.352
-244.976	800.000	-0.094	-0.365
-243.961	-135.458	-0.138	0.016
-242.946	493.521	0.093	0.209
-241.932	-56.011	-0.368	0.161
-240.917	-200.000	0.010	-0.278
-239.903	-119.603	-0.119	-0.020
-238.888	42.080	0.242	0.216
-237.873	-200.000	-0.005	-0.207
-236.859	-90.305	0.205	0.059
-235.844	120.719	-0.105	0.128
-234.830	-101.670	-0.419	0.100
-233.815	-101.766	0.151	-0.036
-232.800	14.331	0.142	0.109
-231.786	162.046	-0.176	0.242
-230.771	-36.083	-0.171	-0.091
-229.757	-86.429	0.301	-0.091
-228.742	800.000	0.080	-0.222
-227.727	398.959	0.170	-0.349
-226.713	87.443	0.085	-0.092
-225.698	-71.461	-0.190	-0.070
-224.684	-18.138	-0.266	0.164
-223.669	483.554	0.051	-0.113
-222.655	-200.000	-0.029	-0.282
-221.640	-71.862	0.287	0.105
-220.625	-78.138	0.220	-0.074
-219.611	7.476	-0.329	0.242
-218.596	-200.000	0.064	-0.289
-217.582	96.046	-0.159	0.178
-216.567	400.941	-0.072	0.149
-215.552	-15.222	0.089	0.056
-214.538	-93.436	0.187	0.051
-213.523	-200.000	0.025	0.145
-212.509	-200.000	-0.078	-0.477
-211.494	-15.561	-0.067	0.042
-210.479	76.462	0.084	-0.087
-209.465	-77.988	0.230	-0.078
-208.450	129.115	-0.026	0.032
-207.436	800.000	0.044	0.121
-206.421	-51.769	-0.052	-0.024
-205.406	-200.000	0.045	-0.258
-204.392	549.409	-0.130	-0.305
-203.377	490.792	0.114	-0.257
-202.363	97.481	0.238	0.269
-201.348	-175.181	0.423	0.011
-200.333	-18.497	-0.207	-0.127
-199.319	-196.211	-0.036	-0.000
-198.304	403.067	0.120	0.248
-197.290	694.010	0.104	-0.268
-196.275	-128.758	0.357	0.049
-195.260	-200.000	-0.052	-0.376
-194.246	309.334	-0.015	-0.028
-193.231	30.432	0.262	-0.219
-192.217	336.046	0.080	-0.152
-191.202	-46.268	-0.270	0.131
-190.187	-90.171	-0.086	0.025
-189.173	-79.753	0.158	-0.052
-188.158	217.184	0.222	0.347
-187.144	800.000	0.014	0.057
-186.129	70.835	0.111	0.112
-185.114	3.567	0.231	-0.165
-184.100	264.413	-0.141	-0.242
-183.085	-200.000	-0.003	0.267
-182.071	-200.000	0.033	0.314
-181.056	57.564	0.167	-0.160
-180.042	800.000	0.108	0.329
-179.027	6.267	0.137	0.100
-178.012	64.236	-0.287	0.283
-176.998	22.186	-0.116	-0.093
-175.983	-118.678	-0.327	-0.057
-174.969	149.088	0.299	0.397
-173.954	123.939	0.225	0.277
-172.939	800.000	0.116	-0.338
-171.925	145.351	0.063	0.083
-170.910	-96.296	0.303	-0.079
-169.896	-93.607	0.212	0.057
-168.881	-16.250	0.210	-0.131
-167.866	-165.053	-0.380	-0.017
-166.852	-107.403	-0.121	-0.026
-165.837	-137.543	-0.188	0.021
-164.823	-200.000	-0.014	-0.110
-163.808	16.381	-0.114	-0.088
-162.793	-93.606	0.352	0.095
-161.779	800.000	0.024	-0.072
-160.764	-200.000	0.059	-0.274
-159.750	383.696	0.087	0.175
-158.735	-200.000	-0.023	0.119
-157.720	-114.287	0.165	0.031
-156.706	-130.454	0.345	0.046
-155.691	800.000	0.136	-0.396
-154.677	-141.322	-0.036	0.004
-153.662	-200.000	0.067	0.342
-152.647	373.497	0.106	-0.212
-151.633	-72.110	0.105	0.038
-150.618	-200.000	0.008	0.101
-149.604	509.198	-0.088	-0.201
-148.589	354.816	-0.086	0.168
-147.574	618.421	0.053	0.130
-146.560	317.481	-0.132	0.245
-145.545	586.368	0.180	0.434
-144.531	321.113	-0.116	0.215
-143.516	-171.979	0.230	0.007
-142.502	800.000	0.049	-0.156
-141.487	9.795	-0.145	0.108
-140.472	-15.063	-0.119	-0.075
-139.458	-149.066	0.096	-0.008
-138.443	15.351	0.121	-0.093
-137.429	16.005	-0.263	0.202
-136.414	-200.000	-0.037	0.369
-135.399	-6.308	-0.131	0.087
-134.385	66.881	0.175	-0.174
-133.370	223.063	-0.077	-0.121
-132.356	-200.000	-0.420	0.001
-131.341	10.692	0.278	0.207
-130.326	-200.000	0.009	-0.219
-129.312	-104.799	-0.301	0.068
-128.297	-200.000	0.005	0.162
-127.283	-200.000	0.036	0.176
-126.268	-95.974	0.117	-0.030
-125.253	-35.063	0.244	0.130
-124.239	-32.417	-0.237	-0.129
-123.224	800.000	-0.068	-0.217
-122.210	-200.000	0.032	0.170
-121.195	-25.371	-0.178	0.103
-120.180	-17.715	0.084	-0.052
-119.166	800.000	0.016	0.046
-118.151	-116.159	0.155	0.028
-117.137	-38.457	-0.130	0.067
-116.122	19.383	0.368	-0.289
-115.107	-134.430	-0.105	-0.013
-114.093	800.000	0.070	0.262
-113.078	800.000	0.063	0.183
-112.064	0.699	0.174	0.122
-111.049	-71.748	-0.149	0.055
-110.034	-2.379	-0.141	-0.097
-109.020	-47.167	0.108	0.052
-108.005	-200.000	-0.046	0.257
-106.991	-64.641	-0.207	0.082
-105.976	390.715	0.017	0.035
-104.962	76.569	0.181	0.187
-103.947	-200.000	0.028	-0.165
-102.932	113.312	-0.351	0.417
-101.918	162.154	-0.145	-0.199
-100.903	800.000	0.092	-0.363
-99.889	-162.839	0.239	-0.011
-98.874	57.136	0.208	0.198
-97.859	-50.460	0.249	0.115
-96.845	800.000	-0.050	-0.173
-95.830	-134.312	-0.398	-0.048
-94.816	-142.567	-0.322	-0.031
-93.801	347.991	-0.124	0.239
-92.786	32.670	-0.179	-0.151
-91.772	-98.804	-0.195	0.049
-90.757	-192.447	-0.205	-0.002
-89.743	270.068	0.209	0.359
-88.728	-77.691	0.054	-0.018
-87.713	15.205	0.065	0.050
-86.699	-135.393	-0.135	0.016
-85.684	800.000	0.050	0.138
-84.670	-200.000	-0.037	0.181
-83.655	75.593	0.107	0.110
-82.640	99.865	0.104	-0.117
-81.626	-22.708	0.108	0.064
-80.611	31.096	-0.163	-0.136
-79.597	-114.680	0.129	-0.024
-78.582	145.794	-0.249	-0.326
-77.567	5.890	0.089	-0.064
-76.553	81.499	0.047	0.049
-75.538	-182.854	-0.290	0.005
-74.524	122.796	0.103	0.126
-73.509	249.932	0.069	-0.115
-72.494	111.387	0.318	-0.374
-71.480	-79.114	-0.335	-0.111
-70.465	-153.135	-0.137	0.009
-69.451	-42.722	-0.400	-0.199
-68.436	-200.000	0.014	0.249
-67.422	-103.642	0.378	-0.087
-66.407	-151.377	0.252	-0.018
-65.392	399.396	-0.107	-0.218
-64.378	-200.000	-0.070	0.401
-63.363	-200.000	-0.030	0.184
-62.349	-200.000	0.026	0.189
-61.334	102.348	-0.915	-1.044
-60.319	-15.587	1.106	0.689
-59.305	-200.000	-0.280	-1.702
-58.290	800.000	0.478	1.403
-57.276	800.000	0.492	1.414
-56.261	-200.000	120.682	617.719
-55.246	408.909	1534.754	3170.319
-54.232	148.643	2678.353	3531.429
-53.217	96.878	2125.957	2377.634
-52.203	35.951	1572.879	1350.426
-51.188	28.376	1320.539	1088.918
-50.173	25.668	1283.831	1042.935
-49.159	49.627	1349.572	1240.107
-48.144	48.040	1362.686	1242.633
-47.130	28.430	1311.815	1081.870
-46.115	25.355	1292.822	1048.243
-45.100	25.186	1288.025	1043.329
-44.086	25.017	1285.832	1040.530
-43.071	24.990	1283.588	1038.518
-42.057	24.973	1281.738	1036.878
-41.042	25.080	1280.128	1036.157
-40.027	25.040	1278.167	1034.297
-39.013	25.073	1276.604	1033.180
-37.998	25.068	1274.493	1031.403
-36.984	25.122	1272.921	1030.399
-35.969	25.277	1270.641	1029.404
-34.954	25.227	1269.217	1027.923
-33.940	25.186	1268.542	1027.100
-32.925	25.240	1266.636	1025.822
-31.911	25.282	1264.892	1024.611
-30.896	25.261	1263.693	1023.476
-29.881	25.246	1262.946	1022.745
-28.867	25.215	1261.646	1021.476
-27.852	25.312	1259.801	1020.495
-26.838	25.329	1258.761	1019.709
-25.823	25.249	1257.731	1018.378
-24.809	25.267	1256.197	1017.198
-23.794	25.276	1254.908	1016.168
-22.779	25.342	1253.310	1015.207
-21.765	25.258	1252.447	1013.990
-20.750	25.242	1250.881	1012.590
-19.736	25.162	1249.860	1011.276
-18.721	25.047	1249.109	1009.979
-17.706	25.280	1247.661	1010.077
-16.692	25.126	1246.307	1008.077
-15.677	25.269	1245.218	1007.957
-14.663	25.223	1243.985	1006.662
-13.648	25.092	1243.523	1005.513
-12.633	25.157	1242.485	1004.998
-11.619	25.264	1240.948	1004.315
-10.604	25.065	1240.961	1003.172
-9.590	25.104	1239.819	1002.428
-8.575	25.014	1238.840	1001.090
-7.560	25.083	1237.965	1000.731
-6.546	25.099	1236.967	999.972
-5.531	25.134	1236.193	999.503
-4.517	25.100	1235.473	998.694
-3.502	25.166	1234.156	997.957
-2.487	25.156	1233.328	997.192
-1.473	25.071	1228.781	993.002
-0.458	23.329	1213.850	971.356
0.556	18.095	1198.304	934.218
1.571	14.381	1204.696	918.679
2.586	13.597	1220.075	925.943
3.600	13.592	1208.012	916.679
4.615	9.764	1137.964	843.466
5.629	3.426	1066.311	759.153
6.644	0.455	1048.730	732.163
7.659	0.105	1047.343	729.435
8.673	0.076	1046.439	728.602
9.688	0.074	1045.134	727.620
10.702	0.428	1042.551	727.464
11.717	4.362	1046.897	749.453
12.731	11.535	1056.300	790.964
13.746	16.017	1061.938	816.888
14.761	16.905	1062.314	821.411
15.775	15.999	1061.022	815.951
16.790	15.072	1058.696	809.612
17.804	14.369	1057.009	804.855
18.819	14.070	1056.312	802.808
19.834	13.792	1055.368	800.681
20.848	13.495	1054.268	798.340
21.863	13.400	1053.522	797.248
22.877	13.204	1052.955	795.806
23.892	13.101	1052.388	794.808
24.907	13.156	1051.618	794.426
25.921	13.207	1050.927	794.076
26.936	13.248	1049.884	793.413
27.950	13.221	1049.044	792.580
28.965	13.314	1048.054	792.208
29.980	13.378	1046.181	791.027
30.994	13.407	1045.122	790.295
32.009	13.404	1044.423	789.684
33.023	13.404	1043.799	789.142
34.038	13.334	1042.775	787.961
35.053	13.387	1041.573	787.239
36.067	13.284	1040.940	786.201
37.082	13.361	1040.288	786.005
38.096	13.319	1039.596	785.212
39.111	13.319	1038.596	784.385
40.126	13.334	1037.402	783.487
41.140	13.147	1036.650	781.965
42.155	13.148	1035.398	780.957
43.169	13.210	1034.090	780.192
44.184	13.201	1032.877	779.166
45.199	13.215	1032.010	778.509
46.213	13.181	1030.658	777.259
47.228	13.251	1030.023	777.041
48.242	13.316	1028.745	776.313
49.257	13.358	1028.049	775.918
50.271	13.266	1027.331	774.874
51.286	13.268	1026.327	774.059
52.301	13.350	1025.656	773.867
53.315	13.268	1024.304	772.395
54.330	13.237	1023.411	771.510
55.344	13.188	1022.897	770.827
56.359	13.291	1021.803	770.412
57.374	13.198	1020.530	768.952
58.388	13.162	1019.670	768.071
59.403	13.248	1019.245	768.079
60.417	13.154	1018.339	766.895
61.432	12.892	1018.059	765.398
62.447	13.151	1016.818	765.601
63.461	13.044	1016.100	764.494
64.476	13.184	1015.025	764.266
65.490	13.016	1014.685	763.165
66.505	13.098	1013.891	762.878
67.520	13.093	1013.358	762.389
68.534	13.039	1012.673	761.554
69.549	13.253	1011.211	761.376
70.563	13.048	1010.741	760.011
71.578	13.219	1009.633	759.896
72.593	13.048	1009.227	758.738
73.607	12.956	1008.492	757.694
74.622	12.987	1007.806	757.253
75.636	13.010	1007.435	757.016
76.651	13.083	1006.443	756.537
77.666	12.986	1006.139	755.796
78.680	13.017	1005.216	755.177
79.695	13.064	1004.740	754.968
80.709	13.039	1003.956	754.197
81.724	13.094	1003.395	753.961
82.739	13.036	1002.925	753.278
83.753	13.232	1002.182	753.545
84.768	13.365	1000.742	753.000
85.782	13.377	999.898	752.356
86.797	13.254	999.345	751.315
87.812	13.244	998.329	750.437
88.826	13.283	997.258	749.743
89.841	13.262	996.603	749.088
90.855	13.153	995.629	747.796
91.870	13.386	994.723	748.103
92.884	13.319	993.754	747.007
93.899	13.369	993.192	746.746
94.914	13.402	992.363	746.205
95.928	13.422	991.555	745.619
96.943	13.279	991.122	744.586
97.957	13.351	989.752	743.812
98.972	13.417	988.934	743.429
99.987	13.414	988.075	742.702
101.001	13.411	987.064	741.864
102.016	13.339	986.238	740.856
103.030	13.409	985.447	740.512
104.045	13.342	984.857	739.703
105.060	13.304	983.869	738.725
106.074	13.257	983.190	737.937
107.089	13.273	982.211	737.212
108.103	13.175	981.567	736.223
109.118	13.229	980.572	735.655
110.133	13.229	979.910	735.090
111.147	13.152	978.835	733.881
112.162	13.335	978.057	734.043
113.176	13.243	977.605	733.230
114.191	13.185	976.754	732.272
115.206	13.176	976.030	731.622
116.220	13.347	974.916	731.481
117.235	13.248	974.086	730.355
118.249	13.427	972.963	730.238
119.264	13.289	972.592	729.286
120.279	13.299	972.197	728.971
121.293	13.289	971.204	728.117
122.308	13.270	970.326	727.312
123.322	13.182	969.439	726.195
124.337	13.257	968.488	725.747
125.352	13.227	967.371	724.715
126.366	13.173	966.037	723.414
127.381	13.345	965.105	723.404
128.395	13.193	964.446	722.184
129.410	13.194	963.641	721.519
130.424	13.312	962.506	721.119
131.439	13.284	961.667	720.306
132.454	13.343	961.314	720.233
133.468	13.329	960.201	719.276
134.483	13.357	958.994	718.431
135.497	13.297	958.634	717.837
136.512	13.313	957.800	717.220
137.527	13.371	956.623	716.525
138.541	13.186	956.529	715.588
139.556	13.313	955.659	715.423
140.570	13.281	955.224	714.896
141.585	13.419	953.990	714.506
142.600	13.518	953.199	714.276
143.614	13.599	952.256	713.858
144.629	13.623	951.095	713.028
145.643	13.630	950.504	712.551
146.658	13.574	949.588	711.562
147.673	13.500	948.623	710.457
148.687	13.463	947.957	709.739
149.702	13.457	947.415	709.242
150.716	13.574	946.447	708.958
151.731	13.444	946.125	708.096
152.746	13.426	945.361	707.386
153.760	13.512	944.961	707.389
154.775	13.466	944.491	706.779
155.789	13.550	943.542	706.366
156.804	13.662	942.353	705.889
157.819	13.560	942.029	705.151
158.833	13.558	941.548	704.717
159.848	13.678	940.190	704.149
160.862	13.714	939.171	703.477
161.877	13.622	938.465	702.498
162.892	13.607	937.568	701.700
163.906	13.614	936.914	701.177
164.921	13.680	935.868	700.613
165.935	13.627	935.102	699.750
166.950	13.656	934.084	699.052
167.964	13.634	933.194	698.229
168.979	13.580	932.617	697.510
169.994	13.612	931.413	696.683
171.008	13.633	930.866	696.299
172.023	13.773	929.971	696.156
173.037	13.695	929.357	695.307
174.052	13.756	928.650	694.974
175.067	13.817	927.827	694.549
176.081	13.616	927.636	693.503
177.096	13.692	927.110	693.367
178.110	13.782	926.415	693.164
179.125	13.685	925.825	692.255
180.140	13.786	925.328	692.246
181.154	13.809	924.694	691.803
182.169	13.858	924.332	691.677
183.183	13.978	923.753	691.682
184.198	13.885	922.630	690.390
185.213	13.873	922.089	689.878
186.227	13.944	921.371	689.574
187.242	13.942	920.683	688.990
188.256	13.982	920.089	688.647
189.271	14.052	919.396	688.358
190.286	13.833	918.735	686.898
191.300	13.841	917.776	686.154
192.315	13.803	917.255	685.544
193.329	13.783	917.111	685.294
194.344	13.853	916.276	684.898
195.359	13.997	915.482	684.839
196.373	13.992	915.157	684.515
197.388	14.058	914.291	684.075
198.402	14.126	914.100	684.153
199.417	13.997	913.813	683.347
200.432	14.171	912.760	683.213
201.446	14.038	912.451	682.376
202.461	14.232	911.862	682.670
203.475	14.153	911.525	682.035
204.490	14.154	910.610	681.294
205.504	14.191	909.293	680.400
206.519	14.149	909.191	680.091
207.534	14.056	908.659	679.253
208.548	14.151	907.647	678.825
209.563	14.143	907.078	678.308
210.577	14.215	906.697	678.256
211.592	14.338	905.652	677.914
212.607	14.415	904.803	677.530
213.621	14.219	904.149	676.186
214.636	14.175	903.981	675.822
215.650	14.302	902.838	675.423
216.665	14.330	902.248	675.034
217.680	14.324	901.786	674.604
218.694	14.291	901.401	674.125
219.709	14.301	900.481	673.417
220.723	14.400	899.715	673.183
221.738	14.410	898.738	672.432
222.753	14.412	898.346	672.089
223.767	14.513	897.861	672.072
224.782	14.390	897.649	671.358
225.796	14.458	896.955	671.055
226.811	14.531	895.841	670.455
227.826	14.528	895.419	670.067
228.840	14.551	894.439	669.370
229.855	14.455	893.959	668.566
230.869	14.325	893.160	667.387
231.884	14.578	892.495	667.846
232.899	14.422	891.759	666.610
233.913	14.435	891.171	666.165
234.928	14.467	890.461	665.700
235.942	14.516	890.047	665.528
236.957	14.484	889.663	665.058
237.972	14.491	888.858	664.424
238.986	14.550	887.977	663.940
240.001	14.614	887.208	663.562
241.015	14.523	886.680	662.744
242.030	14.619	885.858	662.454
243.045	14.578	885.716	662.125
244.059	14.610	885.054	661.700
245.074	14.623	884.686	661.418
246.088	14.682	883.666	660.829
247.103	14.659	883.119	660.274
248.117	14.797	882.556	660.336
249.132	14.855	881.900	660.016
250.147	15.014	880.824	659.782
251.161	14.902	880.391	658.955
252.176	14.942	879.591	658.459
253.190	14.898	879.517	658.170
254.205	14.968	878.939	657.956
255.220	14.938	878.142	657.181
256.234	14.994	877.147	656.600
257.249	14.863	876.772	655.744
258.263	14.945	876.428	655.752
259.278	14.931	875.525	654.966
260.293	15.111	874.754	655.034
261.307	14.990	874.452	654.278
262.322	15.170	873.923	654.527
263.336	15.148	872.947	653.651
264.351	15.340	872.222	653.798
265.366	15.141	871.734	652.599
266.380	14.989	871.360	651.670
267.395	15.188	870.533	651.769
268.409	15.265	869.540	651.267
269.424	15.283	868.758	650.695
270.439	15.188	868.344	649.956
271.453	15.155	867.449	649.102
272.468	15.160	867.556	649.143
273.482	15.231	866.549	648.609
274.497	15.201	865.657	647.765
275.512	15.239	865.149	647.475
276.526	15.264	864.843	647.287
277.541	15.383	863.860	646.954
278.555	15.234	863.799	646.276
279.570	15.363	862.751	645.930
280.585	15.413	862.371	645.781
281.599	15.442	861.388	645.097
282.614	15.425	860.841	644.568
283.628	15.236	860.615	643.617
284.643	15.398	859.861	643.615
285.657	15.427	858.993	643.018
286.672	15.358	858.573	642.385
287.687	15.588	857.511	642.413
288.701	15.355	857.270	641.284
289.716	15.426	856.778	641.133
290.730	15.584	856.311	641.328
291.745	15.573	855.643	640.730
292.760	15.537	855.165	640.178
293.774	15.508	854.882	639.798
294.789	15.634	853.517	639.199
295.803	15.640	852.880	638.687
296.818	15.587	852.087	637.836
297.833	15.536	851.395	637.068
298.847	15.569	851.134	636.943
299.862	15.476	850.485	636.047
300.876	15.789	849.772	636.644
301.891	15.711	849.469	636.066
302.906	15.712	848.694	635.434
303.920	15.802	848.176	635.328
304.935	15.960	847.170	635.116
305.949	15.786	846.902	634.200
306.964	15.841	846.404	633.980
307.979	15.864	845.901	633.632
308.993	16.012	845.472	633.812
310.008	15.892	845.029	632.973
311.022	15.909	844.336	632.463
312.037	15.957	843.713	632.120
313.052	15.752	843.429	631.082
314.066	15.887	842.724	631.005
315.081	15.867	842.118	630.419
316.095	16.006	841.403	630.349
317.110	15.833	841.218	629.506
318.125	15.738	840.475	628.539
319.139	15.800	840.181	628.498
320.154	15.909	839.402	628.266
321.168	15.979	838.952	628.133
322.183	15.882	838.276	627.209
323.197	15.972	837.739	627.088
324.212	15.899	837.769	626.785
325.227	15.934	836.940	626.237
326.241	15.944	835.969	625.495
327.256	16.088	835.529	625.641
328.270	15.983	834.839	624.683
329.285	16.031	834.106	624.256
330.300	15.942	833.789	623.634
331.314	16.056	833.747	623.970
332.329	15.967	833.054	623.067
333.343	16.124	832.527	623.199
334.358	16.226	831.867	623.025
335.373	16.071	831.940	622.452
336.387	16.205	831.294	622.407
337.402	16.063	831.477	621.964
338.416	16.167	831.252	622.127
339.431	16.326	830.324	621.963
340.446	16.115	830.474	621.241
341.460	16.235	829.737	621.078
342.475	16.495	829.236	621.603
343.489	16.388	828.706	620.758
344.504	16.399	828.288	620.432
345.519	16.540	827.618	620.390
346.533	16.315	827.688	619.561
347.548	16.400	826.910	619.236
348.562	16.399	826.354	618.764
349.577	16.347	825.591	617.947
350.592	16.376	825.235	617.731
351.606	16.286	824.734	616.974
352.621	16.351	823.431	616.182
353.635	16.388	823.341	616.192
354.650	16.450	822.494	615.733
355.665	16.649	821.708	615.811
356.679	16.439	821.160	614.582
357.694	16.612	820.454	614.630
358.708	16.567	819.814	613.932
359.723	16.565	819.522	613.651
360.738	16.486	819.056	612.960
361.752	16.647	818.278	612.908
362.767	16.616	818.222	612.701
363.781	16.617	817.340	611.988
364.796	16.733	817.077	612.159
365.810	16.724	816.432	611.588
366.825	16.742	816.090	611.342
367.840	16.855	815.425	611.197
368.854	16.824	815.138	610.815
369.869	16.694	814.690	609.960
370.883	16.820	814.134	609.943
371.898	16.829	814.072	609.873
372.913	16.690	813.765	609.091
373.927	16.851	812.982	609.027
374.942	16.753	812.838	608.515
375.956	16.903	812.286	608.584
376.971	16.809	811.844	607.865
377.986	17.061	810.967	608.055
379.000	17.069	810.548	607.717
380.015	16.994	810.244	607.166
381.029	17.022	809.720	606.821
382.044	17.007	808.884	606.088
383.059	17.083	808.545	606.052
384.073	17.085	808.026	605.614
385.088	16.963	807.489	604.722
386.102	16.941	806.948	604.186
387.117	17.019	806.309	603.932
388.132	17.009	806.018	603.624
389.146	17.009	805.383	603.097
390.161	17.055	804.861	602.816
391.175	17.136	804.817	603.016
392.190	17.141	803.944	602.328
393.205	17.019	803.717	601.673
394.219	17.017	803.587	601.512
395.234	17.023	802.856	600.935
396.248	17.153	802.166	600.826
397.263	17.132	801.787	600.413
398.278	17.095	801.177	599.773
399.292	17.216	800.944	599.972
400.307	17.176	800.328	599.319
401.321	17.138	799.997	598.883
402.336	17.327	799.322	598.990
403.350	17.336	799.207	598.883
404.365	17.272	798.889	598.367
405.380	17.228	798.268	597.694
406.394	17.235	797.899	597.388
407.409	17.287	797.494	597.215
408.423	17.406	797.294	597.430
409.438	17.416	796.456	596.783
410.453	17.475	795.693	596.368
411.467	17.511	795.502	596.298
412.482	17.558	795.412	596.339
413.496	17.527	795.125	595.966
414.511	17.610	794.744	595.918
415.526	17.450	794.214	594.908
416.540	17.593	793.908	595.126
417.555	17.507	793.067	594.140
418.569	17.556	792.769	594.035
419.584	17.637	792.303	593.918
420.599	17.624	792.016	593.603
421.613	113.735	1296.539	1484.661
422.628	97.839	1369.994	1484.754
