DTS Sentinel unit serial number:	SN413079Multiplexer serial number:	ORYXHardware model number:	OX4-SRSoftware version number:	ORYX F/W v4.00 Oryx Data Collector v3.7.2.0data status	okinstallation	princeton_trtdifferential loss correction	single-endedforward channel	channel 1reverse channel	N/Adate	2019/09/17time	19:02:35forward acquisition time	60.00reverse acquisition time	0.00gamma	496.2192k internal	0.2296k external	0.2296temperature offset calibration	0.9979default loss term (dB/km)	0.3790temperature slope calibration	1.0000multiplexer offset coefficient	1.0000multiplexer slope coefficient	1.0000fibre end	0.00T internal ref (°C)	40.36T ext. ref 1 (°C)	0.29T ext. ref 2 (°C)	28.72length (m)	temperature (°C)	Stokes	anti-Stokes-747.200	110.293	0.186	-0.228
-746.185	800.000	-0.033	0.103
-745.171	22.260	0.068	-0.057
-744.156	-200.000	0.025	-0.184
-743.142	-200.000	0.199	0.000
-742.127	7.241	-0.233	0.177
-741.112	-57.437	0.125	0.056
-740.098	44.508	-0.109	-0.103
-739.083	-58.004	-0.290	0.129
-738.069	800.000	0.068	0.238
-737.054	800.000	0.095	0.312
-736.039	-131.409	-0.400	0.054
-735.025	13.512	0.270	0.214
-734.010	800.000	0.090	-0.347
-732.996	216.290	-0.090	-0.146
-731.981	800.000	-0.037	0.133
-730.966	140.685	0.174	-0.234
-729.952	800.000	0.122	-0.348
-728.937	68.167	-0.178	0.186
-727.923	-82.635	0.088	0.029
-726.908	-200.000	0.012	-0.147
-725.894	-58.477	-0.217	-0.096
-724.879	-48.089	-0.254	-0.125
-723.864	141.315	0.257	-0.347
-722.850	-108.145	0.147	0.032
-721.835	283.520	0.127	-0.232
-720.821	800.000	-0.026	0.084
-719.806	-131.442	-0.495	-0.067
-718.791	112.497	-0.154	-0.191
-717.777	-200.000	0.018	0.175
-716.762	394.450	-0.109	0.231
-715.748	92.815	0.183	-0.211
-714.733	110.579	-0.124	-0.152
-713.718	-131.168	-0.293	0.040
-712.704	-63.664	-0.330	-0.138
-711.689	-147.098	-0.473	-0.041
-710.675	462.244	-0.100	-0.228
-709.660	-200.000	0.034	-0.257
-708.645	-200.000	0.043	-0.300
-707.631	-93.900	0.203	0.057
-706.616	-200.000	-0.002	0.236
-705.602	61.376	-0.138	0.140
-704.587	-146.916	-0.196	-0.017
-703.572	521.667	0.122	-0.292
-702.558	127.296	0.195	-0.253
-701.543	-30.533	-0.076	-0.044
-700.529	-26.774	-0.050	-0.030
-699.514	282.758	0.139	-0.254
-698.499	-200.000	-0.060	0.366
-697.485	-60.349	0.320	0.139
-696.470	23.699	-0.043	0.036
-695.456	-147.546	0.332	0.029
-694.441	51.751	-0.072	0.070
-693.426	331.640	-0.089	0.175
-692.412	467.373	0.075	0.171
-691.397	800.000	-0.065	0.248
-690.383	-135.305	-0.250	0.031
-689.368	800.000	0.034	-0.143
-688.354	-200.000	0.003	-0.039
-687.339	663.156	0.097	0.255
-686.324	-65.222	-0.157	-0.065
-685.310	1.938	0.161	-0.119
-684.295	-74.131	-0.376	-0.139
-683.281	38.959	0.135	-0.123
-682.266	80.156	-0.121	0.133
-681.251	-32.036	0.136	0.078
-680.237	225.856	-0.122	-0.202
-679.222	-200.000	-0.036	-0.248
-678.208	-200.000	0.021	-0.126
-677.193	90.384	-0.141	0.161
-676.178	-38.546	0.215	0.116
-675.164	-200.000	-0.036	-0.204
-674.149	-59.423	0.048	-0.021
-673.135	123.425	0.272	-0.348
-672.120	-200.000	0.023	0.173
-671.105	-167.699	-0.341	-0.014
-670.091	430.530	-0.135	0.298
-669.076	-76.576	0.406	-0.145
-668.062	383.052	0.053	-0.112
-667.047	-12.869	-0.125	-0.083
-666.032	-54.053	-0.328	0.152
-665.018	-200.000	-0.034	-0.270
-664.003	-54.972	0.026	0.012
-662.989	150.791	0.180	-0.250
-661.974	86.283	0.168	0.189
-660.959	441.714	0.081	0.181
-659.945	97.446	-0.211	0.247
-658.930	346.286	0.161	0.322
-657.916	-46.687	0.195	0.097
-656.901	-42.465	-0.262	-0.136
-655.886	55.024	0.160	0.157
-654.872	758.959	-0.038	-0.105
-653.857	3.352	-0.263	0.195
-652.843	-72.825	0.453	-0.170
-651.828	8.186	0.180	-0.138
-650.814	-32.979	0.192	-0.109
-649.799	-148.394	-0.358	-0.030
-648.784	-200.000	-0.019	-0.120
-647.770	-110.197	0.089	-0.019
-646.755	176.369	-0.036	-0.053
-645.741	800.000	0.083	0.234
-644.726	155.973	0.128	-0.180
-643.711	44.773	-0.332	-0.311
-642.697	-8.429	-0.132	0.090
-641.682	10.263	-0.181	0.140
-640.668	-36.873	0.101	0.055
-639.653	-6.453	0.165	0.115
-638.638	-46.533	-0.117	-0.058
-637.624	-174.450	0.379	-0.011
-636.609	-12.838	-0.227	0.151
-635.595	800.000	-0.084	0.344
-634.580	-39.703	-0.031	0.017
-633.565	-200.000	-0.058	0.295
-632.551	-30.196	0.329	0.190
-631.536	7.989	0.159	-0.121
-630.522	-153.743	-0.255	-0.018
-629.507	-200.000	-0.033	-0.167
-628.492	800.000	0.020	-0.072
-627.478	27.360	0.280	0.239
-626.463	-200.000	0.081	0.394
-625.449	-124.017	-0.377	-0.060
-624.434	127.558	-0.054	-0.070
-623.419	170.910	0.151	0.221
-622.405	-87.382	-0.367	-0.113
-621.390	-200.000	0.005	0.068
-620.376	-200.000	-0.024	-0.178
-619.361	-200.000	0.002	-0.068
-618.346	37.203	-0.131	0.118
-617.332	-200.000	0.028	0.130
-616.317	437.557	0.062	-0.137
-615.303	255.307	-0.096	-0.168
-614.288	-200.000	0.016	0.146
-613.273	305.358	0.028	0.052
-612.259	-29.170	0.167	0.097
-611.244	561.443	-0.031	0.075
-610.230	-200.000	0.027	-0.326
-609.215	-111.123	-0.204	-0.042
-608.201	800.000	-0.040	0.120
-607.186	-37.425	-0.136	0.074
-606.171	140.003	-0.235	0.314
-605.157	800.000	-0.056	-0.225
-604.142	-79.810	-0.198	-0.068
-603.128	-200.000	-0.016	-0.172
-602.113	151.555	0.033	0.045
-601.098	38.080	-0.052	0.047
-600.084	-200.000	-0.010	-0.113
-599.069	-7.660	0.060	-0.041
-598.055	-188.906	-0.472	0.006
-597.040	22.193	0.322	0.267
-596.025	399.579	0.081	0.172
-595.011	-145.620	0.193	0.018
-593.996	-200.000	0.055	-0.306
-592.982	13.472	0.124	0.098
-591.967	-200.000	0.290	-0.001
-590.952	391.416	0.106	-0.225
-589.938	-11.841	0.073	0.049
-588.923	17.738	-0.192	0.155
-587.909	-200.000	-0.033	0.159
-586.894	182.948	-0.216	-0.323
-585.879	175.139	0.075	-0.111
-584.865	-127.545	-0.375	-0.055
-583.850	393.789	-0.054	-0.115
-582.836	145.139	0.264	-0.359
-581.821	4.648	-0.110	0.082
-580.806	769.605	0.046	0.129
-579.792	-200.000	0.004	0.209
-578.777	800.000	0.012	-0.054
-577.763	37.630	0.150	0.135
-576.748	5.629	-0.075	0.056
-575.733	761.230	-0.029	0.079
-574.719	-144.022	-0.010	0.001
-573.704	379.542	-0.098	0.203
-572.690	150.107	0.052	0.072
-571.675	145.183	-0.097	-0.132
-570.661	-200.000	0.007	-0.465
-569.646	-29.861	-0.203	-0.118
-568.631	-200.000	-0.000	0.167
-567.617	683.128	0.143	0.379
-566.602	-3.513	-0.164	-0.116
-565.588	-200.000	0.007	-0.098
-564.573	-200.000	-0.015	-0.244
-563.558	-40.895	-0.259	-0.136
-562.544	376.983	-0.104	0.216
-561.529	800.000	-0.068	-0.292
-560.515	28.527	-0.077	-0.066
-559.500	-102.040	0.173	0.042
-558.485	-148.443	-0.155	-0.013
-557.471	-135.847	0.041	-0.005
-556.456	800.000	-0.061	-0.205
-555.442	85.845	0.305	0.340
-554.427	62.822	-0.188	0.190
-553.412	800.000	0.016	-0.063
-552.398	-200.000	0.006	0.159
-551.383	48.222	-0.128	-0.121
-550.369	-93.293	0.313	0.088
-549.354	103.951	-0.191	-0.228
-548.339	-28.617	-0.028	0.017
-547.325	-188.123	-0.288	0.004
-546.310	800.000	0.102	0.339
-545.296	-145.867	0.269	0.024
-544.281	-97.842	-0.213	0.056
-543.266	193.348	-0.133	-0.204
-542.252	-128.327	-0.368	0.053
-541.237	-154.390	0.497	-0.034
-540.223	-157.336	-0.331	-0.020
-539.208	120.270	0.136	-0.171
-538.193	-119.129	0.232	-0.041
-537.179	17.451	0.068	-0.055
-536.164	-14.353	-0.218	0.142
-535.150	-22.660	0.166	-0.102
-534.135	800.000	-0.073	-0.256
-533.121	65.520	0.320	-0.329
-532.106	52.428	0.192	-0.186
-531.091	-35.432	0.112	-0.062
-530.077	-78.982	0.071	0.024
-529.062	-41.531	0.118	-0.062
-528.048	79.500	0.204	0.221
-527.033	31.185	0.141	0.122
-526.018	258.311	-0.107	0.186
-525.004	-200.000	0.011	0.317
-523.989	243.575	0.237	-0.403
-522.975	318.924	-0.071	-0.135
-521.960	-200.000	-0.028	-0.280
-520.945	-70.149	-0.146	0.056
-519.931	211.118	-0.111	0.177
-518.916	114.372	0.121	0.149
-517.902	589.850	0.093	0.232
-516.887	40.771	-0.137	-0.125
-515.872	-189.232	-0.167	0.002
-514.858	-149.914	-0.292	-0.023
-513.843	800.000	-0.023	-0.086
-512.829	323.654	-0.015	-0.030
-511.814	-4.778	-0.061	-0.042
-510.799	159.865	-0.058	-0.082
-509.785	800.000	0.079	0.337
-508.770	66.790	-0.257	-0.265
-507.756	35.778	0.234	-0.209
-506.741	-0.586	0.298	-0.214
-505.726	-2.639	-0.235	0.167
-504.712	800.000	0.084	-0.305
-503.697	-33.373	-0.328	-0.184
-502.683	-200.000	0.016	0.172
-501.668	0.885	-0.251	-0.182
-500.653	1.501	0.166	-0.121
-499.639	254.194	0.095	0.165
-498.624	-172.769	0.048	0.002
-497.610	-78.956	0.077	0.027
-496.595	-200.000	0.014	-0.073
-495.581	450.154	-0.006	-0.014
-494.566	-34.370	0.094	0.052
-493.551	-60.474	0.485	0.208
-492.537	186.843	0.075	-0.113
-491.522	257.875	-0.113	0.196
-490.508	-24.767	0.236	-0.142
-489.493	14.846	-0.130	-0.103
-488.478	-200.000	0.004	-0.029
-487.464	46.005	0.197	0.185
-486.449	-200.000	0.024	-0.238
-485.435	65.373	-0.106	0.108
-484.420	-30.460	-0.122	0.070
-483.405	-93.658	0.300	0.084
-482.391	4.785	-0.325	-0.242
-481.376	-200.000	-0.025	-0.119
-480.362	-200.000	-0.046	0.207
-479.347	-125.254	0.211	0.033
-478.332	-45.045	0.148	0.074
-477.318	50.278	-0.171	0.163
-476.303	407.284	0.041	-0.088
-475.289	-91.040	-0.196	0.057
-474.274	-44.654	-0.260	0.131
-473.259	-106.969	-0.097	0.022
-472.245	-200.000	-0.019	0.210
-471.230	534.483	-0.032	-0.076
-470.216	-200.000	-0.008	0.256
-469.201	159.881	-0.060	-0.084
-468.186	32.424	-0.353	0.308
-467.172	158.033	-0.136	-0.191
-466.157	199.326	-0.061	-0.095
-465.143	-156.363	0.081	0.005
-464.128	-200.000	-0.032	0.372
-463.113	-200.000	0.003	-0.048
-462.099	-46.095	0.253	-0.126
-461.084	107.199	-0.105	0.126
-460.070	-125.503	0.295	0.045
-459.055	-12.361	0.061	0.041
-458.040	-85.965	0.346	-0.108
-457.026	657.338	0.117	-0.304
-456.011	172.421	-0.088	-0.128
-454.997	800.000	0.026	-0.078
-453.982	171.872	0.056	0.082
-452.968	114.427	-0.138	-0.170
-451.953	42.656	-0.155	0.142
-450.938	48.847	0.161	0.153
-449.924	-200.000	-0.288	-0.001
-448.909	463.017	0.026	0.059
-447.895	800.000	0.097	0.286
-446.880	-200.000	0.005	-0.337
-445.865	-99.620	0.154	0.039
-444.851	-105.868	-0.273	-0.062
-443.836	-52.577	0.212	-0.099
-442.822	800.000	0.173	-0.683
-441.807	411.616	-0.179	-0.383
-440.792	-103.591	-0.121	0.029
-439.778	-200.000	0.015	0.115
-438.763	622.636	0.052	0.131
-437.749	-33.707	0.117	0.065
-436.734	26.137	0.153	0.129
-435.719	800.000	0.023	0.081
-434.705	-78.368	0.067	-0.023
-433.690	-200.000	0.014	-0.144
-432.676	199.704	0.099	0.153
-431.661	-179.744	0.069	0.002
-430.646	178.187	0.141	0.208
-429.632	-61.896	0.236	0.100
-428.617	246.647	0.069	0.118
-427.603	-200.000	0.013	-0.350
-426.588	-73.904	-0.249	0.091
-425.573	196.007	-0.043	-0.067
-424.559	-200.000	-0.008	-0.237
-423.544	-66.745	-0.152	-0.061
-422.530	19.949	0.444	-0.361
-421.515	-31.059	-0.070	-0.040
-420.500	-200.000	-0.053	-0.261
-419.486	93.266	0.206	-0.235
-418.471	-69.539	-0.155	-0.060
-417.457	800.000	-0.011	-0.049
-416.442	-10.203	-0.394	-0.264
-415.428	-46.582	0.225	-0.111
-414.413	2.016	-0.017	0.012
-413.398	-200.000	0.544	0.001
-412.384	246.765	0.146	0.248
-411.369	41.668	-0.057	-0.052
-410.355	7.160	0.100	-0.075
-409.340	559.093	0.043	0.104
-408.325	-90.586	0.408	0.119
-407.311	-36.752	0.324	-0.176
-406.296	571.158	0.068	0.168
-405.282	-94.716	0.218	-0.060
-404.267	104.129	0.157	-0.186
-403.252	183.966	0.081	0.121
-402.238	163.516	0.167	-0.236
-401.223	67.422	0.086	-0.088
-400.209	-4.277	0.111	-0.077
-399.194	594.712	0.019	-0.046
-398.179	66.143	-0.273	-0.279
-397.165	-98.012	0.048	0.012
-396.150	-23.729	-0.101	0.061
-395.136	248.668	-0.145	0.248
-394.121	-75.726	0.286	-0.102
-393.106	-58.692	-0.152	-0.066
-392.092	-128.128	-0.028	-0.004
-391.077	-110.407	-0.176	-0.037
-390.063	43.152	-0.291	0.268
-389.048	-86.653	-0.392	-0.121
-388.033	650.821	-0.071	0.182
-387.019	374.432	0.075	0.153
-386.004	434.860	-0.011	0.023
-384.990	800.000	0.056	0.215
-383.975	185.861	0.133	0.199
-382.960	-200.000	-0.031	-0.214
-381.946	143.862	-0.030	0.040
-380.931	-34.544	0.124	0.068
-379.917	194.247	-0.151	0.231
-378.902	-57.099	0.308	0.137
-377.888	303.227	-0.121	0.226
-376.873	35.580	0.156	-0.138
-375.858	-35.704	-0.331	0.181
-374.844	-129.637	-0.242	0.034
-373.829	-141.715	-0.131	-0.013
-372.815	800.000	-0.035	0.110
-371.800	-159.849	0.050	0.003
-370.785	43.924	0.197	0.182
-369.771	215.371	0.094	-0.150
-368.756	-86.183	0.380	-0.118
-367.742	-200.000	-0.012	-0.199
-366.727	-67.215	0.157	0.062
-365.712	-94.405	-0.152	0.042
-364.698	209.975	-0.162	0.256
-363.683	182.849	0.158	0.235
-362.669	-168.482	0.138	-0.005
-361.654	704.839	-0.029	-0.077
-360.639	-100.863	0.351	0.087
-359.625	-200.000	0.013	0.211
-358.610	726.070	-0.060	-0.160
-357.596	-24.891	0.120	0.072
-356.581	-58.276	0.270	0.118
-355.566	-200.000	-0.018	0.108
-354.552	-16.972	-0.175	0.112
-353.537	-200.000	0.059	0.323
-352.523	-200.000	-0.022	-0.155
-351.508	-200.000	-0.024	-0.308
-350.493	429.051	-0.128	0.278
-349.479	-47.740	-0.127	0.062
-348.464	-166.351	-0.084	-0.004
-347.450	-200.000	-0.005	0.087
-346.435	-200.000	0.078	-0.379
-345.420	342.204	-0.052	-0.103
-344.406	258.323	0.115	0.199
-343.391	52.390	-0.127	0.122
-342.377	-168.186	-0.222	0.009
-341.362	-200.000	-0.009	0.047
-340.348	57.543	0.140	-0.138
-339.333	82.353	-0.141	0.154
-338.318	-200.000	-0.065	0.308
-337.304	-55.996	-0.142	-0.064
-336.289	97.240	-0.066	-0.077
-335.275	102.879	-0.055	-0.065
-334.260	114.323	0.157	-0.192
-333.245	-45.054	-0.305	-0.153
-332.231	-68.031	-0.179	-0.070
-331.216	-72.506	0.278	-0.103
-330.202	-81.139	0.330	0.110
-329.187	123.707	0.063	-0.079
-328.172	235.649	-0.169	-0.281
-327.158	-60.453	-0.415	0.177
-326.143	-91.549	-0.238	0.068
-325.129	273.885	0.121	0.215
-324.114	518.219	-0.185	0.435
-323.099	213.396	0.127	-0.201
-322.085	-200.000	0.005	0.110
-321.070	-35.681	-0.200	-0.109
-320.056	800.000	0.041	-0.169
-319.041	53.283	-0.130	-0.125
-318.026	-200.000	0.038	-0.190
-317.012	-200.000	-0.065	-0.519
-315.997	-200.000	-0.009	-0.083
-314.983	-113.682	0.312	0.061
-313.968	118.503	0.192	0.239
-312.953	-200.000	0.005	0.404
-311.939	-200.000	0.022	0.112
-310.924	463.387	0.113	-0.253
-309.910	-159.790	-0.155	-0.009
-308.895	-45.118	-0.290	0.145
-307.880	-42.131	-0.220	-0.113
-306.866	-30.513	-0.064	0.037
-305.851	110.655	-0.083	-0.101
-304.837	-77.783	0.436	0.151
-303.822	81.411	-0.172	0.187
-302.807	39.106	0.122	0.109
-301.793	12.557	-0.295	0.228
-300.778	42.178	0.037	0.033
-299.764	-20.885	0.381	0.234
-298.749	-169.065	0.470	0.018
-297.735	-134.882	-0.245	-0.030
-296.720	800.000	0.183	0.581
-295.705	-20.030	-0.150	-0.093
-294.691	-71.139	0.275	0.104
-293.676	2.212	0.119	-0.086
-292.662	-200.000	0.042	0.345
-291.647	-37.503	-0.125	-0.067
-290.632	-143.701	0.140	0.013
-289.618	-18.622	-0.087	-0.054
-288.603	-95.523	0.209	0.056
-287.589	-168.678	0.124	-0.005
-286.574	314.072	0.132	-0.249
-285.559	800.000	-0.043	0.142
-284.545	203.162	-0.076	-0.117
-283.530	450.120	0.091	0.201
-282.516	211.425	0.102	0.161
-281.501	20.370	-0.063	0.051
-280.486	72.883	-0.058	-0.061
-279.472	800.000	-0.050	0.164
-278.457	69.141	0.129	-0.133
-277.443	-84.938	0.231	0.073
-276.428	-30.278	-0.200	0.114
-275.413	30.280	-0.104	0.089
-274.399	100.857	-0.094	0.110
-273.384	-124.951	0.097	0.015
-272.370	-200.000	0.001	0.335
-271.355	113.925	0.106	0.129
-270.340	-50.634	0.263	-0.124
-269.326	453.174	0.061	-0.135
-268.311	-111.971	-0.276	-0.056
-267.297	-115.945	-0.267	0.050
-266.282	800.000	0.076	-0.214
-265.267	-157.731	0.053	0.003
-264.253	5.485	-0.121	-0.089
-263.238	304.794	-0.094	0.176
-262.224	-200.000	0.009	0.422
-261.209	-161.346	-0.201	0.010
-260.195	-200.000	0.029	0.165
-259.180	84.283	0.180	0.197
-258.165	-200.000	0.069	-0.441
-257.151	344.556	0.065	-0.127
-256.136	-101.090	-0.242	-0.059
-255.122	-67.473	0.119	0.047
-254.107	-141.908	0.370	0.037
-253.092	383.857	-0.169	0.348
-252.078	-174.576	-0.220	0.006
-251.063	800.000	0.005	-0.019
-250.049	-200.000	0.049	-0.253
-249.034	94.121	-0.186	0.212
-248.019	-200.000	-0.001	0.041
-247.005	-200.000	0.026	-0.229
-245.990	256.972	-0.249	0.429
-244.976	128.989	0.198	-0.254
-243.961	-37.446	0.162	-0.087
-242.946	439.133	-0.102	-0.223
-241.932	800.000	-0.046	0.146
-240.917	800.000	0.092	0.262
-239.903	462.681	0.091	0.203
-238.888	216.052	0.063	-0.100
-237.873	121.616	0.136	-0.169
-236.859	-102.269	-0.229	0.055
-235.844	129.081	0.150	-0.191
-234.830	-90.028	0.109	-0.032
-233.815	36.033	0.035	-0.031
-232.800	95.024	-0.126	-0.144
-231.786	800.000	-0.076	-0.321
-230.771	-38.777	0.088	-0.047
-229.757	-52.879	0.199	-0.092
-228.742	506.578	-0.122	0.284
-227.727	-200.000	0.019	-0.129
-226.713	31.046	-0.145	0.124
-225.698	-35.369	0.284	0.155
-224.684	116.611	0.059	0.072
-223.669	256.680	-0.077	-0.132
-222.655	-147.507	-0.167	-0.014
-221.640	800.000	-0.050	0.146
-220.625	39.391	0.175	0.157
-219.611	800.000	0.133	-0.402
-218.596	109.586	0.133	-0.160
-217.582	-169.657	-0.370	-0.013
-216.567	102.905	-0.148	0.173
-215.552	359.125	-0.154	0.307
-214.538	411.038	0.116	0.246
-213.523	-129.352	-0.308	0.043
-212.509	800.000	0.061	0.177
-211.494	39.970	0.154	-0.138
-210.479	800.000	-0.111	-0.462
-209.465	-43.045	-0.161	0.082
-208.450	-16.001	-0.091	-0.058
-207.436	73.938	-0.254	-0.266
-206.421	204.871	-0.157	-0.243
-205.406	245.450	-0.162	-0.273
-204.392	-153.359	-0.452	-0.031
-203.377	-48.871	0.088	-0.042
-202.363	800.000	0.097	0.313
-201.348	-38.500	0.365	-0.193
-200.333	-54.689	0.323	-0.146
-199.319	-200.000	0.087	0.491
-198.304	-103.102	-0.190	-0.045
-197.290	800.000	0.079	-0.299
-196.275	-200.000	0.040	-0.356
-195.260	-200.000	-0.000	-0.122
-194.246	-35.646	-0.155	0.084
-193.231	54.890	0.174	0.168
-192.217	-83.703	0.097	-0.031
-191.202	56.596	0.129	0.126
-190.187	-156.111	0.190	-0.012
-189.173	-30.473	0.189	0.107
-188.158	-48.795	0.175	0.084
-187.144	-3.068	0.192	0.134
-186.129	27.611	-0.208	0.175
-185.114	131.769	-0.141	-0.182
-184.100	-8.904	0.388	0.260
-183.085	-200.000	-0.001	0.011
-182.071	-200.000	0.068	-0.371
-181.056	-200.000	0.022	-0.193
-180.042	-6.466	0.120	0.082
-179.027	800.000	0.055	-0.153
-178.012	1.938	-0.282	-0.203
-176.998	-13.579	0.156	0.101
-175.983	-51.861	-0.196	-0.091
-174.969	-99.543	-0.164	-0.041
-173.954	46.945	0.102	0.095
-172.939	326.402	0.096	0.183
-171.925	128.295	-0.069	0.088
-170.910	-40.565	-0.327	-0.169
-169.896	-112.525	-0.216	-0.043
-168.881	171.803	0.067	-0.096
-167.866	-52.251	-0.143	-0.066
-166.852	-56.095	0.073	-0.032
-165.837	-16.709	-0.088	-0.056
-164.823	-200.000	0.009	-0.097
-163.808	141.383	-0.085	-0.113
-162.793	-133.376	0.110	-0.014
-161.779	800.000	0.104	-0.309
-160.764	-172.950	0.147	-0.005
-159.750	800.000	-0.056	0.175
-158.735	-175.277	-0.284	-0.008
-157.720	-200.000	-0.053	-0.287
-156.706	800.000	0.026	-0.102
-155.691	54.118	-0.230	-0.221
-154.677	-131.237	-0.086	0.011
-153.662	-179.993	-0.327	-0.007
-152.647	-170.079	-0.144	-0.005
-151.633	-200.000	0.015	0.256
-150.618	43.210	0.076	0.070
-149.604	-147.351	-0.466	-0.039
-148.589	5.441	-0.125	-0.092
-147.574	156.126	0.097	0.134
-146.560	73.125	-0.190	0.198
-145.545	-111.526	-0.089	0.018
-144.531	-106.930	-0.046	0.010
-143.516	800.000	-0.028	-0.120
-142.502	-200.000	0.037	0.185
-141.487	-200.000	-0.018	0.090
-140.472	-110.212	-0.336	-0.070
-139.458	315.386	0.130	-0.244
-138.443	40.302	0.059	-0.053
-137.429	39.343	0.280	-0.250
-136.414	16.571	-0.233	-0.184
-135.399	-200.000	0.014	-0.128
-134.385	-200.000	0.005	-0.259
-133.370	-134.751	0.315	0.038
-132.356	-0.671	-0.069	0.049
-131.341	-92.523	-0.164	0.046
-130.326	344.805	-0.050	-0.099
-129.312	81.857	-0.081	-0.088
-128.297	256.866	0.093	-0.159
-127.283	-54.721	0.085	0.038
-126.268	-74.568	0.173	-0.062
-125.253	137.325	-0.109	0.142
-124.239	75.484	-0.083	0.088
-123.224	-15.932	-0.150	-0.095
-122.210	153.889	-0.220	-0.301
-121.195	800.000	0.063	-0.236
-120.180	140.654	0.243	-0.320
-119.166	360.262	-0.076	-0.152
-118.151	373.903	0.022	0.044
-117.137	-185.276	0.162	-0.002
-116.122	-119.900	-0.162	-0.028
-115.107	-93.345	0.463	-0.128
-114.093	7.766	0.047	-0.035
-113.078	89.235	-0.109	0.121
-112.064	-70.896	-0.397	0.149
-111.049	-200.000	0.002	0.286
-110.034	600.769	-0.074	0.182
-109.020	-200.000	-0.003	0.077
-108.005	-89.949	0.260	-0.076
-106.991	84.180	0.237	0.258
-105.976	-200.000	0.037	0.238
-104.962	800.000	0.045	0.170
-103.947	-61.023	-0.061	-0.026
-102.932	326.606	-0.193	0.369
-101.918	-200.000	0.168	-0.001
-100.903	-47.621	0.339	0.164
-99.889	-86.039	-0.315	0.097
-98.874	234.285	-0.078	0.128
-97.859	-200.000	0.005	0.168
-96.845	-32.512	0.266	-0.148
-95.830	800.000	0.086	0.251
-94.816	-114.276	0.533	-0.102
-93.801	-130.500	0.209	0.028
-92.786	22.778	-0.028	-0.023
-91.772	-105.191	-0.087	0.020
-90.757	-200.000	-0.027	0.303
-89.743	-200.000	-0.053	0.349
-88.728	25.462	-0.072	0.059
-87.713	-133.890	0.154	-0.019
-86.699	-24.620	0.211	-0.125
-85.684	-48.612	-0.143	0.068
-84.670	800.000	-0.069	-0.200
-83.655	-38.106	0.104	0.055
-82.640	-200.000	0.016	0.121
-81.626	-200.000	0.067	0.297
-80.611	153.138	0.114	0.156
-79.597	-200.000	-0.015	-0.074
-78.582	-200.000	-0.007	-0.092
-77.567	-172.310	0.273	0.009
-76.553	-156.660	0.116	0.007
-75.538	555.621	-0.071	-0.171
-74.524	-153.482	0.424	-0.029
-73.509	284.436	-0.068	0.123
-72.494	-30.953	-0.227	-0.128
-71.480	305.601	0.135	-0.251
-70.465	-55.643	0.318	0.142
-69.451	-200.000	0.002	-0.157
-68.436	6.501	-0.155	0.115
-67.422	-200.000	-0.012	0.114
-66.407	-176.919	0.131	0.003
-65.392	615.932	0.039	0.097
-64.378	-200.000	-0.000	0.080
-63.363	-24.261	-0.155	-0.092
-62.349	-200.000	0.030	-0.157
-61.334	13.913	-0.923	-0.714
-60.319	278.115	0.161	0.286
-59.305	-200.000	0.054	-0.694
-58.290	800.000	0.208	0.846
-57.276	589.654	0.672	1.647
-56.261	-200.000	82.608	525.244
-55.246	536.868	1318.866	3114.881
-54.232	152.537	2533.322	3441.208
-53.217	114.711	2218.527	2689.650
-52.203	51.519	1678.712	1586.524
-51.188	43.770	1413.006	1286.370
-50.173	40.399	1369.136	1225.582
-49.159	58.552	1409.765	1376.066
-48.144	63.886	1428.452	1427.651
-47.130	44.277	1386.830	1265.504
-46.115	40.450	1369.986	1226.459
-45.100	40.246	1365.531	1221.163
-44.086	40.171	1362.981	1218.373
-43.071	40.076	1360.833	1215.823
-42.057	40.071	1358.944	1214.053
-41.042	40.180	1357.184	1213.102
-40.027	40.231	1355.889	1212.209
-39.013	40.374	1353.428	1210.838
-37.998	40.249	1351.858	1208.619
-36.984	40.345	1349.753	1207.276
-35.969	40.387	1347.928	1205.854
-34.954	40.416	1345.982	1204.239
-33.940	40.493	1344.739	1203.549
-32.925	40.546	1343.596	1202.798
-31.911	40.420	1342.413	1200.928
-30.896	40.586	1340.225	1199.924
-29.881	40.431	1339.265	1198.082
-28.867	40.434	1337.780	1196.721
-27.852	40.494	1335.840	1195.305
-26.838	40.495	1334.465	1194.030
-25.823	40.433	1333.327	1192.591
-24.809	40.388	1332.086	1191.167
-23.794	40.343	1330.646	1189.561
-22.779	40.426	1329.002	1188.538
-21.765	40.535	1327.696	1187.981
-20.750	40.445	1326.587	1186.397
-19.736	40.333	1325.245	1184.486
-18.721	40.283	1324.447	1183.422
-17.706	40.316	1322.774	1182.078
-16.692	40.411	1321.740	1181.673
-15.677	40.354	1320.571	1180.241
-14.663	40.335	1319.349	1178.994
-13.648	40.343	1318.474	1178.212
-12.633	40.357	1317.268	1177.166
-11.619	40.186	1316.671	1175.572
-10.604	40.226	1315.944	1175.117
-9.590	40.184	1314.685	1173.696
-8.575	40.208	1314.104	1173.272
-7.560	40.179	1313.035	1172.101
-6.546	40.282	1312.180	1171.898
-5.531	40.223	1311.216	1170.642
-4.517	40.277	1309.954	1169.789
-3.502	40.366	1308.952	1169.371
-2.487	40.317	1307.882	1168.080
-1.473	40.121	1303.335	1162.823
-0.458	37.268	1285.316	1130.124
0.556	29.154	1261.122	1066.134
1.571	22.603	1262.125	1028.795
2.586	20.291	1275.830	1026.213
3.600	19.254	1264.409	1010.861
4.615	14.151	1190.553	923.470
5.629	5.380	1110.495	815.703
6.644	0.624	1087.768	774.588
7.659	0.252	1085.124	770.733
8.673	0.128	1084.546	769.623
9.688	0.167	1082.906	768.590
10.702	0.448	1081.264	768.786
11.717	5.051	1087.746	796.887
12.731	13.031	1098.677	845.863
13.746	17.059	1103.092	869.875
14.761	17.077	1102.350	869.300
15.775	16.285	1100.401	863.639
16.790	15.045	1098.362	855.626
17.804	14.490	1096.528	851.288
18.819	14.086	1095.462	848.328
19.834	13.908	1094.244	846.404
20.848	13.520	1093.146	843.502
21.863	13.284	1092.501	841.728
22.877	13.215	1091.769	840.740
23.892	13.137	1091.021	839.693
24.907	13.121	1090.796	839.364
25.921	13.234	1089.399	838.786
26.936	13.160	1088.982	838.016
27.950	13.226	1087.443	837.094
28.965	13.244	1086.608	836.468
29.980	13.313	1085.464	835.859
30.994	13.375	1084.056	835.014
32.009	13.435	1083.144	834.543
33.023	13.344	1082.386	833.427
34.038	13.385	1081.295	832.719
35.053	13.298	1080.727	831.771
36.067	13.337	1079.504	830.950
37.082	13.312	1078.847	830.243
38.096	13.248	1078.540	829.615
39.111	13.168	1077.774	828.551
40.126	13.215	1076.079	827.411
41.140	13.170	1075.232	826.461
42.155	13.111	1073.914	825.078
43.169	13.130	1072.780	824.227
44.184	13.152	1071.700	823.437
45.199	13.094	1070.889	822.453
46.213	13.136	1069.851	821.789
47.228	13.104	1069.123	820.999
48.242	13.197	1067.957	820.494
49.257	13.198	1067.009	819.697
50.271	13.227	1065.796	818.836
51.286	13.268	1065.329	818.607
52.301	13.215	1064.255	817.450
53.315	13.137	1063.150	816.143
54.330	13.223	1062.182	815.753
55.344	13.151	1061.222	814.585
56.359	13.208	1060.523	814.259
57.374	13.209	1059.449	813.370
58.388	13.046	1058.709	811.925
59.403	12.996	1057.982	811.052
60.417	13.088	1056.811	810.533
61.432	13.094	1056.236	810.050
62.447	13.118	1055.117	809.237
63.461	13.089	1054.010	808.175
64.476	13.012	1053.450	807.295
65.490	12.968	1052.627	806.382
66.505	13.223	1051.289	806.530
67.520	13.062	1051.044	805.482
68.534	13.118	1050.060	804.931
69.549	13.122	1049.700	804.605
70.563	13.046	1048.826	803.491
71.578	12.998	1047.923	802.497
72.593	13.080	1047.018	802.129
73.607	13.003	1046.839	801.550
74.622	13.056	1046.049	801.131
75.636	13.096	1045.036	800.479
76.651	13.026	1044.452	799.622
77.666	12.995	1043.908	798.980
78.680	13.079	1043.141	798.732
79.695	12.997	1042.863	798.053
80.709	13.044	1042.344	797.811
81.724	13.061	1041.465	797.148
82.739	13.117	1040.962	796.965
83.753	13.307	1039.650	796.803
84.768	13.256	1038.662	795.732
85.782	13.362	1037.902	795.586
86.797	13.354	1036.679	794.541
87.812	13.280	1035.839	793.474
88.826	13.292	1034.701	792.589
89.841	13.234	1034.040	791.736
90.855	13.323	1033.043	791.327
91.870	13.315	1032.242	790.605
92.884	13.329	1031.493	790.030
93.899	13.325	1030.917	789.496
94.914	13.375	1029.848	788.849
95.928	13.450	1028.907	788.413
96.943	13.382	1028.021	787.344
97.957	13.431	1027.053	786.766
98.972	13.357	1026.338	785.797
99.987	13.267	1025.621	784.749
101.001	13.198	1024.694	783.646
102.016	13.253	1023.601	782.998
103.030	13.361	1022.749	782.788
104.045	13.256	1022.036	781.678
105.060	13.311	1021.020	781.092
106.074	13.131	1020.414	779.709
107.089	13.184	1019.137	778.911
108.103	13.211	1018.276	778.315
109.118	13.190	1017.199	777.322
110.133	13.146	1016.376	776.421
111.147	13.173	1015.266	775.629
112.162	13.262	1014.721	775.564
113.176	13.235	1014.100	774.892
114.191	13.287	1013.080	774.289
115.206	13.248	1012.229	773.385
116.220	13.169	1011.973	772.752
117.235	13.241	1010.818	772.137
118.249	13.255	1009.438	771.079
119.264	13.261	1008.852	770.593
120.279	13.094	1008.414	769.412
121.293	13.259	1007.299	769.260
122.308	13.141	1006.817	768.275
123.322	13.259	1005.448	767.711
124.337	13.097	1004.774	766.379
125.352	13.167	1003.673	765.793
126.366	13.328	1001.848	765.079
127.381	13.145	1001.325	763.764
128.395	13.180	1000.360	763.125
129.410	13.350	999.258	763.002
130.424	13.278	998.883	762.314
131.439	13.431	997.858	762.170
132.454	13.428	996.996	761.430
133.468	13.299	996.384	760.304
134.483	13.339	995.457	759.712
135.497	13.329	994.334	758.742
136.512	13.401	993.670	758.497
137.527	13.389	992.733	757.660
138.541	13.398	992.092	757.142
139.556	13.427	991.280	756.592
140.570	13.426	990.632	756.024
141.585	13.481	989.572	755.401
142.600	13.550	988.619	754.918
143.614	13.533	988.120	754.395
144.629	13.391	987.358	753.099
145.643	13.480	986.238	752.584
146.658	13.470	985.194	751.677
147.673	13.356	984.646	750.673
148.687	13.485	983.670	750.448
149.702	13.273	983.066	748.959
150.716	13.385	981.865	748.486
151.731	13.339	981.177	747.685
152.746	13.471	980.319	747.563
153.760	13.538	979.365	747.072
154.775	13.595	978.980	746.970
155.789	13.455	978.821	746.150
156.804	13.458	977.692	745.237
157.819	13.421	977.260	744.677
158.833	13.589	976.358	744.678
159.848	13.552	975.401	743.714
160.862	13.564	974.615	743.105
161.877	13.400	973.786	741.670
162.892	13.445	972.786	741.044
163.906	13.471	971.460	740.084
164.921	13.493	971.181	739.907
165.935	13.419	970.129	738.710
166.950	13.540	968.935	738.274
167.964	13.557	968.132	737.673
168.979	13.491	967.554	736.871
169.994	13.560	966.702	736.467
171.008	13.550	965.948	735.781
172.023	13.664	965.128	735.597
173.037	13.801	963.994	735.277
174.052	13.604	963.750	734.153
175.067	13.502	963.275	733.271
176.081	13.375	962.981	732.422
177.096	13.636	961.951	732.728
178.110	13.505	961.459	731.711
179.125	13.600	960.682	731.474
180.140	13.624	959.979	730.980
181.154	13.683	959.647	730.922
182.169	13.735	959.059	730.637
183.183	13.746	958.465	730.167
184.198	13.781	957.420	729.461
185.213	13.962	956.074	729.168
186.227	13.858	955.733	728.384
187.242	13.867	955.538	728.212
188.256	13.871	955.050	727.794
189.271	13.787	954.048	726.598
190.286	13.826	953.147	726.016
191.300	13.699	952.526	724.926
192.315	13.676	952.148	724.474
193.329	13.588	951.802	723.761
194.344	13.837	950.458	723.762
195.359	13.687	950.117	722.783
196.373	13.810	949.518	722.799
197.388	13.899	949.276	722.940
198.402	13.960	948.494	722.543
199.417	13.922	947.966	721.913
200.432	14.156	947.044	722.165
201.446	14.102	946.497	721.448
202.461	14.200	946.110	721.513
203.475	14.007	945.907	720.460
204.490	14.039	944.931	719.791
205.504	13.990	943.992	718.799
206.519	13.862	943.456	717.775
207.534	14.039	942.534	717.776
208.548	14.197	941.591	717.672
209.563	14.045	941.114	716.593
210.577	14.123	940.502	716.398
211.592	14.150	939.735	715.865
212.607	14.288	938.504	715.458
213.621	14.186	938.062	714.619
214.636	14.145	937.866	714.230
215.650	14.249	936.632	713.674
216.665	14.236	936.022	713.090
217.680	14.216	935.160	712.285
218.694	14.313	934.276	711.964
219.709	14.221	934.317	711.539
220.723	14.275	933.201	710.855
221.738	14.205	932.804	710.194
222.753	14.285	932.224	710.028
223.767	14.352	931.266	709.523
224.782	14.311	931.229	709.255
225.796	14.349	930.700	708.953
226.811	14.409	929.534	708.257
227.826	14.426	929.075	707.918
228.840	14.258	928.331	706.576
229.855	14.302	927.485	706.055
230.869	14.248	926.901	705.319
231.884	14.293	925.961	704.730
232.899	14.378	925.181	704.435
233.913	14.408	924.262	703.800
234.928	14.424	923.900	703.530
235.942	14.391	923.450	702.984
236.957	14.350	922.899	702.330
237.972	14.412	921.960	701.814
238.986	14.384	921.290	701.124
240.001	14.515	920.604	701.094
241.015	14.394	920.355	700.331
242.030	14.508	919.638	700.202
243.045	14.425	918.990	699.299
244.059	14.508	918.646	699.322
245.074	14.518	917.646	698.543
246.088	14.479	917.325	698.073
247.103	14.595	916.247	697.674
248.117	14.699	915.843	697.742
249.132	14.728	915.193	697.303
250.147	14.830	914.647	697.252
251.161	14.847	913.788	696.606
252.176	14.851	913.263	696.164
253.190	14.851	912.331	695.391
254.205	14.853	911.921	695.026
255.220	14.900	910.994	694.451
256.234	14.919	910.691	694.237
257.249	14.900	909.689	693.334
258.263	14.758	909.415	692.475
259.278	14.914	908.185	692.122
260.293	14.933	907.885	691.910
261.307	14.925	907.240	691.324
262.322	15.077	906.894	691.627
263.336	15.024	906.053	690.706
264.351	15.082	905.078	690.142
265.366	15.152	904.307	689.783
266.380	15.099	903.750	689.076
267.395	15.026	903.592	688.594
268.409	15.126	902.385	688.027
269.424	15.089	901.475	687.118
270.439	15.112	900.979	686.774
271.453	15.095	900.182	686.037
272.468	15.192	899.714	686.018
273.482	15.150	899.367	685.519
274.497	15.066	899.014	684.849
275.512	15.090	898.206	684.267
276.526	15.105	897.721	683.899
277.541	15.203	897.058	683.735
278.555	15.303	896.343	683.537
279.570	15.182	895.903	682.648
280.585	15.248	894.922	682.109
281.599	15.157	894.213	681.137
282.614	15.262	893.428	680.904
283.628	15.236	893.158	680.533
284.643	15.279	892.616	680.236
285.657	15.363	891.577	679.724
286.672	15.290	891.094	679.000
287.687	15.460	889.997	678.793
288.701	15.310	889.869	678.027
289.716	15.289	889.427	677.547
290.730	15.327	888.890	677.228
291.745	15.372	888.055	676.714
292.760	15.450	887.349	676.430
293.774	15.441	887.031	676.094
294.789	15.462	886.277	675.545
295.803	15.359	885.672	674.609
296.818	15.509	884.652	674.374
297.833	15.588	883.654	673.870
298.847	15.529	883.225	673.248
299.862	15.577	882.690	672.973
300.876	15.536	882.163	672.347
301.891	15.589	881.565	672.042
302.906	15.560	881.041	671.469
303.920	15.549	880.948	671.295
304.935	15.674	880.097	671.084
305.949	15.701	879.342	670.557
306.964	15.667	878.495	669.716
307.979	15.835	877.748	669.757
308.993	15.623	877.746	668.854
310.008	15.850	876.881	669.038
311.022	15.655	876.755	668.107
312.037	15.584	876.247	667.380
313.052	15.632	875.476	666.920
314.066	15.677	874.559	666.342
315.081	15.688	873.992	665.897
316.095	15.766	873.197	665.541
317.110	15.685	872.713	664.790
318.125	15.723	872.406	664.649
319.139	15.745	872.044	664.402
320.154	15.709	871.495	663.782
321.168	15.970	870.348	663.877
322.183	16.008	869.667	663.450
323.197	15.953	869.547	663.082
324.212	15.850	868.778	662.034
325.227	15.863	868.506	661.818
326.241	15.843	868.182	661.435
327.256	15.922	867.380	661.074
328.270	15.843	866.891	660.334
329.285	15.781	866.181	659.491
330.300	15.881	865.648	659.420
331.314	15.901	864.924	658.889
332.329	15.830	864.644	658.338
333.343	15.859	864.279	658.114
334.358	16.040	863.553	658.212
335.373	15.991	863.315	657.780
336.387	15.996	863.391	657.801
337.402	15.969	862.837	657.212
338.416	16.053	862.348	657.111
339.431	16.183	861.923	657.235
340.446	16.156	861.097	656.440
341.460	16.094	861.133	656.171
342.475	16.257	860.772	656.472
343.489	16.281	859.713	655.698
344.504	16.330	859.236	655.465
345.519	16.265	859.026	654.998
346.533	16.218	858.394	654.276
347.548	16.234	858.231	654.153
348.562	16.148	857.602	653.283
349.577	16.143	857.150	652.861
350.592	16.173	856.317	652.285
351.606	16.190	855.804	651.903
352.621	16.390	854.793	651.847
353.635	16.438	853.407	650.919
354.650	16.320	853.577	650.536
355.665	16.457	852.821	650.430
356.679	16.355	852.108	649.436
357.694	16.461	851.373	649.223
358.708	16.566	850.752	649.098
359.723	16.386	850.339	648.034
360.738	16.446	849.727	647.739
361.752	16.457	849.260	647.369
362.767	16.604	848.383	647.207
363.781	16.600	848.175	646.975
364.796	16.384	847.915	645.892
365.810	16.591	847.354	646.199
366.825	16.562	846.996	645.756
367.840	16.616	846.463	645.501
368.854	16.569	846.225	645.084
369.869	16.639	845.560	644.785
370.883	16.817	845.202	645.134
371.898	16.566	844.883	643.877
372.913	16.725	844.017	643.763
373.927	16.790	843.819	643.802
374.942	16.878	843.071	643.509
375.956	16.812	842.769	642.971
376.971	16.873	842.499	642.940
377.986	16.882	842.185	642.679
379.000	16.789	841.400	641.670
380.015	16.818	840.909	641.349
381.029	16.830	840.224	640.815
382.044	16.956	839.534	640.708
383.059	16.863	839.314	640.133
384.073	16.996	838.428	639.904
385.088	16.878	838.198	639.223
386.102	16.854	837.438	638.497
387.117	16.942	836.725	638.227
388.132	16.908	836.231	637.666
389.146	16.992	835.811	637.608
390.161	16.989	835.296	637.147
391.175	16.901	834.798	636.381
392.190	17.003	834.243	636.284
393.205	16.871	833.788	635.385
394.219	16.953	833.328	635.284
395.234	16.933	833.123	634.998
396.248	16.905	832.417	634.300
397.263	17.039	831.946	634.384
398.278	17.075	831.777	634.334
399.292	16.967	831.267	633.486
400.307	17.118	830.644	633.520
401.321	16.917	830.523	632.622
402.336	17.016	829.887	632.448
403.350	17.035	829.564	632.216
404.365	17.068	828.958	631.822
405.380	17.250	828.265	631.916
406.394	17.116	828.133	631.261
407.409	17.283	827.350	631.228
408.423	17.204	827.404	630.921
409.438	17.200	826.870	630.444
410.453	17.293	826.579	630.509
411.467	17.426	825.733	630.301
412.482	17.297	825.475	629.572
413.496	17.453	824.829	629.599
414.511	17.408	824.646	629.239
415.526	17.415	824.138	628.819
416.540	17.402	823.785	628.446
417.555	17.400	823.361	628.060
418.569	17.496	822.473	627.682
419.584	17.398	822.328	627.154
420.599	17.459	822.043	627.107
421.613	95.278	1273.418	1393.196
422.628	82.036	1339.203	1393.287
