DTS Sentinel unit serial number:	SN413079Multiplexer serial number:	ORYXHardware model number:	OX4-SRSoftware version number:	ORYX F/W v4.00 Oryx Data Collector v3.7.2.0data status	okinstallation	princeton_trtdifferential loss correction	single-endedforward channel	channel 1reverse channel	N/Adate	2019/09/13time	19:58:35forward acquisition time	60.00reverse acquisition time	0.00gamma	496.2192k internal	0.2329k external	0.2329temperature offset calibration	1.0092default loss term (dB/km)	0.3790temperature slope calibration	1.0000multiplexer offset coefficient	1.0000multiplexer slope coefficient	1.0000fibre end	0.00T internal ref (°C)	29.83T ext. ref 1 (°C)	3.34T ext. ref 2 (°C)	24.22length (m)	temperature (°C)	Stokes	anti-Stokes-747.200	252.078	-0.059	0.102
-746.185	-27.714	0.243	-0.142
-745.171	396.269	-0.088	-0.186
-744.156	-48.516	-0.419	0.203
-743.142	191.188	-0.090	0.136
-742.127	301.442	-0.062	0.115
-741.112	-108.131	-0.198	0.043
-740.098	-28.098	-0.233	0.136
-739.083	-200.000	0.026	-0.417
-738.069	-55.888	-0.181	-0.081
-737.054	128.813	0.101	0.130
-736.039	-7.585	0.091	0.062
-735.025	-53.261	0.068	-0.031
-734.010	15.591	-0.179	-0.142
-732.996	31.954	-0.373	-0.323
-731.981	-164.744	0.532	0.024
-730.966	242.546	-0.016	-0.027
-729.952	-59.328	-0.431	-0.187
-728.937	512.913	-0.090	0.212
-727.923	471.087	0.127	-0.288
-726.908	-200.000	0.043	0.342
-725.894	-77.925	0.091	0.032
-724.879	96.954	-0.087	0.100
-723.864	783.406	-0.099	-0.273
-722.850	-105.672	0.350	0.080
-721.835	64.739	-0.181	0.184
-720.821	22.381	-0.207	0.171
-719.806	-128.492	-0.031	-0.004
-718.791	-52.626	-0.155	0.072
-717.777	78.493	-0.063	0.067
-716.762	-200.000	-0.008	-0.099
-715.748	201.261	-0.137	-0.212
-714.733	-200.000	-0.021	-0.256
-713.718	16.410	0.249	-0.198
-712.704	177.743	0.010	-0.014
-711.689	54.000	-0.200	0.193
-710.675	598.173	-0.105	0.262
-709.660	-200.000	-0.014	-0.250
-708.645	405.977	0.142	-0.302
-707.631	-200.000	-0.089	0.449
-706.616	-167.819	-0.202	-0.008
-705.602	251.377	-0.288	-0.492
-704.587	229.073	-0.103	-0.168
-703.572	-84.201	0.184	-0.059
-702.558	236.586	-0.169	-0.281
-701.543	-200.000	-0.056	0.281
-700.529	423.792	0.105	0.227
-699.514	-99.919	0.196	-0.049
-698.499	800.000	-0.032	0.115
-697.485	-200.000	-0.032	0.230
-696.470	-200.000	-0.009	0.058
-695.456	54.307	0.285	0.276
-694.441	-173.681	-0.322	-0.010
-693.426	433.951	-0.124	0.272
-692.412	-200.000	0.019	-0.140
-691.397	86.378	0.101	-0.111
-690.383	378.094	-0.038	0.078
-689.368	-200.000	-0.019	-0.141
-688.354	357.446	0.224	0.449
-687.339	-200.000	0.003	-0.412
-686.324	-137.279	0.387	0.044
-685.310	175.049	0.134	0.195
-684.295	-8.435	-0.050	0.034
-683.281	-82.526	-0.234	-0.076
-682.266	800.000	-0.025	-0.078
-681.251	800.000	-0.055	0.189
-680.237	489.957	-0.016	0.036
-679.222	631.812	-0.050	-0.127
-678.208	-101.616	-0.058	-0.014
-677.193	-60.073	0.230	0.099
-676.178	194.084	0.038	0.058
-675.164	174.786	-0.136	-0.198
-674.149	539.734	0.099	-0.238
-673.135	800.000	0.028	0.106
-672.120	92.339	-0.185	0.210
-671.105	-159.865	-0.165	-0.009
-670.091	145.129	0.135	-0.182
-669.076	-158.816	-0.223	-0.013
-668.062	173.410	0.064	-0.092
-667.047	-200.000	0.026	0.163
-666.032	-128.212	-0.375	-0.054
-665.018	-158.946	0.253	-0.014
-664.003	-59.316	0.081	0.035
-662.989	-178.770	0.036	0.001
-661.974	310.235	0.079	0.149
-660.959	800.000	-0.069	0.259
-659.945	-119.095	-0.231	0.041
-658.930	-200.000	-0.082	0.408
-657.916	187.769	-0.162	-0.243
-656.901	-26.344	-0.167	-0.098
-655.886	-179.522	-0.222	0.005
-654.872	275.651	0.084	0.150
-653.857	-147.713	0.176	-0.015
-652.843	86.078	0.063	0.069
-651.828	-200.000	0.017	-0.162
-650.814	-30.261	0.148	-0.084
-649.799	-133.009	-0.279	0.036
-648.784	-78.722	-0.199	-0.068
-647.770	-45.982	0.246	-0.122
-646.755	-200.000	-0.006	-0.250
-645.741	-127.296	-0.119	-0.017
-644.726	-200.000	0.041	0.240
-643.711	-200.000	0.002	-0.158
-642.697	-93.274	-0.138	0.039
-641.682	-119.593	-0.372	-0.065
-640.668	285.226	0.086	-0.156
-639.653	86.781	-0.279	0.309
-638.638	-200.000	-0.028	0.266
-637.624	-162.562	0.033	0.002
-636.609	402.298	-0.056	0.118
-635.595	-15.218	-0.216	-0.139
-634.580	800.000	0.124	-0.436
-633.565	-168.351	-0.222	0.009
-632.551	90.126	-0.108	-0.122
-631.536	167.363	-0.170	0.242
-630.522	-200.000	-0.003	-0.033
-629.507	-200.000	0.015	-0.139
-628.492	800.000	0.055	0.202
-627.478	-66.627	-0.406	0.161
-626.463	-200.000	-0.008	-0.392
-625.449	-153.489	0.280	-0.019
-624.434	480.457	0.164	0.373
-623.419	127.560	0.074	0.094
-622.405	-116.357	-0.290	-0.054
-621.390	58.180	-0.244	0.240
-620.376	-26.933	-0.191	0.112
-619.361	-200.000	-0.048	-0.304
-618.346	-200.000	0.001	-0.094
-617.332	800.000	0.073	-0.267
-616.317	32.217	0.126	-0.109
-615.303	118.573	0.129	0.160
-614.288	-107.579	0.218	0.048
-613.273	76.970	0.274	0.291
-612.259	-98.041	-0.299	-0.077
-611.244	-200.000	0.057	-0.292
-610.230	-77.904	0.243	-0.084
-609.215	800.000	0.059	-0.249
-608.201	456.767	0.100	-0.222
-607.186	-200.000	-0.045	-0.262
-606.171	105.368	-0.196	-0.232
-605.157	-98.910	0.135	-0.034
-604.142	-118.401	-0.082	0.015
-603.128	800.000	-0.028	0.107
-602.113	-46.558	0.182	-0.090
-601.098	-79.136	-0.130	0.044
-600.084	-93.636	0.084	0.023
-599.069	215.189	-0.082	-0.130
-598.055	-112.789	0.082	-0.016
-597.040	-200.000	-0.002	0.187
-596.025	800.000	-0.035	-0.108
-595.011	-57.959	-0.061	-0.027
-593.996	-24.384	0.182	0.109
-592.982	-126.913	0.202	-0.030
-591.967	-120.299	-0.131	-0.022
-590.952	553.392	0.146	-0.352
-589.938	347.084	0.040	0.079
-588.923	255.935	0.130	-0.224
-587.909	-70.407	0.270	-0.102
-586.894	-92.823	0.352	0.099
-585.879	-178.755	0.191	-0.004
-584.865	-200.000	0.068	-0.460
-583.850	89.203	0.168	-0.187
-582.836	-200.000	0.002	0.247
-581.821	-96.406	-0.085	0.022
-580.806	59.512	-0.201	0.198
-579.792	50.887	-0.299	0.284
-578.777	3.463	-0.140	0.102
-577.763	-111.792	-0.051	0.010
-576.748	58.949	-0.130	0.128
-575.733	-200.000	0.129	0.568
-574.719	-59.756	-0.392	-0.168
-573.704	-116.507	-0.200	-0.037
-572.690	-111.229	0.502	-0.103
-571.675	-200.000	-0.066	0.289
-570.661	-7.713	0.206	-0.139
-569.646	-77.197	0.220	-0.077
-568.631	-189.799	0.119	-0.001
-567.617	-56.263	0.205	-0.091
-566.602	-38.744	0.143	0.076
-565.588	13.902	0.058	-0.045
-564.573	59.135	0.108	0.106
-563.558	-66.895	-0.216	0.086
-562.544	-8.107	-0.018	-0.012
-561.529	77.095	-0.072	-0.077
-560.515	-118.700	-0.122	-0.022
-559.500	-115.110	0.061	-0.012
-558.485	-200.000	0.049	-0.265
-557.471	74.006	-0.108	0.113
-556.456	-200.000	-0.003	-0.255
-555.442	-140.716	0.314	0.032
-554.427	-34.889	-0.453	-0.247
-553.412	300.680	0.114	-0.210
-552.398	-198.093	0.098	0.001
-551.383	-74.270	0.178	0.064
-550.369	800.000	0.100	-0.435
-549.354	-157.934	-0.287	-0.017
-548.339	-50.477	-0.113	0.053
-547.325	86.824	0.342	0.377
-546.310	-48.735	-0.131	-0.063
-545.296	323.424	-0.155	0.296
-544.281	-117.913	0.096	-0.017
-543.266	14.904	-0.106	-0.083
-542.252	-200.000	-0.042	-0.274
-541.237	65.393	-0.051	0.052
-540.223	4.279	0.126	-0.092
-539.208	443.191	0.058	0.127
-538.193	-183.512	-0.396	-0.007
-537.179	-17.717	0.321	-0.201
-536.164	90.896	0.220	-0.246
-535.150	-133.765	-0.173	-0.022
-534.135	800.000	0.049	-0.144
-533.121	-78.843	-0.195	-0.067
-532.106	-200.000	-0.027	0.477
-531.091	-75.045	0.059	-0.021
-530.077	20.465	-0.219	0.177
-529.062	31.547	0.067	0.057
-528.048	-95.896	0.085	0.023
-527.033	80.633	0.082	0.089
-526.018	-147.538	-0.159	-0.013
-525.004	-32.891	-0.138	-0.077
-523.989	-12.943	-0.246	-0.160
-522.975	369.667	-0.066	-0.133
-521.960	42.704	-0.119	0.109
-520.945	-121.963	-0.354	0.058
-519.931	-86.284	0.265	-0.081
-518.916	-171.919	-0.148	-0.005
-517.902	144.309	0.185	-0.246
-516.887	352.918	0.126	0.250
-515.872	-200.000	0.054	-0.293
-514.858	66.306	0.012	-0.013
-513.843	-200.000	0.062	0.394
-512.829	-144.864	0.242	-0.022
-511.814	-64.981	0.037	0.015
-510.799	-200.000	-0.016	0.144
-509.785	267.591	-0.040	0.070
-508.770	300.998	-0.078	-0.143
-507.756	106.824	-0.155	0.184
-506.741	265.773	0.034	-0.059
-505.726	-145.947	0.190	-0.017
-504.712	-200.000	-0.098	-0.682
-503.697	800.000	0.022	-0.064
-502.683	-200.000	-0.016	-0.170
-501.668	-72.780	0.126	0.046
-500.653	12.733	0.212	0.163
-499.639	-200.000	-0.008	0.136
-498.624	-187.987	0.375	0.005
-497.610	398.739	0.132	-0.275
-496.595	6.898	0.125	0.093
-495.581	800.000	-0.091	-0.254
-494.566	17.655	0.297	-0.236
-493.551	-200.000	0.008	0.140
-492.537	181.197	-0.048	-0.070
-491.522	312.039	0.054	0.101
-490.508	800.000	0.035	0.103
-489.493	91.630	0.062	-0.070
-488.478	-35.632	-0.145	-0.078
-487.464	-168.761	-0.252	-0.010
-486.449	511.174	-0.026	-0.060
-485.435	-129.632	-0.041	-0.006
-484.420	336.021	0.027	-0.053
-483.405	-151.144	0.145	0.011
-482.391	-200.000	0.009	-0.353
-481.376	-15.540	-0.105	0.067
-480.362	800.000	-0.130	0.494
-479.347	800.000	0.162	-0.549
-478.332	-200.000	0.040	-0.378
-477.318	451.429	-0.194	0.427
-476.303	-128.902	-0.167	-0.023
-475.289	-200.000	0.003	0.101
-474.274	148.596	0.329	-0.443
-473.259	430.767	0.197	0.425
-472.245	800.000	0.042	0.163
-471.230	472.937	0.217	0.486
-470.216	-63.494	-0.089	0.036
-469.201	-20.554	-0.246	0.150
-468.186	0.509	-0.079	0.057
-467.172	-21.207	-0.402	-0.245
-466.157	22.075	0.192	0.156
-465.143	-34.351	-0.115	-0.063
-464.128	178.574	0.122	0.178
-463.113	-150.046	-0.182	-0.014
-462.099	90.470	-0.184	0.205
-461.084	188.878	-0.190	-0.283
-460.070	-200.000	-0.016	0.317
-459.055	-166.939	0.094	0.004
-458.040	-113.211	0.246	0.048
-457.026	155.360	-0.051	-0.070
-456.011	-116.182	-0.368	-0.068
-454.997	202.910	0.187	0.288
-453.982	-177.049	0.057	0.001
-452.968	-121.631	0.280	-0.046
-451.953	691.128	0.059	0.154
-450.938	-67.977	0.106	0.041
-449.924	800.000	0.087	0.253
-448.909	52.985	-0.066	0.063
-447.895	-90.874	0.214	-0.061
-446.880	90.777	-0.143	-0.159
-445.865	7.021	-0.057	0.042
-444.851	18.073	0.092	0.073
-443.836	6.048	-0.320	-0.236
-442.822	-151.538	0.131	0.010
-441.807	-200.000	0.026	-0.167
-440.792	-13.565	0.233	0.150
-439.778	45.639	0.208	0.191
-438.763	249.101	-0.046	0.078
-437.749	-81.500	0.202	-0.066
-436.734	-83.716	-0.247	0.078
-435.719	-200.000	-0.037	0.369
-434.705	-200.000	0.011	0.161
-433.690	-173.007	0.089	-0.003
-432.676	-184.683	0.242	-0.004
-431.661	-200.000	0.008	-0.158
-430.646	-67.771	-0.215	0.084
-429.632	27.255	0.140	0.117
-428.617	-118.320	0.587	-0.104
-427.603	-200.000	-0.005	-0.100
-426.588	-156.645	0.234	-0.014
-425.573	84.592	-0.144	-0.157
-424.559	-87.717	-0.398	-0.119
-423.544	800.000	-0.089	0.256
-422.530	-122.110	0.194	0.032
-421.515	-79.723	0.241	0.081
-420.500	484.636	0.107	0.242
-419.486	-41.322	0.490	-0.251
-418.471	118.229	-0.305	0.374
-417.457	-45.225	-0.323	-0.160
-416.442	-200.000	0.054	-0.270
-415.428	-99.140	0.372	-0.094
-414.413	-79.551	0.246	-0.083
-413.398	-137.552	-0.227	-0.025
-412.384	294.978	0.106	-0.193
-411.369	-67.406	-0.383	0.149
-410.355	-100.435	0.077	-0.019
-409.340	-86.502	-0.158	0.048
-408.325	143.370	-0.123	0.163
-407.311	108.466	-0.132	0.156
-406.296	800.000	-0.059	-0.164
-405.282	173.319	-0.197	-0.282
-404.267	32.956	-0.034	0.029
-403.252	406.872	-0.045	0.094
-402.238	313.210	-0.145	-0.271
-401.223	-104.796	0.383	-0.087
-400.209	308.784	0.105	-0.196
-399.194	-143.782	-0.128	-0.012
-398.179	-101.072	-0.214	0.052
-397.165	173.802	0.187	-0.268
-396.150	93.263	-0.272	0.305
-395.136	-91.981	0.360	0.101
-394.121	361.358	-0.067	0.134
-393.106	-200.000	-0.008	-0.148
-392.092	212.859	0.106	-0.167
-391.077	-81.668	0.119	0.039
-390.063	31.483	0.129	-0.110
-389.048	82.405	-0.152	0.163
-388.033	-20.296	-0.133	0.081
-387.019	-0.103	0.188	0.133
-386.004	-150.112	0.470	-0.036
-384.990	-92.756	-0.344	-0.096
-383.975	-89.747	-0.166	-0.048
-382.960	-66.177	-0.145	-0.057
-381.946	-200.000	-0.019	0.145
-380.931	-200.000	-0.016	-0.201
-379.917	-145.995	-0.149	-0.013
-378.902	800.000	-0.177	0.504
-377.888	217.244	0.165	0.262
-376.873	-200.000	-0.030	0.163
-375.858	66.031	-0.122	0.123
-374.844	-58.951	-0.118	-0.051
-373.829	-14.067	0.128	-0.082
-372.815	800.000	0.155	0.501
-371.800	196.337	-0.078	0.118
-370.785	36.381	-0.055	0.048
-369.771	236.266	0.091	0.149
-368.756	-69.000	0.338	0.129
-367.742	-82.629	0.351	0.113
-366.727	-134.087	0.152	-0.019
-365.712	-105.519	0.153	-0.034
-364.698	38.262	-0.170	-0.150
-363.683	-25.581	-0.059	-0.035
-362.669	287.196	-0.178	0.318
-361.654	24.016	0.103	-0.084
-360.639	-4.130	-0.073	-0.050
-359.625	-118.492	0.063	0.011
-358.610	-200.000	-0.032	0.214
-357.596	191.138	0.093	0.139
-356.581	-132.026	0.315	-0.041
-355.566	120.405	-0.210	-0.259
-354.552	-39.702	0.333	-0.173
-353.537	41.819	0.142	0.128
-352.523	784.207	-0.095	0.258
-351.508	11.695	-0.249	0.190
-350.493	173.669	0.187	0.267
-349.479	199.259	0.202	0.308
-348.464	800.000	-0.098	0.315
-347.450	131.243	-0.110	0.141
-346.435	-38.130	0.131	0.069
-345.420	-78.439	0.192	-0.065
-344.406	-200.000	-0.024	-0.351
-343.391	-27.461	-0.152	0.088
-342.377	32.307	-0.245	0.210
-341.362	117.230	-0.360	-0.438
-340.348	-200.000	0.002	-0.019
-339.333	-60.877	-0.192	0.080
-338.318	-130.784	-0.140	0.019
-337.304	172.650	-0.032	0.046
-336.289	44.038	-0.118	-0.107
-335.275	800.000	-0.017	-0.050
-334.260	800.000	-0.032	-0.129
-333.245	-39.873	-0.199	-0.103
-332.231	-200.000	-0.052	0.308
-331.216	800.000	-0.032	0.107
-330.202	-200.000	-0.023	-0.193
-329.187	-13.740	0.149	0.096
-328.172	-23.381	0.278	-0.166
-327.158	800.000	-0.061	0.175
-326.143	166.991	-0.110	-0.154
-325.129	-200.000	-0.001	0.024
-324.114	631.977	0.112	0.281
-323.099	247.443	-0.066	0.111
-322.085	-200.000	-0.024	0.318
-321.070	-200.000	0.021	0.141
-320.056	-10.644	0.073	-0.048
-319.041	-200.000	0.006	-0.120
-318.026	-200.000	0.018	-0.235
-317.012	12.371	-0.450	0.344
-315.997	678.570	-0.110	-0.283
-314.983	281.261	0.100	-0.178
-313.968	270.113	0.112	0.194
-312.953	33.809	-0.158	-0.136
-311.939	159.503	-0.150	-0.207
-310.924	4.316	-0.166	-0.121
-309.910	28.354	-0.170	-0.142
-308.895	502.411	-0.158	-0.362
-307.880	-52.157	-0.129	0.059
-306.866	-156.030	0.201	-0.013
-305.851	138.889	-0.243	-0.316
-304.837	-200.000	-0.005	-0.063
-303.822	-200.000	-0.021	-0.153
-302.807	16.126	-0.263	-0.205
-301.793	489.725	-0.145	0.329
-300.778	-200.000	0.035	0.227
-299.764	10.902	0.243	-0.184
-298.749	45.794	-0.129	0.119
-297.735	800.000	0.153	0.430
-296.720	-10.750	0.422	0.276
-295.705	-51.019	-0.191	0.089
-294.691	-200.000	0.029	0.137
-293.676	73.547	0.139	-0.144
-292.662	0.267	0.130	0.092
-291.647	800.000	0.038	-0.155
-290.632	-36.944	-0.141	0.075
-289.618	-46.813	-0.159	-0.077
-288.603	79.473	-0.193	0.205
-287.589	-97.350	-0.281	-0.072
-286.574	-200.000	0.010	-0.381
-285.559	-100.473	-0.162	-0.040
-284.545	178.900	-0.123	-0.178
-283.530	542.056	-0.174	0.410
-282.516	-159.635	-0.352	0.019
-281.501	-187.209	-0.095	0.001
-280.486	206.267	0.042	0.064
-279.472	53.376	-0.276	-0.262
-278.457	-164.564	0.165	0.007
-277.443	-74.988	-0.179	0.064
-276.428	-200.000	0.054	-0.234
-275.413	-38.011	-0.251	0.132
-274.399	-200.000	-0.007	-0.178
-273.384	138.088	-0.077	0.100
-272.370	-200.000	-0.005	0.177
-271.355	800.000	0.078	-0.319
-270.340	-93.567	-0.015	-0.004
-269.326	437.620	0.038	-0.082
-268.311	-100.883	0.100	-0.024
-267.297	400.779	0.114	0.236
-266.282	-106.918	0.375	-0.082
-265.267	68.917	0.213	-0.216
-264.253	-91.663	-0.239	0.067
-263.238	59.638	-0.192	0.187
-262.224	-200.000	-0.005	-0.053
-261.209	37.242	0.208	-0.183
-260.195	-200.000	0.031	0.193
-259.180	28.098	0.231	0.193
-258.165	800.000	-0.093	-0.282
-257.151	796.182	0.105	-0.287
-256.136	39.803	0.037	-0.033
-255.122	-129.593	-0.381	-0.052
-254.107	6.909	0.097	-0.071
-253.092	26.423	0.107	-0.088
-252.078	-94.264	-0.144	0.039
-251.063	-12.306	-0.229	-0.148
-250.049	-91.471	-0.215	-0.061
-249.034	410.531	0.163	0.341
-248.019	-101.340	0.428	-0.103
-247.005	-200.000	-0.011	-0.112
-245.990	-65.145	-0.077	0.031
-244.976	192.066	-0.073	0.109
-243.961	90.782	0.043	-0.047
-242.946	-20.795	0.263	-0.160
-241.932	800.000	-0.047	-0.144
-240.917	800.000	-0.020	-0.078
-239.903	640.828	0.084	-0.211
-238.888	340.809	-0.131	-0.253
-237.873	-112.838	-0.024	0.005
-236.859	-143.387	-0.092	-0.009
-235.844	120.975	0.082	-0.100
-234.830	222.086	0.120	0.191
-233.815	-26.999	-0.048	0.027
-232.800	-197.934	0.035	-0.000
-231.786	-200.000	-0.013	0.191
-230.771	12.145	0.204	0.155
-229.757	46.222	0.115	0.105
-228.742	-51.421	-0.091	0.042
-227.727	215.425	0.046	0.072
-226.713	-30.004	-0.202	-0.114
-225.698	-14.766	-0.177	-0.112
-224.684	-38.452	0.220	-0.115
-223.669	76.508	0.074	-0.077
-222.655	-200.000	0.002	-0.020
-221.640	-83.368	-0.194	0.062
-220.625	132.564	0.035	0.045
-219.611	-79.879	0.313	-0.104
-218.596	-105.991	-0.244	0.054
-217.582	-97.201	-0.109	-0.028
-216.567	261.291	-0.045	0.076
-215.552	-200.000	-0.029	0.242
-214.538	31.905	-0.144	0.123
-213.523	-98.054	0.203	0.051
-212.509	117.924	-0.116	0.141
-211.494	-90.213	0.249	0.071
-210.479	22.351	0.078	0.063
-209.465	-137.306	0.214	0.024
-208.450	800.000	-0.075	-0.235
-207.436	-87.692	-0.084	-0.025
-206.421	22.591	0.161	-0.130
-205.406	100.015	-0.186	0.213
-204.392	-161.230	-0.073	-0.004
-203.377	106.118	-0.137	-0.160
-202.363	-143.202	0.229	0.022
-201.348	-144.503	0.143	-0.013
-200.333	-200.000	-0.090	0.501
-199.319	-30.833	0.194	-0.108
-198.304	-200.000	-0.002	0.096
-197.290	64.192	0.200	0.199
-196.275	-200.000	0.002	-0.095
-195.260	800.000	0.059	0.165
-194.246	800.000	0.088	-0.258
-193.231	-57.334	0.117	0.051
-192.217	-131.463	-0.228	0.030
-191.202	132.107	0.089	-0.112
-190.187	27.651	0.282	-0.234
-189.173	428.970	0.032	-0.067
-188.158	28.240	-0.174	-0.145
-187.144	199.049	-0.099	0.150
-186.129	-200.000	0.001	-0.194
-185.114	69.024	-0.096	-0.098
-184.100	800.000	0.030	-0.118
-183.085	175.759	-0.093	-0.133
-182.071	800.000	-0.072	0.218
-181.056	-24.259	-0.240	-0.141
-180.042	690.261	-0.103	-0.267
-179.027	-200.000	0.011	-0.153
-178.012	-67.256	0.240	0.093
-176.998	-200.000	0.045	-0.223
-175.983	800.000	-0.094	0.327
-174.969	79.122	0.137	-0.144
-173.954	5.152	0.055	-0.040
-172.939	178.736	-0.228	0.328
-171.925	140.231	-0.070	-0.091
-170.910	70.101	0.227	0.231
-169.896	279.079	-0.088	-0.155
-168.881	800.000	-0.123	0.447
-167.866	363.461	0.091	0.181
-166.852	-116.047	0.389	-0.071
-165.837	237.324	0.092	-0.150
-164.823	376.207	0.040	0.080
-163.808	379.291	-0.018	0.036
-162.793	408.290	0.080	0.166
-161.779	573.543	-0.015	0.036
-160.764	531.603	0.072	-0.168
-159.750	48.708	-0.175	-0.161
-158.735	-200.000	0.028	0.216
-157.720	-200.000	0.002	-0.312
-156.706	223.838	0.122	0.193
-155.691	-108.767	0.269	-0.057
-154.677	-200.000	-0.032	0.177
-153.662	-97.043	-0.206	0.053
-152.647	150.783	-0.087	-0.117
-151.633	-200.000	-0.021	0.127
-150.618	60.717	-0.121	0.118
-149.604	-200.000	0.009	0.392
-148.589	292.036	0.187	0.334
-147.574	-21.481	-0.251	-0.150
-146.560	-200.000	0.033	-0.251
-145.545	800.000	0.023	0.066
-144.531	-153.135	-0.336	-0.023
-143.516	-31.526	0.284	-0.157
-142.502	-2.162	0.169	0.117
-141.487	-200.000	0.027	-0.190
-140.472	-94.556	0.194	-0.052
-139.458	-200.000	0.008	-0.063
-138.443	-87.868	-0.137	-0.041
-137.429	461.469	-0.044	0.098
-136.414	59.582	-0.113	-0.109
-135.399	-200.000	0.022	0.281
-134.385	-136.310	-0.171	0.020
-133.370	-200.000	-0.043	-0.526
-132.356	-3.901	0.208	-0.142
-131.341	113.416	0.251	0.300
-130.326	-86.852	-0.198	0.059
-129.312	-200.000	0.036	0.226
-128.297	468.207	-0.102	-0.224
-127.283	60.587	-0.100	-0.097
-126.268	800.000	0.088	0.255
-125.253	200.758	-0.147	0.223
-124.239	-20.142	0.153	-0.092
-123.224	220.639	0.090	-0.142
-122.210	-120.910	-0.173	0.029
-121.195	-80.560	0.477	-0.156
-120.180	-128.067	-0.043	-0.006
-119.166	-63.766	0.294	-0.119
-118.151	-3.516	-0.182	0.124
-117.137	-200.000	-0.022	-0.224
-116.122	-135.604	-0.248	-0.029
-115.107	-5.939	-0.037	0.025
-114.093	63.984	0.041	0.041
-113.078	-46.756	0.360	0.173
-112.064	-200.000	0.054	0.268
-111.049	7.038	0.161	0.118
-110.034	326.186	-0.087	0.164
-109.020	800.000	0.120	0.470
-108.005	90.094	-0.263	0.289
-106.991	-123.931	0.127	-0.020
-105.976	-200.000	0.012	-0.223
-104.962	-93.741	-0.236	0.064
-103.947	200.909	0.203	-0.306
-102.932	-200.000	-0.022	-0.273
-101.918	-200.000	-0.021	-0.294
-100.903	-76.333	0.223	0.077
-99.889	7.481	0.275	0.202
-98.874	-38.659	-0.232	-0.120
-97.859	800.000	-0.084	0.273
-96.845	51.667	-0.182	0.170
-95.830	2.676	-0.046	0.033
-94.816	288.261	-0.094	0.167
-93.801	22.516	-0.082	0.066
-92.786	400.081	0.073	-0.150
-91.772	-168.904	0.092	0.003
-90.757	-116.324	-0.130	-0.024
-89.743	-105.171	0.353	-0.079
-88.728	-153.161	0.176	0.012
-87.713	118.735	0.060	-0.073
-86.699	-146.209	0.131	-0.011
-85.684	-99.555	0.176	0.043
-84.670	-90.188	0.170	0.049
-83.655	415.501	0.054	0.113
-82.640	-129.606	-0.149	-0.020
-81.626	146.900	-0.061	0.080
-80.611	-93.936	0.220	0.059
-79.597	-4.967	0.154	-0.104
-78.582	-122.745	0.137	-0.022
-77.567	800.000	0.025	0.101
-76.553	-75.478	0.045	0.016
-75.538	800.000	-0.023	-0.076
-74.524	-95.811	-0.375	0.098
-73.509	42.222	0.136	0.121
-72.494	251.049	0.085	0.142
-71.480	85.790	-0.115	0.124
-70.465	-53.574	0.077	-0.035
-69.451	-55.536	0.161	0.071
-68.436	-128.045	0.198	-0.028
-67.422	-177.655	-0.088	-0.002
-66.407	-162.139	-0.095	-0.005
-65.392	-67.275	0.023	-0.009
-64.378	512.118	0.037	0.085
-63.363	-193.709	0.180	-0.001
-62.349	-102.705	0.295	-0.069
-61.334	88.613	-0.802	-0.874
-60.319	233.599	0.189	0.305
-59.305	617.132	-0.262	-0.645
-58.290	258.327	0.615	1.040
-57.276	765.703	0.567	1.510
-56.261	-200.000	108.246	613.665
-55.246	524.647	1489.876	3436.566
-54.232	179.779	2676.332	3844.315
-53.217	113.142	2149.840	2556.173
-52.203	41.446	1600.275	1419.776
-51.188	33.411	1341.415	1141.873
-50.173	30.262	1300.364	1088.447
-49.159	54.979	1355.667	1283.450
-48.144	55.262	1370.782	1299.406
-47.130	33.424	1325.137	1127.915
-46.115	30.025	1307.374	1092.738
-45.100	29.801	1302.825	1087.576
-44.086	29.733	1300.231	1084.972
-43.071	29.597	1298.004	1082.273
-42.057	29.703	1295.648	1080.881
-41.042	29.687	1294.592	1079.867
-40.027	29.738	1292.720	1078.561
-39.013	29.710	1290.619	1076.599
-37.998	29.787	1288.438	1075.187
-36.984	29.732	1287.290	1073.865
-35.969	29.855	1285.205	1072.798
-34.954	29.885	1283.542	1071.539
-33.940	29.870	1282.463	1070.511
-32.925	29.833	1281.561	1069.500
-31.911	29.857	1279.783	1068.116
-30.896	29.763	1279.094	1066.956
-29.881	29.989	1276.883	1066.369
-28.867	29.984	1275.314	1064.988
-27.852	29.879	1274.036	1063.276
-26.838	30.084	1272.165	1062.844
-25.823	29.997	1271.093	1061.412
-24.809	29.857	1270.215	1059.836
-23.794	29.914	1269.017	1059.120
-22.779	29.887	1267.681	1057.805
-21.765	29.860	1266.495	1056.622
-20.750	29.871	1265.087	1055.468
-19.736	29.852	1263.897	1054.325
-18.721	29.862	1262.492	1053.165
-17.706	29.804	1261.562	1052.020
-16.692	29.883	1260.297	1051.369
-15.677	29.801	1259.126	1049.890
-14.663	29.805	1258.177	1049.076
-13.648	29.694	1257.207	1047.599
-12.633	29.667	1256.132	1046.507
-11.619	29.677	1255.332	1045.857
-10.604	29.800	1254.440	1045.768
-9.590	29.892	1253.200	1045.212
-8.575	29.803	1252.237	1043.866
-7.560	29.779	1251.546	1043.113
-6.546	29.698	1250.997	1042.158
-5.531	29.751	1250.151	1041.708
-4.517	29.830	1248.782	1040.968
-3.502	29.899	1247.830	1040.527
-2.487	29.874	1246.971	1039.624
-1.473	29.728	1243.020	1035.471
-0.458	28.070	1227.004	1012.917
0.556	24.682	1208.763	971.826
1.571	20.518	1213.889	953.073
2.586	19.421	1227.993	957.975
3.600	18.790	1215.865	944.960
4.615	14.010	1145.671	865.491
5.629	6.648	1073.615	774.935
6.644	3.526	1054.710	746.142
7.659	3.383	1052.098	743.535
8.673	3.260	1051.059	742.142
9.688	3.192	1049.731	740.813
10.702	3.413	1047.654	740.344
11.717	7.669	1053.109	764.645
12.731	15.233	1064.484	809.500
13.746	19.732	1069.293	834.862
14.761	20.003	1069.831	836.517
15.775	19.233	1068.074	831.353
16.790	18.315	1065.601	824.936
17.804	17.520	1064.323	820.046
18.819	17.392	1063.153	818.454
19.834	17.139	1062.533	816.689
20.848	17.210	1061.754	816.358
21.863	16.815	1060.978	813.795
22.877	16.600	1060.708	812.480
23.892	16.725	1059.516	812.094
24.907	16.615	1059.086	811.169
25.921	16.705	1057.574	810.368
26.936	16.641	1056.634	809.269
27.950	16.676	1054.945	808.071
28.965	16.707	1053.694	807.192
29.980	16.853	1052.228	806.692
30.994	16.876	1051.471	806.151
32.009	17.149	1050.288	806.466
33.023	17.035	1049.388	805.162
34.038	16.962	1048.031	803.707
35.053	16.904	1047.075	802.629
36.067	16.814	1046.428	801.634
37.082	16.891	1045.923	801.541
38.096	16.906	1044.927	800.779
39.111	16.996	1043.950	800.384
40.126	16.854	1042.450	798.493
41.140	16.572	1040.862	795.877
42.155	16.414	1039.906	794.333
43.169	16.337	1038.952	793.174
44.184	16.322	1038.002	792.309
45.199	16.406	1037.253	792.059
46.213	16.595	1036.367	792.200
47.228	16.789	1035.327	792.242
48.242	16.739	1034.416	791.240
49.257	16.634	1033.383	789.890
50.271	16.926	1032.384	790.419
51.286	16.915	1031.918	789.942
52.301	16.773	1030.887	788.420
53.315	16.739	1029.372	787.035
54.330	16.565	1028.568	785.539
55.344	16.574	1027.572	784.754
56.359	16.592	1027.097	784.405
57.374	16.640	1025.594	783.407
58.388	16.396	1024.899	781.678
59.403	16.291	1024.248	780.627
60.417	16.503	1023.437	780.923
61.432	16.402	1022.729	779.847
62.447	16.261	1021.981	778.555
63.461	16.248	1021.077	777.740
64.476	16.249	1020.290	777.075
65.490	16.307	1019.047	776.327
66.505	16.293	1018.721	775.945
67.520	16.274	1018.292	775.461
68.534	16.305	1017.276	774.761
69.549	16.326	1016.646	774.309
70.563	16.257	1015.443	773.008
71.578	16.094	1014.734	771.656
72.593	16.026	1014.423	771.037
73.607	16.109	1013.645	770.757
74.622	16.137	1012.692	770.093
75.636	16.088	1012.163	769.401
76.651	16.197	1011.491	769.318
77.666	16.326	1010.669	769.211
78.680	16.348	1009.561	768.401
79.695	16.275	1009.764	768.153
80.709	16.391	1009.011	768.042
81.724	16.448	1008.427	767.787
82.739	16.669	1007.503	768.022
83.753	16.817	1007.012	768.250
84.768	16.909	1007.139	768.693
85.782	17.204	1005.150	768.443
86.797	17.048	1004.525	767.193
87.812	16.884	1003.702	765.757
88.826	16.765	1002.818	764.478
89.841	16.943	1001.808	764.440
90.855	16.958	1001.348	764.091
91.870	17.007	1000.234	763.394
92.884	17.047	999.378	762.851
93.899	16.960	998.889	762.021
94.914	17.061	997.947	761.687
95.928	17.043	996.589	760.503
96.943	17.016	995.786	759.701
97.957	16.831	995.264	758.410
98.972	17.022	994.197	758.380
99.987	16.975	992.823	757.058
101.001	17.069	992.292	757.006
102.016	16.913	991.704	755.793
103.030	16.987	990.772	755.347
104.045	16.836	990.292	754.242
105.060	16.785	989.103	753.043
106.074	16.569	987.934	751.127
107.089	16.490	986.710	749.778
108.103	16.303	986.296	748.570
109.118	16.365	985.501	748.173
110.133	16.300	984.063	746.729
111.147	16.350	983.377	746.364
112.162	16.420	982.392	745.860
113.176	16.626	981.853	746.290
114.191	16.605	981.577	745.925
115.206	16.621	980.074	744.787
116.220	16.501	979.436	743.705
117.235	16.453	978.563	742.766
118.249	16.384	978.070	742.026
119.264	16.405	977.099	741.313
120.279	16.333	976.295	740.323
121.293	16.294	975.645	739.595
122.308	16.276	974.572	738.637
123.322	16.174	973.064	736.981
124.337	16.207	972.500	736.632
125.352	16.132	971.544	735.517
126.366	16.153	970.664	734.876
127.381	16.312	969.445	734.581
128.395	16.220	968.620	733.490
129.410	16.239	967.898	732.963
130.424	16.390	967.187	733.017
131.439	16.543	966.371	732.996
132.454	16.486	965.901	732.325
133.468	16.515	965.189	731.845
134.483	16.586	963.756	731.004
135.497	16.549	963.112	730.291
136.512	16.595	962.478	729.945
137.527	16.576	961.600	729.130
138.541	16.672	960.692	728.793
139.556	16.682	960.344	728.507
140.570	16.786	959.773	728.455
141.585	16.957	958.959	728.506
142.600	16.955	958.255	727.900
143.614	16.908	958.095	727.513
144.629	17.007	956.845	726.923
145.643	16.897	956.096	725.819
146.658	16.843	954.511	724.323
147.673	16.725	953.939	723.319
148.687	16.667	952.539	721.945
149.702	16.555	952.053	721.035
150.716	16.645	950.896	720.476
151.731	16.680	950.607	720.347
152.746	16.752	949.838	720.005
153.760	16.774	949.441	719.735
154.775	16.816	948.839	719.394
155.789	16.865	948.319	719.140
156.804	16.732	947.647	718.006
157.819	16.858	946.934	717.936
158.833	17.145	945.826	718.247
159.848	17.253	945.323	718.256
160.862	16.896	944.201	715.834
161.877	16.829	942.751	714.386
162.892	16.672	942.383	713.385
163.906	16.769	941.122	712.775
164.921	16.504	940.587	711.190
165.935	16.652	939.999	711.307
166.950	16.854	938.652	711.071
167.964	16.879	937.606	710.320
168.979	16.659	936.579	708.558
169.994	16.696	936.156	708.333
171.008	16.923	935.675	708.852
172.023	17.038	934.837	708.636
173.037	17.024	934.296	708.107
174.052	17.022	933.478	707.416
175.067	16.746	932.994	705.837
176.081	16.629	932.598	704.984
177.096	16.749	931.634	704.692
178.110	16.808	931.114	704.485
179.125	16.713	930.647	703.672
180.140	16.884	930.204	703.984
181.154	17.046	929.537	704.093
182.169	17.132	929.109	704.060
183.183	17.152	928.720	703.787
184.198	17.158	927.807	703.058
185.213	17.107	927.217	702.335
186.227	17.114	926.331	701.633
187.242	17.235	925.885	701.732
188.256	17.242	925.449	701.369
189.271	17.285	924.631	700.863
190.286	17.031	923.250	698.710
191.300	16.666	922.285	696.415
192.315	16.545	922.041	695.672
193.329	16.693	921.878	696.097
194.344	16.904	920.480	695.845
195.359	16.866	920.231	695.442
196.373	17.125	919.518	695.903
197.388	17.266	919.459	696.372
198.402	17.274	918.907	695.925
199.417	17.489	918.541	696.469
200.432	17.507	918.151	696.181
201.446	17.619	917.431	696.033
202.461	17.622	917.146	695.767
203.475	17.600	916.410	695.058
204.490	17.269	915.560	693.001
205.504	17.276	914.921	692.484
206.519	17.185	914.188	691.500
207.534	17.181	913.462	690.871
208.548	17.239	912.567	690.369
209.563	17.238	912.202	690.031
210.577	17.424	911.368	690.091
211.592	17.542	910.538	689.882
212.607	17.598	909.974	689.620
213.621	17.621	908.757	688.729
214.636	17.478	908.294	687.739
215.650	17.573	908.019	687.854
216.665	17.685	907.342	687.733
217.680	17.796	906.786	687.696
218.694	17.804	906.032	687.098
219.709	17.673	905.437	686.058
220.723	17.537	904.777	684.948
221.738	17.543	904.244	684.511
222.753	17.714	903.205	684.347
223.767	17.537	903.164	683.548
224.782	17.784	902.687	684.114
225.796	17.864	902.076	683.911
226.811	17.774	901.253	682.868
227.826	17.654	900.428	681.701
228.840	17.626	899.548	680.865
229.855	17.480	899.067	679.856
230.869	17.847	897.905	680.380
231.884	17.621	897.470	679.092
232.899	17.473	896.650	677.819
233.913	17.549	895.675	677.327
234.928	17.505	895.399	676.881
235.942	17.494	894.608	676.180
236.957	17.470	894.776	676.155
237.972	17.525	893.503	675.351
238.986	17.477	893.122	674.811
240.001	17.352	892.660	673.908
241.015	17.339	892.122	673.389
242.030	17.664	891.426	674.089
243.045	17.771	890.621	673.845
244.059	17.627	890.267	672.949
245.074	17.756	889.477	672.803
246.088	17.917	888.937	672.969
247.103	17.781	888.729	672.216
248.117	18.056	888.180	672.823
249.132	18.318	888.023	673.674
250.147	18.305	887.257	672.986
251.161	18.368	886.252	672.409
252.176	18.420	885.620	672.074
253.190	18.579	885.257	672.363
254.205	18.514	884.773	671.680
255.220	18.344	883.812	670.227
256.234	18.464	883.332	670.274
257.249	18.448	882.469	669.497
258.263	18.411	881.725	668.727
259.278	18.459	881.288	668.525
260.293	18.383	880.748	667.761
261.307	18.481	880.321	667.758
262.322	18.552	879.612	667.437
263.336	18.741	878.606	667.349
264.351	18.566	877.957	666.117
265.366	18.539	877.799	665.837
266.380	18.646	877.003	665.586
267.395	18.573	875.844	664.365
268.409	18.448	875.494	663.559
269.424	18.406	874.863	662.859
270.439	18.416	873.878	662.091
271.453	18.339	873.491	661.443
272.468	18.361	872.569	660.770
273.482	18.383	872.538	660.776
274.497	18.531	871.421	660.439
275.512	18.386	871.249	659.693
276.526	18.345	870.769	659.111
277.541	18.482	870.248	659.187
278.555	18.594	869.704	659.149
279.570	18.683	869.152	659.011
280.585	18.832	868.106	658.731
281.599	18.526	867.453	657.007
282.614	18.650	866.403	656.629
283.628	18.587	866.218	656.186
284.643	18.657	865.543	655.885
285.657	18.569	864.556	654.745
286.672	18.603	864.351	654.660
287.687	18.647	863.863	654.401
288.701	18.571	863.203	653.555
289.716	18.616	862.595	653.205
290.730	18.697	862.218	653.171
291.745	18.552	861.851	652.286
292.760	18.750	861.170	652.462
293.774	18.826	860.442	652.144
294.789	18.625	859.954	650.952
295.803	18.670	858.631	650.064
296.818	18.639	858.341	649.670
297.833	18.569	857.376	648.617
298.847	18.674	856.879	648.579
299.862	18.711	856.662	648.498
300.876	18.854	855.916	648.416
301.891	18.951	855.521	648.425
302.906	19.065	855.103	648.479
303.920	19.171	854.905	648.674
304.935	19.100	854.152	647.777
305.949	18.984	853.403	646.714
306.964	18.902	852.753	645.857
307.979	18.981	852.054	645.567
308.993	19.088	851.747	645.678
310.008	19.211	850.964	645.491
311.022	18.974	850.587	644.260
312.037	18.946	849.333	643.146
313.052	18.959	848.878	642.795
314.066	18.748	848.374	641.569
315.081	18.726	847.852	641.034
316.095	18.696	847.804	640.830
317.110	18.838	847.088	640.760
318.125	18.700	846.374	639.651
319.139	18.814	845.731	639.532
320.154	18.816	845.242	639.112
321.168	18.881	844.629	638.834
322.183	18.977	844.121	638.749
323.197	18.977	843.698	638.374
324.212	18.871	843.496	637.772
325.227	18.937	842.751	637.394
326.241	18.887	842.347	636.848
327.256	18.793	841.965	636.154
328.270	18.830	840.911	635.441
329.285	18.812	840.266	634.827
330.300	18.927	839.783	634.832
331.314	19.005	839.047	634.506
332.329	18.925	839.160	634.242
333.343	19.119	838.428	634.347
334.358	19.272	837.587	634.219
335.373	19.210	837.426	633.811
336.387	19.139	837.540	633.580
337.402	19.292	837.212	633.838
338.416	19.307	837.004	633.681
339.431	19.492	836.781	634.135
340.446	19.532	836.445	633.971
341.460	19.592	835.952	633.762
342.475	19.548	835.665	633.326
343.489	19.550	835.218	632.939
344.504	19.691	834.397	632.780
345.519	19.693	833.695	632.196
346.533	19.689	833.342	631.860
347.548	19.480	832.483	630.389
348.562	19.341	831.825	629.327
349.577	19.237	831.681	628.782
350.592	19.394	830.421	628.348
351.606	19.321	830.318	627.947
352.621	19.171	829.424	626.668
353.635	19.329	828.871	626.772
354.650	19.384	828.473	626.612
355.665	19.384	827.670	625.951
356.679	19.527	827.271	626.114
357.694	19.478	826.630	625.395
358.708	19.592	825.784	625.113
359.723	19.554	825.258	624.521
360.738	19.672	824.643	624.428
361.752	19.492	824.527	623.635
362.767	19.624	823.925	623.600
363.781	19.764	823.193	623.494
364.796	19.905	822.774	623.630
365.810	20.021	822.649	623.900
366.825	20.094	822.102	623.690
367.840	19.922	821.941	622.897
368.854	19.750	821.470	621.866
369.869	19.842	820.675	621.537
370.883	19.876	820.232	621.269
371.898	19.983	819.883	621.333
372.913	20.069	819.578	621.356
373.927	19.939	818.958	620.366
374.942	20.067	818.612	620.507
375.956	20.199	818.230	620.634
376.971	20.066	817.668	619.680
377.986	20.176	817.129	619.608
379.000	20.295	816.874	619.787
380.015	20.247	816.187	619.038
381.029	20.247	815.614	618.549
382.044	20.315	814.961	618.242
383.059	20.295	814.524	617.782
384.073	20.275	813.693	617.027
385.088	20.072	813.356	615.994
386.102	19.902	812.563	614.738
387.117	20.001	811.976	614.590
388.132	20.012	811.536	614.239
389.146	20.040	811.214	614.044
390.161	20.191	810.480	613.967
391.175	20.176	810.517	613.887
392.190	20.158	809.585	613.065
393.205	19.931	809.202	611.916
394.219	20.121	808.890	612.297
395.234	19.975	808.246	611.241
396.248	19.914	807.701	610.561
397.263	19.817	807.437	609.964
398.278	19.652	807.261	609.196
399.292	19.792	806.744	609.244
400.307	19.959	805.788	609.056
401.321	19.974	805.444	608.794
402.336	19.879	804.879	607.980
403.350	20.028	804.553	608.205
404.365	20.154	804.469	608.528
405.380	20.436	803.696	608.880
406.394	20.418	803.236	608.415
407.409	20.446	803.066	608.329
408.423	20.435	802.994	608.181
409.438	20.581	802.408	608.195
410.453	20.680	802.187	608.320
411.467	20.535	801.606	607.317
412.482	20.750	800.945	607.513
413.496	20.806	800.939	607.652
414.511	20.653	800.702	606.883
415.526	20.698	800.004	606.458
416.540	20.683	799.232	605.766
417.555	20.763	798.671	605.565
418.569	20.653	798.141	604.729
419.584	20.694	797.995	604.707
420.599	20.783	797.729	604.760
421.613	161.889	1371.677	1797.839
422.628	140.484	1455.279	1797.924
