DTS Sentinel unit serial number:	SN413079Multiplexer serial number:	ORYXHardware model number:	OX4-SRSoftware version number:	ORYX F/W v4.00 Oryx Data Collector v3.7.2.0data status	okinstallation	princeton_trtdifferential loss correction	single-endedforward channel	channel 1reverse channel	N/Adate	2019/09/13time	21:14:35forward acquisition time	60.00reverse acquisition time	0.00gamma	496.2192k internal	0.2330k external	0.2330temperature offset calibration	1.0086default loss term (dB/km)	0.3790temperature slope calibration	1.0000multiplexer offset coefficient	1.0000multiplexer slope coefficient	1.0000fibre end	0.00T internal ref (°C)	28.44T ext. ref 1 (°C)	3.23T ext. ref 2 (°C)	23.07length (m)	temperature (°C)	Stokes	anti-Stokes-747.200	40.708	0.107	0.097
-746.185	-123.856	0.416	0.066
-745.171	-144.096	-0.384	-0.036
-744.156	-57.559	-0.226	0.100
-743.142	-165.974	-0.362	-0.016
-742.127	-97.510	0.281	-0.073
-741.112	800.000	0.016	-0.046
-740.098	-200.000	-0.029	0.348
-739.083	-200.000	0.022	-0.411
-738.069	25.796	0.192	0.161
-737.054	75.676	-0.187	-0.199
-736.039	-123.296	-0.291	-0.047
-735.025	800.000	-0.116	-0.326
-734.010	-200.000	-0.030	-0.246
-732.996	-200.000	0.019	0.235
-731.981	-151.973	-0.302	-0.022
-730.966	123.076	0.140	-0.177
-729.952	-63.402	0.175	-0.073
-728.937	-200.000	0.025	-0.128
-727.923	-200.000	0.002	-0.296
-726.908	-69.989	-0.444	0.170
-725.894	-63.118	-0.287	0.119
-724.879	-67.952	0.178	-0.070
-723.864	-172.569	-0.185	-0.006
-722.850	-106.854	-0.345	0.077
-721.835	-46.654	0.091	-0.045
-720.821	-107.620	0.141	-0.031
-719.806	576.053	-0.053	-0.129
-718.791	-15.196	-0.082	0.053
-717.777	3.692	-0.160	0.118
-716.762	-100.989	-0.227	-0.056
-715.748	60.791	0.068	0.068
-714.733	-200.000	0.005	0.106
-713.718	368.645	-0.116	-0.236
-712.704	-71.069	-0.215	0.081
-711.689	-200.000	-0.003	0.129
-710.675	-94.764	-0.145	-0.040
-709.660	-200.000	0.031	-0.203
-708.645	-154.908	-0.306	-0.020
-707.631	136.858	-0.230	0.303
-706.616	800.000	-0.044	-0.124
-705.602	-200.000	-0.002	-0.152
-704.587	193.978	0.061	-0.092
-703.572	-164.080	0.126	-0.006
-702.558	111.055	-0.119	0.144
-701.543	60.884	0.065	0.065
-700.529	327.776	-0.180	0.348
-699.514	-97.504	-0.279	0.073
-698.499	-153.908	0.021	-0.001
-697.485	-200.000	-0.010	0.270
-696.470	229.698	0.145	-0.237
-695.456	54.429	0.219	0.212
-694.441	-200.000	0.008	-0.215
-693.426	-144.274	-0.427	-0.040
-692.412	-200.000	-0.013	0.284
-691.397	800.000	0.068	-0.224
-690.383	-83.820	-0.051	-0.016
-689.368	25.742	0.114	0.095
-688.354	250.884	-0.083	-0.142
-687.339	37.480	-0.054	-0.048
-686.324	180.155	-0.038	-0.055
-685.310	-98.161	0.132	-0.034
-684.295	800.000	-0.073	-0.234
-683.281	275.402	0.163	0.291
-682.266	800.000	-0.101	-0.350
-681.251	72.319	-0.132	0.139
-680.237	621.430	0.127	-0.320
-679.222	165.154	-0.121	-0.172
-678.208	250.158	-0.180	-0.307
-677.193	-200.000	0.032	0.177
-676.178	-170.409	0.279	0.010
-675.164	-150.892	0.163	0.012
-674.149	-67.093	-0.248	-0.098
-673.135	63.038	-0.148	0.149
-672.120	-200.000	0.006	-0.118
-671.105	-36.103	0.234	-0.127
-670.091	-200.000	-0.004	0.172
-669.076	245.936	-0.110	0.186
-668.062	-57.911	-0.293	-0.128
-667.047	221.987	-0.096	0.155
-666.032	-53.239	-0.130	-0.060
-665.018	243.910	0.136	0.229
-664.003	-200.000	-0.041	-0.353
-662.989	-76.929	0.439	0.154
-661.974	-69.833	0.182	-0.070
-660.959	800.000	-0.092	-0.275
-659.945	295.709	0.075	-0.137
-658.930	184.528	0.053	0.079
-657.916	177.820	0.205	-0.300
-656.901	87.717	-0.183	-0.203
-655.886	149.847	-0.155	-0.211
-654.872	-200.000	0.017	-0.077
-653.857	679.756	-0.022	0.058
-652.843	-78.380	0.128	0.044
-651.828	-200.000	0.031	0.316
-650.814	-137.859	-0.232	-0.026
-649.799	-200.000	-0.064	0.384
-648.784	228.054	-0.220	0.359
-647.770	376.620	-0.059	0.120
-646.755	63.836	0.146	-0.147
-645.741	-6.421	0.162	-0.111
-644.726	800.000	0.073	-0.274
-643.711	800.000	0.112	0.358
-642.697	89.240	0.094	0.106
-641.682	39.028	-0.072	-0.065
-640.668	-200.000	-0.025	-0.121
-639.653	-45.220	-0.321	-0.160
-638.638	-99.945	-0.211	-0.053
-637.624	8.645	-0.221	0.167
-636.609	-26.991	0.233	-0.136
-635.595	43.140	-0.150	-0.138
-634.580	246.145	0.066	0.112
-633.565	138.036	-0.084	-0.110
-632.551	-108.564	-0.399	0.086
-631.536	-72.408	0.473	0.175
-630.522	31.105	-0.307	-0.264
-629.507	-67.330	0.300	-0.118
-628.492	467.306	-0.115	0.258
-627.478	11.092	-0.059	-0.045
-626.463	-38.395	0.186	-0.099
-625.449	541.422	0.058	0.138
-624.434	-53.195	-0.074	-0.034
-623.419	-14.050	0.094	-0.061
-622.405	-200.000	0.030	-0.276
-621.390	-62.696	-0.070	0.029
-620.376	-200.000	0.047	-0.258
-619.361	-178.138	0.212	-0.005
-618.346	276.646	-0.096	-0.171
-617.332	-200.000	0.027	-0.187
-616.317	800.000	0.032	0.108
-615.303	77.752	-0.099	0.106
-614.288	392.973	0.152	0.317
-613.273	460.491	0.026	-0.058
-612.259	188.224	-0.228	-0.341
-611.244	-56.393	-0.102	0.045
-610.230	35.860	0.233	-0.205
-609.215	-86.471	0.111	-0.034
-608.201	412.985	-0.148	-0.314
-607.186	-95.803	-0.125	-0.033
-606.171	175.145	0.047	-0.068
-605.157	108.011	0.111	-0.132
-604.142	27.595	-0.194	0.163
-603.128	-123.187	0.133	0.021
-602.113	135.149	0.189	0.245
-601.098	275.183	0.062	0.109
-600.084	134.703	-0.240	-0.311
-599.069	800.000	0.033	0.098
-598.055	-200.000	0.008	0.196
-597.040	-117.481	0.150	0.027
-596.025	800.000	-0.093	-0.277
-595.011	29.658	0.236	0.201
-593.996	26.853	0.272	0.228
-592.982	27.829	0.187	-0.158
-591.967	30.490	-0.161	0.138
-590.952	289.453	0.239	-0.434
-589.938	161.810	0.156	0.219
-588.923	-105.281	0.226	0.052
-587.909	39.908	0.204	-0.183
-586.894	-43.781	0.201	0.101
-585.879	-62.165	-0.387	0.161
-584.865	-129.483	-0.170	-0.024
-583.850	83.701	-0.157	0.171
-582.836	-60.446	-0.225	-0.096
-581.821	10.430	-0.213	-0.162
-580.806	-53.793	-0.491	0.224
-579.792	326.969	0.108	0.206
-578.777	-177.867	-0.223	0.005
-577.763	347.914	-0.056	-0.109
-576.748	651.259	0.138	0.353
-575.733	-200.000	0.070	0.515
-574.719	247.231	-0.121	-0.205
-573.704	115.369	0.135	-0.165
-572.690	800.000	0.002	-0.008
-571.675	-127.705	0.250	0.036
-570.661	800.000	0.094	0.294
-569.646	570.383	-0.075	0.182
-568.631	-8.203	0.126	0.085
-567.617	-200.000	0.031	0.258
-566.602	-147.773	0.236	0.020
-565.588	-200.000	0.007	0.214
-564.573	479.399	-0.083	0.187
-563.558	-200.000	0.019	0.183
-562.544	-36.473	0.272	-0.146
-561.529	-133.215	0.344	0.043
-560.515	-200.000	-0.032	0.165
-559.500	-200.000	0.017	0.000
-558.485	671.534	-0.074	0.191
-557.471	800.000	-0.049	-0.146
-556.456	87.047	0.197	-0.217
-555.442	451.877	-0.041	-0.091
-554.427	90.211	-0.249	0.278
-553.412	-140.465	-0.329	-0.034
-552.398	141.952	0.061	-0.081
-551.383	-138.921	0.288	-0.031
-550.369	-200.000	0.031	-0.215
-549.354	87.871	-0.151	0.167
-548.339	-166.327	-0.223	0.009
-547.325	-200.000	-0.015	-0.155
-546.310	102.490	-0.106	-0.123
-545.296	-200.000	-0.037	-0.166
-544.281	266.461	-0.107	-0.186
-543.266	56.492	0.069	0.067
-542.252	-200.000	-0.091	-0.581
-541.237	-200.000	-0.042	-0.192
-540.223	-38.181	-0.207	-0.110
-539.208	-55.486	0.180	-0.080
-538.193	-163.017	-0.297	-0.014
-537.179	132.086	0.182	0.235
-536.164	115.824	-0.065	-0.079
-535.150	800.000	0.042	0.162
-534.135	30.975	-0.342	0.292
-533.121	800.000	-0.071	-0.245
-532.106	-102.626	-0.094	0.022
-531.091	29.867	0.273	0.233
-530.077	48.419	-0.217	-0.203
-529.062	140.272	-0.049	0.065
-528.048	-185.084	0.179	-0.003
-527.033	-59.977	0.052	0.022
-526.018	717.345	0.066	-0.174
-525.004	498.709	-0.012	-0.029
-523.989	-35.587	-0.227	0.123
-522.975	566.261	-0.053	-0.127
-521.960	-200.000	0.059	-0.319
-520.945	-59.765	0.144	0.061
-519.931	-141.988	-0.108	0.011
-518.916	-166.259	-0.125	0.005
-517.902	63.222	0.178	-0.178
-516.887	129.472	0.135	-0.172
-515.872	-131.186	-0.158	-0.021
-514.858	-200.000	0.036	-0.273
-513.843	721.649	-0.023	-0.062
-512.829	13.080	-0.209	-0.161
-511.814	800.000	0.042	-0.150
-510.799	450.705	-0.052	-0.115
-509.785	522.022	0.058	-0.135
-508.770	-15.642	-0.065	-0.041
-507.756	-200.000	-0.035	-0.208
-506.741	340.019	0.063	0.123
-505.726	-178.720	-0.077	-0.002
-504.712	-200.000	0.029	0.148
-503.697	353.355	0.025	0.050
-502.683	-100.491	0.284	-0.070
-501.668	-42.393	-0.213	0.108
-500.653	800.000	-0.044	-0.164
-499.639	-57.679	-0.222	-0.097
-498.624	34.605	0.076	-0.067
-497.610	800.000	-0.035	-0.140
-496.595	337.130	0.173	0.336
-495.581	800.000	-0.106	0.457
-494.566	-179.897	0.073	-0.002
-493.551	800.000	-0.044	0.138
-492.537	800.000	-0.020	0.075
-491.522	371.772	-0.106	0.215
-490.508	-149.560	0.344	0.027
-489.493	243.674	-0.136	0.227
-488.478	-82.430	-0.397	0.128
-487.464	-130.492	0.170	0.023
-486.449	800.000	0.003	0.010
-485.435	-165.816	-0.297	-0.013
-484.420	-122.995	-0.172	0.028
-483.405	108.653	-0.111	0.133
-482.391	164.975	-0.143	-0.202
-481.376	-86.163	0.103	0.032
-480.362	-4.151	-0.055	-0.038
-479.347	377.748	-0.193	0.393
-478.332	-106.768	-0.080	0.018
-477.318	-5.062	0.249	0.170
-476.303	188.000	-0.041	-0.060
-475.289	800.000	-0.089	0.337
-474.274	-163.568	-0.234	0.011
-473.259	-163.214	-0.363	0.017
-472.245	264.589	0.188	0.326
-471.230	-200.000	0.007	0.106
-470.216	-200.000	0.010	0.320
-469.201	-52.436	-0.062	0.029
-468.186	-200.000	0.011	-0.256
-467.172	-87.612	-0.176	0.053
-466.157	185.558	0.133	0.197
-465.143	563.625	0.070	0.169
-464.128	-52.571	-0.186	0.086
-463.113	-8.123	-0.110	-0.074
-462.099	24.707	-0.169	0.139
-461.084	153.557	0.250	0.341
-460.070	-119.715	0.205	0.035
-459.055	800.000	0.101	-0.305
-458.040	800.000	-0.079	-0.233
-457.026	-200.000	-0.011	-0.095
-456.011	68.107	0.178	0.181
-454.997	800.000	0.116	0.477
-453.982	-101.818	0.218	-0.053
-452.968	54.998	0.121	0.117
-451.953	16.478	0.090	0.071
-450.938	-89.680	-0.147	0.043
-449.924	-166.713	0.265	0.011
-448.909	137.370	-0.269	-0.350
-447.895	-116.713	-0.161	-0.029
-446.880	90.318	-0.136	-0.151
-445.865	-2.781	0.380	-0.265
-444.851	101.975	0.218	0.253
-443.836	-43.650	0.184	0.093
-442.822	41.625	-0.015	-0.014
-441.807	-15.740	-0.240	-0.152
-440.792	34.693	0.051	-0.044
-439.778	-92.764	-0.380	0.106
-438.763	231.034	0.090	0.147
-437.749	194.658	-0.038	-0.057
-436.734	-32.979	0.438	0.242
-435.719	-200.000	-0.005	-0.400
-434.705	-200.000	-0.024	-0.226
-433.690	-141.254	0.370	0.037
-432.676	-37.654	-0.367	-0.194
-431.661	269.107	-0.112	-0.196
-430.646	-14.297	-0.091	-0.058
-429.632	-200.000	-0.041	-0.279
-428.617	-78.037	-0.137	-0.047
-427.603	128.758	-0.115	-0.146
-426.588	-58.140	-0.340	-0.147
-425.573	-7.505	-0.099	-0.067
-424.559	66.278	-0.244	0.246
-423.544	791.141	-0.148	-0.403
-422.530	274.131	-0.286	-0.503
-421.515	800.000	-0.045	0.162
-420.500	200.956	-0.073	0.111
-419.486	-52.320	-0.251	-0.116
-418.471	-89.069	-0.172	-0.050
-417.457	-38.030	0.303	-0.160
-416.442	25.019	0.102	0.084
-415.428	11.137	-0.171	-0.130
-414.413	-70.588	-0.074	-0.028
-413.398	-75.784	0.111	-0.039
-412.384	103.260	-0.159	-0.185
-411.369	493.075	0.216	0.493
-410.355	187.138	0.085	0.125
-409.340	-104.592	0.402	0.092
-408.325	-200.000	-0.027	0.283
-407.311	-138.659	-0.194	0.021
-406.296	-157.195	-0.182	-0.011
-405.282	-87.409	-0.178	-0.054
-404.267	-19.339	0.116	-0.071
-403.252	-85.690	0.086	-0.026
-402.238	733.475	0.067	-0.177
-401.223	60.593	0.142	-0.140
-400.209	28.827	0.170	-0.143
-399.194	-63.644	-0.156	0.064
-398.179	-113.429	0.197	0.038
-397.165	-33.483	0.100	0.055
-396.150	-100.999	0.219	-0.053
-395.136	-146.533	0.162	-0.014
-394.121	21.238	-0.084	0.067
-393.106	800.000	0.028	-0.101
-392.092	-130.584	-0.141	-0.019
-391.077	800.000	0.033	-0.138
-390.063	-175.078	-0.087	0.002
-389.048	87.328	0.108	0.119
-388.033	134.032	0.152	-0.196
-387.019	-152.413	0.419	0.030
-386.004	-106.041	-0.227	-0.051
-384.990	-200.000	-0.036	0.242
-383.975	-193.355	-0.203	-0.002
-382.960	800.000	-0.044	-0.191
-381.946	-52.948	0.268	-0.122
-380.931	-200.000	-0.032	-0.207
-379.917	-2.154	-0.086	-0.060
-378.902	-14.168	0.275	-0.176
-377.888	245.176	0.042	0.070
-376.873	562.439	-0.138	0.332
-375.858	-72.396	0.109	0.040
-374.844	508.498	-0.134	-0.309
-373.829	-149.937	0.153	-0.012
-372.815	7.514	0.145	-0.108
-371.800	-66.133	0.127	0.050
-370.785	800.000	-0.055	-0.228
-369.771	-90.216	0.241	-0.069
-368.756	-121.563	-0.085	-0.014
-367.742	324.144	0.053	-0.100
-366.727	-70.918	-0.121	0.045
-365.712	800.000	-0.018	0.052
-364.698	-200.000	0.036	-0.341
-363.683	127.686	0.184	0.232
-362.669	-90.454	-0.267	0.077
-361.654	-200.000	0.045	0.275
-360.639	-93.333	0.083	0.023
-359.625	-185.057	-0.075	-0.001
-358.610	-147.269	0.036	0.003
-357.596	-119.831	-0.091	-0.016
-356.581	440.080	-0.051	-0.110
-355.566	404.648	0.170	-0.355
-354.552	11.956	0.106	-0.080
-353.537	13.313	0.163	0.125
-352.523	298.579	-0.219	0.400
-351.508	-38.699	0.097	0.051
-350.493	-53.926	-0.103	-0.047
-349.479	-200.000	0.007	-0.273
-348.464	-88.841	-0.171	0.050
-347.450	-200.000	0.137	0.000
-346.435	207.136	-0.118	0.183
-345.420	-84.087	0.075	-0.024
-344.406	-167.779	0.218	0.009
-343.391	206.137	0.155	0.239
-342.377	-75.747	0.083	-0.029
-341.362	800.000	0.052	-0.165
-340.348	237.355	-0.081	0.133
-339.333	48.788	0.046	0.042
-338.318	-187.505	-0.129	-0.002
-337.304	-57.037	0.082	-0.036
-336.289	-77.265	0.051	-0.018
-335.275	10.233	-0.084	0.063
-334.260	-113.021	-0.095	-0.019
-333.245	327.338	0.057	0.108
-332.231	192.916	-0.146	-0.218
-331.216	-91.367	-0.119	0.034
-330.202	800.000	-0.039	-0.109
-329.187	-116.028	0.422	0.078
-328.172	-200.000	0.021	0.105
-327.158	-45.734	-0.298	0.146
-326.143	476.546	0.083	0.186
-325.129	-54.533	-0.128	0.057
-324.114	-56.155	0.230	-0.102
-323.099	800.000	0.039	0.135
-322.085	-200.000	-0.018	-0.089
-321.070	143.849	0.195	0.257
-320.056	-174.626	-0.113	0.003
-319.041	-89.071	0.216	-0.063
-318.026	-6.504	-0.056	0.038
-317.012	123.231	0.104	0.129
-315.997	168.177	-0.135	-0.190
-314.983	-200.000	0.029	0.179
-313.968	132.335	-0.306	-0.391
-312.953	-54.922	-0.501	-0.224
-311.939	662.383	-0.088	0.224
-310.924	643.327	-0.052	0.130
-309.910	209.215	0.055	-0.086
-308.895	479.579	0.133	-0.299
-307.880	37.894	0.020	0.018
-306.866	-96.918	0.154	0.040
-305.851	-200.000	-0.030	0.223
-304.837	66.892	0.181	0.182
-303.822	54.446	0.195	-0.186
-302.807	-200.000	-0.092	0.406
-301.793	800.000	-0.072	0.240
-300.778	-200.000	0.013	-0.059
-299.764	-47.650	0.167	0.080
-298.749	-88.964	-0.361	0.106
-297.735	-78.543	-0.156	0.053
-296.720	359.836	0.062	-0.124
-295.705	-162.622	0.212	-0.010
-294.691	339.231	-0.060	-0.116
-293.676	13.083	-0.121	-0.092
-292.662	800.000	-0.058	-0.236
-291.647	-42.834	-0.233	-0.117
-290.632	-48.012	0.232	-0.111
-289.618	-57.950	0.234	0.101
-288.603	-9.377	-0.272	-0.180
-287.589	96.613	0.057	0.064
-286.574	-96.899	-0.099	-0.026
-285.559	-72.781	0.149	0.054
-284.545	-101.833	0.342	-0.082
-283.530	800.000	-0.052	0.148
-282.516	-62.982	0.154	-0.063
-281.501	-158.443	0.354	-0.020
-280.486	-200.000	-0.042	-0.194
-279.472	113.629	-0.181	-0.217
-278.457	-94.852	-0.281	-0.075
-277.443	145.659	0.138	-0.183
-276.428	-133.679	-0.451	0.056
-275.413	795.701	0.104	0.282
-274.399	234.965	0.070	0.114
-273.384	166.590	-0.069	-0.096
-272.370	-200.000	0.006	-0.310
-271.355	1.638	-0.088	-0.063
-270.340	83.106	-0.027	0.030
-269.326	190.242	-0.081	0.120
-268.311	-200.000	0.065	-0.305
-267.297	54.482	-0.157	0.149
-266.282	-71.934	-0.270	0.099
-265.267	-200.000	0.026	0.188
-264.253	209.984	-0.170	-0.263
-263.238	-96.810	0.144	-0.037
-262.224	800.000	-0.018	-0.065
-261.209	-200.000	0.013	0.137
-260.195	-175.853	0.286	-0.008
-259.180	337.747	-0.110	-0.212
-258.165	26.082	0.128	-0.106
-257.151	744.661	0.141	0.375
-256.136	-200.000	0.011	0.152
-255.122	132.044	0.137	-0.174
-254.107	800.000	-0.139	-0.421
-253.092	-92.166	-0.205	0.057
-252.078	134.721	0.094	0.120
-251.063	376.554	-0.030	0.060
-250.049	253.006	-0.026	0.044
-249.034	186.502	0.164	0.241
-248.019	-48.538	0.173	0.082
-247.005	-200.000	-0.033	-0.430
-245.990	-103.011	0.089	0.021
-244.976	674.086	0.038	-0.098
-243.961	70.601	0.154	-0.158
-242.946	-83.401	-0.233	0.074
-241.932	2.488	0.217	0.155
-240.917	728.504	-0.044	0.116
-239.903	-141.354	0.225	-0.023
-238.888	-25.518	-0.152	-0.089
-237.873	-80.089	0.271	0.090
-236.859	-40.150	0.143	0.074
-235.844	800.000	-0.080	0.238
-234.830	800.000	-0.125	-0.387
-233.815	452.432	0.057	-0.125
-232.800	-200.000	0.057	-0.424
-231.786	-51.965	0.145	0.066
-230.771	800.000	-0.115	0.420
-229.757	-200.000	0.067	-0.408
-228.742	486.278	0.024	0.055
-227.727	-200.000	-0.004	-0.036
-226.713	142.996	-0.178	0.233
-225.698	-86.344	0.171	0.052
-224.684	-200.000	0.007	0.156
-223.669	199.306	-0.069	-0.105
-222.655	300.414	-0.107	0.194
-221.640	136.198	-0.054	0.070
-220.625	-110.630	-0.210	0.043
-219.611	-200.000	0.021	-0.141
-218.596	-87.656	0.171	-0.051
-217.582	-200.000	0.021	0.479
-216.567	25.169	0.071	-0.059
-215.552	-143.613	-0.188	-0.018
-214.538	-35.860	0.167	-0.089
-213.523	-88.012	0.276	-0.082
-212.509	-51.218	-0.183	0.084
-211.494	-200.000	0.019	-0.123
-210.479	-49.804	-0.239	-0.112
-209.465	-200.000	-0.001	-0.015
-208.450	-12.716	0.011	-0.007
-207.436	-42.330	-0.278	0.140
-206.421	-54.557	-0.199	-0.089
-205.406	-200.000	-0.012	-0.125
-204.392	-129.191	0.116	-0.016
-203.377	11.961	-0.102	0.077
-202.363	466.493	0.081	-0.179
-201.348	102.587	-0.134	-0.154
-200.333	228.278	-0.047	0.075
-199.319	270.291	0.114	0.198
-198.304	-200.000	0.046	-0.279
-197.290	-123.308	0.175	-0.028
-196.275	-75.170	0.309	0.109
-195.260	-69.897	0.349	0.131
-194.246	800.000	0.024	-0.091
-193.231	-200.000	-0.006	-0.148
-192.217	333.347	0.058	-0.110
-191.202	26.403	-0.195	-0.160
-190.187	-76.617	0.272	0.094
-189.173	-62.973	0.266	0.108
-188.158	238.276	-0.235	0.385
-187.144	-109.368	-0.181	-0.038
-186.129	-185.118	-0.294	-0.005
-185.114	-200.000	0.014	0.183
-184.100	-137.338	0.221	0.025
-183.085	-112.207	0.234	0.046
-182.071	-49.026	0.184	-0.087
-181.056	166.427	-0.181	-0.252
-180.042	-200.000	0.007	0.113
-179.027	-34.418	-0.182	-0.098
-178.012	-91.783	-0.334	0.094
-176.998	204.639	-0.050	-0.076
-175.983	-179.901	0.180	-0.004
-174.969	-31.998	-0.225	-0.124
-173.954	-92.511	-0.353	0.098
-172.939	-97.891	-0.020	-0.005
-171.925	-61.753	0.152	-0.063
-170.910	17.666	0.137	0.107
-169.896	-107.520	-0.179	0.039
-168.881	571.731	0.067	-0.161
-167.866	-197.567	-0.110	-0.001
-166.852	-200.000	0.041	0.186
-165.837	-200.000	-0.003	0.148
-164.823	-116.799	0.227	-0.041
-163.808	-122.345	0.177	-0.028
-162.793	-168.477	-0.083	0.003
-161.779	-131.680	-0.172	-0.022
-160.764	800.000	0.100	0.283
-159.750	800.000	0.080	0.296
-158.735	332.986	-0.012	0.023
-157.720	320.073	0.122	0.229
-156.706	800.000	0.110	-0.305
-155.691	684.874	0.051	-0.131
-154.677	-116.240	0.377	-0.069
-153.662	760.820	0.135	0.360
-152.647	47.347	-0.220	0.202
-151.633	-200.000	0.040	0.187
-150.618	-200.000	0.053	-0.420
-149.604	-86.836	0.214	0.064
-148.589	496.581	0.022	-0.050
-147.574	82.426	-0.113	-0.121
-146.560	-200.000	-0.004	0.170
-145.545	19.812	-0.154	0.122
-144.531	-200.000	-0.025	-0.365
-143.516	800.000	-0.045	0.172
-142.502	140.906	-0.042	0.054
-141.487	182.558	0.145	0.210
-140.472	217.341	0.178	0.280
-139.458	17.693	-0.069	0.054
-138.443	338.323	0.123	-0.235
-137.429	345.034	0.051	0.099
-136.414	12.139	0.086	0.065
-135.399	201.598	0.023	-0.035
-134.385	-200.000	-0.066	0.350
-133.370	44.962	0.126	0.114
-132.356	66.158	-0.067	0.067
-131.341	-27.482	0.173	-0.099
-130.326	-200.000	0.001	0.209
-129.312	80.634	-0.069	0.073
-128.297	-200.000	-0.002	-0.192
-127.283	307.328	-0.091	0.166
-126.268	-139.505	0.090	-0.009
-125.253	-200.000	-0.001	-0.095
-124.239	-111.249	0.131	0.026
-123.224	-91.267	-0.219	0.062
-122.210	-95.653	-0.113	0.030
-121.195	-200.000	-0.007	0.076
-120.180	307.137	-0.052	0.095
-119.166	-29.976	-0.142	-0.080
-118.151	286.628	-0.069	0.122
-117.137	-121.261	-0.210	-0.034
-116.122	76.266	0.225	-0.235
-115.107	168.992	0.084	-0.117
-114.093	50.487	-0.184	0.170
-113.078	-200.000	-0.081	-0.000
-112.064	800.000	0.029	-0.119
-111.049	800.000	-0.048	0.146
-110.034	-76.842	0.319	-0.110
-109.020	-25.638	-0.217	0.126
-108.005	-117.692	0.226	-0.040
-106.991	11.167	-0.115	-0.087
-105.976	-70.688	-0.347	-0.129
-104.962	85.402	0.068	0.073
-103.947	141.406	0.256	-0.333
-102.932	-16.199	-0.177	0.110
-101.918	-58.283	0.228	0.097
-100.903	-38.431	-0.283	-0.147
-99.889	234.449	-0.101	-0.164
-98.874	-200.000	-0.032	0.279
-97.859	-8.693	0.241	-0.159
-96.845	-200.000	0.031	0.241
-95.830	186.392	0.082	0.119
-94.816	74.801	-0.078	0.080
-93.801	800.000	-0.025	0.075
-92.786	-200.000	0.036	-0.312
-91.772	-124.502	0.132	0.020
-90.757	800.000	-0.100	0.312
-89.743	159.408	-0.170	0.232
-88.728	-114.283	0.062	0.012
-87.713	-200.000	0.307	-0.001
-86.699	-131.528	0.124	0.016
-85.684	-131.209	0.226	-0.030
-84.670	147.415	0.108	0.143
-83.655	800.000	0.057	-0.217
-82.640	-140.857	-0.368	0.037
-81.626	-200.000	-0.031	-0.217
-80.611	-52.932	-0.470	-0.212
-79.597	-147.179	0.525	-0.044
-78.582	91.347	-0.233	-0.257
-77.567	119.205	0.209	-0.254
-76.553	-88.202	-0.465	-0.137
-75.538	39.987	-0.127	0.112
-74.524	-200.000	-0.026	-0.317
-73.509	-16.154	0.061	-0.038
-72.494	81.109	-0.195	0.207
-71.480	86.320	0.090	-0.098
-70.465	-87.859	0.126	-0.037
-69.451	107.546	-0.149	0.174
-68.436	160.450	-0.152	-0.208
-67.422	-200.000	0.073	-0.317
-66.407	328.925	-0.202	-0.380
-65.392	-129.919	0.180	-0.024
-64.378	-138.787	0.194	-0.021
-63.363	351.381	0.036	0.070
-62.349	-56.323	0.139	0.061
-61.334	115.287	-0.905	-1.083
-60.319	180.302	0.490	0.704
-59.305	800.000	-0.280	-0.948
-58.290	800.000	0.403	1.255
-57.276	800.000	0.430	1.438
-56.261	-200.000	112.747	656.461
-55.246	540.427	1516.173	3537.423
-54.232	178.425	2686.020	3843.134
-53.217	112.630	2148.160	2548.203
-52.203	40.238	1596.475	1406.926
-51.188	31.935	1341.761	1132.536
-50.173	29.027	1302.632	1082.392
-49.159	55.873	1359.838	1291.883
-48.144	55.202	1373.576	1300.865
-47.130	32.124	1328.624	1122.401
-46.115	28.706	1311.211	1087.444
-45.100	28.434	1306.098	1081.558
-44.086	28.314	1304.000	1079.068
-43.071	28.282	1301.578	1076.836
-42.057	28.217	1299.826	1074.962
-41.042	28.331	1297.804	1073.915
-40.027	28.382	1296.203	1072.846
-39.013	28.388	1294.689	1071.588
-37.998	28.359	1293.050	1070.018
-36.984	28.404	1291.074	1068.605
-35.969	28.458	1289.224	1067.342
-34.954	28.556	1287.137	1066.143
-33.940	28.483	1286.098	1064.816
-32.925	28.504	1284.634	1063.682
-31.911	28.499	1283.385	1062.579
-30.896	28.492	1281.976	1061.328
-29.881	28.543	1280.348	1060.235
-28.867	28.573	1279.003	1059.251
-27.852	28.513	1278.433	1058.393
-26.838	28.550	1276.778	1057.191
-25.823	28.627	1275.085	1056.193
-24.809	28.644	1273.564	1054.987
-23.794	28.459	1273.078	1053.478
-22.779	28.523	1271.112	1052.175
-21.765	28.439	1269.881	1050.635
-20.750	28.522	1268.531	1049.950
-19.736	28.403	1267.404	1048.296
-18.721	28.482	1265.880	1047.448
-17.706	28.402	1265.006	1046.223
-16.692	28.357	1263.803	1044.934
-15.677	28.310	1263.249	1044.163
-14.663	28.328	1261.977	1043.172
-13.648	28.368	1260.865	1042.440
-12.633	28.293	1259.598	1040.923
-11.619	28.404	1259.407	1041.356
-10.604	28.362	1258.586	1040.398
-9.590	28.347	1257.459	1039.343
-8.575	28.270	1256.606	1038.158
-7.560	28.455	1255.339	1038.116
-6.546	28.385	1254.691	1037.141
-5.531	28.388	1253.712	1036.313
-4.517	28.454	1252.367	1035.529
-3.502	28.319	1252.442	1034.789
-2.487	28.505	1250.991	1034.596
-1.473	28.439	1246.912	1030.815
-0.458	26.775	1231.935	1009.136
0.556	23.654	1214.686	970.961
1.571	19.740	1219.998	953.579
2.586	18.814	1233.918	959.208
3.600	18.301	1222.122	947.114
4.615	13.727	1151.423	868.349
5.629	6.404	1079.761	778.163
6.644	3.449	1060.712	750.008
7.659	3.159	1058.742	747.142
8.673	3.123	1057.453	745.993
9.688	3.209	1056.636	745.767
10.702	3.391	1054.660	745.185
11.717	7.445	1059.848	768.451
12.731	15.091	1070.809	813.615
13.746	19.527	1075.916	839.031
14.761	19.931	1076.464	841.348
15.775	19.161	1074.500	836.004
16.790	18.077	1072.582	829.182
17.804	17.437	1071.062	824.829
18.819	17.101	1069.894	822.232
19.834	17.122	1069.177	821.710
20.848	16.805	1068.988	819.960
21.863	16.596	1067.842	817.998
22.877	16.627	1066.745	817.232
23.892	16.456	1066.658	816.267
24.907	16.427	1065.769	815.374
25.921	16.591	1064.119	814.833
26.936	16.637	1062.896	814.043
27.950	16.615	1061.542	812.832
28.965	16.642	1060.187	811.848
29.980	16.758	1058.825	811.291
30.994	16.806	1057.624	810.530
32.009	16.976	1056.546	810.443
33.023	16.865	1055.467	809.014
34.038	16.711	1054.672	807.597
35.053	16.640	1053.539	806.321
36.067	16.667	1052.576	805.641
37.082	16.588	1051.593	804.444
38.096	16.781	1051.298	805.064
39.111	16.766	1050.541	804.340
40.126	16.578	1049.233	802.374
41.140	16.402	1047.825	800.396
42.155	16.311	1046.289	798.722
43.169	16.101	1046.083	797.497
44.184	16.248	1044.803	797.148
45.199	16.381	1043.546	796.744
46.213	16.452	1042.824	796.459
47.228	16.490	1042.090	796.006
48.242	16.550	1041.072	795.442
49.257	16.548	1039.857	794.431
50.271	16.668	1039.088	794.339
51.286	16.698	1038.385	793.868
52.301	16.659	1037.185	792.701
53.315	16.463	1036.036	790.833
54.330	16.390	1034.885	789.544
55.344	16.499	1034.025	789.326
56.359	16.459	1033.213	788.453
57.374	16.298	1032.596	787.159
58.388	16.268	1031.236	785.915
59.403	16.236	1030.893	785.435
60.417	16.197	1030.007	784.510
61.432	16.217	1029.207	783.924
62.447	16.074	1028.387	782.563
63.461	16.149	1027.262	781.989
64.476	16.105	1026.612	781.217
65.490	16.125	1025.435	780.348
66.505	16.272	1025.006	780.634
67.520	16.275	1024.237	779.991
68.534	16.132	1023.601	778.776
69.549	16.031	1023.057	777.827
70.563	16.108	1022.165	777.438
71.578	15.958	1021.438	776.125
72.593	15.931	1020.329	775.087
73.607	16.055	1019.333	774.831
74.622	15.969	1019.065	774.166
75.636	16.031	1018.276	773.782
76.651	16.051	1017.386	773.130
77.666	16.229	1016.152	772.939
78.680	16.044	1016.525	772.305
79.695	16.101	1016.021	772.114
80.709	16.171	1015.246	771.778
81.724	16.343	1014.604	772.007
82.739	16.434	1013.789	771.736
83.753	16.652	1013.021	772.078
84.768	16.763	1012.753	772.312
85.782	16.938	1011.746	772.270
86.797	16.936	1010.745	771.430
87.812	16.589	1009.853	769.106
88.826	16.631	1008.905	768.505
89.841	16.814	1007.824	768.444
90.855	16.867	1007.162	768.111
91.870	16.862	1006.180	767.270
92.884	16.849	1005.000	766.246
93.899	16.847	1004.364	765.685
94.914	16.713	1004.135	764.838
95.928	16.812	1003.060	764.398
96.943	16.791	1002.054	763.467
97.957	16.698	1001.178	762.315
98.972	16.749	1000.270	761.782
99.987	16.812	999.627	761.508
101.001	16.880	998.219	760.677
102.016	16.856	997.621	760.045
103.030	16.846	996.970	759.437
104.045	16.789	995.889	758.291
105.060	16.598	995.251	756.884
106.074	16.410	994.332	755.276
107.089	16.202	993.367	753.550
108.103	16.297	991.672	752.618
109.118	16.278	990.840	751.839
110.133	16.125	990.104	750.532
111.147	16.165	989.075	749.861
112.162	16.335	988.083	749.798
113.176	16.338	987.682	749.440
114.191	16.375	986.881	748.934
115.206	16.411	986.536	748.761
116.220	16.378	985.281	747.597
117.235	16.206	984.448	746.138
118.249	16.279	983.378	745.583
119.264	16.288	982.866	745.172
120.279	16.232	981.871	744.105
121.293	16.185	980.969	743.146
122.308	16.229	980.040	742.573
123.322	16.149	979.139	741.469
124.337	16.082	977.754	740.060
125.352	16.237	976.795	739.949
126.366	16.173	975.707	738.781
127.381	16.184	975.156	738.347
128.395	16.118	974.037	737.144
129.410	16.155	973.446	736.794
130.424	16.310	972.746	736.877
131.439	16.295	971.962	736.150
132.454	16.426	970.911	735.861
133.468	16.354	970.427	735.115
134.483	16.412	969.370	734.502
135.497	16.425	968.662	733.958
136.512	16.339	968.045	733.050
137.527	16.419	966.885	732.457
138.541	16.384	966.282	731.781
139.556	16.350	966.151	731.469
140.570	16.620	965.249	731.892
141.585	16.665	964.532	731.475
142.600	16.717	963.508	730.858
143.614	16.838	962.665	730.678
144.629	16.744	961.991	729.699
145.643	16.736	961.134	728.948
146.658	16.639	959.378	727.134
147.673	16.607	958.895	726.568
148.687	16.407	957.946	724.923
149.702	16.346	956.996	723.880
150.716	16.324	956.467	723.323
151.731	16.442	955.477	723.013
152.746	16.493	954.989	722.800
153.760	16.513	954.203	722.224
154.775	16.650	953.848	722.477
155.789	16.759	952.998	722.235
156.804	16.689	952.177	721.253
157.819	16.650	952.135	720.989
158.833	16.945	951.333	721.575
159.848	16.890	950.512	720.652
160.862	16.759	949.784	719.483
161.877	16.618	948.016	717.479
162.892	16.373	947.427	715.932
163.906	16.400	946.624	715.377
164.921	16.612	945.332	715.232
165.935	16.762	944.261	714.995
166.950	16.703	943.763	714.306
167.964	16.616	943.137	713.400
168.979	16.629	941.485	712.143
169.994	16.603	940.916	711.540
171.008	16.500	940.955	711.072
172.023	16.807	939.975	711.558
173.037	16.898	939.565	711.567
174.052	16.825	938.250	710.202
175.067	16.577	937.685	708.674
176.081	16.431	937.209	707.638
177.096	16.539	936.843	707.754
178.110	16.535	935.973	707.017
179.125	16.746	935.573	707.533
180.140	16.725	935.001	706.949
181.154	16.700	934.962	706.755
182.169	16.819	934.270	706.663
183.183	16.964	933.580	706.685
184.198	17.011	932.823	706.244
185.213	16.891	932.356	705.329
186.227	16.969	931.943	705.277
187.242	17.089	930.840	704.881
188.256	17.191	930.600	705.058
189.271	17.162	929.666	704.170
190.286	16.802	928.769	701.937
191.300	16.363	928.247	699.663
192.315	16.542	926.299	698.869
193.329	16.559	926.549	699.066
194.344	16.616	926.384	699.116
195.359	16.788	925.544	699.131
196.373	16.924	924.774	699.049
197.388	16.986	924.535	699.063
198.402	17.118	924.403	699.442
199.417	17.311	923.666	699.617
200.432	17.442	922.756	699.405
201.446	17.431	922.504	699.106
202.461	17.495	922.238	699.107
203.475	17.267	921.566	697.600
204.490	17.254	920.296	696.523
205.504	17.227	919.345	695.632
206.519	17.111	918.853	694.722
207.534	17.088	917.971	693.900
208.548	17.074	918.123	693.898
209.563	17.180	916.646	693.151
210.577	17.232	916.285	693.031
211.592	17.358	915.688	693.028
212.607	17.417	914.936	692.638
213.621	17.254	914.002	691.210
214.636	17.320	913.505	691.038
215.650	17.371	912.804	690.655
216.665	17.435	912.270	690.451
217.680	17.415	912.178	690.236
218.694	17.436	911.341	689.629
219.709	17.480	910.546	689.143
220.723	17.381	910.030	688.294
221.738	17.402	908.793	687.379
222.753	17.509	908.238	687.331
223.767	17.585	907.603	687.098
224.782	17.645	907.746	687.387
225.796	17.758	906.604	686.916
226.811	17.628	905.742	685.677
227.826	17.487	905.288	684.708
228.840	17.423	904.544	683.827
229.855	17.344	903.857	682.932
230.869	17.434	903.126	682.679
231.884	17.356	902.484	681.821
232.899	17.258	901.414	680.561
233.913	17.253	900.878	680.073
234.928	17.394	900.342	680.174
235.942	17.318	899.581	679.233
236.957	17.197	899.078	678.312
237.972	17.298	898.808	678.450
238.986	17.372	897.669	677.827
240.001	17.289	896.908	676.861
241.015	17.354	896.681	676.887
242.030	17.492	896.016	676.874
243.045	17.526	895.269	676.388
244.059	17.536	895.216	676.327
245.074	17.639	894.589	676.202
246.088	17.595	893.591	675.212
247.103	17.629	893.519	675.232
248.117	17.928	892.849	675.850
249.132	17.888	892.651	675.481
250.147	18.115	891.687	675.592
251.161	18.087	891.138	675.004
252.176	18.302	890.329	675.179
253.190	18.280	889.436	674.358
254.205	18.228	888.947	673.721
255.220	18.217	888.629	673.376
256.234	18.198	887.799	672.615
257.249	18.278	887.220	672.429
258.263	18.320	886.306	671.843
259.278	18.299	885.516	671.103
260.293	18.130	885.355	670.260
261.307	18.351	884.646	670.530
262.322	18.347	884.156	670.080
263.336	18.319	883.401	669.340
264.351	18.373	882.770	669.016
265.366	18.561	881.790	668.947
266.380	18.430	881.330	668.025
267.395	18.328	880.520	666.958
268.409	18.401	879.599	666.483
269.424	18.343	879.010	665.753
270.439	18.375	878.036	665.080
271.453	18.284	877.753	664.454
272.468	18.230	877.323	663.860
273.482	18.290	876.725	663.583
274.497	18.149	876.410	662.740
275.512	18.228	875.347	662.182
276.526	18.324	874.448	661.814
277.541	18.249	874.573	661.561
278.555	18.474	874.112	662.023
279.570	18.604	873.205	661.780
280.585	18.660	872.328	661.272
281.599	18.512	871.326	659.881
282.614	18.347	870.929	658.887
283.628	18.206	870.664	658.089
284.643	18.386	869.523	657.860
285.657	18.313	869.659	657.625
286.672	18.502	868.613	657.498
287.687	18.466	867.886	656.753
288.701	18.378	867.337	655.943
289.716	18.410	867.007	655.756
290.730	18.506	865.815	655.163
291.745	18.461	865.789	654.914
292.760	18.627	864.994	654.890
293.774	18.570	864.903	654.546
294.789	18.589	863.979	653.862
295.803	18.492	863.502	653.071
296.818	18.408	862.493	651.932
297.833	18.352	861.849	651.172
298.847	18.447	861.269	651.039
299.862	18.683	860.702	651.449
300.876	18.551	860.701	650.887
301.891	18.738	859.411	650.566
302.906	18.880	859.209	650.891
303.920	18.981	859.099	651.135
304.935	19.066	857.905	650.493
305.949	18.975	857.582	649.846
306.964	18.832	857.053	648.848
307.979	18.817	856.223	648.106
308.993	18.878	855.902	648.034
310.008	18.969	855.102	647.713
311.022	18.875	854.752	647.036
312.037	18.692	854.296	645.949
313.052	18.684	852.836	644.756
314.066	18.485	852.745	643.882
315.081	18.629	852.061	643.850
316.095	18.681	851.251	643.377
317.110	18.590	850.647	642.520
318.125	18.737	850.043	642.560
319.139	18.699	849.714	642.111
320.154	18.696	849.296	641.728
321.168	18.708	848.731	641.288
322.183	18.958	847.653	641.350
323.197	18.798	847.867	640.857
324.212	18.821	847.331	640.480
325.227	18.685	846.951	639.629
326.241	18.907	845.816	639.543
327.256	18.607	845.747	638.318
328.270	18.626	844.954	637.731
329.285	18.696	844.414	637.529
330.300	18.681	843.826	636.974
331.314	18.720	843.396	636.737
332.329	18.986	842.748	637.177
333.343	18.915	842.617	636.759
334.358	18.896	842.594	636.614
335.373	18.977	841.967	636.385
336.387	19.144	841.232	636.391
337.402	18.927	841.241	635.539
338.416	19.104	841.028	635.974
339.431	19.350	840.306	636.280
340.446	19.393	840.052	636.191
341.460	19.383	839.783	635.895
342.475	19.392	839.479	635.639
343.489	19.492	838.752	635.401
344.504	19.502	838.752	635.384
345.519	19.531	838.241	635.047
346.533	19.556	837.223	634.309
347.548	19.388	836.827	633.338
348.562	19.407	835.964	632.696
349.577	19.204	835.484	631.534
350.592	19.092	834.709	630.482
351.606	19.100	834.024	629.938
352.621	19.085	833.465	629.405
353.635	19.190	833.003	629.387
354.650	19.243	832.035	628.792
355.665	19.158	831.824	628.267
356.679	19.170	831.576	628.068
357.694	19.410	830.712	628.235
358.708	19.352	830.080	627.488
359.723	19.308	829.503	626.838
360.738	19.276	829.153	626.401
361.752	19.301	828.527	625.964
362.767	19.568	827.722	626.270
363.781	19.742	827.047	626.333
364.796	19.729	827.047	626.230
365.810	19.751	826.813	626.076
366.825	19.791	826.517	625.940
367.840	19.721	825.695	625.010
368.854	19.659	825.405	624.513
369.869	19.693	824.668	624.021
370.883	19.738	824.053	623.665
371.898	19.815	824.255	624.040
372.913	19.740	824.180	623.657
373.927	19.760	823.142	622.890
374.942	19.843	822.191	622.411
375.956	19.971	821.869	622.572
376.971	19.830	821.761	621.928
377.986	20.101	821.282	622.486
379.000	20.074	820.963	622.093
380.015	19.924	820.352	621.036
381.029	19.868	819.878	620.423
382.044	19.990	819.096	620.211
383.059	20.148	818.251	620.082
384.073	19.993	817.590	618.974
385.088	19.750	817.296	617.828
386.102	19.756	816.789	617.410
387.117	19.809	815.523	616.588
388.132	19.625	815.815	616.097
389.146	19.927	815.043	616.537
390.161	19.930	814.746	616.268
391.175	20.086	813.891	616.122
392.190	19.862	813.522	614.990
393.205	19.832	812.705	614.212
394.219	19.886	812.664	614.317
395.234	19.841	811.935	613.553
396.248	19.741	811.574	612.873
397.263	19.583	811.262	612.021
398.278	19.726	810.843	612.160
399.292	19.739	810.347	611.774
400.307	19.667	809.809	611.063
401.321	19.794	809.003	610.848
402.336	19.773	809.248	610.905
403.350	19.755	808.818	610.461
404.365	19.906	808.736	610.878
405.380	20.145	807.740	610.914
406.394	20.316	807.030	610.927
407.409	20.302	806.592	610.490
408.423	20.320	806.574	610.486
409.438	20.334	806.408	610.357
410.453	20.341	805.843	609.898
411.467	20.456	805.330	609.862
412.482	20.433	805.335	609.730
413.496	20.592	804.591	609.668
414.511	20.543	804.284	609.213
415.526	20.513	803.592	608.530
416.540	20.510	803.242	608.198
417.555	20.456	802.908	607.703
418.569	20.599	802.634	607.941
419.584	20.594	801.836	607.265
420.599	20.387	801.916	606.550
421.613	161.128	1373.347	1796.427
422.628	139.912	1456.563	1796.519
