DTS Sentinel unit serial number:	SN413079Multiplexer serial number:	ORYXHardware model number:	OX4-SRSoftware version number:	ORYX F/W v4.00 Oryx Data Collector v3.7.2.0data status	okinstallation	princeton_trtdifferential loss correction	single-endedforward channel	channel 1reverse channel	N/Adate	2019/09/13time	20:58:35forward acquisition time	60.00reverse acquisition time	0.00gamma	496.2192k internal	0.2331k external	0.2331temperature offset calibration	1.0085default loss term (dB/km)	0.3790temperature slope calibration	1.0000multiplexer offset coefficient	1.0000multiplexer slope coefficient	1.0000fibre end	0.00T internal ref (°C)	28.64T ext. ref 1 (°C)	3.12T ext. ref 2 (°C)	23.26length (m)	temperature (°C)	Stokes	anti-Stokes-747.200	-160.592	-0.068	-0.004
-746.185	251.907	-0.206	0.353
-745.171	-148.807	0.396	0.032
-744.156	-15.320	-0.201	-0.129
-743.142	-200.000	-0.001	0.088
-742.127	49.777	0.096	0.091
-741.112	-119.785	-0.190	0.033
-740.098	-70.743	0.242	0.092
-739.083	5.586	-0.261	0.194
-738.069	-200.000	0.004	-0.081
-737.054	464.653	0.071	0.160
-736.039	461.960	0.077	0.173
-735.025	-140.313	-0.186	0.020
-734.010	222.238	0.106	-0.171
-732.996	114.232	0.206	-0.252
-731.981	-96.803	0.280	-0.074
-730.966	800.000	0.065	0.220
-729.952	-127.752	-0.145	0.021
-728.937	-200.000	0.020	-0.317
-727.923	12.654	0.066	-0.051
-726.908	-139.036	-0.203	-0.022
-725.894	-200.000	-0.093	-0.434
-724.879	-99.052	-0.383	-0.098
-723.864	-149.677	0.170	0.013
-722.850	269.273	-0.209	0.369
-721.835	-9.049	0.446	0.300
-720.821	800.000	-0.126	0.438
-719.806	124.679	-0.009	0.012
-718.791	-57.528	0.109	0.048
-717.777	-200.000	-0.002	0.072
-716.762	56.513	-0.035	0.034
-715.748	453.295	-0.119	-0.264
-714.733	150.792	-0.192	-0.263
-713.718	-200.000	0.077	-0.365
-712.704	55.809	-0.099	-0.097
-711.689	-145.890	-0.196	0.017
-710.675	-127.040	0.331	0.049
-709.660	-148.803	-0.278	-0.023
-708.645	-107.567	-0.133	0.029
-707.631	-102.249	-0.181	0.044
-706.616	694.833	0.087	-0.228
-705.602	-200.000	-0.038	-0.218
-704.587	284.793	-0.134	0.242
-703.572	13.176	0.173	-0.135
-702.558	-200.000	-0.059	0.334
-701.543	-98.287	0.252	-0.065
-700.529	59.204	0.175	0.173
-699.514	-50.461	-0.186	0.088
-698.499	-47.616	0.255	0.124
-697.485	-133.051	0.308	0.039
-696.470	758.900	-0.129	0.350
-695.456	-33.491	0.075	0.041
-694.441	22.318	-0.187	0.154
-693.426	154.808	0.104	-0.144
-692.412	249.202	0.101	0.172
-691.397	215.782	-0.109	0.173
-690.383	-89.825	0.173	-0.051
-689.368	-7.925	-0.272	0.184
-688.354	-200.000	-0.038	-0.186
-687.339	108.114	-0.093	0.111
-686.324	-48.063	0.298	-0.145
-685.310	-137.226	-0.153	0.017
-684.295	800.000	-0.034	0.095
-683.281	187.947	0.099	0.148
-682.266	-35.153	0.093	-0.051
-681.251	666.288	-0.057	-0.149
-680.237	-200.000	0.071	0.000
-679.222	-12.852	-0.082	0.053
-678.208	-200.000	-0.076	-0.365
-677.193	-200.000	-0.003	0.170
-676.178	-51.824	-0.188	0.088
-675.164	179.629	-0.123	0.181
-674.149	46.442	-0.168	0.157
-673.135	-120.402	-0.252	0.043
-672.120	45.063	-0.229	-0.211
-671.105	-36.793	0.235	0.126
-670.091	-178.832	-0.276	0.006
-669.076	-174.084	0.149	-0.004
-668.062	104.559	0.214	-0.252
-667.047	77.783	-0.119	0.128
-666.032	198.758	0.128	0.196
-665.018	-145.337	0.134	0.012
-664.003	800.000	0.031	-0.111
-662.989	-200.000	-0.028	0.195
-661.974	800.000	0.067	-0.230
-660.959	-121.814	0.187	0.031
-659.945	227.140	-0.191	0.311
-658.930	427.300	-0.017	0.036
-657.916	-21.819	-0.136	-0.083
-656.901	119.419	-0.336	0.417
-655.886	150.067	0.168	0.229
-654.872	46.289	0.089	0.083
-653.857	-33.833	-0.170	-0.094
-652.843	453.492	0.035	0.078
-651.828	333.453	0.037	-0.071
-650.814	140.527	0.193	0.255
-649.799	-200.000	0.025	-0.199
-648.784	-84.723	-0.242	-0.076
-647.770	0.439	-0.105	0.075
-646.755	261.403	0.117	-0.203
-645.741	499.331	0.163	-0.376
-644.726	-114.462	0.124	-0.024
-643.711	-84.545	0.115	-0.036
-642.697	-4.948	-0.064	0.044
-641.682	-200.000	-0.013	0.188
-640.668	-200.000	-0.020	-0.093
-639.653	-5.280	-0.211	-0.145
-638.638	-155.614	0.105	-0.007
-637.624	-17.653	-0.244	0.153
-636.609	83.009	-0.182	-0.198
-635.595	-61.519	-0.053	-0.022
-634.580	197.626	0.199	-0.305
-633.565	-200.000	-0.015	-0.128
-632.551	-46.044	-0.119	0.059
-631.536	6.337	-0.355	0.264
-630.522	-200.000	0.020	0.101
-629.507	-200.000	-0.026	0.249
-628.492	-172.359	-0.197	-0.006
-627.478	40.010	0.170	-0.153
-626.463	-159.282	-0.157	0.009
-625.449	10.965	0.231	-0.177
-624.434	310.559	0.062	0.117
-623.419	665.654	-0.082	-0.212
-622.405	-64.496	-0.202	-0.082
-621.390	59.888	0.254	-0.251
-620.376	-32.646	0.252	-0.140
-619.361	800.000	-0.030	-0.086
-618.346	-9.774	0.321	0.214
-617.332	-200.000	-0.001	-0.337
-616.317	-32.468	-0.140	0.078
-615.303	311.146	-0.096	0.181
-614.288	111.103	0.168	-0.202
-613.273	-46.403	-0.194	-0.095
-612.259	-200.000	0.045	-0.284
-611.244	-98.106	0.331	-0.085
-610.230	681.240	-0.092	-0.241
-609.215	-200.000	0.010	0.097
-608.201	-200.000	-0.001	-0.006
-607.186	59.485	0.077	0.076
-606.171	52.221	-0.285	-0.272
-605.157	31.723	-0.229	-0.198
-604.142	-119.502	0.337	0.058
-603.128	129.183	-0.196	-0.250
-602.113	16.165	0.288	-0.228
-601.098	505.597	0.080	0.186
-600.084	-200.000	-0.037	-0.405
-599.069	30.342	-0.142	-0.122
-598.055	104.724	0.115	-0.135
-597.040	-61.766	-0.210	-0.088
-596.025	-161.428	0.102	-0.005
-595.011	-84.680	-0.209	-0.066
-593.996	-200.000	0.041	-0.289
-592.982	267.625	0.107	-0.188
-591.967	-200.000	-0.010	-0.269
-590.952	121.147	-0.139	-0.173
-589.938	800.000	0.073	0.236
-588.923	458.184	0.112	-0.250
-587.909	-200.000	-0.014	-0.074
-586.894	148.426	-0.205	0.277
-585.879	-87.037	-0.089	0.027
-584.865	-166.020	0.232	-0.010
-583.850	-200.000	-0.001	0.131
-582.836	94.010	-0.146	0.165
-581.821	-200.000	0.145	0.683
-580.806	-64.851	0.405	0.164
-579.792	695.060	0.195	-0.512
-578.777	-200.000	-0.006	-0.094
-577.763	11.957	0.213	0.164
-576.748	-155.287	-0.225	0.015
-575.733	-30.022	0.050	-0.029
-574.719	753.560	0.141	-0.381
-573.704	83.907	0.146	-0.159
-572.690	-200.000	0.073	0.318
-571.675	800.000	0.023	-0.074
-570.661	800.000	-0.068	0.208
-569.646	152.996	-0.115	-0.157
-568.631	319.544	0.047	-0.089
-567.617	85.015	0.100	0.110
-566.602	169.368	0.135	-0.192
-565.588	-108.414	0.159	-0.034
-564.573	279.238	0.092	-0.164
-563.558	133.051	-0.145	-0.187
-562.544	-48.955	-0.023	-0.011
-561.529	800.000	-0.032	-0.111
-560.515	70.375	0.184	-0.190
-559.500	-86.355	0.260	-0.080
-558.485	-122.353	-0.163	-0.027
-557.471	299.788	0.056	0.104
-556.456	-43.840	0.075	-0.038
-555.442	-200.000	0.012	0.062
-554.427	53.637	0.071	-0.068
-553.412	508.309	0.046	-0.107
-552.398	-200.000	-0.020	0.107
-551.383	-129.801	-0.104	-0.014
-550.369	800.000	0.020	0.060
-549.354	190.248	-0.136	-0.204
-548.339	-7.255	-0.165	-0.112
-547.325	800.000	0.022	-0.069
-546.310	-112.977	0.133	0.026
-545.296	117.306	0.120	0.147
-544.281	800.000	-0.056	0.184
-543.266	334.532	-0.077	0.149
-542.252	-64.899	0.131	0.053
-541.237	331.584	-0.059	0.114
-540.223	-32.624	-0.325	0.181
-539.208	-140.973	0.196	-0.020
-538.193	575.293	0.061	0.149
-537.179	156.233	-0.163	0.225
-536.164	800.000	0.053	0.150
-535.150	600.072	-0.084	0.208
-534.135	624.126	-0.051	-0.128
-533.121	800.000	0.040	0.140
-532.106	-45.558	0.172	0.085
-531.091	358.511	-0.148	0.296
-530.077	88.373	0.083	0.091
-529.062	-65.317	-0.347	-0.139
-528.048	-122.207	0.498	0.081
-527.033	-200.000	0.010	0.351
-526.018	800.000	0.106	0.308
-525.004	-200.000	0.013	0.077
-523.989	58.739	-0.152	0.149
-522.975	126.616	-0.108	-0.137
-521.960	-25.746	0.247	-0.146
-520.945	70.272	-0.138	-0.142
-519.931	-131.547	-0.196	-0.026
-518.916	800.000	-0.078	-0.230
-517.902	120.353	-0.282	0.349
-516.887	800.000	-0.055	-0.163
-515.872	73.611	-0.122	-0.128
-514.858	-158.737	0.223	0.013
-513.843	52.801	-0.253	-0.241
-512.829	800.000	0.041	0.173
-511.814	-65.553	-0.055	-0.022
-510.799	800.000	-0.033	0.114
-509.785	89.103	-0.099	0.110
-508.770	-200.000	0.021	-0.182
-507.756	-80.031	-0.107	0.036
-506.741	-200.000	0.009	0.089
-505.726	-61.389	0.042	-0.017
-504.712	-8.441	-0.057	-0.038
-503.697	216.112	-0.082	0.130
-502.683	194.500	-0.095	0.143
-501.668	124.751	-0.260	0.327
-500.653	180.317	-0.044	-0.065
-499.639	-200.000	0.050	0.285
-498.624	105.646	-0.082	0.097
-497.610	-85.961	-0.177	0.054
-496.595	-23.178	0.146	-0.088
-495.581	-2.347	0.268	-0.187
-494.566	666.942	0.127	0.328
-493.551	-200.000	0.059	0.359
-492.537	-82.572	0.018	-0.006
-491.522	-1.706	0.185	-0.130
-490.508	243.643	-0.066	0.111
-489.493	212.583	-0.030	0.047
-488.478	42.715	0.219	-0.199
-487.464	-92.194	-0.149	-0.042
-486.449	800.000	-0.020	0.057
-485.435	-20.046	-0.147	-0.090
-484.420	-105.375	-0.441	0.100
-483.405	800.000	0.050	-0.168
-482.391	-84.220	-0.412	-0.130
-481.376	-200.000	-0.017	-0.244
-480.362	38.304	0.128	0.114
-479.347	-53.846	0.339	0.154
-478.332	800.000	-0.077	0.284
-477.318	-200.000	0.017	-0.293
-476.303	47.713	0.081	-0.075
-475.289	306.878	-0.043	-0.079
-474.274	573.696	-0.062	0.149
-473.259	591.129	0.069	0.169
-472.245	-37.932	-0.222	0.117
-471.230	-114.296	0.263	-0.050
-470.216	-97.211	0.170	0.044
-469.201	315.260	0.186	-0.349
-468.186	800.000	-0.061	-0.226
-467.172	222.089	-0.094	0.150
-466.157	567.526	0.068	0.163
-465.143	-78.341	-0.139	-0.048
-464.128	43.961	-0.179	-0.163
-463.113	-44.192	-0.165	-0.082
-462.099	264.657	0.166	-0.288
-461.084	13.621	-0.192	-0.149
-460.070	-147.300	0.173	0.015
-459.055	-145.316	-0.085	-0.008
-458.040	201.402	-0.152	-0.233
-457.026	800.000	0.061	-0.227
-456.011	-200.000	-0.020	0.295
-454.997	90.787	0.123	0.137
-453.982	-200.000	0.005	0.086
-452.968	-200.000	0.051	0.243
-451.953	-62.394	-0.363	0.150
-450.938	-200.000	-0.003	0.048
-449.924	-200.000	0.017	-0.252
-448.909	800.000	-0.068	-0.291
-447.895	-200.000	-0.003	-0.110
-446.880	-200.000	-0.034	-0.167
-445.865	642.855	0.110	-0.278
-444.851	238.301	-0.130	0.214
-443.836	-130.765	-0.348	0.046
-442.822	114.908	0.079	-0.096
-441.807	421.767	-0.061	-0.131
-440.792	-67.053	0.102	0.040
-439.778	-99.064	0.085	0.021
-438.763	-161.000	-0.223	0.012
-437.749	20.405	-0.177	0.142
-436.734	-138.130	-0.019	0.002
-435.719	-92.454	0.390	0.109
-434.705	-117.593	-0.276	-0.050
-433.690	-138.348	0.440	-0.048
-432.676	-123.028	0.129	0.021
-431.661	42.013	0.069	-0.062
-430.646	16.620	-0.184	0.145
-429.632	92.260	0.045	-0.051
-428.617	-65.731	-0.375	-0.149
-427.603	84.216	0.158	0.171
-426.588	-200.000	0.010	-0.060
-425.573	-200.000	0.028	0.200
-424.559	-57.752	0.143	-0.062
-423.544	-84.463	-0.197	0.062
-422.530	718.710	0.103	0.273
-421.515	-9.743	0.252	-0.167
-420.500	-15.913	0.150	-0.095
-419.486	-200.000	0.040	-0.205
-418.471	-87.136	0.106	-0.032
-417.457	-136.293	-0.198	-0.023
-416.442	-200.000	0.031	0.440
-415.428	800.000	-0.106	-0.410
-414.413	8.184	-0.083	-0.062
-413.398	-200.000	-0.037	-0.210
-412.384	-200.000	0.003	-0.115
-411.369	231.431	0.038	0.062
-410.355	-52.398	0.257	0.118
-409.340	-200.000	0.021	-0.306
-408.325	395.769	0.037	-0.076
-407.311	61.151	0.070	-0.069
-406.296	155.243	-0.165	-0.225
-405.282	-160.986	-0.118	-0.006
-404.267	-158.961	0.344	0.019
-403.252	18.485	-0.062	-0.050
-402.238	-53.714	-0.321	-0.146
-401.223	21.933	-0.046	-0.037
-400.209	-26.007	0.159	0.093
-399.194	-63.066	0.293	0.120
-398.179	-18.541	0.342	0.212
-397.165	113.778	0.154	-0.186
-396.150	743.459	-0.066	-0.176
-395.136	-61.386	-0.111	0.046
-394.121	-200.000	-0.007	-0.087
-393.106	-31.864	-0.247	-0.137
-392.092	-14.286	0.229	0.147
-391.077	-200.000	-0.050	0.220
-390.063	93.248	-0.288	-0.324
-389.048	-39.032	0.349	0.182
-388.033	-45.552	0.151	0.074
-387.019	131.454	0.062	0.080
-386.004	800.000	-0.087	-0.295
-384.990	373.535	-0.035	0.071
-383.975	-109.210	0.152	0.032
-382.960	-34.260	-0.241	-0.131
-381.946	-44.012	-0.405	0.202
-380.931	-71.152	0.361	0.135
-379.917	-128.298	-0.213	0.030
-378.902	19.357	0.094	0.075
-377.888	8.805	-0.172	-0.128
-376.873	11.099	-0.223	-0.169
-375.858	89.803	-0.060	0.067
-374.844	776.540	-0.075	-0.204
-373.829	-142.436	-0.224	0.022
-372.815	-45.008	0.107	-0.053
-371.800	-200.000	0.014	0.138
-370.785	17.439	0.252	-0.199
-369.771	39.525	0.085	0.076
-368.756	14.997	0.074	0.057
-367.742	-146.257	-0.064	-0.006
-366.727	-17.250	0.265	-0.166
-365.712	-200.000	0.010	-0.101
-364.698	-111.358	-0.363	0.073
-363.683	216.820	-0.139	0.219
-362.669	-110.376	-0.320	-0.066
-361.654	310.250	0.139	0.258
-360.639	393.494	-0.127	0.263
-359.625	-28.516	0.088	0.050
-358.610	-50.035	-0.204	0.096
-357.596	-106.183	-0.350	0.078
-356.581	279.879	-0.052	-0.093
-355.566	-200.000	0.002	-0.021
-354.552	800.000	-0.029	0.105
-353.537	-29.437	-0.055	0.031
-352.523	114.735	-0.038	-0.046
-351.508	39.805	0.086	-0.076
-350.493	-110.813	-0.152	0.031
-349.479	-110.539	-0.236	-0.049
-348.464	-8.323	0.182	0.122
-347.450	-200.000	-0.029	-0.351
-346.435	-200.000	-0.033	0.304
-345.420	800.000	-0.046	0.177
-344.406	256.430	-0.041	0.070
-343.391	-200.000	0.019	-0.120
-342.377	-200.000	-0.002	0.110
-341.362	-74.292	0.177	0.063
-340.348	244.275	0.262	0.436
-339.333	-123.340	0.066	-0.010
-338.318	171.719	0.200	0.284
-337.304	-200.000	0.034	0.177
-336.289	6.107	-0.148	-0.109
-335.275	214.791	0.038	0.060
-334.260	42.408	-0.089	0.080
-333.245	-200.000	-0.034	0.366
-332.231	-54.735	-0.155	0.069
-331.216	-144.292	0.283	-0.026
-330.202	-200.000	0.031	-0.167
-329.187	-200.000	0.016	-0.271
-328.172	-114.517	0.190	0.036
-327.158	680.348	0.034	0.087
-326.143	-200.000	-0.008	-0.151
-325.129	800.000	-0.030	0.083
-324.114	23.157	-0.090	0.073
-323.099	800.000	0.108	0.317
-322.085	-76.443	0.208	0.072
-321.070	-46.145	-0.150	-0.073
-320.056	-200.000	-0.004	-0.184
-319.041	-126.354	0.249	0.037
-318.026	-29.818	0.195	-0.110
-317.012	-146.515	0.234	-0.020
-315.997	447.033	-0.218	-0.474
-314.983	429.336	0.030	0.063
-313.968	705.852	0.059	-0.153
-312.953	-200.000	0.002	0.347
-311.939	147.341	-0.163	-0.217
-310.924	-200.000	0.050	0.242
-309.910	79.871	-0.173	0.184
-308.895	-112.617	-0.089	-0.017
-307.880	800.000	0.030	0.128
-306.866	269.732	-0.062	-0.108
-305.851	-36.556	-0.139	0.074
-304.837	4.980	-0.185	-0.134
-303.822	-200.000	0.047	0.352
-302.807	219.958	-0.063	0.100
-301.793	373.837	-0.192	0.387
-300.778	-14.168	0.155	-0.099
-299.764	602.240	-0.032	-0.077
-298.749	97.921	-0.089	-0.102
-297.735	800.000	0.067	0.205
-296.720	101.556	0.234	-0.270
-295.705	-90.149	-0.337	-0.097
-294.691	146.486	0.255	-0.338
-293.676	-137.124	-0.146	0.016
-292.662	-14.823	0.101	0.064
-291.647	150.058	-0.170	-0.229
-290.632	-48.649	-0.112	-0.053
-289.618	-75.029	0.245	0.087
-288.603	-1.759	-0.046	0.032
-287.589	-200.000	-0.019	0.242
-286.574	285.672	-0.207	0.370
-285.559	-15.078	0.220	0.140
-284.545	191.169	0.142	0.212
-283.530	29.866	0.091	0.076
-282.516	437.461	0.027	-0.058
-281.501	-108.950	-0.330	-0.070
-280.486	800.000	0.041	-0.135
-279.472	29.173	-0.159	0.133
-278.457	-68.856	-0.320	0.122
-277.443	-56.333	-0.083	0.036
-276.428	-99.284	-0.191	0.048
-275.413	800.000	-0.053	-0.155
-274.399	-200.000	0.051	0.302
-273.384	-134.967	0.119	0.014
-272.370	-56.348	-0.251	-0.110
-271.355	-26.745	0.376	-0.217
-270.340	-17.849	0.081	-0.050
-269.326	-200.000	-0.036	-0.249
-268.311	614.929	-0.127	-0.315
-267.297	256.514	0.126	0.213
-266.282	-200.000	-0.045	0.203
-265.267	-158.849	-0.035	-0.002
-264.253	67.490	-0.067	0.068
-263.238	-78.389	0.374	0.127
-262.224	415.033	0.111	0.234
-261.209	800.000	-0.062	-0.197
-260.195	-132.761	-0.182	-0.023
-259.180	-111.647	0.191	-0.038
-258.165	-200.000	0.006	-0.361
-257.151	-200.000	0.030	0.242
-256.136	-91.777	0.144	0.040
-255.122	-47.068	-0.354	0.171
-254.107	800.000	0.032	-0.112
-253.092	-200.000	0.004	0.309
-252.078	48.961	-0.136	-0.126
-251.063	-68.489	0.084	-0.032
-250.049	63.352	0.157	-0.155
-249.034	489.704	-0.110	-0.248
-248.019	281.942	0.025	0.043
-247.005	89.953	0.109	-0.121
-245.990	-79.379	-0.149	-0.050
-244.976	800.000	0.069	0.206
-243.961	-181.508	0.529	-0.010
-242.946	-90.953	-0.127	-0.036
-241.932	-48.736	0.269	-0.128
-240.917	161.810	-0.075	0.104
-239.903	47.684	0.101	0.093
-238.888	-200.000	0.021	-0.244
-237.873	-95.604	-0.171	-0.045
-236.859	456.324	-0.105	0.229
-235.844	-90.634	-0.221	-0.063
-234.830	-141.521	0.163	-0.016
-233.815	-107.144	0.336	-0.073
-232.800	-6.414	0.137	-0.092
-231.786	-200.000	0.002	0.207
-230.771	-127.336	0.069	-0.010
-229.757	-114.042	0.224	-0.043
-228.742	376.337	-0.108	0.218
-227.727	206.289	-0.176	0.270
-226.713	800.000	-0.056	0.225
-225.698	490.958	0.126	0.285
-224.684	186.855	-0.076	-0.111
-223.669	-91.151	0.156	0.044
-222.655	-157.139	0.200	0.012
-221.640	44.195	-0.143	-0.130
-220.625	266.454	0.170	-0.292
-219.611	-200.000	0.058	-0.293
-218.596	-116.767	0.451	0.082
-217.582	295.420	-0.106	-0.191
-216.567	-70.999	0.213	0.079
-215.552	116.942	0.234	0.283
-214.538	30.996	-0.006	-0.005
-213.523	45.985	-0.087	0.079
-212.509	115.493	-0.081	-0.097
-211.494	-200.000	0.009	-0.091
-210.479	-120.489	-0.121	-0.020
-209.465	800.000	0.045	0.142
-208.450	-0.304	0.262	0.183
-207.436	-161.752	-0.321	-0.016
-206.421	129.853	-0.043	0.054
-205.406	800.000	0.024	0.094
-204.392	800.000	0.027	0.079
-203.377	-200.000	-0.037	-0.245
-202.363	-129.170	-0.351	0.048
-201.348	92.772	-0.157	-0.175
-200.333	-62.066	0.349	-0.144
-199.319	-139.939	0.332	0.035
-198.304	-173.428	0.093	0.003
-197.290	35.181	0.246	-0.213
-196.275	445.204	-0.122	0.265
-195.260	79.931	0.112	-0.119
-194.246	203.839	0.216	0.330
-193.231	-115.198	0.173	-0.032
-192.217	23.526	-0.272	0.220
-191.202	-200.000	0.011	0.063
-190.187	-200.000	-0.054	-0.271
-189.173	-200.000	-0.074	0.335
-188.158	-73.737	0.298	-0.107
-187.144	-17.393	-0.303	-0.188
-186.129	-102.139	-0.164	-0.039
-185.114	-24.628	-0.169	0.099
-184.100	-146.367	-0.342	-0.029
-183.085	-200.000	0.027	0.217
-182.071	800.000	-0.033	-0.118
-181.056	-17.920	0.067	-0.041
-180.042	62.512	-0.095	0.093
-179.027	316.759	-0.017	0.031
-178.012	-101.704	0.048	0.011
-176.998	-200.000	0.004	-0.180
-175.983	24.874	-0.164	-0.134
-174.969	-88.073	-0.288	0.085
-173.954	211.764	0.216	0.334
-172.939	-25.398	0.148	-0.086
-171.925	62.408	0.021	-0.021
-170.910	80.423	0.147	0.156
-169.896	-33.256	-0.137	-0.075
-168.881	4.229	-0.073	-0.053
-167.866	227.166	-0.025	0.041
-166.852	-200.000	0.095	0.489
-165.837	0.201	-0.236	-0.166
-164.823	2.633	0.009	0.007
-163.808	-124.866	-0.224	0.034
-162.793	315.512	0.024	-0.044
-161.779	501.089	0.032	-0.072
-160.764	-200.000	0.197	0.000
-159.750	102.704	0.101	-0.116
-158.735	364.869	0.053	0.106
-157.720	-200.000	0.008	0.102
-156.706	317.304	-0.131	-0.244
-155.691	720.007	-0.048	0.127
-154.677	-48.884	0.084	-0.039
-153.662	800.000	-0.096	0.353
-152.647	277.105	0.090	0.157
-151.633	97.118	0.041	0.047
-150.618	-85.867	-0.091	-0.028
-149.604	797.658	-0.095	0.258
-148.589	-200.000	-0.032	-0.248
-147.574	-182.882	0.323	-0.006
-146.560	800.000	0.041	-0.168
-145.545	800.000	-0.080	0.293
-144.531	-200.000	-0.007	0.062
-143.516	307.619	-0.111	-0.203
-142.502	-27.121	0.112	-0.064
-141.487	204.942	-0.131	0.200
-140.472	-200.000	0.019	-0.100
-139.458	35.044	0.152	-0.131
-138.443	78.029	0.133	-0.140
-137.429	-26.622	-0.259	-0.149
-136.414	-200.000	-0.015	0.115
-135.399	-200.000	0.002	0.350
-134.385	210.139	0.292	-0.450
-133.370	-200.000	-0.007	-0.114
-132.356	118.305	-0.118	0.143
-131.341	-4.677	0.106	-0.072
-130.326	-100.645	0.294	0.071
-129.312	119.029	-0.166	0.201
-128.297	4.677	-0.320	0.231
-127.283	-200.000	-0.146	-0.000
-126.268	-200.000	-0.068	0.353
-125.253	2.300	0.236	0.167
-124.239	0.803	0.128	0.090
-123.224	800.000	0.058	0.186
-122.210	-200.000	-0.037	-0.359
-121.195	-85.339	0.227	0.069
-120.180	800.000	-0.046	-0.161
-119.166	-151.425	-0.156	0.011
-118.151	-117.487	0.112	-0.020
-117.137	53.931	-0.026	-0.024
-116.122	251.697	-0.112	0.187
-115.107	141.740	0.157	0.205
-114.093	-153.514	-0.324	0.022
-113.078	-23.132	0.231	0.136
-112.064	-85.944	0.105	0.032
-111.049	800.000	0.061	-0.232
-110.034	-94.927	-0.305	0.081
-109.020	-200.000	0.015	0.094
-108.005	-16.485	-0.345	0.215
-106.991	-200.000	0.032	0.202
-105.976	349.017	-0.132	0.256
-104.962	-117.332	0.200	-0.036
-103.947	-44.820	0.080	0.039
-102.932	-14.631	0.067	-0.042
-101.918	-200.000	0.028	0.203
-100.903	448.057	0.182	0.393
-99.889	210.083	0.284	0.437
-98.874	296.706	0.011	-0.019
-97.859	-31.551	0.158	-0.087
-96.845	-127.743	0.104	0.015
-95.830	-22.031	0.226	-0.135
-94.816	490.171	-0.182	0.409
-93.801	-44.133	-0.400	0.197
-92.786	-135.880	-0.131	-0.015
-91.772	800.000	-0.121	0.356
-90.757	49.629	-0.272	0.252
-89.743	-87.477	0.179	0.053
-88.728	-200.000	0.005	-0.112
-87.713	800.000	0.026	-0.099
-86.699	240.866	0.068	-0.111
-85.684	-200.000	-0.055	0.302
-84.670	-157.933	-0.163	-0.009
-83.655	199.876	0.047	-0.070
-82.640	-115.929	0.134	0.025
-81.626	-12.473	0.075	-0.048
-80.611	-20.818	0.220	0.132
-79.597	5.773	0.271	0.197
-78.582	14.324	-0.146	-0.112
-77.567	351.090	-0.024	-0.047
-76.553	-198.309	0.194	-0.001
-75.538	61.506	0.286	0.279
-74.524	-72.805	0.248	0.090
-73.509	800.000	-0.096	0.282
-72.494	248.638	0.223	0.371
-71.480	-46.617	-0.424	0.204
-70.465	-23.427	0.158	0.093
-69.451	-134.616	0.353	-0.042
-68.436	-53.277	0.086	0.039
-67.422	-200.000	0.066	0.298
-66.407	76.292	-0.048	-0.050
-65.392	53.315	-0.208	0.195
-64.378	-200.000	-0.013	-0.278
-63.363	748.301	-0.133	-0.351
-62.349	143.991	0.065	0.085
-61.334	4.502	-0.906	-0.651
-60.319	-37.131	0.962	0.505
-59.305	800.000	-0.159	-0.667
-58.290	137.446	0.707	0.906
-57.276	567.368	0.584	1.389
-56.261	-200.000	112.257	658.245
-55.246	542.675	1518.197	3546.866
-54.232	177.788	2691.301	3843.383
-53.217	113.145	2150.698	2554.698
-52.203	40.519	1596.814	1408.735
-51.188	32.295	1340.624	1133.352
-50.173	29.225	1301.599	1082.316
-49.159	55.765	1357.723	1288.781
-48.144	55.629	1372.925	1302.349
-47.130	32.293	1327.318	1121.913
-46.115	28.754	1309.830	1086.209
-45.100	28.711	1304.107	1081.164
-44.086	28.446	1302.591	1078.304
-43.071	28.459	1300.177	1076.342
-42.057	28.554	1297.491	1074.632
-41.042	28.429	1296.563	1073.090
-40.027	28.484	1294.793	1071.900
-39.013	28.579	1292.965	1070.900
-37.998	28.594	1290.876	1069.214
-36.984	28.629	1289.299	1068.069
-35.969	28.585	1287.564	1066.338
-34.954	28.689	1285.595	1065.264
-33.940	28.553	1284.854	1063.821
-32.925	28.670	1283.268	1063.143
-31.911	28.706	1282.195	1062.419
-30.896	28.747	1280.413	1061.136
-29.881	28.709	1279.208	1059.876
-28.867	28.846	1277.683	1059.363
-27.852	28.694	1276.108	1057.138
-26.838	28.800	1274.716	1056.553
-25.823	28.702	1273.855	1055.233
-24.809	28.744	1272.247	1054.104
-23.794	28.707	1270.946	1052.770
-22.779	28.730	1269.638	1051.774
-21.765	28.717	1268.498	1050.714
-20.750	28.740	1267.075	1049.628
-19.736	28.578	1266.122	1047.870
-18.721	28.606	1264.558	1046.696
-17.706	28.568	1263.803	1045.814
-16.692	28.596	1262.403	1044.770
-15.677	28.529	1261.526	1043.624
-14.663	28.662	1259.866	1042.961
-13.648	28.584	1259.261	1041.977
-12.633	28.586	1258.129	1041.010
-11.619	28.588	1257.560	1040.509
-10.604	28.572	1256.527	1039.521
-9.590	28.615	1255.642	1038.996
-8.575	28.572	1254.398	1037.683
-7.560	28.589	1253.522	1037.011
-6.546	28.615	1253.240	1036.882
-5.531	28.614	1252.073	1035.873
-4.517	28.529	1251.882	1035.193
-3.502	28.503	1250.795	1034.103
-2.487	28.550	1249.903	1033.590
-1.473	28.575	1245.519	1030.068
-0.458	26.943	1229.904	1008.056
0.556	23.792	1212.784	969.942
1.571	19.788	1217.933	951.981
2.586	18.863	1231.982	957.724
3.600	18.419	1219.621	945.579
4.615	13.737	1149.055	866.390
5.629	6.424	1076.969	776.048
6.644	3.302	1058.420	747.479
7.659	3.061	1055.836	744.422
8.673	3.021	1055.339	743.813
9.688	3.096	1054.067	743.215
10.702	3.359	1051.419	742.548
11.717	7.353	1057.177	765.872
12.731	14.960	1068.087	810.701
13.746	19.455	1073.451	836.542
14.761	20.020	1073.200	839.009
15.775	19.109	1071.835	833.463
16.790	18.146	1069.419	826.856
17.804	17.406	1067.813	821.967
18.819	17.126	1067.316	820.160
19.834	16.939	1066.695	818.707
20.848	16.811	1065.546	817.132
21.863	16.719	1064.473	815.795
22.877	16.500	1064.051	814.344
23.892	16.480	1063.538	813.786
24.907	16.514	1062.468	813.055
25.921	16.524	1061.525	812.310
26.936	16.529	1060.157	811.218
27.950	16.547	1058.644	810.075
28.965	16.702	1057.463	809.840
29.980	16.753	1056.316	809.133
30.994	16.799	1055.050	808.314
32.009	16.851	1054.333	807.939
33.023	16.765	1052.728	806.227
34.038	16.723	1052.039	805.432
35.053	16.567	1051.225	803.994
36.067	16.540	1050.186	803.000
37.082	16.634	1049.358	802.740
38.096	16.719	1048.690	802.560
39.111	16.708	1048.150	802.025
40.126	16.713	1046.230	800.512
41.140	16.434	1045.173	798.314
42.155	16.196	1043.817	796.082
43.169	16.308	1042.529	795.556
44.184	16.309	1041.458	794.677
45.199	16.207	1040.993	793.769
46.213	16.321	1040.391	793.775
47.228	16.509	1038.991	793.521
48.242	16.666	1038.002	793.433
49.257	16.642	1037.070	792.536
50.271	16.617	1036.185	791.671
51.286	16.714	1035.085	791.216
52.301	16.642	1034.364	790.259
53.315	16.568	1032.897	788.725
54.330	16.400	1032.128	787.284
55.344	16.261	1031.838	786.344
56.359	16.307	1030.854	785.737
57.374	16.271	1030.066	784.901
58.388	16.283	1028.896	783.994
59.403	16.234	1028.070	783.070
60.417	16.210	1027.473	782.437
61.432	16.226	1026.750	781.888
62.447	16.096	1025.937	780.597
63.461	16.130	1024.582	779.657
64.476	16.170	1023.811	779.185
65.490	16.115	1023.157	778.366
66.505	16.222	1022.339	778.168
67.520	16.119	1021.775	777.193
68.534	16.233	1021.276	777.273
69.549	16.185	1020.334	776.266
70.563	16.172	1019.569	775.553
71.578	16.021	1018.439	773.933
72.593	15.836	1017.899	772.603
73.607	15.867	1017.444	772.331
74.622	15.962	1017.012	772.373
75.636	16.077	1015.645	771.795
76.651	15.971	1015.422	771.069
77.666	16.032	1014.718	770.745
78.680	15.933	1014.234	769.856
79.695	16.160	1013.121	769.981
80.709	16.223	1012.908	770.037
81.724	16.327	1012.224	769.922
82.739	16.248	1011.818	769.186
83.753	16.619	1010.590	769.873
84.768	16.755	1010.138	770.078
85.782	16.833	1009.421	769.818
86.797	16.851	1008.224	768.922
87.812	16.590	1007.680	767.252
88.826	16.609	1006.180	766.132
89.841	16.772	1005.388	766.194
90.855	16.767	1004.627	765.526
91.870	16.877	1004.013	765.485
92.884	16.839	1002.742	764.279
93.899	16.915	1001.784	763.823
94.914	16.946	1001.430	763.627
95.928	16.799	1000.693	762.335
96.943	16.681	999.544	760.861
97.957	16.727	998.744	760.392
98.972	16.675	998.030	759.548
99.987	16.777	996.997	759.152
101.001	16.705	995.948	757.963
102.016	16.700	995.277	757.362
103.030	16.680	994.569	756.667
104.045	16.778	993.666	756.350
105.060	16.572	992.645	754.590
106.074	16.454	991.470	753.104
107.089	16.186	990.819	751.346
108.103	16.152	989.878	750.416
109.118	16.260	988.619	749.875
110.133	16.073	987.932	748.459
111.147	16.206	987.130	748.373
112.162	16.252	986.290	747.876
113.176	16.405	985.434	747.837
114.191	16.359	984.827	747.107
115.206	16.295	983.777	745.963
116.220	16.254	983.294	745.351
117.235	16.384	981.986	744.866
118.249	16.309	981.258	743.916
119.264	16.253	980.629	743.129
120.279	16.251	979.782	742.409
121.293	16.190	978.915	741.422
122.308	16.047	978.257	740.230
123.322	16.114	976.848	739.390
124.337	15.986	975.945	738.078
125.352	16.155	974.690	737.807
126.366	16.070	973.610	736.551
127.381	16.217	972.300	736.134
128.395	16.162	971.973	735.585
129.410	16.063	971.298	734.576
130.424	16.272	970.202	734.593
131.439	16.271	969.944	734.326
132.454	16.425	968.508	733.845
133.468	16.331	968.160	733.108
134.483	16.520	967.268	733.188
135.497	16.299	966.851	731.846
136.512	16.258	965.943	730.917
137.527	16.400	964.669	730.504
138.541	16.366	964.048	729.821
139.556	16.458	963.362	729.635
140.570	16.572	963.090	729.857
141.585	16.660	962.564	729.771
142.600	16.720	961.429	729.104
143.614	16.784	960.585	728.677
144.629	16.893	959.862	728.530
145.643	16.858	958.986	727.654
146.658	16.671	957.514	725.669
147.673	16.463	957.122	724.418
148.687	16.464	955.911	723.441
149.702	16.422	954.880	722.416
150.716	16.381	954.052	721.550
151.731	16.470	953.340	721.330
152.746	16.461	953.028	720.991
153.760	16.563	951.961	720.553
154.775	16.694	951.379	720.606
155.789	16.742	950.872	720.362
156.804	16.624	950.185	719.277
157.819	16.804	949.254	719.276
158.833	16.792	949.187	719.110
159.848	16.944	948.410	719.102
160.862	16.796	946.995	717.336
161.877	16.599	945.914	715.622
162.892	16.417	944.784	713.935
163.906	16.483	943.830	713.430
164.921	16.391	942.932	712.298
165.935	16.584	942.109	712.428
166.950	16.693	941.473	712.344
167.964	16.687	940.658	711.637
168.979	16.546	939.563	710.154
169.994	16.554	938.854	709.589
171.008	16.710	938.311	709.772
172.023	16.805	937.778	709.702
173.037	16.771	937.427	709.232
174.052	16.739	936.441	708.290
175.067	16.616	935.179	706.759
176.081	16.474	935.160	706.088
177.096	16.570	934.265	705.752
178.110	16.505	934.028	705.237
179.125	16.713	933.158	705.383
180.140	16.730	932.803	705.123
181.154	16.800	932.480	705.109
182.169	16.900	931.908	705.032
183.183	16.898	931.644	704.761
184.198	16.888	930.536	703.816
185.213	16.978	929.718	703.509
186.227	16.891	929.588	702.989
187.242	17.174	928.446	703.235
188.256	17.214	927.835	702.874
189.271	17.023	927.091	701.460
190.286	16.705	926.109	699.341
191.300	16.478	925.410	697.816
192.315	16.367	924.722	696.778
193.329	16.348	924.359	696.364
194.344	16.522	923.423	696.313
195.359	16.810	922.710	696.899
196.373	16.868	922.466	696.893
197.388	17.021	922.130	697.203
198.402	17.114	921.800	697.275
199.417	17.128	921.116	696.753
200.432	17.314	920.240	696.792
201.446	17.371	919.820	696.646
202.461	17.391	919.861	696.697
203.475	17.283	919.138	695.645
204.490	17.057	918.087	693.864
205.504	17.197	916.651	693.288
206.519	17.137	916.213	692.652
207.534	17.054	915.721	691.881
208.548	17.101	915.102	691.544
209.563	17.064	914.496	690.872
210.577	17.126	913.829	690.561
211.592	17.348	913.009	690.783
212.607	17.258	912.699	690.119
213.621	17.296	911.521	689.325
214.636	17.352	910.854	688.984
215.650	17.431	909.744	688.405
216.665	17.371	909.292	687.759
217.680	17.419	908.814	687.528
218.694	17.554	908.316	687.636
219.709	17.320	908.049	686.430
220.723	17.467	906.783	686.005
221.738	17.401	906.161	685.206
222.753	17.328	905.856	684.622
223.767	17.515	905.250	684.855
224.782	17.584	904.646	684.615
225.796	17.668	904.031	684.425
226.811	17.504	903.566	683.355
227.826	17.417	902.564	682.188
228.840	17.384	901.873	681.472
229.855	17.392	900.892	680.705
230.869	17.294	900.453	679.921
231.884	17.292	899.923	679.452
232.899	17.227	899.286	678.652
233.913	17.278	897.983	677.810
234.928	17.221	897.224	676.951
235.942	17.045	896.977	676.006
236.957	17.175	896.558	676.146
237.972	17.177	895.736	675.476
238.986	17.205	895.096	675.044
240.001	17.330	894.544	675.065
241.015	17.432	893.892	674.918
242.030	17.475	893.165	674.480
243.045	17.511	892.864	674.335
244.059	17.465	892.064	673.489
245.074	17.514	891.997	673.571
246.088	17.570	890.939	672.934
247.103	17.670	890.476	672.920
248.117	17.789	890.129	673.068
249.132	17.912	890.059	673.442
250.147	18.180	889.301	673.862
251.161	18.288	888.178	673.380
252.176	18.148	888.124	672.728
253.190	18.171	887.437	672.238
254.205	18.314	886.627	672.124
255.220	18.268	885.696	671.180
256.234	18.096	885.668	670.424
257.249	18.213	884.938	670.269
258.263	18.107	884.261	669.284
259.278	18.169	883.341	668.773
260.293	18.264	882.650	668.561
261.307	18.252	882.321	668.204
262.322	18.386	881.661	668.169
263.336	18.417	880.573	667.404
264.351	18.557	879.889	667.374
265.366	18.392	879.507	666.384
266.380	18.277	879.145	665.601
267.395	18.244	878.105	664.629
268.409	18.179	877.424	663.802
269.424	18.216	876.752	663.379
270.439	18.300	875.568	662.749
271.453	18.132	875.054	661.649
272.468	18.169	874.844	661.576
273.482	18.159	873.987	660.829
274.497	18.209	873.427	660.544
275.512	18.163	872.958	659.953
276.526	18.221	872.714	659.932
277.541	18.392	872.272	660.201
278.555	18.418	871.423	659.599
279.570	18.395	871.159	659.250
280.585	18.510	870.000	658.758
281.599	18.358	869.126	657.456
282.614	18.215	868.822	656.616
283.628	18.326	867.958	656.330
284.643	18.332	867.308	655.803
285.657	18.261	866.984	655.229
286.672	18.349	866.175	654.899
287.687	18.401	865.752	654.720
288.701	18.273	865.189	653.747
289.716	18.361	864.508	653.508
290.730	18.287	863.966	652.761
291.745	18.525	863.080	652.939
292.760	18.501	863.382	653.017
293.774	18.704	862.402	652.990
294.789	18.552	861.651	651.789
295.803	18.462	860.958	650.865
296.818	18.373	860.093	649.816
297.833	18.461	859.077	649.322
298.847	18.385	859.135	649.020
299.862	18.447	858.314	648.578
300.876	18.541	858.036	648.665
301.891	18.761	857.162	648.778
302.906	18.779	856.931	648.615
303.920	18.896	856.549	648.709
304.935	19.025	856.107	648.807
305.949	18.926	854.720	647.322
306.964	18.805	854.317	646.506
307.979	18.859	853.856	646.304
308.993	18.804	853.434	645.722
310.008	18.877	853.089	645.676
311.022	18.729	852.236	644.417
312.037	18.595	851.729	643.476
313.052	18.614	850.656	642.679
314.066	18.565	850.235	642.120
315.081	18.577	849.544	641.586
316.095	18.411	849.187	640.638
317.110	18.613	848.707	640.975
318.125	18.667	847.678	640.341
319.139	18.627	847.395	639.924
320.154	18.614	847.025	639.538
321.168	18.700	846.676	639.539
322.183	18.750	846.284	639.371
323.197	18.612	845.840	638.465
324.212	18.677	845.239	638.198
325.227	18.788	844.198	637.770
326.241	18.734	843.915	637.298
327.256	18.723	843.122	636.600
328.270	18.681	842.827	636.165
329.285	18.549	842.422	635.315
330.300	18.651	841.610	635.023
331.314	18.718	841.025	634.775
332.329	18.833	840.542	634.779
333.343	18.895	840.342	634.800
334.358	18.872	840.155	634.520
335.373	18.893	839.794	634.266
336.387	19.102	839.300	634.609
337.402	19.040	839.342	634.355
338.416	19.099	838.879	634.168
339.431	19.214	838.551	634.285
340.446	19.362	837.785	634.194
341.460	19.366	837.508	633.943
342.475	19.254	837.349	633.355
343.489	19.438	836.409	633.265
344.504	19.508	836.104	633.233
345.519	19.666	835.638	633.404
346.533	19.487	834.936	632.160
347.548	19.235	834.349	630.737
348.562	19.115	833.736	629.781
349.577	19.099	833.191	629.255
350.592	19.069	832.875	628.848
351.606	19.149	831.806	628.278
352.621	19.074	831.394	627.640
353.635	19.116	830.853	627.326
354.650	19.191	830.055	626.943
355.665	19.248	829.959	627.023
356.679	19.470	828.725	626.839
357.694	19.304	828.060	625.681
358.708	19.398	827.538	625.572
359.723	19.279	826.925	624.622
360.738	19.315	826.630	624.473
361.752	19.381	825.988	624.173
362.767	19.440	825.304	623.814
363.781	19.692	824.798	624.287
364.796	19.715	824.525	624.108
365.810	19.794	824.282	624.152
366.825	19.724	823.969	623.609
367.840	19.660	823.699	623.117
368.854	19.853	822.415	622.785
369.869	19.529	822.787	621.847
370.883	19.667	822.338	621.947
371.898	19.847	821.546	621.942
372.913	19.888	821.417	621.936
373.927	19.602	820.811	620.396
374.942	19.834	819.927	620.506
375.956	19.848	819.963	620.528
376.971	20.003	819.623	620.770
377.986	19.952	819.235	620.240
379.000	20.066	818.699	620.188
380.015	20.042	818.191	619.661
381.029	20.100	817.026	618.930
382.044	19.933	816.963	618.230
383.059	20.015	816.358	618.012
384.073	19.910	815.959	617.281
385.088	19.727	815.020	615.864
386.102	19.680	814.351	615.135
387.117	19.666	813.849	614.651
388.132	19.656	813.203	614.074
389.146	19.833	812.729	614.292
390.161	20.009	812.153	614.425
391.175	20.083	811.873	614.422
392.190	19.885	811.623	613.476
393.205	19.812	810.867	612.593
394.219	19.779	810.429	612.092
395.234	19.738	810.261	611.764
396.248	19.692	809.548	611.008
397.263	19.768	808.826	610.681
398.278	19.574	808.675	609.828
399.292	19.718	808.303	609.998
400.307	19.570	807.730	608.991
401.321	19.750	807.405	609.326
402.336	19.777	806.796	608.910
403.350	19.877	806.304	608.835
404.365	20.191	805.925	609.598
405.380	19.972	806.071	608.887
406.394	20.081	805.516	608.795
407.409	20.243	804.824	608.786
408.423	20.326	804.579	608.838
409.438	20.327	804.295	608.575
410.453	20.333	803.708	608.097
411.467	20.421	803.107	607.895
412.482	20.542	802.634	607.908
413.496	20.568	802.600	607.918
414.511	20.618	802.186	607.728
415.526	20.556	801.704	607.089
416.540	20.448	801.058	606.170
417.555	20.326	800.849	605.535
418.569	20.612	799.971	605.813
419.584	20.585	799.490	605.300
420.599	20.664	799.107	605.233
421.613	161.328	1373.125	1796.612
422.628	139.995	1456.736	1796.697
