DTS Sentinel unit serial number:	SN413079Multiplexer serial number:	ORYXHardware model number:	OX4-SRSoftware version number:	ORYX F/W v4.00 Oryx Data Collector v3.7.2.0data status	okinstallation	princeton_trtdifferential loss correction	single-endedforward channel	channel 1reverse channel	N/Adate	2019/09/15time	02:18:35forward acquisition time	60.00reverse acquisition time	0.00gamma	496.2192k internal	0.2322k external	0.2322temperature offset calibration	0.9985default loss term (dB/km)	0.3790temperature slope calibration	1.0000multiplexer offset coefficient	1.0000multiplexer slope coefficient	1.0000fibre end	0.00T internal ref (°C)	31.62T ext. ref 1 (°C)	4.55T ext. ref 2 (°C)	26.18length (m)	temperature (°C)	Stokes	anti-Stokes-747.200	-127.846	-0.233	0.034
-746.185	110.089	-0.143	0.173
-745.171	-89.562	0.102	0.030
-744.156	262.019	-0.165	0.289
-743.142	-200.000	-0.003	-0.184
-742.127	-94.042	-0.193	0.053
-741.112	800.000	-0.075	-0.253
-740.098	-134.782	-0.217	0.027
-739.083	82.857	0.060	-0.066
-738.069	183.738	0.092	-0.137
-737.054	367.794	0.160	0.327
-736.039	203.472	0.105	-0.164
-735.025	-76.907	0.417	0.147
-734.010	49.624	-0.268	-0.255
-732.996	-131.963	-0.514	0.068
-731.981	-118.173	-0.402	0.072
-730.966	714.540	0.056	-0.149
-729.952	450.949	-0.045	0.099
-728.937	-31.182	-0.095	0.054
-727.923	-26.541	-0.354	-0.209
-726.908	794.480	-0.097	-0.270
-725.894	-200.000	0.003	-0.155
-724.879	-101.477	-0.267	-0.065
-723.864	384.977	0.132	0.275
-722.850	-94.855	-0.348	0.095
-721.835	36.487	-0.038	0.034
-720.821	-87.301	-0.235	0.072
-719.806	185.527	0.200	-0.300
-718.791	12.035	0.240	0.186
-717.777	-107.210	-0.184	0.041
-716.762	201.601	0.031	0.048
-715.748	464.369	0.078	-0.175
-714.733	13.274	0.119	-0.093
-713.718	603.113	-0.134	0.336
-712.704	151.167	-0.122	0.167
-711.689	-200.000	0.026	-0.149
-710.675	-189.978	-0.294	0.003
-709.660	296.194	0.038	0.071
-708.645	-200.000	0.012	-0.177
-707.631	85.284	-0.134	0.148
-706.616	-200.000	0.017	0.090
-705.602	-180.069	-0.391	-0.008
-704.587	124.498	-0.247	-0.314
-703.572	-200.000	-0.028	0.170
-702.558	-155.154	0.240	-0.016
-701.543	432.194	-0.098	0.214
-700.529	91.840	0.117	-0.133
-699.514	-200.000	0.023	-0.106
-698.499	-146.081	-0.214	0.019
-697.485	310.284	-0.090	-0.170
-696.470	800.000	0.027	-0.097
-695.456	-91.749	0.343	0.098
-694.441	-88.296	-0.197	0.059
-693.426	-108.766	-0.210	-0.045
-692.412	-200.000	0.021	-0.252
-691.397	800.000	0.025	-0.086
-690.383	800.000	-0.015	0.064
-689.368	-82.037	-0.259	-0.085
-688.354	-61.006	-0.291	-0.124
-687.339	-200.000	-0.000	-0.424
-686.324	-21.581	0.185	0.114
-685.310	800.000	0.057	0.171
-684.295	-55.833	-0.036	0.016
-683.281	-200.000	0.018	0.101
-682.266	6.051	0.100	-0.075
-681.251	-92.602	0.301	-0.085
-680.237	-149.366	-0.210	-0.017
-679.222	800.000	0.058	0.220
-678.208	-121.863	-0.095	0.016
-677.193	-200.000	-0.019	-0.091
-676.178	-200.000	0.011	-0.153
-675.164	-200.000	-0.014	0.314
-674.149	-71.251	0.311	0.117
-673.135	-79.118	-0.239	-0.082
-672.120	159.160	0.114	0.160
-671.105	36.768	0.096	-0.085
-670.091	783.872	0.171	-0.472
-669.076	-117.327	-0.090	-0.017
-668.062	-65.003	0.207	-0.084
-667.047	-12.280	-0.159	0.105
-666.032	77.409	0.090	-0.097
-665.018	-99.108	0.218	0.056
-664.003	517.656	0.071	-0.167
-662.989	-82.209	0.303	-0.099
-661.974	10.790	0.338	-0.260
-660.959	-145.662	-0.331	0.030
-659.945	-85.578	-0.018	-0.006
-658.930	3.622	-0.072	0.053
-657.916	30.800	0.236	0.204
-656.901	351.796	-0.173	0.345
-655.886	-200.000	0.070	0.311
-654.872	405.107	0.062	-0.131
-653.857	-200.000	0.010	0.085
-652.843	178.090	0.178	0.262
-651.828	-200.000	0.014	0.322
-650.814	800.000	0.080	-0.248
-649.799	-200.000	-0.013	0.063
-648.784	-0.719	0.082	-0.059
-647.770	-200.000	-0.045	-0.234
-646.755	226.412	0.139	-0.228
-645.741	-53.168	-0.409	-0.189
-644.726	551.784	-0.089	-0.216
-643.711	-100.202	-0.382	0.095
-642.697	800.000	-0.059	0.176
-641.682	-175.780	-0.256	0.007
-640.668	391.684	-0.166	-0.348
-639.653	-65.749	-0.107	0.043
-638.638	-200.000	-0.028	0.337
-637.624	-29.409	-0.065	-0.037
-636.609	-102.136	0.403	-0.098
-635.595	800.000	-0.083	-0.233
-634.580	-104.256	0.160	-0.037
-633.565	-200.000	-0.046	0.220
-632.551	800.000	-0.067	0.289
-631.536	274.214	-0.167	0.297
-630.522	-84.838	-0.384	-0.121
-629.507	800.000	0.138	-0.420
-628.492	-37.452	-0.224	-0.120
-627.478	127.481	0.126	-0.160
-626.463	-86.479	-0.244	-0.075
-625.449	281.988	-0.072	-0.129
-624.434	-65.683	-0.224	0.090
-623.419	800.000	-0.025	-0.094
-622.405	-200.000	-0.013	0.312
-621.390	-200.000	0.012	0.162
-620.376	-19.126	-0.112	-0.070
-619.361	334.206	-0.146	-0.285
-618.346	-107.840	-0.223	-0.049
-617.332	-136.922	-0.466	0.054
-616.317	702.737	-0.104	0.275
-615.303	-43.443	0.333	0.169
-614.288	269.902	0.189	0.335
-613.273	16.693	0.171	0.136
-612.259	185.192	-0.153	-0.228
-611.244	109.622	0.138	-0.167
-610.230	-200.000	-0.065	-0.398
-609.215	-7.572	0.181	-0.123
-608.201	-200.000	-0.009	-0.177
-607.186	-200.000	-0.054	0.244
-606.171	-62.597	-0.264	-0.110
-605.157	-200.000	0.018	-0.121
-604.142	-200.000	0.010	-0.156
-603.128	-14.127	0.175	0.113
-602.113	121.380	0.166	0.208
-601.098	203.387	0.134	0.208
-600.084	276.231	0.023	-0.042
-599.069	-200.000	0.042	0.345
-598.055	-200.000	0.005	-0.055
-597.040	39.046	-0.415	0.373
-596.025	44.457	0.336	0.310
-595.011	-200.000	0.023	0.316
-593.996	-164.250	-0.094	-0.004
-592.982	-30.203	-0.231	0.132
-591.967	720.070	0.025	-0.066
-590.952	-69.368	-0.528	0.203
-589.938	-200.000	-0.001	0.057
-588.923	-200.000	0.026	-0.149
-587.909	362.641	0.057	-0.114
-586.894	-200.000	0.011	0.082
-585.879	-200.000	0.024	0.206
-584.865	-170.568	0.249	0.009
-583.850	800.000	0.034	-0.121
-582.836	526.811	-0.093	0.220
-581.821	-95.543	-0.096	0.026
-580.806	-18.106	0.357	-0.224
-579.792	800.000	-0.012	-0.045
-578.777	-200.000	-0.011	-0.061
-577.763	-123.856	0.166	0.026
-576.748	800.000	0.074	-0.222
-575.733	264.828	0.128	0.224
-574.719	-117.072	-0.154	0.028
-573.704	-200.000	-0.021	0.107
-572.690	-200.000	0.024	0.120
-571.675	-119.014	-0.281	-0.049
-570.661	-66.558	0.175	-0.070
-569.646	-46.491	-0.210	0.103
-568.631	-200.000	-0.002	0.078
-567.617	136.811	-0.013	-0.017
-566.602	-100.436	-0.147	0.036
-565.588	-150.544	-0.463	-0.036
-564.573	-81.330	-0.164	0.054
-563.558	164.245	0.205	-0.289
-562.544	-13.843	-0.390	0.253
-561.529	16.138	0.130	-0.102
-560.515	36.102	-0.109	-0.096
-559.500	46.427	0.063	0.059
-558.485	395.926	-0.065	-0.135
-557.471	224.226	-0.114	-0.184
-556.456	-200.000	0.050	-0.271
-555.442	59.308	0.188	0.186
-554.427	86.641	-0.364	0.402
-553.412	-155.017	-0.218	0.014
-552.398	-200.000	-0.071	0.342
-551.383	31.873	-0.212	0.183
-550.369	-200.000	-0.045	-0.251
-549.354	-64.532	-0.181	-0.074
-548.339	-200.000	-0.009	-0.134
-547.325	433.811	-0.101	0.219
-546.310	51.145	0.050	-0.047
-545.296	800.000	0.043	-0.145
-544.281	571.001	-0.101	-0.246
-543.266	-30.768	-0.362	0.205
-542.252	509.889	0.104	0.242
-541.237	-200.000	-0.039	-0.280
-540.223	-91.737	0.313	-0.089
-539.208	-200.000	-0.019	0.445
-538.193	-200.000	0.011	0.126
-537.179	-191.165	0.365	-0.004
-536.164	-110.343	-0.129	0.027
-535.150	54.299	0.246	0.237
-534.135	-6.074	-0.056	0.038
-533.121	-92.179	0.394	0.111
-532.106	38.991	0.127	0.114
-531.091	-134.601	-0.388	0.047
-530.077	-200.000	0.036	-0.229
-529.062	181.877	-0.122	0.180
-528.048	-200.000	-0.018	0.203
-527.033	-78.910	0.128	-0.044
-526.018	94.517	-0.223	0.254
-525.004	-54.456	-0.105	0.048
-523.989	158.478	-0.126	-0.175
-522.975	16.652	0.062	0.049
-521.960	36.591	0.271	-0.239
-520.945	-109.329	0.364	0.077
-519.931	-200.000	0.043	-0.297
-518.916	234.062	-0.051	-0.084
-517.902	87.213	0.027	0.030
-516.887	-0.918	-0.593	0.421
-515.872	800.000	0.040	0.134
-514.858	-200.000	-0.054	-0.251
-513.843	169.269	0.084	-0.119
-512.829	-117.424	0.369	0.067
-511.814	-35.603	0.284	-0.154
-510.799	537.860	-0.045	-0.108
-509.785	-75.016	0.259	-0.093
-508.770	800.000	-0.071	-0.303
-507.756	173.117	0.157	-0.227
-506.741	468.900	-0.010	0.022
-505.726	-200.000	-0.027	0.459
-504.712	-147.412	0.104	0.009
-503.697	487.767	0.080	0.183
-502.683	-65.205	0.223	0.090
-501.668	-85.654	0.280	0.087
-500.653	62.008	0.274	0.273
-499.639	-200.000	0.009	-0.203
-498.624	800.000	-0.037	-0.111
-497.610	54.246	0.094	0.091
-496.595	-51.228	-0.049	0.023
-495.581	-154.809	0.068	-0.005
-494.566	156.639	0.062	-0.086
-493.551	-61.263	0.274	-0.115
-492.537	800.000	-0.035	-0.106
-491.522	-102.280	-0.208	0.050
-490.508	46.365	-0.156	-0.145
-489.493	800.000	0.007	0.027
-488.478	155.559	0.033	-0.046
-487.464	-89.817	-0.213	-0.062
-486.449	-200.000	0.027	0.367
-485.435	42.007	-0.073	0.066
-484.420	231.079	0.088	0.143
-483.405	-60.298	0.177	0.075
-482.391	91.365	0.042	-0.048
-481.376	5.801	-0.186	-0.138
-480.362	800.000	-0.019	-0.082
-479.347	-200.000	0.290	0.001
-478.332	-200.000	-0.033	-0.336
-477.318	-66.932	0.270	0.107
-476.303	-200.000	0.041	-0.217
-475.289	-21.706	-0.267	0.163
-474.274	-4.047	-0.135	-0.094
-473.259	47.903	0.164	-0.153
-472.245	800.000	0.139	-0.450
-471.230	-41.081	-0.331	-0.171
-470.216	-41.629	-0.060	-0.031
-469.201	-123.886	-0.144	-0.023
-468.186	46.838	-0.286	-0.265
-467.172	-34.161	-0.163	0.090
-466.157	5.295	-0.072	-0.053
-465.143	32.208	-0.152	-0.131
-464.128	-112.267	0.424	-0.085
-463.113	94.882	0.125	-0.142
-462.099	289.489	0.070	0.127
-461.084	-63.517	-0.263	0.108
-460.070	31.092	0.072	0.062
-459.055	800.000	0.041	-0.178
-458.040	92.197	0.165	0.186
-457.026	503.825	0.030	-0.069
-456.011	800.000	-0.040	0.171
-454.997	-200.000	0.017	-0.214
-453.982	84.617	0.050	0.055
-452.968	78.136	-0.033	-0.035
-451.953	-51.258	-0.347	0.162
-450.938	-90.307	0.312	0.091
-449.924	2.134	-0.124	-0.090
-448.909	-200.000	-0.023	-0.259
-447.895	-200.000	0.024	0.227
-446.880	-32.636	0.137	-0.076
-445.865	-19.356	-0.230	-0.142
-444.851	503.499	-0.170	-0.392
-443.836	-200.000	-0.063	-0.497
-442.822	152.221	-0.217	-0.296
-441.807	185.570	-0.150	-0.222
-440.792	57.636	-0.095	-0.093
-439.778	-73.589	-0.229	-0.083
-438.763	-200.000	-0.007	-0.184
-437.749	-200.000	-0.028	0.233
-436.734	142.383	0.156	-0.207
-435.719	559.310	0.086	-0.208
-434.705	-171.634	-0.466	-0.015
-433.690	-42.827	-0.115	-0.058
-432.676	105.184	-0.103	-0.121
-431.661	-13.856	0.248	-0.160
-430.646	-132.702	-0.218	-0.028
-429.632	-115.171	-0.108	0.020
-428.617	-9.149	-0.101	0.067
-427.603	-116.362	0.241	-0.044
-426.588	800.000	-0.086	0.351
-425.573	219.788	-0.112	0.180
-424.559	-7.979	0.100	-0.068
-423.544	65.993	-0.084	0.085
-422.530	-100.988	-0.257	-0.063
-421.515	63.852	0.190	-0.191
-420.500	-200.000	-0.001	0.067
-419.486	84.782	-0.099	-0.108
-418.471	-103.034	0.183	-0.043
-417.457	800.000	-0.141	-0.401
-416.442	691.921	0.049	-0.127
-415.428	-170.798	-0.188	-0.006
-414.413	-79.398	-0.538	0.182
-413.398	800.000	0.038	-0.150
-412.384	605.588	-0.028	0.070
-411.369	98.592	0.264	-0.304
-410.355	-200.000	-0.035	-0.217
-409.340	50.714	0.189	0.179
-408.325	221.241	-0.040	-0.063
-407.311	-33.954	0.100	-0.055
-406.296	800.000	-0.049	0.142
-405.282	-83.637	-0.127	0.040
-404.267	-200.000	-0.004	0.023
-403.252	-68.583	0.173	0.067
-402.238	106.074	0.097	0.114
-401.223	-64.886	0.232	0.094
-400.209	235.703	0.077	0.126
-399.194	-48.272	-0.183	0.088
-398.179	56.753	0.098	0.095
-397.165	295.796	0.053	0.096
-396.150	686.214	0.109	-0.285
-395.136	800.000	0.026	0.072
-394.121	-200.000	0.028	0.153
-393.106	-200.000	0.046	0.239
-392.092	-69.926	0.164	-0.062
-391.077	787.130	0.059	-0.162
-390.063	69.075	-0.157	0.161
-389.048	-54.113	-0.202	0.091
-388.033	800.000	0.065	-0.210
-387.019	-200.000	-0.008	-0.147
-386.004	-115.312	-0.185	0.035
-384.990	17.985	-0.121	0.096
-383.975	-133.427	0.190	0.024
-382.960	-24.749	0.159	0.094
-381.946	-200.000	0.022	-0.155
-380.931	-141.951	0.056	0.006
-379.917	-103.706	-0.082	-0.019
-378.902	28.789	-0.149	-0.126
-377.888	-73.874	-0.513	0.186
-376.873	-200.000	-0.008	-0.040
-375.858	166.667	-0.054	-0.076
-374.844	3.338	-0.140	-0.102
-373.829	-200.000	0.004	0.068
-372.815	800.000	0.041	-0.122
-371.800	-38.441	-0.084	-0.044
-370.785	-148.003	0.024	0.002
-369.771	-26.814	-0.238	-0.139
-368.756	443.583	0.168	-0.367
-367.742	-124.837	-0.244	0.037
-366.727	-9.244	-0.270	-0.180
-365.712	125.120	0.072	0.090
-364.698	-200.000	0.053	0.316
-363.683	800.000	0.013	-0.038
-362.669	15.339	-0.240	-0.187
-361.654	-98.002	-0.136	0.035
-360.639	85.936	-0.118	-0.129
-359.625	14.583	-0.040	-0.031
-358.610	-200.000	-0.023	-0.227
-357.596	-73.302	-0.429	0.156
-356.581	-9.677	-0.295	0.196
-355.566	-91.571	0.295	-0.084
-354.552	12.405	0.081	-0.062
-353.537	-64.745	0.034	0.014
-352.523	20.784	-0.230	0.185
-351.508	105.250	0.041	-0.048
-350.493	-66.509	-0.142	-0.056
-349.479	-67.823	-0.118	-0.046
-348.464	59.371	-0.107	-0.105
-347.450	800.000	-0.025	-0.071
-346.435	-182.763	0.409	0.007
-345.420	68.460	0.155	0.158
-344.406	-3.575	-0.038	0.026
-343.391	-33.186	-0.042	0.023
-342.377	37.682	-0.103	-0.091
-341.362	-193.171	0.177	-0.002
-340.348	-89.100	-0.210	0.062
-339.333	25.631	-0.234	0.194
-338.318	-54.260	0.229	0.103
-337.304	-36.475	0.044	-0.024
-336.289	-23.922	0.055	-0.033
-335.275	35.558	-0.112	0.097
-334.260	-2.379	-0.172	0.120
-333.245	-175.880	-0.243	0.006
-332.231	-200.000	-0.079	0.357
-331.216	-63.402	0.336	0.137
-330.202	6.268	0.090	0.066
-329.187	436.616	0.105	0.227
-328.172	-110.653	-0.147	0.030
-327.158	-200.000	-0.008	0.152
-326.143	-51.439	0.092	0.043
-325.129	368.779	-0.140	-0.282
-324.114	1.345	0.191	0.136
-323.099	477.706	-0.092	-0.207
-322.085	635.163	0.146	-0.368
-321.070	242.319	-0.031	0.051
-320.056	-82.962	-0.197	-0.063
-319.041	61.427	0.178	0.176
-318.026	-200.000	-0.005	0.079
-317.012	-200.000	0.011	-0.051
-315.997	186.469	0.183	0.271
-314.983	-22.953	0.157	-0.094
-313.968	56.682	0.159	0.154
-312.953	81.656	-0.138	0.148
-311.939	-52.577	-0.171	0.078
-310.924	85.183	0.183	0.199
-309.910	-200.000	-0.041	0.366
-308.895	-65.540	0.234	-0.093
-307.880	-116.872	0.165	0.030
-306.866	-97.259	0.246	-0.064
-305.851	158.709	-0.108	-0.149
-304.837	145.273	0.132	-0.175
-303.822	33.502	-0.259	0.224
-302.807	-39.318	0.260	0.136
-301.793	389.077	-0.053	0.108
-300.778	800.000	-0.040	-0.163
-299.764	229.282	0.090	-0.146
-298.749	-200.000	-0.014	0.231
-297.735	-99.607	0.296	0.074
-296.720	-38.105	-0.114	-0.060
-295.705	-49.188	-0.164	0.078
-294.691	800.000	0.071	0.245
-293.676	-52.942	0.180	0.082
-292.662	262.390	-0.212	-0.366
-291.647	138.959	0.098	0.127
-290.632	-200.000	-0.053	0.345
-289.618	-20.024	-0.113	0.069
-288.603	60.714	-0.239	-0.236
-287.589	267.492	0.274	-0.476
-286.574	-32.033	-0.344	-0.191
-285.559	192.840	0.171	0.256
-284.545	-2.379	0.057	0.040
-283.530	76.039	0.061	0.064
-282.516	-200.000	-0.009	0.161
-281.501	-5.898	-0.086	0.058
-280.486	-179.397	0.268	0.006
-279.472	266.128	0.121	-0.209
-278.457	-125.837	-0.216	-0.032
-277.443	800.000	-0.012	0.053
-276.428	-77.824	-0.195	0.067
-275.413	-38.423	-0.115	0.060
-274.399	-200.000	-0.018	0.091
-273.384	-153.423	0.022	-0.002
-272.370	292.287	0.068	0.123
-271.355	-83.156	-0.124	0.040
-270.340	-72.654	0.146	0.053
-269.326	-200.000	-0.006	-0.196
-268.311	-200.000	-0.021	-0.097
-267.297	492.405	0.018	0.040
-266.282	347.490	0.065	0.126
-265.267	182.827	0.183	-0.267
-264.253	-200.000	-0.045	0.213
-263.238	-134.502	0.440	-0.053
-262.224	-81.661	-0.184	-0.060
-261.209	351.759	-0.125	0.246
-260.195	245.766	0.028	0.047
-259.180	-189.761	-0.322	0.004
-258.165	485.672	0.040	0.090
-257.151	-143.730	-0.235	-0.022
-256.136	463.087	0.066	0.145
-255.122	-60.072	-0.302	-0.128
-254.107	270.926	0.059	0.103
-253.092	-24.971	0.097	-0.057
-252.078	800.000	-0.076	-0.229
-251.063	119.541	-0.115	-0.142
-250.049	-65.530	0.089	0.035
-249.034	-200.000	0.252	0.001
-248.019	-124.905	-0.156	-0.024
-247.005	-139.656	0.148	-0.016
-245.990	800.000	0.090	0.283
-244.976	-200.000	0.004	0.035
-243.961	-32.633	-0.046	-0.025
-242.946	17.567	0.322	-0.253
-241.932	374.868	0.151	0.305
-240.917	-200.000	0.344	-0.001
-239.903	-200.000	-0.005	0.154
-238.888	-161.112	0.279	-0.014
-237.873	-200.000	0.015	-0.134
-236.859	-89.541	0.159	0.046
-235.844	-87.430	0.204	-0.061
-234.830	-41.446	0.127	-0.065
-233.815	-32.804	0.206	0.113
-232.800	-147.366	-0.123	-0.010
-231.786	295.817	0.105	0.190
-230.771	713.609	0.084	0.220
-229.757	-199.943	0.195	0.001
-228.742	40.533	-0.158	0.141
-227.727	13.412	0.255	0.195
-226.713	-31.456	-0.187	-0.104
-225.698	-100.272	-0.116	-0.028
-224.684	800.000	0.058	-0.221
-223.669	-200.000	0.054	-0.238
-222.655	84.002	0.211	-0.228
-221.640	-200.000	0.015	0.103
-220.625	-12.314	0.169	-0.110
-219.611	-88.424	0.153	-0.045
-218.596	-138.653	-0.054	-0.006
-217.582	-163.702	0.253	0.012
-216.567	-49.724	0.261	0.123
-215.552	-121.188	0.155	0.026
-214.538	-135.355	0.342	-0.040
-213.523	-200.000	0.042	-0.484
-212.509	-54.132	-0.253	-0.114
-211.494	-0.596	0.121	0.085
-210.479	-104.895	-0.230	0.052
-209.465	175.527	0.168	-0.241
-208.450	115.093	-0.252	0.305
-207.436	31.542	0.146	-0.124
-206.421	-200.000	-0.021	-0.103
-205.406	-59.223	0.288	0.123
-204.392	29.474	0.295	0.248
-203.377	-99.336	-0.207	0.052
-202.363	-200.000	0.010	0.103
-201.348	-109.859	0.089	-0.018
-200.333	492.217	-0.069	-0.157
-199.319	-57.459	0.214	0.093
-198.304	198.862	-0.080	-0.122
-197.290	-200.000	0.024	-0.179
-196.275	-180.697	0.312	0.006
-195.260	-33.254	0.259	0.142
-194.246	-34.160	-0.236	0.128
-193.231	800.000	-0.007	0.029
-192.217	-59.725	0.100	-0.042
-191.202	137.173	-0.157	0.203
-190.187	219.289	-0.089	0.141
-189.173	56.590	0.165	-0.158
-188.158	171.802	0.311	0.441
-187.144	56.336	0.231	-0.222
-186.129	-7.759	-0.086	-0.057
-185.114	129.754	0.205	-0.259
-184.100	28.649	-0.232	-0.194
-183.085	644.770	0.095	-0.239
-182.071	-200.000	0.011	-0.053
-181.056	-200.000	-0.006	-0.053
-180.042	-77.345	0.147	-0.051
-179.027	350.003	-0.027	-0.052
-178.012	496.033	0.031	-0.071
-176.998	800.000	-0.039	-0.111
-175.983	427.600	-0.050	-0.107
-174.969	416.901	-0.095	-0.200
-173.954	-102.460	0.435	-0.103
-172.939	85.911	0.273	-0.296
-171.925	153.703	0.136	-0.184
-170.910	-200.000	0.155	0.001
-169.896	800.000	-0.117	0.359
-168.881	800.000	0.011	-0.033
-167.866	71.605	0.179	0.184
-166.852	0.016	-0.310	0.218
-165.837	-20.995	0.285	-0.172
-164.823	550.076	-0.025	0.059
-163.808	44.270	-0.140	-0.127
-162.793	-89.483	0.327	0.095
-161.779	152.602	-0.314	0.423
-160.764	800.000	-0.020	0.061
-159.750	528.975	0.168	0.390
-158.735	-52.593	0.203	0.092
-157.720	800.000	-0.064	0.205
-156.706	344.015	0.103	0.199
-155.691	295.218	0.094	-0.171
-154.677	800.000	0.042	-0.139
-153.662	533.349	-0.097	-0.228
-152.647	-200.000	0.003	0.289
-151.633	431.736	-0.154	0.328
-150.618	688.092	-0.069	-0.178
-149.604	800.000	0.059	0.212
-148.589	-11.955	-0.104	0.067
-147.574	-97.320	-0.288	-0.074
-146.560	-115.109	0.096	0.018
-145.545	-112.980	0.301	-0.059
-144.531	-26.531	0.204	0.118
-143.516	-200.000	-0.019	0.156
-142.502	-104.348	0.201	0.046
-141.487	-200.000	0.009	0.128
-140.472	-118.430	0.185	-0.032
-139.458	-200.000	-0.036	0.221
-138.443	321.511	0.112	-0.211
-137.429	119.188	0.255	-0.311
-136.414	800.000	-0.056	0.203
-135.399	-73.583	-0.100	0.036
-134.385	-69.682	0.180	0.068
-133.370	-129.341	0.227	-0.031
-132.356	-200.000	0.005	-0.342
-131.341	-5.117	-0.260	-0.176
-130.326	-79.986	-0.187	-0.062
-129.312	-200.000	0.000	-0.239
-128.297	-38.505	0.066	0.034
-127.283	-85.650	0.088	-0.027
-126.268	0.803	0.043	0.030
-125.253	800.000	-0.095	0.308
-124.239	39.655	-0.122	0.108
-123.224	800.000	-0.068	0.280
-122.210	73.115	0.109	-0.112
-121.195	-135.399	0.196	0.023
-120.180	-44.776	0.290	0.142
-119.166	375.789	0.100	0.201
-118.151	14.378	0.053	-0.041
-117.137	381.142	0.173	-0.351
-116.122	631.549	0.099	-0.248
-115.107	-46.023	-0.082	0.040
-114.093	-200.000	0.003	0.030
-113.078	583.235	-0.010	0.024
-112.064	-200.000	0.026	-0.161
-111.049	-66.375	0.125	0.049
-110.034	292.704	-0.079	-0.142
-109.020	-200.000	-0.024	0.107
-108.005	-200.000	0.008	0.263
-106.991	-200.000	-0.005	0.219
-105.976	-14.617	-0.345	0.218
-104.962	800.000	-0.063	0.231
-103.947	41.186	-0.095	-0.085
-102.932	151.871	-0.143	-0.191
-101.918	-64.347	-0.379	0.152
-100.903	-200.000	0.029	0.200
-99.889	311.746	0.067	0.123
-98.874	-41.399	-0.241	0.122
-97.859	-200.000	0.028	-0.526
-96.845	-134.638	0.135	0.016
-95.830	-34.013	-0.161	0.087
-94.816	-180.108	-0.167	-0.003
-93.801	96.807	0.217	-0.244
-92.786	800.000	0.046	-0.131
-91.772	43.716	-0.142	0.128
-90.757	-52.592	0.120	-0.055
-89.743	208.099	-0.140	0.216
-88.728	-150.797	-0.315	0.024
-87.713	447.395	0.042	-0.092
-86.699	-116.795	0.241	0.044
-85.684	137.180	0.146	0.188
-84.670	-155.417	0.476	-0.030
-83.655	134.844	0.158	0.201
-82.640	-188.616	-0.346	-0.004
-81.626	221.333	0.049	-0.078
-80.611	130.935	-0.050	-0.063
-79.597	-200.000	-0.022	-0.227
-78.582	-141.816	-0.126	0.012
-77.567	-66.721	-0.321	-0.125
-76.553	172.352	0.192	0.272
-75.538	121.729	-0.057	0.070
-74.524	110.287	-0.082	-0.097
-73.509	26.712	-0.166	0.137
-72.494	-129.361	-0.398	-0.054
-71.480	-10.557	0.220	-0.144
-70.465	-78.888	0.205	0.069
-69.451	349.381	0.281	0.546
-68.436	800.000	0.087	0.273
-67.422	234.513	0.072	-0.117
-66.407	35.190	-0.258	0.222
-65.392	-200.000	0.059	0.271
-64.378	398.697	0.205	-0.422
-63.363	-162.090	-0.161	0.008
-62.349	-13.686	0.319	0.203
-61.334	-9.799	-0.983	-0.643
-60.319	82.378	0.433	0.462
-59.305	800.000	-0.232	-0.864
-58.290	63.068	0.845	0.832
-57.276	703.811	0.540	1.400
-56.261	-200.000	97.685	603.339
-55.246	630.073	1384.731	3444.331
-54.232	196.753	2562.970	3841.008
-53.217	120.368	2139.022	2611.429
-52.203	43.862	1597.990	1438.986
-51.188	35.319	1334.821	1150.963
-50.173	32.042	1293.342	1096.057
-49.159	55.158	1341.497	1274.707
-48.144	57.404	1357.475	1303.149
-47.130	35.299	1316.112	1134.528
-46.115	31.897	1298.599	1099.484
-45.100	31.724	1293.371	1094.005
-44.086	31.669	1291.243	1091.839
-43.071	31.488	1289.009	1088.854
-42.057	31.395	1287.463	1086.963
-41.042	31.478	1285.421	1085.679
-40.027	31.568	1283.862	1084.844
-39.013	31.540	1282.036	1083.091
-37.998	31.606	1279.960	1081.676
-36.984	31.630	1278.329	1080.395
-35.969	31.781	1276.480	1079.659
-34.954	31.611	1274.907	1077.308
-33.940	31.650	1273.709	1076.475
-32.925	31.587	1272.602	1075.139
-31.911	31.663	1271.039	1074.211
-30.896	31.643	1269.846	1073.047
-29.881	31.822	1268.036	1072.496
-28.867	31.750	1267.098	1071.248
-27.852	31.829	1265.402	1070.226
-26.838	31.781	1263.850	1068.594
-25.823	31.734	1262.425	1067.082
-24.809	31.802	1261.411	1066.567
-23.794	31.636	1260.345	1064.683
-22.779	31.613	1258.955	1063.336
-21.765	31.676	1257.359	1062.301
-20.750	31.698	1256.509	1061.662
-19.736	31.571	1255.111	1059.719
-18.721	31.587	1254.018	1058.847
-17.706	31.531	1252.955	1057.594
-16.692	31.708	1251.121	1056.999
-15.677	31.672	1250.113	1055.903
-14.663	31.584	1249.224	1054.614
-13.648	31.615	1248.228	1053.908
-12.633	31.535	1246.913	1052.308
-11.619	31.501	1246.825	1052.000
-10.604	31.614	1245.409	1051.397
-9.590	31.514	1244.844	1050.317
-8.575	31.417	1244.063	1049.072
-7.560	31.510	1242.736	1048.430
-6.546	31.524	1242.268	1048.074
-5.531	31.552	1241.096	1047.199
-4.517	31.545	1240.091	1046.269
-3.502	31.513	1239.483	1045.540
-2.487	31.559	1237.978	1044.484
-1.473	31.528	1233.975	1040.894
-0.458	30.175	1219.004	1020.781
0.556	25.206	1201.601	982.121
1.571	21.540	1205.975	965.430
2.586	20.576	1220.665	971.714
3.600	20.157	1209.687	960.573
4.615	15.353	1139.470	879.602
5.629	7.914	1067.305	787.159
6.644	4.837	1048.097	757.965
7.659	4.476	1045.972	754.607
8.673	4.428	1044.967	753.587
9.688	4.460	1043.661	752.733
10.702	4.663	1041.755	752.274
11.717	8.893	1047.501	776.891
12.731	15.736	1056.739	817.021
13.746	18.595	1059.561	833.035
14.761	17.914	1058.115	828.521
15.775	16.988	1056.174	822.443
16.790	15.944	1054.092	815.692
17.804	15.166	1052.661	810.753
18.819	14.797	1051.989	808.377
19.834	14.487	1050.775	805.875
20.848	14.442	1049.587	804.674
21.863	14.191	1048.776	802.772
22.877	14.015	1048.163	801.382
23.892	13.924	1047.709	800.523
24.907	14.036	1047.117	800.541
25.921	14.031	1045.817	799.453
26.936	14.100	1044.592	798.777
27.950	14.117	1043.372	797.855
28.965	14.197	1041.709	796.895
29.980	14.191	1040.280	795.705
30.994	14.397	1039.085	795.704
32.009	14.340	1037.857	794.421
33.023	14.270	1037.267	793.564
34.038	14.255	1035.841	792.334
35.053	14.047	1035.492	791.004
36.067	14.136	1034.240	790.400
37.082	14.210	1033.571	790.174
38.096	14.252	1033.240	790.048
39.111	14.259	1032.299	789.295
40.126	14.065	1031.131	787.411
41.140	13.903	1029.550	785.369
42.155	14.002	1028.312	784.821
43.169	13.778	1027.699	783.229
44.184	13.912	1026.188	782.636
45.199	13.839	1025.710	781.861
46.213	14.086	1024.093	781.719
47.228	14.069	1023.383	781.031
48.242	14.120	1022.086	780.211
49.257	14.138	1021.176	779.531
50.271	14.052	1020.527	778.562
51.286	14.082	1019.932	778.182
52.301	14.144	1018.385	777.221
53.315	14.086	1017.714	776.369
54.330	14.016	1016.272	774.872
55.344	13.927	1015.979	774.169
56.359	14.026	1015.181	773.950
57.374	13.930	1014.390	772.833
58.388	13.878	1013.346	771.729
59.403	13.821	1012.848	771.016
60.417	13.968	1011.795	770.830
61.432	13.946	1010.901	769.978
62.447	13.933	1009.942	769.117
63.461	13.838	1009.018	767.908
64.476	13.791	1008.384	767.140
65.490	13.755	1007.620	766.325
66.505	13.946	1006.748	766.475
67.520	13.934	1006.222	765.950
68.534	13.892	1005.756	765.336
69.549	13.893	1004.771	764.520
70.563	13.676	1004.271	763.078
71.578	13.632	1003.581	762.283
72.593	13.736	1002.603	761.947
73.607	13.699	1001.648	760.985
74.622	13.556	1001.448	760.111
75.636	13.693	1000.214	759.735
76.651	13.709	999.470	759.177
77.666	13.803	999.114	759.268
78.680	13.835	998.317	758.743
79.695	13.850	997.631	758.219
80.709	13.918	997.155	758.101
81.724	13.893	996.630	757.523
82.739	13.920	995.836	756.976
83.753	14.031	995.107	756.860
84.768	14.258	993.922	756.922
85.782	14.202	994.001	756.661
86.797	14.230	992.326	755.447
87.812	14.107	991.528	754.214
88.826	14.031	990.554	753.064
89.841	14.021	989.955	752.494
90.855	14.218	988.644	752.321
91.870	14.103	988.003	751.247
92.884	14.229	987.019	751.003
93.899	14.192	986.261	750.194
94.914	14.230	985.980	750.084
95.928	14.200	985.196	749.286
96.943	14.257	984.114	748.652
97.957	14.197	983.426	747.794
98.972	14.168	982.812	747.133
99.987	14.086	981.880	745.989
101.001	14.168	980.674	745.373
102.016	14.211	979.847	744.873
103.030	14.075	979.381	743.843
104.045	14.252	978.398	743.824
105.060	14.124	977.513	742.513
106.074	14.029	976.582	741.316
107.089	13.947	975.444	740.021
108.103	13.948	974.481	739.230
109.118	13.807	973.541	737.822
110.133	14.061	972.473	738.076
111.147	13.877	971.731	736.630
112.162	13.891	971.246	736.261
113.176	13.981	970.280	735.863
114.191	14.053	969.613	735.612
115.206	14.036	968.538	734.655
116.220	14.051	967.890	734.166
117.235	13.980	967.056	733.152
118.249	14.009	966.119	732.508
119.264	13.938	965.754	731.851
120.279	14.007	964.781	731.354
121.293	13.942	963.869	730.311
122.308	13.862	963.166	729.363
123.322	13.872	961.969	728.435
124.337	13.910	961.309	728.037
125.352	13.821	959.640	726.321
126.366	13.826	959.001	725.795
127.381	13.854	957.985	725.085
128.395	13.915	957.315	724.778
129.410	13.879	956.797	724.163
130.424	13.902	955.565	723.269
131.439	14.055	954.874	723.345
132.454	13.913	954.545	722.415
133.468	14.178	953.149	722.445
134.483	14.118	952.185	721.392
135.497	14.137	951.589	720.960
136.512	14.123	950.693	720.157
137.527	14.113	950.080	719.584
138.541	14.155	949.222	719.054
139.556	14.060	948.761	718.230
140.570	14.224	948.381	718.587
141.585	14.288	947.384	718.044
142.600	14.274	946.394	717.170
143.614	14.295	945.671	716.648
144.629	14.394	944.965	716.475
145.643	14.275	944.269	715.371
146.658	14.280	942.844	714.253
147.673	14.226	941.908	713.247
148.687	14.217	941.293	712.679
149.702	14.140	940.572	711.742
150.716	14.117	939.611	710.855
151.731	14.080	939.039	710.199
152.746	14.159	938.238	709.869
153.760	14.165	937.678	709.407
154.775	14.270	936.980	709.263
155.789	14.177	936.709	708.600
156.804	14.252	935.869	708.222
157.819	14.285	934.845	707.524
158.833	14.335	934.451	707.377
159.848	14.549	933.513	707.511
160.862	14.411	932.591	706.163
161.877	14.229	931.765	704.704
162.892	14.272	930.452	703.833
163.906	14.303	929.342	703.063
164.921	14.209	928.949	702.305
165.935	14.307	927.983	701.924
166.950	14.288	927.010	701.048
167.964	14.282	926.346	700.458
168.979	14.256	925.480	699.632
169.994	14.214	924.945	698.991
171.008	14.443	924.038	699.201
172.023	14.353	923.866	698.633
173.037	14.280	923.110	697.694
174.052	14.494	921.810	697.545
175.067	14.392	921.496	696.819
176.081	14.237	921.106	695.816
177.096	14.309	920.219	695.383
178.110	14.363	919.847	695.266
179.125	14.396	919.490	695.072
180.140	14.361	918.776	694.325
181.154	14.565	918.212	694.687
182.169	14.529	917.752	694.127
183.183	14.565	917.449	693.988
184.198	14.647	916.236	693.349
185.213	14.536	915.587	692.335
186.227	14.652	914.948	692.271
187.242	14.587	914.853	691.869
188.256	14.779	913.712	691.740
189.271	14.754	912.855	690.926
190.286	14.368	912.210	688.782
191.300	14.150	911.927	687.606
192.315	14.233	910.813	687.049
193.329	14.206	910.627	686.736
194.344	14.389	909.914	686.892
195.359	14.532	909.340	686.986
196.373	14.769	908.102	686.966
197.388	14.743	908.156	686.841
198.402	14.751	907.678	686.449
199.417	14.822	907.163	686.290
200.432	14.843	906.664	685.940
201.446	15.051	905.802	686.078
202.461	14.885	905.799	685.335
203.475	14.884	905.119	684.757
204.490	14.842	904.193	683.824
205.504	14.778	903.259	682.797
206.519	14.740	902.716	682.169
207.534	14.674	902.080	681.357
208.548	14.692	901.180	680.692
209.563	14.889	900.677	681.052
210.577	14.855	900.005	680.347
211.592	14.907	899.602	680.192
212.607	15.088	898.381	679.945
213.621	14.881	898.299	678.982
214.636	14.949	897.007	678.222
215.650	15.050	896.286	678.026
216.665	15.007	895.899	677.498
217.680	14.989	895.711	677.225
218.694	15.014	894.888	676.642
219.709	14.971	894.093	675.808
220.723	14.991	893.531	675.405
221.738	14.878	893.152	674.603
222.753	15.094	891.943	674.501
223.767	15.111	891.632	674.276
224.782	15.212	890.926	674.088
225.796	15.195	890.414	673.572
226.811	15.082	890.319	672.983
227.826	14.988	889.369	671.829
228.840	15.023	888.496	671.251
229.855	15.165	887.520	671.024
230.869	15.218	886.748	670.594
231.884	14.936	886.248	669.029
232.899	14.904	885.800	668.501
233.913	15.009	884.932	668.207
234.928	14.986	884.213	667.512
235.942	15.035	883.426	667.055
236.957	15.248	882.591	667.213
237.972	15.102	882.545	666.540
238.986	15.121	881.774	665.974
240.001	15.138	881.001	665.400
241.015	15.199	880.705	665.357
242.030	15.134	880.228	664.682
243.045	15.300	879.372	664.635
244.059	15.188	878.980	663.834
245.074	15.206	878.489	663.476
246.088	15.141	877.649	662.525
247.103	15.225	877.460	662.657
248.117	15.345	876.819	662.587
249.132	15.422	876.260	662.411
250.147	15.551	875.320	662.150
251.161	15.716	874.473	662.102
252.176	15.624	874.136	661.423
253.190	15.720	873.309	661.119
254.205	15.694	873.039	660.752
255.220	15.687	871.993	659.877
256.234	15.759	871.174	659.481
257.249	15.708	870.706	658.869
258.263	15.802	869.857	658.536
259.278	15.829	869.520	658.327
260.293	15.799	868.653	657.493
261.307	15.836	868.170	657.214
262.322	15.791	867.960	656.824
263.336	15.922	866.707	656.327
264.351	15.952	865.958	655.820
265.366	15.955	865.742	655.609
266.380	15.939	864.879	654.834
267.395	15.894	864.158	654.057
268.409	15.879	863.444	653.400
269.424	15.929	862.760	653.017
270.439	15.780	862.213	651.969
271.453	15.916	861.294	651.742
272.468	15.797	861.085	651.065
273.482	15.797	860.573	650.622
274.497	15.727	860.038	649.888
275.512	15.783	859.334	649.518
276.526	15.927	858.605	649.462
277.541	15.913	858.559	649.316
278.555	15.967	858.135	649.146
279.570	16.104	857.025	648.779
280.585	16.183	856.102	648.325
281.599	16.056	855.681	647.461
282.614	16.058	854.891	646.814
283.628	16.020	854.322	646.179
284.643	16.048	853.926	645.931
285.657	16.060	853.521	645.612
286.672	16.018	852.820	644.863
287.687	16.008	852.354	644.418
288.701	16.124	851.298	644.005
289.716	16.079	850.696	643.322
290.730	16.286	850.087	643.594
291.745	16.197	849.666	642.876
292.760	16.175	849.274	642.439
293.774	16.258	848.353	642.002
294.789	16.277	848.159	641.869
295.803	16.206	847.370	640.947
296.818	16.112	846.772	640.083
297.833	16.094	846.399	639.675
298.847	16.165	845.241	639.011
299.862	16.139	845.158	638.795
300.876	16.191	844.347	638.320
301.891	16.287	843.617	638.076
302.906	16.378	843.443	638.231
303.920	16.482	842.964	638.205
304.935	16.509	842.257	637.714
305.949	16.534	841.427	637.124
306.964	16.418	841.004	636.310
307.979	16.415	840.526	635.881
308.993	16.470	840.077	635.693
310.008	16.618	839.008	635.383
311.022	16.666	838.459	635.092
312.037	16.557	837.958	634.249
313.052	16.414	837.297	633.154
314.066	16.398	836.767	632.638
315.081	16.407	836.583	632.477
316.095	16.277	835.898	631.417
317.110	16.223	835.676	630.991
318.125	16.439	834.550	630.893
319.139	16.312	834.385	630.237
320.154	16.372	833.901	630.040
321.168	16.459	833.323	629.871
322.183	16.446	832.647	629.258
323.197	16.475	832.002	628.822
324.212	16.565	831.376	628.628
325.227	16.491	831.098	628.088
326.241	16.528	830.241	627.522
327.256	16.484	830.104	627.199
328.270	16.541	829.463	626.869
329.285	16.404	829.155	626.073
330.300	16.486	828.241	625.632
331.314	16.511	827.627	625.207
332.329	16.488	827.449	624.931
333.343	16.493	827.157	624.671
334.358	16.444	826.768	624.141
335.373	16.759	826.402	624.972
336.387	16.683	826.000	624.334
337.402	16.746	826.000	624.511
338.416	16.783	825.402	624.141
339.431	16.898	825.083	624.265
340.446	17.004	824.548	624.195
341.460	16.860	824.408	623.508
342.475	16.918	823.937	623.308
343.489	17.073	823.341	623.372
344.504	16.894	822.974	622.383
345.519	17.071	822.534	622.644
346.533	17.108	821.556	621.982
347.548	17.015	821.055	621.210
348.562	16.726	820.819	619.915
349.577	16.888	820.207	619.991
350.592	16.927	819.439	619.501
351.606	16.911	818.479	618.659
352.621	17.116	817.722	618.782
353.635	16.905	817.572	617.844
354.650	16.928	816.968	617.414
355.665	17.017	816.248	617.140
356.679	17.133	815.529	616.963
357.694	17.017	815.376	616.374
358.708	17.057	814.664	615.924
359.723	17.053	813.958	615.321
360.738	17.178	813.306	615.227
361.752	17.147	812.668	614.578
362.767	17.219	812.400	614.582
363.781	17.216	812.011	614.222
364.796	17.436	811.352	614.463
365.810	17.319	811.402	614.025
366.825	17.391	810.957	613.893
367.840	17.401	810.281	613.364
368.854	17.276	809.529	612.290
369.869	17.323	809.477	612.365
370.883	17.295	809.113	611.935
371.898	17.389	808.575	611.812
372.913	17.554	807.895	611.838
373.927	17.407	807.622	611.049
374.942	17.562	807.138	611.186
375.956	17.513	806.601	610.549
376.971	17.495	806.536	610.380
377.986	17.691	805.719	610.410
379.000	17.717	805.071	609.957
380.015	17.683	804.858	609.621
381.029	17.646	804.246	608.971
382.044	17.623	803.744	608.453
383.059	17.793	802.907	608.374
384.073	17.687	802.488	607.623
385.088	17.608	801.881	606.830
386.102	17.516	801.533	606.184
387.117	17.627	800.926	606.065
388.132	17.508	800.391	605.187
389.146	17.609	799.602	604.894
390.161	17.648	799.556	604.944
391.175	17.746	799.039	604.847
392.190	17.579	798.795	604.017
393.205	17.720	797.710	603.643
394.219	17.614	797.788	603.271
395.234	17.639	797.023	602.730
396.248	17.518	796.820	602.093
397.263	17.603	796.315	601.960
398.278	17.508	795.900	601.256
399.292	17.554	795.442	601.019
400.307	17.522	795.064	600.570
401.321	17.582	794.607	600.383
402.336	17.488	794.384	599.829
403.350	17.680	793.220	599.573
404.365	17.758	793.307	599.858
405.380	17.749	792.975	599.523
406.394	17.843	792.152	599.178
407.409	17.905	791.883	599.140
408.423	17.937	791.867	599.188
409.438	18.069	791.301	599.168
410.453	17.995	790.847	598.514
411.467	18.079	790.290	598.333
412.482	18.266	789.844	598.597
413.496	18.255	789.616	598.330
414.511	18.181	789.512	597.940
415.526	18.305	788.685	597.696
416.540	17.981	788.578	596.429
417.555	18.152	788.122	596.628
418.569	18.039	787.920	596.030
419.584	18.074	787.120	595.493
420.599	18.222	786.725	595.656
421.613	156.393	1369.915	1793.669
422.628	135.171	1454.894	1793.767
