DTS Sentinel unit serial number:	SN413079Multiplexer serial number:	ORYXHardware model number:	OX4-SRSoftware version number:	ORYX F/W v4.00 Oryx Data Collector v3.7.2.0data status	okinstallation	princeton_trtdifferential loss correction	single-endedforward channel	channel 1reverse channel	N/Adate	2019/09/18time	04:46:35forward acquisition time	60.00reverse acquisition time	0.00gamma	496.2192k internal	0.2339k external	0.2339temperature offset calibration	0.9971default loss term (dB/km)	0.3790temperature slope calibration	1.0000multiplexer offset coefficient	1.0000multiplexer slope coefficient	1.0000fibre end	0.00T internal ref (°C)	23.44T ext. ref 1 (°C)	0.18T ext. ref 2 (°C)	17.86length (m)	temperature (°C)	Stokes	anti-Stokes-747.200	63.989	0.294	0.297
-746.185	-110.233	-0.220	-0.046
-745.171	-91.104	0.449	0.129
-744.156	88.548	-0.055	-0.061
-743.142	267.940	-0.120	-0.211
-742.127	-2.821	-0.288	0.202
-741.112	163.482	0.255	0.359
-740.098	328.179	-0.101	0.195
-739.083	-43.676	-0.256	-0.129
-738.069	-124.247	0.264	0.041
-737.054	-200.000	-0.018	0.283
-736.039	91.604	0.206	0.232
-735.025	49.227	0.133	0.126
-734.010	-200.000	-0.033	0.197
-732.996	-56.630	-0.499	-0.221
-731.981	-169.230	0.170	0.006
-730.966	-121.527	0.160	0.027
-729.952	-100.148	-0.393	-0.098
-728.937	-59.518	0.327	-0.141
-727.923	-88.040	-0.141	-0.042
-726.908	644.894	-0.207	-0.528
-725.894	288.250	-0.195	-0.354
-724.879	-87.595	-0.216	0.066
-723.864	800.000	0.035	0.124
-722.850	-120.500	0.258	-0.044
-721.835	-98.842	-0.273	-0.070
-720.821	-15.699	-0.175	0.112
-719.806	-140.307	-0.364	0.038
-718.791	800.000	0.103	-0.319
-717.777	100.095	-0.154	-0.178
-716.762	401.108	0.119	0.251
-715.748	-103.866	0.222	-0.052
-714.733	447.676	-0.106	0.233
-713.718	-128.782	-0.369	-0.052
-712.704	100.404	0.258	0.300
-711.689	25.496	-0.309	0.257
-710.675	-162.125	0.202	-0.010
-709.660	-110.204	0.108	0.022
-708.645	-101.945	0.418	0.101
-707.631	-23.195	-0.189	-0.114
-706.616	598.449	-0.034	0.084
-705.602	-61.893	0.187	-0.078
-704.587	-13.498	0.250	-0.162
-703.572	385.878	-0.074	-0.153
-702.558	97.277	-0.082	-0.094
-701.543	-112.152	-0.294	-0.059
-700.529	12.620	-0.182	0.141
-699.514	-200.000	0.051	-0.237
-698.499	800.000	0.040	0.122
-697.485	401.444	0.058	-0.122
-696.470	800.000	-0.022	0.062
-695.456	-200.000	-0.025	0.137
-694.441	800.000	0.074	0.237
-693.426	-136.800	0.110	0.013
-692.412	-200.000	-0.078	-0.448
-691.397	-109.753	-0.341	-0.072
-690.383	-75.190	-0.184	0.066
-689.368	436.845	0.055	0.120
-688.354	-200.000	-0.044	0.457
-687.339	-179.714	-0.251	-0.005
-686.324	336.504	0.096	0.187
-685.310	83.668	0.100	0.109
-684.295	109.923	-0.115	-0.138
-683.281	800.000	0.029	0.112
-682.266	800.000	0.056	-0.176
-681.251	442.505	-0.061	0.134
-680.237	800.000	-0.139	0.396
-679.222	-157.317	-0.090	-0.005
-678.208	-200.000	-0.003	-0.147
-677.193	671.721	-0.034	-0.088
-676.178	-200.000	0.005	-0.177
-675.164	89.275	-0.235	-0.262
-674.149	46.230	0.139	0.129
-673.135	-200.000	0.052	0.251
-672.120	180.736	-0.143	0.210
-671.105	-39.308	0.080	0.042
-670.091	800.000	0.033	-0.098
-669.076	-200.000	-0.017	0.211
-668.062	-200.000	-0.030	0.203
-667.047	-128.263	-0.258	-0.037
-666.032	200.676	-0.113	-0.173
-665.018	800.000	0.032	-0.121
-664.003	-96.121	0.133	-0.035
-662.989	-76.673	-0.166	0.058
-661.974	144.853	0.239	0.320
-660.959	-144.333	-0.184	-0.017
-659.945	107.766	0.088	-0.105
-658.930	-155.518	0.264	-0.017
-657.916	35.763	0.199	0.175
-656.901	-200.000	-0.037	0.190
-655.886	91.484	-0.027	0.030
-654.872	130.869	0.086	0.111
-653.857	-122.084	-0.212	-0.035
-652.843	27.863	-0.085	-0.072
-651.828	6.953	0.045	0.033
-650.814	755.963	-0.045	0.121
-649.799	-39.686	-0.189	-0.099
-648.784	-74.805	-0.281	-0.101
-647.770	-200.000	0.059	-0.371
-646.755	800.000	-0.063	-0.205
-645.741	-200.000	0.019	-0.182
-644.726	-200.000	-0.002	-0.029
-643.711	-200.000	0.100	-0.511
-642.697	-199.185	-0.129	-0.001
-641.682	800.000	-0.030	-0.088
-640.668	63.426	-0.175	-0.175
-639.653	-4.609	0.170	-0.117
-638.638	-171.618	0.326	-0.011
-637.624	47.640	-0.046	-0.043
-636.609	-200.000	-0.059	-0.262
-635.595	-74.951	-0.357	0.128
-634.580	800.000	0.040	-0.111
-633.565	-78.651	-0.296	-0.101
-632.551	-111.115	-0.328	0.067
-631.536	-10.664	0.248	-0.164
-630.522	-117.318	-0.196	0.036
-629.507	-11.663	0.246	0.162
-628.492	800.000	0.117	-0.423
-627.478	375.341	-0.120	0.244
-626.463	760.126	-0.113	-0.305
-625.449	800.000	0.065	-0.246
-624.434	313.835	0.052	-0.098
-623.419	-200.000	0.013	-0.272
-622.405	800.000	0.017	0.047
-621.390	-200.000	-0.076	0.546
-620.376	-200.000	0.028	-0.154
-619.361	31.491	-0.162	-0.139
-618.346	-200.000	-0.020	-0.247
-617.332	-200.000	-0.029	0.281
-616.317	-117.653	-0.185	-0.033
-615.303	2.833	-0.347	0.251
-614.288	75.818	0.153	0.161
-613.273	-108.243	-0.283	-0.061
-612.259	-138.718	0.308	0.034
-611.244	-200.000	0.020	0.269
-610.230	-119.334	0.452	-0.078
-609.215	515.557	-0.199	-0.465
-608.201	-110.328	0.301	-0.063
-607.186	-200.000	0.044	0.386
-606.171	-200.000	0.055	-0.269
-605.157	-137.021	-0.172	0.020
-604.142	-52.884	-0.290	-0.133
-603.128	-200.000	-0.006	-0.053
-602.113	-32.346	-0.303	0.169
-601.098	99.428	-0.171	-0.197
-600.084	-178.781	0.102	-0.002
-599.069	800.000	0.073	0.209
-598.055	800.000	-0.090	0.374
-597.040	-58.169	0.420	0.183
-596.025	462.055	-0.117	-0.260
-595.011	297.745	-0.124	-0.228
-593.996	58.122	-0.057	0.056
-592.982	447.395	0.153	0.337
-591.967	-93.385	0.194	-0.054
-590.952	800.000	0.112	-0.404
-589.938	-15.618	-0.065	-0.042
-588.923	542.747	-0.060	-0.142
-587.909	-105.687	0.148	0.033
-586.894	422.704	0.070	-0.150
-585.879	-200.000	-0.039	0.205
-584.865	-124.120	0.245	0.038
-583.850	69.129	0.203	-0.208
-582.836	-34.023	-0.464	0.254
-581.821	-82.315	0.256	-0.083
-580.806	800.000	0.082	-0.325
-579.792	-200.000	0.022	0.219
-578.777	-200.000	-0.010	-0.267
-577.763	800.000	-0.006	-0.019
-576.748	505.576	-0.162	0.375
-575.733	-200.000	-0.005	0.094
-574.719	-200.000	-0.010	0.221
-573.704	160.458	-0.134	0.186
-572.690	-200.000	0.001	0.206
-571.675	-23.961	-0.420	0.250
-570.661	138.895	-0.121	0.158
-569.646	-25.433	0.201	0.118
-568.631	-86.027	-0.034	-0.011
-567.617	296.163	0.146	-0.267
-566.602	-200.000	-0.033	0.305
-565.588	-77.346	0.232	-0.080
-564.573	622.843	0.077	-0.194
-563.558	-40.406	-0.148	-0.077
-562.544	68.488	0.168	-0.172
-561.529	800.000	-0.054	-0.154
-560.515	-53.939	0.320	0.145
-559.500	-2.838	-0.134	-0.094
-558.485	-200.000	-0.005	-0.293
-557.471	49.571	0.198	0.186
-556.456	800.000	-0.065	0.220
-555.442	77.030	0.220	0.233
-554.427	-200.000	-0.079	0.453
-553.412	728.229	0.067	-0.179
-552.398	-38.925	0.104	0.054
-551.383	-33.916	-0.296	-0.162
-550.369	157.859	-0.060	-0.082
-549.354	-98.695	0.338	-0.086
-548.339	-200.000	-0.026	-0.376
-547.325	78.494	-0.157	0.167
-546.310	19.895	0.116	-0.093
-545.296	-18.872	-0.168	-0.104
-544.281	-200.000	-0.028	-0.471
-543.266	-200.000	0.038	-0.185
-542.252	298.434	-0.087	0.159
-541.237	621.515	-0.062	-0.155
-540.223	-200.000	0.009	0.296
-539.208	-95.439	-0.188	0.050
-538.193	0.588	-0.189	-0.135
-537.179	14.195	-0.160	-0.124
-536.164	375.988	0.175	0.355
-535.150	151.891	-0.130	0.176
-534.135	800.000	0.056	-0.229
-533.121	242.695	0.042	0.070
-532.106	153.120	0.078	-0.106
-531.091	95.672	0.162	0.184
-530.077	-200.000	0.014	-0.221
-529.062	-200.000	-0.050	0.407
-528.048	-200.000	0.048	0.257
-527.033	-42.509	-0.272	-0.138
-526.018	800.000	0.053	-0.171
-525.004	65.878	-0.224	-0.226
-523.989	-14.515	-0.098	-0.062
-522.975	323.854	-0.188	-0.357
-521.960	134.564	0.259	-0.334
-520.945	-90.269	-0.067	0.019
-519.931	12.560	-0.161	-0.124
-518.916	12.710	0.219	0.168
-517.902	-144.372	0.213	0.020
-516.887	-200.000	-0.043	-0.347
-515.872	296.258	-0.016	0.030
-514.858	-51.159	-0.247	0.115
-513.843	164.022	0.199	0.279
-512.829	-80.786	0.120	0.040
-511.814	127.409	0.107	0.135
-510.799	508.656	-0.064	0.149
-509.785	-9.565	-0.245	-0.162
-508.770	-67.975	0.268	-0.104
-507.756	-136.767	0.342	-0.039
-506.741	156.080	-0.217	0.297
-505.726	-42.269	0.090	-0.046
-504.712	177.457	-0.068	0.098
-503.697	800.000	0.077	0.240
-502.683	800.000	-0.056	-0.162
-501.668	-52.633	-0.311	-0.143
-500.653	-83.692	-0.221	0.070
-499.639	-131.087	0.440	-0.058
-498.624	-106.218	-0.076	-0.017
-497.610	800.000	0.133	0.436
-496.595	122.186	0.127	-0.157
-495.581	-200.000	-0.138	0.000
-494.566	79.734	0.313	0.334
-493.551	-168.462	-0.081	0.003
-492.537	-200.000	0.043	0.514
-491.522	-200.000	0.026	0.242
-490.508	114.633	-0.089	-0.108
-489.493	800.000	-0.090	-0.335
-488.478	-79.929	0.217	0.072
-487.464	215.838	0.200	0.316
-486.449	59.289	-0.248	0.242
-485.435	-200.000	0.030	-0.146
-484.420	-22.577	0.363	0.218
-483.405	761.121	0.138	0.372
-482.391	-200.000	0.017	-0.219
-481.376	-200.000	-0.024	0.119
-480.362	352.235	0.040	-0.080
-479.347	402.238	-0.089	0.185
-478.332	102.148	0.194	-0.224
-477.318	61.739	0.148	0.147
-476.303	-200.000	-0.075	-0.340
-475.289	-200.000	-0.046	-0.314
-474.274	-200.000	0.070	-0.317
-473.259	800.000	-0.040	0.140
-472.245	-109.469	-0.237	-0.050
-471.230	403.790	0.118	0.247
-470.216	800.000	-0.075	-0.245
-469.201	-39.766	0.096	-0.050
-468.186	-177.348	-0.311	0.008
-467.172	-65.342	0.231	0.092
-466.157	-200.000	0.025	0.158
-465.143	629.350	-0.047	0.119
-464.128	227.941	-0.014	0.023
-463.113	37.252	0.151	0.133
-462.099	-200.000	-0.006	0.544
-461.084	426.843	0.129	0.276
-460.070	330.195	-0.050	-0.096
-459.055	-8.188	-0.102	-0.068
-458.040	-21.207	-0.172	-0.104
-457.026	800.000	-0.067	0.285
-456.011	800.000	0.050	0.144
-454.997	49.471	0.108	0.101
-453.982	800.000	0.005	0.016
-452.968	47.256	-0.196	-0.181
-451.953	-75.263	-0.345	0.122
-450.938	800.000	-0.019	0.080
-449.924	-36.482	-0.066	-0.035
-448.909	-108.698	-0.250	0.053
-447.895	-114.394	-0.179	-0.034
-446.880	-200.000	0.037	0.240
-445.865	16.795	0.148	0.116
-444.851	-200.000	0.015	0.245
-443.836	-139.153	-0.186	0.020
-442.822	-200.000	0.054	-0.470
-441.807	-3.550	0.289	0.199
-440.792	-200.000	0.016	-0.088
-439.778	-200.000	-0.032	0.310
-438.763	-37.095	-0.416	0.221
-437.749	462.880	0.108	-0.239
-436.734	-65.659	-0.280	-0.111
-435.719	104.154	0.189	-0.220
-434.705	153.681	-0.054	0.074
-433.690	800.000	0.068	-0.187
-432.676	-90.996	0.438	0.125
-431.661	800.000	0.049	-0.165
-430.646	110.965	0.107	-0.127
-429.632	-66.491	0.354	-0.139
-428.617	-200.000	-0.032	-0.141
-427.603	-69.299	-0.270	-0.103
-426.588	-57.167	0.302	-0.132
-425.573	-18.896	-0.144	0.089
-424.559	-65.405	0.190	0.076
-423.544	93.850	-0.121	-0.136
-422.530	-200.000	0.011	0.133
-421.515	191.588	-0.168	-0.251
-420.500	800.000	-0.015	-0.044
-419.486	87.561	-0.173	0.189
-418.471	-200.000	0.024	-0.344
-417.457	-24.648	0.211	0.124
-416.442	-86.632	0.061	0.019
-415.428	-200.000	-0.052	0.250
-414.413	-35.999	-0.199	0.107
-413.398	-200.000	-0.024	-0.373
-412.384	21.789	-0.119	0.096
-411.369	-131.654	-0.368	-0.048
-410.355	-200.000	-0.038	0.459
-409.340	550.685	0.104	0.247
-408.325	-79.168	-0.369	0.124
-407.311	311.540	-0.146	0.270
-406.296	11.296	-0.290	0.220
-405.282	800.000	0.083	0.269
-404.267	98.098	0.258	0.294
-403.252	800.000	-0.055	-0.225
-402.238	-200.000	-0.015	-0.353
-401.223	22.129	0.083	0.067
-400.209	800.000	0.012	0.047
-399.194	-200.000	-0.048	0.345
-398.179	37.385	-0.182	-0.159
-397.165	339.116	0.154	-0.297
-396.150	800.000	0.029	-0.091
-395.136	-53.163	-0.072	0.033
-394.121	800.000	-0.063	-0.225
-393.106	-1.246	-0.236	-0.165
-392.092	-57.199	0.072	0.032
-391.077	-136.864	0.344	0.039
-390.063	-116.425	-0.268	0.049
-389.048	-52.692	0.266	-0.122
-388.033	-77.947	0.024	0.008
-387.019	800.000	0.044	-0.139
-386.004	-99.490	0.238	0.059
-384.990	363.379	-0.091	-0.181
-383.975	443.202	-0.104	-0.225
-382.960	460.442	-0.172	-0.379
-381.946	8.402	0.053	-0.039
-380.931	-77.934	-0.248	-0.085
-379.917	-200.000	0.005	-0.218
-378.902	30.985	0.207	-0.176
-377.888	18.569	-0.193	-0.153
-376.873	800.000	-0.031	-0.090
-375.858	-200.000	0.082	0.381
-374.844	800.000	0.021	0.080
-373.829	-144.412	-0.104	-0.010
-372.815	-121.051	0.152	-0.025
-371.800	-111.786	0.193	0.039
-370.785	369.441	-0.204	-0.408
-369.771	-54.435	0.131	-0.059
-368.756	-16.884	-0.189	-0.118
-367.742	-200.000	0.051	-0.334
-366.727	-42.271	-0.116	0.059
-365.712	-200.000	-0.044	-0.323
-364.698	-200.000	-0.000	0.337
-363.683	279.649	-0.237	0.417
-362.669	-180.609	-0.268	-0.005
-361.654	-200.000	-0.052	-0.336
-360.639	86.236	0.177	0.193
-359.625	800.000	0.090	0.266
-358.610	-200.000	0.021	-0.134
-357.596	-87.834	0.236	0.070
-356.581	63.206	-0.083	-0.082
-355.566	-89.833	0.354	-0.102
-354.552	143.049	-0.169	0.222
-353.537	-16.540	0.156	-0.098
-352.523	-200.000	-0.000	-0.087
-351.508	-115.556	0.367	-0.068
-350.493	800.000	-0.059	0.176
-349.479	163.596	0.065	-0.090
-348.464	64.775	0.091	-0.091
-347.450	361.674	0.056	-0.112
-346.435	-76.345	0.139	-0.048
-345.420	-86.226	-0.154	0.047
-344.406	-200.000	0.018	-0.201
-343.391	-16.345	-0.153	0.096
-342.377	-200.000	-0.022	0.100
-341.362	169.482	-0.131	-0.185
-340.348	-58.960	-0.074	-0.031
-339.333	-103.802	0.137	0.032
-338.318	800.000	0.050	0.139
-337.304	386.708	-0.016	-0.032
-336.289	27.274	0.241	-0.200
-335.275	-67.160	-0.130	0.050
-334.260	53.825	-0.020	0.019
-333.245	800.000	0.085	0.349
-332.231	-53.249	0.360	0.163
-331.216	61.981	-0.500	0.492
-330.202	328.658	-0.074	-0.140
-329.187	189.342	-0.201	0.297
-328.172	242.166	0.136	-0.225
-327.158	66.592	-0.173	0.173
-326.143	82.372	0.201	-0.215
-325.129	800.000	-0.034	0.126
-324.114	-85.114	0.153	-0.047
-323.099	104.331	0.183	-0.213
-322.085	27.702	0.224	0.186
-321.070	-144.415	0.407	-0.037
-320.056	91.949	-0.228	-0.253
-319.041	-200.000	-0.019	-0.191
-318.026	177.459	0.184	-0.264
-317.012	800.000	0.027	0.114
-315.997	-94.034	0.182	-0.049
-314.983	364.891	0.231	-0.459
-313.968	476.612	0.079	0.176
-312.953	367.258	-0.065	-0.130
-311.939	-14.061	-0.052	-0.033
-310.924	-178.791	-0.071	0.002
-309.910	10.884	-0.107	0.080
-308.895	33.104	0.156	-0.134
-307.880	-200.000	0.003	-0.171
-306.866	-200.000	0.028	-0.326
-305.851	-98.174	-0.056	0.014
-304.837	6.083	-0.355	-0.260
-303.822	-19.893	0.125	0.076
-302.807	-200.000	0.010	-0.113
-301.793	-15.647	0.238	0.150
-300.778	-200.000	-0.033	-0.150
-299.764	273.797	0.210	-0.366
-298.749	-61.481	0.221	0.091
-297.735	-37.086	-0.359	0.190
-296.720	-116.085	-0.275	-0.050
-295.705	800.000	-0.086	-0.348
-294.691	-200.000	0.003	0.413
-293.676	-124.948	0.023	-0.004
-292.662	-1.049	-0.232	-0.162
-291.647	148.877	-0.092	-0.123
-290.632	-200.000	-0.008	-0.282
-289.618	-74.018	-0.256	0.091
-288.603	-176.066	-0.332	-0.009
-287.589	-200.000	0.007	-0.245
-286.574	-185.729	-0.148	0.002
-285.559	-65.910	0.276	0.109
-284.545	-48.921	0.173	0.082
-283.530	-23.430	-0.340	0.201
-282.516	-170.260	0.242	0.008
-281.501	-0.025	-0.089	0.062
-280.486	-158.229	-0.112	-0.006
-279.472	-158.798	0.230	0.013
-278.457	-121.967	0.086	0.014
-277.443	800.000	0.183	0.571
-276.428	242.542	0.119	0.197
-275.413	-67.295	0.032	0.013
-274.399	-200.000	0.010	-0.046
-273.384	20.775	0.195	0.156
-272.370	800.000	-0.026	-0.099
-271.355	-200.000	-0.043	0.229
-270.340	-1.837	-0.150	0.104
-269.326	73.283	0.137	0.141
-268.311	-20.499	-0.193	-0.117
-267.297	44.123	0.236	0.213
-266.282	-89.125	0.193	0.056
-265.267	-85.666	0.241	0.074
-264.253	-143.651	0.330	0.031
-263.238	-107.630	0.056	-0.012
-262.224	-41.196	-0.353	-0.179
-261.209	479.174	0.006	-0.014
-260.195	-103.303	0.036	-0.008
-259.180	69.525	-0.236	-0.240
-258.165	-200.000	0.012	0.129
-257.151	346.222	0.036	-0.071
-256.136	288.232	0.083	-0.148
-255.122	210.428	0.219	0.338
-254.107	-200.000	0.018	-0.091
-253.092	20.570	0.095	-0.075
-252.078	-200.000	-0.067	0.406
-251.063	596.845	-0.068	-0.166
-250.049	282.962	0.093	-0.164
-249.034	-128.437	-0.304	-0.043
-248.019	-200.000	0.004	0.035
-247.005	6.691	0.369	0.270
-245.990	366.519	-0.055	-0.110
-244.976	-114.542	-0.241	-0.045
-243.961	544.494	-0.072	-0.169
-242.946	-113.595	0.436	-0.084
-241.932	-110.721	-0.327	-0.067
-240.917	-101.631	-0.309	-0.074
-239.903	-94.955	-0.243	0.065
-238.888	-200.000	0.060	0.299
-237.873	-200.000	0.003	0.147
-236.859	-200.000	-0.075	0.510
-235.844	-116.179	0.092	0.017
-234.830	-200.000	0.020	0.196
-233.815	-78.665	-0.160	-0.054
-232.800	-200.000	0.081	-0.399
-231.786	185.211	0.197	0.287
-230.771	-13.789	-0.055	-0.035
-229.757	-200.000	0.029	0.392
-228.742	-64.994	-0.371	0.148
-227.727	-1.207	-0.204	0.142
-226.713	-200.000	0.065	0.389
-225.698	-20.968	0.125	-0.075
-224.684	-38.454	0.131	0.068
-223.669	800.000	0.058	-0.217
-222.655	800.000	0.036	-0.132
-221.640	242.377	0.162	0.267
-220.625	179.734	0.056	0.080
-219.611	-65.535	0.221	0.087
-218.596	-52.473	0.271	-0.123
-217.582	800.000	0.125	0.451
-216.567	-71.841	-0.104	0.038
-215.552	-13.697	-0.186	0.118
-214.538	60.154	0.173	0.168
-213.523	-200.000	-0.002	-0.102
-212.509	509.553	0.090	-0.205
-211.494	-200.000	0.063	0.314
-210.479	-200.000	0.027	0.251
-209.465	331.561	0.113	0.213
-208.450	-95.810	0.163	0.043
-207.436	461.190	0.104	-0.229
-206.421	-32.208	0.103	0.057
-205.406	-110.094	-0.131	-0.027
-204.392	-93.205	-0.230	-0.063
-203.377	800.000	0.045	-0.124
-202.363	242.618	0.065	0.107
-201.348	-1.457	-0.142	-0.098
-200.333	69.275	0.171	0.172
-199.319	184.015	-0.049	-0.072
-198.304	96.326	-0.148	-0.166
-197.290	228.603	0.113	-0.181
-196.275	-147.610	-0.348	-0.029
-195.260	1.169	-0.097	0.069
-194.246	30.692	-0.043	-0.036
-193.231	-151.653	0.136	-0.010
-192.217	238.690	0.119	-0.194
-191.202	-46.315	0.719	-0.347
-190.187	-68.838	-0.016	-0.006
-189.173	-146.832	-0.249	-0.021
-188.158	-200.000	-0.036	0.408
-187.144	-44.594	0.177	-0.087
-186.129	-100.336	-0.451	-0.110
-185.114	26.086	-0.031	-0.026
-184.100	4.471	-0.142	-0.102
-183.085	-200.000	0.009	-0.052
-182.071	291.041	-0.124	-0.222
-181.056	8.860	0.273	-0.202
-180.042	800.000	0.111	0.357
-179.027	57.445	-0.147	-0.141
-178.012	207.890	-0.098	-0.151
-176.998	-64.545	-0.522	-0.208
-175.983	-200.000	-0.073	0.431
-174.969	107.557	-0.129	-0.151
-173.954	-8.178	0.347	-0.229
-172.939	800.000	0.069	-0.190
-171.925	68.864	0.239	0.241
-170.910	76.960	-0.143	0.149
-169.896	-119.026	0.075	0.013
-168.881	96.679	0.029	0.033
-167.866	-61.684	-0.248	0.102
-166.852	-76.628	-0.136	-0.047
-165.837	800.000	0.091	0.269
-164.823	461.971	-0.092	0.202
-163.808	-5.693	0.202	0.136
-162.793	-153.196	0.213	0.015
-161.779	145.161	0.106	-0.139
-160.764	1.448	-0.200	0.141
-159.750	-200.000	0.148	-0.001
-158.735	-105.120	0.137	0.031
-157.720	-88.612	0.204	0.059
-156.706	247.445	0.154	-0.256
-155.691	-187.542	-0.379	0.005
-154.677	-96.351	-0.345	-0.089
-153.662	-200.000	-0.003	0.093
-152.647	178.781	0.149	-0.213
-151.633	233.091	-0.166	0.268
-150.618	125.304	-0.113	-0.140
-149.604	800.000	0.032	0.110
-148.589	740.250	-0.103	-0.272
-147.574	-200.000	0.041	0.190
-146.560	800.000	0.036	-0.134
-145.545	-79.045	0.500	-0.166
-144.531	-200.000	0.032	-0.155
-143.516	-200.000	-0.007	0.213
-142.502	-200.000	-0.008	-0.075
-141.487	82.901	-0.135	0.143
-140.472	800.000	-0.064	0.253
-139.458	-128.525	-0.120	-0.017
-138.443	21.096	-0.073	0.058
-137.429	201.063	-0.058	-0.087
-136.414	141.534	-0.082	-0.107
-135.399	663.372	0.091	-0.231
-134.385	-149.058	-0.133	0.010
-133.370	113.063	0.287	0.341
-132.356	-33.749	-0.050	-0.027
-131.341	-76.916	-0.377	-0.129
-130.326	32.715	0.108	0.092
-129.312	55.202	0.196	0.185
-128.297	79.114	0.126	0.132
-127.283	-112.961	0.130	-0.025
-126.268	369.138	0.059	-0.117
-125.253	-11.590	0.073	0.047
-124.239	-94.804	-0.236	-0.063
-123.224	47.102	0.062	-0.056
-122.210	218.959	0.065	-0.101
-121.195	-170.227	-0.174	-0.006
-120.180	-12.047	-0.346	-0.222
-119.166	0.434	-0.131	-0.092
-118.151	240.464	-0.057	-0.093
-117.137	71.221	-0.159	0.162
-116.122	-11.457	0.226	0.146
-115.107	143.187	-0.122	-0.158
-114.093	82.620	-0.058	-0.062
-113.078	113.481	-0.251	0.298
-112.064	-30.550	0.158	-0.088
-111.049	32.415	-0.126	0.107
-110.034	-37.209	0.124	0.065
-109.020	369.525	0.245	-0.486
-108.005	-14.756	-0.298	0.187
-106.991	800.000	-0.182	0.626
-105.976	-108.827	-0.083	0.017
-104.962	178.790	0.190	-0.271
-103.947	-200.000	0.011	0.183
-102.932	-46.116	-0.325	-0.156
-101.918	-86.612	0.292	-0.088
-100.903	74.585	-0.234	0.241
-99.889	-200.000	0.056	0.346
-98.874	-200.000	0.054	0.297
-97.859	-73.465	0.341	0.122
-96.845	14.029	0.209	-0.159
-95.830	800.000	-0.036	-0.138
-94.816	-200.000	0.016	-0.331
-93.801	-62.617	0.122	-0.049
-92.786	-41.224	0.217	-0.109
-91.772	-55.674	-0.082	-0.036
-90.757	231.400	0.122	-0.195
-89.743	-200.000	0.001	0.084
-88.728	-200.000	0.000	-0.158
-87.713	261.379	0.055	0.093
-86.699	-200.000	-0.025	0.250
-85.684	365.061	0.096	-0.188
-84.670	256.543	-0.177	-0.298
-83.655	24.025	-0.117	-0.094
-82.640	-27.540	-0.290	-0.164
-81.626	-200.000	-0.007	0.131
-80.611	-135.500	0.341	-0.040
-79.597	-19.592	0.200	0.121
-78.582	24.984	0.278	0.225
-77.567	-56.594	0.254	-0.110
-76.553	-87.697	0.442	0.130
-75.538	229.424	0.184	-0.293
-74.524	-191.391	0.204	-0.002
-73.509	192.125	0.243	-0.358
-72.494	231.694	-0.017	0.027
-71.480	569.062	0.107	-0.255
-70.465	-100.657	-0.239	-0.058
-69.451	-200.000	0.020	0.223
-68.436	-200.000	-0.057	0.407
-67.422	103.741	0.263	-0.302
-66.407	-108.092	-0.123	0.026
-65.392	-16.103	0.057	-0.035
-64.378	-124.709	-0.034	0.005
-63.363	-200.000	-0.022	0.209
-62.349	-200.000	0.054	-0.271
-61.334	57.593	-0.988	-0.943
-60.319	218.160	0.632	0.984
-59.305	672.518	-0.526	-1.331
-58.290	199.173	0.990	1.481
-57.276	589.825	0.617	1.485
-56.261	-200.000	124.270	643.949
-55.246	413.868	1562.488	3246.104
-54.232	143.104	2720.764	3533.263
-53.217	96.350	2162.537	2415.029
-52.203	35.180	1595.294	1364.813
-51.188	26.649	1339.379	1094.533
-50.173	24.180	1301.833	1049.291
-49.159	51.266	1370.895	1270.110
-48.144	48.704	1382.044	1264.897
-47.130	26.847	1330.390	1088.207
-46.115	23.628	1311.369	1053.532
-45.100	23.345	1306.333	1047.769
-44.086	23.352	1303.571	1045.553
-43.071	23.339	1301.113	1043.466
-42.057	23.330	1299.110	1041.768
-41.042	23.331	1297.564	1040.492
-40.027	23.257	1296.211	1038.932
-39.013	23.346	1294.185	1037.788
-37.998	23.343	1292.588	1036.448
-36.984	23.396	1291.177	1035.585
-35.969	23.436	1289.114	1034.120
-34.954	23.360	1287.971	1032.718
-33.940	23.516	1285.879	1031.913
-32.925	23.540	1284.815	1031.156
-31.911	23.490	1283.604	1029.851
-30.896	23.535	1282.155	1028.908
-29.881	23.681	1280.766	1028.599
-28.867	23.533	1279.600	1026.766
-27.852	23.479	1278.314	1025.378
-26.838	23.606	1276.745	1024.814
-25.823	23.492	1275.861	1023.406
-24.809	23.597	1273.682	1022.226
-23.794	23.438	1272.831	1020.587
-22.779	23.504	1271.553	1019.900
-21.765	23.560	1270.319	1019.188
-20.750	23.524	1269.051	1017.925
-19.736	23.455	1267.539	1016.276
-18.721	23.377	1266.203	1014.717
-17.706	23.379	1265.400	1014.045
-16.692	23.391	1264.427	1013.296
-15.677	23.498	1263.083	1012.789
-14.663	23.422	1261.604	1011.130
-13.648	23.309	1260.770	1009.779
-12.633	23.374	1259.816	1009.346
-11.619	23.430	1259.064	1009.018
-10.604	23.433	1258.406	1008.471
-9.590	23.342	1257.293	1007.017
-8.575	23.383	1256.698	1006.738
-7.560	23.335	1255.940	1005.816
-6.546	23.331	1255.294	1005.234
-5.531	23.249	1254.361	1003.983
-4.517	23.440	1253.089	1004.006
-3.502	23.500	1251.973	1003.414
-2.487	23.429	1251.491	1002.586
-1.473	23.431	1246.868	998.857
-0.458	21.836	1232.581	978.478
0.556	17.003	1217.015	943.580
1.571	13.517	1225.122	930.231
2.586	12.991	1240.306	938.688
3.600	13.198	1227.928	930.401
4.615	9.613	1155.940	856.747
5.629	3.233	1085.019	772.188
6.644	0.399	1067.865	745.910
7.659	0.144	1066.001	743.283
8.673	0.073	1065.110	742.246
9.688	0.094	1063.480	741.147
10.702	0.269	1061.738	740.729
11.717	4.118	1066.276	762.806
12.731	11.204	1075.336	804.303
13.746	15.664	1080.782	830.383
14.761	16.677	1081.653	835.983
15.775	15.861	1080.046	830.642
16.790	15.032	1078.087	824.975
17.804	14.142	1076.695	819.456
18.819	13.944	1075.787	817.720
19.834	13.742	1074.514	815.684
20.848	13.354	1073.729	813.111
21.863	13.168	1072.720	811.359
22.877	13.144	1072.110	810.707
23.892	13.056	1071.232	809.543
24.907	13.148	1070.512	809.375
25.921	13.141	1069.762	808.704
26.936	13.147	1068.797	807.932
27.950	13.150	1067.956	807.238
28.965	13.195	1066.675	806.418
29.980	13.247	1065.056	805.379
30.994	13.352	1064.217	805.184
32.009	13.202	1063.550	803.879
33.023	13.335	1062.285	803.497
34.038	13.253	1061.685	802.572
35.053	13.203	1060.540	801.393
36.067	13.213	1060.133	801.064
37.082	13.071	1059.627	799.925
38.096	13.274	1058.420	799.925
39.111	13.326	1057.818	799.648
40.126	13.299	1055.895	797.994
41.140	13.123	1055.340	796.654
42.155	13.041	1054.230	795.353
43.169	12.995	1053.323	794.376
44.184	12.979	1052.027	793.250
45.199	12.994	1051.115	792.565
46.213	13.052	1050.171	792.063
47.228	13.217	1049.084	791.962
48.242	13.089	1048.440	790.793
49.257	13.013	1047.612	789.734
50.271	13.123	1046.332	789.227
51.286	13.154	1045.594	788.749
52.301	13.215	1044.245	787.951
53.315	13.165	1043.330	786.954
54.330	13.120	1042.268	785.868
55.344	13.068	1041.573	785.026
56.359	13.039	1040.965	784.363
57.374	13.069	1039.713	783.489
58.388	12.958	1039.306	782.590
59.403	13.017	1038.083	781.876
60.417	12.982	1037.185	780.968
61.432	13.080	1036.684	780.982
62.447	13.017	1035.621	779.816
63.461	12.958	1034.803	778.854
64.476	13.023	1033.625	778.205
65.490	13.067	1033.216	778.036
66.505	12.922	1033.006	777.123
67.520	13.027	1031.908	776.723
68.534	13.122	1031.109	776.503
69.549	13.147	1029.959	775.681
70.563	12.997	1029.688	774.708
71.578	12.884	1029.220	773.754
72.593	12.862	1028.148	772.777
73.607	12.713	1027.822	771.767
74.622	12.949	1026.992	772.181
75.636	12.817	1025.978	770.730
76.651	12.995	1024.989	770.753
77.666	12.862	1024.610	769.776
78.680	12.941	1024.083	769.683
79.695	13.007	1023.472	769.463
80.709	12.883	1022.817	768.326
81.724	13.097	1022.134	768.739
82.739	13.121	1020.990	767.921
83.753	13.057	1020.687	767.330
84.768	13.329	1019.118	767.343
85.782	13.249	1018.376	766.346
86.797	13.200	1017.755	765.586
87.812	13.154	1016.979	764.719
88.826	13.147	1015.848	763.771
89.841	13.199	1014.860	763.198
90.855	13.158	1013.945	762.257
91.870	13.236	1013.261	762.034
92.884	13.122	1012.566	760.918
93.899	13.242	1011.786	760.816
94.914	13.274	1011.136	760.406
95.928	13.372	1009.954	759.901
96.943	13.285	1009.293	758.940
97.957	13.265	1008.451	758.147
98.972	13.359	1007.346	757.680
99.987	13.278	1006.903	756.907
101.001	13.391	1005.267	756.128
102.016	13.352	1004.645	755.415
103.030	13.231	1004.418	754.625
104.045	13.223	1003.766	754.034
105.060	13.142	1003.128	753.116
106.074	13.221	1001.709	752.345
107.089	13.166	1001.167	751.619
108.103	13.311	999.519	750.977
109.118	13.059	999.317	749.614
110.133	13.139	997.832	748.795
111.147	13.121	997.224	748.191
112.162	13.182	996.020	747.498
113.176	13.213	995.983	747.543
114.191	13.216	994.795	746.601
115.206	13.264	993.853	746.042
116.220	13.148	993.313	745.047
117.235	13.258	992.210	744.649
118.249	13.130	991.658	743.596
119.264	13.196	990.537	742.983
120.279	13.199	989.982	742.515
121.293	13.102	989.249	741.465
122.308	13.182	988.217	740.987
123.322	13.152	987.467	740.221
124.337	13.283	986.071	739.697
125.352	13.191	985.444	738.750
126.366	13.245	983.737	737.648
127.381	13.237	982.906	736.919
128.395	13.308	982.023	736.508
129.410	13.266	981.114	735.577
130.424	13.134	980.644	734.573
131.439	13.239	979.985	734.481
132.454	13.310	979.121	734.082
133.468	13.223	978.532	733.191
134.483	13.226	977.720	732.530
135.497	13.347	976.288	731.927
136.512	13.217	975.845	730.955
137.527	13.243	974.771	730.203
138.541	13.360	974.134	730.176
139.556	13.284	973.806	729.529
140.570	13.271	973.160	728.924
141.585	13.319	971.932	728.154
142.600	13.349	971.148	727.631
143.614	13.391	970.201	727.041
144.629	13.364	969.185	726.099
145.643	13.417	968.199	725.526
146.658	13.330	967.632	724.659
147.673	13.325	966.742	723.904
148.687	13.440	965.022	723.058
149.702	13.330	964.845	722.379
150.716	13.338	964.608	722.175
151.731	13.387	963.592	721.562
152.746	13.352	962.960	720.872
153.760	13.410	962.374	720.625
154.775	13.403	961.690	720.014
155.789	13.488	960.965	719.779
156.804	13.464	960.470	719.242
157.819	13.550	959.592	718.891
158.833	13.547	958.969	718.351
159.848	13.682	958.076	718.201
160.862	13.516	957.380	716.897
161.877	13.541	956.055	715.952
162.892	13.583	954.911	715.213
163.906	13.522	954.155	714.319
164.921	13.496	953.604	713.731
165.935	13.493	952.679	712.962
166.950	13.521	951.887	712.426
167.964	13.541	951.115	711.874
168.979	13.553	950.234	711.201
169.994	13.533	949.400	710.427
171.008	13.551	948.580	709.830
172.023	13.730	947.860	709.992
173.037	13.714	946.774	709.048
174.052	13.619	946.484	708.365
175.067	13.595	946.123	707.928
176.081	13.604	945.562	707.486
177.096	13.667	945.056	707.312
178.110	13.589	944.205	706.280
179.125	13.529	944.024	705.825
180.140	13.715	943.169	705.915
181.154	13.622	943.124	705.424
182.169	13.710	942.305	705.125
183.183	13.729	941.772	704.742
184.198	13.762	940.898	704.167
185.213	13.667	940.198	703.179
186.227	13.896	938.912	703.121
187.242	13.852	938.779	702.777
188.256	14.028	938.090	702.943
189.271	13.893	937.433	701.817
190.286	13.730	936.855	700.634
191.300	13.734	935.916	699.884
192.315	13.709	935.165	699.155
193.329	13.727	935.108	699.128
194.344	13.725	934.368	698.504
195.359	13.775	933.445	697.965
196.373	13.850	932.662	697.632
197.388	13.983	932.298	697.856
198.402	13.849	931.899	696.935
199.417	13.995	931.350	697.073
200.432	13.968	931.044	696.669
201.446	13.978	930.614	696.326
202.461	14.121	929.783	696.245
203.475	14.113	928.979	695.544
204.490	14.090	928.535	695.055
205.504	14.022	927.635	694.038
206.519	14.032	926.921	693.485
207.534	14.029	926.141	692.827
208.548	14.065	925.769	692.635
209.563	14.153	924.863	692.264
210.577	14.003	924.626	691.401
211.592	14.109	923.873	691.217
212.607	14.221	922.628	690.690
213.621	14.095	922.271	689.840
214.636	14.132	921.318	689.216
215.650	14.287	920.478	689.170
216.665	14.282	920.255	688.922
217.680	14.319	919.385	688.360
218.694	14.250	918.778	687.563
219.709	14.442	917.896	687.634
220.723	14.392	917.380	686.979
221.738	14.445	916.591	686.548
222.753	14.152	916.670	685.336
223.767	14.275	915.778	685.116
224.782	14.421	914.554	684.739
225.796	14.372	914.661	684.556
226.811	14.525	913.714	684.416
227.826	14.305	913.089	682.986
228.840	14.411	912.041	682.574
229.855	14.411	911.125	681.828
230.869	14.425	910.311	681.217
231.884	14.461	909.774	680.904
232.899	14.334	909.379	680.026
233.913	14.487	908.409	679.866
234.928	14.380	908.093	679.132
235.942	14.362	907.343	678.439
236.957	14.412	906.848	678.211
237.972	14.361	906.268	677.513
238.986	14.301	905.814	676.869
240.001	14.397	904.826	676.458
241.015	14.468	904.220	676.236
242.030	14.424	903.500	675.459
243.045	14.487	903.231	675.453
244.059	14.631	902.167	675.180
245.074	14.486	901.789	674.249
246.088	14.549	901.091	673.922
247.103	14.578	900.415	673.473
248.117	14.618	899.586	672.958
249.132	14.746	899.159	673.092
250.147	14.646	898.803	672.367
251.161	14.867	897.849	672.481
252.176	14.823	897.217	671.772
253.190	14.722	896.939	671.098
254.205	14.930	895.948	671.131
255.220	14.719	895.425	669.833
256.234	14.878	894.733	669.896
257.249	14.766	894.198	668.985
258.263	15.032	892.984	669.082
259.278	14.875	892.709	668.188
260.293	15.019	891.888	668.093
261.307	15.078	891.258	667.794
262.322	15.011	890.807	667.130
263.336	14.987	890.180	666.508
264.351	15.074	889.548	666.320
265.366	15.162	888.705	665.979
266.380	15.140	888.036	665.334
267.395	14.927	887.802	664.255
268.409	15.108	886.765	664.135
269.424	15.073	886.084	663.429
270.439	14.990	885.462	662.574
271.453	15.047	884.815	662.256
272.468	15.215	884.156	662.371
273.482	15.143	883.679	661.672
274.497	15.094	883.002	660.911
275.512	15.030	882.724	660.392
276.526	15.128	882.022	660.195
277.541	15.156	881.345	659.741
278.555	15.334	880.343	659.631
279.570	15.195	880.022	658.788
280.585	15.188	879.290	658.153
281.599	15.300	878.363	657.840
282.614	15.240	878.009	657.283
283.628	15.408	877.049	657.161
284.643	15.321	876.928	656.674
285.657	15.359	876.209	656.224
286.672	15.324	875.325	655.369
287.687	15.398	874.608	655.061
288.701	15.397	874.280	654.757
289.716	15.410	873.906	654.467
290.730	15.379	873.215	653.772
291.745	15.378	872.434	653.125
292.760	15.505	872.173	653.366
293.774	15.639	871.139	653.052
294.789	15.540	870.613	652.218
295.803	15.449	869.818	651.210
296.818	15.463	869.052	650.634
297.833	15.458	868.246	649.955
298.847	15.606	867.850	650.174
299.862	15.581	867.073	649.436
300.876	15.544	866.599	648.882
301.891	15.785	865.894	649.225
302.906	15.620	865.467	648.212
303.920	15.568	865.372	647.885
304.935	15.658	864.335	647.396
305.949	15.953	863.253	647.662
306.964	15.687	863.279	646.601
307.979	15.718	862.775	646.285
308.993	15.830	862.355	646.345
310.008	15.778	861.634	645.548
311.022	15.831	860.736	645.021
312.037	15.861	860.201	644.677
313.052	15.742	859.583	643.701
314.066	15.750	859.160	643.358
315.081	15.787	858.763	643.146
316.095	15.811	857.889	642.525
317.110	15.777	857.372	641.953
318.125	15.736	857.035	641.489
319.139	15.731	856.487	641.000
320.154	15.896	855.788	641.049
321.168	15.948	855.270	640.803
322.183	15.907	854.672	640.142
323.197	15.873	854.277	639.662
324.212	15.945	853.843	639.553
325.227	15.880	853.299	638.843
326.241	15.894	852.750	638.426
327.256	15.952	852.154	638.146
328.270	15.844	851.638	637.294
329.285	15.893	851.099	637.018
330.300	15.896	850.536	636.550
331.314	15.909	850.180	636.279
332.329	15.977	849.228	635.765
333.343	15.986	848.889	635.489
334.358	15.979	848.774	635.320
335.373	16.004	848.184	634.919
336.387	16.032	847.804	634.683
337.402	16.068	847.770	634.736
338.416	16.110	847.071	634.314
339.431	16.179	847.005	634.469
340.446	16.237	846.227	634.045
341.460	16.218	845.916	633.687
342.475	16.149	845.690	633.205
343.489	16.221	845.031	632.925
344.504	16.429	844.465	633.224
345.519	16.329	844.481	632.803
346.533	16.280	843.802	632.055
347.548	16.286	843.041	631.453
348.562	16.226	842.780	630.976
349.577	16.227	841.968	630.316
350.592	16.327	841.047	629.944
351.606	16.351	840.407	629.498
352.621	16.381	839.671	629.002
353.635	16.379	839.333	628.688
354.650	16.366	838.695	628.107
355.665	16.386	837.904	627.533
356.679	16.512	837.270	627.469
357.694	16.406	836.799	626.667
358.708	16.462	836.219	626.387
359.723	16.430	835.636	625.773
360.738	16.567	834.805	625.605
361.752	16.502	834.713	625.238
362.767	16.536	834.075	624.831
363.781	16.571	833.221	624.265
364.796	16.634	832.758	624.095
365.810	16.694	832.443	624.025
366.825	16.635	831.611	623.131
367.840	16.683	831.820	623.406
368.854	16.760	831.076	623.079
369.869	16.721	830.623	622.541
370.883	16.695	830.237	622.100
371.898	16.662	830.178	621.879
372.913	16.738	829.553	621.636
373.927	16.816	828.721	621.245
374.942	16.851	828.519	621.165
375.956	16.766	828.163	620.530
376.971	16.820	827.659	620.295
377.986	16.929	827.618	620.610
379.000	17.083	826.885	620.568
380.015	16.921	826.273	619.462
381.029	16.952	825.681	619.078
382.044	16.904	825.264	618.534
383.059	16.850	824.407	617.642
384.073	16.924	823.736	617.353
385.088	16.905	823.397	616.976
386.102	16.824	822.774	616.159
387.117	16.938	822.613	616.400
388.132	16.991	821.881	615.989
389.146	16.983	821.395	615.540
390.161	16.912	820.700	614.707
391.175	17.018	820.286	614.728
392.190	17.042	819.595	614.241
393.205	17.058	819.074	613.853
394.219	16.890	819.140	613.242
395.234	17.014	818.468	613.134
396.248	17.046	818.144	612.953
397.263	17.004	817.453	612.229
398.278	17.109	817.330	612.459
399.292	16.985	817.043	611.744
400.307	17.158	816.440	611.862
401.321	17.111	815.670	611.063
402.336	17.175	815.358	611.002
403.350	17.056	814.811	610.113
404.365	17.145	814.555	610.186
405.380	17.155	814.055	609.795
406.394	17.231	813.292	609.441
407.409	17.217	813.118	609.206
408.423	17.358	812.539	609.225
409.438	17.315	812.551	609.024
410.453	17.312	812.042	608.577
411.467	17.332	811.283	608.028
412.482	17.296	811.201	607.785
413.496	17.524	810.652	608.132
414.511	17.429	810.175	607.381
415.526	17.493	809.676	607.182
416.540	17.575	809.165	607.038
417.555	17.412	809.013	606.289
418.569	17.478	808.074	605.767
419.584	17.447	807.976	605.527
420.599	17.593	807.430	605.586
421.613	113.290	1298.537	1486.075
422.628	97.844	1370.037	1486.150
