DTS Sentinel unit serial number:	SN413079Multiplexer serial number:	ORYXHardware model number:	OX4-SRSoftware version number:	ORYX F/W v4.00 Oryx Data Collector v3.7.2.0data status	okinstallation	princeton_trtdifferential loss correction	single-endedforward channel	channel 1reverse channel	N/Adate	2019/09/12time	09:16:11forward acquisition time	60.00reverse acquisition time	0.00gamma	496.2192k internal	0.2304k external	0.2304temperature offset calibration	1.0045default loss term (dB/km)	0.3790temperature slope calibration	1.0000multiplexer offset coefficient	1.0000multiplexer slope coefficient	1.0000fibre end	0.00T internal ref (°C)	34.84T ext. ref 1 (°C)	1.78T ext. ref 2 (°C)	33.30length (m)	temperature (°C)	Stokes	anti-Stokes-747.200	-141.725	0.259	-0.026
-746.185	-85.781	-0.201	0.064
-745.171	-50.943	0.170	0.081
-744.156	-125.180	0.600	0.094
-743.142	800.000	0.069	0.245
-742.127	-186.198	0.342	0.005
-741.112	-92.213	0.065	-0.019
-740.098	-200.000	-0.032	0.149
-739.083	-128.516	0.069	-0.010
-738.069	21.643	0.210	0.174
-737.054	-200.000	0.018	-0.113
-736.039	-74.498	-0.217	-0.080
-735.025	-200.000	0.038	-0.221
-734.010	800.000	-0.071	-0.221
-732.996	-200.000	-0.032	-0.192
-731.981	242.389	-0.029	-0.049
-730.966	2.428	-0.233	-0.171
-729.952	-200.000	0.014	0.132
-728.937	140.622	-0.227	-0.305
-727.923	-200.000	0.001	0.081
-726.908	95.198	0.058	0.068
-725.894	179.333	-0.078	0.116
-724.879	123.054	0.066	0.084
-723.864	-134.648	-0.037	-0.005
-722.850	-200.000	-0.052	0.422
-721.835	10.166	0.260	-0.201
-720.821	-147.906	-0.396	0.034
-719.806	87.569	-0.132	-0.149
-718.791	-200.000	-0.017	-0.149
-717.777	35.560	-0.153	-0.137
-716.762	800.000	0.044	-0.155
-715.748	-60.212	0.017	0.007
-714.733	608.602	-0.172	0.436
-713.718	-200.000	-0.016	0.334
-712.704	-16.686	0.353	-0.227
-711.689	-100.349	0.128	-0.032
-710.675	800.000	0.076	-0.222
-709.660	-122.992	-0.214	0.035
-708.645	-78.804	-0.231	0.080
-707.631	-181.836	-0.273	-0.005
-706.616	800.000	-0.073	-0.230
-705.602	46.997	-0.097	-0.091
-704.587	69.722	0.248	0.259
-703.572	-52.545	0.201	-0.094
-702.558	-106.270	0.284	-0.065
-701.543	-39.364	-0.233	-0.124
-700.529	27.778	-0.165	-0.142
-699.514	134.199	-0.101	-0.133
-698.499	318.436	-0.144	-0.278
-697.485	-89.667	0.056	-0.017
-696.470	800.000	0.017	0.055
-695.456	535.048	-0.056	0.136
-694.441	800.000	0.038	-0.127
-693.426	128.886	-0.127	-0.164
-692.412	431.777	-0.036	0.080
-691.397	-53.755	-0.219	0.101
-690.383	141.221	-0.238	0.320
-689.368	-200.000	-0.047	-0.236
-688.354	406.580	-0.066	0.142
-687.339	-26.322	0.098	-0.058
-686.324	93.676	-0.229	-0.264
-685.310	-64.367	0.280	-0.116
-684.295	-153.822	-0.242	0.017
-683.281	407.868	0.125	0.268
-682.266	32.690	0.170	0.150
-681.251	24.848	-0.145	0.122
-680.237	144.399	0.248	-0.336
-679.222	800.000	-0.028	-0.086
-678.208	66.612	-0.175	-0.180
-677.193	-200.000	0.009	-0.144
-676.178	19.210	0.403	-0.328
-675.164	-200.000	0.028	0.312
-674.149	-200.000	0.036	-0.344
-673.135	-65.681	-0.100	0.041
-672.120	-8.408	-0.073	0.050
-671.105	-82.696	-0.257	0.084
-670.091	-10.017	0.303	-0.205
-669.076	-121.192	-0.046	0.008
-668.062	25.252	-0.297	0.250
-667.047	-119.099	0.142	-0.025
-666.032	-177.015	0.376	-0.010
-665.018	100.432	-0.059	0.069
-664.003	-107.052	-0.109	-0.024
-662.989	800.000	0.121	-0.438
-661.974	77.429	-0.005	-0.005
-660.959	16.168	-0.290	0.232
-659.945	-200.000	0.020	-0.196
-658.930	800.000	-0.067	-0.210
-657.916	800.000	-0.009	-0.025
-656.901	-100.696	0.249	0.062
-655.886	-97.257	0.463	-0.123
-654.872	800.000	-0.092	-0.346
-653.857	-100.014	-0.096	0.024
-652.843	-200.000	0.013	-0.162
-651.828	-200.000	0.069	0.404
-650.814	800.000	-0.083	0.328
-649.799	-3.128	-0.402	0.284
-648.784	-167.024	-0.114	-0.005
-647.770	60.517	-0.084	0.084
-646.755	-200.000	-0.037	-0.319
-645.741	-100.440	0.198	-0.050
-644.726	104.419	0.142	-0.169
-643.711	-167.268	-0.053	-0.002
-642.697	-200.000	0.072	0.377
-641.682	-168.019	0.144	0.006
-640.668	79.937	-0.203	0.221
-639.653	-114.223	-0.313	-0.061
-638.638	-200.000	0.028	-0.138
-637.624	-20.648	-0.082	0.051
-636.609	-42.730	0.052	-0.027
-635.595	-87.173	-0.268	-0.083
-634.580	-14.491	-0.275	-0.179
-633.565	187.128	0.119	0.180
-632.551	106.339	-0.013	0.016
-631.536	-108.507	0.308	0.067
-630.522	82.082	0.065	-0.071
-629.507	-132.452	0.320	0.042
-628.492	-200.000	0.085	-0.526
-627.478	-180.570	0.366	0.008
-626.463	-200.000	0.083	-0.428
-625.449	800.000	0.075	-0.293
-624.434	-14.303	-0.073	-0.048
-623.419	103.878	0.152	-0.181
-622.405	-112.448	0.273	0.055
-621.390	257.565	0.041	-0.071
-620.376	54.082	-0.094	0.091
-619.361	-91.542	0.183	-0.053
-618.346	170.364	0.208	-0.301
-617.332	555.249	-0.061	0.150
-616.317	471.367	-0.033	0.076
-615.303	-120.544	0.292	0.050
-614.288	-200.000	-0.066	-0.312
-613.273	-80.695	0.249	-0.084
-612.259	643.731	0.068	0.177
-611.244	-66.580	0.181	0.073
-610.230	93.073	0.094	-0.107
-609.215	-59.895	0.145	-0.063
-608.201	761.281	-0.046	-0.128
-607.186	-139.857	-0.140	-0.015
-606.171	58.533	0.043	-0.043
-605.157	282.301	-0.071	-0.129
-604.142	-60.367	-0.080	0.035
-603.128	-43.370	-0.257	0.131
-602.113	-200.000	-0.010	-0.140
-601.098	-200.000	0.016	-0.123
-600.084	69.237	0.118	0.122
-599.069	28.903	-0.111	0.095
-598.055	800.000	-0.055	-0.180
-597.040	126.028	0.052	-0.066
-596.025	208.871	-0.115	0.182
-595.011	174.427	0.120	0.175
-593.996	29.245	-0.150	-0.129
-592.982	-49.352	-0.283	0.137
-591.967	-84.760	-0.260	0.083
-590.952	59.330	-0.348	-0.347
-589.938	-67.608	-0.181	-0.072
-588.923	-1.408	0.226	0.161
-587.909	347.298	-0.092	0.183
-586.894	33.503	-0.148	-0.130
-585.879	-130.487	-0.084	0.011
-584.865	247.759	0.141	0.241
-583.850	180.580	0.189	0.280
-582.836	171.374	0.186	0.270
-581.821	24.487	-0.237	-0.198
-580.806	-200.000	0.026	0.135
-579.792	104.500	0.186	-0.221
-578.777	-23.872	0.162	-0.098
-577.763	-41.552	-0.178	-0.093
-576.748	-90.085	0.049	-0.014
-575.733	540.765	-0.128	0.308
-574.719	73.655	-0.158	0.168
-573.704	221.518	-0.187	-0.304
-572.690	-200.000	-0.016	-0.223
-571.675	-74.407	0.246	-0.090
-570.661	67.187	0.156	-0.161
-569.646	34.464	-0.212	-0.187
-568.631	800.000	0.077	-0.324
-567.617	45.354	-0.059	-0.055
-566.602	-93.880	0.190	0.053
-565.588	631.144	-0.169	0.433
-564.573	-200.000	-0.009	-0.118
-563.558	264.626	0.112	-0.197
-562.544	-17.188	0.358	-0.228
-561.529	-46.283	-0.124	0.062
-560.515	56.576	-0.422	0.415
-559.500	411.466	-0.071	-0.153
-558.485	-200.000	0.009	0.340
-557.471	362.004	-0.108	-0.219
-556.456	348.468	0.117	-0.234
-555.442	-122.537	0.338	-0.055
-554.427	73.127	0.120	0.126
-553.412	148.857	-0.217	0.297
-552.398	71.662	-0.189	0.198
-551.383	37.924	0.143	0.129
-550.369	-98.801	-0.398	0.102
-549.354	-57.852	0.092	-0.040
-548.339	-94.780	-0.071	0.019
-547.325	578.275	-0.030	0.075
-546.310	800.000	0.053	-0.219
-545.296	84.066	0.166	0.183
-544.281	111.774	-0.116	-0.141
-543.266	-114.082	-0.254	0.050
-542.252	555.751	0.088	-0.215
-541.237	-121.892	-0.174	-0.029
-540.223	-200.000	0.003	-0.067
-539.208	473.654	0.081	0.184
-538.193	-200.000	-0.062	-0.285
-537.179	11.786	0.142	0.110
-536.164	800.000	-0.004	0.013
-535.150	18.744	-0.227	-0.184
-534.135	-200.000	0.000	-0.075
-533.121	-152.996	-0.290	0.021
-532.106	-106.428	0.209	-0.047
-531.091	-200.000	-0.023	-0.365
-530.077	800.000	0.027	-0.115
-529.062	223.284	-0.204	0.331
-528.048	-7.844	-0.162	0.110
-527.033	-26.494	0.182	-0.108
-526.018	-28.552	0.341	-0.198
-525.004	-52.946	0.117	-0.054
-523.989	-124.867	-0.122	0.019
-522.975	-200.000	0.003	0.239
-521.960	800.000	-0.079	0.339
-520.945	176.174	0.104	0.152
-519.931	-37.522	-0.105	-0.056
-518.916	-200.000	0.008	0.206
-517.902	542.018	-0.049	-0.117
-516.887	-200.000	0.042	-0.431
-515.872	-86.782	-0.228	0.070
-514.858	55.184	-0.322	-0.314
-513.843	-200.000	-0.054	-0.277
-512.829	-15.585	0.251	-0.161
-511.814	-35.684	-0.248	0.136
-510.799	209.808	0.134	0.213
-509.785	-94.208	0.088	0.024
-508.770	-113.457	0.299	-0.059
-507.756	-106.938	0.240	0.054
-506.741	45.121	0.187	-0.174
-505.726	-81.946	0.061	-0.020
-504.712	-104.354	-0.140	0.033
-503.697	-129.843	0.150	0.021
-502.683	86.515	-0.324	-0.360
-501.668	63.236	-0.062	0.063
-500.653	-101.612	-0.248	-0.061
-499.639	-66.522	0.100	-0.040
-498.624	40.524	0.128	0.116
-497.610	-200.000	0.000	0.009
-496.595	-14.973	0.082	0.053
-495.581	774.032	-0.032	-0.089
-494.566	93.442	-0.138	-0.158
-493.551	19.792	-0.235	-0.190
-492.537	-200.000	0.009	-0.080
-491.522	-200.000	0.030	-0.236
-490.508	122.857	-0.067	0.084
-489.493	-39.228	0.114	-0.060
-488.478	-200.000	-0.019	-0.110
-487.464	-125.008	-0.248	0.038
-486.449	-186.226	0.174	0.003
-485.435	-200.000	0.005	0.041
-484.420	133.347	-0.068	-0.089
-483.405	-97.139	0.255	-0.067
-482.391	-117.124	0.277	-0.051
-481.376	-157.693	0.266	0.016
-480.362	-200.000	0.043	-0.296
-479.347	-200.000	0.024	0.479
-478.332	-200.000	-0.019	-0.144
-477.318	800.000	-0.016	0.058
-476.303	-134.833	-0.082	0.010
-475.289	-86.655	-0.390	0.120
-474.274	-40.642	0.146	0.076
-473.259	127.660	-0.095	0.121
-472.245	-200.000	0.022	0.363
-471.230	216.517	-0.036	0.057
-470.216	-200.000	-0.011	-0.302
-469.201	74.446	-0.338	0.358
-468.186	-145.003	-0.235	-0.022
-467.172	-122.363	0.166	0.027
-466.157	-155.834	-0.215	0.014
-465.143	278.884	0.063	0.113
-464.128	74.154	-0.057	0.060
-463.113	233.628	0.113	0.188
-462.099	27.105	0.255	0.215
-461.084	53.624	0.182	-0.176
-460.070	186.678	0.148	0.222
-459.055	800.000	0.123	0.443
-458.040	-113.413	0.167	0.033
-457.026	-118.647	0.318	0.056
-456.011	-70.039	-0.244	0.093
-454.997	-9.763	0.209	0.140
-453.982	-42.743	-0.157	0.080
-452.968	-104.754	-0.255	-0.059
-451.953	-175.178	0.334	-0.009
-450.938	-200.000	0.005	0.102
-449.924	72.324	0.103	0.108
-448.909	-106.130	-0.115	0.026
-447.895	121.180	-0.037	0.047
-446.880	202.923	0.157	-0.244
-445.865	-13.011	-0.119	0.078
-444.851	38.573	-0.043	-0.038
-443.836	-9.346	0.106	0.072
-442.822	-73.185	-0.098	-0.036
-441.807	-200.000	-0.020	-0.089
-440.792	61.485	0.142	-0.142
-439.778	-200.000	-0.045	-0.203
-438.763	27.562	0.102	0.086
-437.749	258.258	-0.074	0.128
-436.734	758.803	0.151	0.411
-435.719	367.874	0.081	-0.165
-434.705	-55.450	-0.170	-0.076
-433.690	-148.925	0.346	0.028
-432.676	332.106	0.009	-0.017
-431.661	-116.273	-0.194	0.036
-430.646	43.515	-0.310	0.285
-429.632	-140.943	0.157	0.016
-428.617	-19.225	0.398	-0.248
-427.603	181.634	-0.054	0.080
-426.588	-200.000	0.005	-0.118
-425.573	-200.000	0.005	0.263
-424.559	140.441	-0.052	0.069
-423.544	403.292	-0.123	0.260
-422.530	10.535	-0.187	-0.144
-421.515	-159.811	-0.155	-0.009
-420.500	-16.214	-0.185	-0.118
-419.486	-178.780	0.208	0.005
-418.471	2.513	-0.247	0.180
-417.457	-200.000	0.028	-0.352
-416.442	134.331	-0.110	-0.143
-415.428	-122.636	-0.153	0.025
-414.413	27.798	0.158	-0.134
-413.398	-17.988	0.253	-0.159
-412.384	265.880	-0.032	-0.056
-411.369	420.874	0.019	-0.041
-410.355	-200.000	-0.047	0.327
-409.340	800.000	0.091	0.271
-408.325	800.000	0.060	-0.215
-407.311	21.752	-0.362	-0.296
-406.296	169.986	0.068	-0.097
-405.282	-43.891	0.055	-0.028
-404.267	-48.343	-0.038	0.018
-403.252	-144.763	-0.369	-0.034
-402.238	-200.000	0.017	-0.403
-401.223	-51.398	-0.385	-0.181
-400.209	-200.000	-0.012	0.070
-399.194	-148.117	-0.153	-0.013
-398.179	-200.000	-0.027	-0.186
-397.165	-135.635	-0.204	0.024
-396.150	-125.299	0.136	-0.021
-395.136	-89.079	0.087	-0.026
-394.121	559.040	0.123	0.297
-393.106	736.090	0.106	-0.284
-392.092	56.886	-0.044	0.044
-391.077	-124.747	-0.296	-0.046
-390.063	397.393	0.118	-0.247
-389.048	679.819	-0.131	0.342
-388.033	387.092	0.021	-0.043
-387.019	1.386	-0.270	-0.195
-386.004	363.378	-0.143	-0.288
-384.990	-162.052	-0.228	-0.012
-383.975	-141.314	0.396	0.040
-382.960	800.000	0.056	0.217
-381.946	-87.293	-0.353	-0.108
-380.931	-200.000	0.014	-0.229
-379.917	-125.379	0.143	-0.022
-378.902	-173.237	-0.253	0.008
-377.888	-91.690	-0.446	-0.127
-376.873	88.432	0.140	-0.156
-375.858	206.015	-0.068	0.106
-374.844	206.346	-0.169	-0.264
-373.829	33.202	0.077	-0.067
-372.815	112.856	0.115	0.140
-371.800	29.532	-0.116	-0.099
-370.785	-200.000	-0.037	0.196
-369.771	85.277	0.095	-0.104
-368.756	54.543	0.136	0.131
-367.742	-75.626	0.097	0.035
-366.727	-127.096	-0.253	-0.037
-365.712	775.199	-0.100	0.275
-364.698	65.403	0.222	-0.225
-363.683	45.422	-0.115	-0.106
-362.669	-200.000	-0.030	0.235
-361.654	-70.546	-0.388	-0.147
-360.639	800.000	0.054	-0.186
-359.625	-54.321	0.244	0.111
-358.610	119.504	-0.055	0.068
-357.596	800.000	0.107	0.306
-356.581	-200.000	-0.075	-0.372
-355.566	-80.089	-0.340	0.114
-354.552	167.728	0.071	-0.101
-353.537	-200.000	-0.024	-0.111
-352.523	-89.386	0.365	-0.108
-351.508	-40.464	0.172	0.090
-350.493	-13.276	0.385	0.250
-349.479	-3.326	0.123	-0.086
-348.464	-200.000	0.071	0.314
-347.450	-200.000	0.019	0.130
-346.435	3.639	-0.198	0.145
-345.420	800.000	0.139	-0.433
-344.406	-200.000	0.009	-0.238
-343.391	65.796	-0.184	-0.187
-342.377	-151.228	0.197	-0.015
-341.362	347.045	0.101	-0.198
-340.348	-5.166	0.226	-0.156
-339.333	443.216	0.115	-0.252
-338.318	36.240	0.155	0.137
-337.304	-104.460	0.084	0.019
-336.289	-177.613	0.352	-0.009
-335.275	-114.214	0.132	-0.026
-334.260	621.979	-0.035	0.089
-333.245	550.080	-0.119	0.286
-332.231	353.012	0.172	0.342
-331.216	-200.000	-0.027	0.505
-330.202	-180.374	0.077	-0.002
-329.187	81.584	-0.113	0.122
-328.172	227.127	0.231	-0.376
-327.158	-38.544	-0.182	-0.096
-326.143	19.352	0.183	0.147
-325.129	-185.640	-0.132	0.002
-324.114	-76.483	-0.064	-0.022
-323.099	-200.000	-0.003	0.232
-322.085	313.705	-0.064	-0.120
-321.070	-87.936	-0.009	0.003
-320.056	539.042	0.165	0.393
-319.041	127.593	0.157	-0.200
-318.026	301.047	0.057	0.105
-317.012	144.864	-0.023	0.031
-315.997	-105.390	-0.261	0.060
-314.983	800.000	0.040	0.165
-313.968	-200.000	-0.006	0.284
-312.953	800.000	-0.090	-0.290
-311.939	-123.357	0.274	-0.044
-310.924	510.691	-0.058	0.136
-309.910	-69.387	0.278	-0.107
-308.895	313.103	0.068	-0.128
-307.880	27.971	-0.117	0.099
-306.866	-200.000	-0.008	-0.057
-305.851	650.932	-0.190	0.487
-304.837	485.462	0.082	0.188
-303.822	11.535	0.237	0.182
-302.807	5.459	-0.026	0.019
-301.793	-114.281	0.162	-0.031
-300.778	-200.000	0.049	-0.252
-299.764	-200.000	0.006	-0.078
-298.749	-113.112	-0.333	0.066
-297.735	-18.973	0.018	-0.011
-296.720	-157.531	-0.229	0.014
-295.705	106.012	0.285	-0.338
-294.691	-200.000	0.019	0.219
-293.676	-68.505	-0.168	0.065
-292.662	-7.333	0.210	-0.142
-291.647	16.948	-0.037	0.029
-290.632	-152.012	-0.258	-0.019
-289.618	207.575	-0.271	-0.422
-288.603	146.259	-0.065	-0.087
-287.589	-200.000	-0.041	0.222
-286.574	105.248	-0.198	-0.233
-285.559	-70.577	0.203	-0.077
-284.545	70.789	-0.272	-0.282
-283.530	-200.000	0.028	0.126
-282.516	121.257	-0.138	-0.172
-281.501	-123.608	0.025	0.004
-280.486	-200.000	-0.469	-0.002
-279.472	800.000	0.072	0.278
-278.457	800.000	-0.045	-0.153
-277.443	-92.712	-0.112	-0.031
-276.428	184.057	0.166	0.246
-275.413	-101.723	0.071	0.017
-274.399	-200.000	0.007	0.407
-273.384	400.019	0.062	-0.129
-272.370	673.109	0.140	0.363
-271.355	270.473	-0.092	-0.163
-270.340	-200.000	-0.014	-0.064
-269.326	-111.675	-0.174	-0.035
-268.311	-16.046	0.326	-0.207
-267.297	345.532	0.060	0.118
-266.282	800.000	-0.094	-0.283
-265.267	-138.613	0.037	0.004
-264.253	-5.049	-0.030	-0.020
-263.238	544.666	-0.035	-0.083
-262.224	-143.648	0.007	0.001
-261.209	257.691	-0.092	0.157
-260.195	-144.591	-0.440	-0.041
-259.180	-43.171	0.450	-0.228
-258.165	43.935	0.233	-0.214
-257.151	-16.257	-0.365	-0.231
-256.136	436.969	-0.081	0.175
-255.122	373.636	-0.072	0.145
-254.107	-133.338	0.271	0.034
-253.092	-187.929	0.078	-0.001
-252.078	-54.946	0.295	-0.133
-251.063	479.555	0.126	0.286
-250.049	55.599	-0.093	0.090
-249.034	-102.098	-0.216	-0.052
-248.019	-31.253	-0.211	0.119
-247.005	726.679	0.061	-0.162
-245.990	-6.568	0.234	0.159
-244.976	800.000	0.074	0.279
-243.961	31.157	-0.181	0.155
-242.946	-21.346	0.196	0.120
-241.932	-200.000	0.040	0.177
-240.917	-6.394	0.325	0.221
-239.903	-200.000	-0.001	-0.287
-238.888	-132.519	-0.251	0.032
-237.873	16.609	0.194	-0.153
-236.859	-67.642	0.319	-0.125
-235.844	26.824	-0.066	0.055
-234.830	-28.867	0.063	0.036
-233.815	-157.634	0.186	-0.011
-232.800	29.144	-0.117	0.099
-231.786	-62.329	0.103	-0.043
-230.771	196.059	-0.057	0.087
-229.757	67.598	0.136	-0.139
-228.742	-116.145	0.153	0.028
-227.727	20.591	0.295	0.238
-226.713	-119.065	-0.187	0.033
-225.698	-116.375	0.374	-0.069
-224.684	-71.983	0.052	-0.019
-223.669	-98.588	-0.405	-0.103
-222.655	800.000	0.035	-0.128
-221.640	-89.758	0.261	-0.076
-220.625	57.414	-0.030	0.029
-219.611	-74.019	-0.086	0.031
-218.596	301.913	-0.068	-0.126
-217.582	-200.000	-0.009	-0.272
-216.567	800.000	0.129	0.371
-215.552	-200.000	0.049	0.308
-214.538	317.279	0.027	0.051
-213.523	-88.664	0.211	-0.063
-212.509	173.788	-0.184	-0.265
-211.494	136.616	-0.204	0.265
-210.479	-200.000	-0.031	0.212
-209.465	-37.076	0.418	0.223
-208.450	45.969	-0.110	0.101
-207.436	-129.769	0.185	0.025
-206.421	97.606	0.239	0.274
-205.406	-137.615	0.286	-0.032
-204.392	-65.444	-0.160	-0.064
-203.377	147.710	0.053	-0.071
-202.363	14.838	-0.027	-0.021
-201.348	679.823	0.067	0.175
-200.333	-5.606	0.312	0.213
-199.319	373.219	0.076	-0.154
-198.304	-200.000	-0.009	-0.118
-197.290	630.703	-0.004	-0.010
-196.275	800.000	0.064	0.209
-195.260	79.412	0.137	0.147
-194.246	154.029	-0.064	0.088
-193.231	-200.000	-0.013	0.069
-192.217	486.098	-0.064	0.146
-191.202	-72.752	-0.134	0.049
-190.187	-13.170	0.053	-0.034
-189.173	485.468	-0.046	0.104
-188.158	-200.000	-0.008	-0.042
-187.144	38.140	0.194	-0.172
-186.129	-175.196	-0.497	0.014
-185.114	38.667	-0.211	-0.188
-184.100	-200.000	-0.002	-0.088
-183.085	-12.111	-0.202	0.132
-182.071	-200.000	-0.061	0.350
-181.056	188.245	0.090	-0.134
-180.042	-102.272	-0.131	-0.031
-179.027	118.381	-0.095	0.117
-178.012	-200.000	-0.043	0.246
-176.998	669.500	0.034	0.086
-175.983	-115.882	0.255	-0.047
-174.969	-92.908	-0.212	0.059
-173.954	-200.000	0.013	-0.174
-172.939	718.869	-0.031	0.082
-171.925	-47.316	0.212	-0.103
-170.910	800.000	0.042	-0.171
-169.896	-200.000	-0.032	0.165
-168.881	-52.329	-0.144	-0.067
-167.866	-120.201	-0.264	-0.045
-166.852	-200.000	-0.018	0.168
-165.837	113.300	-0.237	0.286
-164.823	61.861	0.130	-0.129
-163.808	20.966	0.115	0.093
-162.793	307.473	-0.052	-0.096
-161.779	187.732	0.192	-0.285
-160.764	623.773	0.081	-0.204
-159.750	220.196	-0.127	0.203
-158.735	-135.364	-0.105	0.013
-157.720	-159.244	-0.108	-0.006
-156.706	-106.540	-0.186	0.041
-155.691	-87.596	-0.098	0.029
-154.677	-42.305	-0.335	0.170
-153.662	129.958	0.157	-0.199
-152.647	-17.508	-0.349	0.219
-151.633	-120.389	0.285	-0.048
-150.618	158.278	-0.168	0.231
-149.604	800.000	0.048	-0.163
-148.589	-62.661	-0.350	-0.144
-147.574	-116.354	0.101	-0.019
-146.560	-136.348	0.072	-0.008
-145.545	-119.599	0.160	-0.028
-144.531	-64.781	-0.015	0.006
-143.516	95.746	0.251	0.285
-142.502	103.155	-0.133	-0.155
-141.487	84.913	0.188	0.205
-140.472	-22.107	0.166	-0.100
-139.458	-200.000	0.021	0.162
-138.443	379.834	0.097	0.198
-137.429	125.192	0.190	-0.238
-136.414	-37.350	0.182	-0.096
-135.399	-200.000	0.006	-0.481
-134.385	-153.731	-0.340	-0.023
-133.370	-200.000	-0.026	-0.295
-132.356	136.554	-0.050	-0.064
-131.341	-200.000	-0.016	-0.187
-130.326	-200.000	-0.006	0.284
-129.312	184.974	0.121	0.179
-128.297	738.327	-0.026	-0.068
-127.283	122.731	0.059	-0.073
-126.268	-92.101	-0.107	-0.030
-125.253	386.333	-0.014	-0.029
-124.239	-181.716	-0.120	-0.002
-123.224	-200.000	-0.042	-0.263
-122.210	-9.522	0.211	0.140
-121.195	-1.888	-0.238	-0.166
-120.180	579.453	-0.019	0.045
-119.166	363.370	-0.064	0.128
-118.151	-102.912	0.088	0.021
-117.137	608.333	-0.097	0.241
-116.122	800.000	0.050	-0.177
-115.107	-181.306	-0.256	-0.005
-114.093	-200.000	0.046	0.201
-113.078	194.939	-0.158	0.239
-112.064	60.357	-0.281	0.276
-111.049	-104.225	-0.085	-0.020
-110.034	740.463	0.063	0.169
-109.020	-12.366	-0.057	-0.037
-108.005	358.624	0.060	0.118
-106.991	-4.866	0.065	-0.044
-105.976	626.674	0.024	-0.059
-104.962	64.736	-0.208	-0.208
-103.947	-127.282	0.270	0.039
-102.932	165.568	-0.136	0.191
-101.918	800.000	0.067	-0.257
-100.903	-75.965	0.540	0.190
-99.889	-3.770	0.333	-0.229
-98.874	141.193	-0.219	-0.288
-97.859	-185.530	0.339	-0.005
-96.845	-126.041	0.404	0.060
-95.830	-87.889	0.296	0.088
-94.816	-114.916	0.211	0.040
-93.801	-43.388	-0.230	-0.115
-92.786	-200.000	-0.010	-0.248
-91.772	-33.924	0.152	0.083
-90.757	-38.348	-0.076	0.040
-89.743	-149.834	0.194	-0.015
-88.728	310.644	-0.036	-0.066
-87.713	20.148	-0.055	0.044
-86.699	-129.950	0.306	0.042
-85.684	441.702	-0.148	-0.322
-84.670	-84.676	-0.399	0.125
-83.655	139.349	-0.157	0.204
-82.640	125.204	0.215	-0.269
-81.626	31.375	0.101	-0.086
-80.611	-200.000	-0.000	-0.019
-79.597	548.308	-0.054	-0.127
-78.582	56.559	-0.043	0.042
-77.567	800.000	0.065	0.208
-76.553	386.834	-0.101	0.207
-75.538	253.049	-0.151	0.256
-74.524	408.388	0.160	-0.335
-73.509	-44.534	0.109	0.054
-72.494	-94.374	-0.060	0.016
-71.480	-140.278	0.116	0.012
-70.465	45.964	0.129	-0.118
-69.451	-91.564	-0.181	0.051
-68.436	-104.298	-0.374	-0.086
-67.422	38.101	-0.232	0.205
-66.407	-45.489	0.339	0.166
-65.392	-71.528	0.182	0.067
-64.378	161.927	0.041	0.057
-63.363	44.576	0.218	0.198
-62.349	346.123	0.081	0.158
-61.334	193.087	-0.572	-0.857
-60.319	433.390	0.279	0.600
-59.305	626.401	-0.423	-1.059
-58.290	142.289	0.662	0.871
-57.276	582.343	0.719	1.748
-56.261	-200.000	93.608	550.054
-55.246	531.039	1376.285	3224.171
-54.232	150.676	2591.770	3489.728
-53.217	113.666	2187.212	2632.805
-52.203	46.488	1639.455	1507.021
-51.188	38.438	1374.314	1213.583
-50.173	35.061	1331.516	1155.409
-49.159	55.817	1380.159	1325.615
-48.144	59.979	1398.320	1368.556
-47.130	38.758	1352.513	1196.097
-46.115	34.982	1334.986	1157.755
-45.100	34.946	1330.179	1153.327
-44.086	34.813	1327.535	1150.187
-43.071	34.732	1325.467	1147.859
-42.057	34.613	1323.547	1145.442
-41.042	34.663	1321.543	1143.957
-40.027	34.668	1320.090	1142.687
-39.013	34.728	1318.194	1141.356
-37.998	34.806	1315.703	1139.620
-36.984	34.797	1314.600	1138.565
-35.969	34.840	1312.672	1137.107
-34.954	35.054	1310.859	1136.765
-33.940	34.916	1309.204	1134.463
-32.925	34.897	1308.045	1133.302
-31.911	34.925	1306.939	1132.464
-30.896	34.969	1305.761	1131.657
-29.881	34.996	1303.530	1129.841
-28.867	35.020	1302.356	1128.920
-27.852	34.946	1301.001	1127.265
-26.838	35.001	1299.656	1126.377
-25.823	35.022	1298.114	1125.121
-24.809	34.977	1296.643	1123.539
-23.794	34.945	1295.715	1122.499
-22.779	34.914	1294.425	1121.156
-21.765	34.794	1293.459	1119.571
-20.750	34.866	1292.259	1118.908
-19.736	34.884	1290.597	1117.531
-18.721	34.854	1289.315	1116.202
-17.706	34.778	1288.021	1114.592
-16.692	34.812	1286.258	1113.221
-15.677	34.876	1285.365	1112.776
-14.663	34.776	1284.451	1111.360
-13.648	34.675	1283.352	1109.779
-12.633	34.718	1282.830	1109.534
-11.619	34.746	1281.711	1108.686
-10.604	34.768	1280.490	1107.714
-9.590	34.798	1279.553	1107.031
-8.575	34.678	1278.897	1105.724
-7.560	34.705	1278.125	1105.167
-6.546	34.763	1276.930	1104.429
-5.531	34.674	1276.367	1103.383
-4.517	34.797	1275.132	1102.980
-3.502	34.847	1274.837	1102.973
-2.487	34.818	1273.194	1101.341
-1.473	34.867	1269.459	1098.343
-0.458	33.903	1255.178	1080.464
0.556	30.977	1238.250	1046.339
1.571	27.649	1243.429	1031.829
2.586	26.821	1258.903	1039.828
3.600	25.521	1246.500	1022.109
4.615	18.082	1170.171	919.569
5.629	6.998	1089.498	800.287
6.644	2.162	1067.986	760.388
7.659	1.755	1065.182	756.303
8.673	1.626	1064.041	754.787
9.688	1.568	1062.532	753.363
10.702	1.810	1061.192	753.541
11.717	8.215	1070.882	792.241
12.731	18.984	1086.491	857.707
13.746	24.489	1092.327	889.757
14.761	25.070	1093.203	893.287
15.775	25.099	1092.922	893.121
16.790	24.923	1092.142	891.531
17.804	24.805	1091.556	890.385
18.819	24.881	1091.109	890.320
19.834	25.015	1090.613	890.503
20.848	25.035	1090.565	890.483
21.863	25.094	1089.850	890.117
22.877	24.999	1089.188	889.023
23.892	25.008	1088.041	888.056
24.907	25.134	1087.320	888.009
25.921	25.112	1086.149	886.869
26.936	25.021	1085.195	885.558
27.950	24.959	1083.544	883.827
28.965	24.862	1081.758	881.815
29.980	24.894	1080.493	880.862
30.994	25.131	1079.191	880.891
32.009	25.082	1078.186	879.749
33.023	24.889	1077.046	877.795
34.038	25.036	1076.645	878.113
35.053	25.161	1075.922	878.055
36.067	25.158	1074.659	876.933
37.082	25.131	1074.521	876.612
38.096	25.277	1073.794	876.655
39.111	25.206	1073.270	875.802
40.126	25.224	1071.544	874.404
41.140	24.794	1069.619	870.662
42.155	24.690	1068.385	869.074
43.169	24.770	1067.370	868.564
44.184	24.692	1066.603	867.482
45.199	24.620	1065.466	866.131
46.213	24.710	1064.879	866.013
47.228	24.933	1064.305	866.549
48.242	24.913	1063.325	865.579
49.257	24.910	1062.757	865.028
50.271	24.998	1062.337	865.033
51.286	25.165	1061.169	864.810
52.301	25.121	1060.112	863.659
53.315	25.062	1059.002	862.394
54.330	25.111	1058.319	861.997
55.344	25.065	1057.489	861.024
56.359	24.955	1056.491	859.611
57.374	24.752	1055.548	857.793
58.388	24.817	1054.755	857.385
59.403	24.719	1054.006	856.229
60.417	24.655	1053.068	855.086
61.432	24.701	1052.439	854.718
62.447	24.858	1052.036	855.068
63.461	24.808	1051.370	854.212
64.476	24.732	1050.030	852.682
65.490	24.571	1049.253	851.210
66.505	24.733	1048.882	851.605
67.520	24.755	1047.857	850.804
68.534	24.632	1046.595	849.117
69.549	24.282	1045.609	846.580
70.563	24.268	1044.951	845.908
71.578	24.244	1044.321	845.211
72.593	24.181	1043.078	843.830
73.607	24.183	1042.608	843.387
74.622	24.638	1041.962	844.941
75.636	24.517	1041.727	844.102
76.651	24.468	1040.324	842.660
77.666	24.319	1039.414	841.146
78.680	24.457	1038.892	841.298
79.695	24.560	1038.418	841.325
80.709	24.491	1038.039	840.620
81.724	24.630	1036.895	840.272
82.739	24.687	1036.158	839.868
83.753	25.054	1035.507	840.990
84.768	25.308	1035.091	841.767
85.782	25.314	1034.505	841.244
86.797	25.301	1033.354	840.175
87.812	25.089	1031.759	837.811
88.826	25.194	1031.431	837.961
89.841	25.244	1030.892	837.681
90.855	25.207	1029.786	836.535
91.870	25.210	1028.747	835.635
92.884	25.135	1027.702	834.363
93.899	25.146	1026.546	833.400
94.914	25.159	1026.023	832.963
95.928	25.029	1024.355	830.932
96.943	24.857	1023.642	829.485
97.957	24.577	1022.171	826.922
98.972	24.502	1021.220	825.730
99.987	24.841	1020.510	826.650
101.001	24.953	1019.868	826.575
102.016	24.978	1019.015	825.924
103.030	24.930	1017.930	824.751
104.045	24.804	1017.029	823.370
105.060	24.628	1016.393	821.973
106.074	24.716	1015.803	821.829
107.089	25.194	1014.704	823.059
108.103	24.953	1013.733	821.094
109.118	24.645	1012.649	818.734
110.133	24.796	1011.578	818.488
111.147	24.517	1010.419	816.201
112.162	24.368	1009.889	815.018
113.176	24.733	1008.991	815.886
114.191	24.690	1008.428	815.165
115.206	24.385	1007.034	812.577
116.220	24.265	1006.211	811.292
117.235	24.401	1005.639	811.378
118.249	24.383	1005.231	810.897
119.264	24.352	1004.341	809.966
120.279	24.406	1003.407	809.385
121.293	24.318	1002.756	808.389
122.308	24.500	1001.620	808.228
123.322	24.360	1000.201	806.377
124.337	24.336	998.789	805.058
125.352	23.715	997.754	801.354
126.366	23.747	996.566	800.474
127.381	24.531	996.462	803.849
128.395	24.893	996.489	805.429
129.410	24.949	995.531	804.835
130.424	25.009	994.277	804.018
131.439	24.956	993.732	803.270
132.454	24.871	993.057	802.273
133.468	24.878	991.782	801.202
134.483	25.014	991.194	801.265
135.497	25.256	990.558	801.762
136.512	25.204	989.776	800.825
137.527	25.315	988.499	800.217
138.541	25.176	988.391	799.440
139.556	25.192	987.481	798.703
140.570	25.330	986.847	798.735
141.585	25.317	985.794	797.751
142.600	25.282	984.508	796.486
143.614	25.402	984.102	796.618
144.629	25.439	983.193	795.975
145.643	25.238	982.082	794.118
146.658	25.219	980.381	792.588
147.673	25.184	979.560	791.700
148.687	25.088	978.598	790.428
149.702	24.916	977.719	788.889
150.716	25.040	976.539	788.416
151.731	25.177	975.772	788.326
152.746	25.332	975.480	788.704
153.760	25.308	974.776	787.958
154.775	25.533	974.267	788.463
155.789	25.378	973.437	787.044
156.804	25.487	972.308	786.539
157.819	25.401	971.490	785.432
158.833	25.519	971.154	785.606
159.848	25.594	970.063	784.979
160.862	25.453	968.779	783.258
161.877	25.404	967.952	782.306
162.892	25.468	967.128	781.848
163.906	25.316	965.728	779.987
164.921	25.305	964.666	779.013
165.935	25.343	963.963	778.542
166.950	25.376	962.991	777.829
167.964	25.278	962.880	777.248
168.979	25.070	961.382	775.071
169.994	25.092	960.697	774.545
171.008	25.552	959.704	775.663
172.023	25.320	959.443	774.383
173.037	25.166	957.992	772.477
174.052	25.105	956.804	771.190
175.067	25.232	956.236	771.210
176.081	25.319	955.782	771.149
177.096	25.048	955.539	769.719
178.110	24.773	954.512	767.644
179.125	24.746	953.405	766.571
180.140	24.744	953.066	766.225
181.154	24.880	953.106	766.770
182.169	25.149	952.785	767.593
183.183	25.503	951.818	768.263
184.198	25.334	951.097	766.890
185.213	25.380	950.178	766.277
186.227	25.382	950.093	766.151
187.242	25.418	949.263	765.563
188.256	25.507	948.481	765.246
189.271	25.432	948.069	764.525
190.286	25.026	946.897	761.790
191.300	24.589	944.821	758.197
192.315	23.851	943.365	753.834
193.329	23.631	943.221	752.719
194.344	24.644	943.724	757.347
195.359	25.148	943.476	759.218
196.373	25.280	943.087	759.393
197.388	25.185	942.479	758.436
198.402	25.207	942.057	758.124
199.417	25.309	941.378	757.940
200.432	25.105	939.680	755.648
201.446	24.871	939.410	754.376
202.461	25.011	938.708	754.333
203.475	24.096	937.041	749.084
204.490	23.339	935.452	744.565
205.504	24.251	936.004	748.773
206.519	24.841	935.996	751.174
207.534	24.837	935.946	751.052
208.548	25.343	935.858	753.039
209.563	25.101	934.770	751.083
210.577	25.154	934.135	750.728
211.592	25.491	933.645	751.676
212.607	25.428	932.976	750.808
213.621	25.409	932.555	750.325
214.636	25.444	931.695	749.712
215.650	25.305	930.930	748.450
216.665	25.425	930.216	748.310
217.680	25.546	929.336	748.039
218.694	24.996	928.391	744.927
219.709	24.890	927.504	743.706
220.723	25.294	927.144	745.032
221.738	25.357	926.398	744.628
222.753	25.267	926.139	743.982
223.767	25.372	925.861	744.124
224.782	25.557	925.387	744.444
225.796	25.518	924.710	743.674
226.811	24.955	923.145	740.021
227.826	24.362	921.931	736.535
228.840	24.536	921.649	736.963
229.855	24.417	920.824	735.750
230.869	24.111	919.950	733.724
231.884	24.508	919.799	735.176
232.899	25.242	919.847	738.169
233.913	25.168	919.242	737.313
234.928	25.150	918.584	736.645
235.942	25.189	917.858	736.160
236.957	24.760	916.837	733.517
237.972	24.885	916.150	733.413
238.986	24.863	916.270	733.354
240.001	24.864	915.185	732.427
241.015	24.991	914.808	732.577
242.030	25.161	914.418	732.895
243.045	25.203	913.968	732.642
244.059	25.391	913.829	733.232
245.074	25.164	912.470	731.153
246.088	25.022	911.682	729.878
247.103	25.212	911.020	730.058
248.117	25.836	911.065	732.568
249.132	25.948	911.103	732.986
250.147	25.979	910.670	732.702
251.161	26.259	910.236	733.423
252.176	26.066	909.650	732.104
253.190	26.235	908.688	731.948
254.205	26.329	908.331	731.977
255.220	26.249	907.436	730.867
256.234	26.156	906.993	730.072
257.249	26.025	906.273	728.898
258.263	26.076	905.586	728.485
259.278	26.153	904.648	727.977
260.293	26.273	904.347	728.152
261.307	26.131	903.615	726.929
262.322	25.943	902.749	725.412
263.336	25.206	900.722	720.758
264.351	24.209	898.787	715.148
265.366	24.269	898.396	715.012
266.380	25.360	899.153	719.927
267.395	25.796	898.999	721.489
268.409	25.750	898.269	720.657
269.424	25.945	897.760	720.962
270.439	26.009	896.878	720.445
271.453	25.982	896.697	720.129
272.468	26.119	896.492	720.449
273.482	26.361	895.874	720.855
274.497	25.756	894.727	717.455
275.512	25.456	893.833	715.480
276.526	25.877	893.711	716.998
277.541	26.071	893.464	717.508
278.555	25.664	893.079	715.515
279.570	25.644	892.088	714.578
280.585	25.923	891.269	714.966
281.599	25.822	890.335	713.755
282.614	25.123	889.224	710.035
283.628	25.174	888.860	709.881
284.643	25.479	888.799	710.977
285.657	25.190	887.338	708.605
286.672	24.775	886.867	706.526
287.687	25.531	886.741	709.346
288.701	25.615	885.849	708.904
289.716	25.201	885.302	706.769
290.730	25.116	884.417	705.666
291.745	24.957	883.313	704.100
292.760	25.236	883.336	705.152
293.774	26.396	883.681	709.921
294.789	26.576	883.099	710.098
295.803	26.415	883.134	709.432
296.818	26.445	882.496	708.974
297.833	26.130	881.053	706.518
298.847	25.955	880.374	705.229
299.862	26.241	880.045	706.018
300.876	26.585	879.891	707.177
301.891	26.422	879.249	705.963
302.906	25.887	878.320	703.067
303.920	26.234	877.887	704.010
304.935	26.781	877.360	705.658
305.949	26.448	877.272	704.225
306.964	26.210	876.250	702.419
307.979	26.259	876.249	702.544
308.993	26.571	875.784	703.324
310.008	26.658	875.081	703.036
311.022	26.458	873.851	701.209
312.037	26.184	873.172	699.542
313.052	25.944	872.534	698.038
314.066	24.940	870.843	692.741
315.081	24.837	870.118	691.704
316.095	25.665	870.510	695.158
317.110	26.176	870.145	696.776
318.125	25.332	868.893	692.458
319.139	24.186	867.291	686.707
320.154	24.215	867.011	686.534
321.168	25.158	867.281	690.321
322.183	25.726	867.806	692.864
323.197	25.883	867.492	693.156
324.212	26.095	866.807	693.363
325.227	26.161	866.033	692.935
326.241	26.002	865.406	691.764
327.256	26.032	864.767	691.306
328.270	25.968	864.073	690.443
329.285	25.572	863.488	688.398
330.300	25.510	862.495	687.309
331.314	25.784	862.172	688.039
332.329	26.334	861.870	689.836
333.343	26.301	861.858	689.641
334.358	26.279	861.528	689.231
335.373	26.341	861.183	689.131
336.387	26.672	860.778	690.005
337.402	26.804	860.437	690.175
338.416	26.776	860.041	689.690
339.431	26.792	860.184	689.804
340.446	27.002	859.567	690.048
341.460	26.848	859.015	688.959
342.475	26.667	858.530	687.822
343.489	26.812	858.102	687.966
344.504	26.997	858.299	688.764
345.519	27.157	857.750	688.870
346.533	27.266	856.906	688.546
347.548	27.265	856.618	688.249
348.562	27.131	856.165	687.317
349.577	27.071	855.461	686.463
350.592	27.087	854.638	685.803
351.606	26.954	854.106	684.814
352.621	27.073	852.824	684.173
353.635	26.836	852.412	682.890
354.650	26.212	850.751	679.153
355.665	25.261	849.401	674.445
356.679	25.752	848.961	675.878
357.694	26.244	848.536	677.327
358.708	26.083	848.157	676.361
359.723	26.521	847.989	677.808
360.738	26.873	847.794	678.907
361.752	26.808	847.471	678.346
362.767	27.145	847.054	679.214
363.781	27.472	846.730	680.112
364.796	27.535	846.291	679.936
365.810	27.579	845.703	679.566
366.825	27.651	845.072	679.269
367.840	27.287	844.588	677.463
368.854	26.840	843.530	674.893
369.869	26.833	843.004	674.387
370.883	26.868	842.719	674.228
371.898	26.817	842.262	673.612
372.913	26.905	842.140	673.784
373.927	26.983	841.455	673.465
374.942	27.204	841.155	673.985
375.956	27.383	840.603	674.144
376.971	27.433	840.512	674.197
377.986	27.492	840.103	674.030
379.000	27.618	839.169	673.686
380.015	27.181	838.772	671.693
381.029	27.292	838.110	671.514
382.044	27.487	837.470	671.660
383.059	27.524	837.174	671.497
384.073	27.693	836.551	671.562
385.088	27.580	835.717	670.420
386.102	27.319	834.999	668.822
387.117	27.203	834.392	667.852
388.132	26.731	833.236	665.136
389.146	26.310	832.517	662.961
390.161	26.674	832.679	664.365
391.175	27.135	832.008	665.459
392.190	26.987	830.939	664.002
393.205	25.456	828.926	656.747
394.219	23.959	827.040	649.731
395.234	23.910	826.546	649.106
396.248	25.625	828.386	656.761
397.263	26.960	829.364	662.353
398.278	26.888	829.062	661.791
399.292	26.592	828.494	660.201
400.307	26.706	827.519	659.778
401.321	26.803	827.632	660.166
402.336	27.041	827.259	660.675
403.350	27.726	826.630	662.603
404.365	28.080	826.766	663.941
405.380	28.119	826.658	663.934
406.394	28.120	826.214	663.525
407.409	28.113	825.485	662.853
408.423	28.146	825.103	662.606
409.438	28.218	825.087	662.796
410.453	28.235	824.052	661.967
411.467	28.034	823.858	661.027
412.482	28.209	823.145	661.031
413.496	28.234	823.067	661.000
414.511	28.116	823.211	660.628
415.526	28.273	822.013	660.177
416.540	28.107	821.057	658.751
417.555	27.885	820.705	657.611
418.569	27.904	820.519	657.473
419.584	27.911	819.742	656.815
420.599	27.706	819.249	655.627
421.613	105.657	1283.150	1441.720
422.628	91.414	1350.740	1441.821
