DTS Sentinel unit serial number:	SN413079Multiplexer serial number:	ORYXHardware model number:	OX4-SRSoftware version number:	ORYX F/W v4.00 Oryx Data Collector v3.7.2.0data status	okinstallation	princeton_trtdifferential loss correction	single-endedforward channel	channel 1reverse channel	N/Adate	2019/09/19time	15:14:35forward acquisition time	60.00reverse acquisition time	0.00gamma	496.2192k internal	0.2315k external	0.2315temperature offset calibration	1.0019default loss term (dB/km)	0.3790temperature slope calibration	1.0000multiplexer offset coefficient	1.0000multiplexer slope coefficient	1.0000fibre end	0.00T internal ref (°C)	33.56T ext. ref 1 (°C)	1.14T ext. ref 2 (°C)	30.52length (m)	temperature (°C)	Stokes	anti-Stokes-747.200	-6.850	-0.074	-0.051
-746.185	800.000	0.143	0.403
-745.171	243.351	-0.123	0.210
-744.156	79.727	-0.186	0.202
-743.142	-200.000	0.002	0.021
-742.127	787.656	0.151	0.419
-741.112	-65.481	-0.044	-0.018
-740.098	-74.767	-0.219	0.080
-739.083	-77.233	0.092	0.033
-738.069	15.424	-0.108	-0.086
-737.054	-175.170	0.284	0.008
-736.039	13.564	-0.307	-0.241
-735.025	-7.790	-0.160	0.109
-734.010	-105.794	0.126	-0.029
-732.996	75.283	-0.073	0.077
-731.981	479.939	0.017	0.039
-730.966	800.000	0.086	-0.251
-729.952	-86.139	0.201	0.063
-728.937	800.000	-0.062	-0.212
-727.923	-200.000	0.024	0.114
-726.908	-108.165	0.204	0.045
-725.894	30.856	0.069	-0.060
-724.879	282.070	-0.079	0.144
-723.864	387.203	0.061	0.127
-722.850	-200.000	0.027	-0.256
-721.835	-200.000	-0.028	0.250
-720.821	-200.000	0.012	0.253
-719.806	-200.000	0.035	0.196
-718.791	800.000	0.123	-0.448
-717.777	125.618	-0.135	-0.173
-716.762	-153.148	0.066	-0.005
-715.748	-147.401	-0.067	-0.006
-714.733	135.009	0.076	-0.100
-713.718	800.000	0.039	0.112
-712.704	-200.000	-0.008	-0.125
-711.689	-117.293	-0.123	0.023
-710.675	217.257	0.062	-0.100
-709.660	111.498	-0.041	0.050
-708.645	26.206	0.082	-0.069
-707.631	-184.797	0.332	0.005
-706.616	42.907	0.053	-0.048
-705.602	-66.235	0.387	-0.156
-704.587	-135.052	-0.466	0.057
-703.572	131.832	-0.046	0.059
-702.558	-96.542	-0.208	0.056
-701.543	-200.000	0.011	0.060
-700.529	-22.230	0.217	0.133
-699.514	-49.265	0.325	-0.157
-698.499	445.454	0.177	-0.393
-697.485	-69.766	-0.160	-0.062
-696.470	-133.583	-0.136	0.017
-695.456	800.000	0.098	-0.284
-694.441	-87.212	-0.310	-0.095
-693.426	46.460	-0.145	-0.136
-692.412	643.420	0.083	-0.213
-691.397	654.379	-0.045	0.117
-690.383	762.121	0.068	-0.188
-689.368	-200.000	-0.036	-0.258
-688.354	473.992	-0.176	-0.402
-687.339	407.347	-0.152	-0.325
-686.324	-36.263	-0.123	-0.067
-685.310	-200.000	0.003	-0.188
-684.295	-67.196	-0.043	-0.017
-683.281	-200.000	0.016	-0.106
-682.266	160.423	-0.310	0.437
-681.251	72.409	0.026	-0.027
-680.237	-81.619	-0.311	-0.103
-679.222	-52.611	0.498	0.233
-678.208	54.694	-0.201	-0.196
-677.193	612.206	0.169	-0.427
-676.178	217.940	0.038	0.062
-675.164	129.136	-0.100	0.129
-674.149	84.730	0.150	-0.166
-673.135	-70.508	0.315	-0.120
-672.120	-117.406	-0.487	-0.089
-671.105	32.707	-0.106	-0.092
-670.091	45.215	-0.306	0.285
-669.076	9.703	-0.243	-0.187
-668.062	800.000	-0.043	-0.159
-667.047	800.000	-0.074	-0.257
-666.032	-38.715	0.056	-0.030
-665.018	-122.435	-0.130	0.021
-664.003	-106.006	-0.051	-0.011
-662.989	-10.036	0.218	0.146
-661.974	1.735	-0.182	0.132
-660.959	-200.000	-0.006	-0.138
-659.945	-166.786	0.319	0.013
-658.930	269.159	-0.033	0.058
-657.916	-55.847	-0.153	-0.069
-656.901	-33.479	-0.121	-0.067
-655.886	-74.457	0.140	-0.051
-654.872	800.000	-0.057	-0.172
-653.857	-77.558	0.176	-0.062
-652.843	59.417	0.079	-0.078
-651.828	310.753	0.168	0.318
-650.814	-39.072	-0.037	0.020
-649.799	-25.607	-0.392	0.234
-648.784	96.087	0.085	-0.098
-647.770	21.651	0.125	0.103
-646.755	-25.779	0.053	-0.032
-645.741	-44.670	0.098	0.050
-644.726	-200.000	0.025	-0.217
-643.711	800.000	-0.068	0.223
-642.697	17.786	-0.146	0.117
-641.682	30.204	0.180	0.155
-640.668	722.452	-0.163	0.439
-639.653	-200.000	-0.044	-0.233
-638.638	75.401	-0.298	-0.317
-637.624	-22.684	-0.052	-0.032
-636.609	70.406	0.163	-0.170
-635.595	-62.700	-0.328	0.137
-634.580	-50.424	-0.257	0.122
-633.565	105.996	0.262	-0.313
-632.551	-200.000	-0.008	-0.091
-631.536	800.000	-0.047	-0.199
-630.522	265.989	0.154	-0.271
-629.507	-114.170	0.265	-0.052
-628.492	518.701	-0.104	-0.245
-627.478	-200.000	-0.019	0.117
-626.463	-200.000	-0.002	0.098
-625.449	-157.566	-0.340	-0.021
-624.434	82.490	0.074	0.081
-623.419	-119.345	0.270	0.047
-622.405	644.986	-0.095	0.244
-621.390	162.925	0.079	-0.111
-620.376	-38.001	0.245	-0.131
-619.361	-13.880	-0.118	0.077
-618.346	-96.519	0.317	-0.084
-617.332	-200.000	-0.010	-0.192
-616.317	-200.000	0.003	-0.128
-615.303	18.971	0.309	-0.250
-614.288	153.041	0.116	0.160
-613.273	-200.000	0.028	0.362
-612.259	-127.086	-0.340	0.050
-611.244	-180.264	-0.208	0.004
-610.230	-200.000	0.061	-0.352
-609.215	800.000	0.148	-0.453
-608.201	-93.822	0.311	-0.086
-607.186	325.177	0.147	-0.284
-606.171	800.000	-0.071	-0.293
-605.157	-78.733	-0.239	0.082
-604.142	-42.305	0.331	-0.170
-603.128	800.000	0.042	0.135
-602.113	435.974	0.130	0.286
-601.098	-72.050	0.183	-0.069
-600.084	-27.167	-0.241	-0.142
-599.069	53.904	-0.056	-0.054
-598.055	-72.560	-0.080	-0.030
-597.040	271.752	0.137	-0.243
-596.025	24.607	0.189	-0.158
-595.011	403.899	0.072	0.153
-593.996	57.041	-0.205	-0.202
-592.982	-200.000	-0.004	0.174
-591.967	-200.000	0.010	0.196
-590.952	65.202	-0.028	0.028
-589.938	77.703	-0.235	-0.252
-588.923	-200.000	-0.016	0.186
-587.909	269.811	0.065	-0.114
-586.894	-200.000	0.046	-0.230
-585.879	-152.359	-0.170	0.012
-584.865	711.677	-0.122	0.324
-583.850	-0.500	-0.230	0.164
-582.836	762.159	-0.150	-0.410
-581.821	-138.698	0.063	-0.007
-580.806	-120.342	0.102	0.017
-579.792	115.368	-0.271	-0.333
-578.777	-64.652	-0.300	-0.123
-577.763	76.521	0.383	0.408
-576.748	191.377	-0.101	0.153
-575.733	-73.754	-0.336	0.123
-574.719	-145.800	-0.281	0.025
-573.704	-3.763	-0.172	0.121
-572.690	-200.000	0.007	0.091
-571.675	-200.000	-0.024	-0.369
-570.661	-200.000	0.015	-0.197
-569.646	561.794	0.143	-0.349
-568.631	-101.769	0.217	-0.053
-567.617	456.757	0.021	0.047
-566.602	-81.503	0.258	-0.085
-565.588	117.058	0.208	0.257
-564.573	360.683	-0.057	-0.114
-563.558	183.533	-0.146	0.217
-562.544	-140.538	-0.197	0.021
-561.529	226.837	0.090	-0.147
-560.515	-92.510	0.352	-0.099
-559.500	552.799	-0.090	-0.217
-558.485	44.685	0.042	0.039
-557.471	-36.642	-0.083	-0.045
-556.456	-200.000	-0.064	-0.392
-555.442	-17.895	-0.198	0.125
-554.427	800.000	0.047	-0.159
-553.412	-43.472	-0.116	0.059
-552.398	19.591	0.146	0.118
-551.383	-200.000	-0.042	-0.335
-550.369	-200.000	0.046	-0.236
-549.354	-143.682	0.216	-0.021
-548.339	-82.621	-0.194	0.063
-547.325	-28.797	-0.268	-0.155
-546.310	800.000	0.154	-0.585
-545.296	-7.503	-0.161	-0.110
-544.281	243.494	-0.106	-0.179
-543.266	211.880	-0.062	-0.099
-542.252	56.554	0.098	-0.096
-541.237	800.000	-0.018	-0.062
-540.223	30.795	-0.238	-0.205
-539.208	57.406	0.135	-0.133
-538.193	4.013	0.228	0.167
-537.179	259.890	0.098	-0.169
-536.164	-182.121	0.270	-0.005
-535.150	800.000	0.013	0.047
-534.135	-200.000	-0.011	0.081
-533.121	127.602	-0.066	0.085
-532.106	-152.996	0.248	-0.018
-531.091	-119.813	-0.401	0.069
-530.077	160.384	0.051	-0.072
-529.062	-130.172	-0.284	0.039
-528.048	800.000	-0.086	0.298
-527.033	-200.000	0.027	0.400
-526.018	19.760	-0.369	-0.298
-525.004	299.716	-0.115	-0.213
-523.989	-39.451	-0.096	-0.051
-522.975	-181.070	0.280	-0.006
-521.960	207.030	0.112	0.175
-520.945	135.318	0.099	0.130
-519.931	-43.785	0.075	-0.038
-518.916	45.975	-0.202	-0.187
-517.902	-5.075	0.029	-0.020
-516.887	19.896	-0.154	-0.125
-515.872	13.081	0.225	0.175
-514.858	-126.309	0.579	0.087
-513.843	4.988	0.160	-0.118
-512.829	93.131	-0.064	0.073
-511.814	-16.259	-0.129	0.082
-510.799	-143.160	-0.218	-0.021
-509.785	452.243	0.043	-0.096
-508.770	-200.000	-0.029	-0.200
-507.756	251.274	-0.065	-0.110
-506.741	50.905	-0.258	-0.246
-505.726	95.501	0.168	0.192
-504.712	-200.000	-0.015	0.132
-503.697	90.820	-0.076	0.086
-502.683	24.581	0.074	0.062
-501.668	50.259	0.361	-0.342
-500.653	-141.521	-0.062	0.006
-499.639	-65.623	0.088	0.035
-498.624	112.872	-0.147	0.179
-497.610	-138.878	-0.134	0.015
-496.595	-200.000	-0.012	-0.275
-495.581	-136.840	-0.267	0.031
-494.566	-188.076	-0.300	0.004
-493.551	58.561	0.144	-0.142
-492.537	-200.000	0.018	0.120
-491.522	436.536	0.120	-0.262
-490.508	-200.000	0.069	0.306
-489.493	-63.182	-0.335	-0.139
-488.478	40.855	-0.271	-0.245
-487.464	121.830	0.152	0.190
-486.449	-200.000	-0.033	-0.176
-485.435	-200.000	-0.058	0.332
-484.420	112.961	0.110	-0.133
-483.405	-165.428	-0.209	0.009
-482.391	43.046	0.032	-0.030
-481.376	-128.006	-0.064	0.009
-480.362	-200.000	-0.005	-0.272
-479.347	135.200	-0.097	0.126
-478.332	20.239	-0.203	0.165
-477.318	4.380	-0.326	0.240
-476.303	1.346	0.345	0.249
-475.289	-154.164	0.155	0.010
-474.274	-85.752	0.112	0.035
-473.259	65.338	-0.188	-0.191
-472.245	-47.636	-0.047	0.023
-471.230	-110.040	-0.198	-0.041
-470.216	7.724	0.198	-0.149
-469.201	-148.674	0.317	-0.026
-468.186	-7.265	0.115	0.078
-467.172	-200.000	0.006	0.298
-466.157	-101.600	0.392	-0.095
-465.143	-115.619	-0.262	0.049
-464.128	-45.884	-0.365	-0.181
-463.113	172.622	0.088	0.128
-462.099	14.304	0.270	0.211
-461.084	310.033	-0.080	0.149
-460.070	800.000	-0.115	0.408
-459.055	10.129	0.324	-0.247
-458.040	77.754	-0.166	-0.177
-457.026	31.115	-0.080	-0.069
-456.011	-194.881	0.191	-0.001
-454.997	41.395	-0.178	-0.161
-453.982	-179.245	0.240	-0.005
-452.968	-200.000	-0.033	-0.255
-451.953	800.000	0.120	0.337
-450.938	-143.793	-0.236	-0.022
-449.924	-200.000	0.048	0.210
-448.909	-200.000	0.042	0.254
-447.895	297.253	-0.134	0.246
-446.880	-121.979	-0.143	-0.024
-445.865	128.932	-0.121	0.154
-444.851	11.500	0.317	0.243
-443.836	800.000	-0.026	0.108
-442.822	201.152	0.029	-0.045
-441.807	800.000	0.074	-0.255
-440.792	167.872	-0.203	-0.290
-439.778	33.855	-0.041	-0.036
-438.763	202.929	-0.108	-0.168
-437.749	-200.000	-0.026	-0.121
-436.734	153.598	0.021	-0.028
-435.719	7.113	-0.186	-0.139
-434.705	22.705	0.078	0.064
-433.690	-67.976	-0.108	0.042
-432.676	600.378	-0.043	-0.108
-431.661	262.176	0.244	0.424
-430.646	-111.656	-0.482	0.098
-429.632	-69.217	0.036	-0.014
-428.617	328.245	-0.130	-0.249
-427.603	99.965	0.032	0.037
-426.588	66.700	-0.146	-0.149
-425.573	-50.238	-0.208	0.098
-424.559	-134.655	-0.432	-0.053
-423.544	-105.835	0.461	-0.104
-422.530	-83.651	0.163	0.052
-421.515	204.649	-0.280	0.435
-420.500	800.000	-0.063	-0.205
-419.486	-200.000	-0.033	0.190
-418.471	439.444	0.089	0.195
-417.457	-143.093	-0.257	0.025
-416.442	-200.000	0.041	0.237
-415.428	-153.820	-0.117	-0.008
-414.413	-43.427	-0.370	-0.187
-413.398	10.306	-0.094	-0.071
-412.384	615.588	0.128	-0.322
-411.369	-159.781	0.305	-0.017
-410.355	-29.604	-0.110	0.063
-409.340	133.095	0.178	-0.230
-408.325	202.937	-0.043	-0.066
-407.311	4.717	0.411	0.302
-406.296	-132.847	-0.382	-0.049
-405.282	800.000	-0.032	-0.125
-404.267	312.837	-0.066	0.124
-403.252	6.823	0.257	0.192
-402.238	29.531	0.124	0.106
-401.223	800.000	0.028	-0.092
-400.209	74.845	-0.257	0.271
-399.194	-107.066	0.278	0.061
-398.179	209.849	0.078	0.123
-397.165	-200.000	0.005	0.026
-396.150	554.316	-0.129	-0.310
-395.136	-200.000	0.014	-0.163
-394.121	-200.000	0.026	0.120
-393.106	-200.000	-0.014	0.118
-392.092	-173.293	0.212	-0.006
-391.077	-200.000	-0.025	0.310
-390.063	120.290	-0.082	0.102
-389.048	-200.000	0.000	-0.012
-388.033	-106.411	0.244	0.054
-387.019	-200.000	-0.053	-0.377
-386.004	-64.797	0.098	-0.040
-384.990	-200.000	-0.008	0.046
-383.975	144.252	0.147	0.196
-382.960	198.203	-0.257	0.393
-381.946	-80.494	0.247	-0.082
-380.931	232.721	-0.196	0.322
-379.917	-200.000	0.003	0.092
-378.902	-200.000	0.014	-0.086
-377.888	-28.698	-0.250	-0.144
-376.873	-106.562	-0.140	0.031
-375.858	-200.000	-0.033	-0.328
-374.844	-200.000	0.000	0.083
-373.829	-27.069	0.057	-0.033
-372.815	95.782	-0.179	-0.205
-371.800	11.718	-0.196	0.150
-370.785	29.864	-0.154	-0.131
-369.771	-165.649	0.262	-0.011
-368.756	800.000	0.100	-0.281
-367.742	-200.000	-0.022	0.118
-366.727	788.348	0.039	0.106
-365.712	-42.398	-0.197	0.100
-364.698	18.613	0.163	-0.130
-363.683	-200.000	-0.008	0.316
-362.669	362.335	0.075	-0.151
-361.654	-193.258	0.158	-0.001
-360.639	-67.403	-0.395	0.155
-359.625	378.224	-0.198	-0.403
-358.610	-133.177	0.187	0.024
-357.596	577.192	0.060	-0.146
-356.581	800.000	0.071	0.216
-355.566	-4.942	-0.327	0.225
-354.552	-25.608	-0.202	-0.119
-353.537	739.769	-0.039	0.106
-352.523	434.128	0.119	0.258
-351.508	-62.907	0.046	0.019
-350.493	430.939	-0.156	0.337
-349.479	-95.955	0.279	-0.074
-348.464	-140.299	0.431	0.045
-347.450	-118.625	0.124	0.022
-346.435	-200.000	0.014	-0.069
-345.420	498.257	-0.030	0.069
-344.406	-30.881	0.112	-0.063
-343.391	221.685	-0.060	0.096
-342.377	393.886	-0.155	0.323
-341.362	141.833	0.169	-0.223
-340.348	-109.591	0.436	-0.092
-339.333	-89.165	0.300	0.088
-338.318	-200.000	-0.022	-0.150
-337.304	22.082	0.200	-0.163
-336.289	-175.847	-0.050	-0.001
-335.275	800.000	-0.068	0.230
-334.260	800.000	0.035	-0.106
-333.245	18.686	-0.167	-0.133
-332.231	23.391	0.247	-0.202
-331.216	-110.933	0.111	-0.023
-330.202	-19.348	-0.099	0.061
-329.187	2.968	0.105	0.076
-328.172	-200.000	-0.088	-0.483
-327.158	-18.124	-0.075	-0.047
-326.143	-200.000	0.062	0.452
-325.129	59.057	-0.115	-0.113
-324.114	20.912	0.129	0.104
-323.099	-41.391	0.122	-0.063
-322.085	33.671	-0.169	0.146
-321.070	-69.047	-0.335	-0.129
-320.056	684.396	0.054	0.140
-319.041	196.797	-0.212	-0.322
-318.026	257.079	0.181	-0.310
-317.012	306.730	-0.106	0.197
-315.997	145.391	0.190	0.254
-314.983	-184.318	-0.133	0.002
-313.968	92.943	-0.123	-0.139
-312.953	-37.007	0.209	0.111
-311.939	-27.236	0.177	0.103
-310.924	-74.181	-0.332	0.120
-309.910	-134.020	0.211	-0.026
-308.895	-200.000	-0.052	0.291
-307.880	-200.000	0.009	0.127
-306.866	150.995	-0.174	0.236
-305.851	181.088	-0.241	0.352
-304.837	290.236	-0.062	-0.111
-303.822	117.186	0.098	-0.120
-302.807	-200.000	0.638	-0.003
-301.793	-76.449	0.245	0.086
-300.778	-69.608	-0.115	-0.044
-299.764	-90.962	0.182	0.052
-298.749	-43.099	-0.210	-0.106
-297.735	-123.037	0.091	0.015
-296.720	-151.229	-0.308	0.023
-295.705	65.401	-0.147	-0.148
-294.691	-90.682	-0.115	-0.033
-293.676	-200.000	0.020	-0.126
-292.662	800.000	-0.089	0.353
-291.647	-200.000	-0.068	0.302
-290.632	7.453	-0.099	-0.073
-289.618	-1.416	-0.186	-0.131
-288.603	25.107	-0.149	0.123
-287.589	800.000	0.066	-0.273
-286.574	-82.153	0.327	-0.106
-285.559	138.387	-0.182	0.237
-284.545	800.000	-0.109	0.413
-283.530	-40.431	-0.202	-0.104
-282.516	56.773	-0.248	0.241
-281.501	-48.798	-0.302	0.144
-280.486	-100.839	0.464	-0.114
-279.472	-4.183	0.251	-0.173
-278.457	-124.720	0.064	-0.010
-277.443	-75.136	0.281	-0.100
-276.428	120.296	-0.125	-0.155
-275.413	60.695	0.016	0.016
-274.399	-200.000	0.021	0.384
-273.384	-86.237	-0.250	0.077
-272.370	-37.296	0.224	-0.119
-271.355	800.000	-0.027	0.076
-270.340	-52.481	0.155	0.071
-269.326	-39.752	-0.150	-0.078
-268.311	800.000	0.034	-0.123
-267.297	54.730	-0.123	-0.118
-266.282	698.601	0.093	-0.243
-265.267	-200.000	0.016	0.130
-264.253	-106.277	-0.386	-0.086
-263.238	9.480	-0.072	0.054
-262.224	31.188	-0.163	0.139
-261.209	352.420	-0.114	-0.224
-260.195	16.787	-0.040	0.032
-259.180	296.949	0.180	0.328
-258.165	-130.341	-0.254	0.034
-257.151	6.543	-0.110	-0.081
-256.136	581.388	0.059	0.144
-255.122	269.398	-0.109	0.190
-254.107	367.244	0.207	0.415
-253.092	634.741	0.100	0.251
-252.078	-66.372	-0.152	0.060
-251.063	-116.990	-0.245	0.045
-250.049	-55.512	-0.568	-0.253
-249.034	-11.378	0.212	0.139
-248.019	0.401	0.177	-0.126
-247.005	451.950	-0.074	0.163
-245.990	-29.364	0.153	0.087
-244.976	-19.573	0.156	0.096
-243.961	219.590	-0.136	0.216
-242.946	295.990	-0.017	-0.030
-241.932	-1.719	-0.121	-0.084
-240.917	-200.000	0.040	0.194
-239.903	-200.000	-0.043	0.322
-238.888	-19.944	0.074	0.046
-237.873	42.885	-0.264	0.239
-236.859	218.075	-0.072	0.114
-235.844	-200.000	0.027	-0.281
-234.830	76.663	-0.234	-0.246
-233.815	52.755	0.131	-0.124
-232.800	722.181	0.051	-0.134
-231.786	-200.000	0.016	-0.334
-230.771	111.569	-0.167	0.200
-229.757	-142.200	0.132	-0.013
-228.742	-100.088	-0.149	0.037
-227.727	-200.000	0.001	-0.152
-226.713	90.874	-0.218	-0.243
-225.698	693.680	-0.068	0.176
-224.684	-2.568	-0.112	-0.078
-223.669	-100.296	0.153	-0.038
-222.655	-123.620	-0.107	-0.017
-221.640	20.963	0.162	-0.130
-220.625	-200.000	0.027	-0.348
-219.611	800.000	0.043	0.147
-218.596	16.004	0.064	0.050
-217.582	-112.581	0.175	0.035
-216.567	-104.547	0.225	-0.052
-215.552	-200.000	-0.030	0.373
-214.538	-200.000	0.038	0.225
-213.523	64.272	-0.146	0.145
-212.509	-177.047	0.334	0.008
-211.494	15.784	0.100	0.078
-210.479	-13.828	-0.119	0.076
-209.465	-148.751	0.283	0.023
-208.450	-93.991	-0.145	-0.040
-207.436	-71.589	0.514	0.191
-206.421	180.519	0.057	0.083
-205.406	469.781	0.141	-0.314
-204.392	-57.090	-0.119	-0.052
-203.377	-141.893	0.219	-0.022
-202.363	-141.610	0.160	0.016
-201.348	-200.000	-0.006	-0.086
-200.333	-153.103	0.343	-0.024
-199.319	800.000	-0.092	0.298
-198.304	240.812	-0.027	0.045
-197.290	-33.129	0.125	-0.069
-196.275	368.715	-0.096	-0.192
-195.260	-200.000	-0.045	0.317
-194.246	-124.181	0.261	-0.041
-193.231	26.737	-0.095	-0.079
-192.217	-106.355	-0.138	-0.031
-191.202	10.869	0.077	0.058
-190.187	-50.997	0.326	0.152
-189.173	-200.000	-0.017	0.163
-188.158	23.854	0.055	0.045
-187.144	-11.459	0.282	0.184
-186.129	87.385	-0.264	-0.290
-185.114	92.976	0.195	-0.218
-184.100	800.000	-0.047	0.175
-183.085	388.319	0.057	-0.117
-182.071	-108.200	0.308	-0.066
-181.056	-43.113	0.215	-0.108
-180.042	130.125	0.182	-0.231
-179.027	-178.362	-0.306	0.007
-178.012	800.000	-0.063	-0.200
-176.998	-30.426	0.400	0.225
-175.983	-200.000	-0.023	-0.266
-174.969	800.000	-0.027	0.089
-173.954	614.390	-0.027	0.067
-172.939	-39.595	0.102	-0.053
-171.925	479.126	-0.024	0.053
-170.910	29.361	0.138	-0.116
-169.896	-81.837	0.116	-0.038
-168.881	174.706	-0.046	0.066
-167.866	48.471	0.076	-0.070
-166.852	-200.000	-0.006	0.302
-165.837	277.104	0.060	-0.106
-164.823	-200.000	-0.063	-0.401
-163.808	800.000	0.053	0.204
-162.793	167.851	-0.115	0.162
-161.779	-160.791	0.264	0.014
-160.764	146.154	0.203	0.270
-159.750	-17.551	0.206	-0.128
-158.735	800.000	0.034	0.138
-157.720	297.379	-0.029	0.052
-156.706	8.323	0.100	-0.074
-155.691	87.511	0.220	-0.241
-154.677	-18.048	0.184	-0.114
-153.662	-156.386	-0.283	-0.018
-152.647	-70.145	0.130	0.049
-151.633	9.973	-0.465	0.350
-150.618	800.000	-0.129	0.523
-149.604	88.138	-0.124	-0.136
-148.589	-200.000	0.057	-0.345
-147.574	-147.767	-0.342	0.028
-146.560	-200.000	0.047	-0.397
-145.545	143.284	0.111	-0.146
-144.531	-26.446	-0.092	0.053
-143.516	-200.000	-0.034	0.161
-142.502	-200.000	0.016	0.079
-141.487	-42.075	0.155	0.078
-140.472	-64.252	0.079	0.032
-139.458	-200.000	0.020	-0.236
-138.443	-40.164	-0.171	-0.088
-137.429	-94.914	0.307	-0.082
-136.414	795.978	0.137	-0.374
-135.399	59.134	-0.293	0.286
-134.385	-17.253	-0.229	0.143
-133.370	12.833	-0.219	0.167
-132.356	800.000	-0.037	0.131
-131.341	2.759	-0.040	-0.029
-130.326	260.036	0.111	0.190
-129.312	123.444	0.206	0.255
-128.297	12.827	-0.214	0.164
-127.283	47.957	0.056	-0.052
-126.268	408.645	0.031	-0.066
-125.253	-6.190	-0.134	0.091
-124.239	277.774	0.061	0.108
-123.224	-120.251	0.432	0.073
-122.210	30.407	0.092	-0.078
-121.195	12.162	-0.171	0.130
-120.180	270.537	0.047	-0.082
-119.166	563.007	0.118	-0.282
-118.151	87.496	-0.049	-0.054
-117.137	330.677	0.141	0.268
-116.122	-41.089	0.111	-0.057
-115.107	352.188	0.107	-0.209
-114.093	-63.359	-0.089	0.036
-113.078	800.000	0.073	0.286
-112.064	-117.403	-0.095	0.017
-111.049	800.000	0.108	-0.387
-110.034	62.920	0.105	-0.104
-109.020	800.000	0.069	0.269
-108.005	323.567	-0.039	-0.074
-106.991	-71.102	0.069	-0.026
-105.976	223.735	-0.193	0.309
-104.962	490.200	-0.009	-0.021
-103.947	694.072	0.057	0.148
-102.932	-126.596	-0.321	-0.047
-101.918	-133.063	0.431	0.054
-100.903	446.943	-0.067	-0.147
-99.889	-156.896	-0.052	-0.003
-98.874	170.299	0.241	-0.341
-97.859	375.520	-0.253	0.509
-96.845	-83.804	0.190	0.060
-95.830	-142.182	-0.364	-0.036
-94.816	-79.551	0.096	0.032
-93.801	-200.000	0.017	0.351
-92.786	147.538	0.218	-0.290
-91.772	-200.000	-0.037	-0.352
-90.757	160.256	-0.063	-0.086
-89.743	-200.000	-0.020	0.340
-88.728	-104.484	0.157	0.036
-87.713	46.415	-0.074	0.067
-86.699	90.497	-0.126	-0.139
-85.684	410.176	-0.062	-0.129
-84.670	-123.451	-0.285	0.045
-83.655	-200.000	-0.005	-0.146
-82.640	390.542	-0.034	0.069
-81.626	-200.000	-0.016	0.251
-80.611	668.721	0.082	-0.209
-79.597	-84.890	-0.249	0.077
-78.582	-104.733	-0.114	-0.026
-77.567	-200.000	0.008	-0.036
-76.553	416.292	-0.110	-0.233
-75.538	-200.000	-0.019	0.126
-74.524	305.830	-0.097	0.178
-73.509	33.197	-0.154	0.132
-72.494	64.771	0.211	-0.210
-71.480	67.846	-0.162	-0.163
-70.465	-30.271	-0.155	0.087
-69.451	49.919	-0.135	-0.126
-68.436	-71.779	0.243	0.089
-67.422	-152.468	-0.465	0.033
-66.407	30.518	-0.140	-0.118
-65.392	635.344	-0.113	-0.282
-64.378	-200.000	-0.017	0.125
-63.363	126.616	-0.058	0.072
-62.349	-200.000	-0.009	0.067
-61.334	36.819	-1.087	-0.948
-60.319	-2.385	0.449	0.311
-59.305	639.719	-0.249	-0.625
-58.290	388.354	0.473	0.965
-57.276	366.946	0.834	1.661
-56.261	-200.000	96.483	553.956
-55.246	483.986	1440.262	3232.564
-54.232	142.571	2669.389	3497.387
-53.217	109.210	2228.157	2630.449
-52.203	45.131	1663.551	1512.278
-51.188	37.098	1393.171	1216.330
-50.173	33.801	1350.056	1158.563
-49.159	54.964	1397.702	1331.215
-48.144	57.956	1415.675	1366.832
-47.130	37.281	1371.605	1198.436
-46.115	33.709	1354.095	1161.282
-45.100	33.618	1349.057	1156.363
-44.086	33.469	1346.869	1153.532
-43.071	33.440	1344.199	1151.025
-42.057	33.431	1342.189	1149.205
-41.042	33.361	1341.020	1147.728
-40.027	33.498	1339.519	1147.231
-39.013	33.549	1337.209	1145.513
-37.998	33.447	1335.256	1143.178
-36.984	33.557	1333.557	1142.344
-35.969	33.514	1332.185	1140.864
-34.954	33.718	1329.637	1139.864
-33.940	33.440	1329.296	1137.856
-32.925	33.604	1327.561	1137.311
-31.911	33.697	1325.688	1136.215
-30.896	33.730	1323.991	1134.913
-29.881	33.639	1323.166	1133.616
-28.867	33.694	1321.963	1132.869
-27.852	33.723	1320.175	1131.469
-26.838	33.626	1319.043	1129.871
-25.823	33.684	1317.564	1128.906
-24.809	33.682	1316.151	1127.637
-23.794	33.665	1314.640	1126.198
-22.779	33.704	1313.061	1125.034
-21.765	33.666	1311.755	1123.643
-20.750	33.730	1310.501	1122.906
-19.736	33.557	1309.284	1120.797
-18.721	33.407	1308.321	1119.041
-17.706	33.495	1307.324	1118.659
-16.692	33.535	1305.637	1117.409
-15.677	33.498	1304.942	1116.552
-14.663	33.476	1304.019	1115.588
-13.648	33.539	1302.513	1114.629
-12.633	33.547	1301.566	1113.821
-11.619	33.445	1301.113	1112.791
-10.604	33.362	1300.205	1111.480
-9.590	33.516	1298.938	1111.258
-8.575	33.423	1298.157	1110.001
-7.560	33.501	1296.959	1109.387
-6.546	33.545	1295.811	1108.619
-5.531	33.432	1295.383	1107.545
-4.517	33.534	1294.147	1107.041
-3.502	33.545	1293.342	1106.373
-2.487	33.532	1292.411	1105.456
-1.473	33.546	1289.084	1102.649
-0.458	32.621	1274.692	1084.971
0.556	28.748	1256.610	1047.081
1.571	24.177	1261.948	1025.200
2.586	22.204	1275.857	1024.914
3.600	20.731	1263.292	1006.225
4.615	15.079	1187.545	915.006
5.629	5.937	1107.520	806.483
6.644	1.369	1086.393	767.967
7.659	1.107	1083.753	764.710
8.673	1.009	1083.174	763.741
9.688	1.085	1081.610	762.952
10.702	1.258	1080.137	762.713
11.717	6.099	1086.295	791.419
12.731	13.742	1096.304	837.357
13.746	17.238	1100.388	858.087
14.761	17.652	1100.183	859.942
15.775	16.864	1098.535	854.604
16.790	15.953	1096.540	848.392
17.804	15.273	1094.569	843.372
18.819	14.837	1093.258	840.095
19.834	14.456	1092.526	837.547
20.848	14.259	1091.813	835.934
21.863	14.119	1090.418	834.090
22.877	13.798	1090.207	832.245
23.892	13.796	1089.204	831.397
24.907	13.846	1088.671	831.166
25.921	13.954	1087.584	830.804
26.936	13.951	1087.280	830.483
27.950	13.942	1085.991	829.381
28.965	13.912	1085.094	828.471
29.980	14.040	1083.426	827.763
30.994	14.125	1082.190	827.165
32.009	14.160	1081.144	826.468
33.023	14.111	1079.698	825.047
34.038	13.983	1079.423	824.129
35.053	13.940	1078.830	823.390
36.067	14.001	1078.037	823.016
37.082	14.073	1076.688	822.265
38.096	14.066	1076.056	821.679
39.111	14.034	1075.206	820.798
40.126	13.961	1073.915	819.377
41.140	13.792	1073.006	817.782
42.155	13.898	1071.988	817.453
43.169	13.865	1070.691	816.229
44.184	13.865	1069.453	815.215
45.199	13.899	1068.460	814.551
46.213	13.952	1067.211	813.787
47.228	13.896	1066.077	812.575
48.242	13.856	1065.550	811.908
49.257	14.016	1064.248	811.626
50.271	13.960	1063.135	810.434
51.286	14.027	1062.177	809.956
52.301	13.956	1061.210	808.802
53.315	13.969	1060.242	808.056
54.330	13.947	1059.142	807.040
55.344	13.829	1058.173	805.658
56.359	13.973	1057.157	805.510
57.374	13.922	1056.335	804.566
58.388	13.826	1055.660	803.518
59.403	13.875	1055.067	803.232
60.417	13.876	1054.050	802.389
61.432	13.851	1053.240	801.582
62.447	13.748	1052.555	800.490
63.461	13.767	1051.546	799.746
64.476	13.802	1050.957	799.397
65.490	13.809	1050.013	798.641
66.505	13.854	1049.007	798.021
67.520	13.969	1048.440	798.069
68.534	13.843	1048.202	797.213
69.549	13.910	1046.865	796.446
70.563	13.776	1046.270	795.283
71.578	13.687	1045.927	794.526
72.593	13.818	1044.422	793.937
73.607	13.798	1043.882	793.360
74.622	13.854	1043.262	793.086
75.636	13.814	1042.576	792.304
76.651	13.823	1041.776	791.671
77.666	13.791	1041.173	790.990
78.680	13.731	1040.649	790.234
79.695	13.759	1040.410	790.116
80.709	13.903	1039.272	789.869
81.724	13.786	1038.773	788.861
82.739	13.886	1037.745	788.485
83.753	13.926	1036.863	787.939
84.768	13.991	1035.850	787.406
85.782	14.020	1035.007	786.831
86.797	14.075	1034.042	786.289
87.812	13.881	1033.516	784.904
88.826	13.939	1032.455	784.302
89.841	13.991	1031.316	783.611
90.855	14.000	1030.418	782.904
91.870	14.014	1029.511	782.211
92.884	13.957	1029.048	781.522
93.899	14.107	1027.882	781.273
94.914	14.029	1026.901	780.090
95.928	13.993	1026.834	779.800
96.943	14.182	1025.402	779.530
97.957	14.050	1024.832	778.411
98.972	14.077	1023.993	777.833
99.987	13.967	1023.027	776.513
101.001	13.959	1022.153	775.742
102.016	14.109	1021.010	775.507
103.030	14.062	1020.149	774.565
104.045	14.022	1019.505	773.825
105.060	14.011	1018.395	772.858
106.074	14.010	1017.325	771.974
107.089	13.978	1016.589	771.201
108.103	13.916	1015.761	770.218
109.118	13.798	1014.996	769.024
110.133	14.073	1013.821	769.335
111.147	13.920	1012.853	767.825
112.162	14.106	1012.272	768.179
113.176	13.933	1011.949	767.066
114.191	13.971	1010.987	766.445
115.206	14.117	1009.620	766.011
116.220	13.958	1009.132	764.839
117.235	13.890	1008.203	763.758
118.249	14.023	1007.052	763.429
119.264	14.087	1006.521	763.253
120.279	13.876	1005.974	761.801
121.293	13.952	1005.174	761.475
122.308	13.940	1004.581	760.906
123.322	14.078	1002.727	760.066
124.337	14.018	1001.832	759.047
125.352	13.985	1001.014	758.209
126.366	14.009	999.588	757.169
127.381	13.962	998.853	756.333
128.395	13.903	997.965	755.324
129.410	13.982	996.836	754.760
130.424	14.060	995.718	754.202
131.439	14.078	995.089	753.740
132.454	14.229	994.153	753.648
133.468	14.120	993.913	752.906
134.483	14.085	992.998	751.990
135.497	13.970	992.151	750.761
136.512	14.110	990.722	750.247
137.527	14.062	990.001	749.416
138.541	14.139	989.032	748.961
139.556	14.052	988.672	748.234
140.570	14.180	987.767	748.057
141.585	14.132	986.460	746.787
142.600	14.190	985.985	746.620
143.614	14.269	985.024	746.183
144.629	14.178	984.253	745.125
145.643	14.180	983.393	744.415
146.658	14.144	982.573	743.569
147.673	14.151	981.471	742.698
148.687	14.287	980.651	742.621
149.702	14.042	980.000	740.967
150.716	14.139	978.997	740.576
151.731	14.206	978.346	740.319
152.746	14.189	977.444	739.494
153.760	14.179	976.761	738.866
154.775	14.255	976.787	739.158
155.789	14.353	975.665	738.678
156.804	14.257	975.281	737.895
157.819	14.244	974.504	737.188
158.833	14.316	973.627	736.778
159.848	14.367	972.871	736.365
160.862	14.439	971.646	735.688
161.877	14.253	971.030	734.338
162.892	14.159	970.102	733.156
163.906	14.137	968.908	732.094
164.921	14.190	968.378	731.860
165.935	14.291	966.910	731.129
166.950	14.407	966.099	730.959
167.964	14.301	965.556	730.021
168.979	14.410	964.480	729.619
169.994	14.455	963.401	728.938
171.008	14.464	962.740	728.413
172.023	14.456	961.974	727.733
173.037	14.491	960.967	727.060
174.052	14.388	960.690	726.334
175.067	14.450	959.631	725.740
176.081	14.381	959.329	725.146
177.096	14.392	958.990	724.876
178.110	14.479	958.221	724.607
179.125	14.474	957.198	723.747
180.140	14.475	957.077	723.598
181.154	14.616	956.303	723.559
182.169	14.611	955.929	723.189
183.183	14.506	955.420	722.286
184.198	14.754	954.521	722.617
185.213	14.535	953.962	721.180
186.227	14.556	953.126	720.578
187.242	14.584	952.724	720.328
188.256	14.708	951.611	719.960
189.271	14.572	951.103	718.926
190.286	14.614	950.315	718.448
191.300	14.576	949.578	717.664
192.315	14.402	949.263	716.613
193.329	14.384	948.719	716.061
194.344	14.660	947.805	716.495
195.359	14.723	947.307	716.322
196.373	14.619	946.397	715.126
197.388	14.723	945.757	715.025
198.402	14.736	945.349	714.708
199.417	14.799	944.657	714.394
200.432	14.871	944.310	714.372
201.446	14.793	943.906	713.673
202.461	14.911	943.334	713.682
203.475	14.923	942.346	712.921
204.490	14.693	942.075	711.670
205.504	14.850	940.745	711.271
206.519	14.864	940.039	710.738
207.534	14.907	939.403	710.373
208.548	14.807	939.019	709.597
209.563	14.841	938.313	709.146
210.577	14.950	937.649	709.043
211.592	14.743	937.327	707.859
212.607	15.147	935.504	708.130
213.621	14.969	935.338	707.186
214.636	14.994	934.654	706.712
215.650	14.996	934.534	706.568
216.665	15.084	933.301	705.943
217.680	15.053	932.808	705.380
218.694	15.145	932.101	705.171
219.709	15.190	930.977	704.447
220.723	15.053	930.536	703.475
221.738	15.188	929.936	703.524
222.753	15.096	929.804	702.974
223.767	15.099	928.656	702.058
224.782	15.120	928.263	701.789
225.796	15.233	927.659	701.743
226.811	15.340	926.895	701.548
227.826	15.198	926.008	700.222
228.840	15.280	924.891	699.657
229.855	15.206	924.292	698.836
230.869	15.159	923.470	697.956
231.884	15.225	922.875	697.720
232.899	15.201	922.383	697.184
233.913	15.137	921.891	696.487
234.928	15.161	921.110	695.933
235.942	15.158	920.292	695.243
236.957	15.306	919.894	695.493
237.972	15.243	919.418	694.809
238.986	15.187	918.440	693.778
240.001	15.332	917.929	693.931
241.015	15.275	917.463	693.282
242.030	15.287	916.770	692.747
243.045	15.315	915.972	692.197
244.059	15.312	915.500	691.767
245.074	15.422	914.406	691.334
246.088	15.415	913.914	690.870
247.103	15.482	913.418	690.710
248.117	15.450	912.905	690.128
249.132	15.565	912.161	689.980
250.147	15.570	911.516	689.452
251.161	15.542	910.785	688.721
252.176	15.560	910.399	688.441
253.190	15.488	909.580	687.468
254.205	15.603	908.970	687.417
255.220	15.736	908.090	687.235
256.234	15.707	907.584	686.671
257.249	15.635	906.905	685.802
258.263	15.679	906.171	685.364
259.278	15.659	905.234	684.517
260.293	15.721	904.787	684.370
261.307	15.731	903.995	683.751
262.322	15.796	903.647	683.692
263.336	15.693	902.969	682.700
264.351	15.867	901.800	682.460
265.366	15.862	901.229	681.946
266.380	15.915	900.556	681.593
267.395	15.820	899.989	680.719
268.409	15.959	898.987	680.463
269.424	15.985	898.242	679.944
270.439	16.036	897.700	679.678
271.453	15.885	896.984	678.468
272.468	15.973	896.624	678.488
273.482	16.012	896.214	678.274
274.497	15.892	895.570	677.248
275.512	15.975	895.051	677.130
276.526	15.906	894.455	676.341
277.541	16.025	893.874	676.316
278.555	16.031	893.229	675.793
279.570	16.050	892.417	675.198
280.585	15.941	891.890	674.300
281.599	15.976	890.945	673.668
282.614	16.136	890.457	673.879
283.628	16.016	889.851	672.880
284.643	16.093	888.975	672.464
285.657	16.165	888.369	672.234
286.672	16.199	887.645	671.764
287.687	16.177	887.221	671.294
288.701	16.227	886.178	670.645
289.716	16.359	885.377	670.503
290.730	16.199	885.576	669.959
291.745	16.226	885.046	669.606
292.760	16.358	883.890	669.195
293.774	16.384	883.205	668.720
294.789	16.316	882.814	668.096
295.803	16.243	882.342	667.391
296.818	16.358	881.497	667.147
297.833	16.258	881.169	666.447
298.847	16.290	880.309	665.862
299.862	16.448	879.534	665.839
300.876	16.339	879.259	665.144
301.891	16.439	878.739	665.087
302.906	16.508	878.112	664.824
303.920	16.501	877.182	664.032
304.935	16.642	876.706	664.166
305.949	16.597	876.053	663.438
306.964	16.491	875.523	662.561
307.979	16.555	874.991	662.349
308.993	16.671	874.225	662.168
310.008	16.512	873.633	661.039
311.022	16.562	872.991	660.687
312.037	16.589	872.351	660.252
313.052	16.462	872.063	659.479
314.066	16.504	871.527	659.180
315.081	16.519	870.755	658.596
316.095	16.545	870.345	658.329
317.110	16.525	869.627	657.649
318.125	16.592	869.196	657.525
319.139	16.588	868.512	656.933
320.154	16.678	868.071	656.892
321.168	16.757	867.287	656.548
322.183	16.671	866.793	655.782
323.197	16.617	866.348	655.177
324.212	16.738	865.463	654.918
325.227	16.583	865.630	654.387
326.241	16.664	864.490	653.782
327.256	16.631	864.331	653.475
328.270	16.607	863.964	653.047
329.285	16.652	863.312	652.671
330.300	16.691	862.580	652.208
331.314	16.597	862.462	651.702
332.329	16.924	861.178	651.928
333.343	16.715	861.371	651.216
334.358	16.817	860.451	650.851
335.373	16.712	860.631	650.528
336.387	16.852	859.580	650.213
337.402	16.936	859.530	650.442
338.416	16.841	859.384	649.909
339.431	16.887	858.920	649.674
340.446	16.990	858.312	649.554
341.460	16.945	857.971	649.067
342.475	16.989	857.624	648.912
343.489	17.135	857.251	649.131
344.504	16.992	856.524	647.979
345.519	17.115	856.181	648.132
346.533	17.167	855.317	647.618
347.548	17.095	854.742	646.852
348.562	17.017	854.369	646.215
349.577	16.852	854.042	645.283
350.592	17.026	853.225	645.268
351.606	17.003	852.651	644.691
352.621	16.963	852.594	644.438
353.635	16.919	851.686	643.526
354.650	17.182	850.393	643.490
355.665	17.249	849.591	643.081
356.679	17.218	849.410	642.768
357.694	17.220	848.421	641.970
358.708	17.212	848.169	641.693
359.723	17.260	847.429	641.259
360.738	17.158	846.988	640.485
361.752	17.303	846.125	640.321
362.767	17.262	845.747	639.821
363.781	17.344	844.969	639.484
364.796	17.545	844.375	639.735
365.810	17.446	844.346	639.283
366.825	17.475	843.864	638.972
367.840	17.452	843.565	638.604
368.854	17.498	842.936	638.243
369.869	17.400	842.429	637.434
370.883	17.440	841.994	637.199
371.898	17.509	841.738	637.209
372.913	17.613	840.906	636.908
373.927	17.553	841.032	636.723
374.942	17.497	840.553	636.096
375.956	17.526	840.146	635.839
376.971	17.709	839.379	635.885
377.986	17.671	839.049	635.438
379.000	17.733	838.380	635.105
380.015	17.776	837.844	634.805
381.029	17.817	837.086	634.327
382.044	17.598	837.028	633.410
383.059	17.763	836.194	633.337
384.073	17.674	835.812	632.659
385.088	17.770	835.075	632.403
386.102	17.705	834.540	631.700
387.117	17.743	833.857	631.271
388.132	17.720	833.560	630.905
389.146	17.814	832.980	630.757
390.161	17.838	832.266	630.250
391.175	17.965	831.665	630.205
392.190	17.897	831.262	629.592
393.205	17.844	830.769	628.970
394.219	17.796	830.453	628.496
395.234	17.814	830.161	628.286
396.248	17.751	830.097	627.952
397.263	17.752	829.437	627.400
398.278	17.848	828.885	627.279
399.292	17.757	828.671	626.729
400.307	17.806	828.086	626.409
401.321	17.841	827.250	625.852
402.336	17.902	827.123	625.925
403.350	18.051	826.244	625.748
404.365	18.084	825.926	625.575
405.380	18.055	825.281	624.923
406.394	18.011	824.769	624.318
407.409	18.013	824.492	624.061
408.423	17.961	824.466	623.795
409.438	18.226	823.772	624.183
410.453	18.127	823.467	623.536
411.467	18.163	822.870	623.161
412.482	18.165	822.587	622.897
413.496	18.189	821.877	622.390
414.511	18.326	821.484	622.536
415.526	18.175	821.219	621.733
416.540	18.228	821.082	621.765
417.555	18.272	820.325	621.300
418.569	18.162	820.025	620.617
419.584	18.355	819.111	620.570
420.599	18.202	818.821	619.741
421.613	106.619	1288.222	1449.381
422.628	92.201	1356.624	1449.501
