DTS Sentinel unit serial number:	SN413079Multiplexer serial number:	ORYXHardware model number:	OX4-SRSoftware version number:	ORYX F/W v4.00 Oryx Data Collector v3.7.2.0data status	okinstallation	princeton_trtdifferential loss correction	single-endedforward channel	channel 1reverse channel	N/Adate	2019/09/19time	01:02:35forward acquisition time	60.00reverse acquisition time	0.00gamma	496.2192k internal	0.2344k external	0.2344temperature offset calibration	1.0017default loss term (dB/km)	0.3790temperature slope calibration	1.0000multiplexer offset coefficient	1.0000multiplexer slope coefficient	1.0000fibre end	0.00T internal ref (°C)	21.92T ext. ref 1 (°C)	0.73T ext. ref 2 (°C)	15.32length (m)	temperature (°C)	Stokes	anti-Stokes-747.200	-42.007	-0.218	-0.112
-746.185	-0.256	-0.205	0.146
-745.171	-200.000	0.023	0.178
-744.156	708.569	-0.106	0.281
-743.142	-52.433	-0.236	0.109
-742.127	420.044	-0.220	0.472
-741.112	133.009	-0.046	-0.060
-740.098	800.000	-0.065	0.280
-739.083	-9.497	0.228	0.152
-738.069	-16.299	-0.218	0.139
-737.054	800.000	0.052	-0.184
-736.039	135.786	-0.215	0.280
-735.025	800.000	0.126	0.365
-734.010	800.000	0.098	-0.305
-732.996	-100.315	-0.686	-0.170
-731.981	-200.000	0.031	0.229
-730.966	-25.352	-0.123	0.073
-729.952	20.263	-0.120	-0.097
-728.937	-118.565	-0.131	-0.023
-727.923	82.939	0.078	-0.085
-726.908	-200.000	-0.024	0.186
-725.894	181.856	-0.075	-0.111
-724.879	800.000	-0.018	-0.071
-723.864	-140.180	-0.204	-0.021
-722.850	-41.139	-0.240	0.124
-721.835	-200.000	-0.006	-0.078
-720.821	736.014	-0.103	-0.275
-719.806	-200.000	-0.020	0.382
-718.791	203.644	0.147	0.227
-717.777	-120.687	-0.309	-0.052
-716.762	-49.706	-0.132	0.063
-715.748	334.179	-0.071	-0.137
-714.733	-111.401	-0.121	0.025
-713.718	-120.689	-0.194	0.033
-712.704	161.818	0.085	0.119
-711.689	800.000	0.073	-0.220
-710.675	351.099	0.086	0.169
-709.660	800.000	-0.066	-0.227
-708.645	-74.805	-0.173	0.062
-707.631	7.112	-0.212	-0.158
-706.616	-87.854	-0.169	-0.051
-705.602	-200.000	0.038	0.250
-704.587	-54.247	-0.217	-0.099
-703.572	-135.300	-0.165	-0.020
-702.558	-28.337	0.248	0.143
-701.543	-200.000	0.011	0.147
-700.529	-70.344	-0.180	-0.068
-699.514	318.737	-0.170	-0.321
-698.499	-72.483	0.062	0.023
-697.485	145.246	-0.158	0.211
-696.470	-103.701	0.062	0.015
-695.456	-103.996	0.365	0.085
-694.441	-64.590	-0.437	0.177
-693.426	456.895	0.095	-0.211
-692.412	-200.000	0.051	-0.386
-691.397	-37.142	-0.089	0.048
-690.383	447.996	-0.052	0.115
-689.368	-200.000	-0.034	-0.414
-688.354	-88.504	-0.143	0.043
-687.339	-0.344	0.264	0.187
-686.324	-85.690	-0.357	0.111
-685.310	-112.845	-0.166	0.033
-684.295	-82.795	0.329	-0.106
-683.281	-129.016	-0.256	0.036
-682.266	204.365	-0.143	0.221
-681.251	-160.089	0.336	0.018
-680.237	190.961	-0.086	-0.130
-679.222	-112.877	0.246	-0.049
-678.208	-51.390	-0.308	0.144
-677.193	-24.974	-0.036	0.021
-676.178	-179.208	0.216	-0.005
-675.164	107.730	-0.072	-0.085
-674.149	-200.000	0.039	-0.271
-673.135	-151.034	-0.071	0.005
-672.120	-169.034	0.085	-0.003
-671.105	-80.767	0.187	0.062
-670.091	19.067	0.244	-0.195
-669.076	-68.117	-0.421	0.164
-668.062	-73.908	-0.279	-0.101
-667.047	28.576	-0.150	0.127
-666.032	-119.353	-0.144	-0.025
-665.018	14.327	0.160	-0.124
-664.003	-139.119	-0.399	0.043
-662.989	553.032	-0.079	-0.190
-661.974	-165.465	-0.132	0.006
-660.959	-64.952	-0.101	-0.041
-659.945	-200.000	-0.014	0.198
-658.930	800.000	-0.098	0.315
-657.916	45.975	0.421	-0.389
-656.901	-80.928	-0.121	-0.040
-655.886	32.767	-0.121	-0.104
-654.872	762.408	0.077	-0.209
-653.857	-7.388	-0.266	0.179
-652.843	800.000	-0.057	-0.184
-651.828	800.000	0.045	0.162
-650.814	-2.174	0.202	0.142
-649.799	-0.434	0.284	0.201
-648.784	353.793	0.176	-0.349
-647.770	-200.000	-0.017	-0.129
-646.755	-76.262	0.224	-0.079
-645.741	96.261	0.054	-0.062
-644.726	488.875	0.135	-0.307
-643.711	759.345	-0.108	-0.292
-642.697	800.000	0.116	-0.421
-641.682	-35.078	0.272	-0.148
-640.668	800.000	-0.116	-0.333
-639.653	-17.927	0.169	-0.106
-638.638	541.861	-0.069	-0.163
-637.624	-112.397	-0.377	-0.075
-636.609	541.796	-0.124	0.295
-635.595	800.000	-0.112	-0.479
-634.580	-53.675	-0.336	-0.153
-633.565	800.000	0.078	0.297
-632.551	6.299	-0.391	0.289
-631.536	-200.000	0.044	0.408
-630.522	174.054	0.097	-0.140
-629.507	121.534	-0.191	-0.238
-628.492	669.119	0.093	0.239
-627.478	-94.480	-0.285	0.077
-626.463	-111.287	0.042	0.009
-625.449	-39.703	0.117	0.061
-624.434	800.000	0.044	-0.168
-623.419	-200.000	0.126	0.571
-622.405	-23.591	-0.216	0.129
-621.390	147.247	-0.044	-0.059
-620.376	45.388	-0.127	0.117
-619.361	391.643	0.063	0.131
-618.346	-105.240	0.159	0.036
-617.332	800.000	0.048	-0.154
-616.317	267.304	-0.132	0.229
-615.303	800.000	-0.078	0.255
-614.288	618.200	0.086	-0.215
-613.273	527.389	0.108	-0.254
-612.259	-12.579	0.264	-0.172
-611.244	-200.000	0.019	-0.294
-610.230	74.991	-0.151	0.158
-609.215	-200.000	-0.067	-0.338
-608.201	134.432	0.152	0.196
-607.186	-200.000	0.009	-0.247
-606.171	-95.622	-0.175	-0.047
-605.157	-74.316	-0.111	0.040
-604.142	224.224	-0.080	0.128
-603.128	-69.195	-0.165	0.063
-602.113	-76.562	-0.100	-0.035
-601.098	800.000	0.063	0.186
-600.084	470.361	-0.111	-0.249
-599.069	151.365	0.120	-0.163
-598.055	114.560	0.142	0.173
-597.040	-43.955	-0.178	-0.089
-596.025	-49.297	0.166	-0.079
-595.011	185.474	-0.113	-0.167
-593.996	417.241	0.192	-0.408
-592.982	506.376	-0.110	-0.254
-591.967	-100.496	0.319	0.079
-590.952	222.889	-0.097	0.155
-589.938	339.646	-0.108	-0.210
-588.923	-71.250	0.183	0.068
-587.909	-124.975	-0.237	-0.036
-586.894	224.747	0.057	0.092
-585.879	-81.878	-0.171	0.056
-584.865	66.117	-0.225	-0.228
-583.850	-85.970	-0.132	0.041
-582.836	800.000	0.124	0.359
-581.821	-200.000	-0.027	-0.216
-580.806	620.308	-0.040	-0.101
-579.792	800.000	0.038	0.164
-578.777	-106.352	-0.091	0.020
-577.763	169.360	-0.365	-0.519
-576.748	121.139	-0.239	-0.296
-575.733	-162.985	0.416	0.020
-574.719	-34.020	-0.158	-0.086
-573.704	295.438	0.191	-0.347
-572.690	-200.000	0.096	0.000
-571.675	-200.000	-0.012	0.076
-570.661	800.000	0.047	0.205
-569.646	-22.002	-0.082	-0.049
-568.631	745.106	0.072	-0.192
-567.617	-200.000	-0.007	0.039
-566.602	-21.341	0.107	-0.065
-565.588	-200.000	-0.028	0.369
-564.573	205.196	0.039	0.061
-563.558	617.967	0.051	-0.128
-562.544	103.986	0.144	-0.168
-561.529	-77.381	-0.352	-0.121
-560.515	-200.000	-0.036	-0.220
-559.500	246.771	-0.132	-0.222
-558.485	-125.179	0.153	0.023
-557.471	-200.000	-0.048	-0.249
-556.456	23.013	0.238	0.194
-555.442	238.641	-0.054	0.089
-554.427	800.000	-0.099	0.321
-553.412	-63.101	-0.248	0.102
-552.398	800.000	0.075	-0.243
-551.383	51.245	-0.281	0.265
-550.369	35.147	0.177	0.154
-549.354	800.000	0.029	0.082
-548.339	-200.000	0.033	0.155
-547.325	405.852	-0.104	0.217
-546.310	5.146	-0.245	0.179
-545.296	-49.123	-0.067	-0.032
-544.281	800.000	0.096	0.319
-543.266	-98.513	-0.106	0.027
-542.252	70.529	0.052	0.054
-541.237	800.000	0.087	-0.254
-540.223	487.308	-0.107	0.242
-539.208	-36.029	-0.143	0.077
-538.193	-63.407	-0.069	0.028
-537.179	-122.045	-0.324	0.053
-536.164	800.000	0.099	-0.341
-535.150	-142.133	0.395	-0.039
-534.135	-106.745	-0.303	-0.067
-533.121	-99.663	0.310	-0.077
-532.106	63.772	0.043	-0.043
-531.091	-122.144	0.338	-0.055
-530.077	-200.000	0.014	-0.091
-529.062	56.060	0.149	-0.143
-528.048	146.684	-0.072	0.097
-527.033	-45.808	-0.226	-0.111
-526.018	23.938	-0.120	0.098
-525.004	-31.408	-0.187	0.104
-523.989	-200.000	-0.008	0.183
-522.975	-59.778	-0.206	-0.088
-521.960	-39.291	-0.236	0.123
-520.945	46.810	0.146	-0.135
-519.931	91.608	-0.141	0.158
-518.916	-57.059	0.454	0.199
-517.902	246.923	0.166	-0.277
-516.887	-200.000	0.011	-0.306
-515.872	-200.000	-0.005	-0.104
-514.858	150.344	0.043	0.058
-513.843	382.598	0.144	-0.293
-512.829	-200.000	-0.012	-0.094
-511.814	326.260	-0.194	-0.368
-510.799	-200.000	-0.022	0.231
-509.785	40.699	-0.157	0.141
-508.770	-200.000	-0.037	-0.301
-507.756	26.901	0.047	0.039
-506.741	11.227	-0.058	0.044
-505.726	-147.841	-0.295	0.024
-504.712	62.620	-0.156	0.155
-503.697	283.550	-0.106	-0.188
-502.683	117.769	-0.118	-0.144
-501.668	-77.772	0.195	-0.067
-500.653	-200.000	-0.015	0.177
-499.639	271.388	0.115	0.200
-498.624	8.434	-0.171	0.128
-497.610	-35.055	0.267	0.144
-496.595	143.677	0.017	0.023
-495.581	-34.007	0.224	-0.122
-494.566	-26.698	0.192	0.111
-493.551	56.403	-0.473	0.456
-492.537	-126.009	-0.230	0.034
-491.522	-27.920	0.347	0.199
-490.508	253.223	0.213	0.361
-489.493	110.398	0.118	0.140
-488.478	-166.376	0.149	0.006
-487.464	-200.000	0.013	0.351
-486.449	800.000	0.088	0.285
-485.435	-29.338	0.306	0.174
-484.420	800.000	-0.103	0.364
-483.405	-200.000	-0.020	0.245
-482.391	-200.000	0.016	0.201
-481.376	-35.760	-0.097	-0.052
-480.362	115.851	0.113	0.137
-479.347	14.779	-0.326	-0.252
-478.332	67.402	-0.173	0.175
-477.318	1.449	-0.373	0.266
-476.303	-200.000	0.051	0.301
-475.289	-51.876	-0.044	-0.020
-474.274	-200.000	-0.052	-0.270
-473.259	300.397	-0.157	-0.287
-472.245	-39.329	-0.123	0.064
-471.230	496.577	-0.130	-0.296
-470.216	68.630	0.152	-0.155
-469.201	-109.945	-0.213	0.044
-468.186	-200.000	-0.009	0.257
-467.172	-200.000	0.054	-0.243
-466.157	-87.001	-0.264	0.080
-465.143	-108.268	-0.143	-0.031
-464.128	-36.224	-0.142	0.076
-463.113	-29.367	-0.157	0.089
-462.099	-177.589	0.155	-0.004
-461.084	147.913	-0.222	-0.296
-460.070	-200.000	-0.056	0.287
-459.055	62.975	-0.238	-0.236
-458.040	-35.971	-0.275	0.147
-457.026	-2.200	-0.046	-0.032
-456.011	125.474	0.049	0.061
-454.997	149.025	-0.080	0.107
-453.982	-10.442	0.115	-0.075
-452.968	800.000	-0.078	-0.231
-451.953	-200.000	-0.010	0.097
-450.938	-200.000	0.009	-0.043
-449.924	-41.630	0.349	-0.177
-448.909	213.871	0.136	0.213
-447.895	206.382	0.156	0.241
-446.880	86.715	0.156	-0.170
-445.865	-200.000	0.020	-0.335
-444.851	758.258	-0.040	-0.107
-443.836	-76.601	-0.099	-0.034
-442.822	-122.611	-0.299	0.048
-441.807	-68.605	-0.326	0.125
-440.792	-200.000	0.080	-0.348
-439.778	33.194	0.094	0.081
-438.763	250.850	-0.161	0.270
-437.749	800.000	0.033	0.126
-436.734	-200.000	0.024	-0.141
-435.719	-20.332	0.240	0.146
-434.705	105.289	-0.099	-0.115
-433.690	191.278	0.028	-0.042
-432.676	39.244	0.153	-0.136
-431.661	117.286	0.121	0.147
-430.646	80.291	-0.210	-0.223
-429.632	-46.122	-0.310	-0.151
-428.617	-49.675	-0.163	-0.077
-427.603	72.333	-0.188	-0.194
-426.588	135.732	-0.142	-0.182
-425.573	-152.802	0.180	0.013
-424.559	800.000	0.051	0.197
-423.544	235.055	-0.216	0.352
-422.530	236.553	0.167	0.273
-421.515	-11.493	0.141	0.092
-420.500	-139.260	-0.101	-0.011
-419.486	171.059	0.128	0.182
-418.471	-149.590	-0.129	0.010
-417.457	626.233	0.051	-0.127
-416.442	-200.000	-0.034	0.224
-415.428	52.615	0.087	-0.082
-414.413	278.057	0.017	-0.029
-413.398	-65.948	0.141	-0.056
-412.384	800.000	-0.057	0.237
-411.369	151.312	-0.013	0.018
-410.355	-64.457	-0.135	-0.054
-409.340	-124.835	0.216	-0.033
-408.325	-200.000	0.009	0.182
-407.311	-45.392	-0.159	-0.078
-406.296	63.674	0.107	-0.106
-405.282	-152.110	-0.229	0.016
-404.267	-103.407	0.062	-0.014
-403.252	460.505	-0.010	0.022
-402.238	261.637	0.112	-0.192
-401.223	123.321	-0.153	0.189
-400.209	800.000	0.041	-0.163
-399.194	331.394	0.088	-0.167
-398.179	238.881	-0.204	0.336
-397.165	640.764	0.058	-0.146
-396.150	-48.537	-0.349	0.166
-395.136	800.000	-0.039	0.163
-394.121	38.895	-0.189	0.167
-393.106	-200.000	-0.011	0.078
-392.092	-58.243	-0.168	-0.072
-391.077	-57.377	-0.233	-0.101
-390.063	-26.127	-0.241	0.140
-389.048	-84.879	-0.226	-0.070
-388.033	-41.420	-0.190	-0.096
-387.019	68.068	0.150	-0.152
-386.004	716.388	0.170	-0.446
-384.990	-101.234	-0.367	0.089
-383.975	800.000	0.034	0.095
-382.960	-67.243	-0.331	0.129
-381.946	-89.338	0.115	-0.033
-380.931	-71.604	-0.263	0.097
-379.917	800.000	0.105	-0.322
-378.902	-200.000	0.052	0.246
-377.888	355.635	-0.094	0.185
-376.873	-200.000	-0.002	-0.200
-375.858	-129.210	0.281	-0.039
-374.844	-200.000	0.026	-0.308
-373.829	-9.586	0.124	0.082
-372.815	-96.007	0.303	0.080
-371.800	-200.000	0.021	-0.282
-370.785	561.077	-0.134	-0.320
-369.771	12.525	-0.341	-0.260
-368.756	-86.851	-0.251	0.076
-367.742	345.118	-0.066	0.128
-366.727	-1.855	-0.141	-0.098
-365.712	482.211	0.094	0.211
-364.698	8.258	0.166	0.123
-363.683	800.000	0.077	-0.240
-362.669	523.531	-0.132	-0.307
-361.654	93.476	0.159	-0.177
-360.639	116.777	-0.139	-0.169
-359.625	37.873	-0.049	0.043
-358.610	-40.161	0.234	-0.120
-357.596	58.501	0.167	0.162
-356.581	-75.691	-0.346	-0.121
-355.566	800.000	0.063	-0.231
-354.552	-148.762	-0.142	-0.011
-353.537	-200.000	0.015	0.144
-352.523	1.805	-0.119	0.084
-351.508	80.597	-0.157	0.167
-350.493	-92.694	0.103	0.028
-349.479	39.339	-0.258	-0.228
-348.464	438.604	0.085	-0.183
-347.450	463.072	-0.181	0.399
-346.435	-1.530	0.147	-0.102
-345.420	-200.000	0.004	0.069
-344.406	24.120	0.278	0.226
-343.391	11.998	0.093	0.071
-342.377	800.000	0.040	0.144
-341.362	-120.095	0.178	0.030
-340.348	-34.490	0.162	-0.087
-339.333	-19.935	-0.013	0.008
-338.318	-200.000	0.002	0.092
-337.304	-74.303	-0.373	0.133
-336.289	155.299	0.044	-0.060
-335.275	-25.520	-0.177	0.103
-334.260	-68.287	-0.293	0.112
-333.245	324.949	0.043	0.080
-332.231	800.000	0.095	-0.287
-331.216	-12.078	0.211	-0.136
-330.202	749.078	0.014	0.037
-329.187	175.954	0.319	0.455
-328.172	220.182	-0.212	-0.335
-327.158	8.695	-0.161	-0.119
-326.143	65.044	-0.149	0.149
-325.129	651.897	-0.177	-0.448
-324.114	452.744	0.126	0.275
-323.099	187.016	-0.037	0.054
-322.085	70.972	0.091	-0.093
-321.070	-191.360	-0.218	0.002
-320.056	-61.891	0.221	0.091
-319.041	-105.429	-0.158	-0.035
-318.026	-177.956	0.277	0.007
-317.012	-200.000	-0.001	0.076
-315.997	191.854	0.037	0.055
-314.983	-200.000	-0.012	-0.079
-313.968	57.592	0.307	-0.296
-312.953	-75.874	0.100	-0.035
-311.939	703.238	-0.109	-0.283
-310.924	10.839	0.364	-0.274
-309.910	278.246	0.055	0.096
-308.895	18.843	0.246	0.194
-307.880	704.677	0.107	-0.278
-306.866	-200.000	-0.021	-0.180
-305.851	9.930	-0.086	0.065
-304.837	-200.000	-0.034	0.149
-303.822	800.000	-0.109	-0.305
-302.807	-189.057	-0.369	-0.004
-301.793	124.904	0.170	-0.211
-300.778	-59.410	0.250	0.106
-299.764	247.050	-0.055	0.092
-298.749	136.198	-0.091	-0.116
-297.735	-200.000	0.011	0.289
-296.720	189.036	-0.147	-0.217
-295.705	800.000	-0.058	-0.163
-294.691	-91.222	0.259	0.073
-293.676	-200.000	-0.005	-0.124
-292.662	-88.029	0.362	-0.107
-291.647	-200.000	-0.005	0.223
-290.632	-127.603	0.144	-0.021
-289.618	287.086	0.134	0.238
-288.603	304.697	-0.225	0.412
-287.589	-48.568	0.184	0.087
-286.574	34.487	0.165	-0.141
-285.559	-118.456	-0.316	0.055
-284.545	-77.614	0.255	-0.087
-283.530	668.633	0.082	-0.209
-282.516	634.930	0.036	-0.091
-281.501	31.412	0.282	-0.238
-280.486	499.575	0.140	0.317
-279.472	800.000	0.099	0.299
-278.457	84.274	0.122	-0.131
-277.443	800.000	0.133	0.376
-276.428	-13.120	0.275	0.176
-275.413	-200.000	0.020	0.141
-274.399	96.983	0.335	0.377
-273.384	-151.379	0.148	0.011
-272.370	290.237	-0.094	0.169
-271.355	76.518	0.142	0.148
-270.340	-59.292	0.146	0.062
-269.326	-76.374	-0.225	-0.078
-268.311	-72.605	-0.266	-0.097
-267.297	529.502	0.109	-0.253
-266.282	-94.242	-0.083	0.022
-265.267	800.000	0.006	-0.016
-264.253	136.823	-0.057	-0.074
-263.238	210.387	-0.159	0.244
-262.224	391.047	0.212	0.432
-261.209	-200.000	-0.022	-0.177
-260.195	72.347	0.263	0.269
-259.180	93.536	0.130	-0.145
-258.165	-200.000	-0.059	-0.287
-257.151	-73.080	-0.070	0.025
-256.136	394.176	-0.067	-0.138
-255.122	-116.339	-0.374	0.068
-254.107	-200.000	-0.004	0.214
-253.092	-4.866	-0.183	0.124
-252.078	800.000	-0.036	-0.111
-251.063	133.083	0.310	-0.393
-250.049	-86.828	0.352	0.105
-249.034	800.000	-0.113	0.384
-248.019	800.000	0.092	0.341
-247.005	-137.698	-0.228	-0.025
-245.990	-152.323	0.223	-0.016
-244.976	800.000	-0.104	-0.333
-243.961	-84.411	-0.223	-0.069
-242.946	-200.000	0.034	0.291
-241.932	200.203	0.073	-0.110
-240.917	-127.699	0.221	0.031
-239.903	-119.731	0.128	-0.022
-238.888	-167.575	-0.280	0.011
-237.873	-166.660	0.203	0.008
-236.859	-32.183	0.105	-0.058
-235.844	-200.000	-0.085	0.373
-234.830	554.924	0.074	0.176
-233.815	63.653	0.138	-0.136
-232.800	68.031	0.049	-0.049
-231.786	-200.000	0.004	0.097
-230.771	-76.214	-0.034	-0.012
-229.757	-64.863	0.327	-0.130
-228.742	169.967	-0.131	-0.184
-227.727	-190.528	0.369	-0.004
-226.713	160.413	0.082	-0.112
-225.698	36.710	0.113	-0.098
-224.684	-200.000	0.049	0.227
-223.669	-7.531	-0.280	0.186
-222.655	800.000	-0.043	-0.135
-221.640	800.000	0.112	-0.322
-220.625	-96.059	0.038	-0.010
-219.611	-58.124	-0.209	0.090
-218.596	-15.135	0.065	-0.041
-217.582	475.873	-0.037	0.083
-216.567	-200.000	-0.030	0.240
-215.552	-116.838	-0.182	0.033
-214.538	68.452	-0.170	0.170
-213.523	257.252	0.159	-0.268
-212.509	54.576	0.206	0.194
-211.494	-200.000	-0.031	-0.209
-210.479	100.958	0.059	0.068
-209.465	97.784	0.167	0.188
-208.450	-200.000	-0.001	0.014
-207.436	36.816	-0.209	-0.181
-206.421	262.274	-0.268	-0.455
-205.406	166.069	0.160	-0.221
-204.392	29.012	-0.123	-0.102
-203.377	-134.867	0.385	0.046
-202.363	9.444	0.313	-0.232
-201.348	-105.652	0.284	-0.063
-200.333	-47.811	0.172	-0.082
-199.319	-115.163	0.236	0.044
-198.304	-200.000	0.071	0.547
-197.290	0.255	-0.118	0.083
-196.275	-200.000	0.049	-0.270
-195.260	-200.000	-0.044	0.220
-194.246	-54.940	-0.073	-0.032
-193.231	-45.583	0.229	-0.111
-192.217	689.231	-0.064	0.164
-191.202	-200.000	-0.070	-0.376
-190.187	-189.456	0.309	0.004
-189.173	-200.000	0.079	0.454
-188.158	90.164	0.025	0.027
-187.144	-120.162	-0.189	0.032
-186.129	253.457	0.146	0.245
-185.114	-1.538	0.143	-0.099
-184.100	354.303	-0.156	-0.303
-183.085	50.110	-0.154	0.142
-182.071	-112.088	0.078	-0.015
-181.056	176.502	0.166	0.236
-180.042	-115.375	0.333	0.061
-179.027	-46.629	0.187	0.090
-178.012	-184.514	-0.198	-0.003
-176.998	-200.000	0.015	0.281
-175.983	-200.000	0.038	0.227
-174.969	36.732	0.212	-0.183
-173.954	-200.000	0.013	-0.153
-172.939	800.000	0.027	-0.092
-171.925	-38.193	0.277	0.144
-170.910	-86.696	0.096	0.029
-169.896	-149.604	-0.244	0.019
-168.881	-136.745	0.077	-0.009
-167.866	-200.000	-0.001	0.076
-166.852	750.392	0.164	-0.434
-165.837	-36.938	0.095	0.050
-164.823	-148.237	-0.156	0.013
-163.808	-49.334	0.114	-0.053
-162.793	800.000	0.084	0.277
-161.779	65.508	0.141	0.139
-160.764	-54.897	0.269	0.119
-159.750	33.052	-0.102	-0.087
-158.735	-116.398	-0.498	0.090
-157.720	-112.213	0.089	0.017
-156.706	4.583	-0.305	-0.219
-155.691	-200.000	-0.034	-0.195
-154.677	-52.540	-0.206	-0.093
-153.662	13.016	0.329	0.249
-152.647	83.515	-0.029	0.031
-151.633	800.000	0.039	0.152
-150.618	379.186	-0.169	0.338
-149.604	-31.326	0.117	-0.064
-148.589	-200.000	-0.038	-0.415
-147.574	-41.090	0.070	0.035
-146.560	-8.699	0.175	0.115
-145.545	-72.943	-0.363	0.130
-144.531	-200.000	-0.039	0.258
-143.516	-80.782	-0.293	0.095
-142.502	109.024	0.057	0.066
-141.487	-74.494	-0.269	0.095
-140.472	35.980	0.085	-0.073
-139.458	-200.000	-0.028	0.167
-138.443	-29.519	-0.265	-0.148
-137.429	-72.547	-0.130	-0.047
-136.414	107.089	-0.203	-0.236
-135.399	-200.000	0.015	-0.125
-134.385	-117.926	-0.170	0.030
-133.370	100.360	-0.220	-0.250
-132.356	-62.049	-0.297	-0.121
-131.341	359.643	0.081	-0.158
-130.326	-42.743	0.285	0.141
-129.312	-1.909	0.134	0.092
-128.297	-200.000	0.002	-0.378
-127.283	-168.338	-0.317	-0.012
-126.268	83.166	-0.163	-0.173
-125.253	576.057	-0.098	-0.234
-124.239	-200.000	0.002	0.040
-123.224	-137.270	0.198	0.022
-122.210	7.283	-0.027	0.020
-121.195	154.268	-0.112	0.150
-120.180	52.810	-0.055	-0.051
-119.166	-82.071	0.323	0.103
-118.151	-49.079	0.177	0.083
-117.137	157.397	0.032	0.043
-116.122	-200.000	-0.009	-0.054
-115.107	417.433	0.090	0.187
-114.093	-118.937	-0.477	-0.082
-113.078	-138.140	0.080	-0.009
-112.064	293.000	0.125	-0.223
-111.049	356.987	-0.069	-0.135
-110.034	-51.570	0.288	0.131
-109.020	-44.311	0.217	-0.106
-108.005	181.200	-0.070	-0.100
-106.991	62.908	-0.291	-0.284
-105.976	338.963	-0.094	0.178
-104.962	-200.000	0.008	0.285
-103.947	-69.817	0.297	-0.111
-102.932	153.998	0.066	-0.089
-101.918	-200.000	-0.009	0.052
-100.903	98.532	-0.084	0.094
-99.889	-36.340	-0.071	-0.037
-98.874	-126.496	0.283	-0.041
-97.859	-81.172	-0.141	-0.045
-96.845	78.867	-0.133	0.139
-95.830	-160.070	-0.026	-0.001
-94.816	-160.286	0.218	-0.011
-93.801	-143.044	-0.061	0.006
-92.786	800.000	0.052	0.145
-91.772	-200.000	-0.012	0.532
-90.757	25.505	0.067	0.054
-89.743	800.000	0.077	-0.254
-88.728	-40.137	0.250	0.127
-87.713	-81.139	0.101	-0.033
-86.699	31.898	-0.130	0.110
-85.684	-63.971	-0.143	0.057
-84.670	800.000	0.016	-0.047
-83.655	460.530	0.078	0.169
-82.640	800.000	-0.020	0.065
-81.626	-39.259	0.179	0.091
-80.611	-200.000	0.014	-0.197
-79.597	-61.275	-0.043	0.018
-78.582	57.685	-0.237	0.226
-77.567	83.564	0.114	0.121
-76.553	341.173	-0.116	-0.220
-75.538	252.582	-0.051	-0.084
-74.524	-49.496	-0.312	0.145
-73.509	-200.000	-0.020	0.127
-72.494	800.000	-0.038	-0.147
-71.480	81.333	0.031	-0.033
-70.465	190.733	-0.211	-0.310
-69.451	-200.000	-0.041	-0.185
-68.436	274.091	-0.134	-0.231
-67.422	-51.444	0.251	-0.114
-66.407	63.247	-0.221	0.216
-65.392	800.000	0.076	-0.305
-64.378	231.114	0.109	0.173
-63.363	44.021	0.082	-0.073
-62.349	148.447	0.101	-0.133
-61.334	18.281	-1.347	-1.048
-60.319	249.450	0.590	0.975
-59.305	800.000	-0.454	-1.375
-58.290	617.339	0.696	1.701
-57.276	-200.000	0.379	1.626
-56.261	-200.000	134.227	688.616
-55.246	354.147	1666.082	3224.624
-54.232	134.114	2802.455	3537.506
-53.217	91.235	2167.910	2370.905
-52.203	33.222	1596.299	1348.906
-51.188	25.073	1342.840	1085.555
-50.173	22.879	1305.832	1042.659
-49.159	50.812	1379.248	1272.481
-48.144	47.190	1388.942	1259.370
-47.130	25.236	1335.651	1080.555
-46.115	22.033	1316.415	1045.906
-45.100	21.843	1311.224	1040.616
-44.086	21.901	1308.276	1038.577
-43.071	21.693	1306.634	1036.001
-42.057	21.626	1304.598	1033.953
-41.042	21.840	1302.786	1033.737
-40.027	21.789	1301.194	1032.131
-39.013	21.834	1299.387	1030.920
-37.998	21.901	1297.347	1029.653
-36.984	21.868	1295.644	1028.070
-35.969	21.845	1293.715	1026.363
-34.954	21.981	1292.637	1026.261
-33.940	21.922	1291.299	1024.813
-32.925	21.892	1290.130	1023.673
-31.911	22.020	1288.444	1023.039
-30.896	22.032	1286.846	1021.798
-29.881	22.044	1285.689	1020.912
-28.867	22.067	1284.342	1019.936
-27.852	22.079	1282.923	1018.836
-26.838	22.036	1281.795	1017.650
-25.823	22.024	1280.393	1016.426
-24.809	21.956	1279.357	1015.170
-23.794	21.900	1278.198	1013.886
-22.779	22.050	1276.286	1013.196
-21.765	22.053	1275.054	1012.195
-20.750	21.914	1273.871	1010.413
-19.736	21.914	1272.814	1009.538
-18.721	21.903	1271.554	1008.433
-17.706	21.897	1270.649	1007.642
-16.692	21.911	1269.239	1006.563
-15.677	21.889	1268.114	1005.509
-14.663	21.863	1266.914	1004.368
-13.648	21.836	1266.075	1003.507
-12.633	21.885	1265.152	1003.014
-11.619	21.920	1263.951	1002.225
-10.604	21.863	1263.739	1001.689
-9.590	21.821	1262.702	1000.586
-8.575	21.807	1261.454	999.481
-7.560	21.916	1260.993	999.694
-6.546	21.817	1259.871	998.203
-5.531	21.897	1259.019	997.942
-4.517	21.883	1258.196	997.173
-3.502	21.822	1257.403	996.159
-2.487	21.857	1256.717	995.772
-1.473	21.878	1251.500	991.719
-0.458	20.117	1237.046	970.376
0.556	15.501	1222.137	932.873
1.571	11.951	1229.829	918.783
2.586	11.221	1245.826	926.503
3.600	11.395	1233.167	917.985
4.615	8.512	1162.182	849.765
5.629	3.277	1092.870	772.793
6.644	0.826	1076.426	748.973
7.659	0.737	1074.674	747.248
8.673	0.648	1074.166	746.388
9.688	0.700	1072.583	745.480
10.702	0.920	1069.992	744.694
11.717	3.965	1073.787	762.285
12.731	10.422	1081.704	799.795
13.746	15.564	1088.634	830.323
14.761	17.203	1090.779	839.999
15.775	16.577	1088.841	835.339
16.790	15.609	1086.760	828.898
17.804	14.942	1085.161	824.320
18.819	14.534	1084.110	821.438
19.834	14.334	1083.147	819.651
20.848	14.017	1082.423	817.473
21.863	13.896	1081.468	816.084
22.877	13.745	1080.587	814.606
23.892	13.724	1079.898	813.912
24.907	13.628	1079.594	813.137
25.921	13.633	1078.742	812.449
26.936	13.719	1077.620	811.953
27.950	13.738	1076.723	811.299
28.965	13.740	1075.666	810.442
29.980	13.856	1074.132	809.777
30.994	13.945	1072.684	809.049
32.009	13.900	1072.002	808.244
33.023	13.799	1070.761	806.744
34.038	13.964	1069.906	806.830
35.053	13.790	1069.514	805.622
36.067	13.771	1068.395	804.615
37.082	13.859	1067.507	804.299
38.096	13.865	1067.008	803.885
39.111	13.738	1066.312	802.673
40.126	13.713	1065.075	801.552
41.140	13.827	1063.454	800.811
42.155	13.641	1062.429	799.069
43.169	13.690	1061.320	798.401
44.184	13.650	1060.733	797.699
45.199	13.618	1059.712	796.703
46.213	13.599	1058.710	795.789
47.228	13.751	1057.424	795.482
48.242	13.840	1056.245	794.952
49.257	13.648	1055.742	793.582
50.271	13.735	1054.627	793.088
51.286	13.899	1053.423	792.896
52.301	13.785	1052.707	791.744
53.315	13.842	1051.409	790.970
54.330	13.805	1050.626	790.134
55.344	13.684	1049.866	788.918
56.359	13.733	1048.821	788.295
57.374	13.805	1047.803	787.804
58.388	13.710	1047.442	787.010
59.403	13.640	1046.297	785.748
60.417	13.696	1045.343	785.226
61.432	13.654	1044.777	784.534
62.447	13.617	1043.657	783.448
63.461	13.614	1043.116	782.958
64.476	13.615	1042.217	782.220
65.490	13.537	1041.476	781.228
66.505	13.620	1040.613	780.902
67.520	13.700	1039.824	780.617
68.534	13.629	1039.320	779.833
69.549	13.651	1038.141	778.986
70.563	13.578	1037.708	778.249
71.578	13.525	1037.110	777.480
72.593	13.532	1035.958	776.584
73.607	13.568	1035.395	776.260
74.622	13.646	1035.049	776.298
75.636	13.639	1034.025	775.427
76.651	13.490	1033.275	774.102
77.666	13.574	1032.748	774.028
78.680	13.488	1032.469	773.353
79.695	13.500	1031.675	772.744
80.709	13.625	1031.062	772.800
81.724	13.726	1029.869	772.309
82.739	13.709	1029.456	771.851
83.753	13.842	1028.289	771.527
84.768	13.809	1027.473	770.689
85.782	13.836	1026.661	770.141
86.797	13.765	1025.988	769.239
87.812	13.814	1024.819	768.520
88.826	13.765	1023.677	767.367
89.841	13.820	1022.584	766.733
90.855	13.783	1021.945	766.014
91.870	13.807	1021.251	765.539
92.884	13.777	1020.724	764.938
93.899	13.857	1019.663	764.445
94.914	13.906	1018.933	764.053
95.928	13.850	1017.750	762.841
96.943	13.783	1017.211	762.062
97.957	13.836	1016.119	761.424
98.972	13.825	1015.441	760.794
99.987	13.843	1014.158	759.849
101.001	13.788	1012.943	758.621
102.016	13.713	1012.126	757.597
103.030	13.986	1011.458	758.280
104.045	13.891	1010.565	757.108
105.060	13.802	1010.190	756.357
106.074	13.824	1008.612	755.206
107.089	13.653	1007.939	753.858
108.103	13.791	1006.977	753.700
109.118	13.833	1006.037	753.117
110.133	13.758	1005.219	752.101
111.147	13.693	1004.672	751.329
112.162	13.653	1003.847	750.465
113.176	13.836	1002.850	750.483
114.191	13.899	1001.924	750.007
115.206	13.863	1001.015	749.099
116.220	13.835	1000.765	748.718
117.235	13.914	999.165	747.811
118.249	13.941	998.434	747.318
119.264	13.786	998.115	746.316
120.279	13.843	997.449	746.006
121.293	13.787	996.653	745.094
122.308	13.914	995.491	744.732
123.322	13.797	994.562	743.446
124.337	13.719	993.774	742.442
125.352	13.777	992.227	741.479
126.366	13.857	991.050	740.892
127.381	13.730	990.317	739.710
128.395	13.795	989.409	739.257
129.410	13.533	988.878	737.630
130.424	13.810	987.782	737.977
131.439	13.865	986.543	737.231
132.454	13.915	985.947	736.940
133.468	13.822	984.958	735.723
134.483	13.747	984.325	734.855
135.497	13.901	983.288	734.698
136.512	13.824	982.434	733.653
137.527	13.898	981.768	733.419
138.541	13.749	981.259	732.314
139.556	13.893	980.146	732.053
140.570	13.884	979.699	731.619
141.585	13.915	978.752	730.982
142.600	13.912	977.962	730.316
143.614	13.947	976.932	729.635
144.629	14.024	976.544	729.619
145.643	14.004	975.289	728.528
146.658	14.078	974.203	727.976
147.673	14.080	973.165	727.145
148.687	13.896	972.536	725.806
149.702	13.895	971.800	725.190
150.716	14.007	970.961	724.986
151.731	13.998	970.204	724.318
152.746	14.029	969.474	723.845
153.760	13.999	968.738	723.100
154.775	14.000	968.094	722.561
155.789	14.084	967.717	722.581
156.804	14.044	967.034	721.830
157.819	14.131	966.529	721.768
158.833	14.118	965.988	721.243
159.848	14.168	964.670	720.413
160.862	14.147	963.637	719.488
161.877	14.039	962.974	718.463
162.892	14.151	961.548	717.815
163.906	14.102	961.168	717.257
164.921	14.154	960.090	716.616
165.935	14.261	959.553	716.611
166.950	14.063	958.641	715.016
167.964	14.043	957.900	714.315
168.979	14.237	956.408	713.968
169.994	14.194	955.800	713.269
171.008	14.223	954.913	712.670
172.023	14.396	953.768	712.489
173.037	14.370	953.473	712.097
174.052	14.228	952.589	710.764
175.067	14.120	952.475	710.158
176.081	14.176	951.927	709.924
177.096	14.368	950.834	709.864
178.110	14.205	950.632	708.956
179.125	14.223	950.025	708.516
180.140	14.322	949.207	708.264
181.154	14.222	948.690	707.391
182.169	14.402	948.340	707.832
183.183	14.253	948.186	707.023
184.198	14.498	946.375	706.647
185.213	14.328	946.225	705.753
186.227	14.336	945.799	705.406
187.242	14.379	944.893	704.849
188.256	14.545	944.237	705.001
189.271	14.338	943.738	703.690
190.286	14.286	943.037	702.888
191.300	14.402	942.087	702.607
192.315	14.366	941.299	701.806
193.329	14.326	940.891	701.271
194.344	14.444	939.997	701.036
195.359	14.390	939.576	700.435
196.373	14.521	939.034	700.520
197.388	14.588	938.454	700.306
198.402	14.581	938.189	700.016
199.417	14.550	937.373	699.214
200.432	14.592	936.737	698.856
201.446	14.710	935.836	698.614
202.461	14.795	935.290	698.501
203.475	14.758	935.096	698.139
204.490	14.670	934.226	697.062
205.504	14.662	933.777	696.632
206.519	14.632	932.830	695.738
207.534	14.688	932.105	695.369
208.548	14.734	931.590	695.112
209.563	14.587	930.882	693.913
210.577	14.673	930.179	693.686
211.592	14.836	929.095	693.493
212.607	14.691	928.729	692.556
213.621	14.744	927.918	692.111
214.636	14.853	926.576	691.498
215.650	14.847	926.263	691.177
216.665	14.947	925.717	691.124
217.680	14.861	925.161	690.290
218.694	14.931	924.332	689.901
219.709	14.982	923.712	689.587
220.723	14.857	923.230	688.652
221.738	14.854	922.531	688.057
222.753	14.964	921.507	687.683
223.767	15.020	920.887	687.392
224.782	15.042	920.063	686.805
225.796	15.117	919.852	686.896
226.811	14.940	919.333	685.720
227.826	15.015	918.484	685.333
228.840	14.979	917.650	684.502
229.855	14.988	916.830	683.870
230.869	15.021	916.078	683.383
231.884	15.076	915.525	683.135
232.899	15.117	914.744	682.659
233.913	15.068	914.072	681.896
234.928	15.061	913.521	681.396
235.942	14.948	912.727	680.286
236.957	14.953	912.307	679.930
237.972	14.935	911.977	679.551
238.986	14.954	911.451	679.176
240.001	15.101	910.341	678.885
241.015	15.074	909.779	678.299
242.030	15.191	908.809	677.987
243.045	14.988	908.725	677.044
244.059	15.181	907.920	677.164
245.074	15.236	907.116	676.725
246.088	15.286	906.065	676.084
247.103	15.255	905.674	675.605
248.117	15.191	905.569	675.210
249.132	15.293	904.477	674.749
250.147	15.419	903.881	674.750
251.161	15.545	903.323	674.778
252.176	15.481	902.608	673.930
253.190	15.482	902.029	673.440
254.205	15.616	901.191	673.294
255.220	15.379	900.978	672.126
256.234	15.471	900.113	671.788
257.249	15.467	899.595	671.326
258.263	15.446	898.696	670.512
259.278	15.578	897.832	670.337
260.293	15.516	897.471	669.758
261.307	15.557	896.776	669.346
262.322	15.620	896.454	669.298
263.336	15.581	895.343	668.254
264.351	15.733	894.631	668.266
265.366	15.606	894.515	667.615
266.380	15.785	893.148	667.244
267.395	15.791	892.711	666.883
268.409	15.738	892.078	666.144
269.424	15.703	891.273	665.345
270.439	15.721	890.406	664.708
271.453	15.729	890.155	664.494
272.468	15.845	889.309	664.261
273.482	15.907	888.996	664.212
274.497	15.747	888.267	662.981
275.512	15.825	887.452	662.620
276.526	15.876	886.936	662.376
277.541	15.846	886.483	661.861
278.555	15.769	886.233	661.316
279.570	15.843	885.340	660.878
280.585	15.825	884.979	660.481
281.599	15.911	883.880	659.940
282.614	15.877	883.253	659.278
283.628	15.934	882.937	659.208
284.643	15.973	881.876	658.512
285.657	16.018	881.023	657.992
286.672	16.070	880.758	657.938
287.687	16.111	880.166	657.598
288.701	16.053	879.521	656.832
289.716	16.153	878.866	656.674
290.730	16.121	878.348	656.104
291.745	16.001	878.020	655.333
292.760	16.084	877.063	654.886
293.774	16.174	876.442	654.712
294.789	16.191	875.640	654.119
295.803	16.094	875.069	653.259
296.818	16.018	874.896	652.778
297.833	16.225	873.473	652.461
298.847	16.058	873.179	651.537
299.862	16.245	872.348	651.582
300.876	16.144	872.353	651.139
301.891	16.266	871.543	650.947
302.906	16.307	870.984	650.628
303.920	16.363	870.622	650.516
304.935	16.489	869.744	650.289
305.949	16.428	869.009	649.446
306.964	16.242	868.754	648.484
307.979	16.452	867.621	648.385
308.993	16.474	867.246	648.133
310.008	16.340	866.911	647.312
311.022	16.448	866.063	647.033
312.037	16.406	865.765	646.596
313.052	16.553	864.781	646.363
314.066	16.325	864.454	645.191
315.081	16.408	863.491	644.731
316.095	16.422	863.481	644.721
317.110	16.462	862.672	644.213
318.125	16.578	861.982	644.083
319.139	16.441	861.808	643.372
320.154	16.491	861.380	643.187
321.168	16.524	861.019	642.985
322.183	16.418	859.837	641.644
323.197	16.526	859.190	641.515
324.212	16.564	859.046	641.493
325.227	16.697	858.281	641.369
326.241	16.515	858.032	640.438
327.256	16.423	857.728	639.805
328.270	16.570	856.690	639.532
329.285	16.596	856.491	639.422
330.300	16.417	855.564	638.001
331.314	16.692	854.847	638.446
332.329	16.583	854.724	637.887
333.343	16.630	854.257	637.657
334.358	16.669	853.665	637.306
335.373	16.641	853.358	636.918
336.387	16.661	853.272	636.871
337.402	16.824	852.595	636.921
338.416	16.662	852.574	636.239
339.431	16.717	851.662	635.711
340.446	16.681	851.674	635.526
341.460	16.780	851.101	635.415
342.475	16.863	850.822	635.464
343.489	16.880	850.151	634.967
344.504	16.918	849.736	634.745
345.519	16.973	849.106	634.424
346.533	17.021	848.384	634.006
347.548	16.824	847.979	632.914
348.562	16.870	847.700	632.821
349.577	16.924	847.263	632.641
350.592	17.036	846.288	632.273
351.606	16.825	845.870	631.119
352.621	16.981	845.008	631.000
353.635	16.881	844.648	630.304
354.650	17.065	843.218	629.863
355.665	17.002	842.905	629.341
356.679	17.114	842.237	629.201
357.694	16.951	841.827	628.236
358.708	17.071	841.466	628.355
359.723	17.183	840.189	627.761
360.738	17.131	840.231	627.543
361.752	17.010	839.864	626.765
362.767	17.173	838.922	626.608
363.781	17.151	838.104	625.861
364.796	17.201	837.684	625.678
365.810	17.255	837.560	625.727
366.825	17.219	837.528	625.515
367.840	17.309	836.374	624.931
368.854	17.305	836.121	624.672
369.869	17.326	835.727	624.396
370.883	17.357	835.489	624.281
371.898	17.365	834.690	623.658
372.913	17.370	834.516	623.490
373.927	17.324	834.529	623.274
374.942	17.258	833.578	622.266
375.956	17.434	833.249	622.611
376.971	17.348	832.520	621.697
377.986	17.555	832.431	622.331
379.000	17.673	831.603	622.088
380.015	17.576	831.004	621.230
381.029	17.522	830.830	620.849
382.044	17.546	829.871	620.166
383.059	17.808	829.072	620.468
384.073	17.686	828.700	619.688
385.088	17.550	828.303	618.846
386.102	17.673	827.380	618.546
387.117	17.602	827.020	617.964
388.132	17.479	826.606	617.154
389.146	17.535	826.142	616.956
390.161	17.539	825.662	616.558
391.175	17.538	825.428	616.326
392.190	17.584	824.603	615.822
393.205	17.584	824.299	615.538
394.219	17.655	824.115	615.604
395.234	17.606	823.670	615.040
396.248	17.571	823.173	614.488
397.263	17.523	822.735	613.933
398.278	17.747	822.139	614.241
399.292	17.819	821.249	613.783
400.307	17.773	821.133	613.474
401.321	17.850	820.804	613.450
402.336	17.791	820.069	612.637
403.350	17.723	820.096	612.356
404.365	17.768	819.650	612.132
405.380	17.779	819.154	611.746
406.394	17.812	818.683	611.460
407.409	17.768	818.142	610.842
408.423	17.785	817.744	610.552
409.438	17.914	817.275	610.612
410.453	17.946	816.887	610.382
411.467	18.077	816.377	610.415
412.482	18.003	815.941	609.770
413.496	18.109	815.558	609.807
414.511	17.962	815.183	608.949
415.526	18.133	814.805	609.224
416.540	18.248	814.142	609.084
417.555	18.084	813.732	608.137
418.569	18.097	813.305	607.813
419.584	18.094	812.971	607.497
420.599	18.190	812.328	607.303
421.613	115.907	1300.055	1490.682
422.628	100.373	1371.061	1490.753
