DTS Sentinel unit serial number:	SN413079Multiplexer serial number:	ORYXHardware model number:	OX4-SRSoftware version number:	ORYX F/W v4.00 Oryx Data Collector v3.7.2.0data status	okinstallation	princeton_trtdifferential loss correction	single-endedforward channel	channel 1reverse channel	N/Adate	2019/09/12time	08:20:11forward acquisition time	60.00reverse acquisition time	0.00gamma	496.2192k internal	0.2313k external	0.2313temperature offset calibration	1.0039default loss term (dB/km)	0.3790temperature slope calibration	1.0000multiplexer offset coefficient	1.0000multiplexer slope coefficient	1.0000fibre end	0.00T internal ref (°C)	33.48T ext. ref 1 (°C)	1.69T ext. ref 2 (°C)	30.14length (m)	temperature (°C)	Stokes	anti-Stokes-747.200	-5.281	-0.014	0.010
-746.185	-63.982	-0.266	0.110
-745.171	-47.797	0.245	0.121
-744.156	222.306	-0.136	-0.221
-743.142	666.637	0.071	0.187
-742.127	-142.217	0.162	0.016
-741.112	800.000	0.048	-0.138
-740.098	2.323	0.092	0.068
-739.083	-48.184	0.284	0.139
-738.069	184.703	-0.144	0.217
-737.054	-91.844	0.492	-0.141
-736.039	-59.982	-0.133	0.058
-735.025	-87.670	-0.375	0.115
-734.010	294.388	-0.050	0.092
-732.996	-96.027	0.098	-0.026
-731.981	-16.383	0.160	-0.103
-730.966	-25.175	-0.145	-0.087
-729.952	-118.450	-0.322	0.058
-728.937	-19.385	-0.263	0.165
-727.923	-122.338	-0.085	-0.014
-726.908	-106.494	-0.188	0.043
-725.894	-119.872	-0.071	0.012
-724.879	213.922	-0.165	0.265
-723.864	515.520	-0.062	-0.146
-722.850	67.732	-0.143	0.148
-721.835	800.000	0.020	-0.063
-720.821	-200.000	0.000	0.276
-719.806	-101.121	-0.416	0.103
-718.791	-120.718	0.255	0.044
-717.777	800.000	0.111	-0.434
-716.762	350.990	-0.134	0.269
-715.748	48.831	0.194	0.184
-714.733	-140.409	0.314	-0.033
-713.718	-105.187	-0.269	0.062
-712.704	-20.295	-0.180	0.112
-711.689	268.103	-0.128	-0.226
-710.675	800.000	-0.055	0.227
-709.660	-139.948	0.288	0.031
-708.645	800.000	0.048	-0.197
-707.631	623.250	0.048	-0.123
-706.616	-24.565	0.250	-0.151
-705.602	800.000	-0.057	0.240
-704.587	-77.707	-0.405	0.142
-703.572	-110.242	-0.351	-0.074
-702.558	-124.010	-0.251	0.040
-701.543	50.544	-0.112	0.107
-700.529	800.000	-0.130	-0.375
-699.514	163.601	-0.049	0.070
-698.499	-200.000	0.005	0.097
-697.485	800.000	0.039	0.110
-696.470	-200.000	0.031	0.320
-695.456	800.000	-0.023	0.068
-694.441	26.248	-0.091	-0.077
-693.426	89.887	0.114	-0.128
-692.412	-119.631	-0.287	-0.050
-691.397	287.228	-0.043	-0.079
-690.383	-200.000	-0.002	-0.194
-689.368	42.641	-0.137	0.126
-688.354	-84.290	0.271	-0.087
-687.339	-200.000	-0.007	-0.053
-686.324	180.105	-0.176	-0.261
-685.310	169.882	-0.123	-0.177
-684.295	-18.927	-0.252	-0.159
-683.281	21.135	-0.280	0.230
-682.266	-4.128	-0.379	-0.266
-681.251	-200.000	-0.018	-0.131
-680.237	81.084	0.209	-0.228
-679.222	800.000	-0.031	-0.091
-678.208	-124.059	-0.236	-0.038
-677.193	-200.000	0.005	-0.192
-676.178	110.386	-0.154	-0.187
-675.164	-200.000	0.037	0.324
-674.149	800.000	-0.114	-0.338
-673.135	-200.000	0.011	0.100
-672.120	-92.546	0.253	0.072
-671.105	-200.000	-0.023	0.104
-670.091	197.861	-0.087	-0.135
-669.076	82.374	0.141	0.155
-668.062	-121.987	0.043	-0.007
-667.047	-200.000	-0.009	0.170
-666.032	48.666	-0.094	0.089
-665.018	-91.867	0.221	0.064
-664.003	17.985	-0.136	0.109
-662.989	110.360	0.074	-0.090
-661.974	-70.915	-0.165	0.063
-660.959	371.955	-0.246	-0.505
-659.945	-47.265	-0.094	-0.046
-658.930	-87.014	-0.172	-0.053
-657.916	529.932	-0.263	-0.629
-656.901	-44.872	0.181	0.091
-655.886	39.989	-0.109	-0.099
-654.872	-161.064	0.075	0.004
-653.857	150.778	0.233	-0.320
-652.843	-200.000	-0.026	-0.184
-651.828	184.772	0.260	-0.390
-650.814	-67.387	0.119	0.047
-649.799	-200.000	-0.009	0.338
-648.784	-200.000	-0.046	-0.346
-647.770	63.885	-0.187	-0.190
-646.755	226.477	-0.177	-0.290
-645.741	190.570	-0.269	0.409
-644.726	800.000	-0.122	0.414
-643.711	-200.000	0.014	-0.080
-642.697	35.433	-0.189	-0.167
-641.682	124.722	-0.175	-0.223
-640.668	-30.750	0.188	0.108
-639.653	-200.000	0.012	0.108
-638.638	162.088	-0.086	0.122
-637.624	412.885	0.165	-0.354
-636.609	-49.505	-0.233	0.112
-635.595	128.538	0.082	0.106
-634.580	-200.000	-0.027	-0.139
-633.565	-200.000	-0.022	-0.117
-632.551	5.274	0.124	-0.092
-631.536	-200.000	0.013	-0.061
-630.522	8.977	-0.192	-0.146
-629.507	800.000	0.125	-0.398
-628.492	10.148	-0.087	-0.067
-627.478	-200.000	0.035	0.191
-626.463	162.295	-0.101	0.143
-625.449	-97.362	0.274	0.072
-624.434	800.000	-0.051	0.200
-623.419	-200.000	-0.022	-0.299
-622.405	171.995	-0.140	0.203
-621.390	-75.836	0.197	0.071
-620.376	-78.074	-0.041	0.014
-619.361	800.000	0.048	0.140
-618.346	-92.810	-0.481	-0.136
-617.332	-126.292	-0.049	0.007
-616.317	-28.997	0.134	0.078
-615.303	16.094	0.182	0.145
-614.288	27.636	-0.174	-0.148
-613.273	-107.998	-0.285	-0.062
-612.259	-200.000	0.045	0.215
-611.244	800.000	-0.012	0.034
-610.230	-200.000	0.030	0.209
-609.215	155.727	-0.089	0.123
-608.201	131.569	0.130	-0.168
-607.186	302.845	0.090	0.169
-606.171	-110.344	-0.400	-0.084
-605.157	-5.737	-0.126	-0.087
-604.142	238.417	0.179	-0.299
-603.128	-83.220	-0.204	-0.066
-602.113	-134.213	0.050	0.006
-601.098	-186.614	0.128	0.002
-600.084	-74.511	0.058	0.021
-599.069	-119.822	-0.039	-0.007
-598.055	213.300	-0.137	0.218
-597.040	-135.921	0.061	-0.007
-596.025	266.842	-0.085	-0.150
-595.011	419.938	-0.032	0.069
-593.996	-132.225	0.232	-0.030
-592.982	500.590	0.092	-0.215
-591.967	-172.259	-0.266	0.009
-590.952	-53.192	-0.175	-0.081
-589.938	134.650	0.095	-0.124
-588.923	-117.948	0.121	0.022
-587.909	-200.000	0.012	-0.053
-586.894	-200.000	-0.003	0.409
-585.879	-200.000	0.024	0.292
-584.865	371.987	0.022	-0.045
-583.850	635.277	0.052	-0.133
-582.836	-119.038	-0.186	0.033
-581.821	39.482	-0.079	0.072
-580.806	-34.213	-0.171	-0.095
-579.792	-61.260	-0.294	0.125
-578.777	800.000	0.029	-0.114
-577.763	-200.000	0.028	-0.218
-576.748	-43.747	0.074	-0.037
-575.733	-4.213	-0.115	-0.080
-574.719	84.912	0.138	-0.152
-573.704	144.152	0.064	-0.086
-572.690	-44.294	-0.218	-0.110
-571.675	5.248	0.237	-0.176
-570.661	-46.544	-0.144	0.071
-569.646	-44.876	-0.074	0.037
-568.631	-113.868	-0.364	0.071
-567.617	305.192	0.108	-0.202
-566.602	181.894	-0.078	0.115
-565.588	69.964	0.214	0.223
-564.573	-187.331	-0.211	0.003
-563.558	193.678	0.025	-0.038
-562.544	-18.207	-0.180	0.113
-561.529	129.764	0.130	0.168
-560.515	163.935	0.170	-0.241
-559.500	-100.560	0.184	-0.046
-558.485	-51.539	0.266	0.125
-557.471	-200.000	-0.035	0.272
-556.456	-106.361	-0.523	-0.118
-555.442	138.709	-0.253	0.335
-554.427	-102.628	0.249	-0.060
-553.412	6.398	0.155	-0.116
-552.398	146.733	-0.037	0.050
-551.383	800.000	0.063	0.194
-550.369	-21.066	0.167	0.103
-549.354	287.031	0.129	0.235
-548.339	-36.806	-0.313	0.169
-547.325	-115.367	0.096	-0.018
-546.310	-64.300	0.157	0.064
-545.296	-200.000	0.015	0.078
-544.281	-200.000	-0.025	-0.348
-543.266	-8.780	-0.100	-0.068
-542.252	86.559	-0.236	-0.262
-541.237	-148.186	-0.256	-0.021
-540.223	800.000	-0.042	0.157
-539.208	369.189	0.095	0.193
-538.193	-87.589	0.138	0.042
-537.179	38.291	-0.099	-0.089
-536.164	216.771	0.193	0.309
-535.150	-200.000	0.012	0.280
-534.135	-98.380	0.257	0.066
-533.121	615.402	0.126	-0.318
-532.106	800.000	-0.039	0.113
-531.091	-172.964	0.325	-0.010
-530.077	800.000	-0.074	-0.210
-529.062	170.389	-0.098	0.142
-528.048	800.000	0.047	0.152
-527.033	-200.000	0.006	-0.207
-526.018	118.338	0.247	-0.306
-525.004	-52.561	0.182	0.085
-523.989	-80.074	-0.307	0.104
-522.975	63.361	0.229	-0.230
-521.960	244.131	0.155	-0.261
-520.945	-200.000	0.058	0.294
-519.931	-200.000	0.003	-0.053
-518.916	423.586	-0.100	0.217
-517.902	-84.236	0.027	0.009
-516.887	-30.677	0.141	0.080
-515.872	329.729	-0.066	-0.128
-514.858	13.351	-0.082	0.064
-513.843	68.037	0.249	-0.256
-512.829	727.640	0.090	-0.241
-511.814	607.132	-0.071	-0.179
-510.799	101.288	-0.204	0.238
-509.785	-200.000	-0.012	0.155
-508.770	30.411	0.053	-0.045
-507.756	76.516	0.144	0.154
-506.741	-200.000	0.049	0.262
-505.726	146.556	0.101	0.136
-504.712	-158.553	-0.052	-0.003
-503.697	-85.900	-0.098	0.030
-502.683	-115.436	0.377	0.071
-501.668	-46.416	-0.276	-0.136
-500.653	-72.209	-0.179	-0.067
-499.639	48.229	0.181	-0.170
-498.624	-22.368	-0.166	-0.101
-497.610	-176.504	0.065	0.002
-496.595	-26.329	0.178	-0.105
-495.581	-200.000	0.506	0.002
-494.566	570.757	-0.066	-0.161
-493.551	-103.431	0.180	0.043
-492.537	297.462	0.167	-0.309
-491.522	345.198	-0.056	-0.111
-490.508	-2.854	-0.017	0.012
-489.493	96.186	-0.142	0.163
-488.478	-72.006	0.242	-0.090
-487.464	-200.000	0.010	-0.091
-486.449	-55.010	0.051	0.023
-485.435	-47.329	0.278	0.136
-484.420	-31.338	0.262	0.148
-483.405	800.000	-0.059	0.191
-482.391	35.688	-0.134	0.119
-481.376	-200.000	-0.012	-0.645
-480.362	-115.034	0.253	-0.048
-479.347	-200.000	-0.033	0.242
-478.332	-87.394	-0.270	-0.082
-477.318	50.094	0.122	-0.115
-476.303	-200.000	0.255	0.001
-475.289	-84.014	-0.283	-0.090
-474.274	-200.000	-0.026	-0.152
-473.259	115.094	0.366	0.448
-472.245	-50.047	-0.125	-0.059
-471.230	-26.187	-0.082	0.048
-470.216	-11.330	0.176	-0.116
-469.201	-200.000	0.043	0.210
-468.186	-27.844	-0.415	0.242
-467.172	154.270	-0.045	0.062
-466.157	766.780	-0.034	-0.093
-465.143	183.772	-0.128	-0.190
-464.128	39.904	-0.276	0.249
-463.113	115.417	-0.055	0.068
-462.099	800.000	0.134	0.375
-461.084	24.498	-0.118	-0.098
-460.070	-200.000	-0.009	0.117
-459.055	-132.143	-0.544	0.071
-458.040	800.000	-0.054	-0.205
-457.026	112.030	-0.185	0.225
-456.011	-95.078	0.161	-0.044
-454.997	800.000	-0.036	-0.142
-453.982	-200.000	0.036	0.191
-452.968	-114.964	-0.137	-0.026
-451.953	-99.805	0.266	0.067
-450.938	202.370	-0.152	-0.236
-449.924	-200.000	-0.121	0.543
-448.909	316.257	-0.031	-0.059
-447.895	-18.985	-0.113	-0.070
-446.880	-200.000	-0.035	-0.212
-445.865	-68.905	-0.226	0.088
-444.851	-137.127	-0.372	0.043
-443.836	6.847	-0.057	0.043
-442.822	-157.523	0.419	-0.025
-441.807	-122.932	0.502	-0.081
-440.792	112.985	-0.153	-0.185
-439.778	167.460	0.089	0.127
-438.763	116.832	0.155	-0.190
-437.749	-127.230	0.143	0.021
-436.734	-139.799	-0.584	-0.062
-435.719	537.770	0.149	0.354
-434.705	21.876	0.332	0.271
-433.690	143.512	0.144	-0.192
-432.676	235.901	0.101	-0.167
-431.661	-200.000	0.024	0.216
-430.646	-58.474	0.266	0.116
-429.632	800.000	-0.070	-0.260
-428.617	118.749	0.158	-0.195
-427.603	9.186	0.099	-0.075
-426.588	-200.000	0.013	0.257
-425.573	-114.984	-0.326	0.062
-424.559	-67.811	0.357	-0.140
-423.544	-26.018	0.177	-0.104
-422.530	-49.872	-0.165	-0.079
-421.515	-29.177	0.071	0.041
-420.500	119.910	-0.078	-0.097
-419.486	-54.211	0.115	-0.052
-418.471	-58.178	0.224	-0.098
-417.457	-200.000	-0.030	0.283
-416.442	154.428	0.063	0.086
-415.428	-73.967	0.199	-0.072
-414.413	-83.259	0.180	-0.058
-413.398	135.770	-0.086	0.112
-412.384	-145.913	0.106	0.009
-411.369	435.354	0.035	0.076
-410.355	92.746	0.075	0.084
-409.340	-200.000	-0.064	0.421
-408.325	-200.000	0.020	0.326
-407.311	753.375	-0.097	-0.262
-406.296	-200.000	-0.024	0.223
-405.282	-101.184	-0.241	-0.059
-404.267	-122.308	0.092	0.015
-403.252	-119.526	-0.145	-0.025
-402.238	-82.436	0.166	-0.054
-401.223	178.639	-0.114	-0.166
-400.209	-117.986	0.159	0.029
-399.194	236.946	-0.023	-0.037
-398.179	-200.000	-0.014	0.093
-397.165	-17.753	-0.229	-0.144
-396.150	-124.254	-0.284	-0.045
-395.136	-200.000	-0.010	-0.219
-394.121	-200.000	0.066	-0.353
-393.106	329.575	0.102	0.196
-392.092	-200.000	-0.027	0.343
-391.077	29.714	0.261	-0.222
-390.063	-68.081	0.219	-0.085
-389.048	-200.000	-0.033	-0.202
-388.033	271.681	0.066	-0.117
-387.019	174.400	-0.101	-0.146
-386.004	-91.801	0.073	-0.021
-384.990	-89.819	-0.144	-0.042
-383.975	-183.763	-0.273	0.005
-382.960	-129.314	0.293	0.041
-381.946	143.827	0.161	0.215
-380.931	-179.073	-0.383	0.009
-379.917	-200.000	-0.027	0.137
-378.902	-6.386	0.139	-0.095
-377.888	800.000	-0.026	-0.091
-376.873	25.786	0.057	-0.048
-375.858	-34.757	-0.346	-0.189
-374.844	174.098	-0.042	-0.060
-373.829	800.000	0.117	0.356
-372.815	123.089	-0.183	0.229
-371.800	-200.000	0.023	-0.304
-370.785	56.313	0.078	-0.076
-369.771	-107.544	0.097	0.021
-368.756	-185.972	0.324	-0.005
-367.742	216.622	-0.094	0.150
-366.727	-32.752	0.239	0.133
-365.712	-200.000	0.077	0.408
-364.698	-200.000	-0.011	0.288
-363.683	800.000	-0.045	-0.134
-362.669	-67.353	-0.299	0.117
-361.654	-178.906	-0.110	-0.002
-360.639	-200.000	-0.005	0.281
-359.625	-200.000	-0.019	-0.094
-358.610	-122.406	-0.177	0.029
-357.596	-119.705	-0.281	-0.049
-356.581	-116.260	-0.436	-0.081
-355.566	-75.374	-0.139	0.049
-354.552	-112.114	0.297	-0.060
-353.537	-143.348	-0.338	-0.032
-352.523	-165.573	-0.284	-0.012
-351.508	-200.000	-0.022	-0.179
-350.493	115.155	-0.197	0.241
-349.479	617.540	-0.076	-0.191
-348.464	295.090	0.151	-0.276
-347.450	-56.073	0.227	0.101
-346.435	800.000	0.059	0.165
-345.420	27.214	0.253	-0.212
-344.406	800.000	-0.019	-0.081
-343.391	-153.711	0.163	0.011
-342.377	168.713	-0.119	0.169
-341.362	2.398	0.098	0.071
-340.348	96.565	0.173	0.198
-339.333	800.000	-0.086	-0.344
-338.318	102.089	-0.063	-0.074
-337.304	105.691	-0.015	-0.018
-336.289	-4.007	-0.136	-0.094
-335.275	800.000	0.100	-0.368
-334.260	173.401	-0.265	-0.382
-333.245	-38.115	-0.189	-0.100
-332.231	57.047	0.075	0.073
-331.216	-80.980	0.377	-0.125
-330.202	16.273	0.207	-0.163
-329.187	117.714	-0.290	-0.357
-328.172	203.109	-0.129	-0.199
-327.158	800.000	0.081	0.318
-326.143	800.000	0.055	-0.157
-325.129	-200.000	0.084	0.000
-324.114	480.325	-0.044	0.101
-323.099	-58.849	-0.214	-0.092
-322.085	-200.000	-0.020	0.366
-321.070	-47.725	0.275	0.133
-320.056	10.955	0.278	-0.212
-319.041	-200.000	-0.045	-0.246
-318.026	-88.141	-0.264	0.079
-317.012	800.000	-0.077	0.229
-315.997	-125.225	-0.182	-0.028
-314.983	-63.259	0.248	0.102
-313.968	-103.776	-0.187	-0.044
-312.953	-122.012	-0.136	0.022
-311.939	663.302	0.128	0.330
-310.924	251.081	-0.063	-0.106
-309.910	800.000	0.031	-0.103
-308.895	115.635	0.126	-0.153
-307.880	-34.744	0.084	0.046
-306.866	35.675	-0.292	0.256
-305.851	122.828	-0.062	-0.078
-304.837	800.000	-0.127	0.372
-303.822	294.021	-0.069	0.126
-302.807	56.027	0.239	0.231
-301.793	179.415	0.152	0.221
-300.778	57.980	-0.239	0.233
-299.764	-90.507	-0.069	-0.020
-298.749	252.672	-0.101	0.172
-297.735	-39.636	-0.365	-0.190
-296.720	-154.350	0.249	0.017
-295.705	-200.000	0.001	-0.068
-294.691	-24.335	0.162	-0.096
-293.676	-104.035	0.291	-0.067
-292.662	-200.000	0.016	-0.167
-291.647	72.223	0.208	-0.215
-290.632	182.123	-0.073	0.108
-289.618	-44.765	-0.437	-0.217
-288.603	135.617	0.107	0.139
-287.589	-138.718	-0.064	-0.007
-286.574	-118.439	0.257	-0.045
-285.559	-25.841	-0.321	-0.188
-284.545	430.179	0.058	-0.125
-283.530	800.000	-0.055	0.189
-282.516	-200.000	-0.053	-0.445
-281.501	9.195	0.438	0.330
-280.486	-159.583	-0.066	-0.004
-279.472	-45.286	-0.175	-0.087
-278.457	600.773	0.050	-0.123
-277.443	-200.000	0.068	0.452
-276.428	800.000	0.090	0.306
-275.413	-65.519	0.140	-0.056
-274.399	18.636	0.265	0.211
-273.384	-118.023	0.328	-0.058
-272.370	40.739	-0.053	0.048
-271.355	-163.472	-0.238	0.011
-270.340	234.742	-0.104	-0.170
-269.326	244.089	-0.051	-0.086
-268.311	800.000	0.024	-0.099
-267.297	-200.000	0.043	0.199
-266.282	-140.560	0.245	0.025
-265.267	246.362	-0.143	-0.240
-264.253	-30.800	0.023	0.013
-263.238	178.545	-0.177	-0.257
-262.224	92.050	0.108	-0.121
-261.209	-200.000	-0.021	-0.130
-260.195	104.615	-0.079	0.092
-259.180	-200.000	-0.001	0.245
-258.165	-20.742	0.378	-0.231
-257.151	-48.094	0.188	0.091
-256.136	800.000	-0.085	0.256
-255.122	-91.657	0.052	0.015
-254.107	62.567	0.160	-0.159
-253.092	257.760	0.116	-0.199
-252.078	4.001	0.235	-0.171
-251.063	-153.398	0.170	-0.012
-250.049	-200.000	-0.027	-0.247
-249.034	-200.000	0.034	0.393
-248.019	-111.270	-0.377	-0.077
-247.005	800.000	0.096	0.375
-245.990	308.693	-0.120	-0.223
-244.976	155.617	-0.053	0.073
-243.961	-200.000	-0.027	0.122
-242.946	312.598	0.179	-0.335
-241.932	72.187	-0.057	-0.059
-240.917	-200.000	0.011	0.097
-239.903	204.544	0.067	0.104
-238.888	48.594	-0.123	-0.115
-237.873	-147.130	0.283	-0.024
-236.859	-29.170	0.147	0.084
-235.844	-200.000	0.009	0.259
-234.830	-58.670	-0.027	0.012
-233.815	-179.497	-0.271	-0.006
-232.800	-157.603	0.218	-0.013
-231.786	82.817	-0.182	-0.196
-230.771	-200.000	-0.002	-0.080
-229.757	-200.000	0.016	0.138
-228.742	-140.773	0.153	0.016
-227.727	-64.670	-0.322	-0.130
-226.713	-46.647	0.143	-0.070
-225.698	343.534	0.035	0.069
-224.684	-92.082	-0.193	-0.054
-223.669	-109.346	0.171	-0.036
-222.655	-200.000	-0.057	-0.277
-221.640	-200.000	0.000	0.022
-220.625	184.129	-0.095	0.139
-219.611	-200.000	0.025	0.279
-218.596	-150.574	0.227	-0.017
-217.582	232.891	-0.143	-0.233
-216.567	-19.325	0.148	-0.091
-215.552	-15.818	0.073	0.046
-214.538	417.848	0.148	-0.314
-213.523	-167.875	-0.286	0.011
-212.509	800.000	-0.043	-0.167
-211.494	103.619	-0.161	0.188
-210.479	46.558	0.281	-0.259
-209.465	800.000	-0.049	0.190
-208.450	181.739	0.095	-0.139
-207.436	-200.000	-0.019	0.182
-206.421	-18.622	-0.346	0.214
-205.406	87.035	-0.181	0.198
-204.392	-119.897	-0.052	-0.009
-203.377	361.359	0.185	-0.369
-202.363	800.000	-0.079	-0.280
-201.348	1.283	0.133	0.095
-200.333	347.006	-0.088	-0.171
-199.319	482.848	0.058	0.131
-198.304	-200.000	-0.003	-0.195
-197.290	-134.950	-0.191	0.023
-196.275	48.068	-0.230	-0.213
-195.260	-200.000	-0.018	-0.211
-194.246	635.358	0.036	-0.092
-193.231	800.000	0.036	0.112
-192.217	639.574	0.111	0.281
-191.202	-78.085	-0.118	0.040
-190.187	-200.000	-0.002	0.040
-189.173	26.333	0.175	-0.145
-188.158	234.410	0.164	-0.269
-187.144	800.000	0.023	0.083
-186.129	-167.411	0.150	-0.006
-185.114	124.135	0.109	0.135
-184.100	76.378	-0.051	-0.054
-183.085	-103.964	0.210	-0.049
-182.071	445.128	0.027	0.060
-181.056	133.589	0.044	0.057
-180.042	-170.148	-0.102	-0.004
-179.027	198.936	0.238	0.361
-178.012	29.145	0.125	-0.105
-176.998	-143.177	-0.185	0.018
-175.983	413.196	-0.217	0.458
-174.969	385.668	0.043	0.089
-173.954	-187.965	0.356	0.005
-172.939	305.035	-0.138	-0.254
-171.925	-200.000	-0.003	0.122
-170.910	800.000	-0.015	-0.053
-169.896	-11.109	-0.242	0.158
-168.881	800.000	-0.165	0.480
-167.866	80.599	0.106	-0.113
-166.852	800.000	0.068	0.285
-165.837	117.619	-0.102	-0.125
-164.823	-39.716	-0.324	0.168
-163.808	-104.967	-0.144	0.033
-162.793	-85.330	-0.242	0.075
-161.779	-3.784	0.212	-0.146
-160.764	14.124	-0.132	-0.102
-159.750	64.836	-0.196	-0.196
-158.735	-42.939	-0.106	0.054
-157.720	167.172	-0.181	-0.255
-156.706	-134.436	0.166	-0.020
-155.691	232.100	0.131	0.213
-154.677	-11.262	0.337	-0.220
-153.662	-23.469	0.172	-0.102
-152.647	800.000	0.033	0.132
-151.633	-200.000	0.032	-0.160
-150.618	325.305	0.131	-0.249
-149.604	-165.735	-0.178	-0.008
-148.589	-73.101	-0.204	-0.074
-147.574	-200.000	0.031	-0.338
-146.560	-56.139	0.409	0.180
-145.545	800.000	0.140	-0.475
-144.531	800.000	0.018	-0.072
-143.516	-200.000	-0.020	0.396
-142.502	-121.919	0.161	0.026
-141.487	-95.529	-0.151	0.040
-140.472	-66.418	-0.101	0.040
-139.458	-200.000	-0.010	-0.285
-138.443	-10.849	0.133	0.087
-137.429	-200.000	-0.008	0.074
-136.414	-200.000	-0.001	-0.107
-135.399	-38.275	-0.042	-0.022
-134.385	-200.000	0.055	0.261
-133.370	800.000	0.092	0.294
-132.356	-200.000	-0.045	0.372
-131.341	1.934	0.102	0.073
-130.326	282.972	-0.086	-0.154
-129.312	198.736	0.110	0.167
-128.297	800.000	0.052	-0.202
-127.283	152.117	-0.072	0.097
-126.268	280.094	-0.122	0.216
-125.253	24.941	0.032	-0.026
-124.239	-124.882	0.257	-0.039
-123.224	-96.198	0.073	0.019
-122.210	-88.325	-0.165	-0.049
-121.195	275.424	0.149	-0.262
-120.180	7.033	0.173	0.128
-119.166	-183.234	0.348	0.006
-118.151	137.398	0.150	-0.194
-117.137	-127.219	0.202	0.029
-116.122	-171.255	-0.175	0.006
-115.107	31.513	-0.097	-0.082
-114.093	-67.816	0.278	-0.107
-113.078	335.646	0.156	0.299
-112.064	-200.000	-0.015	0.071
-111.049	-200.000	0.011	0.251
-110.034	343.356	-0.192	0.373
-109.020	-105.404	-0.110	-0.025
-108.005	407.103	0.011	-0.024
-106.991	-200.000	-0.021	-0.136
-105.976	106.567	-0.043	-0.051
-104.962	800.000	-0.092	-0.289
-103.947	197.522	-0.075	0.114
-102.932	172.975	-0.083	-0.119
-101.918	455.921	0.047	-0.102
-100.903	15.356	-0.149	-0.115
-99.889	254.421	0.086	0.145
-98.874	-20.434	0.297	0.180
-97.859	-200.000	0.021	-0.117
-96.845	-128.115	0.161	-0.023
-95.830	800.000	-0.179	-0.525
-94.816	-72.642	-0.268	-0.098
-93.801	-102.809	0.148	0.035
-92.786	-28.142	0.200	-0.114
-91.772	300.985	0.237	0.433
-90.757	283.502	0.181	0.322
-89.743	30.459	-0.274	0.231
-88.728	-128.443	-0.113	-0.016
-87.713	790.663	-0.100	-0.273
-86.699	304.090	0.074	0.136
-85.684	-23.010	0.181	0.108
-84.670	-200.000	0.006	-0.031
-83.655	-87.175	-0.127	0.038
-82.640	-200.000	0.033	0.197
-81.626	-116.995	0.075	0.014
-80.611	-29.365	0.199	0.113
-79.597	-53.657	0.161	-0.073
-78.582	800.000	0.097	-0.265
-77.567	-171.802	-0.118	-0.004
-76.553	-70.974	0.109	0.041
-75.538	-95.621	0.640	0.169
-74.524	-97.620	-0.099	0.025
-73.509	-200.000	0.035	0.237
-72.494	-200.000	0.088	0.456
-71.480	-143.536	-0.230	-0.022
-70.465	137.501	-0.179	0.232
-69.451	-200.000	-0.020	-0.152
-68.436	93.895	-0.085	0.095
-67.422	-200.000	-0.061	-0.471
-66.407	-0.007	-0.209	-0.147
-65.392	-67.100	-0.066	0.026
-64.378	-200.000	0.015	0.350
-63.363	582.543	0.075	0.182
-62.349	404.704	0.051	0.107
-61.334	43.340	-0.937	-0.846
-60.319	68.419	0.435	0.441
-59.305	800.000	-0.277	-0.917
-58.290	342.748	0.506	0.979
-57.276	543.417	0.586	1.380
-56.261	-200.000	98.686	595.831
-55.246	534.620	1417.638	3317.584
-54.232	149.338	2618.105	3498.892
-53.217	112.720	2173.393	2598.117
-52.203	45.109	1622.698	1476.027
-51.188	36.896	1358.089	1185.307
-50.173	33.686	1315.835	1129.319
-49.159	56.593	1365.183	1310.927
-48.144	59.969	1382.574	1347.978
-47.130	37.258	1337.361	1169.210
-46.115	33.621	1319.940	1132.270
-45.100	33.515	1314.763	1127.156
-44.086	33.424	1312.710	1124.811
-43.071	33.349	1310.413	1122.354
-42.057	33.182	1308.305	1119.514
-41.042	33.330	1306.622	1118.905
-40.027	33.385	1305.231	1117.997
-39.013	33.419	1303.094	1116.320
-37.998	33.398	1301.533	1114.815
-36.984	33.434	1299.901	1113.585
-35.969	33.515	1297.726	1112.150
-34.954	33.464	1296.376	1110.651
-33.940	33.640	1294.812	1110.296
-32.925	33.481	1294.022	1108.645
-31.911	33.585	1291.484	1107.035
-30.896	33.636	1290.153	1106.149
-29.881	33.571	1289.248	1104.951
-28.867	33.612	1287.982	1104.058
-27.852	33.551	1286.561	1102.441
-26.838	33.640	1284.615	1101.246
-25.823	33.518	1283.696	1099.706
-24.809	33.507	1282.280	1098.386
-23.794	33.572	1280.373	1097.085
-22.779	33.578	1279.380	1096.230
-21.765	33.696	1278.244	1095.891
-20.750	33.505	1277.308	1093.945
-19.736	33.544	1275.765	1092.804
-18.721	33.444	1274.900	1091.443
-17.706	33.476	1273.403	1090.299
-16.692	33.537	1272.069	1089.469
-15.677	33.499	1271.030	1088.319
-14.663	33.357	1270.508	1087.009
-13.648	33.471	1269.033	1086.358
-12.633	33.425	1267.678	1084.893
-11.619	33.417	1267.401	1084.567
-10.604	33.408	1266.757	1083.921
-9.590	33.341	1265.688	1082.581
-8.575	33.300	1264.624	1081.392
-7.560	33.417	1263.508	1081.066
-6.546	33.449	1262.775	1080.577
-5.531	33.299	1262.041	1079.048
-4.517	33.356	1261.234	1078.640
-3.502	33.441	1260.379	1078.353
-2.487	33.477	1258.938	1077.280
-1.473	33.506	1255.164	1074.172
-0.458	32.320	1241.144	1055.480
0.556	28.874	1223.727	1019.166
1.571	25.410	1229.369	1004.441
2.586	24.510	1245.098	1012.103
3.600	23.804	1233.970	999.001
4.615	17.045	1159.061	902.460
5.629	6.482	1080.411	788.533
6.644	2.054	1059.409	751.374
7.659	1.681	1056.907	747.699
8.673	1.558	1055.760	746.219
9.688	1.459	1054.525	744.793
10.702	1.758	1052.519	744.774
11.717	8.027	1062.202	782.421
12.731	18.555	1076.748	845.226
13.746	23.977	1083.481	877.247
14.761	24.913	1084.710	882.782
15.775	24.984	1084.418	882.815
16.790	24.723	1083.861	881.001
17.804	24.732	1083.105	880.353
18.819	24.816	1082.476	880.175
19.834	24.949	1082.307	880.613
20.848	24.871	1082.118	879.997
21.863	24.889	1081.310	879.351
22.877	24.858	1080.763	878.677
23.892	24.834	1079.785	877.688
24.907	25.021	1078.414	877.412
25.921	24.907	1078.031	876.461
26.936	24.843	1077.031	875.260
27.950	24.906	1074.772	873.655
28.965	24.640	1073.429	871.190
29.980	24.854	1071.548	870.626
30.994	24.992	1070.998	870.772
32.009	25.041	1069.974	870.102
33.023	24.779	1068.387	867.463
34.038	24.815	1068.223	867.427
35.053	24.982	1066.898	867.086
36.067	24.919	1066.504	866.380
37.082	25.009	1065.643	866.041
38.096	25.125	1065.675	866.553
39.111	25.251	1064.738	866.318
40.126	25.017	1063.363	863.995
41.140	24.797	1061.269	861.160
42.155	24.463	1060.046	858.486
43.169	24.538	1059.012	857.933
44.184	24.579	1058.235	857.426
45.199	24.415	1057.450	855.926
46.213	24.468	1056.728	855.521
47.228	24.800	1055.530	856.063
48.242	24.723	1054.906	855.111
49.257	24.891	1053.961	855.074
50.271	24.929	1053.256	854.609
51.286	25.076	1052.525	854.639
52.301	25.101	1051.313	853.699
53.315	24.823	1050.688	851.793
54.330	24.777	1050.067	850.995
55.344	24.881	1049.331	850.820
56.359	24.853	1048.496	849.933
57.374	24.660	1047.115	847.824
58.388	24.689	1046.287	847.215
59.403	24.640	1045.082	845.930
60.417	24.471	1044.594	844.660
61.432	24.644	1043.831	844.789
62.447	24.732	1043.099	844.536
63.461	24.624	1042.822	843.727
64.476	24.641	1041.454	842.628
65.490	24.524	1040.297	841.065
66.505	24.525	1039.917	840.690
67.520	24.670	1039.173	840.696
68.534	24.484	1037.831	838.659
69.549	24.219	1036.646	836.383
70.563	24.024	1036.563	835.330
71.578	24.147	1035.095	834.649
72.593	24.036	1034.075	833.233
73.607	24.243	1033.750	833.867
74.622	24.518	1033.641	834.992
75.636	24.496	1032.837	834.165
76.651	24.288	1031.987	832.434
77.666	24.197	1031.152	831.263
78.680	24.327	1030.823	831.530
79.695	24.390	1029.692	830.837
80.709	24.445	1029.263	830.673
81.724	24.354	1028.370	829.456
82.739	24.627	1027.864	830.241
83.753	24.963	1027.277	831.254
84.768	25.249	1026.194	831.628
85.782	25.274	1025.307	830.952
86.797	25.090	1024.771	829.592
87.812	25.075	1023.492	828.415
88.826	25.140	1022.775	828.060
89.841	25.142	1021.901	827.290
90.855	25.121	1020.843	826.263
91.870	25.181	1020.153	825.908
92.884	24.997	1018.864	823.944
93.899	25.002	1017.975	823.177
94.914	25.197	1017.140	823.323
95.928	25.042	1015.856	821.501
96.943	24.762	1015.063	819.503
97.957	24.391	1014.056	816.923
98.972	24.398	1012.719	815.806
99.987	24.678	1011.907	816.358
101.001	24.830	1011.479	816.635
102.016	24.903	1010.432	816.048
103.030	24.837	1009.115	814.612
104.045	24.673	1008.456	813.261
105.060	24.526	1007.252	811.552
106.074	24.672	1007.096	812.018
107.089	24.934	1006.558	812.698
108.103	24.894	1005.154	811.314
109.118	24.670	1003.486	808.880
110.133	24.599	1003.091	808.173
111.147	24.508	1001.605	806.490
112.162	24.408	1000.930	805.426
113.176	24.658	1000.373	806.034
114.191	24.432	999.715	804.412
115.206	24.269	998.195	802.387
116.220	24.192	997.159	801.135
117.235	24.408	996.719	801.679
118.249	24.315	995.929	800.556
119.264	24.318	995.048	799.793
120.279	24.440	994.079	799.488
121.293	24.408	993.809	799.059
122.308	24.481	992.727	798.445
123.322	24.376	991.486	796.905
124.337	24.133	990.991	795.352
125.352	23.679	989.217	791.832
126.366	23.681	988.172	790.935
127.381	24.360	988.060	793.798
128.395	24.797	987.769	795.437
129.410	24.911	986.835	795.123
130.424	24.905	985.738	794.142
131.439	25.051	984.752	793.924
132.454	24.848	984.221	792.528
133.468	24.862	982.913	791.466
134.483	24.847	982.650	791.116
135.497	24.982	982.097	791.200
136.512	25.113	980.994	790.817
137.527	25.108	980.055	789.970
138.541	25.285	978.976	789.808
139.556	25.110	978.706	788.751
140.570	25.171	977.936	788.326
141.585	25.214	976.887	787.601
142.600	25.240	975.381	786.433
143.614	25.313	975.056	786.419
144.629	25.458	974.324	786.396
145.643	25.198	973.047	784.157
146.658	25.181	971.439	782.719
147.673	25.100	970.302	781.382
148.687	25.008	969.756	780.473
149.702	24.881	968.729	779.021
150.716	24.881	967.559	778.015
151.731	24.949	967.417	778.127
152.746	25.226	966.960	778.891
153.760	25.297	965.845	778.233
154.775	25.362	965.426	778.108
155.789	25.406	964.370	777.379
156.804	25.206	963.714	775.916
157.819	25.202	962.813	775.102
158.833	25.391	962.090	775.269
159.848	25.357	961.160	774.304
160.862	25.238	960.004	772.793
161.877	25.197	959.109	771.829
162.892	25.242	958.074	771.120
163.906	25.347	956.251	770.035
164.921	25.320	955.913	769.580
165.935	25.288	955.097	768.717
166.950	25.444	953.832	768.297
167.964	25.340	953.059	767.163
168.979	25.127	951.856	765.217
169.994	24.985	951.407	764.185
171.008	25.286	950.813	764.923
172.023	25.404	949.830	764.566
173.037	25.102	948.768	762.361
174.052	24.966	948.173	761.235
175.067	25.047	947.542	761.004
176.081	25.091	947.093	760.764
177.096	24.957	946.474	759.631
178.110	24.652	945.640	757.602
179.125	24.589	944.156	756.078
180.140	24.639	943.905	756.023
181.154	24.836	943.919	756.799
182.169	25.066	943.752	757.570
183.183	25.186	943.730	757.994
184.198	25.211	942.280	756.868
185.213	25.244	941.348	756.192
186.227	25.285	940.888	755.928
187.242	25.266	939.958	755.032
188.256	25.321	939.788	755.061
189.271	25.254	939.354	754.366
190.286	25.096	937.578	752.209
191.300	24.256	936.443	747.708
192.315	23.547	934.425	743.065
193.329	23.587	934.154	742.951
194.344	24.576	934.720	747.474
195.359	24.973	935.003	749.296
196.373	25.331	934.004	749.925
197.388	25.087	933.348	748.315
198.402	25.079	933.208	748.100
199.417	25.064	932.759	747.613
200.432	24.937	931.158	745.735
201.446	24.717	930.853	744.508
202.461	24.816	930.041	744.205
203.475	23.965	927.945	738.928
204.490	23.125	926.799	734.464
205.504	24.073	927.280	738.718
206.519	24.610	927.290	740.887
207.534	24.795	926.822	741.214
208.548	25.261	926.782	743.046
209.563	24.888	925.851	740.693
210.577	24.841	925.409	740.076
211.592	25.538	924.876	742.465
212.607	25.513	923.560	741.239
213.621	25.234	923.251	739.778
214.636	25.388	922.507	739.750
215.650	25.226	921.809	738.458
216.665	25.427	921.468	738.946
217.680	25.325	920.667	737.821
218.694	24.923	919.335	735.038
219.709	24.825	918.533	733.928
220.723	25.113	918.268	734.831
221.738	25.132	918.028	734.653
222.753	25.137	917.000	733.786
223.767	25.375	916.490	734.287
224.782	25.515	916.411	734.731
225.796	25.485	915.441	733.765
226.811	24.828	914.295	730.100
227.826	24.224	912.776	726.362
228.840	24.242	913.066	726.602
229.855	24.306	911.795	725.787
230.869	24.049	910.499	723.648
231.884	24.378	911.171	725.456
232.899	25.224	910.851	728.573
233.913	25.197	910.127	727.822
234.928	25.041	909.894	726.935
235.942	24.974	909.083	725.952
236.957	24.670	908.606	724.278
237.972	24.730	907.808	723.820
238.986	24.918	907.105	723.955
240.001	24.784	906.564	722.917
241.015	24.918	905.792	722.780
242.030	25.119	905.395	723.209
243.045	25.134	905.414	723.222
244.059	25.316	904.974	723.540
245.074	25.162	904.039	722.105
246.088	24.737	902.864	719.396
247.103	25.083	902.516	720.445
248.117	25.671	902.409	722.660
249.132	25.849	902.454	723.345
250.147	25.828	902.015	722.844
251.161	26.004	901.244	722.868
252.176	25.977	900.759	722.307
253.190	26.068	899.811	721.847
254.205	26.254	899.700	722.437
255.220	26.174	899.022	721.511
256.234	26.073	897.920	720.158
257.249	25.911	897.325	718.974
258.263	26.018	896.737	718.864
259.278	26.098	895.858	718.414
260.293	26.218	895.531	718.564
261.307	25.991	894.748	716.972
262.322	25.877	893.874	715.754
263.336	25.083	891.994	711.039
264.351	24.070	889.955	705.339
265.366	24.266	889.776	705.913
266.380	25.347	890.587	710.773
267.395	25.831	890.342	712.429
268.409	25.595	889.610	710.848
269.424	25.845	889.124	711.383
270.439	26.037	888.295	711.415
271.453	25.918	887.892	710.561
272.468	26.080	887.669	710.958
273.482	26.305	887.008	711.251
274.497	25.757	885.952	708.188
275.512	25.319	885.368	705.933
276.526	25.775	885.299	707.611
277.541	25.968	884.798	707.905
278.555	25.711	884.100	706.276
279.570	25.497	883.340	704.767
280.585	25.814	882.572	705.334
281.599	25.790	881.576	704.382
282.614	25.211	880.378	701.098
283.628	25.168	880.133	700.672
284.643	25.440	880.069	701.623
285.657	25.044	878.530	698.790
286.672	24.882	877.859	697.564
287.687	25.503	877.986	700.023
288.701	25.626	877.120	699.749
289.716	25.141	876.690	697.457
290.730	25.148	875.696	696.631
291.745	24.823	874.919	694.692
292.760	25.198	874.898	696.070
293.774	26.146	875.220	699.939
294.789	26.538	874.826	701.082
295.803	26.517	874.202	700.438
296.818	26.512	873.615	699.889
297.833	25.916	872.972	697.008
298.847	25.975	871.674	696.136
299.862	26.098	872.137	696.918
300.876	26.603	871.118	697.992
301.891	26.383	870.789	696.817
302.906	26.076	869.754	694.744
303.920	26.044	869.880	694.661
304.935	26.317	869.608	695.433
305.949	26.326	868.832	694.787
306.964	26.033	867.667	692.668
307.979	26.229	867.257	693.031
308.993	26.666	867.276	694.660
310.008	26.456	866.823	693.434
311.022	26.294	865.752	691.894
312.037	26.174	865.200	690.934
313.052	25.899	864.092	688.937
314.066	24.997	862.707	684.327
315.081	24.682	861.759	682.310
316.095	25.514	862.108	685.703
317.110	25.921	862.298	687.347
318.125	25.217	860.708	683.339
319.139	24.230	859.053	678.208
320.154	24.089	858.825	677.431
321.168	24.880	859.844	681.187
322.183	25.787	859.283	684.130
323.197	25.923	859.157	684.485
324.212	25.963	858.686	684.202
325.227	26.124	857.674	683.945
326.241	26.061	857.273	683.324
327.256	25.934	856.780	682.391
328.270	25.905	855.640	681.314
329.285	25.672	854.982	679.851
330.300	25.476	854.224	678.447
331.314	25.726	853.831	679.016
332.329	26.170	853.885	680.676
333.343	26.428	853.287	681.111
334.358	26.209	853.100	680.077
335.373	26.279	852.907	680.126
336.387	26.622	852.563	681.079
337.402	26.733	852.538	681.420
338.416	26.713	852.266	681.067
339.431	26.758	851.857	680.847
340.446	26.938	851.340	681.048
341.460	26.648	851.019	679.642
342.475	26.675	850.353	679.155
343.489	26.718	850.083	679.040
344.504	27.074	849.521	679.864
345.519	27.079	849.605	679.889
346.533	27.099	849.223	679.596
347.548	27.199	848.312	679.183
348.562	27.031	847.811	678.094
349.577	27.031	847.274	677.603
350.592	26.926	846.533	676.558
351.606	27.030	845.861	676.351
352.621	26.954	845.100	675.399
353.635	26.815	844.171	674.080
354.650	26.136	842.507	670.170
355.665	25.305	841.216	666.004
356.679	25.625	841.063	667.012
357.694	26.006	840.899	668.232
358.708	25.998	840.070	667.486
359.723	26.354	840.382	668.994
360.738	26.704	839.489	669.516
361.752	26.682	839.578	669.445
362.767	27.200	839.071	670.896
363.781	27.357	838.374	670.858
364.796	27.441	838.121	670.906
365.810	27.454	837.852	670.679
366.825	27.551	837.406	670.617
367.840	27.121	836.747	668.451
368.854	26.636	836.034	666.037
369.869	26.733	835.339	665.782
370.883	26.857	834.769	665.726
371.898	26.826	834.504	665.340
372.913	26.850	834.298	665.206
373.927	27.081	833.698	665.515
374.942	27.173	833.028	665.256
375.956	27.215	833.112	665.418
376.971	27.200	833.024	665.233
377.986	27.375	832.549	665.436
379.000	27.557	831.524	665.224
380.015	27.148	831.154	663.376
381.029	27.262	830.472	663.189
382.044	27.440	829.786	663.229
383.059	27.369	829.176	662.426
384.073	27.424	828.725	662.207
385.088	27.317	828.097	661.257
386.102	27.225	827.251	660.187
387.117	27.044	826.837	659.143
388.132	26.670	825.377	656.567
389.146	26.391	824.368	654.695
390.161	26.712	824.948	656.261
391.175	27.163	824.602	657.560
392.190	26.774	823.630	655.321
393.205	25.447	821.458	648.746
394.219	23.958	819.467	641.750
395.234	23.896	819.422	641.433
396.248	25.618	821.021	648.847
397.263	26.900	821.624	653.891
398.278	26.949	821.015	653.522
399.292	26.666	820.460	652.007
400.307	26.665	820.176	651.718
401.321	26.730	819.723	651.533
402.336	27.055	820.020	652.882
403.350	27.557	819.463	654.183
404.365	27.905	819.148	655.121
405.380	28.198	818.670	655.730
406.394	28.177	818.618	655.558
407.409	28.117	817.932	654.733
408.423	28.065	817.536	654.174
409.438	28.105	817.560	654.277
410.453	28.206	817.189	654.283
411.467	28.016	816.399	652.917
412.482	28.227	815.741	653.082
413.496	28.118	815.595	652.522
414.511	28.008	815.637	652.103
415.526	28.130	814.910	651.898
416.540	28.090	813.820	650.827
417.555	27.853	813.383	649.577
418.569	27.679	813.153	648.719
419.584	27.779	812.330	648.359
420.599	27.567	811.828	647.147
421.613	107.874	1285.558	1450.897
422.628	93.208	1354.585	1451.009
