DTS Sentinel unit serial number:	SN413079Multiplexer serial number:	ORYXHardware model number:	OX4-SRSoftware version number:	ORYX F/W v4.00 Oryx Data Collector v3.7.2.0data status	okinstallation	princeton_trtdifferential loss correction	single-endedforward channel	channel 1reverse channel	N/Adate	2019/09/16time	04:18:35forward acquisition time	60.00reverse acquisition time	0.00gamma	496.2192k internal	0.2332k external	0.2332temperature offset calibration	0.9980default loss term (dB/km)	0.3790temperature slope calibration	1.0000multiplexer offset coefficient	1.0000multiplexer slope coefficient	1.0000fibre end	0.00T internal ref (°C)	27.34T ext. ref 1 (°C)	10.78T ext. ref 2 (°C)	21.38length (m)	temperature (°C)	Stokes	anti-Stokes-747.200	-160.791	0.263	-0.014
-746.185	-59.412	-0.496	0.215
-745.171	336.404	0.225	-0.440
-744.156	-52.724	-0.328	0.152
-743.142	-124.311	0.265	0.042
-742.127	71.379	-0.311	0.325
-741.112	-102.641	-0.187	0.045
-740.098	-77.019	-0.026	0.009
-739.083	-200.000	0.049	0.272
-738.069	-56.427	0.140	0.063
-737.054	-200.000	0.035	0.236
-736.039	-176.480	0.224	0.006
-735.025	-200.000	0.044	0.330
-734.010	-143.084	-0.352	0.034
-732.996	-200.000	0.000	0.065
-731.981	-200.000	-0.088	-0.388
-730.966	-85.819	-0.395	-0.123
-729.952	134.096	-0.208	-0.272
-728.937	364.548	0.107	-0.216
-727.923	-15.336	-0.209	-0.135
-726.908	-64.232	0.086	-0.035
-725.894	454.102	0.131	-0.293
-724.879	470.709	-0.103	0.233
-723.864	-168.939	-0.163	0.006
-722.850	160.473	-0.064	0.090
-721.835	-200.000	0.044	-0.201
-720.821	-107.489	-0.149	-0.033
-719.806	-200.000	0.036	-0.164
-718.791	-200.000	0.012	-0.062
-717.777	-96.868	0.307	0.081
-716.762	76.961	-0.197	0.210
-715.748	-171.717	-0.269	-0.009
-714.733	111.763	-0.069	-0.083
-713.718	-200.000	0.082	0.409
-712.704	175.213	0.042	0.061
-711.689	-197.309	-0.263	0.002
-710.675	800.000	0.068	0.282
-709.660	9.044	0.060	-0.046
-708.645	502.497	0.102	-0.238
-707.631	-27.828	-0.285	0.166
-706.616	338.661	-0.082	-0.161
-705.602	-200.000	-0.003	0.046
-704.587	110.249	0.198	0.239
-703.572	-200.000	0.009	-0.202
-702.558	-116.849	-0.217	-0.040
-701.543	-200.000	0.005	-0.085
-700.529	631.651	0.087	-0.221
-699.514	-42.091	-0.163	0.084
-698.499	94.560	0.085	0.097
-697.485	-34.125	-0.361	-0.199
-696.470	-65.886	0.142	-0.057
-695.456	38.216	0.083	-0.074
-694.441	-200.000	-0.019	-0.271
-693.426	470.187	0.052	-0.117
-692.412	7.694	-0.210	-0.158
-691.397	-23.814	0.140	-0.084
-690.383	-200.000	0.018	0.162
-689.368	-163.903	-0.308	0.014
-688.354	800.000	-0.063	-0.202
-687.339	-61.508	-0.173	-0.073
-686.324	-126.507	0.166	-0.025
-685.310	61.716	-0.193	0.193
-684.295	-103.591	-0.014	-0.003
-683.281	800.000	-0.045	-0.167
-682.266	-160.796	0.184	0.010
-681.251	-23.945	-0.311	-0.187
-680.237	206.689	0.075	-0.117
-679.222	-200.000	-0.026	0.122
-678.208	-163.586	-0.310	0.015
-677.193	45.161	-0.169	-0.156
-676.178	65.683	-0.194	-0.197
-675.164	671.513	-0.168	-0.437
-674.149	124.898	-0.223	0.281
-673.135	-154.626	0.178	0.012
-672.120	12.630	-0.291	-0.225
-671.105	-200.000	0.020	0.224
-670.091	-200.000	-0.064	0.417
-669.076	179.441	0.107	-0.157
-668.062	-160.124	0.161	0.009
-667.047	-121.757	-0.453	0.075
-666.032	-18.986	-0.154	0.096
-665.018	337.837	0.088	0.172
-664.003	-200.000	0.003	-0.023
-662.989	-200.000	-0.014	-0.421
-661.974	32.477	-0.172	0.149
-660.959	48.549	-0.080	-0.075
-659.945	-200.000	0.004	-0.228
-658.930	800.000	-0.095	0.316
-657.916	236.311	-0.050	0.083
-656.901	204.423	-0.278	0.432
-655.886	-55.190	0.184	-0.083
-654.872	-24.469	-0.175	0.105
-653.857	13.727	-0.097	-0.075
-652.843	-200.000	-0.039	0.238
-651.828	-200.000	0.034	-0.167
-650.814	800.000	0.089	0.362
-649.799	167.016	0.044	-0.062
-648.784	-39.840	0.047	-0.024
-647.770	800.000	-0.050	0.196
-646.755	-147.360	-0.099	-0.008
-645.741	47.094	-0.078	-0.073
-644.726	248.539	-0.040	0.067
-643.711	410.856	0.261	0.555
-642.697	-32.940	0.230	0.128
-641.682	180.280	-0.272	-0.399
-640.668	-66.689	-0.281	-0.111
-639.653	-169.707	-0.119	0.004
-638.638	-116.248	0.281	0.052
-637.624	360.747	0.106	-0.212
-636.609	-147.710	0.354	0.030
-635.595	30.430	0.117	0.100
-634.580	539.693	-0.128	-0.305
-633.565	22.926	-0.111	-0.091
-632.551	-45.261	-0.134	0.067
-631.536	-28.574	0.079	-0.046
-630.522	105.301	0.191	-0.226
-629.507	-53.149	-0.120	0.055
-628.492	800.000	0.092	0.287
-627.478	800.000	-0.074	-0.231
-626.463	189.665	-0.173	-0.259
-625.449	175.288	0.069	0.101
-624.434	184.822	-0.097	-0.144
-623.419	-144.076	-0.402	-0.038
-622.405	388.912	0.132	-0.274
-621.390	-200.000	0.007	0.212
-620.376	-101.013	-0.118	-0.029
-619.361	-200.000	0.025	-0.134
-618.346	167.943	-0.077	0.110
-617.332	-200.000	0.055	-0.310
-616.317	-200.000	0.003	0.222
-615.303	800.000	-0.035	0.115
-614.288	-138.770	0.060	0.007
-613.273	-200.000	0.016	-0.156
-612.259	-129.420	0.113	-0.016
-611.244	85.631	0.301	-0.331
-610.230	-98.479	-0.309	0.079
-609.215	-27.752	0.219	-0.127
-608.201	-200.000	-0.043	-0.258
-607.186	-44.348	0.371	-0.186
-606.171	26.010	0.100	0.084
-605.157	-138.009	-0.153	0.017
-604.142	569.316	-0.121	0.293
-603.128	704.552	0.029	0.076
-602.113	-102.264	0.396	-0.095
-601.098	-54.549	-0.277	-0.125
-600.084	800.000	0.037	0.105
-599.069	263.332	0.050	0.086
-598.055	-40.505	-0.155	0.080
-597.040	65.478	0.141	0.143
-596.025	229.738	0.103	-0.168
-595.011	393.914	0.051	-0.107
-593.996	-77.516	-0.386	-0.134
-592.982	26.618	-0.131	0.110
-591.967	121.136	0.140	0.175
-590.952	-137.573	-0.267	0.030
-589.938	164.659	-0.106	-0.150
-588.923	44.677	-0.212	0.195
-587.909	120.171	0.108	0.134
-586.894	-147.671	0.269	0.023
-585.879	-103.894	0.276	-0.064
-584.865	-200.000	0.007	-0.084
-583.850	-84.199	-0.473	0.150
-582.836	325.922	0.187	-0.358
-581.821	-50.652	-0.152	-0.072
-580.806	190.375	0.106	0.160
-579.792	0.971	-0.199	-0.143
-578.777	-200.000	-0.038	0.310
-577.763	63.723	0.094	0.094
-576.748	-73.154	0.229	0.084
-575.733	68.827	-0.277	-0.284
-574.719	-39.257	-0.102	0.054
-573.704	78.570	-0.185	-0.197
-572.690	130.620	-0.060	-0.077
-571.675	65.870	0.034	-0.035
-570.661	-200.000	0.013	0.176
-569.646	-200.000	-0.001	0.134
-568.631	-85.648	-0.233	0.072
-567.617	800.000	0.038	-0.114
-566.602	-200.000	-0.002	-0.229
-565.588	-10.192	-0.258	-0.171
-564.573	-136.328	-0.246	0.029
-563.558	102.189	-0.049	-0.058
-562.544	-157.050	0.195	-0.012
-561.529	-200.000	-0.004	0.135
-560.515	-101.624	0.143	-0.035
-559.500	-131.004	-0.236	-0.031
-558.485	-161.488	-0.032	-0.002
-557.471	168.431	-0.119	-0.169
-556.456	-153.045	0.436	-0.031
-555.442	150.392	-0.222	0.301
-554.427	800.000	0.111	-0.455
-553.412	-56.728	-0.093	0.041
-552.398	-120.544	-0.487	-0.082
-551.383	177.308	0.038	-0.056
-550.369	-96.255	-0.286	0.076
-549.354	-79.753	-0.106	-0.036
-548.339	2.735	-0.341	0.247
-547.325	82.383	-0.178	0.193
-546.310	192.168	0.112	-0.168
-545.296	-65.066	-0.244	0.098
-544.281	800.000	0.044	0.137
-543.266	-200.000	-0.038	-0.262
-542.252	-7.878	0.070	-0.047
-541.237	91.904	0.133	0.150
-540.223	-146.382	0.170	-0.015
-539.208	-200.000	0.072	0.372
-538.193	-200.000	0.020	0.095
-537.179	-12.193	-0.083	-0.054
-536.164	55.524	-0.174	-0.168
-535.150	349.240	0.073	-0.143
-534.135	-168.745	0.213	-0.008
-533.121	-19.274	-0.064	0.040
-532.106	-200.000	0.007	-0.186
-531.091	47.239	0.196	-0.182
-530.077	287.349	-0.206	-0.371
-529.062	800.000	-0.080	0.286
-528.048	653.880	0.130	-0.332
-527.033	-99.969	0.202	-0.050
-526.018	800.000	-0.076	0.270
-525.004	-118.345	0.291	0.052
-523.989	-41.329	-0.300	0.154
-522.975	108.556	-0.285	-0.340
-521.960	-1.023	-0.284	-0.200
-520.945	800.000	0.051	0.145
-519.931	-200.000	0.063	0.280
-518.916	21.234	0.079	-0.064
-517.902	-200.000	0.010	-0.119
-516.887	-99.514	0.354	0.089
-515.872	321.377	0.025	-0.047
-514.858	-78.571	-0.222	0.076
-513.843	-200.000	-0.008	0.079
-512.829	-80.272	-0.286	0.095
-511.814	372.783	-0.146	-0.296
-510.799	-27.453	-0.173	0.100
-509.785	403.278	0.106	0.223
-508.770	-14.771	-0.106	-0.068
-507.756	800.000	-0.031	0.123
-506.741	-98.522	-0.295	0.075
-505.726	39.485	-0.212	-0.189
-504.712	386.604	0.179	-0.368
-503.697	-200.000	0.023	-0.108
-502.683	133.445	0.162	-0.209
-501.668	-200.000	-0.037	-0.204
-500.653	-93.354	0.164	0.045
-499.639	-200.000	-0.047	-0.271
-498.624	294.866	-0.049	-0.089
-497.610	800.000	0.027	0.106
-496.595	-92.059	-0.059	-0.017
-495.581	-200.000	0.046	-0.264
-494.566	-120.026	0.130	-0.022
-493.551	-86.690	-0.144	-0.044
-492.537	-38.729	-0.065	-0.034
-491.522	305.509	0.055	0.101
-490.508	-40.146	-0.277	0.144
-489.493	-88.666	0.308	0.091
-488.478	96.320	-0.111	0.126
-487.464	-110.837	-0.291	0.060
-486.449	-200.000	-0.053	0.320
-485.435	-200.000	-0.031	0.318
-484.420	-118.177	0.188	0.033
-483.405	201.605	0.025	-0.038
-482.391	33.203	0.124	-0.107
-481.376	-200.000	-0.034	-0.339
-480.362	-51.599	0.143	-0.066
-479.347	-167.578	-0.131	-0.005
-478.332	191.502	0.088	-0.132
-477.318	-200.000	0.020	0.483
-476.303	-178.327	-0.107	-0.002
-475.289	-200.000	0.024	-0.260
-474.274	-200.000	0.010	-0.095
-473.259	63.394	-0.076	0.075
-472.245	-7.766	0.098	0.066
-471.230	800.000	0.130	0.362
-470.216	-57.347	-0.245	-0.107
-469.201	-105.290	-0.212	-0.048
-468.186	11.958	-0.232	-0.177
-467.172	-79.452	0.293	0.099
-466.157	349.387	0.079	-0.156
-465.143	-200.000	0.003	0.051
-464.128	113.840	-0.144	-0.174
-463.113	800.000	-0.067	-0.271
-462.099	-85.185	-0.231	0.072
-461.084	-200.000	-0.042	-0.378
-460.070	-10.080	-0.105	-0.070
-459.055	800.000	0.015	-0.054
-458.040	-57.259	-0.172	-0.075
-457.026	144.259	0.130	0.173
-456.011	-104.691	-0.123	0.028
-454.997	-158.684	0.292	-0.017
-453.982	800.000	-0.032	-0.117
-452.968	57.188	-0.083	-0.081
-451.953	305.234	0.045	-0.083
-450.938	214.238	0.126	0.199
-449.924	172.426	0.026	0.037
-448.909	50.297	-0.253	0.238
-447.895	451.844	0.103	0.226
-446.880	218.022	-0.071	-0.113
-445.865	-43.578	0.124	-0.062
-444.851	-76.655	-0.260	-0.091
-443.836	137.898	-0.212	-0.277
-442.822	-191.865	0.106	0.001
-441.807	-76.214	0.137	0.048
-440.792	-88.626	-0.183	0.054
-439.778	-32.542	0.240	0.133
-438.763	-68.660	-0.278	0.107
-437.749	-111.249	0.365	0.074
-436.734	22.756	-0.251	0.204
-435.719	352.471	0.106	0.210
-434.705	-75.667	0.193	0.068
-433.690	800.000	-0.065	-0.206
-432.676	198.587	0.112	-0.170
-431.661	-103.749	0.188	0.044
-430.646	-200.000	0.025	0.252
-429.632	800.000	0.007	-0.021
-428.617	206.826	0.038	-0.058
-427.603	-200.000	-0.001	-0.052
-426.588	49.389	0.103	-0.096
-425.573	-43.156	-0.277	0.140
-424.559	-38.626	0.069	-0.036
-423.544	-83.886	0.138	-0.044
-422.530	-200.000	-0.180	-0.000
-421.515	-99.987	-0.036	-0.009
-420.500	102.147	-0.290	0.336
-419.486	26.028	0.134	-0.111
-418.471	-56.488	-0.061	-0.027
-417.457	344.342	0.096	0.187
-416.442	46.928	-0.265	-0.245
-415.428	-200.000	-0.057	-0.263
-414.413	-145.036	-0.053	-0.005
-413.398	3.007	0.161	0.116
-412.384	-70.563	-0.067	-0.025
-411.369	-32.743	0.100	0.055
-410.355	-18.489	0.231	0.143
-409.340	18.717	0.222	-0.176
-408.325	-55.590	0.221	-0.098
-407.311	-121.533	0.124	-0.020
-406.296	-133.312	0.002	0.000
-405.282	10.212	0.153	0.116
-404.267	9.471	-0.302	-0.227
-403.252	800.000	0.098	0.271
-402.238	800.000	0.080	0.240
-401.223	53.099	0.279	0.265
-400.209	-50.096	-0.143	-0.067
-399.194	335.092	-0.068	0.131
-398.179	-200.000	0.024	0.141
-397.165	800.000	-0.037	0.141
-396.150	-200.000	0.008	0.174
-395.136	337.538	-0.092	-0.177
-394.121	800.000	0.058	-0.227
-393.106	-18.475	0.272	0.168
-392.092	47.472	-0.257	0.238
-391.077	72.950	-0.183	0.190
-390.063	800.000	0.144	0.452
-389.048	-27.841	0.114	0.066
-388.033	87.235	0.056	-0.062
-387.019	50.833	-0.250	-0.235
-386.004	-125.603	0.095	0.014
-384.990	50.092	0.034	0.032
-383.975	-67.272	-0.158	0.062
-382.960	800.000	0.048	-0.165
-381.946	-200.000	0.269	0.001
-380.931	-131.299	0.166	0.022
-379.917	-171.480	-0.086	-0.003
-378.902	284.383	-0.065	-0.115
-377.888	383.238	0.075	0.154
-376.873	-145.723	0.161	-0.014
-375.858	-100.819	0.116	0.028
-374.844	110.113	0.082	0.097
-373.829	396.918	-0.126	-0.260
-372.815	44.007	-0.332	0.302
-371.800	-21.798	0.052	-0.032
-370.785	-200.000	0.008	-0.054
-369.771	-200.000	0.051	0.235
-368.756	800.000	0.124	-0.479
-367.742	-128.792	-0.165	-0.023
-366.727	546.125	-0.063	-0.150
-365.712	-127.721	-0.182	-0.026
-364.698	-58.944	0.123	-0.053
-363.683	-200.000	0.014	0.066
-362.669	-97.574	-0.127	0.033
-361.654	23.503	-0.284	0.232
-360.639	-139.520	-0.160	0.017
-359.625	-64.334	-0.331	-0.133
-358.610	281.492	-0.077	0.137
-357.596	-42.101	0.118	-0.060
-356.581	-197.901	0.155	0.001
-355.566	339.955	0.050	0.096
-354.552	29.408	-0.038	0.032
-353.537	-186.498	0.264	-0.004
-352.523	-13.755	0.181	-0.116
-351.508	-105.753	-0.089	-0.020
-350.493	-200.000	-0.003	0.175
-349.479	-129.633	0.357	0.049
-348.464	60.113	0.168	0.164
-347.450	-200.000	-0.028	0.243
-346.435	298.408	0.073	0.134
-345.420	37.491	0.156	0.137
-344.406	-200.000	0.088	-0.563
-343.391	800.000	0.038	-0.117
-342.377	266.416	-0.052	-0.090
-341.362	-145.506	-0.319	0.028
-340.348	-178.905	-0.462	-0.010
-339.333	69.198	-0.019	-0.019
-338.318	-200.000	0.027	-0.204
-337.304	94.542	-0.127	-0.143
-336.289	-200.000	-0.009	0.278
-335.275	165.104	-0.183	0.256
-334.260	-58.343	-0.324	0.139
-333.245	19.935	0.063	-0.050
-332.231	-93.733	-0.188	-0.051
-331.216	515.070	-0.083	0.193
-330.202	-135.675	0.129	0.015
-329.187	631.641	0.062	-0.155
-328.172	800.000	-0.068	-0.292
-327.158	131.953	0.095	0.121
-326.143	148.107	-0.014	-0.018
-325.129	82.963	-0.065	-0.070
-324.114	19.869	-0.076	-0.060
-323.099	-200.000	-0.036	-0.378
-322.085	800.000	-0.179	0.500
-321.070	-159.122	-0.107	-0.006
-320.056	141.094	-0.270	0.353
-319.041	142.660	-0.191	0.252
-318.026	24.836	-0.052	-0.043
-317.012	169.260	0.126	0.178
-315.997	-195.466	0.240	-0.002
-314.983	8.478	-0.165	0.123
-313.968	-67.802	-0.504	0.195
-312.953	-103.281	0.438	-0.102
-311.939	-56.040	0.160	-0.070
-310.924	186.154	-0.242	-0.356
-309.910	800.000	0.048	0.175
-308.895	61.492	0.103	0.101
-307.880	-200.000	-0.012	0.078
-306.866	465.155	0.184	-0.408
-305.851	92.564	-0.100	-0.111
-304.837	-64.912	0.313	-0.125
-303.822	-28.489	0.056	0.032
-302.807	-66.909	0.149	-0.058
-301.793	-164.681	0.137	0.006
-300.778	170.234	0.132	-0.186
-299.764	800.000	0.077	0.238
-298.749	-91.477	0.360	0.102
-297.735	384.264	0.046	-0.094
-296.720	-4.092	0.131	0.090
-295.705	17.486	0.239	-0.188
-294.691	-177.423	0.288	-0.007
-293.676	-200.000	0.031	-0.147
-292.662	181.793	-0.127	-0.185
-291.647	800.000	0.060	0.180
-290.632	800.000	0.101	-0.285
-289.618	-85.106	-0.040	0.013
-288.603	504.701	-0.172	0.392
-287.589	800.000	-0.065	-0.220
-286.574	800.000	-0.073	-0.241
-285.559	-67.324	0.221	-0.086
-284.545	-110.646	-0.372	-0.076
-283.530	201.852	-0.081	-0.123
-282.516	-136.349	-0.192	0.022
-281.501	-80.224	0.221	0.073
-280.486	-171.771	0.253	-0.008
-279.472	-62.699	-0.229	-0.094
-278.457	99.773	-0.197	-0.226
-277.443	184.799	0.255	0.374
-276.428	499.150	-0.182	0.414
-275.413	264.663	0.136	0.234
-274.399	252.665	0.136	-0.229
-273.384	-110.681	-0.151	-0.031
-272.370	1.620	0.356	-0.253
-271.355	-153.716	-0.045	-0.003
-270.340	657.433	-0.136	-0.344
-269.326	-200.000	-0.020	-0.418
-268.311	-17.596	0.115	0.071
-267.297	152.972	-0.105	-0.141
-266.282	-44.733	0.486	0.239
-265.267	-200.000	0.026	-0.207
-264.253	55.870	0.130	0.124
-263.238	431.086	-0.102	0.218
-262.224	313.186	0.147	0.272
-261.209	-89.950	-0.095	-0.027
-260.195	800.000	0.034	0.126
-259.180	-72.077	0.166	-0.061
-258.165	-200.000	-0.006	0.468
-257.151	-22.834	-0.141	0.084
-256.136	64.932	0.134	-0.134
-255.122	-63.955	-0.127	0.051
-254.107	137.819	0.137	0.177
-253.092	-76.986	-0.257	0.089
-252.078	45.145	-0.118	-0.107
-251.063	-200.000	-0.018	-0.185
-250.049	-85.727	0.097	-0.030
-249.034	-143.726	0.221	-0.021
-248.019	-127.115	-0.085	-0.012
-247.005	-99.576	-0.122	-0.030
-245.990	-29.273	-0.184	-0.104
-244.976	800.000	0.040	-0.113
-243.961	78.734	0.205	-0.216
-242.946	286.721	0.092	-0.163
-241.932	466.372	0.152	-0.335
-240.917	-87.922	0.235	-0.070
-239.903	302.869	-0.205	0.374
-238.888	498.556	0.138	0.312
-237.873	224.755	0.154	0.246
-236.859	27.775	-0.226	0.187
-235.844	-64.269	0.339	0.136
-234.830	-200.000	0.040	0.343
-233.815	29.406	0.249	0.209
-232.800	-58.984	0.022	-0.009
-231.786	360.482	0.119	0.234
-230.771	-200.000	0.088	0.406
-229.757	-113.969	0.261	0.050
-228.742	-32.272	0.398	-0.219
-227.727	417.153	0.095	0.201
-226.713	151.376	0.087	0.117
-225.698	-84.314	0.301	0.094
-224.684	-61.974	0.234	0.096
-223.669	210.418	-0.161	0.249
-222.655	-112.205	0.121	0.024
-221.640	-90.672	-0.208	0.059
-220.625	-110.445	-0.188	0.039
-219.611	561.718	-0.097	-0.231
-218.596	40.258	-0.127	-0.113
-217.582	-200.000	0.060	-0.269
-216.567	83.859	0.259	0.278
-215.552	-9.980	-0.249	0.163
-214.538	308.635	-0.041	0.075
-213.523	-41.574	0.204	-0.104
-212.509	296.564	0.074	0.134
-211.494	-139.470	-0.191	0.020
-210.479	-103.117	0.136	-0.032
-209.465	-200.000	-0.033	0.238
-208.450	-31.970	0.176	-0.097
-207.436	7.072	-0.142	-0.104
-206.421	40.736	-0.157	-0.140
-205.406	-7.894	-0.296	0.197
-204.392	55.771	-0.161	0.153
-203.377	308.469	0.139	-0.256
-202.363	9.715	-0.054	0.040
-201.348	278.822	0.101	-0.177
-200.333	-97.996	0.279	0.071
-199.319	-200.000	0.010	0.224
-198.304	43.778	-0.142	0.128
-197.290	800.000	0.090	-0.287
-196.275	215.850	0.149	-0.233
-195.260	-200.000	-0.043	-0.440
-194.246	-50.179	0.066	-0.031
-193.231	117.865	0.104	-0.126
-192.217	-11.148	-0.237	-0.154
-191.202	800.000	0.105	0.296
-190.187	-200.000	0.024	-0.116
-189.173	225.872	-0.045	0.071
-188.158	122.176	0.125	0.154
-187.144	10.759	-0.071	-0.054
-186.129	-159.859	-0.230	-0.012
-185.114	-200.000	-0.004	0.051
-184.100	88.190	0.052	0.057
-183.085	622.335	-0.053	0.131
-182.071	-200.000	0.013	-0.095
-181.056	-200.000	-0.023	-0.164
-180.042	62.082	0.127	-0.124
-179.027	154.002	0.035	-0.048
-178.012	800.000	0.075	-0.260
-176.998	800.000	-0.086	0.317
-175.983	-68.924	0.125	-0.047
-174.969	-200.000	-0.005	-0.176
-173.954	-175.590	0.289	-0.008
-172.939	-112.448	-0.339	0.067
-171.925	800.000	0.047	0.142
-170.910	-200.000	-0.025	-0.261
-169.896	-92.174	0.043	0.012
-168.881	128.619	0.047	-0.059
-167.866	11.530	0.098	-0.074
-166.852	736.202	0.039	0.102
-165.837	-118.483	-0.235	-0.041
-164.823	372.557	0.045	0.089
-163.808	54.723	0.116	-0.110
-162.793	-162.227	-0.223	0.011
-161.779	250.531	-0.116	0.194
-160.764	-31.671	0.391	-0.216
-159.750	-53.785	-0.182	0.082
-158.735	-200.000	-0.084	0.398
-157.720	-41.279	-0.210	0.106
-156.706	42.235	0.263	-0.235
-155.691	-42.800	0.286	0.143
-154.677	-86.789	-0.148	0.044
-153.662	-200.000	-0.002	-0.288
-152.647	168.242	-0.082	0.115
-151.633	-63.923	0.177	0.071
-150.618	-200.000	-0.012	-0.074
-149.604	58.004	0.109	0.105
-148.589	-123.786	0.179	0.028
-147.574	129.587	-0.241	0.303
-146.560	-177.771	0.125	0.003
-145.545	-103.596	0.015	-0.003
-144.531	-200.000	0.001	0.413
-143.516	261.238	-0.086	0.146
-142.502	800.000	0.071	-0.197
-141.487	318.648	0.098	0.182
-140.472	800.000	-0.045	0.132
-139.458	-170.527	-0.288	0.010
-138.443	-41.628	0.217	-0.109
-137.429	-200.000	-0.004	-0.093
-136.414	7.823	0.235	-0.173
-135.399	-200.000	-0.005	0.057
-134.385	15.623	-0.193	-0.149
-133.370	-86.009	0.198	0.060
-132.356	-145.501	-0.124	0.011
-131.341	-200.000	-0.048	-0.300
-130.326	1.108	-0.311	0.219
-129.312	244.248	-0.075	0.123
-128.297	800.000	0.060	-0.205
-127.283	140.275	-0.184	0.238
-126.268	-116.975	0.098	0.018
-125.253	800.000	0.021	-0.059
-124.239	-118.284	-0.142	0.025
-123.224	207.447	0.021	0.032
-122.210	179.798	0.132	0.190
-121.195	-200.000	-0.039	0.404
-120.180	102.830	-0.081	-0.093
-119.166	-107.928	-0.095	-0.020
-118.151	542.426	0.108	0.254
-117.137	119.141	-0.093	0.113
-116.122	-93.456	0.142	-0.038
-115.107	371.246	0.097	-0.192
-114.093	-58.702	0.322	0.137
-113.078	800.000	-0.054	0.152
-112.064	800.000	-0.020	0.066
-111.049	-75.383	-0.326	-0.114
-110.034	-46.630	0.103	0.049
-109.020	-108.291	0.038	0.008
-108.005	232.442	-0.070	0.112
-106.991	789.030	-0.016	0.043
-105.976	-8.786	-0.107	0.070
-104.962	22.266	0.208	0.167
-103.947	-200.000	-0.021	-0.121
-102.932	800.000	0.101	0.342
-101.918	800.000	0.032	0.123
-100.903	-200.000	-0.045	0.342
-99.889	481.298	-0.030	0.068
-98.874	-116.391	0.234	0.042
-97.859	55.983	0.053	0.051
-96.845	-109.208	-0.196	0.041
-95.830	74.433	0.120	-0.123
-94.816	-200.000	0.035	0.323
-93.801	-200.000	0.054	0.245
-92.786	-200.000	-0.105	0.519
-91.772	-100.985	0.285	0.068
-90.757	184.412	0.230	0.334
-89.743	-103.093	0.069	-0.016
-88.728	-89.967	-0.141	0.040
-87.713	15.166	0.107	0.082
-86.699	-33.823	-0.344	0.186
-85.684	-200.000	-0.005	0.305
-84.670	-66.665	0.289	0.112
-83.655	-85.081	0.067	0.020
-82.640	-124.011	0.097	-0.015
-81.626	32.901	0.380	0.322
-80.611	25.504	0.160	-0.131
-79.597	88.164	0.032	-0.035
-78.582	241.310	0.198	0.324
-77.567	800.000	0.031	0.120
-76.553	-121.208	0.227	0.037
-75.538	118.981	-0.130	-0.158
-74.524	-200.000	-0.019	0.108
-73.509	65.329	-0.232	0.230
-72.494	-200.000	-0.006	-0.080
-71.480	-18.662	0.149	-0.091
-70.465	236.030	0.112	-0.182
-69.451	-200.000	-0.058	0.316
-68.436	600.955	0.068	0.167
-67.422	-188.504	-0.181	0.002
-66.407	-200.000	0.009	0.251
-65.392	-200.000	-0.043	0.273
-64.378	-200.000	0.032	0.202
-63.363	24.595	0.157	-0.127
-62.349	254.941	-0.112	0.188
-61.334	125.820	-0.916	-1.134
-60.319	138.103	0.636	0.817
-59.305	800.000	-0.358	-1.228
-58.290	198.185	0.770	1.153
-57.276	800.000	0.399	1.622
-56.261	-200.000	114.939	646.216
-55.246	467.274	1510.254	3315.148
-54.232	147.133	2674.896	3524.009
-53.217	102.907	2151.928	2467.385
-52.203	38.662	1598.522	1396.487
-51.188	30.520	1345.208	1126.059
-50.173	27.729	1306.812	1077.415
-49.159	55.153	1362.406	1289.112
-48.144	53.757	1377.001	1294.485
-47.130	30.936	1332.637	1117.854
-46.115	27.486	1314.738	1082.334
-45.100	27.330	1309.535	1077.086
-44.086	27.182	1307.479	1074.476
-43.071	27.141	1305.254	1072.368
-42.057	27.138	1302.871	1070.348
-41.042	27.221	1301.681	1069.816
-40.027	27.280	1299.917	1068.670
-39.013	27.221	1298.227	1066.892
-37.998	27.176	1296.763	1065.384
-36.984	27.342	1294.153	1064.166
-35.969	27.341	1292.217	1062.524
-34.954	27.415	1290.869	1061.807
-33.940	27.363	1289.607	1060.422
-32.925	27.470	1288.206	1059.854
-31.911	27.423	1286.789	1058.374
-30.896	27.471	1285.027	1057.160
-29.881	27.530	1283.940	1056.564
-28.867	27.414	1283.052	1055.120
-27.852	27.414	1281.385	1053.705
-26.838	27.508	1279.711	1052.835
-25.823	27.390	1278.723	1051.299
-24.809	27.368	1277.150	1049.833
-23.794	27.479	1275.677	1049.223
-22.779	27.443	1274.422	1047.941
-21.765	27.398	1273.487	1046.872
-20.750	27.326	1272.198	1045.354
-19.736	27.374	1270.575	1044.255
-18.721	27.275	1269.774	1042.989
-17.706	27.289	1268.558	1042.028
-16.692	27.340	1267.543	1041.445
-15.677	27.220	1266.436	1039.811
-14.663	27.305	1265.224	1039.259
-13.648	27.282	1263.879	1037.982
-12.633	27.260	1263.038	1037.123
-11.619	27.388	1261.759	1036.762
-10.604	27.337	1261.003	1035.808
-9.590	27.278	1260.499	1035.018
-8.575	27.219	1259.838	1034.098
-7.560	27.294	1258.218	1033.156
-6.546	27.278	1257.472	1032.409
-5.531	27.283	1256.622	1031.702
-4.517	27.245	1256.159	1031.064
-3.502	27.190	1254.807	1029.600
-2.487	27.236	1254.086	1029.228
-1.473	27.103	1249.873	1024.982
-0.458	25.659	1234.860	1004.572
0.556	20.834	1217.953	967.551
1.571	17.050	1224.283	951.321
2.586	16.252	1239.199	958.295
3.600	16.332	1228.139	950.111
4.615	15.044	1161.951	891.968
5.629	12.372	1095.874	827.725
6.644	10.881	1079.270	807.709
7.659	10.835	1076.728	805.507
8.673	10.730	1075.790	804.213
9.688	10.684	1074.768	803.151
10.702	10.836	1072.058	801.802
11.717	12.527	1073.565	811.210
12.731	15.466	1077.795	828.863
13.746	17.360	1079.886	839.760
14.761	17.517	1079.216	839.940
15.775	16.642	1077.207	833.988
16.790	15.516	1075.318	826.914
17.804	14.818	1073.816	822.250
18.819	14.305	1072.055	818.310
19.834	14.078	1071.541	816.730
20.848	13.911	1070.591	815.116
21.863	13.619	1069.796	813.004
22.877	13.585	1068.781	811.994
23.892	13.427	1068.704	811.091
24.907	13.458	1067.682	810.392
25.921	13.580	1066.241	809.824
26.936	13.569	1065.221	808.924
27.950	13.573	1064.027	807.965
28.965	13.735	1062.045	807.176
29.980	13.708	1060.610	805.883
30.994	13.749	1059.427	805.113
32.009	13.769	1058.440	804.387
33.023	13.791	1057.402	803.635
34.038	13.751	1056.199	802.457
35.053	13.658	1055.518	801.418
36.067	13.530	1055.078	800.395
37.082	13.774	1053.412	800.236
38.096	13.736	1053.085	799.736
39.111	13.707	1052.484	799.067
40.126	13.711	1050.848	797.776
41.140	13.525	1049.607	795.867
42.155	13.489	1048.626	794.883
43.169	13.352	1047.582	793.362
44.184	13.446	1046.080	792.604
45.199	13.407	1045.609	791.990
46.213	13.514	1044.600	791.667
47.228	13.526	1043.665	790.950
48.242	13.528	1042.410	789.935
49.257	13.624	1041.141	789.364
50.271	13.706	1039.915	788.750
51.286	13.643	1039.601	788.146
52.301	13.686	1038.734	787.622
53.315	13.625	1037.177	786.083
54.330	13.549	1036.346	785.023
55.344	13.497	1035.524	784.084
56.359	13.536	1034.641	783.532
57.374	13.430	1034.017	782.491
58.388	13.502	1032.307	781.464
59.403	13.391	1032.115	780.726
60.417	13.441	1031.112	780.134
61.432	13.459	1030.373	779.591
62.447	13.417	1029.494	778.658
63.461	13.414	1028.391	777.741
64.476	13.350	1027.682	776.835
65.490	13.449	1026.767	776.543
66.505	13.393	1026.644	776.116
67.520	13.491	1025.718	775.806
68.534	13.551	1024.809	775.333
69.549	13.508	1023.912	774.384
70.563	13.273	1024.004	773.286
71.578	13.346	1022.780	772.635
72.593	13.348	1021.730	771.784
73.607	13.219	1021.390	770.854
74.622	13.325	1020.678	770.744
75.636	13.297	1019.903	769.961
76.651	13.333	1018.884	769.288
77.666	13.372	1018.492	769.109
78.680	13.408	1017.731	768.631
79.695	13.412	1017.124	768.125
80.709	13.313	1016.860	767.396
81.724	13.481	1015.597	767.153
82.739	13.498	1015.338	766.971
83.753	13.619	1014.469	766.805
84.768	13.623	1013.468	766.000
85.782	13.735	1012.615	765.801
86.797	13.670	1011.743	764.776
87.812	13.610	1010.839	763.748
88.826	13.484	1009.758	762.285
89.841	13.636	1008.687	762.109
90.855	13.732	1007.639	761.687
91.870	13.706	1007.351	761.287
92.884	13.753	1006.313	760.648
93.899	13.809	1005.415	760.158
94.914	13.866	1004.462	759.632
95.928	13.815	1003.746	758.793
96.943	13.644	1003.174	757.510
97.957	13.697	1002.535	757.204
98.972	13.797	1001.087	756.498
99.987	13.786	1000.377	755.843
101.001	13.748	999.659	755.061
102.016	13.873	998.319	754.550
103.030	13.812	997.646	753.700
104.045	13.760	996.814	752.765
105.060	13.631	996.135	751.600
106.074	13.620	994.929	750.576
107.089	13.480	994.262	749.371
108.103	13.496	993.412	748.738
109.118	13.532	992.310	748.005
110.133	13.518	991.308	747.119
111.147	13.496	990.430	746.293
112.162	13.627	989.322	745.983
113.176	13.625	988.851	745.549
114.191	13.582	988.333	744.899
115.206	13.557	987.244	743.901
116.220	13.539	986.495	743.193
117.235	13.682	985.163	742.764
118.249	13.673	984.367	742.056
119.264	13.594	983.740	741.164
120.279	13.438	983.610	740.303
121.293	13.427	982.516	739.367
122.308	13.655	981.284	739.393
123.322	13.530	980.196	737.948
124.337	13.450	979.433	736.953
125.352	13.527	978.075	736.209
126.366	13.596	976.865	735.538
127.381	13.553	975.820	734.497
128.395	13.459	975.549	733.812
129.410	13.592	974.268	733.372
130.424	13.542	973.563	732.555
131.439	13.623	973.144	732.534
132.454	13.620	972.353	731.860
133.468	13.699	971.247	731.308
134.483	13.699	970.521	730.698
135.497	13.580	969.575	729.398
136.512	13.642	968.947	729.136
137.527	13.619	968.039	728.285
138.541	13.558	967.574	727.600
139.556	13.721	966.171	727.200
140.570	13.752	966.120	727.230
141.585	13.778	965.099	726.511
142.600	13.790	964.031	725.695
143.614	13.841	963.608	725.538
144.629	13.880	962.907	725.114
145.643	13.772	961.825	723.764
146.658	13.707	960.678	722.556
147.673	13.694	959.804	721.775
148.687	13.648	958.952	720.872
149.702	13.579	958.401	720.094
150.716	13.860	956.870	720.098
151.731	13.729	956.484	719.178
152.746	13.860	955.650	719.054
153.760	13.850	955.184	718.594
154.775	13.882	954.760	718.350
155.789	13.925	953.806	717.754
156.804	13.783	953.308	716.704
157.819	13.866	952.757	716.585
158.833	13.840	952.054	715.881
159.848	13.992	951.144	715.788
160.862	13.813	950.122	714.186
161.877	13.973	948.609	713.674
162.892	13.800	947.679	712.166
163.906	13.871	947.061	711.946
164.921	13.861	946.481	711.404
165.935	13.816	945.457	710.377
166.950	13.963	944.513	710.235
167.964	13.739	944.399	709.127
168.979	13.937	943.131	708.959
169.994	13.954	942.031	708.143
171.008	14.008	941.566	707.957
172.023	13.965	940.659	707.033
173.037	14.054	939.796	706.699
174.052	14.064	939.502	706.458
175.067	14.043	938.316	705.414
176.081	13.931	938.186	704.779
177.096	13.829	937.699	703.917
178.110	13.905	936.727	703.448
179.125	14.071	936.081	703.605
180.140	13.935	935.872	702.806
181.154	14.080	935.437	703.034
182.169	13.970	935.194	702.325
183.183	14.074	934.032	701.826
184.198	14.340	932.984	702.098
185.213	14.043	932.756	700.613
186.227	14.200	931.817	700.506
187.242	14.135	931.590	700.000
188.256	14.289	930.629	699.862
189.271	14.292	929.826	699.210
190.286	14.089	928.990	697.667
191.300	14.009	928.476	696.884
192.315	13.938	927.832	696.042
193.329	13.973	927.285	695.719
194.344	13.933	926.963	695.247
195.359	14.173	925.632	695.188
196.373	14.317	925.329	695.501
197.388	14.197	925.194	694.837
198.402	14.446	924.593	695.362
199.417	14.444	923.712	694.631
200.432	14.478	923.065	694.224
201.446	14.544	923.081	694.450
202.461	14.468	922.701	693.787
203.475	14.510	921.719	693.164
204.490	14.400	920.911	692.035
205.504	14.341	920.576	691.481
206.519	14.512	919.365	691.218
207.534	14.516	918.708	690.676
208.548	14.458	917.892	689.764
209.563	14.398	917.163	688.907
210.577	14.508	916.622	688.895
211.592	14.649	915.760	688.765
212.607	14.508	915.336	687.807
213.621	14.685	914.480	687.831
214.636	14.635	913.757	687.020
215.650	14.635	913.017	686.401
216.665	14.642	912.581	686.044
217.680	14.671	912.003	685.666
218.694	14.626	911.145	684.777
219.709	14.802	910.537	684.982
220.723	14.627	910.062	683.847
221.738	14.719	909.010	683.371
222.753	14.641	908.893	682.902
223.767	14.812	907.848	682.757
224.782	14.764	907.553	682.276
225.796	14.815	907.087	682.074
226.811	14.755	906.302	681.179
227.826	14.884	905.304	680.894
228.840	14.796	904.790	680.092
229.855	14.825	903.707	679.335
230.869	14.865	902.645	678.639
231.884	14.758	902.650	678.148
232.899	14.738	901.528	677.162
233.913	14.807	900.932	676.935
234.928	14.687	900.636	676.167
235.942	14.647	900.215	675.631
236.957	14.642	899.581	675.075
237.972	14.805	898.143	674.594
238.986	14.788	898.116	674.443
240.001	14.797	897.499	673.959
241.015	14.761	896.904	673.307
242.030	14.919	895.912	673.139
243.045	14.838	895.705	672.596
244.059	14.827	895.396	672.262
245.074	14.926	894.312	671.787
246.088	15.087	893.679	671.899
247.103	14.948	893.329	671.018
248.117	14.951	893.153	670.837
249.132	15.216	891.725	670.767
250.147	15.272	891.183	670.523
251.161	15.209	891.018	670.089
252.176	15.188	890.098	669.251
253.190	15.340	889.647	669.460
254.205	15.328	888.576	668.549
255.220	15.405	887.898	668.285
256.234	15.277	887.539	667.445
257.249	15.355	886.932	667.240
258.263	15.347	885.983	666.435
259.278	15.429	885.223	666.130
260.293	15.451	884.706	665.770
261.307	15.403	884.574	665.421
262.322	15.528	883.867	665.328
263.336	15.619	882.755	664.790
264.351	15.544	882.074	663.921
265.366	15.508	881.719	663.454
266.380	15.589	881.001	663.174
267.395	15.527	880.443	662.452
268.409	15.532	879.480	661.688
269.424	15.505	878.771	660.991
270.439	15.485	878.124	660.367
271.453	15.444	877.596	659.748
272.468	15.595	877.246	660.023
273.482	15.451	876.886	659.127
274.497	15.510	875.988	658.625
275.512	15.620	875.220	658.421
276.526	15.484	874.977	657.644
277.541	15.524	874.488	657.376
278.555	15.690	873.936	657.552
279.570	15.853	872.532	657.074
280.585	15.752	872.146	656.333
281.599	15.750	871.069	655.458
282.614	15.721	870.645	654.967
283.628	15.674	870.434	654.566
284.643	15.668	869.899	654.082
285.657	15.759	868.698	653.474
286.672	15.778	868.262	653.163
287.687	15.682	868.202	652.687
288.701	15.869	867.117	652.540
289.716	15.845	866.705	652.078
290.730	15.856	866.349	651.795
291.745	15.872	865.522	651.177
292.760	15.951	865.280	651.243
293.774	15.873	864.412	650.231
294.789	15.977	863.485	649.879
295.803	16.031	862.735	649.464
296.818	15.781	862.387	648.179
297.833	15.983	861.353	648.124
298.847	15.882	861.144	647.519
299.862	15.858	860.967	647.239
300.876	15.826	860.045	646.364
301.891	16.021	859.329	646.517
302.906	16.174	858.286	646.262
303.920	16.130	858.109	645.905
304.935	16.063	858.044	645.541
305.949	16.157	857.041	645.089
306.964	16.149	856.462	644.563
307.979	16.165	855.839	644.099
308.993	16.239	855.516	644.082
310.008	16.162	854.546	643.000
311.022	16.190	853.984	642.628
312.037	16.055	853.867	641.971
313.052	16.035	853.474	641.542
314.066	16.064	852.276	640.695
315.081	16.082	851.804	640.350
316.095	16.083	851.245	639.877
317.110	16.220	850.451	639.744
318.125	16.240	850.180	639.557
319.139	16.161	849.796	638.915
320.154	16.137	849.335	638.422
321.168	16.068	848.823	637.717
322.183	16.171	848.161	637.554
323.197	16.209	847.662	637.264
324.212	16.202	847.257	636.878
325.227	16.150	846.800	636.282
326.241	16.201	846.065	635.866
327.256	16.107	845.750	635.217
328.270	16.325	844.624	635.136
329.285	16.201	844.538	634.551
330.300	16.201	843.523	633.730
331.314	16.327	843.065	633.802
332.329	16.449	842.825	634.023
333.343	16.334	842.198	633.065
334.358	16.324	842.283	633.035
335.373	16.302	842.070	632.738
336.387	16.601	840.969	632.972
337.402	16.464	841.061	632.474
338.416	16.400	840.837	632.011
339.431	16.509	840.207	631.886
340.446	16.674	839.723	632.084
341.460	16.751	839.176	631.904
342.475	16.578	839.099	631.145
343.489	16.691	838.042	630.714
344.504	16.817	837.892	631.017
345.519	16.770	837.449	630.450
346.533	16.754	837.066	630.048
347.548	16.758	835.969	629.180
348.562	16.517	836.015	628.264
349.577	16.668	835.151	628.120
350.592	16.601	834.602	627.401
351.606	16.711	833.614	627.013
352.621	16.678	833.053	626.411
353.635	16.718	832.704	626.242
354.650	16.624	832.140	625.415
355.665	16.738	831.359	625.193
356.679	16.828	830.585	624.889
357.694	16.790	829.913	624.186
358.708	16.751	829.578	623.738
359.723	16.754	829.152	623.374
360.738	16.930	828.325	623.343
361.752	16.732	827.893	622.236
362.767	16.952	827.411	622.624
363.781	16.905	826.809	621.945
364.796	17.048	825.997	621.805
365.810	17.018	826.209	621.799
366.825	17.097	825.668	621.624
367.840	16.961	825.106	620.650
368.854	17.032	824.534	620.425
369.869	16.994	824.591	620.274
370.883	17.022	824.090	619.943
371.898	17.154	823.482	619.914
372.913	17.118	823.037	619.390
373.927	17.021	822.520	618.595
374.942	17.294	822.150	619.256
375.956	17.249	821.451	618.510
376.971	17.136	821.228	617.878
377.986	17.356	820.613	618.157
379.000	17.329	819.859	617.439
380.015	17.245	819.740	616.990
381.029	17.263	819.487	616.811
382.044	17.298	818.493	616.132
383.059	17.274	817.999	615.620
384.073	17.363	817.436	615.466
385.088	17.293	816.913	614.762
386.102	17.282	816.229	614.152
387.117	17.248	815.727	613.600
388.132	17.112	815.445	612.842
389.146	17.387	814.741	613.251
390.161	17.280	814.345	612.512
391.175	17.230	813.940	611.974
392.190	17.355	813.005	611.667
393.205	17.372	812.754	611.485
394.219	17.192	812.528	610.614
395.234	17.253	811.871	610.285
396.248	17.308	811.609	610.230
397.263	17.312	811.026	609.753
398.278	17.267	810.972	609.499
399.292	17.324	810.281	609.128
400.307	17.316	809.545	608.491
401.321	17.411	809.140	608.474
402.336	17.459	808.496	608.107
403.350	17.354	808.513	607.691
404.365	17.509	807.998	607.803
405.380	17.593	807.586	607.739
406.394	17.705	806.759	607.463
407.409	17.730	806.611	607.385
408.423	17.678	806.258	606.882
409.438	17.897	805.512	607.045
410.453	17.710	805.423	606.259
411.467	17.701	804.897	605.776
412.482	17.909	804.676	606.295
413.496	17.840	804.399	605.789
414.511	17.911	803.863	605.584
415.526	17.829	803.187	604.732
416.540	17.820	802.961	604.476
417.555	17.970	802.275	604.437
418.569	17.914	802.000	603.975
419.584	17.771	801.564	603.089
420.599	17.895	801.070	603.101
421.613	111.656	1294.456	1476.339
422.628	96.222	1366.308	1476.418
