DTS Sentinel unit serial number:	SN413079Multiplexer serial number:	ORYXHardware model number:	OX4-SRSoftware version number:	ORYX F/W v4.00 Oryx Data Collector v3.7.2.0data status	okinstallation	princeton_trtdifferential loss correction	single-endedforward channel	channel 1reverse channel	N/Adate	2019/09/12time	05:40:11forward acquisition time	60.00reverse acquisition time	0.00gamma	496.2192k internal	0.2321k external	0.2321temperature offset calibration	1.0046default loss term (dB/km)	0.3790temperature slope calibration	1.0000multiplexer offset coefficient	1.0000multiplexer slope coefficient	1.0000fibre end	0.00T internal ref (°C)	32.00T ext. ref 1 (°C)	1.61T ext. ref 2 (°C)	27.55length (m)	temperature (°C)	Stokes	anti-Stokes-747.200	-200.000	0.029	0.249
-746.185	-48.165	0.081	0.039
-745.171	436.153	-0.093	-0.205
-744.156	-66.882	-0.315	0.126
-743.142	479.375	-0.070	-0.161
-742.127	-200.000	-0.014	0.337
-741.112	-187.655	0.521	0.007
-740.098	-200.000	-0.039	0.383
-739.083	-200.000	0.030	-0.259
-738.069	2.132	-0.246	0.180
-737.054	24.758	-0.126	0.106
-736.039	-100.760	-0.174	0.043
-735.025	90.487	0.149	-0.169
-734.010	-145.151	-0.359	0.033
-732.996	800.000	-0.100	-0.421
-731.981	-90.319	-0.133	-0.039
-730.966	-112.906	0.148	-0.030
-729.952	-157.998	-0.440	-0.026
-728.937	800.000	0.050	-0.179
-727.923	-114.398	-0.205	0.040
-726.908	-81.632	-0.175	-0.058
-725.894	-200.000	-0.008	0.089
-724.879	-200.000	-0.039	-0.250
-723.864	-54.262	0.448	-0.205
-722.850	-99.050	-0.188	0.048
-721.835	-75.053	-0.349	0.126
-720.821	-200.000	0.040	0.363
-719.806	-90.561	0.060	-0.018
-718.791	354.208	-0.059	-0.119
-717.777	-118.975	-0.135	0.024
-716.762	-200.000	0.006	0.187
-715.748	-89.939	-0.245	0.072
-714.733	800.000	-0.082	-0.239
-713.718	23.877	0.207	-0.173
-712.704	-105.470	-0.061	0.014
-711.689	-153.206	-0.192	-0.014
-710.675	-146.551	0.219	-0.019
-709.660	24.006	-0.137	0.114
-708.645	18.493	-0.156	-0.126
-707.631	-200.000	-0.011	-0.187
-706.616	24.862	0.233	0.195
-705.602	-127.490	0.187	-0.027
-704.587	222.445	-0.125	0.204
-703.572	43.682	-0.291	-0.269
-702.558	-189.037	-0.341	0.004
-701.543	800.000	0.028	0.097
-700.529	657.955	0.036	-0.095
-699.514	106.696	-0.105	-0.125
-698.499	-13.617	-0.057	-0.037
-697.485	-200.000	-0.007	-0.200
-696.470	109.938	0.142	-0.172
-695.456	131.843	-0.114	0.148
-694.441	47.698	0.096	0.090
-693.426	169.050	-0.094	0.136
-692.412	-186.847	0.378	0.005
-691.397	97.794	-0.135	-0.156
-690.383	322.402	-0.161	-0.309
-689.368	-111.514	-0.102	-0.021
-688.354	219.541	-0.044	-0.071
-687.339	319.562	0.045	-0.085
-686.324	15.700	0.205	-0.163
-685.310	-200.000	-0.010	-0.096
-684.295	-61.833	-0.292	-0.123
-683.281	13.161	-0.120	0.093
-682.266	800.000	0.075	-0.222
-681.251	40.779	-0.274	0.250
-680.237	40.631	-0.191	-0.173
-679.222	-28.772	0.096	-0.055
-678.208	-60.468	-0.199	0.085
-677.193	-43.359	-0.117	0.060
-676.178	-200.000	0.026	0.124
-675.164	-6.205	0.121	0.084
-674.149	-35.814	0.092	0.050
-673.135	-82.821	-0.090	0.029
-672.120	-124.444	0.239	0.038
-671.105	237.416	-0.131	-0.218
-670.091	26.732	-0.206	-0.174
-669.076	-33.535	0.098	-0.055
-668.062	800.000	0.129	-0.499
-667.047	22.224	-0.197	0.162
-666.032	71.464	-0.340	0.355
-665.018	-74.457	0.188	-0.068
-664.003	60.466	0.084	-0.084
-662.989	-86.559	-0.276	0.085
-661.974	207.166	-0.015	-0.023
-660.959	-10.010	-0.213	-0.142
-659.945	17.225	0.047	0.038
-658.930	767.546	-0.046	0.127
-657.916	800.000	-0.072	-0.231
-656.901	-138.022	0.222	0.025
-655.886	-200.000	0.079	0.411
-654.872	25.660	-0.242	0.203
-653.857	21.215	0.194	-0.158
-652.843	-28.364	-0.307	-0.178
-651.828	90.451	0.105	-0.118
-650.814	800.000	-0.062	0.233
-649.799	-200.000	0.008	0.250
-648.784	-39.022	-0.326	-0.173
-647.770	725.765	0.035	0.095
-646.755	-41.242	-0.194	-0.101
-645.741	310.190	-0.062	-0.118
-644.726	-199.523	-0.279	0.001
-643.711	-103.510	-0.246	0.058
-642.697	75.674	0.050	-0.054
-641.682	281.925	-0.073	-0.132
-640.668	154.121	0.131	-0.180
-639.653	-154.426	-0.278	-0.019
-638.638	468.705	0.104	-0.235
-637.624	-124.837	-0.339	-0.053
-636.609	37.887	-0.232	0.207
-635.595	150.162	0.211	0.288
-634.580	160.826	0.095	0.134
-633.565	1.872	0.227	-0.164
-632.551	-49.271	0.139	-0.067
-631.536	169.497	0.077	0.110
-630.522	-118.032	-0.394	0.071
-629.507	395.463	-0.145	-0.304
-628.492	-34.270	0.102	-0.056
-627.478	-200.000	0.016	-0.203
-626.463	-42.165	-0.166	-0.085
-625.449	800.000	0.049	-0.196
-624.434	-147.074	0.405	0.035
-623.419	-40.876	0.075	-0.039
-622.405	-90.612	-0.187	-0.054
-621.390	-118.644	-0.222	-0.039
-620.376	-200.000	-0.011	0.179
-619.361	-138.346	-0.239	0.027
-618.346	313.820	-0.116	0.219
-617.332	73.683	0.101	-0.107
-616.317	-101.759	0.208	-0.051
-615.303	-131.172	0.183	0.024
-614.288	159.204	-0.288	0.403
-613.273	-34.777	-0.105	0.058
-612.259	54.398	-0.189	-0.183
-611.244	-37.821	0.183	-0.098
-610.230	-118.320	-0.321	-0.057
-609.215	42.699	-0.114	0.104
-608.201	800.000	0.122	0.354
-607.186	-111.039	0.115	0.024
-606.171	-112.516	0.366	0.073
-605.157	-61.815	-0.170	0.071
-604.142	800.000	-0.036	0.116
-603.128	-50.874	-0.057	-0.027
-602.113	-200.000	0.049	-0.259
-601.098	204.962	0.128	0.199
-600.084	-125.380	-0.078	-0.012
-599.069	-68.651	-0.476	-0.185
-598.055	-6.446	0.122	-0.084
-597.040	107.867	0.236	-0.282
-596.025	-137.801	0.050	0.006
-595.011	-38.434	-0.082	-0.044
-593.996	-63.399	0.352	0.146
-592.982	-149.978	-0.160	-0.013
-591.967	-200.000	-0.033	-0.266
-590.952	61.311	-0.210	-0.210
-589.938	-90.942	0.027	-0.008
-588.923	-6.340	0.117	0.080
-587.909	-200.000	-0.027	-0.121
-586.894	-52.783	0.111	-0.051
-585.879	196.975	-0.238	0.365
-584.865	97.891	0.080	0.092
-583.850	410.695	-0.109	-0.232
-582.836	226.268	0.030	-0.048
-581.821	221.984	0.109	-0.175
-580.806	673.423	-0.092	-0.240
-579.792	42.732	-0.091	0.084
-578.777	385.268	0.155	-0.322
-577.763	-21.036	0.249	0.153
-576.748	-200.000	-0.024	-0.222
-575.733	-200.000	0.026	-0.200
-574.719	0.934	0.525	0.378
-573.704	115.376	0.038	0.047
-572.690	596.973	-0.173	0.431
-571.675	734.370	0.072	0.195
-570.661	300.002	0.079	-0.145
-569.646	-25.022	0.235	-0.140
-568.631	-85.550	0.386	0.120
-567.617	-44.753	0.349	0.175
-566.602	-73.087	-0.293	-0.108
-565.588	379.120	0.047	0.097
-564.573	352.850	0.036	0.073
-563.558	-200.000	0.023	0.125
-562.544	-200.000	0.004	-0.106
-561.529	800.000	0.039	-0.129
-560.515	-9.669	-0.212	0.142
-559.500	182.741	0.058	0.087
-558.485	77.245	0.343	0.366
-557.471	-63.205	-0.439	0.182
-556.456	-200.000	-0.073	-0.542
-555.442	-128.610	-0.318	-0.045
-554.427	-57.226	0.170	0.075
-553.412	21.214	-0.292	-0.238
-552.398	-83.987	0.321	-0.102
-551.383	369.946	-0.082	-0.166
-550.369	-6.927	-0.156	0.106
-549.354	-200.000	-0.044	-0.218
-548.339	-93.415	0.264	-0.073
-547.325	-98.149	-0.251	-0.065
-546.310	43.331	0.050	-0.046
-545.296	446.037	-0.103	0.228
-544.281	479.679	0.020	-0.046
-543.266	231.528	-0.063	0.104
-542.252	-130.043	-0.249	-0.034
-541.237	-80.665	0.382	-0.127
-540.223	39.081	0.097	-0.087
-539.208	17.764	-0.107	-0.086
-538.193	-150.239	-0.387	0.030
-537.179	-65.595	-0.112	0.045
-536.164	39.736	0.076	0.069
-535.150	750.804	0.028	0.077
-534.135	50.098	0.145	-0.137
-533.121	81.310	-0.262	-0.284
-532.106	717.549	0.069	0.183
-531.091	406.286	-0.085	0.180
-530.077	475.713	-0.081	-0.183
-529.062	800.000	0.095	-0.330
-528.048	800.000	-0.144	0.492
-527.033	-98.206	-0.241	-0.062
-526.018	-73.686	0.460	0.168
-525.004	-105.830	0.238	0.054
-523.989	-117.633	-0.405	0.073
-522.975	-134.026	-0.170	0.021
-521.960	-200.000	0.002	0.047
-520.945	-108.675	0.320	-0.069
-519.931	-1.523	-0.165	0.117
-518.916	800.000	-0.039	-0.130
-517.902	-21.775	0.200	0.122
-516.887	-200.000	-0.008	-0.093
-515.872	-200.000	-0.015	0.065
-514.858	232.514	-0.376	-0.618
-513.843	-141.915	-0.239	0.024
-512.829	58.679	0.145	0.142
-511.814	-200.000	-0.062	-0.350
-510.799	800.000	0.071	-0.256
-509.785	100.420	0.197	0.229
-508.770	-200.000	-0.004	-0.187
-507.756	112.705	-0.251	0.305
-506.741	-120.645	0.151	0.026
-505.726	-106.845	-0.112	0.025
-504.712	65.150	-0.105	0.106
-503.697	800.000	0.087	0.340
-502.683	-200.000	-0.021	0.177
-501.668	558.976	0.073	0.176
-500.653	422.299	-0.105	0.225
-499.639	-32.109	-0.102	0.057
-498.624	459.806	0.104	0.232
-497.610	253.163	-0.034	0.057
-496.595	-68.356	-0.350	0.136
-495.581	550.857	-0.056	-0.134
-494.566	59.407	-0.153	-0.151
-493.551	-200.000	-0.317	0.000
-492.537	-68.711	0.312	-0.121
-491.522	186.228	0.160	0.238
-490.508	-200.000	0.028	-0.224
-489.493	-71.487	-0.281	-0.105
-488.478	-91.911	0.323	-0.092
-487.464	82.406	-0.226	0.245
-486.449	-87.919	-0.424	0.128
-485.435	-200.000	0.021	-0.172
-484.420	800.000	0.032	-0.131
-483.405	59.660	-0.059	-0.059
-482.391	-148.139	-0.354	-0.029
-481.376	7.060	0.196	0.146
-480.362	-131.751	0.055	-0.007
-479.347	-200.000	-0.047	-0.333
-478.332	720.616	0.160	-0.425
-477.318	16.813	-0.042	-0.033
-476.303	11.551	-0.095	0.073
-475.289	-131.909	0.090	0.012
-474.274	-92.671	0.035	-0.010
-473.259	-200.000	0.009	-0.060
-472.245	-79.358	0.121	0.041
-471.230	-78.081	-0.128	-0.044
-470.216	126.666	0.110	0.140
-469.201	-61.642	0.284	0.119
-468.186	117.453	0.085	0.104
-467.172	-200.000	0.018	0.147
-466.157	389.612	-0.068	0.142
-465.143	-85.994	-0.400	-0.123
-464.128	-115.994	0.257	0.048
-463.113	114.020	0.082	-0.099
-462.099	106.839	-0.080	-0.095
-461.084	800.000	0.044	-0.190
-460.070	-200.000	0.007	0.103
-459.055	-187.533	-0.281	-0.004
-458.040	-4.076	-0.223	-0.155
-457.026	96.499	-0.273	-0.313
-456.011	777.033	-0.096	-0.263
-454.997	-200.000	-0.059	-0.288
-453.982	-39.591	0.115	-0.060
-452.968	68.723	0.178	-0.183
-451.953	85.269	0.168	0.184
-450.938	800.000	-0.068	0.230
-449.924	-173.417	0.215	0.007
-448.909	800.000	-0.047	0.134
-447.895	-126.715	-0.473	0.070
-446.880	37.734	-0.063	-0.056
-445.865	678.131	0.066	-0.172
-444.851	800.000	0.016	-0.066
-443.836	-43.146	0.390	-0.198
-442.822	-200.000	-0.004	0.223
-441.807	800.000	-0.028	-0.088
-440.792	183.919	0.117	0.173
-439.778	621.136	-0.034	-0.085
-438.763	105.049	-0.135	0.158
-437.749	423.617	0.072	0.156
-436.734	445.384	-0.056	-0.124
-435.719	-200.000	-0.051	-0.275
-434.705	45.251	0.138	-0.127
-433.690	6.749	-0.370	0.275
-432.676	800.000	0.087	-0.288
-431.661	-53.973	-0.059	-0.027
-430.646	61.588	-0.171	0.170
-429.632	11.844	-0.304	0.233
-428.617	-162.883	-0.247	0.012
-427.603	24.901	0.299	-0.247
-426.588	800.000	-0.075	0.218
-425.573	-126.590	-0.058	0.009
-424.559	-175.083	0.352	0.010
-423.544	-11.220	0.330	-0.217
-422.530	800.000	0.013	0.043
-421.515	221.523	-0.050	0.080
-420.500	15.907	0.090	-0.070
-419.486	129.777	0.105	-0.134
-418.471	-200.000	0.031	0.206
-417.457	-41.742	-0.227	0.116
-416.442	-134.417	0.272	-0.033
-415.428	56.426	0.103	0.100
-414.413	67.284	-0.006	-0.007
-413.398	134.717	0.105	-0.135
-412.384	453.601	0.097	-0.214
-411.369	406.501	-0.039	0.083
-410.355	524.023	-0.140	0.329
-409.340	800.000	-0.080	0.305
-408.325	-200.000	-0.009	0.109
-407.311	185.077	0.204	0.302
-406.296	-200.000	0.015	-0.262
-405.282	-59.224	-0.166	-0.071
-404.267	-130.424	0.192	-0.026
-403.252	-96.788	-0.119	0.031
-402.238	-97.156	0.095	-0.025
-401.223	-200.000	0.020	0.125
-400.209	138.689	0.137	0.180
-399.194	-200.000	0.029	-0.151
-398.179	207.439	0.078	0.122
-397.165	-72.754	0.210	0.077
-396.150	321.661	0.020	-0.038
-395.136	-131.825	-0.106	0.014
-394.121	12.778	0.221	-0.170
-393.106	-34.142	-0.044	0.024
-392.092	-144.171	0.050	-0.005
-391.077	800.000	0.031	-0.087
-390.063	800.000	-0.085	-0.251
-389.048	-173.594	0.086	-0.003
-388.033	-91.734	-0.183	-0.052
-387.019	-18.803	0.234	0.145
-386.004	115.916	0.159	0.194
-384.990	58.137	0.100	0.098
-383.975	-13.784	0.053	-0.034
-382.960	100.107	0.135	-0.156
-381.946	-167.277	0.204	-0.008
-380.931	-132.298	-0.251	0.032
-379.917	122.429	-0.248	-0.309
-378.902	800.000	-0.095	0.317
-377.888	501.126	0.057	-0.131
-376.873	-46.552	-0.195	-0.095
-375.858	-111.564	0.188	0.038
-374.844	41.266	0.229	-0.207
-373.829	141.954	0.184	0.242
-372.815	-21.263	-0.415	-0.253
-371.800	-200.000	-0.007	0.105
-370.785	-200.000	0.034	-0.151
-369.771	-118.709	-0.162	0.028
-368.756	520.928	-0.072	0.167
-367.742	-38.805	0.468	0.246
-366.727	330.671	-0.054	-0.103
-365.712	-184.769	-0.251	0.004
-364.698	-119.580	-0.313	0.054
-363.683	326.055	-0.056	-0.107
-362.669	800.000	0.130	0.497
-361.654	36.752	0.213	-0.187
-360.639	-200.000	0.495	0.002
-359.625	-72.784	0.265	-0.097
-358.610	-114.584	-0.312	-0.059
-357.596	554.819	-0.086	0.205
-356.581	-200.000	0.002	0.018
-355.566	800.000	0.157	-0.482
-354.552	800.000	0.032	0.129
-353.537	-23.372	0.323	-0.193
-352.523	800.000	0.042	0.171
-351.508	-200.000	0.025	-0.507
-350.493	-46.108	0.116	-0.057
-349.479	-200.000	0.000	-0.378
-348.464	161.768	0.182	-0.253
-347.450	-200.000	0.042	-0.335
-346.435	38.819	0.074	-0.066
-345.420	-49.043	-0.141	-0.067
-344.406	75.473	-0.128	0.135
-343.391	800.000	-0.082	0.234
-342.377	-122.409	0.284	-0.046
-341.362	-76.340	-0.117	0.041
-340.348	79.289	-0.140	0.149
-339.333	52.154	0.188	-0.178
-338.318	23.060	0.059	-0.048
-337.304	-200.000	0.017	0.156
-336.289	-141.124	-0.133	0.013
-335.275	166.306	0.013	0.019
-334.260	188.556	0.185	-0.275
-333.245	-200.000	-0.004	0.023
-332.231	-200.000	-0.065	0.402
-331.216	-3.950	0.155	0.107
-330.202	9.797	0.153	-0.115
-329.187	-200.000	-0.004	-0.357
-328.172	232.250	0.146	0.239
-327.158	-200.000	-0.078	0.000
-326.143	240.212	-0.163	0.270
-325.129	-80.547	0.198	0.066
-324.114	115.971	-0.106	0.130
-323.099	800.000	0.055	-0.179
-322.085	146.297	-0.191	-0.255
-321.070	310.829	0.086	-0.161
-320.056	-134.375	0.182	-0.022
-319.041	-200.000	-0.026	-0.347
-318.026	-23.708	-0.175	-0.104
-317.012	67.389	0.106	0.108
-315.997	-175.608	-0.209	0.006
-314.983	-111.911	0.110	-0.022
-313.968	-152.142	0.300	0.022
-312.953	-200.000	-0.003	-0.279
-311.939	-36.796	0.395	0.211
-310.924	-173.068	-0.383	0.012
-309.910	8.169	0.078	-0.058
-308.895	-200.000	0.023	-0.124
-307.880	-30.731	0.467	0.263
-306.866	-96.298	-0.146	0.038
-305.851	313.936	-0.088	0.164
-304.837	152.408	0.189	0.257
-303.822	-141.023	0.251	0.026
-302.807	111.198	-0.156	0.186
-301.793	-125.131	-0.341	-0.052
-300.778	412.469	0.043	-0.091
-299.764	-75.243	0.060	0.021
-298.749	102.137	-0.058	-0.068
-297.735	-200.000	-0.004	-0.022
-296.720	-26.592	-0.210	0.122
-295.705	51.954	-0.188	0.177
-294.691	36.239	0.076	0.066
-293.676	800.000	0.031	-0.127
-292.662	-200.000	0.008	0.193
-291.647	-39.558	-0.127	-0.066
-290.632	224.087	-0.100	-0.160
-289.618	58.941	0.166	-0.162
-288.603	-67.652	0.243	0.095
-287.589	84.098	0.171	-0.186
-286.574	-26.072	0.324	-0.189
-285.559	800.000	-0.035	0.108
-284.545	298.497	0.061	0.111
-283.530	-128.103	0.121	-0.017
-282.516	614.806	0.042	0.105
-281.501	-200.000	-0.059	-0.260
-280.486	2.146	-0.119	0.086
-279.472	-39.995	0.205	-0.106
-278.457	-45.749	-0.327	0.160
-277.443	17.597	-0.156	-0.123
-276.428	48.831	-0.135	0.126
-275.413	800.000	0.050	0.170
-274.399	-200.000	-0.002	0.075
-273.384	800.000	-0.063	0.191
-272.370	117.111	0.192	-0.234
-271.355	213.631	0.071	0.112
-270.340	293.793	0.055	0.101
-269.326	-100.777	0.219	0.053
-268.311	-173.247	0.087	0.003
-267.297	-50.460	-0.240	-0.112
-266.282	-87.580	-0.145	0.043
-265.267	-149.042	-0.310	-0.025
-264.253	-147.065	-0.331	-0.028
-263.238	-200.000	0.010	-0.071
-262.224	-87.896	0.051	0.015
-261.209	-200.000	-0.060	-0.406
-260.195	-175.319	0.306	-0.008
-259.180	800.000	0.133	0.400
-258.165	-200.000	-0.053	0.273
-257.151	-69.841	0.240	0.091
-256.136	-126.731	-0.200	0.029
-255.122	-89.514	-0.139	0.041
-254.107	-130.370	-0.149	-0.020
-253.092	800.000	-0.025	0.081
-252.078	232.081	-0.083	0.135
-251.063	40.691	-0.185	-0.165
-250.049	-200.000	0.001	0.149
-249.034	10.979	0.121	0.091
-248.019	414.660	0.134	-0.282
-247.005	185.749	-0.051	0.075
-245.990	-7.204	-0.069	0.046
-244.976	34.513	0.021	-0.019
-243.961	-66.100	0.108	0.043
-242.946	800.000	0.071	0.228
-241.932	-63.489	0.233	-0.095
-240.917	-130.912	0.251	-0.033
-239.903	85.949	-0.229	0.250
-238.888	-200.000	0.017	0.082
-237.873	-68.607	0.260	-0.100
-236.859	37.336	-0.073	-0.064
-235.844	-29.476	0.182	-0.103
-234.830	800.000	-0.035	-0.119
-233.815	-200.000	-0.053	0.351
-232.800	37.123	-0.233	0.204
-231.786	-25.286	-0.054	0.032
-230.771	408.888	0.105	0.220
-229.757	-74.955	-0.133	-0.047
-228.742	-19.566	-0.190	-0.117
-227.727	-108.630	-0.131	0.028
-226.713	-10.954	-0.094	-0.061
-225.698	800.000	-0.010	0.037
-224.684	-135.143	0.177	0.021
-223.669	60.549	-0.167	0.164
-222.655	-118.970	0.217	0.038
-221.640	800.000	-0.059	0.209
-220.625	-140.813	-0.379	-0.039
-219.611	-46.827	-0.406	0.197
-218.596	-41.969	0.268	-0.136
-217.582	800.000	-0.008	-0.028
-216.567	-103.574	-0.160	0.037
-215.552	-126.939	-0.434	0.063
-214.538	-200.000	-0.019	0.217
-213.523	194.880	-0.097	-0.146
-212.509	800.000	-0.081	0.229
-211.494	-15.105	0.140	-0.089
-210.479	47.370	-0.019	-0.018
-209.465	172.163	-0.219	-0.312
-208.450	-200.000	0.015	0.186
-207.436	-200.000	-0.019	0.325
-206.421	205.557	0.160	0.246
-205.406	-57.703	-0.225	0.097
-204.392	-23.761	0.278	0.165
-203.377	-168.034	0.195	0.008
-202.363	-5.915	0.016	-0.011
-201.348	-56.009	-0.169	-0.075
-200.333	-200.000	0.012	0.114
-199.319	-200.000	0.054	0.339
-198.304	-124.203	-0.240	0.037
-197.290	-163.983	0.138	0.006
-196.275	-200.000	-0.022	0.229
-195.260	303.014	0.075	0.138
-194.246	-22.536	0.168	0.100
-193.231	235.117	-0.168	0.275
-192.217	282.160	-0.088	-0.156
-191.202	800.000	-0.022	-0.065
-190.187	-200.000	-0.072	-0.408
-189.173	-200.000	0.023	-0.127
-188.158	-200.000	0.322	0.001
-187.144	465.880	-0.016	0.035
-186.129	800.000	0.035	-0.110
-185.114	-49.011	0.389	0.184
-184.100	0.066	-0.012	-0.008
-183.085	-200.000	-0.011	-0.213
-182.071	-46.759	-0.175	-0.085
-181.056	216.260	0.265	0.417
-180.042	-196.766	0.141	-0.001
-179.027	-134.208	-0.057	0.007
-178.012	72.816	-0.048	0.050
-176.998	-46.141	0.095	0.046
-175.983	-67.593	0.306	-0.118
-174.969	800.000	0.119	-0.358
-173.954	-168.767	0.439	-0.016
-172.939	-49.263	-0.173	-0.082
-171.925	-67.986	-0.183	0.071
-170.910	152.490	-0.194	0.262
-169.896	-200.000	-0.037	-0.292
-168.881	-65.966	0.306	-0.121
-167.866	191.629	0.128	-0.190
-166.852	-28.656	0.116	-0.066
-165.837	800.000	-0.064	0.217
-164.823	214.253	-0.128	-0.200
-163.808	-200.000	0.001	-0.079
-162.793	-109.823	0.233	-0.048
-161.779	800.000	-0.059	-0.196
-160.764	35.041	-0.078	0.067
-159.750	526.768	0.019	0.044
-158.735	283.713	-0.114	0.203
-157.720	800.000	-0.046	0.189
-156.706	-184.100	-0.155	-0.003
-155.691	312.557	-0.094	-0.174
-154.677	-200.000	-0.029	0.130
-153.662	13.217	-0.086	-0.066
-152.647	28.304	0.318	-0.265
-151.633	123.570	-0.062	-0.077
-150.618	800.000	-0.020	-0.071
-149.604	-200.000	0.031	0.153
-148.589	-200.000	-0.040	0.198
-147.574	-200.000	0.045	-0.253
-146.560	-12.132	0.043	0.028
-145.545	199.390	0.129	0.195
-144.531	92.899	-0.247	0.275
-143.516	-200.000	-0.009	0.282
-142.502	155.093	0.167	0.227
-141.487	309.432	0.045	-0.084
-140.472	-35.684	0.071	-0.038
-139.458	-119.448	0.165	0.028
-138.443	-41.140	0.297	-0.151
-137.429	-200.000	0.055	-0.445
-136.414	-48.984	-0.033	-0.015
-135.399	-148.905	-0.509	0.041
-134.385	-200.000	0.019	0.187
-133.370	-163.742	-0.172	0.008
-132.356	-19.681	0.266	-0.162
-131.341	-193.077	-0.341	-0.003
-130.326	-200.000	0.013	0.224
-129.312	-36.455	-0.062	0.033
-128.297	-58.294	0.102	-0.044
-127.283	-71.779	-0.042	-0.015
-126.268	-45.354	0.183	0.089
-125.253	-200.000	-0.048	0.227
-124.239	-200.000	0.067	0.000
-123.224	474.188	-0.029	-0.064
-122.210	-176.383	0.094	-0.002
-121.195	-200.000	0.009	0.232
-120.180	-93.546	0.226	-0.062
-119.166	-9.602	-0.163	-0.107
-118.151	-200.000	0.024	-0.234
-117.137	-200.000	0.040	0.293
-116.122	72.504	0.190	0.196
-115.107	-66.720	0.048	-0.019
-114.093	-200.000	-0.014	-0.240
-113.078	-88.365	-0.216	0.064
-112.064	-104.862	-0.329	-0.074
-111.049	63.598	-0.110	0.109
-110.034	154.659	-0.096	-0.130
-109.020	72.075	-0.090	-0.092
-108.005	122.242	0.041	0.051
-106.991	-200.000	0.002	0.487
-105.976	-200.000	0.030	0.282
-104.962	100.651	-0.266	0.304
-103.947	373.709	0.109	-0.219
-102.932	-127.811	-0.328	0.047
-101.918	-200.000	-0.012	0.070
-100.903	-48.438	-0.277	0.131
-99.889	169.489	0.166	-0.234
-98.874	229.240	-0.154	-0.248
-97.859	-87.178	0.182	0.054
-96.845	205.937	0.183	-0.281
-95.830	-20.254	0.240	0.146
-94.816	-13.713	-0.242	0.155
-93.801	655.034	0.153	-0.386
-92.786	-27.347	-0.143	0.082
-91.772	99.634	-0.058	0.066
-90.757	59.979	-0.131	0.127
-89.743	6.319	0.252	-0.184
-88.728	-191.392	0.077	-0.001
-87.713	159.744	0.074	-0.101
-86.699	-200.000	0.028	-0.172
-85.684	573.684	0.175	-0.420
-84.670	-172.855	-0.258	-0.008
-83.655	-68.393	0.252	-0.096
-82.640	516.198	-0.009	0.022
-81.626	210.881	-0.150	-0.233
-80.611	-49.273	-0.127	-0.060
-79.597	724.918	-0.170	-0.445
-78.582	800.000	-0.002	-0.006
-77.567	-133.215	0.193	0.024
-76.553	382.354	-0.028	-0.057
-75.538	-123.920	0.300	0.047
-74.524	29.307	-0.235	0.196
-73.509	14.911	0.082	-0.063
-72.494	-116.130	0.012	-0.002
-71.480	-200.000	-0.011	-0.423
-70.465	-34.658	0.224	0.120
-69.451	-7.283	0.245	0.164
-68.436	270.211	0.126	0.218
-67.422	800.000	-0.029	-0.092
-66.407	-30.464	-0.116	-0.065
-65.392	800.000	0.079	-0.222
-64.378	346.516	0.094	0.182
-63.363	377.108	-0.144	0.289
-62.349	800.000	0.111	0.351
-61.334	29.092	-0.929	-0.775
-60.319	71.427	0.486	0.497
-59.305	-200.000	-0.028	-1.267
-58.290	91.933	0.713	0.789
-57.276	383.304	0.668	1.353
-56.261	-200.000	96.227	597.641
-55.246	567.923	1369.923	3273.502
-54.232	161.487	2548.784	3507.764
-53.217	113.734	2140.266	2558.283
-52.203	44.082	1602.129	1444.969
-51.188	35.452	1340.125	1156.888
-50.173	32.375	1298.428	1102.846
-49.159	54.531	1346.406	1276.286
-48.144	56.802	1362.231	1304.766
-47.130	35.665	1321.180	1141.621
-46.115	32.220	1303.608	1106.155
-45.100	31.911	1298.729	1100.157
-44.086	31.834	1296.544	1097.812
-43.071	31.849	1294.117	1095.805
-42.057	31.811	1291.796	1093.574
-41.042	31.904	1290.103	1092.639
-40.027	31.894	1288.450	1091.134
-39.013	31.855	1287.112	1089.730
-37.998	31.797	1285.578	1088.056
-36.984	32.025	1282.909	1087.074
-35.969	32.105	1281.296	1086.125
-34.954	32.072	1279.302	1084.201
-33.940	31.988	1278.770	1083.225
-32.925	32.034	1277.259	1082.168
-31.911	32.051	1275.786	1080.970
-30.896	32.032	1274.164	1079.444
-29.881	31.924	1273.047	1077.836
-28.867	32.116	1271.172	1077.306
-27.852	32.132	1270.015	1076.374
-26.838	32.104	1268.658	1075.022
-25.823	32.213	1266.601	1073.862
-24.809	32.088	1266.331	1072.873
-23.794	32.082	1264.747	1071.457
-22.779	32.061	1262.788	1069.632
-21.765	32.052	1261.989	1068.864
-20.750	32.074	1260.893	1068.021
-19.736	32.035	1259.269	1066.380
-18.721	31.951	1258.397	1065.121
-17.706	32.021	1256.953	1064.255
-16.692	32.029	1255.585	1063.099
-15.677	31.963	1254.765	1061.988
-14.663	32.016	1253.355	1061.054
-13.648	31.961	1252.642	1060.098
-12.633	31.935	1251.481	1058.923
-11.619	31.971	1250.870	1058.570
-10.604	31.951	1249.784	1057.492
-9.590	31.915	1248.800	1056.418
-8.575	31.964	1247.980	1055.960
-7.560	31.958	1246.842	1054.919
-6.546	31.884	1246.333	1054.031
-5.531	31.884	1245.444	1053.235
-4.517	31.908	1244.426	1052.468
-3.502	32.035	1243.283	1052.173
-2.487	31.897	1242.431	1050.634
-1.473	31.997	1238.323	1047.677
-0.458	30.591	1223.883	1027.659
0.556	27.243	1206.790	991.925
1.571	23.697	1212.759	977.270
2.586	22.943	1228.579	985.724
3.600	22.364	1217.007	973.152
4.615	15.868	1143.494	880.425
5.629	5.866	1066.736	772.230
6.644	1.915	1046.622	738.496
7.659	1.658	1044.145	735.439
8.673	1.516	1042.821	733.755
9.688	1.343	1041.673	732.048
10.702	1.666	1039.833	732.247
11.717	7.698	1048.330	767.352
12.731	17.919	1063.402	828.136
13.746	23.609	1070.326	861.149
14.761	24.666	1071.649	867.268
15.775	24.746	1071.374	867.357
16.790	24.644	1070.077	865.735
17.804	24.603	1069.759	865.205
18.819	24.712	1069.401	865.366
19.834	24.819	1069.092	865.557
20.848	24.867	1068.531	865.256
21.863	24.921	1067.838	864.880
22.877	24.820	1067.552	864.086
23.892	24.747	1066.847	863.087
24.907	24.809	1065.838	862.492
25.921	24.828	1064.700	861.585
26.936	24.698	1063.703	860.080
27.950	24.779	1061.500	858.612
28.965	24.694	1060.101	856.998
29.980	24.808	1058.518	856.183
30.994	24.854	1057.984	855.896
32.009	24.828	1056.975	854.881
33.023	24.695	1055.622	853.079
34.038	24.777	1055.042	852.924
35.053	24.876	1054.230	852.663
36.067	24.770	1054.194	852.053
37.082	25.039	1052.633	851.994
38.096	24.981	1052.658	851.663
39.111	25.131	1051.548	851.406
40.126	25.027	1049.691	849.331
41.140	24.641	1048.186	846.210
42.155	24.338	1046.865	843.638
43.169	24.535	1045.814	843.647
44.184	24.482	1045.277	842.887
45.199	24.369	1044.331	841.517
46.213	24.626	1043.081	841.649
47.228	24.765	1042.129	841.460
48.242	24.633	1041.881	840.560
49.257	24.912	1040.518	840.700
50.271	24.961	1039.936	840.386
51.286	24.854	1039.660	839.585
52.301	24.851	1038.322	838.415
53.315	24.751	1037.594	837.287
54.330	24.748	1036.736	836.507
55.344	24.882	1035.995	836.461
56.359	24.769	1035.084	835.124
57.374	24.677	1033.629	833.444
58.388	24.562	1033.308	832.578
59.403	24.521	1032.560	831.712
60.417	24.381	1031.354	830.013
61.432	24.490	1031.008	830.171
62.447	24.722	1029.979	830.345
63.461	24.692	1029.810	829.995
64.476	24.565	1028.541	828.311
65.490	24.530	1027.438	827.187
66.505	24.488	1027.396	826.887
67.520	24.616	1026.303	826.523
68.534	24.295	1025.695	824.478
69.549	23.975	1024.349	821.846
70.563	24.133	1023.507	821.828
71.578	24.095	1022.700	820.932
72.593	23.856	1021.736	818.982
73.607	24.093	1021.214	819.584
74.622	24.325	1021.034	820.433
75.636	24.330	1020.080	819.615
76.651	24.289	1019.209	818.657
77.666	24.183	1018.766	817.742
78.680	24.298	1017.891	817.493
79.695	24.455	1017.022	817.443
80.709	24.380	1016.740	816.800
81.724	24.475	1015.871	816.463
82.739	24.448	1015.281	815.795
83.753	24.762	1015.131	817.035
84.768	25.025	1014.167	817.391
85.782	25.313	1013.098	817.768
86.797	25.052	1012.194	815.777
87.812	24.989	1011.167	814.593
88.826	24.849	1010.553	813.389
89.841	25.090	1009.456	813.527
90.855	25.222	1008.169	813.017
91.870	25.140	1007.533	812.058
92.884	24.953	1006.376	810.207
93.899	24.976	1005.308	809.383
94.914	25.255	1004.562	809.970
95.928	24.928	1003.632	807.672
96.943	24.748	1002.431	805.826
97.957	24.592	1001.040	803.931
98.972	24.373	1000.426	802.385
99.987	24.704	999.521	803.074
101.001	24.734	999.268	802.935
102.016	24.786	998.381	802.385
103.030	24.702	997.391	801.141
104.045	24.629	996.200	799.786
105.060	24.387	995.340	797.945
106.074	24.582	994.920	798.409
107.089	24.897	994.397	799.325
108.103	24.712	993.262	797.516
109.118	24.620	991.940	795.972
110.133	24.614	991.067	795.176
111.147	24.346	989.893	792.971
112.162	24.177	989.196	791.593
113.176	24.494	988.690	792.526
114.191	24.386	987.261	790.830
115.206	23.989	986.685	788.542
116.220	24.194	986.203	788.993
117.235	24.249	984.949	788.162
118.249	24.203	984.118	787.228
119.264	24.152	983.269	786.251
120.279	24.205	982.804	786.045
121.293	24.309	981.821	785.649
122.308	24.308	981.048	784.953
123.322	24.147	980.267	783.551
124.337	24.071	978.740	781.928
125.352	23.539	977.366	778.428
126.366	23.557	976.497	777.747
127.381	24.248	976.724	780.887
128.395	24.646	976.158	782.107
129.410	24.898	975.141	782.324
130.424	24.744	974.569	781.124
131.439	24.774	973.253	780.131
132.454	24.811	972.367	779.511
133.468	24.686	971.682	778.349
134.483	24.744	970.931	777.931
135.497	24.984	970.051	778.203
136.512	25.043	969.144	777.663
137.527	24.937	968.826	776.879
138.541	25.011	967.708	776.232
139.556	25.037	966.858	775.592
140.570	25.131	965.833	775.112
141.585	25.042	965.279	774.212
142.600	25.080	963.902	773.204
143.614	25.465	963.134	774.178
144.629	25.473	962.379	773.536
145.643	25.117	961.644	771.348
146.658	25.032	960.026	769.614
147.673	24.937	959.040	768.347
148.687	24.901	958.057	767.337
149.702	24.914	957.071	766.539
150.716	24.793	956.553	765.538
151.731	24.853	956.339	765.553
152.746	25.118	955.474	765.928
153.760	25.207	954.612	765.547
154.775	25.361	953.778	765.468
155.789	25.257	953.401	764.653
156.804	25.249	952.494	763.827
157.819	25.168	951.656	762.739
158.833	25.364	950.955	762.945
159.848	25.433	949.750	762.203
160.862	25.178	948.713	760.221
161.877	25.222	947.780	759.593
162.892	25.195	946.634	758.495
163.906	25.124	945.473	757.195
164.921	25.117	945.063	756.774
165.935	25.372	943.853	756.810
166.950	25.183	943.384	755.572
167.964	25.256	942.459	755.071
168.979	25.130	940.864	753.196
169.994	24.936	940.295	751.861
171.008	25.156	939.968	752.456
172.023	25.242	939.042	752.007
173.037	24.903	938.195	749.844
174.052	24.982	936.931	749.097
175.067	24.974	936.581	748.720
176.081	25.058	936.145	748.653
177.096	24.863	935.547	747.296
178.110	24.628	934.223	745.191
179.125	24.524	933.693	744.271
180.140	24.514	933.373	743.908
181.154	24.715	933.330	744.645
182.169	25.008	933.317	745.790
183.183	25.236	932.433	745.964
184.198	25.179	931.678	745.057
185.213	25.011	931.111	743.841
186.227	25.256	930.053	743.945
187.242	25.130	929.734	743.103
188.256	25.302	929.009	743.171
189.271	25.344	928.285	742.699
190.286	24.885	927.546	740.144
191.300	24.234	925.601	735.837
192.315	23.479	924.221	731.563
193.329	23.589	923.948	731.736
194.344	24.466	924.477	735.705
195.359	25.162	923.938	738.079
196.373	25.075	923.530	737.329
197.388	24.908	923.101	736.234
198.402	25.131	922.416	736.539
199.417	25.092	921.815	735.834
200.432	24.857	920.743	733.948
201.446	24.634	920.450	732.739
202.461	24.674	919.766	732.293
203.475	23.944	917.269	727.255
204.490	23.182	916.130	723.174
205.504	24.022	916.703	726.996
206.519	24.629	916.998	729.646
207.534	24.716	916.446	729.495
208.548	25.205	916.002	731.074
209.563	24.923	914.591	728.732
210.577	24.801	914.581	728.164
211.592	25.288	914.369	729.912
212.607	25.101	913.627	728.497
213.621	25.396	912.458	728.697
214.636	25.376	911.673	727.923
215.650	25.225	911.367	727.003
216.665	25.311	910.882	726.899
217.680	25.386	909.645	726.150
218.694	24.866	908.701	723.235
219.709	24.710	908.049	722.020
220.723	25.093	907.493	723.061
221.738	25.092	906.973	722.579
222.753	25.099	906.585	722.232
223.767	24.987	907.049	722.086
224.782	25.391	905.973	722.795
225.796	25.414	905.193	722.199
226.811	24.613	904.019	717.982
227.826	24.065	902.695	714.667
228.840	24.212	902.450	715.001
229.855	24.327	901.680	714.787
230.869	23.864	900.713	712.105
231.884	24.317	900.512	713.697
232.899	25.036	900.816	716.751
233.913	24.957	899.606	715.409
234.928	24.913	899.595	715.162
235.942	24.999	898.517	714.585
236.957	24.558	898.191	712.500
237.972	24.701	897.106	712.149
238.986	24.702	896.440	711.560
240.001	24.761	896.410	711.707
241.015	24.884	895.803	711.651
242.030	24.985	895.381	711.654
243.045	25.040	895.046	711.546
244.059	25.331	893.917	711.738
245.074	25.052	893.333	710.105
246.088	24.813	892.236	708.223
247.103	24.989	892.359	708.955
248.117	25.680	892.382	711.645
249.132	25.845	891.588	711.600
250.147	25.856	891.306	711.356
251.161	25.911	890.967	711.239
252.176	25.726	890.604	710.157
253.190	25.860	890.099	710.222
254.205	26.177	889.311	710.775
255.220	26.111	888.856	710.089
256.234	25.986	887.851	708.732
257.249	25.823	887.259	707.558
258.263	25.891	886.573	707.216
259.278	25.999	885.804	706.963
260.293	26.135	885.275	707.009
261.307	25.957	884.641	705.746
262.322	25.798	883.283	703.977
263.336	25.112	881.872	700.112
264.351	23.964	880.135	694.193
265.366	23.990	880.190	694.279
266.380	25.152	880.605	699.079
267.395	25.531	880.261	700.219
268.409	25.530	879.604	699.630
269.424	25.871	878.714	700.184
270.439	25.774	878.335	699.447
271.453	25.772	877.859	698.997
272.468	25.909	878.005	699.583
273.482	26.093	877.235	699.620
274.497	25.541	876.062	696.487
275.512	25.249	875.164	694.579
276.526	25.728	875.265	696.453
277.541	25.866	874.780	696.536
278.555	25.627	873.701	694.693
279.570	25.514	873.288	693.869
280.585	25.722	872.237	693.774
281.599	25.595	871.323	692.497
282.614	24.994	870.431	689.416
283.628	24.981	870.169	689.096
284.643	25.309	869.756	689.967
285.657	25.051	868.066	687.579
286.672	24.703	867.533	685.761
287.687	25.203	867.857	687.871
288.701	25.405	867.187	688.057
289.716	24.957	866.007	685.344
290.730	25.150	865.363	685.509
291.745	24.907	864.629	683.939
292.760	25.106	864.665	684.669
293.774	25.991	865.582	688.714
294.789	26.423	864.700	689.602
295.803	26.277	864.542	688.856
296.818	26.458	863.619	688.750
297.833	25.876	862.713	685.753
298.847	25.878	861.514	684.746
299.862	26.179	861.638	685.928
300.876	26.391	861.612	686.652
301.891	26.235	860.925	685.452
302.906	25.775	859.753	682.713
303.920	26.050	859.434	683.442
304.935	26.324	858.770	683.890
305.949	26.294	858.078	683.165
306.964	26.004	857.721	681.723
307.979	25.976	857.631	681.489
308.993	26.391	857.372	682.789
310.008	26.503	856.223	682.235
311.022	26.257	855.290	680.505
312.037	26.013	855.011	679.304
313.052	25.732	853.928	677.326
314.066	24.895	852.304	672.833
315.081	24.541	852.108	671.290
316.095	25.334	852.257	674.327
317.110	26.004	851.828	676.441
318.125	25.035	850.594	671.770
319.139	24.060	848.845	666.680
320.154	24.024	848.593	666.288
321.168	25.043	849.083	670.431
322.183	25.696	849.158	672.873
323.197	25.912	848.631	673.203
324.212	26.058	848.196	673.343
325.227	26.191	847.912	673.554
326.241	25.926	847.041	671.814
327.256	25.993	846.310	671.426
328.270	25.783	845.768	670.156
329.285	25.669	844.637	668.775
330.300	25.439	844.406	667.679
331.314	25.688	844.093	668.296
332.329	25.935	844.599	669.554
333.343	26.008	843.966	669.264
334.358	26.146	843.323	669.208
335.373	26.239	843.140	669.347
336.387	26.560	842.708	670.135
337.402	26.613	842.814	670.356
338.416	26.599	842.337	669.863
339.431	26.679	842.052	669.873
340.446	26.780	841.789	669.978
341.460	26.608	841.496	669.050
342.475	26.537	840.421	667.876
343.489	26.620	840.362	668.075
344.504	26.959	839.799	668.817
345.519	27.031	839.583	668.854
346.533	26.838	839.586	668.085
347.548	26.957	838.999	667.996
348.562	26.975	838.335	667.474
349.577	26.658	838.009	665.992
350.592	26.906	837.040	666.074
351.606	26.884	836.153	665.227
352.621	26.841	835.168	664.228
353.635	26.721	834.567	663.250
354.650	26.163	832.719	659.687
355.665	25.249	831.343	655.203
356.679	25.658	831.493	656.755
357.694	25.907	831.325	657.473
358.708	26.009	830.201	656.899
359.723	26.402	830.300	658.350
360.738	26.680	830.207	659.230
361.752	26.630	829.987	658.815
362.767	27.072	829.575	660.036
363.781	27.257	829.192	660.342
364.796	27.286	828.743	660.032
365.810	27.458	828.162	660.134
366.825	27.274	827.870	659.176
367.840	26.998	826.920	657.364
368.854	26.662	825.940	655.311
369.869	26.690	825.760	655.211
370.883	26.822	825.108	655.113
371.898	26.564	825.078	654.098
372.913	26.732	824.573	654.249
373.927	26.865	824.452	654.573
374.942	26.972	823.787	654.374
375.956	26.994	823.444	654.120
376.971	27.255	822.909	654.580
377.986	27.438	822.394	654.769
379.000	27.301	821.657	653.632
380.015	26.983	821.423	652.245
381.029	27.115	820.961	652.293
382.044	27.345	820.402	652.619
383.059	27.282	819.733	651.802
384.073	27.276	819.391	651.451
385.088	27.325	818.446	650.818
386.102	27.195	817.670	649.677
387.117	27.065	817.129	648.729
388.132	26.690	815.905	646.359
389.146	26.204	815.272	644.069
390.161	26.691	815.136	645.642
391.175	26.967	815.324	646.715
392.190	26.797	813.656	644.733
393.205	25.277	811.813	637.815
394.219	23.895	810.016	631.444
395.234	23.769	810.304	631.165
396.248	25.520	811.232	638.053
397.263	26.842	812.155	643.415
398.278	26.802	811.945	643.051
399.292	26.555	811.321	641.625
400.307	26.588	810.702	641.193
401.321	26.698	810.383	641.275
402.336	27.005	810.488	642.390
403.350	27.533	810.327	644.070
404.365	27.865	810.028	644.948
405.380	28.111	809.750	645.539
406.394	28.132	809.173	645.097
407.409	27.929	808.697	643.945
408.423	27.858	808.309	643.329
409.438	27.952	808.000	643.358
410.453	28.004	807.662	643.214
411.467	27.974	806.767	642.339
412.482	28.102	806.576	642.580
413.496	28.107	806.279	642.302
414.511	28.084	805.964	641.913
415.526	28.067	805.175	641.168
416.540	27.945	804.506	640.153
417.555	27.639	804.074	638.681
418.569	27.787	803.710	638.852
419.584	27.821	803.152	638.470
420.599	27.649	802.138	637.010
421.613	110.676	1286.597	1459.743
422.628	95.503	1357.154	1459.877
