DTS Sentinel unit serial number:	SN413079Multiplexer serial number:	ORYXHardware model number:	OX4-SRSoftware version number:	ORYX F/W v4.00 Oryx Data Collector v3.7.2.0data status	okinstallation	princeton_trtdifferential loss correction	single-endedforward channel	channel 1reverse channel	N/Adate	2019/09/15time	00:54:35forward acquisition time	60.00reverse acquisition time	0.00gamma	496.2192k internal	0.2321k external	0.2321temperature offset calibration	0.9991default loss term (dB/km)	0.3790temperature slope calibration	1.0000multiplexer offset coefficient	1.0000multiplexer slope coefficient	1.0000fibre end	0.00T internal ref (°C)	32.05T ext. ref 1 (°C)	4.55T ext. ref 2 (°C)	26.92length (m)	temperature (°C)	Stokes	anti-Stokes-747.200	-60.003	-0.182	0.079
-746.185	435.607	-0.016	0.034
-745.171	-3.957	-0.176	0.123
-744.156	-110.599	0.141	0.030
-743.142	28.128	0.156	0.133
-742.127	-200.000	-0.035	0.188
-741.112	-200.000	-0.007	-0.179
-740.098	-200.000	0.011	0.149
-739.083	114.339	0.302	0.371
-738.069	-200.000	-0.022	0.153
-737.054	-120.008	0.069	-0.012
-736.039	-53.749	-0.209	-0.097
-735.025	-96.939	-0.068	-0.018
-734.010	-99.384	-0.238	-0.061
-732.996	-21.808	-0.216	-0.133
-731.981	-46.444	0.083	-0.041
-730.966	-107.199	0.104	-0.023
-729.952	39.370	-0.142	-0.129
-728.937	180.339	-0.122	-0.180
-727.923	13.495	-0.222	-0.174
-726.908	-200.000	-0.020	-0.224
-725.894	-193.860	-0.475	-0.004
-724.879	-200.000	-0.005	-0.028
-723.864	21.586	-0.112	-0.092
-722.850	-160.312	0.081	-0.004
-721.835	-74.300	-0.189	-0.069
-720.821	-148.882	-0.210	0.017
-719.806	67.280	-0.141	-0.145
-718.791	-200.000	0.012	-0.114
-717.777	-53.151	0.298	-0.138
-716.762	-6.570	0.250	-0.172
-715.748	6.250	-0.032	0.024
-714.733	-200.000	0.024	0.182
-713.718	13.301	-0.075	0.059
-712.704	-155.872	0.184	-0.012
-711.689	-92.641	-0.204	-0.058
-710.675	306.364	0.117	-0.220
-709.660	-21.022	-0.043	0.027
-708.645	35.949	-0.137	0.122
-707.631	107.587	-0.174	-0.209
-706.616	-200.000	0.040	-0.202
-705.602	-200.000	0.019	0.108
-704.587	240.649	0.161	0.271
-703.572	-58.366	-0.259	0.114
-702.558	324.332	-0.012	0.023
-701.543	50.857	0.334	0.320
-700.529	-97.118	-0.052	0.014
-699.514	800.000	-0.065	-0.187
-698.499	164.351	0.085	-0.121
-697.485	-68.862	0.257	0.100
-696.470	-200.000	0.003	0.254
-695.456	375.396	0.106	0.218
-694.441	800.000	0.081	-0.297
-693.426	671.475	0.090	-0.236
-692.412	4.062	-0.241	0.178
-691.397	-14.231	0.323	0.210
-690.383	131.591	0.139	-0.181
-689.368	-119.672	0.334	-0.058
-688.354	-3.154	0.144	-0.101
-687.339	412.466	-0.022	-0.047
-686.324	-101.564	0.288	-0.071
-685.310	319.700	0.059	-0.112
-684.295	-117.526	0.042	0.008
-683.281	292.992	0.223	-0.410
-682.266	2.368	-0.164	-0.120
-681.251	179.162	-0.219	-0.323
-680.237	-155.396	0.478	0.031
-679.222	-200.000	0.005	0.298
-678.208	24.946	0.132	0.110
-677.193	-21.727	-0.246	0.151
-676.178	86.025	0.147	0.163
-675.164	-44.387	0.171	0.086
-674.149	-157.070	-0.200	-0.012
-673.135	499.141	-0.053	-0.123
-672.120	-29.356	-0.087	-0.050
-671.105	-200.000	0.021	-0.304
-670.091	168.658	0.143	-0.205
-669.076	32.248	-0.090	-0.079
-668.062	-132.472	-0.263	0.034
-667.047	800.000	0.054	-0.229
-666.032	369.876	0.276	-0.563
-665.018	-102.718	-0.246	-0.059
-664.003	-25.948	0.105	-0.062
-662.989	800.000	-0.038	-0.146
-661.974	128.386	0.161	-0.206
-660.959	800.000	0.092	-0.285
-659.945	800.000	-0.036	-0.107
-658.930	141.130	-0.192	-0.255
-657.916	-110.607	0.063	0.013
-656.901	-200.000	0.004	0.281
-655.886	-105.278	0.123	0.028
-654.872	-200.000	-0.036	-0.225
-653.857	-53.666	0.123	0.057
-652.843	-71.047	-0.442	0.168
-651.828	184.114	0.050	-0.075
-650.814	-196.062	-0.145	0.001
-649.799	800.000	-0.128	-0.450
-648.784	645.059	-0.118	-0.302
-647.770	800.000	-0.106	-0.297
-646.755	375.200	0.093	-0.190
-645.741	151.523	0.237	-0.324
-644.726	-146.529	-0.232	-0.020
-643.711	86.760	0.130	0.145
-642.697	51.752	-0.228	0.218
-641.682	75.543	0.077	0.082
-640.668	-166.877	-0.175	0.007
-639.653	-188.983	0.248	0.003
-638.638	-48.449	-0.154	0.075
-637.624	51.657	0.135	-0.129
-636.609	-78.660	-0.062	0.021
-635.595	-106.325	-0.255	-0.057
-634.580	225.695	0.171	-0.279
-633.565	514.324	-0.119	0.280
-632.551	-28.549	-0.129	-0.075
-631.536	-200.000	0.056	-0.355
-630.522	192.699	0.130	0.198
-629.507	-0.448	-0.144	0.103
-628.492	-200.000	-0.022	-0.246
-627.478	1.945	0.117	-0.085
-626.463	-200.000	-0.049	0.221
-625.449	-200.000	0.014	0.157
-624.434	318.647	0.087	-0.166
-623.419	800.000	-0.015	0.055
-622.405	-90.925	0.076	-0.022
-621.390	171.610	0.138	0.199
-620.376	-200.000	-0.023	-0.263
-619.361	454.182	-0.087	-0.194
-618.346	-200.000	0.019	-0.222
-617.332	-200.000	0.050	0.225
-616.317	252.599	0.101	0.173
-615.303	67.872	-0.102	0.105
-614.288	89.043	-0.238	0.267
-613.273	-51.354	-0.347	-0.163
-612.259	-200.000	-0.054	0.263
-611.244	-95.078	-0.230	0.062
-610.230	-200.000	0.034	-0.177
-609.215	-200.000	0.003	-0.078
-608.201	-200.000	-0.068	0.456
-607.186	-200.000	-0.010	0.110
-606.171	177.224	-0.087	-0.127
-605.157	377.416	0.059	-0.121
-604.142	8.183	0.312	-0.236
-603.128	-200.000	0.023	0.395
-602.113	73.440	-0.120	0.127
-601.098	-39.365	-0.224	-0.118
-600.084	-187.647	-0.445	0.006
-599.069	800.000	-0.016	-0.062
-598.055	-132.192	-0.099	-0.013
-597.040	-200.000	-0.011	0.218
-596.025	-70.354	-0.056	0.021
-595.011	-1.204	-0.155	-0.110
-593.996	-23.209	-0.219	-0.132
-592.982	-138.468	0.065	-0.007
-591.967	188.148	-0.061	0.092
-590.952	-99.733	0.321	0.081
-589.938	-107.903	0.219	0.048
-588.923	-200.000	0.022	0.202
-587.909	66.114	-0.221	0.225
-586.894	-58.561	0.185	-0.081
-585.879	-81.608	0.210	0.069
-584.865	364.388	0.109	-0.221
-583.850	-111.501	0.195	-0.040
-582.836	353.731	0.090	-0.179
-581.821	800.000	0.114	-0.353
-580.806	256.510	-0.096	0.166
-579.792	407.938	-0.228	0.485
-578.777	137.217	-0.053	0.070
-577.763	85.396	-0.129	-0.143
-576.748	132.391	-0.041	0.053
-575.733	-200.000	0.012	-0.088
-574.719	800.000	-0.029	0.128
-573.704	-200.000	0.038	0.307
-572.690	3.697	0.109	0.080
-571.675	515.460	0.128	0.299
-570.661	-92.072	-0.247	0.070
-569.646	-200.000	0.013	-0.103
-568.631	35.106	0.093	0.082
-567.617	-200.000	0.032	-0.165
-566.602	8.407	-0.204	0.154
-565.588	776.229	-0.052	0.144
-564.573	4.313	0.447	-0.329
-563.558	401.901	0.139	-0.293
-562.544	-143.202	0.137	0.013
-561.529	158.476	0.003	0.004
-560.515	-200.000	-0.052	-0.307
-559.500	-200.000	0.023	-0.257
-558.485	800.000	-0.044	0.133
-557.471	-200.000	0.031	0.382
-556.456	-200.000	0.016	-0.340
-555.442	-129.658	-0.143	-0.020
-554.427	-200.000	0.003	-0.104
-553.412	-200.000	-0.020	0.173
-552.398	-81.231	-0.333	0.110
-551.383	115.595	0.039	0.048
-550.369	117.740	-0.151	-0.186
-549.354	77.648	0.192	0.205
-548.339	-101.370	0.371	-0.091
-547.325	-173.755	0.328	0.010
-546.310	59.874	0.202	-0.200
-545.296	193.160	0.014	0.021
-544.281	20.636	0.191	-0.155
-543.266	-200.000	-0.027	-0.176
-542.252	-200.000	0.014	-0.091
-541.237	94.405	-0.223	0.254
-540.223	240.849	0.190	0.318
-539.208	-200.000	0.018	0.322
-538.193	-129.430	-0.401	-0.056
-537.179	-41.286	-0.328	-0.170
-536.164	-60.922	-0.265	0.112
-535.150	-36.712	0.194	0.104
-534.135	128.830	-0.052	-0.067
-533.121	63.575	0.012	-0.012
-532.106	-79.430	0.218	0.074
-531.091	-133.531	0.014	0.002
-530.077	160.781	-0.072	-0.101
-529.062	-130.894	0.441	-0.059
-528.048	245.275	-0.242	-0.408
-527.033	-5.642	-0.122	-0.084
-526.018	-59.467	0.046	-0.020
-525.004	-200.000	-0.046	0.253
-523.989	800.000	0.062	-0.234
-522.975	60.456	-0.064	-0.063
-521.960	-172.533	0.062	0.002
-520.945	-200.000	0.000	0.274
-519.931	-100.973	0.364	0.090
-518.916	-114.096	0.089	0.017
-517.902	-36.220	0.259	-0.140
-516.887	-93.652	-0.219	0.061
-515.872	-88.533	0.138	-0.041
-514.858	383.354	-0.034	-0.071
-513.843	-93.456	-0.021	-0.006
-512.829	-200.000	-0.016	-0.218
-511.814	364.785	-0.069	-0.138
-510.799	-69.592	-0.304	-0.117
-509.785	85.440	0.153	0.168
-508.770	97.991	-0.232	0.267
-507.756	21.396	0.259	0.211
-506.741	-19.214	0.270	0.168
-505.726	-175.621	-0.059	-0.002
-504.712	800.000	0.096	-0.282
-503.697	83.267	0.073	-0.079
-502.683	28.047	0.334	0.282
-501.668	17.217	0.099	0.079
-500.653	-116.026	0.293	0.055
-499.639	-7.056	0.186	-0.127
-498.624	800.000	-0.101	-0.280
-497.610	-200.000	-0.015	-0.095
-496.595	304.859	-0.075	-0.139
-495.581	-181.307	0.280	0.006
-494.566	-148.653	0.412	-0.034
-493.551	-108.751	-0.192	-0.041
-492.537	77.488	0.250	0.267
-491.522	14.070	-0.109	0.085
-490.508	-38.048	-0.154	0.082
-489.493	-200.000	0.044	-0.324
-488.478	10.609	0.212	0.162
-487.464	27.186	-0.176	0.148
-486.449	-119.164	0.159	-0.028
-485.435	-200.000	-0.002	-0.023
-484.420	-141.027	-0.014	0.001
-483.405	-24.452	-0.238	0.142
-482.391	471.764	0.115	-0.260
-481.376	-56.229	-0.296	0.132
-480.362	-45.660	-0.290	0.144
-479.347	141.774	-0.167	0.221
-478.332	170.797	0.199	0.285
-477.318	-112.861	-0.406	-0.081
-476.303	-200.000	0.030	-0.244
-475.289	134.849	0.060	-0.078
-474.274	-98.085	-0.267	-0.069
-473.259	-67.649	0.223	-0.087
-472.245	-7.938	-0.254	0.171
-471.230	800.000	0.093	-0.280
-470.216	20.792	-0.125	-0.102
-469.201	-93.451	-0.347	0.096
-468.186	-200.000	0.011	-0.151
-467.172	-200.000	0.035	0.338
-466.157	800.000	-0.031	0.120
-465.143	800.000	-0.074	0.266
-464.128	350.231	0.134	-0.264
-463.113	800.000	0.029	0.113
-462.099	-91.896	-0.211	0.060
-461.084	-200.000	0.001	0.445
-460.070	187.322	0.081	-0.120
-459.055	-200.000	-0.018	-0.236
-458.040	-113.959	-0.153	0.030
-457.026	-200.000	0.080	-0.367
-456.011	330.426	-0.164	-0.315
-454.997	-105.280	0.159	-0.036
-453.982	325.338	-0.090	0.173
-452.968	-200.000	0.031	0.234
-451.953	-60.198	0.207	-0.088
-450.938	182.332	0.044	0.065
-449.924	320.550	-0.067	0.127
-448.909	41.654	0.144	0.131
-447.895	-200.000	-0.064	0.413
-446.880	34.747	-0.214	-0.187
-445.865	-76.390	-0.022	0.008
-444.851	-172.483	0.076	0.002
-443.836	226.689	0.080	-0.129
-442.822	-59.185	0.196	0.084
-441.807	800.000	-0.085	0.255
-440.792	-164.323	0.041	-0.002
-439.778	-78.006	0.177	0.061
-438.763	-200.000	-0.015	0.086
-437.749	731.709	0.040	-0.107
-436.734	-200.000	-0.026	0.266
-435.719	105.518	-0.111	0.131
-434.705	-200.000	0.017	0.181
-433.690	136.295	0.080	0.104
-432.676	-3.526	0.192	0.133
-431.661	800.000	0.104	-0.327
-430.646	-101.089	-0.019	-0.005
-429.632	234.442	0.128	0.211
-428.617	-200.000	-0.004	-0.088
-427.603	-200.000	-0.045	0.236
-426.588	584.338	0.069	-0.169
-425.573	4.147	0.540	-0.395
-424.559	-73.508	0.135	-0.049
-423.544	151.947	0.104	-0.142
-422.530	800.000	0.068	0.269
-421.515	800.000	0.061	-0.198
-420.500	55.580	-0.191	-0.185
-419.486	-6.546	0.345	-0.235
-418.471	-143.537	-0.199	0.019
-417.457	189.218	-0.103	0.154
-416.442	652.829	0.059	-0.151
-415.428	520.146	-0.233	-0.545
-414.413	87.828	-0.243	0.269
-413.398	-130.907	-0.480	0.064
-412.384	-12.864	-0.241	0.157
-411.369	167.957	-0.093	-0.132
-410.355	800.000	-0.036	0.113
-409.340	139.964	-0.122	-0.160
-408.325	-87.740	-0.266	0.080
-407.311	89.376	-0.055	0.061
-406.296	-46.354	-0.283	-0.139
-405.282	0.292	0.176	0.125
-404.267	-200.000	0.050	-0.322
-403.252	-19.726	-0.227	-0.140
-402.238	-66.620	-0.246	-0.097
-401.223	265.534	-0.056	0.097
-400.209	-0.871	-0.128	0.090
-399.194	153.711	-0.203	0.278
-398.179	27.346	0.165	0.139
-397.165	-151.408	0.188	0.014
-396.150	-123.423	-0.431	-0.069
-395.136	800.000	-0.073	0.234
-394.121	-125.408	0.197	0.030
-393.106	-87.675	-0.416	-0.125
-392.092	192.661	0.118	0.178
-391.077	-68.070	0.132	-0.051
-390.063	57.524	-0.252	-0.246
-389.048	261.822	0.150	0.259
-388.033	-195.634	-0.231	0.002
-387.019	-147.383	-0.322	-0.027
-386.004	-39.121	-0.304	0.160
-384.990	-122.581	-0.253	-0.041
-383.975	671.183	0.098	-0.253
-382.960	471.669	-0.041	-0.092
-381.946	-82.173	-0.132	-0.043
-380.931	-43.736	0.263	-0.132
-379.917	140.659	0.114	-0.150
-378.902	698.409	-0.079	0.206
-377.888	-50.579	0.226	-0.106
-376.873	146.788	-0.093	-0.125
-375.858	-200.000	0.064	0.318
-374.844	-162.618	-0.221	-0.011
-373.829	43.706	0.139	-0.127
-372.815	135.665	0.072	0.093
-371.800	-88.962	-0.493	-0.145
-370.785	22.300	-0.102	-0.083
-369.771	400.804	0.060	0.125
-368.756	-74.863	-0.257	-0.092
-367.742	-0.539	0.195	-0.138
-366.727	-200.000	-0.032	-0.546
-365.712	110.822	0.095	-0.114
-364.698	-128.324	0.181	0.026
-363.683	-123.460	0.024	0.004
-362.669	546.781	-0.026	-0.063
-361.654	-21.863	-0.135	-0.082
-360.639	-200.000	0.051	-0.369
-359.625	800.000	-0.043	-0.168
-358.610	161.076	0.055	-0.077
-357.596	14.244	0.060	-0.047
-356.581	-92.181	0.200	0.056
-355.566	-200.000	0.014	-0.146
-354.552	89.504	-0.111	-0.123
-353.537	-99.902	-0.226	0.056
-352.523	740.238	0.110	0.294
-351.508	402.488	-0.096	0.201
-350.493	452.961	0.212	-0.467
-349.479	234.613	0.096	0.157
-348.464	117.480	0.119	-0.145
-347.450	753.734	0.110	0.295
-346.435	85.659	-0.095	0.104
-345.420	37.782	-0.134	0.118
-344.406	25.727	-0.203	0.168
-343.391	-5.037	-0.089	-0.061
-342.377	196.841	-0.281	-0.427
-341.362	24.161	0.124	0.102
-340.348	476.203	0.022	-0.050
-339.333	147.161	-0.278	0.373
-338.318	-131.545	-0.227	-0.030
-337.304	19.839	-0.124	-0.099
-336.289	-200.000	-0.081	-0.406
-335.275	-71.171	-0.169	0.063
-334.260	271.348	0.037	-0.065
-333.245	68.729	-0.213	-0.217
-332.231	800.000	-0.024	-0.087
-331.216	-120.384	0.326	-0.055
-330.202	539.685	-0.064	-0.151
-329.187	195.894	-0.084	-0.127
-328.172	-200.000	-0.001	-0.174
-327.158	541.549	0.070	-0.165
-326.143	-200.000	0.033	-0.338
-325.129	-124.471	-0.382	-0.059
-324.114	-57.909	-0.146	0.063
-323.099	-200.000	0.031	0.456
-322.085	-200.000	0.021	-0.316
-321.070	-67.395	0.097	0.038
-320.056	-200.000	0.030	0.219
-319.041	-179.181	0.417	0.009
-318.026	-32.774	0.207	0.114
-317.012	503.748	0.054	0.124
-315.997	800.000	0.060	0.206
-314.983	9.037	0.179	0.135
-313.968	800.000	-0.056	-0.219
-312.953	141.490	-0.107	0.141
-311.939	-200.000	-0.046	0.352
-310.924	800.000	-0.084	-0.287
-309.910	-200.000	0.000	0.072
-308.895	579.907	0.056	-0.137
-307.880	-32.013	0.338	0.188
-306.866	-17.531	0.245	0.153
-305.851	456.938	-0.132	-0.290
-304.837	-61.507	-0.085	0.036
-303.822	-139.855	0.254	-0.027
-302.807	-104.985	0.302	-0.069
-301.793	206.635	0.240	-0.372
-300.778	-103.984	-0.415	-0.096
-299.764	-67.431	0.205	0.080
-298.749	1.850	0.157	0.113
-297.735	40.155	0.097	0.087
-296.720	308.159	-0.037	-0.068
-295.705	-200.000	-0.004	-0.189
-294.691	-66.682	0.039	0.015
-293.676	-50.716	-0.136	-0.063
-292.662	86.380	-0.083	-0.091
-291.647	-17.633	0.259	-0.162
-290.632	-71.897	0.403	0.149
-289.618	385.988	-0.162	-0.332
-288.603	-46.740	-0.242	-0.118
-287.589	83.093	-0.134	-0.145
-286.574	207.198	0.038	0.059
-285.559	456.692	0.191	0.422
-284.545	-59.854	-0.201	0.086
-283.530	-95.261	-0.396	0.106
-282.516	8.903	0.193	0.145
-281.501	800.000	0.037	-0.152
-280.486	-22.117	-0.399	0.240
-279.472	-19.252	0.365	0.225
-278.457	441.187	0.078	0.170
-277.443	-200.000	0.013	0.070
-276.428	-0.949	0.271	-0.191
-275.413	223.580	0.089	-0.142
-274.399	183.185	-0.110	-0.161
-273.384	202.526	0.061	-0.093
-272.370	-200.000	0.023	-0.150
-271.355	-101.433	0.094	0.023
-270.340	34.330	0.093	-0.080
-269.326	38.580	-0.028	-0.024
-268.311	65.343	0.207	-0.207
-267.297	-200.000	0.011	0.097
-266.282	29.605	0.108	0.091
-265.267	800.000	-0.083	0.259
-264.253	151.298	0.171	-0.231
-263.238	547.306	-0.081	0.191
-262.224	800.000	0.105	-0.342
-261.209	-61.451	0.246	0.103
-260.195	112.209	0.011	-0.014
-259.180	92.227	0.196	0.219
-258.165	70.771	0.192	0.198
-257.151	-7.008	0.095	-0.064
-256.136	-200.000	0.016	0.085
-255.122	96.833	-0.132	0.150
-254.107	-4.095	0.265	0.182
-253.092	-200.000	0.052	-0.322
-252.078	-23.383	-0.292	0.174
-251.063	-119.507	-0.297	-0.051
-250.049	-8.640	-0.156	0.104
-249.034	-121.131	-0.263	0.044
-248.019	-25.148	-0.197	0.116
-247.005	323.722	0.080	0.151
-245.990	-26.337	0.094	0.055
-244.976	116.210	-0.096	0.116
-243.961	-8.337	-0.203	-0.135
-242.946	251.486	0.077	-0.130
-241.932	-119.955	-0.157	-0.027
-240.917	-34.334	0.271	-0.147
-239.903	-119.144	0.475	-0.082
-238.888	-79.164	-0.128	-0.043
-237.873	25.977	-0.096	0.079
-236.859	543.166	0.118	0.279
-235.844	-200.000	0.001	-0.146
-234.830	74.933	-0.101	-0.105
-233.815	685.632	0.197	0.510
-232.800	800.000	-0.040	-0.143
-231.786	-40.996	0.171	-0.088
-230.771	-113.595	-0.270	-0.052
-229.757	-72.268	-0.653	0.240
-228.742	-200.000	0.007	-0.084
-227.727	-76.775	-0.068	-0.024
-226.713	137.203	0.027	-0.035
-225.698	-162.133	0.192	0.010
-224.684	229.928	-0.091	-0.147
-223.669	344.371	-0.243	0.472
-222.655	-79.521	-0.125	0.042
-221.640	-61.425	0.165	-0.069
-220.625	98.656	-0.073	0.084
-219.611	-15.158	0.370	-0.235
-218.596	800.000	0.079	0.219
-217.582	-190.863	0.189	0.002
-216.567	160.822	0.078	0.108
-215.552	747.193	-0.023	0.062
-214.538	-81.925	0.115	0.037
-213.523	-20.123	0.088	0.054
-212.509	-200.000	-0.007	-0.043
-211.494	10.887	0.089	0.067
-210.479	800.000	0.044	0.122
-209.465	-80.728	-0.335	0.110
-208.450	-40.270	-0.139	0.072
-207.436	138.591	-0.163	-0.212
-206.421	30.958	-0.091	-0.077
-205.406	-123.818	0.414	0.065
-204.392	132.239	0.090	-0.115
-203.377	-96.413	0.178	-0.047
-202.363	800.000	-0.069	0.238
-201.348	-200.000	0.074	-0.387
-200.333	-65.756	0.102	0.041
-199.319	37.978	0.241	-0.212
-198.304	274.744	0.232	0.407
-197.290	41.430	0.209	0.187
-196.275	536.455	0.045	-0.106
-195.260	357.887	0.057	0.113
-194.246	-114.661	-0.184	0.035
-193.231	378.142	-0.127	0.257
-192.217	-101.000	0.384	0.093
-191.202	800.000	-0.016	0.065
-190.187	238.624	-0.142	0.234
-189.173	91.084	-0.147	-0.164
-188.158	-179.160	0.202	-0.004
-187.144	-191.410	-0.049	0.000
-186.129	800.000	-0.051	-0.158
-185.114	-77.585	-0.067	-0.023
-184.100	-76.809	0.105	0.036
-183.085	721.653	0.058	0.152
-182.071	94.312	0.138	-0.155
-181.056	568.548	0.047	-0.112
-180.042	-83.726	-0.234	-0.074
-179.027	84.490	-0.172	0.186
-178.012	-160.705	0.296	0.016
-176.998	39.538	-0.098	-0.086
-175.983	-103.129	0.109	0.026
-174.969	-92.247	0.214	0.060
-173.954	136.202	-0.046	-0.059
-172.939	-200.000	0.022	0.351
-171.925	58.358	-0.256	0.248
-170.910	800.000	0.119	-0.437
-169.896	-200.000	0.014	0.117
-168.881	383.617	0.102	-0.208
-167.866	800.000	0.034	-0.106
-166.852	104.353	-0.040	-0.047
-165.837	601.451	0.122	0.300
-164.823	51.547	0.174	0.164
-163.808	250.561	-0.110	-0.185
-162.793	171.009	-0.062	-0.087
-161.779	-127.687	0.202	-0.029
-160.764	-178.601	-0.181	-0.004
-159.750	517.111	-0.132	0.305
-158.735	354.989	-0.073	-0.144
-157.720	103.886	0.196	0.227
-156.706	609.103	0.020	-0.049
-155.691	-200.000	0.039	-0.313
-154.677	28.700	-0.142	-0.119
-153.662	-200.000	0.027	0.449
-152.647	-110.435	-0.029	-0.006
-151.633	800.000	0.047	0.168
-150.618	163.979	-0.040	-0.055
-149.604	-63.689	0.361	-0.146
-148.589	-64.737	0.117	-0.047
-147.574	773.340	-0.158	0.424
-146.560	-37.037	0.128	-0.067
-145.545	425.554	-0.072	-0.152
-144.531	-59.574	0.193	0.082
-143.516	424.279	0.077	0.164
-142.502	-200.000	0.013	-0.238
-141.487	217.337	0.158	0.249
-140.472	-103.918	-0.256	0.059
-139.458	-185.489	-0.139	-0.002
-138.443	-135.507	-0.204	0.024
-137.429	800.000	-0.045	0.127
-136.414	-68.588	0.197	0.075
-135.399	-200.000	0.057	-0.297
-134.385	129.071	-0.130	0.163
-133.370	-70.261	-0.034	-0.013
-132.356	38.129	0.161	0.142
-131.341	375.426	0.105	0.212
-130.326	345.693	0.030	-0.058
-129.312	-200.000	-0.019	0.110
-128.297	-10.936	0.208	0.136
-127.283	-92.959	-0.312	-0.086
-126.268	-74.954	0.116	0.041
-125.253	800.000	-0.027	-0.076
-124.239	-153.690	-0.299	-0.020
-123.224	-200.000	-0.042	0.495
-122.210	-59.725	0.208	0.088
-121.195	87.083	-0.133	-0.145
-120.180	-200.000	0.023	0.199
-119.166	-84.247	0.202	0.063
-118.151	95.869	0.097	0.109
-117.137	-200.000	-0.055	0.267
-116.122	-55.329	-0.246	0.109
-115.107	-44.773	0.055	0.027
-114.093	800.000	-0.043	-0.130
-113.078	800.000	0.027	-0.087
-112.064	-167.787	0.159	-0.006
-111.049	-167.635	-0.208	0.008
-110.034	130.220	0.089	0.113
-109.020	-200.000	-0.013	0.297
-108.005	-117.404	0.146	0.026
-106.991	-200.000	-0.039	-0.230
-105.976	-136.080	-0.147	-0.017
-104.962	-200.000	0.048	0.278
-103.947	800.000	0.080	0.268
-102.932	140.203	0.098	-0.128
-101.918	-146.176	0.338	0.029
-100.903	268.529	0.095	0.164
-99.889	0.880	-0.135	-0.095
-98.874	-43.116	-0.031	-0.015
-97.859	23.236	0.267	0.216
-96.845	-142.347	0.174	-0.017
-95.830	-76.139	0.101	-0.035
-94.816	-108.641	-0.114	-0.024
-93.801	-69.094	0.399	0.151
-92.786	-151.072	0.086	-0.006
-91.772	115.414	0.083	0.101
-90.757	-42.405	0.060	0.030
-89.743	-32.267	-0.105	-0.058
-88.728	-126.662	0.328	-0.048
-87.713	46.291	0.115	0.105
-86.699	-22.439	0.131	0.078
-85.684	-94.371	0.146	0.039
-84.670	0.494	0.377	-0.265
-83.655	172.445	0.082	0.116
-82.640	-200.000	-0.016	0.072
-81.626	-40.553	0.264	-0.135
-80.611	15.063	-0.173	0.133
-79.597	-53.743	-0.357	0.160
-78.582	52.146	-0.331	0.311
-77.567	27.602	0.268	-0.222
-76.553	-67.665	0.172	0.066
-75.538	89.997	0.211	0.232
-74.524	-141.797	0.341	0.034
-73.509	43.484	0.093	0.083
-72.494	147.297	-0.230	0.304
-71.480	-55.252	0.355	-0.157
-70.465	352.211	0.150	0.293
-69.451	-95.337	-0.335	0.089
-68.436	-79.266	0.139	0.046
-67.422	356.718	-0.178	-0.349
-66.407	800.000	0.035	-0.141
-65.392	253.360	0.172	0.290
-64.378	-95.060	0.170	0.045
-63.363	258.808	0.065	-0.110
-62.349	-200.000	0.039	0.239
-61.334	141.488	-0.788	-1.027
-60.319	800.000	0.135	0.382
-59.305	-200.000	-0.099	-0.513
-58.290	133.508	0.556	0.708
-57.276	472.254	0.711	1.576
-56.261	-200.000	95.639	594.399
-55.246	660.898	1366.124	3462.904
-54.232	200.157	2541.818	3841.324
-53.217	120.593	2139.173	2615.524
-52.203	44.183	1602.487	1446.445
-51.188	35.581	1340.682	1158.495
-50.173	32.382	1299.024	1103.718
-49.159	55.180	1346.336	1280.423
-48.144	57.347	1362.381	1308.535
-47.130	35.753	1321.703	1142.931
-46.115	32.343	1304.200	1107.709
-45.100	32.048	1299.848	1102.240
-44.086	31.946	1296.650	1098.887
-43.071	31.960	1295.046	1097.564
-42.057	31.915	1292.769	1095.330
-41.042	31.991	1290.584	1093.877
-40.027	32.010	1288.830	1092.456
-39.013	31.988	1287.214	1090.918
-37.998	31.996	1285.488	1089.458
-36.984	32.003	1284.061	1088.246
-35.969	31.875	1282.856	1086.439
-34.954	32.081	1280.434	1085.538
-33.940	32.083	1279.017	1084.304
-32.925	32.149	1277.205	1083.106
-31.911	32.114	1276.025	1081.858
-30.896	32.125	1274.665	1080.724
-29.881	32.125	1273.267	1079.499
-28.867	32.097	1272.547	1078.683
-27.852	32.175	1270.342	1077.218
-26.838	32.177	1269.161	1076.186
-25.823	32.162	1268.150	1075.200
-24.809	32.124	1266.613	1073.638
-23.794	32.174	1264.953	1072.473
-22.779	32.175	1264.004	1071.634
-21.765	32.128	1262.593	1070.126
-20.750	32.027	1261.510	1068.592
-19.736	32.054	1260.098	1067.507
-18.721	32.073	1258.983	1066.627
-17.706	31.990	1258.149	1065.406
-16.692	31.829	1257.021	1063.494
-15.677	32.051	1255.325	1063.279
-14.663	32.067	1254.554	1062.671
-13.648	31.988	1253.434	1061.233
-12.633	32.014	1252.314	1060.390
-11.619	32.055	1251.299	1059.722
-10.604	32.070	1250.680	1059.238
-9.590	32.000	1249.831	1058.084
-8.575	31.990	1248.838	1057.142
-7.560	32.033	1247.850	1056.510
-6.546	31.937	1246.929	1055.147
-5.531	31.895	1246.583	1054.576
-4.517	32.028	1244.996	1053.940
-3.502	31.980	1244.658	1053.342
-2.487	32.020	1243.154	1052.253
-1.473	31.899	1239.302	1048.272
-0.458	30.641	1224.113	1028.429
0.556	25.974	1206.801	990.774
1.571	22.199	1212.310	974.332
2.586	21.141	1227.140	980.224
3.600	20.663	1215.573	968.239
4.615	15.753	1144.874	886.041
5.629	8.028	1071.821	791.201
6.644	4.748	1052.393	760.776
7.659	4.477	1049.856	757.557
8.673	4.530	1048.975	757.111
9.688	4.455	1048.005	755.978
10.702	4.543	1046.111	754.970
11.717	8.945	1051.305	780.105
12.731	15.942	1061.352	821.740
13.746	18.727	1064.211	837.490
14.761	18.030	1062.752	832.871
15.775	17.008	1060.478	826.039
16.790	15.913	1058.911	819.424
17.804	15.133	1057.476	814.448
18.819	14.862	1055.981	811.909
19.834	14.707	1055.185	810.469
20.848	14.433	1054.222	808.332
21.863	14.245	1053.203	806.567
22.877	14.100	1052.325	805.121
23.892	14.117	1052.107	804.966
24.907	14.096	1050.977	803.928
25.921	14.090	1050.258	803.278
26.936	14.243	1048.591	802.672
27.950	14.220	1047.645	801.763
28.965	14.218	1046.037	800.455
29.980	14.443	1044.223	800.077
30.994	14.407	1043.621	799.371
32.009	14.493	1042.201	798.625
33.023	14.395	1041.288	797.384
34.038	14.330	1040.369	796.298
35.053	14.236	1039.518	795.130
36.067	14.290	1038.623	794.631
37.082	14.227	1037.668	793.530
38.096	14.349	1036.842	793.409
39.111	14.370	1036.232	792.972
40.126	14.209	1035.018	791.207
41.140	14.027	1033.738	789.295
42.155	13.982	1032.289	787.908
43.169	14.129	1030.947	787.506
44.184	13.945	1030.565	786.276
45.199	14.013	1029.670	785.845
46.213	14.054	1028.574	785.133
47.228	14.180	1027.025	784.475
48.242	14.209	1026.733	784.316
49.257	14.150	1025.372	782.934
50.271	14.186	1024.556	782.410
51.286	14.388	1023.617	782.571
52.301	14.241	1023.000	781.339
53.315	14.222	1021.732	780.214
54.330	14.051	1020.854	778.676
55.344	14.085	1019.938	778.067
56.359	14.124	1019.040	777.492
57.374	13.934	1018.539	776.154
58.388	14.023	1017.183	775.468
59.403	14.124	1016.179	775.105
60.417	13.975	1015.709	773.983
61.432	13.996	1014.978	773.456
62.447	13.955	1014.217	772.619
63.461	13.918	1013.618	771.920
64.476	13.878	1012.486	770.804
65.490	13.891	1011.531	770.068
66.505	13.948	1010.836	769.737
67.520	13.889	1010.347	769.021
68.534	14.072	1009.508	769.162
69.549	14.028	1008.996	768.499
70.563	13.906	1008.095	767.183
71.578	13.812	1007.060	765.894
72.593	13.767	1007.110	765.657
73.607	13.846	1005.658	764.848
74.622	13.849	1005.591	764.742
75.636	13.863	1004.523	763.926
76.651	13.868	1003.763	763.308
77.666	13.718	1003.915	762.665
78.680	13.801	1003.075	762.339
79.695	13.875	1001.840	761.671
80.709	14.189	1001.139	762.513
81.724	14.052	1001.063	761.757
82.739	14.060	1000.216	761.082
83.753	14.194	999.186	760.846
84.768	14.418	998.493	761.272
85.782	14.433	997.762	760.716
86.797	14.247	997.118	759.311
87.812	14.361	995.516	758.543
88.826	14.199	995.144	757.457
89.841	14.297	994.194	757.112
90.855	14.396	992.965	756.559
91.870	14.336	992.173	755.613
92.884	14.317	991.233	754.747
93.899	14.279	990.875	754.235
94.914	14.476	989.967	754.369
95.928	14.515	989.013	753.751
96.943	14.367	988.049	752.283
97.957	14.368	987.407	751.731
98.972	14.315	986.684	750.872
99.987	14.304	985.868	750.137
101.001	14.419	984.844	749.810
102.016	14.209	984.164	748.281
103.030	14.279	983.840	748.284
104.045	14.256	982.866	747.370
105.060	14.218	981.645	746.209
106.074	14.267	980.186	745.253
107.089	14.211	979.147	744.146
108.103	14.047	978.638	742.958
109.118	13.967	977.704	741.830
110.133	14.031	976.500	741.136
111.147	14.061	975.820	740.684
112.162	14.055	974.651	739.707
113.176	14.149	974.274	739.773
114.191	14.156	973.633	739.252
115.206	14.142	972.684	738.402
116.220	14.097	972.158	737.738
117.235	14.103	971.572	737.257
118.249	14.146	970.434	736.519
119.264	13.989	969.908	735.360
120.279	13.920	969.412	734.611
121.293	14.210	967.856	734.649
122.308	14.047	967.277	733.426
123.322	13.940	966.339	732.176
124.337	14.009	965.093	731.470
125.352	14.074	964.080	730.926
126.366	14.009	963.101	729.835
127.381	13.926	962.705	729.105
128.395	14.001	961.419	728.396
129.410	14.127	960.212	727.967
130.424	13.982	959.838	726.986
131.439	14.099	959.101	726.873
132.454	14.249	958.114	726.716
133.468	14.153	957.320	725.631
134.483	14.223	956.717	725.415
135.497	14.277	955.497	724.662
136.512	14.244	954.724	723.865
137.527	14.157	954.287	723.092
138.541	14.314	953.371	723.015
139.556	14.196	953.022	722.175
140.570	14.354	952.103	722.102
141.585	14.418	950.993	721.472
142.600	14.426	950.275	720.899
143.614	14.507	949.550	720.634
144.629	14.416	949.137	719.866
145.643	14.399	947.674	718.618
146.658	14.370	946.767	717.744
147.673	14.353	946.021	717.041
148.687	14.206	945.674	716.079
149.702	14.093	944.500	714.645
150.716	14.269	943.514	714.588
151.731	14.180	943.259	713.952
152.746	14.251	942.161	713.359
153.760	14.358	941.714	713.419
154.775	14.379	940.974	712.883
155.789	14.364	940.553	712.438
156.804	14.431	939.609	711.947
157.819	14.387	939.125	711.329
158.833	14.518	938.745	711.535
159.848	14.471	938.094	710.781
160.862	14.424	936.798	709.533
161.877	14.317	935.740	708.217
162.892	14.395	934.180	707.305
163.906	14.385	933.636	706.785
164.921	14.255	932.944	705.650
165.935	14.310	932.416	705.421
166.950	14.512	931.016	705.155
167.964	14.519	930.134	704.453
168.979	14.396	929.526	703.409
169.994	14.342	928.961	702.692
171.008	14.477	927.967	702.448
172.023	14.627	927.358	702.557
173.037	14.532	926.616	701.531
174.052	14.508	925.820	700.765
175.067	14.421	924.830	699.590
176.081	14.415	924.684	699.390
177.096	14.420	924.274	699.039
178.110	14.332	923.730	698.200
179.125	14.398	923.053	697.902
180.140	14.510	922.654	698.006
181.154	14.511	921.908	697.384
182.169	14.629	921.773	697.715
183.183	14.651	920.963	697.131
184.198	14.692	919.763	696.333
185.213	14.712	919.010	695.785
186.227	14.678	918.511	695.204
187.242	14.746	917.959	695.009
188.256	14.869	917.479	695.094
189.271	14.860	916.645	694.364
190.286	14.603	915.949	692.707
191.300	14.375	915.286	691.197
192.315	14.499	913.995	690.676
193.329	14.374	913.884	690.012
194.344	14.485	913.453	690.084
195.359	14.558	912.829	689.856
196.373	14.808	911.919	690.140
197.388	14.786	911.761	689.867
198.402	14.820	911.301	689.599
199.417	14.932	910.672	689.523
200.432	14.923	910.045	688.950
201.446	14.946	909.648	688.684
202.461	15.061	909.258	688.803
203.475	15.066	908.287	688.026
204.490	14.965	907.647	687.065
205.504	14.999	906.744	686.459
206.519	14.912	906.389	685.773
207.534	14.894	905.485	684.956
208.548	14.828	904.674	684.010
209.563	14.929	904.194	684.002
210.577	15.007	903.559	683.780
211.592	15.094	902.758	683.467
212.607	14.993	902.267	682.623
213.621	15.138	901.282	682.409
214.636	14.909	901.138	681.308
215.650	15.064	899.941	680.973
216.665	15.172	899.160	680.759
217.680	15.235	898.783	680.668
218.694	15.295	898.056	680.301
219.709	15.211	897.649	679.593
220.723	15.288	896.556	679.017
221.738	15.261	896.185	678.566
222.753	15.213	895.512	677.802
223.767	15.254	895.069	677.573
224.782	15.421	894.277	677.588
225.796	15.344	894.248	677.195
226.811	15.315	893.589	676.518
227.826	15.231	892.720	675.464
228.840	15.244	891.893	674.831
229.855	15.162	891.163	673.889
230.869	15.278	890.371	673.697
231.884	15.169	889.781	672.753
232.899	15.316	888.807	672.545
233.913	14.975	888.539	670.917
234.928	15.116	887.531	670.660
235.942	15.183	886.689	670.232
236.957	15.159	886.286	669.773
237.972	15.197	885.667	669.399
238.986	15.211	884.978	668.873
240.001	15.212	884.216	668.242
241.015	15.228	884.072	668.140
242.030	15.356	883.417	668.093
243.045	15.264	882.676	667.110
244.059	15.511	882.074	667.576
245.074	15.456	881.532	666.889
246.088	15.522	881.016	666.702
247.103	15.508	880.453	666.162
248.117	15.554	880.088	666.009
249.132	15.631	879.580	665.871
250.147	15.639	878.993	665.400
251.161	15.935	877.556	665.423
252.176	15.923	876.882	664.804
253.190	15.906	876.702	664.541
254.205	15.905	875.993	663.941
255.220	15.856	875.665	663.441
256.234	15.836	875.063	662.848
257.249	15.889	874.326	662.441
258.263	15.976	873.338	661.975
259.278	15.907	872.892	661.308
260.293	15.889	872.266	660.704
261.307	16.066	871.658	660.879
262.322	16.051	871.281	660.474
263.336	16.085	870.438	659.910
264.351	15.949	869.822	658.852
265.366	16.219	869.149	659.341
266.380	16.051	868.706	658.291
267.395	16.128	868.110	658.082
268.409	15.939	867.096	656.518
269.424	15.927	866.658	656.079
270.439	15.992	866.096	655.850
271.453	16.019	865.055	655.111
272.468	15.960	864.746	654.588
273.482	15.987	864.379	654.357
274.497	15.921	863.640	653.485
275.512	15.992	862.702	652.989
276.526	16.001	862.142	652.542
277.541	16.181	861.587	652.762
278.555	16.240	861.238	652.670
279.570	16.257	860.564	652.166
280.585	16.233	860.091	651.655
281.599	16.142	858.994	650.417
282.614	16.085	858.617	649.853
283.628	16.217	857.999	649.839
284.643	16.115	857.359	648.904
285.657	16.208	856.655	648.670
286.672	16.060	856.684	648.066
287.687	16.056	855.789	647.315
288.701	16.360	854.973	647.806
289.716	16.342	854.587	647.388
290.730	16.355	854.382	647.227
291.745	16.317	853.608	646.435
292.760	16.378	852.866	646.050
293.774	16.405	852.374	645.722
294.789	16.357	851.641	644.928
295.803	16.316	850.857	644.123
296.818	16.348	850.100	643.615
297.833	16.143	849.468	642.295
298.847	16.407	848.893	642.812
299.862	16.377	848.702	642.493
300.876	16.457	847.818	642.072
301.891	16.543	847.498	642.101
302.906	16.485	847.055	641.487
303.920	16.571	846.787	641.552
304.935	16.671	846.099	641.355
305.949	16.647	845.317	640.615
306.964	16.563	844.622	639.712
307.979	16.625	843.845	639.304
308.993	16.686	843.624	639.307
310.008	16.557	843.070	638.346
311.022	16.743	841.964	638.153
312.037	16.580	841.563	637.177
313.052	16.691	840.913	637.046
314.066	16.545	840.567	636.181
315.081	16.431	839.991	635.258
316.095	16.512	839.075	634.816
317.110	16.574	838.717	634.721
318.125	16.518	838.154	634.028
319.139	16.487	838.112	633.824
320.154	16.655	837.244	633.740
321.168	16.595	837.116	633.364
322.183	16.635	836.569	633.043
323.197	16.571	835.946	632.274
324.212	16.674	835.199	632.039
325.227	16.652	834.972	631.731
326.241	16.717	834.203	631.333
327.256	16.703	833.452	630.657
328.270	16.710	832.880	630.194
329.285	16.642	832.606	629.679
330.300	16.714	831.559	629.099
331.314	16.759	831.425	629.109
332.329	16.860	831.320	629.349
333.343	16.781	830.558	628.425
334.358	16.756	830.270	628.059
335.373	16.776	829.848	627.756
336.387	16.831	829.484	627.631
337.402	16.807	829.239	627.299
338.416	16.920	829.027	627.500
339.431	16.996	828.699	627.481
340.446	17.017	828.149	627.085
341.460	17.095	827.714	626.986
342.475	17.038	827.368	626.459
343.489	17.159	826.769	626.399
344.504	17.138	826.889	626.355
345.519	17.201	825.971	625.836
346.533	17.329	825.321	625.761
347.548	17.284	824.550	624.955
348.562	17.074	823.933	623.660
349.577	16.893	823.549	622.649
350.592	16.972	822.965	622.443
351.606	16.940	822.507	621.923
352.621	16.989	821.606	621.369
353.635	17.007	821.336	621.176
354.650	17.075	820.432	620.684
355.665	17.157	820.107	620.682
356.679	17.323	819.171	620.527
357.694	17.157	818.678	619.492
358.708	17.199	818.046	619.111
359.723	17.143	817.515	618.451
360.738	17.217	816.844	618.157
361.752	17.244	816.511	617.950
362.767	17.348	815.776	617.717
363.781	17.398	815.775	617.844
364.796	17.477	815.256	617.680
365.810	17.485	814.806	617.316
366.825	17.531	814.433	617.143
367.840	17.505	814.013	616.675
368.854	17.692	812.928	616.478
369.869	17.374	813.195	615.473
370.883	17.317	812.946	615.024
371.898	17.586	812.318	615.468
372.913	17.557	811.928	615.013
373.927	17.612	810.970	614.431
374.942	17.614	810.674	614.159
375.956	17.742	810.096	614.129
376.971	17.694	809.851	613.716
377.986	17.611	809.581	613.159
379.000	17.701	809.112	613.072
380.015	17.822	808.494	612.985
381.029	17.734	807.899	612.164
382.044	17.897	806.846	611.897
383.059	17.875	806.206	611.277
384.073	17.876	805.829	610.939
385.088	17.555	805.483	609.476
386.102	17.710	804.618	609.322
387.117	17.746	804.120	609.018
388.132	17.684	803.704	608.430
389.146	17.621	803.484	607.985
390.161	17.944	802.488	608.326
391.175	17.823	802.353	607.741
392.190	17.614	802.143	606.781
393.205	17.708	801.544	606.610
394.219	17.621	801.525	606.234
395.234	17.686	800.859	605.909
396.248	17.601	800.246	605.086
397.263	17.657	799.716	604.831
398.278	17.772	799.573	605.079
399.292	17.626	799.135	604.177
400.307	17.627	798.491	603.639
401.321	17.764	798.206	603.856
402.336	17.701	797.602	603.120
403.350	17.830	797.089	603.135
404.365	17.786	797.230	603.034
405.380	17.925	796.209	602.700
406.394	18.026	796.205	602.999
407.409	18.222	795.506	603.107
408.423	18.234	795.109	602.795
409.438	18.126	794.907	602.208
410.453	18.083	794.592	601.764
411.467	18.235	793.724	601.589
412.482	18.211	793.384	601.196
413.496	18.251	793.472	601.348
414.511	18.250	793.000	600.935
415.526	18.350	792.347	600.737
416.540	18.273	791.390	599.689
417.555	18.288	791.228	599.564
418.569	18.361	791.042	599.625
419.584	18.269	790.561	598.885
420.599	18.338	790.056	598.693
421.613	156.348	1370.200	1794.152
422.628	135.243	1454.713	1794.251
