DTS Sentinel unit serial number:	SN413079Multiplexer serial number:	ORYXHardware model number:	OX4-SRSoftware version number:	ORYX F/W v4.00 Oryx Data Collector v3.7.2.0data status	okinstallation	princeton_trtdifferential loss correction	single-endedforward channel	channel 1reverse channel	N/Adate	2019/09/16time	02:34:35forward acquisition time	60.00reverse acquisition time	0.00gamma	496.2192k internal	0.2331k external	0.2331temperature offset calibration	0.9980default loss term (dB/km)	0.3790temperature slope calibration	1.0000multiplexer offset coefficient	1.0000multiplexer slope coefficient	1.0000fibre end	0.00T internal ref (°C)	27.69T ext. ref 1 (°C)	10.29T ext. ref 2 (°C)	22.56length (m)	temperature (°C)	Stokes	anti-Stokes-747.200	501.194	-0.094	-0.218
-746.185	-21.284	-0.200	-0.123
-745.171	-200.000	-0.005	0.093
-744.156	-137.094	-0.196	0.023
-743.142	800.000	-0.071	0.306
-742.127	-200.000	-0.017	0.387
-741.112	111.658	-0.188	0.229
-740.098	38.654	-0.082	-0.074
-739.083	-106.263	-0.164	-0.037
-738.069	-140.588	-0.330	0.034
-737.054	-159.737	0.167	0.009
-736.039	-36.900	-0.415	0.224
-735.025	57.342	0.272	0.267
-734.010	-16.298	-0.196	0.125
-732.996	35.234	-0.162	-0.142
-731.981	800.000	0.041	-0.153
-730.966	-103.369	-0.420	0.100
-729.952	-90.075	-0.184	0.054
-728.937	-51.770	0.159	-0.074
-727.923	11.540	-0.065	0.050
-726.908	593.401	-0.159	-0.395
-725.894	56.464	0.023	0.023
-724.879	100.486	-0.232	-0.271
-723.864	-105.778	-0.318	-0.072
-722.850	-200.000	-0.001	0.197
-721.835	-118.740	-0.170	0.030
-720.821	-72.400	-0.293	0.109
-719.806	25.671	-0.230	0.192
-718.791	-200.000	0.043	-0.282
-717.777	800.000	-0.012	0.049
-716.762	800.000	0.019	-0.059
-715.748	-200.000	-0.034	-0.213
-714.733	-5.251	-0.300	-0.207
-713.718	-53.928	0.274	-0.125
-712.704	-92.053	-0.071	-0.020
-711.689	-63.672	-0.541	-0.223
-710.675	53.481	-0.155	-0.149
-709.660	374.693	-0.046	-0.094
-708.645	-137.154	0.177	-0.020
-707.631	-35.099	0.146	-0.080
-706.616	370.000	-0.037	0.076
-705.602	70.295	0.089	-0.092
-704.587	-26.716	0.056	-0.033
-703.572	430.432	0.051	0.111
-702.558	54.670	0.188	-0.182
-701.543	61.289	0.207	-0.207
-700.529	800.000	0.101	-0.358
-699.514	305.187	-0.212	-0.395
-698.499	-192.522	-0.163	0.002
-697.485	-200.000	0.006	-0.139
-696.470	-39.525	0.129	-0.068
-695.456	-200.000	-0.005	0.118
-694.441	-72.335	0.102	-0.038
-693.426	1.791	0.085	-0.061
-692.412	-37.371	0.050	-0.027
-691.397	-176.396	-0.109	-0.003
-690.383	-12.730	-0.113	0.074
-689.368	-158.501	0.013	-0.001
-688.354	-112.909	-0.206	0.041
-687.339	800.000	-0.085	-0.302
-686.324	641.579	-0.097	-0.248
-685.310	560.013	-0.058	0.140
-684.295	275.293	-0.176	0.314
-683.281	44.448	0.054	0.050
-682.266	-23.865	-0.085	0.051
-681.251	800.000	-0.053	0.169
-680.237	111.252	0.080	-0.097
-679.222	130.907	-0.120	0.155
-678.208	119.857	-0.027	-0.034
-677.193	237.856	-0.153	0.256
-676.178	-62.664	0.216	-0.090
-675.164	-116.054	-0.088	-0.016
-674.149	-125.287	-0.062	0.010
-673.135	-189.816	0.185	-0.002
-672.120	55.983	0.210	-0.205
-671.105	-66.524	0.295	-0.117
-670.091	-136.607	-0.248	-0.029
-669.076	-38.646	0.281	-0.149
-668.062	-56.005	0.108	0.048
-667.047	-200.000	-0.012	0.116
-666.032	800.000	-0.124	0.389
-665.018	800.000	-0.033	0.093
-664.003	-96.419	-0.058	0.015
-662.989	10.911	-0.116	0.089
-661.974	-37.755	-0.368	0.196
-660.959	-124.118	-0.277	0.044
-659.945	-173.070	-0.234	-0.007
-658.930	-200.000	-0.008	-0.132
-657.916	184.470	-0.257	0.381
-656.901	38.954	-0.059	-0.053
-655.886	-200.000	-0.062	0.395
-654.872	72.192	0.065	0.068
-653.857	-52.327	0.139	-0.065
-652.843	201.381	-0.040	-0.063
-651.828	162.145	-0.166	-0.234
-650.814	24.354	-0.081	0.068
-649.799	-152.752	0.066	-0.005
-648.784	-200.000	0.023	-0.118
-647.770	63.167	-0.036	0.036
-646.755	800.000	0.060	-0.227
-645.741	-91.709	-0.412	-0.117
-644.726	-26.805	0.153	0.090
-643.711	800.000	-0.035	-0.138
-642.697	-200.000	0.007	0.114
-641.682	-200.000	0.049	-0.246
-640.668	259.027	-0.146	-0.252
-639.653	800.000	0.022	-0.087
-638.638	-125.953	0.093	-0.014
-637.624	-162.527	-0.089	-0.004
-636.609	344.642	-0.055	-0.108
-635.595	337.534	0.110	-0.213
-634.580	144.282	-0.136	-0.181
-633.565	-106.012	-0.267	0.060
-632.551	-7.721	0.271	-0.183
-631.536	-80.520	-0.264	0.088
-630.522	800.000	-0.017	-0.063
-629.507	68.997	-0.262	0.270
-628.492	303.622	-0.221	-0.410
-627.478	800.000	-0.028	0.098
-626.463	-63.150	-0.111	-0.046
-625.449	35.683	-0.138	-0.122
-624.434	-112.747	0.313	-0.062
-623.419	-135.556	-0.348	-0.042
-622.405	148.840	-0.070	0.095
-621.390	-33.201	0.099	-0.055
-620.376	-101.700	0.472	-0.115
-619.361	225.635	0.105	0.171
-618.346	-138.022	0.088	-0.010
-617.332	280.995	-0.080	-0.144
-616.317	131.517	-0.150	0.194
-615.303	-200.000	-0.052	-0.285
-614.288	-200.000	0.015	-0.456
-613.273	-200.000	0.015	-0.150
-612.259	131.827	-0.126	0.163
-611.244	59.043	0.134	0.132
-610.230	-16.397	-0.178	-0.113
-609.215	-200.000	-0.002	-0.076
-608.201	-17.332	-0.397	0.251
-607.186	-80.326	0.171	-0.057
-606.171	12.216	0.126	0.097
-605.157	601.452	-0.117	-0.291
-604.142	-144.715	-0.189	-0.017
-603.128	214.143	0.128	-0.202
-602.113	800.000	-0.010	0.043
-601.098	800.000	-0.091	0.290
-600.084	-127.996	0.185	-0.027
-599.069	360.011	0.166	-0.333
-598.055	-107.208	0.187	0.041
-597.040	63.534	0.168	-0.169
-596.025	-200.000	-0.020	-0.223
-595.011	-200.000	0.027	-0.218
-593.996	346.137	0.061	-0.120
-592.982	-59.102	0.145	0.062
-591.967	696.001	0.039	0.102
-590.952	-200.000	0.049	-0.256
-589.938	-18.052	-0.043	-0.027
-588.923	-200.000	0.032	-0.175
-587.909	-38.301	-0.261	0.138
-586.894	388.774	0.140	-0.290
-585.879	712.967	-0.071	-0.189
-584.865	-200.000	-0.019	-0.310
-583.850	-129.766	-0.254	-0.035
-582.836	-87.992	0.079	-0.024
-581.821	17.516	-0.332	-0.264
-580.806	-15.082	0.030	0.019
-579.792	34.022	-0.256	-0.223
-578.777	800.000	-0.025	-0.074
-577.763	-131.124	-0.009	0.001
-576.748	215.469	-0.070	0.111
-575.733	800.000	-0.058	0.214
-574.719	-17.826	0.088	0.055
-573.704	-179.999	0.134	-0.003
-572.690	-86.711	0.249	-0.076
-571.675	-98.673	-0.068	-0.017
-570.661	-200.000	-0.006	-0.530
-569.646	-79.236	0.064	-0.022
-568.631	800.000	-0.080	0.292
-567.617	-137.700	-0.380	0.043
-566.602	-10.206	0.137	0.091
-565.588	-200.000	-0.061	-0.297
-564.573	70.595	0.226	0.233
-563.558	599.144	-0.033	-0.082
-562.544	-153.973	0.053	0.004
-561.529	800.000	0.048	0.157
-560.515	-50.266	-0.191	-0.090
-559.500	-200.000	0.016	0.254
-558.485	-169.127	0.011	-0.000
-557.471	111.712	-0.114	0.137
-556.456	-105.750	0.120	-0.027
-555.442	-49.445	0.187	0.089
-554.427	149.258	0.190	0.257
-553.412	-30.737	0.221	-0.125
-552.398	310.981	-0.040	-0.075
-551.383	-117.024	0.199	-0.036
-550.369	-65.322	0.161	0.065
-549.354	70.358	-0.177	-0.183
-548.339	422.670	-0.244	0.523
-547.325	-125.618	-0.251	0.038
-546.310	-134.771	0.216	0.026
-545.296	-127.551	0.259	0.038
-544.281	800.000	-0.049	0.193
-543.266	-200.000	0.021	-0.368
-542.252	672.629	0.099	-0.257
-541.237	310.965	0.076	-0.143
-540.223	-21.971	0.273	-0.166
-539.208	-160.297	0.367	-0.020
-538.193	-200.000	-0.001	-0.135
-537.179	165.556	0.082	0.116
-536.164	126.718	-0.230	-0.291
-535.150	-146.066	0.502	0.044
-534.135	87.052	-0.211	0.232
-533.121	-200.000	-0.033	-0.253
-532.106	-102.546	-0.326	-0.078
-531.091	49.897	0.117	-0.110
-530.077	57.625	-0.030	0.029
-529.062	372.633	-0.200	-0.405
-528.048	223.598	0.091	-0.146
-527.033	11.036	0.101	-0.077
-526.018	-200.000	-0.023	-0.306
-525.004	-45.996	-0.365	0.179
-523.989	800.000	0.079	0.256
-522.975	54.191	0.190	-0.183
-521.960	68.870	0.041	-0.042
-520.945	-200.000	-0.060	-0.339
-519.931	-39.062	-0.016	0.009
-518.916	0.332	0.367	0.261
-517.902	-115.313	0.233	0.044
-516.887	71.239	0.188	-0.194
-515.872	568.926	-0.091	0.220
-514.858	3.392	-0.033	0.024
-513.843	-50.433	-0.428	-0.201
-512.829	79.336	0.237	0.253
-511.814	648.846	0.083	0.212
-510.799	-58.417	-0.168	-0.073
-509.785	-83.731	0.081	-0.026
-508.770	-36.699	0.124	-0.067
-507.756	-72.918	0.301	-0.110
-506.741	612.011	-0.055	-0.138
-505.726	-12.850	-0.259	0.168
-504.712	-200.000	-0.006	-0.064
-503.697	7.223	-0.106	0.079
-502.683	-134.857	-0.094	-0.011
-501.668	553.191	0.123	0.294
-500.653	5.124	-0.309	0.227
-499.639	365.128	0.198	-0.398
-498.624	-15.597	-0.219	0.139
-497.610	-11.969	0.021	-0.013
-496.595	800.000	-0.080	0.264
-495.581	42.859	0.086	-0.078
-494.566	-117.662	0.111	-0.020
-493.551	732.426	-0.043	0.115
-492.537	-1.716	0.097	-0.068
-491.522	239.760	0.204	0.338
-490.508	-182.809	-0.023	0.000
-489.493	-143.182	0.452	0.043
-488.478	11.641	0.168	-0.129
-487.464	-28.809	-0.131	-0.075
-486.449	-105.633	0.221	-0.050
-485.435	182.312	0.115	0.170
-484.420	668.291	0.080	-0.206
-483.405	-101.389	-0.249	0.060
-482.391	-91.864	0.147	-0.042
-481.376	-26.454	-0.134	-0.078
-480.362	-109.475	-0.704	0.148
-479.347	12.247	0.335	-0.257
-478.332	96.463	-0.231	0.264
-477.318	59.964	0.208	0.205
-476.303	-55.523	-0.180	0.080
-475.289	-111.259	0.239	0.049
-474.274	-123.898	-0.158	-0.025
-473.259	-92.297	0.210	-0.059
-472.245	602.059	0.051	-0.126
-471.230	82.402	-0.208	0.225
-470.216	-140.481	0.336	0.035
-469.201	-78.239	-0.272	-0.093
-468.186	-200.000	-0.009	-0.200
-467.172	169.050	0.129	0.184
-466.157	-165.979	-0.482	-0.021
-465.143	121.860	-0.140	-0.174
-464.128	-200.000	-0.038	0.264
-463.113	-66.145	-0.139	0.055
-462.099	-4.627	0.202	0.139
-461.084	142.294	-0.083	-0.109
-460.070	-104.483	0.159	0.036
-459.055	-133.961	-0.021	0.003
-458.040	-200.000	-0.026	0.173
-457.026	800.000	-0.026	-0.112
-456.011	-200.000	-0.002	0.252
-454.997	-136.165	-0.362	-0.042
-453.982	288.918	-0.143	0.258
-452.968	-200.000	0.004	-0.167
-451.953	252.304	-0.083	0.141
-450.938	13.787	0.092	-0.072
-449.924	52.974	-0.277	-0.264
-448.909	-200.000	0.066	0.355
-447.895	-82.934	0.375	0.121
-446.880	-167.670	-0.176	-0.007
-445.865	14.873	-0.049	-0.038
-444.851	-200.000	-0.014	-0.069
-443.836	-162.114	0.124	0.006
-442.822	-132.843	0.305	-0.039
-441.807	-3.227	0.106	0.073
-440.792	-121.032	0.255	0.043
-439.778	-21.548	-0.079	0.048
-438.763	-66.144	0.211	-0.084
-437.749	-200.000	0.029	-0.141
-436.734	413.770	0.040	-0.084
-435.719	3.010	-0.172	-0.124
-434.705	92.111	0.282	0.315
-433.690	77.201	0.094	-0.099
-432.676	-105.933	-0.182	0.041
-431.661	-139.947	0.290	0.030
-430.646	-97.076	-0.171	-0.044
-429.632	-200.000	0.027	0.211
-428.617	-106.126	-0.290	0.065
-427.603	-88.987	0.169	-0.050
-426.588	-200.000	0.018	0.182
-425.573	800.000	-0.050	-0.212
-424.559	195.112	0.144	0.217
-423.544	713.547	-0.026	0.069
-422.530	524.797	-0.177	-0.414
-421.515	-163.769	-0.321	0.015
-420.500	101.776	0.129	0.150
-419.486	-200.000	0.019	0.328
-418.471	6.512	-0.191	0.141
-417.457	-53.984	0.120	-0.054
-416.442	-22.773	0.144	-0.087
-415.428	-200.000	0.026	0.153
-414.413	43.786	-0.071	-0.065
-413.398	-170.690	0.172	0.006
-412.384	800.000	0.034	0.144
-411.369	358.564	0.080	-0.159
-410.355	52.059	0.160	0.151
-409.340	-200.000	-0.074	-0.424
-408.325	382.871	-0.216	-0.441
-407.311	105.439	0.221	-0.259
-406.296	-42.384	0.148	-0.075
-405.282	646.293	-0.112	-0.285
-404.267	-6.142	0.290	-0.197
-403.252	553.032	-0.038	-0.090
-402.238	154.210	0.074	-0.101
-401.223	118.763	0.126	0.155
-400.209	1.870	-0.185	0.132
-399.194	386.845	0.102	0.209
-398.179	-109.272	-0.048	-0.010
-397.165	-200.000	-0.012	0.390
-396.150	-30.414	-0.262	-0.148
-395.136	-170.839	0.249	-0.008
-394.121	677.147	-0.136	-0.351
-393.106	42.410	-0.310	0.280
-392.092	-149.769	0.067	0.005
-391.077	-8.809	0.226	-0.151
-390.063	-143.014	-0.341	-0.033
-389.048	594.681	-0.114	0.281
-388.033	-91.928	0.236	-0.066
-387.019	-19.702	-0.062	0.038
-386.004	-200.000	-0.015	0.164
-384.990	351.488	-0.191	-0.376
-383.975	-51.100	-0.312	0.145
-382.960	-103.572	0.435	-0.101
-381.946	381.590	0.138	-0.281
-380.931	-41.171	0.113	0.058
-379.917	-200.000	-0.048	0.270
-378.902	318.718	-0.113	-0.212
-377.888	-52.313	0.123	0.057
-376.873	-132.540	0.268	0.034
-375.858	800.000	-0.020	0.086
-374.844	-58.579	0.058	0.025
-373.829	310.263	0.045	0.083
-372.815	-200.000	-0.040	0.190
-371.800	-142.666	-0.312	-0.030
-370.785	-20.501	-0.180	-0.110
-369.771	-153.508	0.239	-0.016
-368.756	-121.249	0.186	-0.031
-367.742	131.644	-0.154	-0.197
-366.727	210.760	0.082	0.128
-365.712	-81.341	-0.196	0.064
-364.698	392.195	0.108	-0.223
-363.683	-34.100	0.312	-0.170
-362.669	-200.000	-0.037	0.318
-361.654	-200.000	0.004	0.102
-360.639	-76.988	-0.099	0.034
-359.625	-127.003	0.054	-0.008
-358.610	263.811	-0.188	-0.324
-357.596	-84.386	-0.188	0.059
-356.581	-149.510	-0.063	-0.005
-355.566	-133.876	-0.049	0.006
-354.552	171.843	-0.113	-0.161
-353.537	-200.000	-0.033	-0.188
-352.523	-80.673	-0.208	-0.069
-351.508	-20.798	-0.280	-0.170
-350.493	35.580	0.220	-0.192
-349.479	-65.037	0.167	0.067
-348.464	82.709	-0.213	0.229
-347.450	800.000	-0.011	0.049
-346.435	-12.987	-0.106	-0.068
-345.420	-122.218	0.412	-0.067
-344.406	-200.000	0.033	0.263
-343.391	115.277	0.119	0.144
-342.377	106.405	0.162	-0.191
-341.362	-104.035	0.071	0.016
-340.348	209.360	0.090	-0.140
-339.333	70.264	-0.054	-0.055
-338.318	800.000	-0.150	0.524
-337.304	680.057	-0.050	0.130
-336.289	159.278	-0.080	0.110
-335.275	-43.565	0.106	0.053
-334.260	-101.745	0.061	-0.015
-333.245	719.327	0.026	0.067
-332.231	174.465	0.032	-0.046
-331.216	0.399	-0.103	0.073
-330.202	-200.000	0.043	0.320
-329.187	107.916	-0.112	-0.132
-328.172	-200.000	0.018	-0.178
-327.158	-138.713	-0.045	-0.005
-326.143	177.597	0.021	-0.031
-325.129	-176.249	-0.033	-0.001
-324.114	-200.000	0.004	0.143
-323.099	-165.453	-0.107	0.005
-322.085	-70.047	0.360	-0.136
-321.070	331.076	0.102	-0.194
-320.056	604.244	-0.090	0.223
-319.041	-89.535	0.316	-0.092
-318.026	-86.366	0.237	0.072
-317.012	168.627	-0.077	-0.109
-315.997	-200.000	-0.043	-0.207
-314.983	329.078	-0.158	-0.300
-313.968	800.000	-0.016	-0.055
-312.953	-200.000	-0.033	-0.163
-311.939	682.135	-0.062	-0.161
-310.924	800.000	0.094	0.308
-309.910	7.410	0.172	0.127
-308.895	-200.000	0.028	0.274
-307.880	0.417	0.233	0.165
-306.866	800.000	-0.071	-0.219
-305.851	-200.000	-0.018	0.156
-304.837	800.000	-0.109	0.338
-303.822	134.219	0.119	0.152
-302.807	800.000	-0.120	0.463
-301.793	-46.404	0.360	0.175
-300.778	-160.617	-0.227	-0.012
-299.764	-71.733	-0.158	-0.058
-298.749	-200.000	-0.063	0.276
-297.735	-200.000	0.062	-0.303
-296.720	214.185	0.103	-0.161
-295.705	-200.000	0.046	0.305
-294.691	260.604	0.016	-0.027
-293.676	521.056	-0.061	0.140
-292.662	-152.427	0.058	-0.004
-291.647	390.013	-0.199	0.409
-290.632	293.577	0.131	-0.236
-289.618	-65.789	0.109	0.043
-288.603	-129.178	0.440	-0.061
-287.589	37.724	0.054	0.047
-286.574	60.038	-0.067	-0.066
-285.559	46.976	-0.043	-0.040
-284.545	421.204	-0.030	0.063
-283.530	-72.324	0.123	-0.045
-282.516	-200.000	0.012	-0.172
-281.501	-51.481	0.448	-0.207
-280.486	184.340	-0.058	-0.085
-279.472	430.519	0.049	-0.104
-278.457	663.367	0.046	0.117
-277.443	-128.698	0.203	-0.028
-276.428	22.330	0.040	-0.032
-275.413	442.196	-0.134	0.291
-274.399	800.000	-0.072	0.307
-273.384	121.138	0.174	0.214
-272.370	-70.381	0.305	-0.114
-271.355	-101.031	-0.164	-0.040
-270.340	-200.000	-0.005	-0.046
-269.326	-96.434	0.050	0.013
-268.311	-142.686	-0.145	0.014
-267.297	-9.964	0.224	0.147
-266.282	-79.609	-0.109	-0.036
-265.267	-90.580	-0.219	-0.063
-264.253	-84.817	0.246	-0.076
-263.238	30.176	-0.102	-0.086
-262.224	-200.000	0.001	0.173
-261.209	800.000	-0.042	-0.141
-260.195	-200.000	-0.013	-0.070
-259.180	-94.839	-0.180	0.048
-258.165	-115.312	0.330	-0.062
-257.151	-200.000	-0.011	0.424
-256.136	-160.368	-0.223	-0.012
-255.122	-96.503	-0.144	0.038
-254.107	360.939	0.091	0.179
-253.092	-95.456	-0.186	0.049
-252.078	-200.000	0.013	0.287
-251.063	-200.000	0.001	0.318
-250.049	42.448	-0.438	-0.393
-249.034	609.853	-0.101	-0.248
-248.019	207.008	0.098	0.150
-247.005	-200.000	-0.004	0.036
-245.990	240.317	-0.009	0.015
-244.976	-200.000	-0.015	0.199
-243.961	78.669	0.060	0.064
-242.946	59.546	0.089	-0.087
-241.932	249.983	0.138	0.232
-240.917	-120.200	-0.040	0.007
-239.903	60.204	-0.268	-0.261
-238.888	-200.000	-0.011	0.084
-237.873	-132.723	0.263	0.033
-236.859	798.497	-0.044	0.121
-235.844	800.000	0.041	-0.133
-234.830	-106.695	-0.188	-0.041
-233.815	-63.133	-0.195	-0.079
-232.800	-63.240	-0.152	-0.062
-231.786	800.000	-0.044	0.128
-230.771	-200.000	0.012	0.072
-229.757	-153.171	0.137	-0.009
-228.742	-0.272	-0.198	0.139
-227.727	800.000	0.079	-0.224
-226.713	-36.683	-0.388	0.206
-225.698	342.477	-0.099	-0.191
-224.684	103.288	0.201	-0.233
-223.669	276.898	0.108	-0.189
-222.655	-200.000	-0.076	-0.386
-221.640	53.241	0.404	0.382
-220.625	410.869	-0.150	0.313
-219.611	-135.189	-0.454	0.054
-218.596	401.362	0.067	-0.138
-217.582	-44.995	-0.274	-0.134
-216.567	-11.382	-0.078	0.051
-215.552	-7.071	-0.094	-0.063
-214.538	35.059	0.078	0.067
-213.523	-200.000	0.020	0.200
-212.509	-23.372	-0.075	0.044
-211.494	-200.000	0.035	0.183
-210.479	58.256	-0.183	-0.177
-209.465	100.062	0.069	0.079
-208.450	15.104	0.208	0.161
-207.436	1.008	-0.272	0.192
-206.421	191.703	0.105	0.155
-205.406	-87.831	0.135	-0.040
-204.392	-14.473	-0.264	-0.168
-203.377	-31.394	0.386	0.214
-202.363	-200.000	-0.017	-0.079
-201.348	-200.000	-0.009	0.119
-200.333	-4.656	-0.310	0.211
-199.319	-72.308	-0.070	0.026
-198.304	-200.000	-0.029	0.192
-197.290	-45.121	0.163	0.080
-196.275	-200.000	-0.017	-0.359
-195.260	149.853	-0.230	0.307
-194.246	-111.196	0.278	0.056
-193.231	-77.072	-0.207	0.071
-192.217	-21.451	-0.028	0.017
-191.202	-200.000	-0.004	0.188
-190.187	-90.503	-0.029	0.008
-189.173	-200.000	-0.038	-0.388
-188.158	-55.539	-0.161	-0.071
-187.144	800.000	0.040	0.170
-186.129	-1.565	0.093	0.065
-185.114	-106.497	-0.115	0.025
-184.100	800.000	-0.097	0.378
-183.085	485.064	0.068	0.153
-182.071	64.554	0.129	0.128
-181.056	181.663	0.076	-0.110
-180.042	176.336	0.150	0.215
-179.027	-36.058	-0.247	-0.131
-178.012	-17.159	0.178	-0.111
-176.998	204.368	-0.150	0.228
-175.983	150.193	-0.155	-0.207
-174.969	24.902	-0.088	-0.072
-173.954	-69.904	0.402	-0.151
-172.939	-200.000	-0.012	0.235
-171.925	16.458	-0.095	0.074
-170.910	35.227	-0.232	0.200
-169.896	307.536	-0.148	-0.271
-168.881	74.360	0.039	-0.040
-167.866	-140.429	0.244	0.025
-166.852	-200.000	-0.018	0.211
-165.837	-200.000	0.012	0.123
-164.823	299.532	-0.118	0.214
-163.808	-32.505	-0.176	-0.097
-162.793	59.154	0.170	-0.164
-161.779	210.165	0.180	-0.277
-160.764	-48.763	-0.266	0.125
-159.750	-200.000	-0.017	0.257
-158.735	21.027	0.317	0.253
-157.720	-200.000	0.013	-0.136
-156.706	-200.000	0.086	-0.501
-155.691	-8.745	-0.286	-0.189
-154.677	-104.011	-0.177	0.041
-153.662	-153.951	-0.226	-0.015
-152.647	800.000	0.159	0.458
-151.633	386.552	-0.117	0.237
-150.618	56.110	0.128	-0.122
-149.604	248.262	-0.206	-0.343
-148.589	208.405	-0.075	0.116
-147.574	-200.000	-0.029	-0.165
-146.560	-174.129	0.283	-0.008
-145.545	800.000	0.116	-0.493
-144.531	186.502	0.098	-0.143
-143.516	-104.463	0.319	-0.072
-142.502	518.642	0.095	0.219
-141.487	-124.086	0.249	-0.038
-140.472	67.145	0.249	0.249
-139.458	-40.768	-0.152	-0.078
-138.443	-170.594	0.476	0.016
-137.429	-40.855	0.215	-0.110
-136.414	17.914	0.153	-0.119
-135.399	-200.000	0.038	0.245
-134.385	-85.513	0.231	0.071
-133.370	265.429	-0.118	-0.202
-132.356	-200.000	-0.033	-0.379
-131.341	-104.716	0.291	0.066
-130.326	784.359	-0.138	0.373
-129.312	800.000	0.169	0.534
-128.297	78.288	-0.049	0.051
-127.283	460.984	0.064	0.141
-126.268	31.985	-0.248	0.210
-125.253	800.000	-0.028	0.119
-124.239	-114.489	-0.148	0.028
-123.224	210.932	0.042	0.064
-122.210	-200.000	0.027	0.241
-121.195	-166.110	0.178	-0.007
-120.180	49.034	0.097	0.089
-119.166	322.451	-0.130	-0.243
-118.151	-200.000	0.005	-0.085
-117.137	42.059	0.296	0.264
-116.122	-66.493	0.183	0.071
-115.107	-82.874	-0.232	0.074
-114.093	20.951	-0.086	-0.068
-113.078	296.643	0.227	-0.409
-112.064	-53.853	0.128	0.057
-111.049	-20.725	0.275	-0.166
-110.034	800.000	-0.003	-0.010
-109.020	-200.000	-0.009	-0.208
-108.005	69.606	-0.072	-0.073
-106.991	800.000	-0.056	0.192
-105.976	-200.000	-0.005	-0.136
-104.962	468.943	0.083	-0.184
-103.947	-122.160	0.068	0.011
-102.932	43.042	-0.122	0.109
-101.918	-200.000	0.019	-0.150
-100.903	25.879	0.200	0.163
-99.889	-115.223	0.355	-0.066
-98.874	189.553	0.097	0.142
-97.859	171.607	-0.073	0.103
-96.845	-21.279	0.262	-0.157
-95.830	343.531	-0.039	0.074
-94.816	-200.000	0.011	0.111
-93.801	-200.000	0.040	0.191
-92.786	800.000	0.084	0.258
-91.772	-200.000	0.000	0.106
-90.757	800.000	0.070	0.266
-89.743	177.225	-0.215	0.307
-88.728	-81.927	-0.100	0.032
-87.713	-61.579	-0.174	0.072
-86.699	-96.326	0.107	0.028
-85.684	525.344	-0.034	-0.079
-84.670	413.301	-0.121	-0.251
-83.655	-37.195	-0.407	-0.213
-82.640	-28.362	0.093	-0.053
-81.626	-200.000	0.016	0.203
-80.611	183.909	-0.086	0.124
-79.597	-111.664	-0.126	-0.025
-78.582	-17.083	0.236	-0.146
-77.567	800.000	0.032	0.122
-76.553	-4.637	0.067	0.046
-75.538	67.574	-0.167	-0.167
-74.524	800.000	-0.057	-0.211
-73.509	-144.420	0.257	0.023
-72.494	-79.622	-0.195	0.065
-71.480	-200.000	-0.017	-0.162
-70.465	160.048	0.124	0.169
-69.451	-72.517	0.143	0.052
-68.436	-118.988	-0.334	-0.057
-67.422	-132.003	0.158	-0.020
-66.407	800.000	0.116	-0.425
-65.392	-32.159	0.519	0.284
-64.378	-200.000	-0.013	-0.213
-63.363	-189.889	-0.371	-0.004
-62.349	-24.157	0.155	-0.091
-61.334	59.314	-0.933	-0.901
-60.319	-50.501	0.702	0.324
-59.305	800.000	-0.417	-1.279
-58.290	252.932	0.743	1.242
-57.276	800.000	0.530	1.511
-56.261	-200.000	112.203	635.508
-55.246	471.885	1499.267	3306.456
-54.232	148.299	2664.639	3523.839
-53.217	103.870	2150.474	2475.357
-52.203	38.883	1602.788	1402.536
-51.188	30.909	1349.841	1132.898
-50.173	28.022	1312.056	1084.054
-49.159	55.142	1367.335	1294.396
-48.144	54.052	1382.051	1301.703
-47.130	31.290	1337.840	1124.946
-46.115	27.781	1320.238	1089.202
-45.100	27.641	1315.247	1084.205
-44.086	27.459	1313.112	1081.325
-43.071	27.471	1310.714	1079.378
-42.057	27.492	1308.618	1077.733
-41.042	27.599	1306.791	1076.816
-40.027	27.603	1305.222	1075.506
-39.013	27.525	1303.583	1073.652
-37.998	27.662	1301.425	1072.637
-36.984	27.619	1300.342	1071.448
-35.969	27.763	1297.921	1070.259
-34.954	27.827	1296.218	1069.184
-33.940	27.656	1295.491	1067.543
-32.925	27.769	1293.897	1066.847
-31.911	27.734	1292.288	1065.276
-30.896	27.713	1291.205	1064.218
-29.881	27.823	1289.977	1063.805
-28.867	27.868	1287.948	1062.350
-27.852	27.672	1287.161	1060.519
-26.838	27.822	1285.267	1059.784
-25.823	27.748	1284.565	1058.738
-24.809	27.681	1283.253	1057.222
-23.794	27.654	1281.565	1055.638
-22.779	27.748	1280.487	1055.249
-21.765	27.770	1279.045	1054.149
-20.750	27.754	1277.384	1052.641
-19.736	27.750	1276.065	1051.493
-18.721	27.625	1275.669	1050.403
-17.706	27.632	1274.334	1049.300
-16.692	27.679	1272.633	1048.129
-15.677	27.706	1271.874	1047.618
-14.663	27.666	1270.768	1046.438
-13.648	27.567	1269.715	1044.961
-12.633	27.661	1268.712	1044.632
-11.619	27.620	1267.988	1043.762
-10.604	27.705	1266.424	1042.918
-9.590	27.622	1265.999	1042.052
-8.575	27.659	1264.534	1041.017
-7.560	27.647	1264.297	1040.708
-6.546	27.657	1263.270	1039.880
-5.531	27.589	1262.221	1038.591
-4.517	27.599	1261.328	1037.868
-3.502	27.716	1260.622	1037.912
-2.487	27.605	1259.729	1036.505
-1.473	27.612	1255.559	1033.073
-0.458	26.227	1240.411	1012.809
0.556	21.480	1224.237	976.675
1.571	18.200	1230.358	963.037
2.586	17.408	1245.954	970.639
3.600	17.538	1234.624	962.465
4.615	15.715	1168.253	900.882
5.629	12.196	1101.064	831.200
6.644	10.503	1083.635	809.526
7.659	10.253	1081.347	806.499
8.673	10.240	1080.238	805.537
9.688	10.153	1078.937	804.063
10.702	10.457	1076.624	803.775
11.717	12.541	1079.126	815.920
12.731	15.935	1083.518	836.041
13.746	17.838	1084.974	846.541
14.761	17.590	1084.815	845.114
15.775	16.574	1082.944	838.544
16.790	15.674	1080.429	832.069
17.804	14.843	1078.887	826.700
18.819	14.481	1077.893	824.078
19.834	14.083	1076.697	821.124
20.848	13.944	1075.700	819.607
21.863	13.760	1074.602	817.791
22.877	13.564	1074.060	816.340
23.892	13.566	1073.224	815.643
24.907	13.504	1072.941	815.050
25.921	13.521	1071.700	814.118
26.936	13.506	1070.540	813.094
27.950	13.763	1068.675	812.862
28.965	13.833	1067.080	811.923
29.980	13.833	1065.484	810.635
30.994	13.826	1064.786	809.996
32.009	13.786	1063.966	809.106
33.023	13.702	1062.760	807.710
34.038	13.840	1061.140	807.078
35.053	13.690	1060.716	805.953
36.067	13.690	1059.774	805.168
37.082	13.705	1059.059	804.626
38.096	13.839	1058.036	804.426
39.111	13.801	1057.695	803.915
40.126	13.739	1056.355	802.524
41.140	13.500	1055.308	800.500
42.155	13.394	1054.041	798.956
43.169	13.554	1052.789	798.710
44.184	13.482	1051.747	797.500
45.199	13.486	1050.779	796.717
46.213	13.493	1049.610	795.793
47.228	13.566	1048.431	795.179
48.242	13.682	1047.039	794.610
49.257	13.658	1046.117	793.725
50.271	13.642	1045.689	793.254
51.286	13.677	1045.004	792.829
52.301	13.742	1043.561	791.975
53.315	13.647	1042.526	790.668
54.330	13.680	1041.507	789.980
55.344	13.681	1040.289	788.993
56.359	13.586	1040.197	788.401
57.374	13.418	1039.339	786.881
58.388	13.525	1038.502	786.687
59.403	13.391	1037.765	785.422
60.417	13.420	1036.569	784.586
61.432	13.465	1035.865	784.198
62.447	13.500	1034.887	783.553
63.461	13.361	1034.350	782.418
64.476	13.463	1032.954	781.777
65.490	13.423	1032.293	781.020
66.505	13.447	1031.656	780.578
67.520	13.397	1031.056	779.820
68.534	13.592	1029.913	779.806
69.549	13.445	1029.175	778.487
70.563	13.448	1028.370	777.822
71.578	13.433	1027.857	777.295
72.593	13.350	1027.324	776.434
73.607	13.462	1025.916	775.826
74.622	13.439	1025.397	775.257
75.636	13.253	1024.838	773.896
76.651	13.376	1024.073	773.826
77.666	13.295	1024.177	773.457
78.680	13.377	1023.181	773.019
79.695	13.453	1022.093	772.485
80.709	13.399	1022.022	772.110
81.724	13.366	1021.457	771.458
82.739	13.581	1020.095	771.365
83.753	13.496	1019.797	770.675
84.768	13.644	1018.835	770.567
85.782	13.702	1017.760	769.958
86.797	13.734	1016.704	769.239
87.812	13.637	1015.899	768.110
88.826	13.672	1014.850	767.411
89.841	13.844	1013.390	767.037
90.855	13.871	1012.649	766.528
91.870	13.938	1011.660	766.022
92.884	13.739	1011.335	764.790
93.899	13.841	1010.822	764.804
94.914	13.854	1010.008	764.181
95.928	13.843	1009.148	763.415
96.943	13.690	1008.165	761.899
97.957	13.784	1007.159	761.501
98.972	13.797	1006.180	760.753
99.987	13.818	1005.525	760.286
101.001	13.810	1004.648	759.522
102.016	13.622	1004.040	758.135
103.030	13.861	1003.197	758.525
104.045	13.788	1002.309	757.450
105.060	13.861	1001.108	756.811
106.074	13.578	1000.765	755.195
107.089	13.547	999.478	754.017
108.103	13.560	998.439	753.221
109.118	13.447	998.127	752.406
110.133	13.572	996.420	751.620
111.147	13.557	995.914	751.104
112.162	13.449	995.219	750.024
113.176	13.590	994.188	749.822
114.191	13.659	993.473	749.526
115.206	13.742	992.921	749.417
116.220	13.588	991.740	747.765
117.235	13.582	991.085	747.178
118.249	13.591	990.263	746.532
119.264	13.597	989.784	746.135
120.279	13.617	988.571	745.244
121.293	13.697	987.485	744.719
122.308	13.609	986.994	743.885
123.322	13.547	986.311	743.030
124.337	13.581	984.689	741.894
125.352	13.474	984.047	740.864
126.366	13.443	982.745	739.679
127.381	13.509	981.710	739.131
128.395	13.579	981.065	738.890
129.410	13.463	980.059	737.551
130.424	13.524	979.055	737.002
131.439	13.582	978.455	736.741
132.454	13.622	977.763	736.334
133.468	13.714	977.007	736.110
134.483	13.577	976.098	734.752
135.497	13.643	975.112	734.238
136.512	13.646	974.228	733.521
137.527	13.715	973.409	733.144
138.541	13.726	972.532	732.465
139.556	13.748	971.933	732.046
140.570	13.742	971.391	731.547
141.585	13.810	970.562	731.159
142.600	13.880	969.682	730.739
143.614	13.965	968.783	730.371
144.629	13.921	968.040	729.553
145.643	13.877	967.319	728.753
146.658	13.853	966.126	727.681
147.673	13.741	965.302	726.506
148.687	13.750	963.953	725.466
149.702	13.773	963.442	725.118
150.716	13.734	962.722	724.343
151.731	13.755	961.895	723.746
152.746	13.844	961.193	723.546
153.760	13.931	960.451	723.298
154.775	13.920	959.679	722.607
155.789	13.868	959.421	722.123
156.804	13.921	958.540	721.624
157.819	13.902	957.810	720.929
158.833	14.130	956.916	721.184
159.848	13.997	956.647	720.337
160.862	14.059	954.917	719.243
161.877	13.948	954.276	718.213
162.892	13.810	953.603	717.046
163.906	13.829	952.798	716.462
164.921	13.800	951.894	715.593
165.935	13.945	951.287	715.699
166.950	14.003	950.058	714.958
167.964	13.989	949.142	714.145
168.979	13.950	948.053	713.099
169.994	13.743	947.862	712.004
171.008	14.044	946.811	712.439
172.023	13.990	946.427	711.856
173.037	14.080	945.715	711.643
174.052	14.007	944.611	710.438
175.067	14.139	943.593	710.174
176.081	13.984	943.371	709.282
177.096	13.929	943.129	708.802
178.110	14.033	942.383	708.620
179.125	13.902	941.607	707.418
180.140	14.058	941.392	707.859
181.154	14.199	940.693	707.871
182.169	14.151	940.365	707.356
183.183	14.166	939.636	706.807
184.198	14.162	938.681	706.011
185.213	14.290	938.139	706.084
186.227	14.199	937.375	705.059
187.242	14.352	936.245	704.796
188.256	14.221	936.421	704.310
189.271	14.325	935.329	703.865
190.286	14.000	934.758	702.004
191.300	13.999	934.419	701.681
192.315	14.011	933.389	700.897
193.329	14.112	932.785	700.806
194.344	14.065	932.347	700.218
195.359	14.151	931.450	699.842
196.373	14.410	930.558	700.200
197.388	14.359	930.207	699.660
198.402	14.422	929.736	699.506
199.417	14.459	929.289	699.266
200.432	14.481	929.009	699.085
201.446	14.482	928.292	698.487
202.461	14.552	927.689	698.266
203.475	14.531	927.198	697.747
204.490	14.438	926.442	696.725
205.504	14.409	925.778	696.045
206.519	14.320	925.035	695.054
207.534	14.392	924.153	694.629
208.548	14.500	923.778	694.734
209.563	14.423	922.860	693.661
210.577	14.522	922.237	693.544
211.592	14.558	921.435	693.029
212.607	14.540	920.333	692.066
213.621	14.620	919.608	691.789
214.636	14.477	919.568	691.105
215.650	14.691	918.871	691.407
216.665	14.693	917.786	690.537
217.680	14.719	917.249	690.182
218.694	14.706	916.304	689.354
219.709	14.624	915.859	688.619
220.723	14.776	915.409	688.848
221.738	14.766	914.483	688.048
222.753	14.681	914.055	687.318
223.767	14.869	913.102	687.312
224.782	14.745	913.025	686.682
225.796	14.776	912.768	686.558
226.811	14.809	911.373	685.584
227.826	14.784	910.795	684.983
228.840	14.640	910.036	683.763
229.855	14.753	909.249	683.572
230.869	14.779	908.339	682.936
231.884	14.751	907.751	682.318
232.899	14.670	907.260	681.557
233.913	14.618	906.615	680.802
234.928	14.764	905.804	680.728
235.942	14.650	905.213	679.757
236.957	14.778	904.731	679.855
237.972	14.856	903.949	679.527
238.986	14.751	903.247	678.513
240.001	14.728	902.494	677.793
241.015	14.899	901.910	677.990
242.030	15.023	901.112	677.828
243.045	14.954	900.844	677.288
244.059	14.916	900.393	676.737
245.074	14.991	899.583	676.371
246.088	14.879	898.875	675.326
247.103	14.894	898.226	674.841
248.117	15.012	897.715	674.872
249.132	15.169	897.198	675.058
250.147	15.311	896.543	675.074
251.161	15.182	896.084	674.152
252.176	15.268	895.290	673.841
253.190	15.286	894.584	673.323
254.205	15.386	893.817	673.087
255.220	15.334	893.182	672.340
256.234	15.390	892.584	672.053
257.249	15.307	891.726	671.016
258.263	15.397	891.118	670.858
259.278	15.427	890.312	670.313
260.293	15.457	889.789	669.980
261.307	15.374	889.607	669.453
262.322	15.340	888.930	668.748
263.336	15.473	887.866	668.417
264.351	15.563	887.269	668.266
265.366	15.555	886.671	667.727
266.380	15.580	886.029	667.284
267.395	15.452	885.271	666.144
268.409	15.599	884.293	665.932
269.424	15.553	883.711	665.253
270.439	15.375	883.159	664.074
271.453	15.398	882.195	663.382
272.468	15.436	881.849	663.212
273.482	15.501	881.362	663.044
274.497	15.557	880.827	662.805
275.512	15.473	880.098	661.865
276.526	15.491	879.619	661.519
277.541	15.513	878.919	661.022
278.555	15.575	878.581	660.951
279.570	15.674	877.921	660.786
280.585	15.767	877.119	660.490
281.599	15.712	876.063	659.419
282.614	15.714	875.519	658.958
283.628	15.651	875.281	658.473
284.643	15.610	874.737	657.847
285.657	15.773	873.952	657.836
286.672	15.744	873.254	657.141
287.687	15.740	872.506	656.504
288.701	15.891	871.894	656.572
289.716	15.708	871.546	655.538
290.730	15.831	870.950	655.514
291.745	15.871	870.274	655.100
292.760	16.059	869.406	655.120
293.774	16.057	868.857	654.641
294.789	15.904	868.278	653.555
295.803	15.842	867.539	652.697
296.818	15.952	866.633	652.384
297.833	15.759	866.276	651.310
298.847	15.896	865.367	651.102
299.862	15.911	865.067	650.877
300.876	15.982	864.896	650.962
301.891	16.022	863.758	650.203
302.906	16.039	863.326	649.887
303.920	16.207	863.150	650.343
304.935	16.039	862.595	649.222
305.949	16.161	861.680	648.945
306.964	16.134	861.020	648.286
307.979	16.107	860.733	647.910
308.993	16.135	860.134	647.507
310.008	16.199	859.368	647.121
311.022	16.114	859.089	646.527
312.037	16.094	858.255	645.766
313.052	16.184	857.506	645.489
314.066	16.019	857.013	644.430
315.081	16.018	856.771	644.187
316.095	16.184	856.069	644.235
317.110	16.069	855.640	643.418
318.125	16.184	854.830	643.190
319.139	16.086	854.694	642.656
320.154	16.228	854.011	642.627
321.168	16.138	853.774	642.048
322.183	16.145	853.052	641.477
323.197	16.238	852.555	641.398
324.212	16.296	851.983	641.132
325.227	16.212	851.406	640.324
326.241	16.156	850.793	639.592
327.256	16.168	850.046	639.021
328.270	16.123	849.678	638.516
329.285	16.111	849.374	638.186
330.300	16.222	848.770	638.095
331.314	16.157	848.095	637.285
332.329	16.290	847.204	637.061
333.343	16.316	847.275	637.156
334.358	16.452	846.675	637.162
335.373	16.305	846.164	636.169
336.387	16.425	846.199	636.590
337.402	16.488	845.671	636.375
338.416	16.441	845.598	636.085
339.431	16.551	845.026	636.013
340.446	16.484	844.449	635.269
341.460	16.579	843.921	635.172
342.475	16.718	843.408	635.253
343.489	16.680	843.508	635.130
344.504	16.783	842.922	635.017
345.519	16.824	842.009	634.427
346.533	16.882	841.766	634.403
347.548	16.682	841.410	633.333
348.562	16.595	840.782	632.477
349.577	16.548	840.063	631.708
350.592	16.695	839.158	631.516
351.606	16.592	838.610	630.666
352.621	16.622	837.987	630.255
353.635	16.707	837.408	630.079
354.650	16.689	837.089	629.714
355.665	16.695	836.469	629.217
356.679	16.697	835.598	628.514
357.694	16.843	834.498	628.170
358.708	16.766	834.225	627.624
359.723	16.736	834.056	627.332
360.738	16.881	833.052	627.057
361.752	16.945	832.418	626.761
362.767	16.825	831.834	625.821
363.781	17.059	831.199	626.153
364.796	17.070	830.849	625.874
365.810	17.103	830.543	625.708
366.825	17.174	830.127	625.600
367.840	17.156	829.711	625.165
368.854	17.008	829.024	624.049
369.869	17.017	828.837	623.887
370.883	17.070	828.235	623.572
371.898	17.064	828.114	623.406
372.913	17.147	827.685	623.332
373.927	17.114	827.105	622.719
374.942	17.161	826.666	622.504
375.956	17.206	826.100	622.189
376.971	17.155	826.091	621.941
377.986	17.231	825.347	621.601
379.000	17.293	824.747	621.324
380.015	17.335	824.069	620.911
381.029	17.305	823.788	620.534
382.044	17.310	823.319	620.143
383.059	17.444	822.614	620.046
384.073	17.216	822.083	618.762
385.088	17.320	821.351	618.534
386.102	17.240	821.091	617.991
387.117	17.412	819.859	617.636
388.132	17.103	820.217	616.727
389.146	17.300	819.352	616.736
390.161	17.388	818.578	616.417
391.175	17.365	818.485	616.212
392.190	17.369	817.886	615.720
393.205	17.321	817.525	615.221
394.219	17.243	817.278	614.697
395.234	17.350	816.617	614.534
396.248	17.192	816.380	613.728
397.263	17.322	815.707	613.637
398.278	17.221	815.451	613.027
399.292	17.344	815.017	613.090
400.307	17.426	814.144	612.673
401.321	17.388	813.638	612.102
402.336	17.334	813.621	611.841
403.350	17.336	813.022	611.342
404.365	17.529	812.242	611.396
405.380	17.616	811.779	611.307
406.394	17.646	811.343	611.031
407.409	17.717	810.984	610.962
408.423	17.526	811.140	610.338
409.438	17.775	810.171	610.449
410.453	17.554	810.454	609.814
411.467	17.843	809.732	610.251
412.482	17.589	809.510	609.124
413.496	17.688	809.133	609.138
414.511	17.754	808.652	608.959
415.526	17.598	808.376	608.140
416.540	17.682	807.596	607.798
417.555	17.874	806.720	607.769
418.569	17.773	806.946	607.525
419.584	17.802	806.326	607.107
420.599	17.810	805.540	606.492
421.613	111.414	1294.643	1476.152
422.628	96.121	1365.895	1476.222
