DTS Sentinel unit serial number:	SN413079Multiplexer serial number:	ORYXHardware model number:	OX4-SRSoftware version number:	ORYX F/W v4.00 Oryx Data Collector v3.7.2.0data status	okinstallation	princeton_trtdifferential loss correction	single-endedforward channel	channel 1reverse channel	N/Adate	2019/09/17time	15:42:35forward acquisition time	60.00reverse acquisition time	0.00gamma	496.2192k internal	0.2293k external	0.2293temperature offset calibration	0.9962default loss term (dB/km)	0.3790temperature slope calibration	1.0000multiplexer offset coefficient	1.0000multiplexer slope coefficient	1.0000fibre end	0.00T internal ref (°C)	38.81T ext. ref 1 (°C)	0.37T ext. ref 2 (°C)	36.52length (m)	temperature (°C)	Stokes	anti-Stokes-747.200	-14.893	-0.218	0.143
-746.185	-64.470	-0.182	0.076
-745.171	-118.641	0.178	-0.032
-744.156	-200.000	0.031	0.302
-743.142	-200.000	-0.057	-0.468
-742.127	67.174	0.153	0.159
-741.112	180.057	0.069	-0.103
-740.098	-200.000	0.008	-0.189
-739.083	-200.000	0.001	0.197
-738.069	-49.957	0.285	0.138
-737.054	90.852	0.127	0.146
-736.039	33.773	-0.133	-0.118
-735.025	-10.098	0.015	0.010
-734.010	800.000	0.018	0.077
-732.996	800.000	0.055	-0.231
-731.981	503.171	-0.106	-0.251
-730.966	-107.985	0.223	0.049
-729.952	-135.221	-0.452	0.055
-728.937	252.713	-0.139	-0.243
-727.923	-144.140	0.195	0.019
-726.908	-155.414	0.087	-0.006
-725.894	-19.580	-0.163	-0.103
-724.879	617.224	0.070	0.179
-723.864	68.807	-0.100	0.105
-722.850	-200.000	-0.046	-0.215
-721.835	-200.000	0.014	-0.397
-720.821	123.480	-0.148	0.190
-719.806	496.624	0.091	0.214
-718.791	-11.510	-0.124	0.083
-717.777	-41.999	0.337	0.176
-716.762	-16.974	-0.189	-0.122
-715.748	62.519	-0.114	0.117
-714.733	30.360	-0.390	-0.341
-713.718	-157.279	-0.190	-0.012
-712.704	-12.519	0.113	-0.075
-711.689	-46.328	0.107	0.054
-710.675	800.000	-0.028	-0.081
-709.660	-118.277	0.075	0.014
-708.645	280.950	-0.114	0.208
-707.631	278.098	0.072	0.130
-706.616	-160.736	0.114	-0.006
-705.602	194.294	0.129	0.199
-704.587	-120.836	-0.462	-0.080
-703.572	-139.099	0.141	-0.016
-702.558	-139.585	0.220	-0.024
-701.543	-114.709	0.374	0.073
-700.529	-78.876	0.244	0.085
-699.514	-126.124	-0.203	-0.031
-698.499	800.000	-0.062	0.238
-697.485	179.888	0.216	0.323
-696.470	800.000	-0.135	0.474
-695.456	-44.565	0.217	-0.111
-694.441	-200.000	0.017	-0.145
-693.426	599.112	0.062	-0.157
-692.412	-57.342	0.283	-0.127
-691.397	-200.000	0.018	-0.184
-690.383	-200.000	0.044	-0.399
-689.368	-167.817	-0.132	0.005
-688.354	-63.454	0.104	-0.044
-687.339	800.000	0.118	-0.453
-686.324	211.924	0.145	-0.233
-685.310	-63.796	0.252	0.105
-684.295	800.000	-0.028	0.100
-683.281	-63.094	0.162	0.068
-682.266	-143.941	0.176	0.017
-681.251	-147.325	0.286	-0.025
-680.237	-98.536	0.388	-0.101
-679.222	-200.000	0.042	-0.201
-678.208	122.339	-0.108	-0.138
-677.193	-47.227	0.169	-0.084
-676.178	-200.000	-0.009	0.150
-675.164	188.806	-0.070	-0.106
-674.149	32.373	0.226	-0.199
-673.135	-200.000	0.031	-0.219
-672.120	800.000	-0.060	0.233
-671.105	62.725	0.187	-0.191
-670.091	-200.000	0.061	-0.328
-669.076	77.886	-0.124	0.135
-668.062	-150.465	-0.078	0.006
-667.047	-80.638	-0.177	0.060
-666.032	69.279	-0.139	-0.146
-665.018	800.000	-0.207	0.586
-664.003	-16.696	0.077	0.050
-662.989	-200.000	-0.010	-0.178
-661.974	-114.222	0.248	0.049
-660.959	800.000	-0.062	0.232
-659.945	-121.653	0.139	-0.024
-658.930	-200.000	-0.020	0.155
-657.916	-143.321	0.343	0.034
-656.901	-200.000	-0.002	-0.083
-655.886	-36.984	0.067	0.037
-654.872	14.744	0.140	0.112
-653.857	225.037	0.159	-0.262
-652.843	-101.090	-0.009	-0.002
-651.828	347.063	0.068	0.137
-650.814	-35.692	-0.204	-0.113
-649.799	-200.000	-0.009	-0.094
-648.784	62.959	0.046	0.047
-647.770	800.000	-0.079	0.257
-646.755	-200.000	0.053	-0.338
-645.741	-159.883	0.201	-0.011
-644.726	-55.482	-0.292	-0.133
-643.711	-200.000	-0.027	0.155
-642.697	231.074	-0.041	0.068
-641.682	71.589	-0.164	0.174
-640.668	191.762	0.204	0.314
-639.653	123.273	-0.204	0.260
-638.638	63.537	0.253	-0.258
-637.624	800.000	-0.065	0.198
-636.609	-47.816	-0.172	0.085
-635.595	197.461	0.046	0.071
-634.580	-27.234	-0.242	0.144
-633.565	500.327	-0.063	-0.149
-632.551	301.538	-0.140	0.264
-631.536	-149.347	-0.204	0.017
-630.522	234.423	-0.095	0.159
-629.507	-107.791	0.279	0.062
-628.492	7.723	0.143	-0.109
-627.478	-21.151	0.253	0.158
-626.463	76.763	0.291	-0.315
-625.449	-52.376	-0.140	0.066
-624.434	-90.226	-0.102	0.030
-623.419	-200.000	0.021	-0.121
-622.405	-161.643	-0.686	-0.036
-621.390	771.598	0.121	0.337
-620.376	148.349	0.087	0.119
-619.361	218.825	-0.067	0.109
-618.346	73.690	-0.170	-0.181
-617.332	-57.216	-0.293	-0.132
-616.317	-200.000	-0.017	-0.216
-615.303	800.000	0.030	0.126
-614.288	800.000	0.034	-0.136
-613.273	46.556	0.103	0.097
-612.259	563.030	-0.068	0.167
-611.244	-101.001	0.105	-0.026
-610.230	800.000	0.109	0.421
-609.215	65.083	0.239	0.246
-608.201	-113.853	-0.296	-0.059
-607.186	-156.533	0.433	-0.027
-606.171	-159.021	-0.293	-0.017
-605.157	-200.000	-0.012	0.111
-604.142	-200.000	0.031	0.144
-603.128	226.264	0.101	-0.167
-602.113	-38.334	0.203	0.109
-601.098	-200.000	-0.006	0.109
-600.084	103.326	-0.034	0.041
-599.069	-105.079	0.301	-0.070
-598.055	-1.124	-0.079	0.056
-597.040	285.159	0.084	0.154
-596.025	189.054	-0.092	0.140
-595.011	736.601	-0.037	0.101
-593.996	-15.262	0.315	-0.205
-592.982	-200.000	0.009	0.115
-591.967	-13.581	0.294	-0.194
-590.952	623.703	0.054	0.139
-589.938	36.754	0.301	-0.270
-588.923	-200.000	-0.027	-0.180
-587.909	511.355	0.084	-0.200
-586.894	381.435	0.016	0.033
-585.879	-200.000	-0.071	-0.398
-584.865	-170.964	-0.061	0.002
-583.850	-80.274	-0.094	-0.032
-582.836	-11.184	0.334	-0.224
-581.821	-200.000	0.022	-0.104
-580.806	-70.520	-0.222	-0.086
-579.792	-200.000	-0.049	0.332
-578.777	10.838	0.338	-0.262
-577.763	800.000	-0.085	-0.264
-576.748	-200.000	-0.032	-0.284
-575.733	-55.830	-0.187	0.085
-574.719	-1.532	-0.182	-0.130
-573.704	118.874	-0.234	0.294
-572.690	-200.000	0.020	-0.227
-571.675	-200.000	-0.006	-0.279
-570.661	129.985	-0.125	-0.162
-569.646	294.269	-0.130	-0.241
-568.631	-9.615	0.389	0.264
-567.617	-48.808	-0.061	-0.030
-566.602	533.876	-0.058	0.140
-565.588	-113.935	-0.066	0.013
-564.573	11.659	-0.073	0.057
-563.558	114.515	-0.128	-0.158
-562.544	77.239	0.074	0.080
-561.529	454.512	-0.123	0.278
-560.515	149.221	0.148	-0.203
-559.500	8.334	0.128	0.098
-558.485	556.838	0.128	0.314
-557.471	800.000	0.097	-0.313
-556.456	-200.000	-0.035	0.233
-555.442	800.000	-0.047	-0.157
-554.427	-98.132	0.355	0.093
-553.412	-200.000	-0.032	-0.188
-552.398	52.738	-0.297	-0.288
-551.383	468.326	-0.111	-0.252
-550.369	-82.416	0.108	-0.036
-549.354	-108.926	-0.143	0.031
-548.339	-200.000	-0.010	-0.143
-547.325	428.645	-0.016	0.035
-546.310	800.000	0.119	0.396
-545.296	12.132	-0.095	0.074
-544.281	-98.435	0.123	0.032
-543.266	-200.000	-0.047	0.327
-542.252	-38.355	0.266	0.143
-541.237	-33.497	-0.160	-0.090
-540.223	457.177	-0.112	0.253
-539.208	-200.000	0.049	0.319
-538.193	75.890	-0.098	-0.105
-537.179	-40.204	-0.101	-0.053
-536.164	16.085	-0.071	0.057
-535.150	487.484	-0.068	0.159
-534.135	29.826	-0.174	0.151
-533.121	203.686	0.038	-0.059
-532.106	-85.817	0.156	-0.049
-531.091	177.116	-0.048	0.070
-530.077	800.000	-0.084	0.241
-529.062	-200.000	-0.025	0.361
-528.048	-25.231	-0.123	0.074
-527.033	800.000	-0.006	0.021
-526.018	800.000	0.038	-0.162
-525.004	-83.793	0.414	0.134
-523.989	-66.143	-0.125	0.050
-522.975	-46.048	-0.329	-0.164
-521.960	-47.190	-0.012	0.006
-520.945	-159.055	-0.207	-0.012
-519.931	-129.437	-0.493	-0.069
-518.916	227.192	-0.028	-0.046
-517.902	800.000	0.026	0.092
-516.887	-157.748	0.251	-0.015
-515.872	577.559	0.052	-0.129
-514.858	-200.000	0.028	-0.158
-513.843	-53.921	0.227	-0.105
-512.829	56.191	0.152	0.149
-511.814	556.122	-0.026	-0.063
-510.799	-200.000	-0.028	0.364
-509.785	-5.196	-0.087	0.061
-508.770	33.791	-0.150	0.133
-507.756	-82.240	0.120	0.039
-506.741	-48.885	0.075	-0.037
-505.726	-39.916	0.367	0.194
-504.712	-200.000	-0.052	0.293
-503.697	-107.934	0.060	-0.013
-502.683	-34.905	-0.128	-0.071
-501.668	-43.752	-0.155	0.079
-500.653	-17.515	-0.155	-0.099
-499.639	328.352	-0.094	-0.184
-498.624	92.894	-0.045	0.052
-497.610	45.068	-0.136	-0.127
-496.595	-200.000	0.021	-0.099
-495.581	-200.000	0.049	-0.232
-494.566	-55.684	-0.231	-0.105
-493.551	205.115	0.185	0.291
-492.537	533.683	0.170	0.407
-491.522	-73.594	-0.078	-0.029
-490.508	-136.831	-0.218	0.025
-489.493	91.722	-0.114	-0.130
-488.478	-16.238	-0.379	-0.244
-487.464	424.813	0.045	-0.098
-486.449	647.198	0.022	-0.058
-485.435	-98.804	0.297	0.076
-484.420	-90.620	-0.108	0.032
-483.405	33.353	0.027	-0.024
-482.391	216.891	-0.106	0.171
-481.376	-200.000	0.044	0.200
-480.362	-200.000	-0.226	-0.001
-479.347	-97.601	0.232	0.061
-478.332	800.000	0.060	-0.229
-477.318	-60.279	0.187	-0.080
-476.303	-200.000	-0.018	-0.459
-475.289	-113.736	0.122	0.024
-474.274	76.932	-0.184	0.198
-473.259	602.647	0.086	0.216
-472.245	-160.452	-0.043	0.002
-471.230	-200.000	0.030	-0.189
-470.216	600.581	-0.047	-0.118
-469.201	-152.910	-0.229	0.016
-468.186	25.139	0.362	-0.304
-467.172	99.330	0.068	0.079
-466.157	-140.285	0.242	0.026
-465.143	-162.001	0.216	0.011
-464.128	-200.000	-0.037	0.214
-463.113	-200.000	0.033	0.200
-462.099	-23.418	0.455	0.277
-461.084	800.000	-0.070	-0.260
-460.070	-200.000	-0.001	-0.476
-459.055	-124.125	-0.147	-0.023
-458.040	-72.325	0.306	-0.115
-457.026	-122.009	-0.177	0.029
-456.011	-111.480	-0.215	0.044
-454.997	254.235	0.139	-0.241
-453.982	-25.264	-0.101	-0.061
-452.968	-200.000	-0.089	0.442
-451.953	800.000	0.037	-0.128
-450.938	-77.128	0.204	0.072
-449.924	-11.462	-0.134	0.089
-448.909	-200.000	-0.020	-0.328
-447.895	-200.000	-0.002	0.209
-446.880	-129.050	0.074	0.010
-445.865	122.703	0.152	0.193
-444.851	-97.260	-0.230	0.061
-443.836	-113.473	-0.201	-0.040
-442.822	61.251	0.056	0.057
-441.807	30.225	-0.083	-0.072
-440.792	256.428	0.157	-0.272
-439.778	630.322	-0.059	0.151
-438.763	-9.465	-0.160	-0.108
-437.749	195.164	-0.053	0.081
-436.734	-104.766	-0.054	0.013
-435.719	-117.260	0.154	0.028
-434.705	587.898	0.194	-0.483
-433.690	-26.904	0.136	-0.080
-432.676	-138.693	0.094	-0.010
-431.661	126.717	0.121	0.155
-430.646	374.878	0.137	-0.281
-429.632	365.812	-0.092	-0.188
-428.617	300.446	-0.083	-0.156
-427.603	48.774	0.186	-0.177
-426.588	-132.899	0.393	0.051
-425.573	-136.431	0.147	-0.017
-424.559	755.020	0.061	-0.168
-423.544	-60.426	0.278	0.119
-422.530	-149.738	-0.158	-0.013
-421.515	-200.000	-0.005	0.104
-420.500	-200.000	0.022	-0.465
-419.486	-58.734	-0.057	-0.025
-418.471	-200.000	0.013	-0.323
-417.457	352.348	-0.054	0.109
-416.442	-41.397	-0.209	-0.109
-415.428	-163.992	-0.281	0.013
-414.413	-186.362	-0.197	0.003
-413.398	17.577	-0.162	-0.130
-412.384	-81.190	-0.239	-0.080
-411.369	800.000	0.073	-0.214
-410.355	-80.207	-0.276	0.093
-409.340	-200.000	0.019	-0.216
-408.325	108.035	-0.075	-0.090
-407.311	800.000	0.117	-0.357
-406.296	35.404	-0.112	-0.099
-405.282	-52.572	0.121	0.056
-404.267	743.580	-0.060	0.162
-403.252	-164.736	0.167	-0.008
-402.238	11.940	0.220	-0.171
-401.223	-200.000	-0.054	-0.447
-400.209	-188.360	0.137	-0.002
-399.194	-7.720	-0.191	0.130
-398.179	697.700	-0.065	-0.172
-397.165	800.000	0.043	0.165
-396.150	153.641	0.162	-0.224
-395.136	-200.000	-0.006	0.076
-394.121	800.000	0.061	-0.175
-393.106	-200.000	-0.005	0.075
-392.092	800.000	-0.118	0.335
-391.077	-200.000	-0.060	-0.380
-390.063	-32.573	-0.118	-0.066
-389.048	-109.947	0.182	-0.039
-388.033	517.748	-0.098	-0.232
-387.019	566.199	0.041	-0.101
-386.004	-53.670	0.167	-0.077
-384.990	-142.600	-0.120	0.012
-383.975	-200.000	-0.034	-0.313
-382.960	227.256	-0.119	-0.194
-381.946	71.827	-0.095	-0.099
-380.931	-41.344	0.146	-0.076
-379.917	82.518	-0.218	-0.239
-378.902	-200.000	-0.000	0.035
-377.888	-200.000	-0.008	0.239
-376.873	-112.838	-0.087	-0.017
-375.858	-200.000	0.009	-0.214
-374.844	332.903	0.109	-0.213
-373.829	308.106	-0.207	-0.390
-372.815	800.000	-0.116	-0.399
-371.800	-106.049	0.205	0.046
-370.785	119.811	0.183	0.229
-369.771	-200.000	-0.094	0.423
-368.756	16.332	-0.152	0.121
-367.742	-200.000	-0.040	0.189
-366.727	666.238	-0.052	0.137
-365.712	38.152	-0.045	0.040
-364.698	-200.000	-0.030	0.452
-363.683	-133.690	-0.085	0.011
-362.669	800.000	0.033	-0.126
-361.654	297.501	0.049	0.090
-360.639	-51.611	0.047	0.022
-359.625	800.000	0.052	-0.168
-358.610	126.876	-0.176	-0.224
-357.596	-16.260	-0.031	-0.020
-356.581	-25.457	0.175	-0.104
-355.566	373.530	-0.010	0.020
-354.552	219.903	0.177	-0.286
-353.537	480.049	-0.111	0.253
-352.523	-82.766	0.166	-0.054
-351.508	194.873	-0.135	0.206
-350.493	-31.736	-0.103	0.058
-349.479	237.156	-0.011	-0.019
-348.464	800.000	0.062	0.263
-347.450	485.735	-0.084	0.194
-346.435	54.584	-0.337	0.328
-345.420	-31.605	0.274	-0.155
-344.406	-200.000	-0.026	0.284
-343.391	226.944	-0.147	0.241
-342.377	-200.000	-0.042	0.287
-341.362	-200.000	0.017	0.341
-340.348	5.785	0.406	0.302
-339.333	-200.000	0.004	-0.056
-338.318	-200.000	0.032	-0.253
-337.304	44.051	0.155	0.143
-336.289	-73.690	0.254	-0.093
-335.275	192.786	-0.046	-0.069
-334.260	93.790	0.008	0.009
-333.245	102.143	0.192	0.226
-332.231	41.230	0.222	-0.202
-331.216	244.701	-0.203	0.343
-330.202	-200.000	0.013	0.166
-329.187	628.940	0.081	-0.206
-328.172	-200.000	0.002	-0.442
-327.158	280.272	-0.087	0.157
-326.143	61.794	-0.035	-0.035
-325.129	-114.919	0.231	-0.044
-324.114	170.170	-0.191	-0.275
-323.099	-200.000	-0.055	-0.349
-322.085	-61.241	0.363	-0.154
-321.070	-142.142	-0.170	0.017
-320.056	-63.287	0.312	-0.129
-319.041	-99.245	0.153	-0.039
-318.026	15.842	-0.057	-0.045
-317.012	-200.000	0.005	0.031
-315.997	-200.000	0.036	0.200
-314.983	183.302	0.198	0.295
-313.968	-29.279	-0.110	0.063
-312.953	56.548	-0.214	-0.210
-311.939	-200.000	0.005	-0.174
-310.924	-168.712	-0.232	-0.009
-309.910	-173.619	-0.063	0.002
-308.895	41.055	-0.205	0.186
-307.880	-84.515	0.159	0.050
-306.866	-67.190	-0.088	-0.035
-305.851	185.800	-0.098	0.147
-304.837	-200.000	0.017	-0.261
-303.822	4.867	-0.171	0.126
-302.807	-29.292	-0.067	0.038
-301.793	174.462	0.040	0.058
-300.778	-200.000	0.027	-0.259
-299.764	95.265	-0.207	-0.237
-298.749	128.638	-0.065	0.083
-297.735	167.005	0.130	-0.186
-296.720	-125.426	0.268	-0.041
-295.705	-200.000	0.000	0.177
-294.691	-26.285	0.115	0.068
-293.676	102.367	-0.034	0.040
-292.662	-200.000	-0.014	0.151
-291.647	229.605	0.175	0.287
-290.632	-137.843	0.321	0.036
-289.618	137.836	-0.043	0.057
-288.603	-98.108	-0.406	0.105
-287.589	612.677	-0.113	0.284
-286.574	-28.418	0.153	0.088
-285.559	800.000	-0.042	-0.183
-284.545	-200.000	-0.010	0.082
-283.530	50.997	0.048	-0.046
-282.516	-61.789	0.434	-0.183
-281.501	-57.758	-0.194	0.085
-280.486	-60.607	0.101	0.043
-279.472	5.645	0.199	0.147
-278.457	-200.000	-0.009	-0.092
-277.443	-103.465	0.341	-0.081
-276.428	104.339	-0.144	-0.170
-275.413	-57.137	-0.205	0.091
-274.399	-200.000	-0.067	-0.382
-273.384	-122.923	0.201	0.032
-272.370	303.606	0.137	-0.254
-271.355	-200.000	-0.020	0.206
-270.340	194.141	-0.197	0.300
-269.326	-97.568	-0.059	-0.015
-268.311	800.000	-0.080	-0.315
-267.297	535.782	-0.083	0.197
-266.282	158.403	-0.082	0.114
-265.267	-135.830	0.155	0.018
-264.253	13.209	-0.098	0.076
-263.238	800.000	0.033	0.126
-262.224	-137.839	0.190	-0.021
-261.209	-200.000	0.021	-0.224
-260.195	283.647	-0.014	0.026
-259.180	95.163	-0.267	-0.306
-258.165	-112.042	0.082	-0.017
-257.151	87.223	-0.169	0.188
-256.136	-200.000	0.012	0.147
-255.122	47.087	0.183	-0.171
-254.107	-85.364	-0.184	-0.058
-253.092	66.953	0.175	0.179
-252.078	22.096	0.145	0.119
-251.063	-200.000	0.050	0.446
-250.049	-71.085	0.362	-0.136
-249.034	172.243	-0.108	0.156
-248.019	-133.973	-0.206	-0.026
-247.005	800.000	0.041	-0.130
-245.990	800.000	0.024	0.093
-244.976	92.005	-0.259	-0.293
-243.961	-152.139	0.285	-0.021
-242.946	-18.868	0.276	0.173
-241.932	260.205	-0.161	0.280
-240.917	68.210	-0.247	-0.253
-239.903	-200.000	0.047	0.437
-238.888	-103.939	0.051	0.012
-237.873	800.000	0.036	0.159
-236.859	429.036	0.129	-0.280
-235.844	800.000	0.018	-0.075
-234.830	-79.014	0.445	-0.152
-233.815	385.249	-0.068	0.141
-232.800	-24.949	0.351	0.209
-231.786	55.926	-0.077	0.075
-230.771	346.482	-0.017	0.034
-229.757	282.837	0.052	0.093
-228.742	144.089	0.168	0.225
-227.727	-200.000	-0.023	-0.443
-226.713	-2.916	-0.096	-0.067
-225.698	-52.882	0.143	0.066
-224.684	1.759	-0.130	0.094
-223.669	449.384	0.076	0.167
-222.655	-125.319	-0.205	-0.031
-221.640	136.213	0.066	0.086
-220.625	-200.000	0.022	0.134
-219.611	-41.186	-0.095	-0.049
-218.596	-70.699	-0.090	0.034
-217.582	-12.805	-0.062	0.040
-216.567	62.844	-0.173	0.174
-215.552	-96.114	-0.238	-0.063
-214.538	83.531	0.224	0.244
-213.523	304.772	-0.178	-0.332
-212.509	99.386	-0.074	-0.086
-211.494	446.487	0.077	0.171
-210.479	100.761	-0.181	-0.210
-209.465	408.187	-0.026	-0.055
-208.450	-200.000	0.053	-0.280
-207.436	-58.049	-0.155	-0.068
-206.421	309.488	-0.094	-0.175
-205.406	543.027	0.080	0.190
-204.392	26.677	0.085	0.071
-203.377	800.000	0.057	0.172
-202.363	-129.335	-0.099	-0.014
-201.348	-178.041	-0.482	0.011
-200.333	-147.899	-0.138	0.012
-199.319	21.914	0.209	0.170
-198.304	-200.000	0.001	-0.043
-197.290	-31.632	-0.360	-0.203
-196.275	462.030	-0.029	-0.065
-195.260	-114.051	0.261	0.051
-194.246	199.532	0.087	-0.133
-193.231	-200.000	-0.040	-0.179
-192.217	-200.000	-0.014	0.394
-191.202	195.943	0.127	0.194
-190.187	-200.000	0.028	0.231
-189.173	800.000	0.088	-0.351
-188.158	137.539	0.076	0.100
-187.144	33.538	0.203	0.177
-186.129	-89.656	-0.116	-0.034
-185.114	-151.598	-0.258	-0.019
-184.100	464.243	0.094	0.211
-183.085	-200.000	-0.009	0.135
-182.071	-45.661	-0.234	-0.116
-181.056	-114.395	-0.375	-0.072
-180.042	-200.000	-0.014	-0.353
-179.027	-123.675	0.065	-0.010
-178.012	166.229	0.117	0.166
-176.998	-200.000	0.032	-0.237
-175.983	477.036	-0.085	0.192
-174.969	-180.646	-0.439	-0.009
-173.954	-9.290	0.315	-0.210
-172.939	-22.254	-0.147	0.089
-171.925	166.091	0.382	0.541
-170.910	13.089	0.103	0.080
-169.896	421.064	0.138	-0.297
-168.881	176.754	-0.155	-0.225
-167.866	-105.407	-0.043	0.010
-166.852	-116.152	-0.096	-0.018
-165.837	-70.791	-0.203	-0.077
-164.823	40.527	-0.053	0.048
-163.808	-200.000	0.031	0.148
-162.793	-12.369	0.190	-0.124
-161.779	12.919	0.176	0.136
-160.764	-171.488	-0.289	-0.010
-159.750	-55.300	0.157	-0.070
-158.735	274.201	-0.184	-0.325
-157.720	133.832	0.110	0.142
-156.706	257.098	-0.020	0.035
-155.691	-92.338	0.423	0.119
-154.677	61.114	0.108	0.107
-153.662	-200.000	-0.008	0.043
-152.647	-96.276	-0.334	0.089
-151.633	-86.838	-0.290	0.089
-150.618	-77.057	0.117	-0.041
-149.604	-131.341	-0.210	-0.028
-148.589	800.000	0.028	-0.101
-147.574	-200.000	0.025	-0.135
-146.560	80.323	-0.131	-0.141
-145.545	-45.315	0.251	-0.124
-144.531	329.577	-0.062	-0.119
-143.516	-200.000	-0.018	-0.189
-142.502	94.764	0.079	-0.090
-141.487	-83.216	-0.110	-0.035
-140.472	23.564	0.051	0.042
-139.458	116.765	0.034	0.042
-138.443	-94.250	0.017	0.005
-137.429	-200.000	-0.005	-0.107
-136.414	800.000	-0.020	-0.056
-135.399	72.900	-0.206	0.215
-134.385	316.204	0.182	0.343
-133.370	160.824	-0.014	0.020
-132.356	800.000	0.105	0.315
-131.341	800.000	-0.029	-0.104
-130.326	800.000	-0.024	0.080
-129.312	292.565	-0.174	0.316
-128.297	-87.351	-0.333	-0.101
-127.283	-36.523	0.022	0.012
-126.268	268.920	-0.079	-0.139
-125.253	-136.791	-0.240	-0.028
-124.239	78.968	0.021	0.022
-123.224	-75.034	-0.227	0.081
-122.210	800.000	-0.170	0.562
-121.195	800.000	0.056	-0.155
-120.180	800.000	0.005	0.017
-119.166	34.897	0.141	0.123
-118.151	800.000	0.031	-0.112
-117.137	97.036	-0.269	0.308
-116.122	52.381	-0.112	-0.107
-115.107	-38.322	0.245	-0.129
-114.093	456.778	0.083	-0.183
-113.078	-139.726	0.186	0.020
-112.064	-26.821	0.091	-0.053
-111.049	-200.000	-0.002	-0.188
-110.034	-200.000	0.010	0.083
-109.020	-200.000	0.029	0.245
-108.005	97.973	-0.159	-0.183
-106.991	-13.369	0.189	0.122
-105.976	-200.000	0.002	-0.114
-104.962	800.000	-0.013	0.054
-103.947	-47.710	0.170	0.083
-102.932	-1.812	-0.340	0.239
-101.918	131.184	-0.146	0.187
-100.903	90.347	-0.143	-0.160
-99.889	800.000	-0.060	-0.168
-98.874	211.015	-0.112	0.176
-97.859	-109.328	-0.187	-0.040
-96.845	-200.000	0.012	-0.183
-95.830	-143.354	-0.262	-0.025
-94.816	337.178	-0.123	0.239
-93.801	-33.087	0.020	0.011
-92.786	-180.449	-0.178	0.004
-91.772	-99.172	0.275	0.069
-90.757	800.000	-0.091	-0.373
-89.743	-200.000	-0.016	0.075
-88.728	288.509	0.096	0.173
-87.713	-142.674	-0.241	0.023
-86.699	-159.371	0.341	-0.019
-85.684	-53.533	-0.010	-0.005
-84.670	-102.558	0.212	0.051
-83.655	300.592	-0.114	-0.210
-82.640	76.269	-0.158	-0.167
-81.626	-200.000	0.051	-0.289
-80.611	-57.466	-0.122	0.054
-79.597	37.717	-0.215	0.190
-78.582	-17.642	0.165	-0.104
-77.567	-200.000	0.028	-0.166
-76.553	329.285	0.123	0.236
-75.538	535.450	0.023	-0.055
-74.524	-200.000	-0.004	0.107
-73.509	-27.961	0.387	0.223
-72.494	-200.000	0.019	0.129
-71.480	-170.875	0.566	0.019
-70.465	227.305	0.084	0.135
-69.451	-200.000	-0.037	0.559
-68.436	-80.657	0.060	-0.020
-67.422	-134.066	-0.198	0.024
-66.407	-154.231	-0.156	0.011
-65.392	-58.370	-0.253	-0.110
-64.378	-6.265	0.058	0.039
-63.363	4.722	0.408	-0.299
-62.349	-72.314	-0.254	-0.094
-61.334	68.237	-1.132	-1.155
-60.319	35.011	0.241	0.210
-59.305	-200.000	-0.098	-0.777
-58.290	98.456	0.678	0.778
-57.276	800.000	0.435	1.842
-56.261	-200.000	79.090	507.599
-55.246	473.911	1370.049	3077.266
-54.232	141.848	2611.485	3447.291
-53.217	111.041	2259.096	2709.365
-52.203	49.702	1706.690	1601.396
-51.188	42.250	1435.462	1298.811
-50.173	38.870	1390.845	1237.130
-49.159	56.494	1429.150	1383.960
-48.144	61.757	1447.958	1435.675
-47.130	42.657	1409.257	1277.488
-46.115	39.007	1392.269	1239.062
-45.100	38.857	1387.286	1233.632
-44.086	38.610	1385.073	1230.069
-43.071	38.637	1382.726	1228.101
-42.057	38.632	1380.338	1225.901
-41.042	38.666	1378.543	1224.475
-40.027	38.782	1376.900	1223.690
-39.013	38.715	1375.450	1221.931
-37.998	38.599	1373.949	1219.828
-36.984	38.690	1371.750	1218.397
-35.969	38.969	1369.158	1217.774
-34.954	38.957	1367.587	1216.252
-33.940	38.852	1366.580	1214.658
-32.925	38.943	1364.922	1213.701
-31.911	38.857	1363.867	1212.184
-30.896	38.878	1362.054	1210.655
-29.881	38.844	1360.883	1209.355
-28.867	38.893	1359.173	1208.091
-27.852	38.967	1357.734	1207.217
-26.838	38.977	1356.176	1205.850
-25.823	38.837	1354.916	1203.818
-24.809	38.892	1353.447	1202.806
-23.794	38.931	1352.128	1201.824
-22.779	38.823	1350.731	1199.870
-21.765	38.996	1349.190	1199.512
-20.750	38.747	1347.748	1196.665
-19.736	38.834	1346.226	1195.793
-18.721	38.833	1345.072	1194.714
-17.706	38.773	1343.912	1193.271
-16.692	38.756	1343.006	1192.317
-15.677	38.826	1341.821	1191.643
-14.663	38.793	1340.955	1190.628
-13.648	38.710	1339.519	1188.800
-12.633	38.768	1338.277	1188.003
-11.619	38.769	1337.405	1187.188
-10.604	38.760	1336.305	1186.112
-9.590	38.771	1335.284	1185.225
-8.575	38.731	1334.792	1184.499
-7.560	38.661	1333.794	1183.142
-6.546	38.791	1333.050	1183.220
-5.531	38.718	1332.087	1181.881
-4.517	38.679	1331.319	1180.917
-3.502	38.749	1330.186	1180.284
-2.487	38.777	1329.289	1179.611
-1.473	38.916	1325.720	1177.228
-0.458	38.372	1311.318	1161.166
0.556	33.566	1292.389	1122.154
1.571	29.009	1295.670	1097.788
2.586	26.908	1309.858	1097.026
3.600	25.520	1298.153	1078.803
4.615	18.523	1217.663	972.287
5.629	6.647	1131.611	840.552
6.644	0.763	1106.905	791.400
7.659	0.359	1104.055	787.180
8.673	0.201	1103.028	785.558
9.688	0.168	1101.804	784.445
10.702	0.386	1100.111	784.300
11.717	6.328	1108.846	821.542
12.731	15.611	1122.181	880.180
13.746	18.508	1124.664	897.233
14.761	17.259	1121.902	888.429
15.775	16.156	1119.397	880.612
16.790	15.172	1117.245	873.711
17.804	14.409	1115.735	868.476
18.819	13.998	1114.719	865.472
19.834	13.719	1113.346	862.878
20.848	13.453	1112.767	860.967
21.863	13.218	1112.072	859.133
22.877	13.093	1110.884	857.487
23.892	13.013	1110.408	856.630
24.907	13.102	1109.035	855.957
25.921	13.039	1108.830	855.396
26.936	13.193	1107.528	855.115
27.950	13.176	1106.927	854.484
28.965	13.231	1105.441	853.546
29.980	13.362	1103.667	852.775
30.994	13.345	1103.040	852.132
32.009	13.306	1102.184	851.191
33.023	13.276	1100.975	850.029
34.038	13.236	1099.842	848.871
35.053	13.226	1099.355	848.369
36.067	13.198	1098.731	847.669
37.082	13.259	1097.430	846.903
38.096	13.254	1096.850	846.357
39.111	13.255	1095.824	845.493
40.126	13.119	1094.724	843.878
41.140	13.037	1093.661	842.564
42.155	13.083	1092.663	841.954
43.169	12.961	1091.718	840.532
44.184	13.001	1090.865	840.003
45.199	13.128	1089.172	839.274
46.213	13.148	1088.314	838.640
47.228	13.323	1086.921	838.377
48.242	13.109	1086.535	836.921
49.257	13.071	1085.206	835.629
50.271	13.233	1084.117	835.538
51.286	13.184	1083.564	834.790
52.301	13.070	1082.877	833.610
53.315	13.112	1081.340	832.564
54.330	13.137	1080.369	831.870
55.344	13.139	1079.168	830.882
56.359	13.012	1078.729	829.830
57.374	13.079	1077.773	829.359
58.388	13.088	1076.348	828.237
59.403	13.014	1075.731	827.318
60.417	12.983	1075.317	826.771
61.432	12.990	1074.463	826.076
62.447	12.947	1073.520	825.059
63.461	12.917	1072.808	824.290
64.476	13.070	1071.321	823.838
65.490	13.043	1070.707	823.159
66.505	13.061	1069.679	822.384
67.520	12.985	1069.286	821.630
68.534	13.035	1068.645	821.318
69.549	13.007	1068.004	820.614
70.563	12.965	1067.254	819.756
71.578	12.937	1066.299	818.806
72.593	12.881	1065.624	817.943
73.607	13.028	1064.962	818.086
74.622	12.967	1064.204	817.132
75.636	12.937	1063.517	816.382
76.651	12.913	1062.852	815.684
77.666	12.993	1062.365	815.632
78.680	12.910	1061.961	814.837
79.695	13.066	1060.438	814.368
80.709	12.885	1060.494	813.445
81.724	13.072	1059.250	813.339
82.739	13.071	1058.863	812.965
83.753	13.157	1057.876	812.560
84.768	13.257	1056.964	812.281
85.782	13.342	1055.928	811.829
86.797	13.248	1054.945	810.543
87.812	13.094	1054.357	809.260
88.826	13.173	1053.362	808.815
89.841	13.173	1052.051	807.735
90.855	13.265	1051.392	807.606
91.870	13.225	1050.483	806.642
92.884	13.201	1049.692	805.847
93.899	13.256	1048.634	805.231
94.914	13.308	1047.932	804.872
95.928	13.377	1046.801	804.272
96.943	13.227	1046.449	803.197
97.957	13.228	1045.143	802.131
98.972	13.323	1044.178	801.781
99.987	13.392	1043.002	801.139
101.001	13.278	1042.412	800.062
102.016	13.269	1041.640	799.357
103.030	13.276	1040.913	798.763
104.045	13.202	1040.325	797.885
105.060	13.265	1038.867	796.998
106.074	13.274	1037.974	796.288
107.089	13.059	1036.993	794.430
108.103	13.172	1036.168	794.271
109.118	13.155	1035.029	793.245
110.133	13.056	1034.488	792.283
111.147	13.085	1033.261	791.413
112.162	13.147	1032.244	790.862
113.176	13.270	1031.510	790.820
114.191	13.192	1031.080	790.047
115.206	13.223	1030.127	789.394
116.220	13.317	1028.943	788.863
117.235	13.189	1028.230	787.638
118.249	13.240	1027.692	787.399
119.264	13.145	1026.709	786.124
120.279	13.208	1025.826	785.677
121.293	13.035	1025.008	784.160
122.308	13.031	1024.367	783.583
123.322	13.148	1022.738	782.822
124.337	13.097	1021.704	781.718
125.352	13.223	1020.927	781.652
126.366	13.179	1019.663	780.408
127.381	13.005	1018.787	778.846
128.395	13.186	1018.000	779.026
129.410	13.257	1016.835	778.400
130.424	13.305	1016.130	778.019
131.439	13.277	1015.146	777.064
132.454	13.234	1014.460	776.272
133.468	13.271	1013.572	775.697
134.483	13.320	1012.507	775.042
135.497	13.300	1011.976	774.471
136.512	13.247	1011.051	773.448
137.527	13.284	1010.151	772.866
138.541	13.307	1009.187	772.166
139.556	13.305	1008.664	771.687
140.570	13.265	1008.213	771.088
141.585	13.321	1007.590	770.805
142.600	13.421	1005.925	769.926
143.614	13.428	1004.884	769.097
144.629	13.393	1004.588	768.639
145.643	13.453	1003.953	768.362
146.658	13.327	1002.377	766.506
147.673	13.396	1001.493	766.078
148.687	13.339	1000.763	765.189
149.702	13.249	999.931	764.068
150.716	13.347	998.964	763.716
151.731	13.368	998.094	763.082
152.746	13.364	997.348	762.423
153.760	13.290	996.897	761.673
154.775	13.398	996.021	761.430
155.789	13.528	995.130	761.281
156.804	13.557	994.166	760.611
157.819	13.489	993.881	760.011
158.833	13.579	993.163	759.808
159.848	13.453	992.556	758.697
160.862	13.611	990.667	757.909
161.877	13.451	990.144	756.712
162.892	13.435	989.251	755.887
163.906	13.477	988.050	755.095
164.921	13.442	987.588	754.515
165.935	13.556	986.648	754.251
166.950	13.405	985.961	752.973
167.964	13.453	984.937	752.344
168.979	13.398	983.785	751.146
169.994	13.484	983.173	751.002
171.008	13.486	982.622	750.523
172.023	13.495	981.814	749.884
173.037	13.806	980.592	750.287
174.052	13.656	979.786	748.928
175.067	13.625	979.183	748.259
176.081	13.581	978.600	747.549
177.096	13.469	978.475	746.880
178.110	13.492	977.691	746.323
179.125	13.540	976.929	745.892
180.140	13.620	976.423	745.799
181.154	13.752	975.489	745.611
182.169	13.566	975.521	744.736
183.183	13.699	974.927	744.811
184.198	13.726	973.881	744.067
185.213	13.730	972.995	743.342
186.227	13.783	972.492	743.131
187.242	13.781	971.851	742.565
188.256	13.776	971.677	742.345
189.271	13.740	970.478	741.204
190.286	13.733	969.324	740.226
191.300	13.557	969.220	739.296
192.315	13.639	968.188	738.807
193.329	13.660	967.592	738.382
194.344	13.674	967.326	738.177
195.359	13.673	966.186	737.235
196.373	13.844	965.319	737.267
197.388	13.814	965.493	737.200
198.402	14.014	964.524	737.286
199.417	13.854	963.639	735.833
200.432	14.018	963.157	736.126
201.446	14.162	962.727	736.371
202.461	14.080	962.338	735.646
203.475	14.044	961.606	734.861
204.490	14.143	960.842	734.650
205.504	13.976	959.751	733.012
206.519	13.959	959.162	732.425
207.534	14.000	958.443	731.992
208.548	14.028	957.558	731.372
209.563	13.990	956.982	730.703
210.577	13.893	956.707	730.002
211.592	14.160	955.688	730.332
212.607	14.153	954.661	729.449
213.621	14.084	954.166	728.706
214.636	14.126	953.166	728.060
215.650	14.186	952.730	727.926
216.665	14.187	951.874	727.214
217.680	14.293	951.288	727.161
218.694	14.344	950.582	726.780
219.709	14.099	950.085	725.268
220.723	14.182	949.406	725.046
221.738	14.187	949.010	724.703
222.753	14.246	948.034	724.151
223.767	14.201	947.610	723.566
224.782	14.361	946.804	723.581
225.796	14.366	946.361	723.200
226.811	14.378	945.679	722.671
227.826	14.211	945.169	721.492
228.840	14.320	943.754	720.820
229.855	14.373	943.068	720.459
230.869	14.332	942.331	719.655
231.884	14.273	941.854	718.972
232.899	14.314	940.819	718.298
233.913	14.152	940.065	716.961
234.928	14.194	939.776	716.855
235.942	14.281	939.224	716.746
236.957	14.381	938.310	716.415
237.972	14.399	937.876	716.098
238.986	14.346	937.287	715.358
240.001	14.441	936.456	715.067
241.015	14.422	936.041	714.605
242.030	14.416	935.341	713.983
243.045	14.412	934.494	713.255
244.059	14.449	934.237	713.155
245.074	14.428	933.556	712.482
246.088	14.626	932.373	712.363
247.103	14.504	931.941	711.448
248.117	14.533	931.542	711.202
249.132	14.602	930.824	710.888
250.147	14.793	930.002	711.010
251.161	14.747	929.781	710.582
252.176	14.871	928.797	710.294
253.190	14.842	928.419	709.820
254.205	14.770	927.373	708.650
255.220	14.816	926.883	708.410
256.234	14.790	926.000	707.561
257.249	14.878	925.241	707.292
258.263	14.802	924.449	706.300
259.278	14.900	923.815	706.167
260.293	14.948	923.352	705.955
261.307	14.939	922.903	705.510
262.322	14.910	922.165	704.763
263.336	15.015	921.239	704.434
264.351	14.936	920.213	703.254
265.366	15.022	919.799	703.238
266.380	14.958	919.783	702.896
267.395	15.028	918.629	702.244
268.409	14.983	917.637	701.234
269.424	15.201	916.652	701.332
270.439	15.136	916.248	700.688
271.453	14.982	915.717	699.578
272.468	15.092	915.183	699.567
273.482	14.962	914.747	698.631
274.497	15.012	913.883	698.117
275.512	15.133	913.351	698.154
276.526	15.131	912.836	697.691
277.541	15.057	912.360	696.957
278.555	15.094	912.049	696.810
279.570	15.108	911.183	696.143
280.585	15.261	909.709	695.591
281.599	15.291	909.278	695.324
282.614	15.231	908.667	694.547
283.628	15.252	908.070	694.118
284.643	15.233	907.296	693.384
285.657	15.167	906.990	692.818
286.672	15.260	906.239	692.566
287.687	15.303	905.452	692.083
288.701	15.301	904.849	691.553
289.716	15.353	904.126	691.151
290.730	15.306	904.121	690.892
291.745	15.316	903.471	690.376
292.760	15.429	902.552	690.079
293.774	15.392	902.137	689.547
294.789	15.380	901.054	688.610
295.803	15.438	900.234	688.161
296.818	15.488	899.564	687.793
297.833	15.401	899.116	687.032
298.847	15.503	898.309	686.773
299.862	15.473	897.719	686.136
300.876	15.561	897.163	686.010
301.891	15.515	896.557	685.300
302.906	15.481	896.240	684.856
303.920	15.673	895.466	684.989
304.935	15.721	894.734	684.561
305.949	15.706	894.021	683.896
306.964	15.688	893.416	683.299
307.979	15.738	892.959	683.092
308.993	15.737	892.464	682.648
310.008	15.738	891.755	682.051
311.022	15.694	891.144	681.344
312.037	15.682	890.597	680.817
313.052	15.690	889.821	680.198
314.066	15.556	889.503	679.349
315.081	15.724	888.531	679.226
316.095	15.752	888.286	679.091
317.110	15.576	887.639	677.826
318.125	15.758	886.967	677.987
319.139	15.735	886.390	677.394
320.154	15.737	886.030	677.069
321.168	15.711	885.400	676.421
322.183	15.721	884.558	675.761
323.197	15.837	884.234	675.918
324.212	15.852	883.771	675.565
325.227	15.902	882.978	675.100
326.241	15.816	882.591	674.397
327.256	15.896	881.436	673.775
328.270	15.895	881.467	673.737
329.285	15.737	880.771	672.514
330.300	15.729	880.465	672.189
331.314	15.726	879.924	671.705
332.329	15.860	879.405	671.783
333.343	16.031	878.633	671.815
334.358	15.857	878.221	670.748
335.373	15.905	878.093	670.782
336.387	15.910	877.912	670.603
337.402	15.957	877.502	670.417
338.416	16.142	876.591	670.399
339.431	16.087	876.276	669.881
340.446	16.183	876.111	670.075
341.460	16.077	875.955	669.477
342.475	16.181	874.974	669.080
343.489	16.068	874.815	668.450
344.504	16.308	874.233	668.899
345.519	16.195	874.002	668.213
346.533	16.490	873.090	668.623
347.548	16.093	872.842	666.808
348.562	16.216	872.105	666.668
349.577	16.132	871.563	665.866
350.592	16.314	870.782	665.925
351.606	16.051	870.201	664.387
352.621	16.267	869.567	664.696
353.635	16.153	868.952	663.719
354.650	16.216	868.280	663.393
355.665	16.232	867.846	663.066
356.679	16.302	867.011	662.645
357.694	16.257	866.592	662.090
358.708	16.255	865.788	661.406
359.723	16.270	864.973	660.786
360.738	16.356	864.096	660.392
361.752	16.438	863.570	660.253
362.767	16.517	862.936	660.017
363.781	16.451	862.626	659.466
364.796	16.537	862.250	659.456
365.810	16.505	861.797	658.927
366.825	16.591	861.454	658.938
367.840	16.584	860.963	658.479
368.854	16.585	860.116	657.778
369.869	16.519	859.850	657.257
370.883	16.509	859.636	656.998
371.898	16.562	858.992	656.653
372.913	16.676	858.971	657.022
373.927	16.734	858.193	656.594
374.942	16.746	857.309	655.905
375.956	16.731	857.149	655.665
376.971	16.799	856.765	655.579
377.986	16.768	856.290	655.035
379.000	16.820	855.749	654.766
380.015	16.885	855.198	654.538
381.029	16.737	854.887	653.671
382.044	16.726	854.287	653.112
383.059	16.903	853.396	653.054
384.073	16.908	852.786	652.547
385.088	16.848	852.207	651.815
386.102	16.907	851.552	651.484
387.117	17.012	850.745	651.213
388.132	16.833	850.661	650.406
389.146	16.768	850.185	649.735
390.161	16.889	849.578	649.677
391.175	16.867	848.938	649.044
392.190	16.979	848.346	648.965
393.205	16.978	847.590	648.325
394.219	16.909	847.984	648.305
395.234	16.828	847.449	647.527
396.248	16.999	846.729	647.572
397.263	16.959	846.420	647.128
398.278	16.932	845.770	646.470
399.292	16.884	845.551	646.062
400.307	16.852	845.204	645.617
401.321	17.056	844.364	645.694
402.336	17.059	843.884	645.285
403.350	17.181	842.780	644.844
404.365	17.137	842.887	644.701
405.380	17.249	842.088	644.460
406.394	17.062	842.055	643.666
407.409	17.198	841.639	643.809
408.423	17.294	841.091	643.694
409.438	17.230	840.837	643.202
410.453	17.233	840.265	642.717
411.467	17.111	840.161	642.121
412.482	17.298	839.342	642.146
413.496	17.372	838.821	641.967
414.511	17.422	838.522	641.871
415.526	17.301	838.043	640.990
416.540	17.344	837.867	640.963
417.555	17.468	836.884	640.621
418.569	17.365	836.770	640.087
419.584	17.380	836.327	639.749
420.599	17.505	835.538	639.558
421.613	95.090	1275.867	1399.257
422.628	82.197	1340.042	1399.392
