DTS Sentinel unit serial number:	SN413079Multiplexer serial number:	ORYXHardware model number:	OX4-SRSoftware version number:	ORYX F/W v4.00 Oryx Data Collector v3.7.2.0data status	okinstallation	princeton_trtdifferential loss correction	single-endedforward channel	channel 1reverse channel	N/Adate	2019/09/12time	21:50:35forward acquisition time	60.00reverse acquisition time	0.00gamma	496.2192k internal	0.2326k external	0.2326temperature offset calibration	1.0150default loss term (dB/km)	0.3790temperature slope calibration	1.0000multiplexer offset coefficient	1.0000multiplexer slope coefficient	1.0000fibre end	0.00T internal ref (°C)	30.19T ext. ref 1 (°C)	3.73T ext. ref 2 (°C)	24.78length (m)	temperature (°C)	Stokes	anti-Stokes-747.200	-50.416	0.022	0.011
-746.185	-29.606	0.278	0.160
-745.171	800.000	0.026	0.083
-744.156	-200.000	-0.006	0.342
-743.142	12.243	-0.191	-0.148
-742.127	-200.000	-0.054	-0.451
-741.112	-200.000	-0.040	-0.287
-740.098	800.000	0.046	0.191
-739.083	-200.000	0.000	-0.025
-738.069	391.973	-0.201	0.421
-737.054	427.624	0.092	-0.200
-736.039	800.000	-0.080	0.252
-735.025	-104.125	0.228	-0.053
-734.010	-61.911	-0.383	-0.162
-732.996	23.232	-0.277	-0.229
-731.981	800.000	-0.015	0.060
-730.966	-112.018	0.145	0.030
-729.952	162.552	-0.106	0.149
-728.937	-26.906	-0.389	-0.229
-727.923	-32.814	-0.112	-0.063
-726.908	68.905	-0.325	0.336
-725.894	-3.101	-0.256	0.180
-724.879	-200.000	-0.002	-0.294
-723.864	226.976	0.138	-0.226
-722.850	-161.718	0.335	0.017
-721.835	-40.568	-0.217	-0.114
-720.821	16.660	0.227	-0.181
-719.806	386.455	-0.173	0.360
-718.791	87.806	0.086	-0.096
-717.777	-16.308	-0.524	-0.335
-716.762	-83.229	0.103	0.033
-715.748	-29.923	0.146	0.084
-714.733	53.468	-0.329	-0.318
-713.718	218.885	-0.105	-0.169
-712.704	-89.981	-0.326	0.096
-711.689	226.276	-0.180	-0.294
-710.675	-111.079	-0.143	0.030
-709.660	-108.372	0.167	-0.036
-708.645	180.358	0.338	-0.499
-707.631	378.330	0.091	0.188
-706.616	-147.797	0.234	-0.020
-705.602	-143.828	0.492	-0.047
-704.587	-84.463	-0.333	0.106
-703.572	190.244	-0.187	0.282
-702.558	800.000	0.004	-0.013
-701.543	-55.032	0.289	-0.131
-700.529	20.920	-0.195	-0.159
-699.514	493.460	-0.106	0.244
-698.499	-83.380	-0.276	0.089
-697.485	-100.579	0.166	0.041
-696.470	241.136	-0.016	0.028
-695.456	125.250	-0.103	0.131
-694.441	-62.894	-0.196	-0.082
-693.426	-100.877	-0.251	0.062
-692.412	221.031	0.117	0.190
-691.397	188.556	-0.190	-0.287
-690.383	125.469	-0.256	-0.325
-689.368	-35.342	-0.137	0.075
-688.354	180.060	-0.235	-0.346
-687.339	-200.000	0.025	0.208
-686.324	176.662	0.041	-0.059
-685.310	-113.469	0.434	0.086
-684.295	-141.887	-0.108	0.011
-683.281	-99.165	-0.133	0.034
-682.266	-18.044	0.233	0.147
-681.251	197.466	-0.148	-0.227
-680.237	294.445	0.038	-0.071
-679.222	-4.237	-0.067	0.046
-678.208	-92.281	-0.182	0.052
-677.193	-200.000	-0.053	-0.264
-676.178	448.330	0.114	0.254
-675.164	489.619	0.045	-0.103
-674.149	54.307	0.194	0.188
-673.135	-165.956	0.235	-0.010
-672.120	-65.320	-0.297	0.120
-671.105	28.143	-0.315	0.267
-670.091	-200.000	-0.009	-0.227
-669.076	38.927	-0.120	-0.108
-668.062	-59.082	0.077	-0.033
-667.047	131.596	0.141	-0.183
-666.032	76.300	0.095	-0.101
-665.018	-27.966	-0.463	-0.270
-664.003	-200.000	0.030	-0.151
-662.989	-92.405	-0.249	0.070
-661.974	-200.000	0.032	-0.186
-660.959	-178.640	-0.089	0.002
-659.945	277.645	-0.084	-0.151
-658.930	-200.000	0.018	0.241
-657.916	34.787	-0.078	0.069
-656.901	257.109	0.106	0.184
-655.886	-38.849	-0.184	-0.098
-654.872	-73.270	0.027	-0.010
-653.857	68.382	-0.198	-0.204
-652.843	-25.727	-0.130	-0.077
-651.828	-200.000	-0.008	-0.048
-650.814	20.891	0.167	0.136
-649.799	439.595	-0.050	0.110
-648.784	157.090	-0.123	0.171
-647.770	-200.000	0.010	0.080
-646.755	-200.000	0.122	0.550
-645.741	747.682	0.083	-0.226
-644.726	-176.881	0.151	0.004
-643.711	305.442	0.077	0.143
-642.697	-114.357	0.500	0.097
-641.682	-200.000	0.004	-0.041
-640.668	-57.545	0.292	-0.129
-639.653	-200.000	-0.030	-0.181
-638.638	160.720	0.130	-0.182
-637.624	-200.000	-0.015	-0.092
-636.609	-38.832	-0.287	-0.152
-635.595	-194.728	0.134	0.001
-634.580	-200.000	0.045	-0.335
-633.565	-62.635	0.309	0.129
-632.551	-28.303	-0.156	-0.091
-631.536	800.000	-0.040	0.155
-630.522	-200.000	0.007	0.165
-629.507	231.771	-0.075	-0.123
-628.492	-143.610	0.256	0.024
-627.478	-200.000	-0.010	-0.169
-626.463	172.826	0.132	0.191
-625.449	41.516	0.048	0.043
-624.434	800.000	0.078	0.283
-623.419	73.889	0.139	-0.147
-622.405	799.253	0.032	-0.088
-621.390	-137.155	0.112	0.013
-620.376	-107.892	0.156	0.034
-619.361	31.822	-0.128	-0.110
-618.346	-111.541	0.171	0.035
-617.332	-16.245	-0.108	0.069
-616.317	800.000	0.098	0.399
-615.303	-107.523	-0.340	-0.075
-614.288	88.211	0.175	-0.195
-613.273	31.906	-0.125	-0.108
-612.259	64.465	0.137	-0.138
-611.244	-23.009	-0.336	0.203
-610.230	210.955	0.161	-0.254
-609.215	241.302	0.152	0.254
-608.201	201.519	0.043	0.066
-607.186	-30.653	-0.330	-0.188
-606.171	-43.696	-0.243	0.123
-605.157	-86.714	0.123	-0.038
-604.142	800.000	-0.082	0.228
-603.128	-10.588	0.248	-0.165
-602.113	-87.990	-0.366	0.110
-601.098	107.267	-0.067	-0.080
-600.084	-200.000	-0.053	0.285
-599.069	-33.709	-0.274	0.152
-598.055	-200.000	0.047	0.372
-597.040	-124.800	0.450	-0.070
-596.025	800.000	-0.031	-0.092
-595.011	-72.589	-0.469	-0.174
-593.996	75.564	-0.017	0.018
-592.982	-95.526	0.185	0.050
-591.967	-55.823	-0.174	-0.078
-590.952	258.017	0.057	-0.098
-589.938	104.421	0.022	0.026
-588.923	435.108	-0.083	0.181
-587.909	-96.807	0.303	-0.080
-586.894	-28.374	-0.305	0.176
-585.879	-108.458	0.405	0.087
-584.865	-182.322	-0.192	0.004
-583.850	-24.757	-0.625	-0.372
-582.836	-200.000	-0.060	0.357
-581.821	129.738	0.099	-0.127
-580.806	-150.817	0.304	-0.023
-579.792	-191.167	-0.160	-0.002
-578.777	800.000	-0.030	-0.121
-577.763	-200.000	-0.001	0.016
-576.748	293.845	-0.097	-0.177
-575.733	-70.708	-0.345	0.130
-574.719	-169.919	0.240	0.009
-573.704	800.000	-0.087	0.332
-572.690	-22.214	0.029	-0.018
-571.675	-154.282	-0.384	0.026
-570.661	758.752	-0.032	-0.088
-569.646	16.534	0.350	0.277
-568.631	-81.173	-0.159	0.053
-567.617	-77.969	-0.273	-0.094
-566.602	134.096	-0.029	0.037
-565.588	-66.758	0.134	-0.053
-564.573	38.585	0.163	-0.146
-563.558	-123.876	-0.114	0.018
-562.544	59.064	0.114	0.112
-561.529	147.139	0.171	-0.230
-560.515	-33.094	0.107	-0.059
-559.500	13.470	-0.248	0.192
-558.485	-200.000	0.008	0.114
-557.471	214.930	-0.071	0.113
-556.456	-200.000	-0.016	0.172
-555.442	42.652	-0.195	-0.178
-554.427	14.907	0.230	0.180
-553.412	800.000	-0.061	0.188
-552.398	431.733	-0.151	-0.327
-551.383	-129.469	0.169	-0.023
-550.369	-88.784	-0.278	-0.083
-549.354	-200.000	-0.005	0.129
-548.339	-169.439	-0.328	-0.012
-547.325	-36.603	0.185	-0.100
-546.310	-200.000	-0.035	-0.364
-545.296	-165.403	0.241	-0.011
-544.281	-158.398	0.555	0.032
-543.266	800.000	-0.041	-0.125
-542.252	65.865	-0.126	0.128
-541.237	-200.000	0.020	-0.132
-540.223	-200.000	-0.001	-0.346
-539.208	37.573	-0.281	0.250
-538.193	-200.000	0.039	-0.400
-537.179	69.724	-0.256	-0.264
-536.164	75.015	0.311	-0.328
-535.150	-118.636	-0.425	-0.075
-534.135	-18.637	-0.061	0.038
-533.121	123.065	-0.125	-0.157
-532.106	469.319	-0.023	0.051
-531.091	122.338	0.195	-0.244
-530.077	-87.399	0.163	-0.049
-529.062	711.928	-0.132	0.351
-528.048	0.524	0.119	-0.085
-527.033	-0.702	0.123	-0.087
-526.018	244.089	-0.123	0.207
-525.004	116.664	-0.181	-0.222
-523.989	-200.000	-0.003	0.227
-522.975	-14.680	0.289	0.186
-521.960	159.617	0.155	0.216
-520.945	800.000	0.059	-0.165
-519.931	-33.506	-0.515	-0.284
-518.916	-111.137	-0.083	-0.017
-517.902	-200.000	-0.020	-0.138
-516.887	161.322	0.177	0.248
-515.872	-101.384	-0.303	0.074
-514.858	452.969	0.160	-0.353
-513.843	19.480	-0.242	-0.195
-512.829	6.892	0.164	-0.122
-511.814	361.796	0.105	-0.210
-510.799	-200.000	-0.030	0.167
-509.785	634.268	-0.086	-0.218
-508.770	538.660	0.146	0.348
-507.756	-62.279	0.060	-0.025
-506.741	-200.000	-0.001	-0.092
-505.726	116.956	0.223	-0.274
-504.712	-49.683	-0.171	-0.081
-503.697	9.593	-0.039	-0.030
-502.683	-200.000	-0.048	0.293
-501.668	48.370	0.205	0.192
-500.653	660.786	0.096	-0.247
-499.639	-200.000	0.021	-0.435
-498.624	-9.660	0.126	-0.084
-497.610	-200.000	-0.008	0.053
-496.595	-150.817	-0.112	-0.008
-495.581	-200.000	0.002	0.036
-494.566	48.571	-0.191	0.179
-493.551	-68.909	0.106	0.041
-492.537	-188.066	-0.311	0.004
-491.522	-69.453	-0.124	-0.047
-490.508	564.552	-0.045	-0.109
-489.493	614.157	0.066	-0.165
-488.478	64.007	-0.170	-0.171
-487.464	70.642	-0.121	-0.125
-486.449	800.000	-0.070	-0.270
-485.435	2.188	-0.301	0.217
-484.420	-62.185	-0.124	-0.052
-483.405	5.186	0.006	0.005
-482.391	-112.673	-0.042	0.008
-481.376	165.691	-0.104	-0.147
-480.362	-36.520	-0.321	-0.172
-479.347	-69.744	0.064	-0.024
-478.332	280.995	-0.081	-0.144
-477.318	173.516	0.075	0.108
-476.303	148.876	0.396	0.534
-475.289	800.000	-0.079	0.252
-474.274	800.000	-0.093	0.268
-473.259	-30.596	0.085	0.048
-472.245	-200.000	0.017	0.164
-471.230	800.000	-0.063	-0.176
-470.216	117.737	-0.037	-0.045
-469.201	800.000	0.079	-0.272
-468.186	-124.611	0.257	-0.040
-467.172	-200.000	0.016	-0.158
-466.157	-138.076	-0.333	-0.037
-465.143	-200.000	-0.006	0.159
-464.128	65.471	0.167	0.169
-463.113	-51.502	-0.329	-0.153
-462.099	9.861	0.394	-0.298
-461.084	-132.341	0.104	0.013
-460.070	-47.367	-0.172	-0.084
-459.055	-200.000	-0.061	0.443
-458.040	800.000	-0.026	0.098
-457.026	271.997	0.053	0.092
-456.011	-47.197	0.158	-0.077
-454.997	29.963	-0.135	-0.114
-453.982	17.876	-0.171	-0.136
-452.968	-59.919	0.185	0.079
-451.953	-200.000	0.040	0.404
-450.938	-102.683	-0.275	0.065
-449.924	-200.000	-0.029	-0.386
-448.909	354.484	0.085	0.168
-447.895	800.000	0.096	0.316
-446.880	-45.336	-0.098	-0.049
-445.865	74.405	0.186	0.195
-444.851	149.047	-0.186	0.251
-443.836	195.366	-0.029	-0.044
-442.822	-51.684	0.218	-0.101
-441.807	242.821	0.092	-0.153
-440.792	149.375	-0.088	-0.118
-439.778	-16.920	-0.202	0.127
-438.763	-130.055	-0.234	-0.032
-437.749	13.235	-0.146	-0.113
-436.734	-76.507	0.231	-0.081
-435.719	-157.475	-0.414	0.025
-434.705	-40.709	-0.420	-0.217
-433.690	-124.492	0.070	-0.011
-432.676	800.000	0.057	0.204
-431.661	-2.822	0.186	0.129
-430.646	138.154	-0.127	0.165
-429.632	-52.698	0.214	0.098
-428.617	126.202	0.125	-0.158
-427.603	800.000	0.044	-0.176
-426.588	-72.042	-0.123	-0.046
-425.573	800.000	-0.062	0.173
-424.559	441.355	0.153	-0.334
-423.544	-86.663	-0.162	-0.049
-422.530	-9.905	-0.071	-0.047
-421.515	589.519	0.059	-0.146
-420.500	-177.523	0.127	-0.003
-419.486	-83.727	0.215	0.068
-418.471	-52.245	0.267	0.123
-417.457	-177.696	-0.264	0.006
-416.442	107.349	-0.211	0.250
-415.428	-200.000	0.062	0.442
-414.413	116.017	-0.302	0.368
-413.398	800.000	0.021	0.068
-412.384	276.668	0.089	0.158
-411.369	-73.480	0.188	-0.068
-410.355	-179.823	0.325	-0.007
-409.340	228.394	-0.197	0.320
-408.325	-88.717	-0.125	0.037
-407.311	800.000	0.032	-0.133
-406.296	-3.615	0.005	0.004
-405.282	94.107	-0.032	-0.036
-404.267	-74.714	0.488	0.175
-403.252	588.138	0.104	0.256
-402.238	-200.000	0.002	0.186
-401.223	354.973	-0.118	0.233
-400.209	177.265	0.135	0.196
-399.194	-155.449	-0.196	-0.013
-398.179	41.533	0.116	-0.104
-397.165	50.161	-0.226	-0.213
-396.150	-7.191	-0.129	-0.087
-395.136	-105.862	0.308	-0.069
-394.121	322.255	-0.081	0.153
-393.106	225.461	-0.149	0.240
-392.092	-200.000	-0.059	0.271
-391.077	800.000	0.086	-0.335
-390.063	745.113	-0.093	0.249
-389.048	95.365	0.212	-0.240
-388.033	305.963	0.170	-0.315
-387.019	-200.000	-0.000	-0.145
-386.004	-110.734	0.230	0.047
-384.990	185.862	-0.117	0.172
-383.975	-101.859	0.125	0.030
-382.960	109.027	0.063	-0.075
-381.946	126.619	0.071	-0.090
-380.931	481.001	-0.104	0.234
-379.917	-76.894	-0.079	-0.028
-378.902	-107.403	0.200	0.044
-377.888	178.791	0.029	-0.042
-376.873	-200.000	0.058	-0.346
-375.858	478.051	0.168	-0.379
-374.844	-125.772	0.267	-0.040
-373.829	-200.000	0.035	0.192
-372.815	-183.194	-0.128	-0.002
-371.800	-59.495	0.491	-0.210
-370.785	31.579	0.054	0.046
-369.771	-200.000	-0.015	-0.130
-368.756	61.082	0.169	0.167
-367.742	595.294	0.108	-0.265
-366.727	591.672	-0.073	-0.179
-365.712	141.974	0.145	-0.191
-364.698	175.732	0.239	-0.345
-363.683	114.275	0.155	-0.187
-362.669	25.517	-0.288	0.238
-361.654	-200.000	-0.007	0.086
-360.639	-200.000	0.027	0.315
-359.625	800.000	0.074	-0.257
-358.610	-200.000	-0.006	-0.256
-357.596	-43.305	0.454	0.228
-356.581	31.738	0.130	-0.111
-355.566	128.874	-0.103	-0.130
-354.552	108.398	-0.234	0.277
-353.537	788.904	0.021	-0.058
-352.523	-95.181	-0.086	0.023
-351.508	-138.886	0.314	-0.034
-350.493	565.210	0.101	0.244
-349.479	-200.000	0.020	-0.202
-348.464	-126.791	0.030	-0.004
-347.450	-83.232	0.375	0.120
-346.435	-200.000	0.025	0.218
-345.420	51.569	0.069	0.065
-344.406	64.815	0.425	-0.426
-343.391	-200.000	0.031	-0.287
-342.377	800.000	-0.051	-0.184
-341.362	-10.519	0.252	-0.166
-340.348	487.571	0.080	-0.180
-339.333	238.848	0.021	-0.034
-338.318	-178.114	0.125	0.003
-337.304	-200.000	0.003	0.238
-336.289	-133.679	0.155	-0.019
-335.275	-200.000	0.018	0.209
-334.260	-3.797	-0.154	-0.106
-333.245	-135.312	-0.252	0.030
-332.231	-200.000	0.003	0.060
-331.216	-200.000	-0.001	-0.017
-330.202	-44.336	-0.491	0.244
-329.187	800.000	-0.017	-0.058
-328.172	-73.524	-0.259	-0.094
-327.158	-200.000	0.001	-0.191
-326.143	-200.000	-0.043	-0.285
-325.129	-73.729	-0.171	-0.062
-324.114	-6.588	-0.391	-0.265
-323.099	-84.985	0.253	-0.079
-322.085	-149.537	-0.107	0.008
-321.070	97.186	0.136	0.155
-320.056	800.000	-0.080	-0.243
-319.041	-140.334	-0.347	0.036
-318.026	-21.286	-0.155	0.094
-317.012	-200.000	0.035	0.387
-315.997	189.466	0.192	0.285
-314.983	-1.222	0.288	-0.202
-313.968	-58.686	0.204	-0.088
-312.953	-45.475	-0.336	0.165
-311.939	-58.886	0.317	-0.136
-310.924	-200.000	0.016	-0.143
-309.910	-36.416	0.146	-0.078
-308.895	42.942	-0.278	-0.252
-307.880	20.531	-0.353	-0.283
-306.866	89.875	0.004	0.004
-305.851	800.000	-0.037	-0.151
-304.837	-200.000	0.014	-0.059
-303.822	-32.147	-0.224	-0.124
-302.807	45.219	0.201	-0.184
-301.793	-43.862	0.208	0.104
-300.778	264.973	-0.154	0.266
-299.764	-32.555	0.187	0.103
-298.749	800.000	0.036	0.115
-297.735	272.027	-0.065	-0.114
-296.720	-175.952	-0.180	-0.005
-295.705	-134.382	0.060	0.007
-294.691	44.397	-0.059	-0.054
-293.676	58.914	-0.047	-0.045
-292.662	81.191	0.050	-0.053
-291.647	-108.950	0.048	0.010
-290.632	-200.000	0.018	-0.231
-289.618	-49.502	0.167	-0.079
-288.603	-41.240	-0.034	-0.017
-287.589	-200.000	0.164	0.000
-286.574	-200.000	-0.026	-0.332
-285.559	-39.863	0.340	0.176
-284.545	204.967	-0.039	-0.060
-283.530	-76.665	-0.262	0.091
-282.516	800.000	-0.136	0.532
-281.501	-24.487	0.276	-0.163
-280.486	573.707	0.079	0.192
-279.472	5.175	0.184	0.134
-278.457	-56.082	0.187	0.083
-277.443	-73.425	0.293	0.106
-276.428	-108.994	-0.013	-0.003
-275.413	-29.439	0.180	-0.102
-274.399	160.949	0.098	-0.136
-273.384	-71.338	0.035	-0.013
-272.370	-43.273	-0.241	0.121
-271.355	253.176	-0.073	0.123
-270.340	-200.000	0.066	0.411
-269.326	3.719	0.166	-0.120
-268.311	24.172	0.150	0.122
-267.297	557.238	-0.106	0.253
-266.282	-133.185	0.466	-0.058
-265.267	-115.708	-0.196	-0.036
-264.253	596.476	-0.105	-0.258
-263.238	43.021	0.104	0.094
-262.224	-13.086	-0.196	-0.126
-261.209	-200.000	0.000	-0.098
-260.195	-200.000	0.007	0.327
-259.180	-100.772	0.263	-0.064
-258.165	-151.978	0.461	0.033
-257.151	-88.561	0.015	0.004
-256.136	-76.675	-0.177	0.061
-255.122	-113.502	-0.244	-0.047
-254.107	71.409	0.125	0.128
-253.092	-200.000	-0.000	-0.200
-252.078	460.018	-0.014	0.032
-251.063	-200.000	-0.066	-0.365
-250.049	89.911	-0.100	-0.111
-249.034	-70.399	0.115	0.043
-248.019	-88.026	-0.284	0.084
-247.005	-98.520	-0.278	-0.070
-245.990	369.504	0.018	-0.036
-244.976	-93.144	-0.296	-0.082
-243.961	800.000	-0.038	-0.136
-242.946	-36.895	0.196	-0.104
-241.932	50.325	-0.124	0.116
-240.917	-200.000	-0.031	0.303
-239.903	-200.000	-0.061	-0.505
-238.888	453.897	-0.005	0.011
-237.873	-200.000	-0.055	0.493
-236.859	-92.821	-0.346	-0.096
-235.844	-200.000	-0.011	0.053
-234.830	137.491	-0.279	-0.361
-233.815	-25.078	-0.323	-0.189
-232.800	-11.731	-0.161	-0.104
-231.786	19.163	-0.104	0.082
-230.771	103.332	0.168	0.194
-229.757	-103.251	0.011	0.003
-228.742	-122.344	0.483	-0.078
-227.727	-155.411	0.211	0.014
-226.713	800.000	0.072	0.226
-225.698	99.070	-0.130	0.149
-224.684	-1.660	-0.219	-0.152
-223.669	-14.108	0.112	0.071
-222.655	434.660	0.018	0.039
-221.640	-57.271	-0.334	0.145
-220.625	13.986	0.255	0.196
-219.611	-200.000	0.044	0.355
-218.596	-158.838	0.210	0.012
-217.582	-39.911	-0.193	-0.099
-216.567	-200.000	0.011	0.080
-215.552	453.862	-0.064	0.140
-214.538	-176.997	0.322	0.008
-213.523	-200.000	-0.006	-0.153
-212.509	188.718	-0.107	-0.158
-211.494	-10.199	-0.270	0.177
-210.479	9.878	0.154	0.115
-209.465	29.474	0.178	-0.150
-208.450	-98.151	-0.208	-0.053
-207.436	123.933	-0.074	-0.091
-206.421	-156.242	0.311	-0.019
-205.406	190.318	0.083	0.124
-204.392	-74.493	-0.237	0.084
-203.377	8.747	-0.147	0.110
-202.363	42.452	-0.122	-0.110
-201.348	112.998	0.160	0.191
-200.333	-200.000	-0.051	0.281
-199.319	48.538	0.304	-0.282
-198.304	0.371	0.122	-0.086
-197.290	319.903	-0.109	0.204
-196.275	229.105	-0.105	0.169
-195.260	512.419	0.075	0.174
-194.246	436.437	-0.102	-0.219
-193.231	-70.661	0.159	-0.059
-192.217	800.000	0.052	0.195
-191.202	-118.294	-0.177	-0.031
-190.187	-116.831	0.141	-0.026
-189.173	327.862	0.076	0.145
-188.158	379.621	0.115	0.233
-187.144	-200.000	-0.010	-0.269
-186.129	800.000	-0.043	0.170
-185.114	108.010	0.087	0.102
-184.100	-96.298	0.233	-0.061
-183.085	-154.974	-0.187	-0.012
-182.071	-29.248	-0.235	0.133
-181.056	-200.000	0.042	0.209
-180.042	-16.836	0.120	-0.075
-179.027	-108.514	-0.024	0.005
-178.012	-24.429	-0.238	-0.140
-176.998	-123.373	-0.434	0.068
-175.983	-20.679	0.079	0.048
-174.969	-19.685	-0.140	0.086
-173.954	-95.480	-0.475	0.126
-172.939	42.469	0.237	0.213
-171.925	-200.000	-0.021	-0.490
-170.910	38.048	-0.232	-0.204
-169.896	-81.509	0.219	-0.071
-168.881	800.000	-0.058	0.171
-167.866	-200.000	0.002	0.189
-166.852	-55.620	0.117	-0.052
-165.837	390.912	0.084	-0.172
-164.823	166.688	-0.129	0.180
-163.808	334.821	-0.109	-0.209
-162.793	46.301	-0.141	-0.129
-161.779	-106.322	-0.283	0.062
-160.764	800.000	0.190	0.531
-159.750	-200.000	-0.084	0.418
-158.735	-200.000	0.027	0.171
-157.720	128.571	-0.259	-0.325
-156.706	-117.923	0.051	0.009
-155.691	-58.845	-0.122	0.052
-154.677	657.397	-0.023	0.059
-153.662	-140.782	0.058	0.006
-152.647	140.613	-0.154	-0.200
-151.633	800.000	0.052	-0.162
-150.618	113.456	0.177	-0.212
-149.604	800.000	0.017	-0.045
-148.589	-126.781	0.357	-0.052
-147.574	-11.086	0.072	0.047
-146.560	-102.940	-0.248	0.058
-145.545	131.502	0.127	0.161
-144.531	-200.000	0.002	0.098
-143.516	800.000	0.077	0.218
-142.502	112.702	-0.050	0.060
-141.487	-200.000	0.061	-0.312
-140.472	-94.661	-0.384	0.103
-139.458	-142.025	0.165	-0.016
-138.443	800.000	-0.021	0.058
-137.429	-131.744	-0.150	0.019
-136.414	-200.000	-0.009	0.160
-135.399	800.000	-0.029	-0.091
-134.385	-200.000	-0.010	-0.333
-133.370	-200.000	0.001	0.157
-132.356	800.000	-0.070	0.215
-131.341	321.728	0.226	0.423
-130.326	43.349	0.312	0.281
-129.312	-126.982	-0.245	0.035
-128.297	649.165	-0.064	0.161
-127.283	-200.000	-0.009	-0.098
-126.268	-200.000	0.004	0.195
-125.253	800.000	0.035	-0.115
-124.239	-200.000	0.062	0.393
-123.224	800.000	0.023	-0.091
-122.210	-58.978	-0.265	-0.113
-121.195	368.714	-0.107	0.214
-120.180	-104.954	0.249	0.056
-119.166	91.832	0.194	-0.215
-118.151	-200.000	0.014	-0.067
-117.137	112.915	-0.142	0.170
-116.122	-200.000	-0.027	0.170
-115.107	-200.000	0.038	0.321
-114.093	-200.000	-0.007	-0.083
-113.078	-68.568	0.139	0.053
-112.064	322.654	-0.062	-0.117
-111.049	208.591	-0.142	0.219
-110.034	490.404	0.134	0.301
-109.020	-200.000	-0.035	-0.204
-108.005	386.270	0.139	-0.282
-106.991	-200.000	-0.009	0.163
-105.976	800.000	0.168	-0.492
-104.962	178.638	0.175	0.251
-103.947	319.180	0.129	-0.241
-102.932	217.123	0.105	0.165
-101.918	-200.000	0.021	-0.137
-100.903	-95.221	0.012	-0.003
-99.889	139.310	0.241	0.311
-98.874	75.121	0.198	0.206
-97.859	-200.000	0.008	0.226
-96.845	800.000	0.170	0.524
-95.830	-17.062	0.318	-0.198
-94.816	-7.117	0.155	0.104
-93.801	-62.005	-0.099	0.041
-92.786	-200.000	0.013	0.220
-91.772	-180.398	-0.115	-0.002
-90.757	-200.000	-0.017	0.359
-89.743	-59.893	-0.133	-0.056
-88.728	-87.945	-0.674	0.199
-87.713	-61.380	-0.024	-0.010
-86.699	564.101	-0.109	-0.260
-85.684	-131.347	-0.271	-0.035
-84.670	242.048	-0.047	-0.077
-83.655	800.000	-0.018	-0.076
-82.640	800.000	-0.060	0.190
-81.626	23.200	-0.115	0.093
-80.611	-200.000	0.064	0.281
-79.597	423.746	0.070	0.149
-78.582	361.001	0.074	-0.146
-77.567	159.860	0.172	-0.235
-76.553	800.000	0.058	-0.227
-75.538	94.915	-0.141	-0.157
-74.524	120.260	0.138	0.168
-73.509	35.327	-0.084	0.073
-72.494	-184.555	0.216	-0.003
-71.480	51.522	0.202	0.189
-70.465	-90.595	-0.095	-0.027
-69.451	27.611	0.064	0.053
-68.436	-166.356	-0.150	0.006
-67.422	128.941	-0.199	-0.249
-66.407	-99.531	-0.141	-0.035
-65.392	162.815	0.106	0.147
-64.378	-200.000	-0.062	0.360
-63.363	800.000	0.053	-0.146
-62.349	-132.226	0.137	-0.017
-61.334	125.418	-0.803	-0.995
-60.319	401.552	0.174	0.359
-59.305	601.062	-0.483	-1.179
-58.290	299.354	0.518	0.938
-57.276	800.000	0.312	1.296
-56.261	-200.000	105.627	591.181
-55.246	545.276	1451.257	3405.067
-54.232	185.988	2633.148	3844.034
-53.217	114.825	2139.178	2561.236
-52.203	42.006	1590.640	1417.143
-51.188	33.854	1329.074	1135.576
-50.173	30.642	1287.462	1081.340
-49.159	54.228	1340.461	1266.403
-48.144	55.003	1356.706	1286.300
-47.130	33.807	1312.295	1120.782
-46.115	30.295	1294.318	1084.899
-45.100	30.137	1289.791	1080.142
-44.086	30.005	1287.581	1077.475
-43.071	30.026	1284.842	1075.262
-42.057	30.079	1282.779	1073.804
-41.042	29.998	1280.866	1071.687
-40.027	30.085	1279.579	1071.071
-39.013	30.092	1277.453	1069.290
-37.998	30.200	1275.826	1068.511
-36.984	30.301	1274.203	1067.689
-35.969	30.156	1272.965	1065.776
-34.954	30.144	1271.136	1064.136
-33.940	30.245	1269.589	1063.375
-32.925	30.185	1268.390	1061.987
-31.911	30.287	1266.864	1061.248
-30.896	30.351	1265.355	1060.306
-29.881	30.310	1264.103	1058.981
-28.867	30.275	1262.507	1057.407
-27.852	30.264	1261.342	1056.327
-26.838	30.288	1259.806	1055.131
-25.823	30.429	1258.245	1054.586
-24.809	30.243	1257.098	1052.525
-23.794	30.191	1256.189	1051.427
-22.779	30.229	1254.987	1050.597
-21.765	30.228	1253.571	1049.361
-20.750	30.320	1252.142	1048.645
-19.736	30.069	1251.335	1046.507
-18.721	30.044	1249.892	1045.123
-17.706	30.102	1248.362	1044.129
-16.692	30.184	1247.258	1043.626
-15.677	30.006	1247.069	1042.419
-14.663	30.215	1245.313	1042.086
-13.648	30.153	1244.028	1040.624
-12.633	30.187	1243.104	1039.996
-11.619	30.165	1242.434	1039.272
-10.604	30.098	1241.724	1038.261
-9.590	30.203	1240.215	1037.548
-8.575	30.058	1239.573	1036.156
-7.560	30.174	1238.281	1035.686
-6.546	30.026	1238.203	1034.750
-5.531	30.173	1236.703	1034.278
-4.517	30.131	1236.347	1033.703
-3.502	30.092	1235.335	1032.603
-2.487	30.121	1234.143	1031.723
-1.473	30.132	1230.071	1028.342
-0.458	28.479	1215.107	1006.722
0.556	26.583	1197.300	968.657
1.571	22.591	1202.558	951.323
2.586	21.523	1216.581	956.498
3.600	21.288	1205.133	946.139
4.615	16.076	1134.702	864.122
5.629	7.645	1062.061	768.125
6.644	4.103	1042.452	737.046
7.659	3.701	1040.036	733.363
8.673	3.581	1038.556	731.687
9.688	3.547	1037.669	730.835
10.702	3.999	1035.770	731.570
11.717	9.209	1042.977	761.338
12.731	18.040	1055.122	812.295
13.746	23.080	1061.175	840.913
14.761	23.778	1062.019	844.828
15.775	23.191	1060.191	840.511
16.790	22.515	1058.791	836.117
17.804	22.098	1057.645	833.164
18.819	21.879	1056.940	831.497
19.834	21.887	1056.947	831.469
20.848	22.132	1056.034	831.834
21.863	21.861	1055.506	830.063
22.877	21.814	1054.402	828.898
23.892	21.608	1054.036	827.562
24.907	21.579	1053.286	826.765
25.921	21.531	1051.572	825.123
26.936	21.475	1050.635	824.046
27.950	21.557	1049.140	823.189
28.965	21.519	1048.131	822.146
29.980	21.655	1046.947	821.781
30.994	21.834	1045.970	821.780
32.009	21.789	1045.147	820.851
33.023	21.799	1043.618	819.626
34.038	21.734	1042.851	818.648
35.053	21.637	1041.917	817.388
36.067	21.386	1041.525	815.837
37.082	21.634	1040.334	815.986
38.096	21.712	1039.634	815.732
39.111	21.793	1039.020	815.553
40.126	21.534	1038.066	813.530
41.140	21.185	1036.071	810.273
42.155	21.054	1034.614	808.455
43.169	20.927	1034.034	807.343
44.184	21.096	1032.447	806.814
45.199	20.915	1032.282	805.776
46.213	21.252	1031.537	806.680
47.228	21.606	1030.819	807.679
48.242	21.725	1030.208	807.679
49.257	21.665	1029.333	806.646
50.271	21.882	1028.440	806.873
51.286	21.904	1027.928	806.499
52.301	21.944	1026.789	805.720
53.315	21.666	1025.765	803.569
54.330	21.477	1024.959	801.998
55.344	21.439	1023.909	800.932
56.359	21.237	1023.318	799.477
57.374	21.265	1022.208	798.666
58.388	21.016	1021.246	796.707
59.403	21.008	1020.151	795.742
60.417	21.049	1019.925	795.683
61.432	20.982	1019.255	794.788
62.447	20.836	1018.588	793.530
63.461	20.855	1017.418	792.636
64.476	20.834	1016.629	791.853
65.490	20.712	1015.343	790.229
66.505	20.859	1014.935	790.508
67.520	20.905	1014.264	790.126
68.534	20.747	1013.453	788.708
69.549	20.662	1012.444	787.468
70.563	20.472	1011.776	786.018
71.578	20.326	1010.672	784.431
72.593	20.156	1009.773	782.895
73.607	20.166	1009.328	782.527
74.622	20.435	1008.703	783.185
75.636	20.291	1008.640	782.419
76.651	20.527	1007.864	782.810
77.666	20.553	1007.240	782.375
78.680	20.691	1005.875	781.866
79.695	20.577	1005.401	780.917
80.709	20.817	1005.428	781.946
81.724	20.938	1004.474	781.676
82.739	21.038	1003.968	781.660
83.753	21.463	1003.993	783.515
84.768	22.013	1003.295	785.365
85.782	22.042	1002.803	785.037
86.797	22.146	1001.466	784.386
87.812	21.962	1000.439	782.691
88.826	21.912	999.411	781.595
89.841	21.939	999.023	781.345
90.855	22.087	997.896	781.053
91.870	22.067	996.924	780.131
92.884	21.942	995.950	778.749
93.899	21.960	994.930	777.962
94.914	21.939	994.058	777.114
95.928	21.935	993.335	776.464
96.943	21.728	992.256	774.637
97.957	21.677	992.043	774.177
98.972	21.921	990.105	773.672
99.987	21.872	989.688	773.064
101.001	21.684	988.824	771.490
102.016	21.675	988.361	771.020
103.030	21.885	987.286	771.041
104.045	21.860	986.975	770.618
105.060	21.839	985.683	769.449
106.074	21.447	984.373	766.641
107.089	21.179	983.387	764.633
108.103	21.004	982.664	763.236
109.118	20.736	981.183	760.844
110.133	20.672	979.631	759.297
111.147	20.675	979.045	758.786
112.162	20.677	978.667	758.436
113.176	20.859	978.187	758.790
114.191	21.078	977.599	759.222
115.206	20.913	976.618	757.675
116.220	20.799	976.000	756.631
117.235	20.838	974.966	755.933
118.249	20.741	973.948	754.655
119.264	20.731	973.012	753.822
120.279	20.630	972.126	752.632
121.293	20.464	971.526	751.381
122.308	20.245	970.701	749.729
123.322	20.291	969.264	748.755
124.337	20.155	968.234	747.303
125.352	20.138	967.351	746.486
126.366	20.350	966.288	746.510
127.381	20.529	965.595	746.678
128.395	20.593	964.701	746.193
129.410	20.584	963.920	745.487
130.424	20.779	963.198	745.694
131.439	20.903	963.078	746.068
132.454	21.060	962.124	745.936
133.468	21.044	961.107	745.013
134.483	21.012	960.399	744.259
135.497	21.039	959.649	743.727
136.512	21.059	959.092	743.316
137.527	20.996	958.276	742.351
138.541	21.177	957.139	742.172
139.556	21.068	956.899	741.458
140.570	21.496	956.259	742.715
141.585	21.657	956.062	743.181
142.600	21.779	954.746	742.608
143.614	21.930	954.167	742.729
144.629	21.957	953.429	742.205
145.643	21.928	952.122	741.000
146.658	21.606	951.035	738.728
147.673	21.419	949.816	736.929
148.687	21.176	948.935	735.155
149.702	21.021	948.303	733.950
150.716	21.110	947.099	733.329
151.731	21.191	946.744	733.326
152.746	21.206	945.889	732.662
153.760	21.334	945.537	732.861
154.775	21.507	944.861	732.998
155.789	21.523	944.129	732.435
156.804	21.324	943.714	731.213
157.819	21.507	942.796	731.201
158.833	21.738	942.416	731.807
159.848	22.046	941.491	732.307
160.862	21.644	940.702	729.955
161.877	21.228	938.985	726.825
162.892	20.937	937.911	724.722
163.906	21.071	936.253	723.931
164.921	20.976	935.676	723.031
165.935	21.007	935.247	722.762
166.950	21.300	934.285	723.168
167.964	21.266	933.431	722.301
168.979	21.158	932.300	720.915
169.994	21.053	931.301	719.647
171.008	21.292	931.002	720.337
172.023	21.729	930.121	721.393
173.037	21.804	930.059	721.587
174.052	21.592	928.739	719.629
175.067	21.073	927.706	716.635
176.081	20.787	927.488	715.228
177.096	20.790	926.669	714.545
178.110	20.847	926.216	714.367
179.125	20.892	925.373	713.836
180.140	21.096	925.272	714.530
181.154	21.366	925.039	715.393
182.169	21.674	924.459	716.140
183.183	21.634	924.496	715.942
184.198	21.473	923.420	714.390
185.213	21.622	922.359	714.114
186.227	21.592	922.195	713.799
187.242	21.802	921.354	713.943
188.256	21.988	920.809	714.213
189.271	21.838	920.675	713.435
190.286	21.419	919.357	710.650
191.300	20.898	917.632	707.140
192.315	20.730	916.904	705.833
193.329	20.836	916.725	706.063
194.344	21.049	916.304	706.540
195.359	21.114	916.189	706.650
196.373	21.405	915.511	707.245
197.388	21.565	915.391	707.735
198.402	21.998	915.152	709.238
199.417	22.106	914.698	709.257
200.432	22.458	913.633	709.790
201.446	22.286	913.804	709.164
202.461	22.372	913.209	708.987
203.475	22.076	912.738	707.366
204.490	21.723	910.964	704.509
205.504	21.568	910.444	703.425
206.519	21.523	909.980	702.824
207.534	21.719	908.712	702.566
208.548	21.688	908.616	702.305
209.563	21.589	907.717	701.154
210.577	21.688	907.320	701.182
211.592	22.128	906.695	702.392
212.607	22.287	906.404	702.742
213.621	21.999	905.303	700.678
214.636	21.930	904.364	699.615
215.650	22.001	903.849	699.437
216.665	22.159	903.233	699.527
217.680	22.229	903.084	699.626
218.694	22.179	902.322	698.777
219.709	22.067	901.723	697.807
220.723	22.061	900.708	696.935
221.738	21.749	900.108	695.171
222.753	21.807	899.442	694.824
223.767	22.030	899.137	695.412
224.782	22.286	898.772	696.081
225.796	22.297	898.145	695.577
226.811	22.047	897.578	694.089
227.826	21.882	896.501	692.543
228.840	21.704	895.699	691.159
229.855	21.770	894.730	690.612
230.869	21.711	894.243	689.942
231.884	21.574	893.876	689.059
232.899	21.504	893.277	688.262
233.913	21.468	891.741	686.875
234.928	21.312	891.612	686.104
235.942	21.230	891.175	685.382
236.957	21.327	890.261	685.000
237.972	21.291	889.972	684.576
238.986	21.306	889.538	684.242
240.001	21.351	888.605	683.639
241.015	21.510	887.868	683.630
242.030	21.512	888.134	683.783
243.045	21.624	887.701	683.826
244.059	21.799	887.032	683.933
245.074	21.659	886.390	682.834
246.088	21.909	885.890	683.363
247.103	22.173	885.264	683.847
248.117	22.545	885.515	685.427
249.132	22.918	885.125	686.515
250.147	23.142	884.772	687.051
251.161	23.185	884.331	686.812
252.176	23.035	883.706	685.684
253.190	23.191	883.464	686.041
254.205	23.157	882.642	685.211
255.220	22.933	882.141	683.895
256.234	23.124	880.955	683.654
257.249	23.013	880.032	682.447
258.263	22.819	879.701	681.380
259.278	22.763	879.181	680.701
260.293	23.032	878.354	681.039
261.307	23.056	878.454	681.148
262.322	23.170	877.421	680.724
263.336	23.010	877.130	679.824
264.351	22.914	876.547	678.943
265.366	23.174	875.238	678.868
266.380	23.028	875.403	678.373
267.395	22.964	874.333	677.239
268.409	22.865	873.393	676.074
269.424	22.957	872.730	675.853
270.439	22.710	872.045	674.316
271.453	22.520	871.124	672.821
272.468	22.599	870.669	672.709
273.482	22.614	870.327	672.443
274.497	22.772	869.412	672.280
275.512	22.562	869.168	671.233
276.526	22.567	868.718	670.844
277.541	22.746	868.657	671.419
278.555	23.087	867.874	672.049
279.570	23.326	867.691	672.755
280.585	23.212	866.329	671.209
281.599	22.811	865.445	668.946
282.614	22.727	864.265	667.654
283.628	22.538	863.998	666.674
284.643	22.660	863.443	666.648
285.657	22.712	862.698	666.212
286.672	22.668	862.282	665.666
287.687	22.696	861.848	665.379
288.701	22.870	860.971	665.295
289.716	22.632	860.503	663.982
290.730	22.905	860.210	664.723
291.745	22.835	859.559	663.896
292.760	23.120	859.015	664.489
293.774	23.382	858.488	665.006
294.789	23.122	858.129	663.694
295.803	22.926	857.139	662.134
296.818	22.753	856.156	660.670
297.833	22.713	855.721	660.127
298.847	22.740	855.091	659.682
299.862	22.918	854.788	660.055
300.876	23.209	854.356	660.751
301.891	23.291	853.892	660.640
302.906	23.594	853.602	661.485
303.920	23.587	853.488	661.313
304.935	23.597	853.246	661.102
305.949	23.509	851.879	659.660
306.964	23.083	851.302	657.571
307.979	23.190	850.354	657.177
308.993	23.182	850.568	657.253
310.008	23.413	849.629	657.329
311.022	23.328	848.804	656.317
312.037	23.156	847.957	654.966
313.052	22.840	847.606	653.469
314.066	22.553	846.691	651.644
315.081	22.646	846.037	651.426
316.095	22.628	845.683	651.029
317.110	22.535	845.270	650.309
318.125	22.481	844.422	649.403
319.139	22.407	843.901	648.670
320.154	22.537	843.344	648.666
321.168	22.545	842.947	648.329
322.183	22.660	842.979	648.721
323.197	22.729	842.355	648.437
324.212	22.918	841.249	648.223
325.227	22.659	841.250	647.216
326.241	22.603	840.547	646.411
327.256	22.652	839.753	645.923
328.270	22.646	838.915	645.199
329.285	22.483	838.127	643.940
330.300	22.521	837.756	643.737
331.314	22.636	837.351	643.788
332.329	23.054	837.150	645.101
333.343	23.080	836.941	644.978
334.358	23.071	836.756	644.747
335.373	23.084	836.532	644.563
336.387	23.162	836.660	644.891
337.402	23.483	835.869	645.391
338.416	23.501	836.022	645.519
339.431	23.820	835.540	646.248
340.446	23.825	835.246	645.981
341.460	23.969	834.864	646.154
342.475	24.230	834.305	646.611
343.489	24.061	834.377	645.997
344.504	24.074	834.009	645.699
345.519	24.047	833.565	645.204
346.533	24.144	832.378	644.578
347.548	23.542	831.806	641.900
348.562	23.517	831.077	641.190
349.577	23.212	830.198	639.353
350.592	23.203	829.423	638.670
351.606	23.022	828.666	637.376
352.621	23.011	828.000	636.768
353.635	23.303	827.409	637.307
354.650	23.290	826.882	636.798
355.665	23.149	826.384	635.852
356.679	23.485	825.945	636.666
357.694	23.511	825.097	636.049
358.708	23.213	824.657	634.585
359.723	23.185	824.181	634.062
360.738	23.214	823.377	633.492
361.752	23.471	823.093	634.136
362.767	23.873	822.365	634.953
363.781	24.017	822.342	635.394
364.796	24.162	822.164	635.720
365.810	24.244	821.673	635.573
366.825	24.276	821.502	635.502
367.840	24.248	820.668	634.700
368.854	23.856	820.066	632.782
369.869	23.714	819.440	631.738
370.883	23.868	818.992	631.886
371.898	23.983	819.069	632.297
372.913	24.076	818.866	632.414
373.927	23.949	817.910	631.171
374.942	24.081	817.230	631.055
375.956	24.145	817.279	631.266
376.971	24.234	817.070	631.363
377.986	24.448	816.747	631.816
379.000	24.562	815.815	631.443
380.015	24.357	815.191	630.180
381.029	24.293	814.903	629.676
382.044	24.503	814.272	629.872
383.059	24.519	813.327	629.142
384.073	24.218	812.624	627.482
385.088	23.956	812.226	626.200
386.102	23.726	811.358	624.666
387.117	23.690	810.479	623.805
388.132	23.645	809.737	623.020
389.146	23.696	809.652	623.081
390.161	24.140	809.437	624.417
391.175	24.315	809.115	624.726
392.190	24.127	807.823	623.018
393.205	23.805	807.607	621.668
394.219	23.506	807.100	620.177
395.234	23.481	806.465	619.548
396.248	23.658	805.734	619.550
397.263	23.414	805.788	618.684
398.278	23.314	805.303	617.907
399.292	23.286	804.553	617.180
400.307	23.162	804.376	616.557
401.321	23.356	803.643	616.618
402.336	23.555	803.179	616.899
403.350	23.897	803.085	617.958
404.365	24.187	803.138	618.955
405.380	24.407	802.478	619.155
406.394	24.636	802.598	619.986
407.409	24.753	802.099	619.950
408.423	24.500	802.264	619.145
409.438	24.644	801.814	619.242
410.453	24.853	800.913	619.215
411.467	24.776	800.412	618.506
412.482	24.685	800.322	618.070
413.496	24.932	800.131	618.721
414.511	24.835	799.265	617.659
415.526	24.835	798.610	617.100
416.540	24.586	798.101	615.795
417.555	24.569	797.900	615.526
418.569	24.840	796.965	615.683
419.584	24.617	796.714	614.668
420.599	24.724	796.291	614.654
421.613	163.761	1370.578	1797.442
422.628	142.147	1454.237	1797.534
