DTS Sentinel unit serial number:	SN413079Multiplexer serial number:	ORYXHardware model number:	OX4-SRSoftware version number:	ORYX F/W v4.00 Oryx Data Collector v3.7.2.0data status	okinstallation	princeton_trtdifferential loss correction	single-endedforward channel	channel 1reverse channel	N/Adate	2019/09/19time	10:18:35forward acquisition time	60.00reverse acquisition time	0.00gamma	496.2192k internal	0.2339k external	0.2339temperature offset calibration	1.0010default loss term (dB/km)	0.3790temperature slope calibration	1.0000multiplexer offset coefficient	1.0000multiplexer slope coefficient	1.0000fibre end	0.00T internal ref (°C)	24.14T ext. ref 1 (°C)	0.69T ext. ref 2 (°C)	19.73length (m)	temperature (°C)	Stokes	anti-Stokes-747.200	-200.000	0.044	0.309
-746.185	800.000	-0.089	0.280
-745.171	-60.180	-0.332	0.142
-744.156	-43.335	0.139	0.070
-743.142	144.814	-0.105	0.141
-742.127	-11.142	-0.288	0.190
-741.112	800.000	-0.092	-0.295
-740.098	303.973	-0.129	0.239
-739.083	800.000	-0.124	0.536
-738.069	-68.856	-0.164	0.063
-737.054	400.819	-0.127	0.267
-736.039	-25.827	-0.209	-0.124
-735.025	-200.000	-0.009	0.080
-734.010	-200.000	-0.019	0.150
-732.996	-71.269	-0.218	0.082
-731.981	84.927	0.173	-0.190
-730.966	23.425	-0.154	0.127
-729.952	-66.287	0.235	-0.094
-728.937	26.760	-0.342	-0.287
-727.923	-108.650	0.116	-0.025
-726.908	475.833	-0.079	-0.178
-725.894	158.676	0.029	0.041
-724.879	-200.000	-0.037	0.298
-723.864	-123.536	-0.142	-0.023
-722.850	800.000	-0.051	0.187
-721.835	-200.000	0.046	-0.206
-720.821	302.154	-0.065	0.120
-719.806	491.966	0.047	0.108
-718.791	702.769	0.064	0.170
-717.777	62.290	-0.058	0.058
-716.762	800.000	-0.121	-0.382
-715.748	34.890	0.071	0.062
-714.733	-124.437	-0.018	-0.003
-713.718	-195.367	-0.150	0.001
-712.704	800.000	0.065	-0.214
-711.689	755.843	-0.092	-0.248
-710.675	-98.438	-0.499	0.128
-709.660	148.219	-0.133	0.180
-708.645	36.402	0.284	-0.250
-707.631	-200.000	0.014	0.183
-706.616	575.844	-0.050	-0.123
-705.602	-44.136	-0.100	-0.050
-704.587	800.000	0.103	-0.426
-703.572	-159.841	0.093	-0.005
-702.558	-135.063	0.085	-0.010
-701.543	-102.328	-0.211	-0.051
-700.529	-200.000	-0.003	0.272
-699.514	-200.000	0.019	-0.173
-698.499	511.443	0.164	0.382
-697.485	86.054	-0.157	-0.173
-696.470	69.536	0.054	-0.056
-695.456	-165.063	-0.205	-0.009
-694.441	800.000	-0.061	-0.181
-693.426	300.674	-0.082	0.152
-692.412	-141.816	-0.344	-0.035
-691.397	-200.000	-0.003	0.154
-690.383	-171.365	0.278	0.009
-689.368	30.120	-0.106	0.090
-688.354	-151.065	0.163	0.012
-687.339	-129.542	0.313	-0.043
-686.324	-66.373	-0.437	0.174
-685.310	-189.638	-0.123	-0.001
-684.295	-64.822	-0.103	0.042
-683.281	-200.000	0.016	0.097
-682.266	100.820	-0.128	-0.149
-681.251	22.386	0.179	0.147
-680.237	173.649	-0.140	0.203
-679.222	-33.063	0.198	0.110
-678.208	-185.273	0.205	-0.003
-677.193	800.000	0.062	0.190
-676.178	-165.445	-0.298	0.013
-675.164	748.092	0.085	0.229
-674.149	800.000	-0.093	0.318
-673.135	-152.056	0.089	0.006
-672.120	-200.000	-0.016	-0.092
-671.105	-79.318	-0.137	0.047
-670.091	-34.123	0.006	0.003
-669.076	151.484	-0.088	-0.120
-668.062	229.668	0.108	0.176
-667.047	143.370	-0.163	-0.217
-666.032	-52.612	-0.270	-0.125
-665.018	-200.000	-0.080	-0.428
-664.003	654.035	-0.097	0.248
-662.989	103.225	0.107	0.125
-661.974	-200.000	-0.028	0.329
-660.959	-0.726	-0.195	-0.138
-659.945	800.000	-0.031	0.127
-658.930	-149.266	-0.277	-0.022
-657.916	800.000	-0.135	0.423
-656.901	-200.000	-0.019	-0.154
-655.886	-113.679	-0.142	-0.028
-654.872	80.403	0.203	-0.218
-653.857	-57.363	-0.262	0.115
-652.843	-200.000	-0.012	0.138
-651.828	94.776	-0.152	0.173
-650.814	-200.000	0.012	-0.108
-649.799	800.000	0.044	0.138
-648.784	-200.000	-0.008	-0.226
-647.770	0.327	-0.065	0.046
-646.755	-200.000	0.029	-0.275
-645.741	-200.000	0.013	0.124
-644.726	-23.668	0.177	0.106
-643.711	-130.843	-0.158	0.021
-642.697	86.213	0.130	-0.143
-641.682	-200.000	-0.017	-0.098
-640.668	-15.443	0.320	-0.204
-639.653	366.927	-0.083	0.168
-638.638	275.893	0.190	-0.336
-637.624	-24.522	0.104	0.062
-636.609	22.978	-0.354	-0.290
-635.595	-200.000	-0.020	-0.095
-634.580	506.108	0.168	-0.388
-633.565	-43.193	-0.208	-0.105
-632.551	360.206	-0.171	-0.343
-631.536	-33.017	-0.341	0.189
-630.522	234.906	0.119	0.195
-629.507	-200.000	-0.007	0.195
-628.492	-106.916	0.052	0.012
-627.478	63.709	0.124	-0.124
-626.463	-97.568	-0.051	0.013
-625.449	-200.000	0.014	0.174
-624.434	233.944	0.031	-0.050
-623.419	-57.480	-0.189	-0.083
-622.405	800.000	0.112	-0.422
-621.390	30.608	-0.414	0.353
-620.376	-178.994	-0.116	-0.003
-619.361	-55.393	0.121	0.054
-618.346	-200.000	0.014	-0.172
-617.332	-119.900	0.354	0.061
-616.317	200.997	0.278	0.426
-615.303	-200.000	0.011	0.214
-614.288	765.679	0.163	-0.442
-613.273	-39.300	-0.120	0.063
-612.259	-200.000	0.047	0.284
-611.244	-200.000	0.407	0.000
-610.230	358.339	-0.126	-0.251
-609.215	-111.385	-0.131	-0.027
-608.201	114.201	-0.202	-0.245
-607.186	86.396	0.165	0.181
-606.171	800.000	0.104	0.311
-605.157	177.681	0.111	0.162
-604.142	-200.000	0.036	-0.200
-603.128	-69.314	0.234	0.090
-602.113	-200.000	0.001	-0.067
-601.098	-159.167	-0.445	-0.025
-600.084	800.000	-0.129	0.455
-599.069	-200.000	-0.019	0.109
-598.055	-57.926	-0.295	-0.128
-597.040	800.000	0.047	-0.168
-596.025	-6.754	-0.274	0.186
-595.011	-108.659	0.141	0.030
-593.996	800.000	-0.063	-0.214
-592.982	5.502	-0.306	0.225
-591.967	-200.000	0.031	-0.363
-590.952	-0.225	-0.115	0.081
-589.938	-90.902	-0.421	0.121
-588.923	-125.684	0.227	-0.034
-587.909	-30.430	-0.192	-0.109
-586.894	-121.546	-0.379	0.063
-585.879	-200.000	0.029	0.176
-584.865	-93.608	0.138	-0.038
-583.850	42.928	-0.119	-0.108
-582.836	-121.300	0.256	0.043
-581.821	-126.480	-0.274	0.041
-580.806	-27.161	-0.148	0.086
-579.792	-110.911	-0.166	0.034
-578.777	8.196	0.274	0.205
-577.763	182.088	0.108	-0.158
-576.748	718.337	-0.050	0.132
-575.733	-108.727	0.152	-0.032
-574.719	635.637	0.182	-0.459
-573.704	-99.264	-0.131	-0.033
-572.690	-30.120	0.211	0.120
-571.675	379.363	0.189	0.386
-570.661	800.000	0.045	-0.137
-569.646	-59.379	-0.216	-0.093
-568.631	-108.558	0.158	0.034
-567.617	-117.146	-0.438	-0.079
-566.602	-111.168	0.302	0.062
-565.588	30.701	0.363	0.310
-564.573	57.627	-0.349	0.340
-563.558	-121.196	0.437	0.073
-562.544	-151.426	-0.244	-0.018
-561.529	-36.838	0.014	-0.008
-560.515	-87.178	-0.268	0.081
-559.500	-86.862	0.105	-0.032
-558.485	76.767	-0.131	0.138
-557.471	426.689	-0.065	-0.140
-556.456	373.620	-0.156	-0.315
-555.442	18.224	-0.126	0.100
-554.427	-124.044	0.351	-0.055
-553.412	-90.496	-0.293	0.085
-552.398	800.000	0.105	-0.317
-551.383	97.020	0.144	-0.164
-550.369	178.201	-0.233	0.338
-549.354	83.636	-0.071	-0.077
-548.339	-26.624	-0.162	0.094
-547.325	34.006	-0.067	-0.058
-546.310	-154.529	-0.278	0.019
-545.296	800.000	-0.057	0.184
-544.281	-200.000	0.041	0.198
-543.266	-200.000	0.013	-0.161
-542.252	-26.801	-0.137	-0.080
-541.237	-200.000	-0.063	-0.305
-540.223	-48.403	-0.002	0.001
-539.208	-200.000	0.004	-0.406
-538.193	-77.633	-0.019	-0.007
-537.179	630.348	-0.081	0.205
-536.164	0.335	0.114	-0.081
-535.150	-200.000	0.000	-0.352
-534.135	-200.000	-0.007	-0.202
-533.121	-14.221	-0.180	-0.115
-532.106	273.851	0.158	0.279
-531.091	-200.000	0.023	0.249
-530.077	-108.796	-0.125	0.027
-529.062	-99.811	0.282	-0.070
-528.048	213.162	-0.069	0.108
-527.033	-200.000	-0.016	0.161
-526.018	-200.000	-0.023	-0.155
-525.004	800.000	-0.143	-0.445
-523.989	89.764	0.154	-0.171
-522.975	58.430	0.188	-0.183
-521.960	-128.784	0.213	0.030
-520.945	800.000	0.066	0.189
-519.931	-195.816	-0.180	0.001
-518.916	203.837	0.035	0.054
-517.902	-29.619	-0.366	-0.208
-516.887	208.408	-0.109	0.169
-515.872	148.958	0.171	-0.229
-514.858	-127.134	-0.194	0.028
-513.843	-117.878	0.135	0.024
-512.829	39.073	-0.203	0.180
-511.814	-87.808	0.415	0.124
-510.799	545.956	0.076	0.182
-509.785	360.901	0.063	-0.125
-508.770	800.000	0.046	0.166
-507.756	-90.584	0.177	0.051
-506.741	104.738	0.097	0.114
-505.726	-200.000	0.034	-0.356
-504.712	-200.000	0.036	-0.263
-503.697	800.000	-0.073	0.217
-502.683	119.186	-0.119	0.146
-501.668	-68.987	0.314	-0.120
-500.653	102.992	0.163	0.190
-499.639	-30.764	-0.310	0.174
-498.624	166.790	-0.007	0.010
-497.610	-200.000	-0.062	-0.369
-496.595	800.000	0.043	-0.122
-495.581	177.949	0.062	0.090
-494.566	-19.499	-0.111	-0.068
-493.551	511.066	-0.119	-0.274
-492.537	733.555	0.084	0.224
-491.522	-71.374	0.053	0.020
-490.508	24.944	0.175	0.144
-489.493	100.007	-0.223	0.257
-488.478	40.894	-0.077	0.069
-487.464	-104.363	0.126	-0.029
-486.449	-120.889	0.124	-0.021
-485.435	-91.797	-0.141	-0.040
-484.420	-120.153	0.202	-0.034
-483.405	137.581	0.090	-0.117
-482.391	800.000	0.041	0.112
-481.376	-94.865	0.075	-0.020
-480.362	414.291	-0.018	0.038
-479.347	75.359	0.105	-0.110
-478.332	-200.000	-0.003	0.224
-477.318	-98.109	0.339	0.087
-476.303	105.323	-0.237	0.277
-475.289	-113.729	0.086	0.017
-474.274	233.025	-0.094	0.154
-473.259	-172.746	0.299	-0.009
-472.245	4.725	0.226	0.165
-471.230	138.000	-0.134	0.174
-470.216	-200.000	0.049	0.418
-469.201	-200.000	0.020	-0.091
-468.186	733.835	0.054	0.142
-467.172	152.086	-0.048	0.065
-466.157	-200.000	0.035	0.178
-465.143	297.001	-0.081	-0.148
-464.128	-200.000	0.009	-0.271
-463.113	800.000	0.047	0.130
-462.099	-200.000	0.015	0.506
-461.084	235.089	0.097	0.159
-460.070	-200.000	-0.020	0.252
-459.055	-65.580	0.295	-0.117
-458.040	-200.000	-0.042	-0.297
-457.026	784.753	-0.062	-0.170
-456.011	207.128	0.300	0.465
-454.997	85.905	-0.194	0.212
-453.982	72.040	0.279	0.287
-452.968	257.036	-0.106	0.181
-451.953	-97.268	0.446	-0.115
-450.938	549.512	-0.082	0.195
-449.924	-53.969	-0.316	-0.143
-448.909	-200.000	0.036	0.285
-447.895	-200.000	0.002	0.320
-446.880	-200.000	-0.006	0.167
-445.865	-112.118	-0.089	0.018
-444.851	-23.922	-0.304	0.180
-443.836	-71.000	0.307	0.114
-442.822	-93.190	-0.182	-0.050
-441.807	90.396	0.031	0.035
-440.792	29.630	0.124	0.104
-439.778	101.043	-0.048	-0.055
-438.763	800.000	0.042	-0.127
-437.749	25.304	-0.039	0.032
-436.734	-200.000	-0.033	-0.171
-435.719	236.944	0.156	0.257
-434.705	-148.793	0.179	0.014
-433.690	-141.508	-0.495	0.050
-432.676	-200.000	0.002	-0.082
-431.661	800.000	0.049	-0.148
-430.646	-116.900	0.273	-0.050
-429.632	597.669	-0.147	0.360
-428.617	800.000	0.042	-0.158
-427.603	-59.122	0.077	-0.033
-426.588	52.989	-0.146	0.138
-425.573	-200.000	-0.033	0.254
-424.559	-82.254	0.405	0.131
-423.544	346.467	-0.154	0.299
-422.530	800.000	0.061	0.244
-421.515	49.584	0.178	0.166
-420.500	141.763	-0.069	-0.090
-419.486	66.476	0.157	-0.158
-418.471	205.324	-0.187	0.287
-417.457	-12.399	-0.180	0.116
-416.442	800.000	-0.089	-0.248
-415.428	-2.692	0.274	-0.189
-414.413	-74.138	0.193	-0.069
-413.398	-28.361	0.230	0.132
-412.384	-26.012	0.174	-0.101
-411.369	282.032	0.090	-0.160
-410.355	1.140	-0.135	0.096
-409.340	655.840	0.083	-0.211
-408.325	2.585	-0.171	-0.123
-407.311	234.385	-0.039	0.064
-406.296	456.670	0.091	0.201
-405.282	236.834	-0.080	0.132
-404.267	-131.898	-0.228	-0.029
-403.252	-96.168	-0.288	0.076
-402.238	258.463	0.020	-0.034
-401.223	71.944	0.121	0.125
-400.209	-43.820	-0.202	-0.101
-399.194	-2.607	0.186	0.129
-398.179	-38.741	0.156	0.081
-397.165	-73.525	-0.138	-0.050
-396.150	314.621	-0.039	0.073
-395.136	-200.000	-0.001	-0.428
-394.121	-173.829	0.170	0.005
-393.106	-200.000	0.008	0.182
-392.092	64.563	0.200	-0.200
-391.077	-134.749	-0.098	0.012
-390.063	-97.171	-0.047	-0.012
-389.048	-100.473	-0.262	0.064
-388.033	275.774	0.035	-0.062
-387.019	26.364	0.169	-0.140
-386.004	-55.297	0.147	-0.065
-384.990	583.316	-0.152	-0.370
-383.975	-89.865	-0.196	-0.057
-382.960	325.839	0.135	-0.255
-381.946	116.329	-0.191	0.231
-380.931	-98.302	-0.098	-0.025
-379.917	243.037	0.180	-0.298
-378.902	280.365	0.028	-0.050
-377.888	-200.000	0.082	-0.354
-376.873	-200.000	-0.006	0.158
-375.858	-200.000	0.108	-0.483
-374.844	-52.833	0.288	-0.131
-373.829	228.320	0.032	-0.051
-372.815	-200.000	0.001	-0.255
-371.800	-119.975	0.100	-0.017
-370.785	-35.430	-0.087	-0.047
-369.771	142.514	-0.151	0.198
-368.756	-12.362	0.116	0.075
-367.742	71.454	0.168	0.173
-366.727	126.409	0.022	0.027
-365.712	474.774	-0.060	-0.135
-364.698	-200.000	-0.005	-0.126
-363.683	714.950	-0.149	-0.391
-362.669	254.812	-0.050	-0.085
-361.654	800.000	-0.131	-0.409
-360.639	12.419	0.241	-0.184
-359.625	-99.021	0.194	-0.048
-358.610	-200.000	0.071	-0.364
-357.596	-77.134	-0.095	0.033
-356.581	-94.497	0.274	-0.074
-355.566	201.111	-0.023	-0.035
-354.552	135.079	0.068	0.087
-353.537	497.768	0.077	0.176
-352.523	56.751	-0.039	0.037
-351.508	-170.800	-0.229	-0.008
-350.493	-56.827	0.080	-0.035
-349.479	800.000	-0.026	-0.076
-348.464	152.727	-0.094	-0.127
-347.450	-30.675	0.250	-0.140
-346.435	800.000	-0.016	-0.063
-345.420	27.690	0.176	0.146
-344.406	-67.653	-0.621	-0.240
-343.391	55.664	0.238	-0.228
-342.377	214.390	0.079	-0.124
-341.362	-138.909	-0.154	0.017
-340.348	134.253	-0.211	0.271
-339.333	-200.000	0.205	-0.000
-338.318	128.260	0.066	-0.083
-337.304	-200.000	0.010	-0.272
-336.289	-95.164	0.111	-0.030
-335.275	47.479	0.131	-0.121
-334.260	-200.000	0.030	0.219
-333.245	-76.131	0.065	0.023
-332.231	-140.600	0.352	-0.036
-331.216	-103.655	0.213	0.049
-330.202	-200.000	-0.024	0.395
-329.187	-200.000	0.004	-0.089
-328.172	-17.598	-0.169	0.105
-327.158	230.491	0.244	-0.394
-326.143	-102.289	0.081	-0.019
-325.129	-36.557	0.217	0.115
-324.114	2.512	0.101	-0.072
-323.099	-27.882	-0.263	-0.151
-322.085	397.814	0.215	-0.443
-321.070	-52.153	0.095	0.043
-320.056	357.633	-0.100	-0.197
-319.041	28.757	0.208	0.174
-318.026	800.000	0.048	0.159
-317.012	-200.000	-0.003	-0.112
-315.997	-133.361	0.212	0.026
-314.983	-124.166	-0.320	0.049
-313.968	197.659	-0.200	-0.302
-312.953	174.144	-0.124	0.177
-311.939	-166.970	-0.344	0.014
-310.924	-98.441	-0.306	0.077
-309.910	-200.000	-0.032	-0.154
-308.895	-60.598	-0.242	-0.101
-307.880	-151.099	0.296	0.022
-306.866	-118.637	0.101	-0.018
-305.851	68.284	0.315	-0.318
-304.837	-78.644	-0.097	0.033
-303.822	-145.126	-0.049	-0.004
-302.807	343.925	0.028	0.054
-301.793	-119.404	0.229	-0.039
-300.778	-124.479	-0.357	0.055
-299.764	-200.000	-0.229	0.001
-298.749	-200.000	-0.009	-0.186
-297.735	-118.884	-0.271	-0.047
-296.720	322.893	0.111	-0.208
-295.705	-79.192	0.145	0.048
-294.691	800.000	0.022	-0.074
-293.676	70.820	0.088	-0.089
-292.662	-200.000	-0.011	0.125
-291.647	79.215	0.218	0.230
-290.632	161.439	-0.203	0.280
-289.618	-200.000	-0.028	-0.161
-288.603	-200.000	0.020	-0.124
-287.589	409.195	0.028	-0.059
-286.574	-72.145	-0.319	0.117
-285.559	210.389	0.190	-0.293
-284.545	800.000	-0.088	-0.267
-283.530	800.000	-0.160	-0.535
-282.516	-200.000	0.045	-0.254
-281.501	-59.821	-0.281	-0.118
-280.486	85.336	0.114	0.124
-279.472	800.000	0.038	0.107
-278.457	-200.000	-0.028	-0.226
-277.443	-82.969	0.214	0.068
-276.428	240.223	-0.097	0.158
-275.413	-200.000	0.005	0.087
-274.399	299.841	-0.141	0.256
-273.384	-131.556	0.469	-0.061
-272.370	265.980	-0.151	-0.259
-271.355	623.354	-0.073	-0.181
-270.340	-136.563	0.329	-0.037
-269.326	-108.550	0.217	-0.046
-268.311	89.802	-0.191	-0.210
-267.297	-200.000	-0.003	0.089
-266.282	-43.924	-0.325	0.161
-265.267	73.366	-0.045	-0.046
-264.253	88.242	0.267	0.292
-263.238	-200.000	-0.009	0.131
-262.224	-10.628	0.134	0.087
-261.209	370.148	0.086	0.172
-260.195	-200.000	0.023	0.342
-259.180	247.570	0.262	0.435
-258.165	800.000	-0.018	0.051
-257.151	24.802	-0.104	-0.085
-256.136	67.298	-0.221	-0.222
-255.122	-200.000	-0.007	0.503
-254.107	-107.807	0.330	-0.071
-253.092	156.120	-0.050	0.067
-252.078	15.344	-0.130	0.101
-251.063	219.973	0.062	-0.098
-250.049	-14.268	-0.076	0.048
-249.034	-27.590	-0.081	-0.046
-248.019	5.590	0.143	0.104
-247.005	-90.686	0.298	0.085
-245.990	61.005	-0.108	0.105
-244.976	36.390	0.077	0.067
-243.961	162.837	-0.105	-0.145
-242.946	-77.761	-0.149	0.051
-241.932	-79.628	0.429	-0.142
-240.917	-73.533	-0.139	-0.050
-239.903	374.287	-0.062	0.124
-238.888	99.747	-0.088	-0.100
-237.873	24.266	0.045	0.036
-236.859	-105.284	0.273	-0.061
-235.844	108.097	0.127	-0.149
-234.830	-150.431	0.247	-0.019
-233.815	738.384	0.141	-0.371
-232.800	-116.650	-0.374	-0.068
-231.786	800.000	0.122	0.385
-230.771	62.145	0.183	0.180
-229.757	-2.791	0.103	0.071
-228.742	367.469	0.232	0.461
-227.727	188.315	-0.043	-0.063
-226.713	-87.340	-0.240	-0.072
-225.698	-200.000	-0.040	0.252
-224.684	4.217	-0.131	-0.095
-223.669	-25.401	-0.257	-0.149
-222.655	99.309	-0.176	-0.200
-221.640	270.669	0.139	-0.240
-220.625	-200.000	-0.003	-0.112
-219.611	-152.202	0.139	-0.010
-218.596	-159.390	-0.231	-0.013
-217.582	18.763	-0.131	-0.103
-216.567	-158.174	-0.223	0.013
-215.552	-100.981	-0.394	-0.095
-214.538	171.557	-0.197	0.277
-213.523	-188.030	-0.254	0.003
-212.509	20.604	0.094	-0.075
-211.494	262.052	-0.139	0.236
-210.479	89.858	0.023	0.025
-209.465	-82.759	-0.167	0.053
-208.450	-12.907	-0.289	0.185
-207.436	260.147	0.141	-0.240
-206.421	800.000	0.032	-0.109
-205.406	-200.000	-0.021	-0.130
-204.392	-21.640	0.068	-0.041
-203.377	459.889	-0.032	0.069
-202.363	-189.320	0.353	-0.004
-201.348	-4.058	-0.109	-0.074
-200.333	-142.944	-0.205	0.020
-199.319	-200.000	-0.045	0.233
-198.304	-200.000	-0.017	0.214
-197.290	-121.778	0.332	0.054
-196.275	-92.316	0.097	0.027
-195.260	-200.000	0.024	-0.270
-194.246	-14.202	-0.112	-0.071
-193.231	237.630	-0.048	0.078
-192.217	-200.000	-0.015	-0.326
-191.202	800.000	-0.047	0.151
-190.187	476.478	-0.147	0.325
-189.173	-200.000	0.050	0.318
-188.158	800.000	-0.118	0.445
-187.144	-200.000	-0.017	0.141
-186.129	-73.769	-0.330	-0.118
-185.114	-149.818	0.167	-0.013
-184.100	-200.000	0.032	0.197
-183.085	-107.028	-0.242	-0.052
-182.071	-73.607	-0.290	-0.104
-181.056	-200.000	0.019	-0.163
-180.042	-200.000	-0.002	0.057
-179.027	-200.000	0.020	-0.220
-178.012	29.742	-0.139	0.116
-176.998	-111.268	0.189	0.038
-175.983	-85.361	-0.188	0.058
-174.969	503.250	-0.036	-0.082
-173.954	61.514	-0.134	0.131
-172.939	-200.000	0.109	0.000
-171.925	800.000	-0.111	-0.345
-170.910	-74.458	-0.293	0.103
-169.896	-200.000	-0.040	-0.234
-168.881	-130.309	-0.291	0.039
-167.866	-18.837	0.098	0.060
-166.852	475.444	0.072	0.160
-165.837	34.426	-0.076	0.065
-164.823	800.000	0.048	0.133
-163.808	129.786	-0.055	0.069
-162.793	36.267	0.078	0.068
-161.779	-26.576	0.246	0.141
-160.764	-115.337	-0.467	-0.086
-159.750	-114.324	-0.155	0.029
-158.735	-115.242	0.229	0.042
-157.720	-115.981	0.129	-0.024
-156.706	-59.731	0.459	-0.193
-155.691	595.288	0.085	0.206
-154.677	229.027	-0.195	-0.312
-153.662	-26.658	-0.094	0.054
-152.647	800.000	0.089	0.242
-151.633	-64.522	-0.169	-0.067
-150.618	-163.758	-0.182	-0.008
-149.604	800.000	0.004	0.012
-148.589	-168.472	0.121	0.005
-147.574	71.106	0.113	0.115
-146.560	800.000	0.055	0.179
-145.545	-70.321	0.089	0.033
-144.531	415.238	0.234	0.489
-143.516	377.487	0.178	-0.356
-142.502	-38.759	0.151	0.078
-141.487	353.615	0.098	0.191
-140.472	274.255	-0.074	0.129
-139.458	-200.000	0.017	-0.095
-138.443	-46.180	0.170	0.082
-137.429	75.509	-0.214	0.222
-136.414	125.564	-0.163	-0.202
-135.399	83.628	0.177	0.189
-134.385	-134.735	0.128	0.015
-133.370	530.387	-0.104	0.240
-132.356	678.649	0.021	0.054
-131.341	-61.955	-0.285	0.117
-130.326	-111.874	0.190	0.038
-129.312	168.104	0.197	-0.275
-128.297	-148.996	-0.146	-0.011
-127.283	-6.900	0.091	-0.060
-126.268	25.499	0.154	-0.126
-125.253	800.000	-0.045	0.180
-124.239	100.076	-0.197	0.223
-123.224	150.394	-0.179	0.238
-122.210	-200.000	-0.015	0.073
-121.195	125.412	-0.207	-0.255
-120.180	-161.172	-0.123	-0.006
-119.166	90.445	0.229	-0.251
-118.151	171.898	-0.115	0.162
-117.137	6.971	0.121	-0.088
-116.122	471.678	0.130	0.287
-115.107	-72.217	-0.388	-0.141
-114.093	-0.965	0.189	0.131
-113.078	-200.000	0.024	-0.511
-112.064	42.967	0.154	0.137
-111.049	24.999	-0.084	-0.068
-110.034	-200.000	-0.033	0.299
-109.020	-15.149	0.304	0.191
-108.005	-200.000	-0.014	-0.130
-106.991	800.000	-0.075	-0.210
-105.976	248.497	0.231	0.382
-104.962	-114.068	-0.028	-0.005
-103.947	0.269	0.138	0.097
-102.932	-45.651	0.035	-0.017
-101.918	-28.796	-0.162	-0.091
-100.903	-81.453	-0.374	0.120
-99.889	202.590	-0.225	-0.339
-98.874	-60.964	0.210	0.087
-97.859	270.946	-0.144	-0.248
-96.845	-113.028	0.131	-0.025
-95.830	-42.097	0.203	-0.102
-94.816	52.915	0.092	0.086
-93.801	209.669	0.085	0.131
-92.786	122.396	0.176	0.215
-91.772	267.182	-0.038	-0.064
-90.757	-200.000	0.003	0.260
-89.743	-152.130	-0.214	-0.015
-88.728	-44.477	-0.010	0.005
-87.713	-133.173	-0.421	-0.052
-86.699	169.491	-0.072	-0.101
-85.684	-130.282	0.085	-0.011
-84.670	-114.534	0.667	0.125
-83.655	800.000	-0.064	-0.257
-82.640	-7.467	0.130	0.086
-81.626	-103.270	0.315	0.073
-80.611	-116.494	0.173	0.031
-79.597	-38.984	0.176	0.090
-78.582	-46.629	-0.114	0.055
-77.567	-166.605	0.262	0.011
-76.553	-46.983	-0.340	-0.162
-75.538	-86.498	0.061	-0.018
-74.524	614.622	0.157	-0.385
-73.509	37.868	-0.123	0.107
-72.494	-36.543	0.100	0.053
-71.480	85.424	-0.232	0.249
-70.465	177.123	0.137	-0.195
-69.451	-200.000	0.045	0.279
-68.436	-200.000	0.018	0.213
-67.422	371.105	0.319	0.633
-66.407	800.000	-0.079	-0.234
-65.392	-44.665	0.520	0.254
-64.378	-162.986	0.249	0.012
-63.363	-200.000	0.035	0.453
-62.349	-200.000	0.189	-0.000
-61.334	145.196	-0.938	-1.226
-60.319	192.584	0.731	1.077
-59.305	652.317	-0.535	-1.339
-58.290	245.471	0.791	1.299
-57.276	245.049	1.100	1.806
-56.261	-200.000	122.526	615.855
-55.246	378.818	1574.003	3145.290
-54.232	139.954	2746.148	3533.733
-53.217	93.872	2185.167	2418.120
-52.203	35.823	1612.068	1383.704
-51.188	27.301	1354.484	1110.793
-50.173	24.696	1316.729	1064.299
-49.159	50.266	1383.983	1276.108
-48.144	48.170	1395.988	1274.306
-47.130	27.561	1344.367	1103.898
-46.115	24.280	1325.493	1068.720
-45.100	24.091	1320.372	1063.420
-44.086	24.120	1318.055	1061.687
-43.071	24.070	1316.143	1059.805
-42.057	23.903	1314.273	1057.267
-41.042	24.144	1312.195	1056.985
-40.027	24.003	1310.716	1054.916
-39.013	24.086	1308.389	1053.492
-37.998	24.046	1307.114	1052.183
-36.984	24.166	1305.001	1051.150
-35.969	24.140	1303.105	1049.427
-34.954	24.151	1301.789	1048.390
-33.940	24.111	1300.619	1047.174
-32.925	24.041	1299.173	1045.558
-31.911	24.168	1297.547	1044.952
-30.896	24.321	1295.392	1044.073
-29.881	24.187	1294.923	1042.866
-28.867	24.193	1294.134	1042.223
-27.852	24.201	1292.646	1041.033
-26.838	24.287	1290.459	1039.729
-25.823	24.285	1289.568	1038.960
-24.809	24.253	1288.008	1037.478
-23.794	24.142	1287.256	1036.185
-22.779	24.226	1285.541	1035.250
-21.765	24.219	1284.433	1034.277
-20.750	24.281	1283.300	1033.682
-19.736	24.246	1281.647	1032.105
-18.721	24.132	1280.887	1030.792
-17.706	24.187	1279.540	1029.989
-16.692	24.153	1278.338	1028.783
-15.677	24.159	1277.149	1027.817
-14.663	24.068	1276.224	1026.511
-13.648	24.088	1275.049	1025.638
-12.633	24.085	1274.111	1024.825
-11.619	24.096	1273.020	1023.973
-10.604	24.006	1272.457	1022.962
-9.590	24.074	1271.172	1022.279
-8.575	24.001	1270.468	1021.253
-7.560	24.017	1269.298	1020.361
-6.546	24.101	1268.754	1020.364
-5.531	24.088	1267.369	1019.137
-4.517	24.036	1266.551	1018.139
-3.502	24.036	1266.275	1017.881
-2.487	24.049	1265.051	1016.930
-1.473	24.050	1261.079	1013.701
-0.458	22.881	1245.574	994.619
0.556	18.464	1229.644	957.768
1.571	15.119	1237.104	944.657
2.586	14.361	1252.286	951.834
3.600	14.103	1240.574	941.390
4.615	10.485	1167.231	866.352
5.629	3.922	1095.061	779.724
6.644	0.831	1077.712	751.955
7.659	0.657	1075.613	749.560
8.673	0.707	1074.551	749.000
9.688	0.576	1073.596	747.622
10.702	0.840	1071.343	747.293
11.717	4.775	1075.652	769.719
12.731	11.552	1084.937	809.994
13.746	16.039	1089.802	835.858
14.761	17.229	1091.568	843.047
15.775	16.549	1089.703	838.160
16.790	15.554	1087.519	831.486
17.804	14.865	1086.029	826.866
18.819	14.515	1084.988	824.272
19.834	14.257	1084.007	822.177
20.848	14.029	1083.364	820.492
21.863	13.840	1082.481	818.819
22.877	13.770	1081.433	817.609
23.892	13.665	1080.439	816.265
24.907	13.686	1079.936	815.920
25.921	13.733	1079.656	815.867
26.936	13.725	1078.268	814.705
27.950	13.718	1077.505	814.021
28.965	13.779	1076.485	813.480
29.980	13.743	1075.211	812.267
30.994	13.956	1073.307	811.800
32.009	13.878	1072.850	811.002
33.023	13.862	1071.882	810.118
34.038	13.807	1070.485	808.724
35.053	13.656	1070.124	807.643
36.067	13.689	1069.127	806.982
37.082	13.628	1068.416	806.076
38.096	13.757	1067.124	805.654
39.111	13.742	1066.767	805.243
40.126	13.651	1065.708	803.928
41.140	13.661	1063.931	802.565
42.155	13.555	1062.849	801.167
43.169	13.547	1061.890	800.334
44.184	13.605	1060.714	799.657
45.199	13.457	1060.158	798.455
46.213	13.683	1058.633	798.325
47.228	13.764	1057.707	797.943
48.242	13.568	1057.062	796.444
49.257	13.679	1055.722	795.898
50.271	13.786	1054.776	795.628
51.286	13.731	1053.778	794.541
52.301	13.839	1052.620	794.111
53.315	13.705	1052.016	792.948
54.330	13.820	1050.657	792.399
55.344	13.704	1050.133	791.381
56.359	13.676	1048.984	790.311
57.374	13.553	1048.445	789.251
58.388	13.605	1047.219	788.507
59.403	13.639	1046.621	788.148
60.417	13.608	1045.326	786.957
61.432	13.529	1045.027	786.285
62.447	13.494	1044.260	785.472
63.461	13.569	1043.191	784.956
64.476	13.522	1042.417	784.080
65.490	13.489	1041.708	783.324
66.505	13.697	1040.305	783.178
67.520	13.629	1040.007	782.564
68.534	13.621	1039.418	782.015
69.549	13.572	1039.179	781.536
70.563	13.621	1037.673	780.566
71.578	13.383	1037.424	779.188
72.593	13.463	1036.693	778.947
73.607	13.578	1035.418	778.457
74.622	13.532	1034.601	777.559
75.636	13.501	1033.931	776.843
76.651	13.593	1033.217	776.666
77.666	13.473	1033.242	776.056
78.680	13.457	1032.443	775.311
79.695	13.615	1031.161	775.017
80.709	13.574	1030.992	774.633
81.724	13.558	1030.068	773.795
82.739	13.660	1029.217	773.563
83.753	13.668	1028.363	772.888
84.768	13.804	1027.106	772.512
85.782	13.872	1026.689	772.442
86.797	13.618	1026.136	770.776
87.812	13.859	1024.383	770.514
88.826	13.661	1023.887	769.155
89.841	13.788	1022.625	768.723
90.855	13.762	1021.896	767.986
91.870	13.667	1021.281	767.016
92.884	13.868	1020.104	766.995
93.899	13.726	1019.723	765.986
94.914	13.874	1018.446	765.640
95.928	13.895	1017.535	764.987
96.943	13.821	1016.601	763.873
97.957	13.711	1015.971	762.828
98.972	13.773	1015.153	762.431
99.987	13.798	1014.215	761.774
101.001	13.885	1012.840	761.071
102.016	13.829	1012.093	760.185
103.030	13.884	1011.602	760.003
104.045	13.885	1010.418	759.050
105.060	13.826	1009.423	757.969
106.074	13.727	1008.847	757.014
107.089	13.723	1007.837	756.175
108.103	13.757	1006.788	755.473
109.118	13.580	1006.364	754.281
110.133	13.647	1005.278	753.709
111.147	13.687	1004.382	753.149
112.162	13.628	1003.987	752.521
113.176	13.630	1003.049	751.760
114.191	13.794	1001.584	751.337
115.206	13.733	1001.188	750.698
116.220	13.707	1000.281	749.833
117.235	13.656	999.567	749.001
118.249	13.785	998.307	748.574
119.264	13.747	997.781	747.940
120.279	13.709	997.139	747.223
121.293	13.667	996.075	746.169
122.308	13.611	995.760	745.616
123.322	13.605	994.344	744.463
124.337	13.623	993.539	743.874
125.352	13.776	992.394	743.638
126.366	13.683	991.393	742.405
127.381	13.777	989.563	741.390
128.395	13.678	989.193	740.606
129.410	13.755	988.251	740.178
130.424	13.741	987.356	739.379
131.439	13.760	986.630	738.855
132.454	13.714	986.052	738.152
133.468	13.717	985.314	737.546
134.483	13.890	984.002	737.268
135.497	13.920	983.297	736.807
136.512	13.815	982.316	735.542
137.527	13.653	981.603	734.226
138.541	13.803	980.742	734.181
139.556	13.752	980.250	733.522
140.570	13.946	979.546	733.787
141.585	14.024	978.124	733.003
142.600	13.946	977.412	732.059
143.614	13.883	976.919	731.348
144.629	14.035	976.002	731.263
145.643	13.966	975.324	730.387
146.658	13.888	974.090	729.058
147.673	13.897	973.186	728.355
148.687	13.916	972.237	727.667
149.702	14.005	971.153	727.177
150.716	13.786	971.045	726.073
151.731	13.818	970.529	725.765
152.746	13.911	969.459	725.306
153.760	13.970	968.707	724.936
154.775	13.978	968.184	724.514
155.789	14.039	967.841	724.462
156.804	14.043	967.025	723.806
157.819	14.039	966.347	723.216
158.833	14.072	965.607	722.740
159.848	14.233	964.318	722.412
160.862	14.119	963.385	721.156
161.877	14.065	962.695	720.338
162.892	13.989	961.535	719.077
163.906	13.994	961.034	718.664
164.921	13.968	960.498	718.086
165.935	13.983	959.366	717.239
166.950	14.132	958.311	717.032
167.964	14.159	957.493	716.473
168.979	14.124	956.792	715.733
169.994	14.133	955.558	714.787
171.008	14.080	955.153	714.192
172.023	14.125	954.458	713.803
173.037	14.237	953.697	713.650
174.052	14.217	953.164	713.102
175.067	14.067	953.104	712.352
176.081	14.101	951.882	711.521
177.096	14.234	951.590	711.807
178.110	14.144	950.452	710.511
179.125	14.184	949.831	710.155
180.140	14.294	949.630	710.410
181.154	14.164	949.181	709.455
182.169	14.273	948.430	709.297
183.183	14.171	948.036	708.505
184.198	14.382	947.027	708.585
185.213	14.439	946.031	708.021
186.227	14.402	945.925	707.719
187.242	14.296	945.312	706.749
188.256	14.518	944.265	706.847
189.271	14.367	943.856	705.837
190.286	14.335	942.901	704.927
191.300	14.301	942.322	704.288
192.315	14.335	941.621	703.844
193.329	14.234	941.306	703.118
194.344	14.376	940.609	703.136
195.359	14.474	939.676	702.789
196.373	14.449	939.319	702.355
197.388	14.452	938.782	701.904
198.402	14.413	938.422	701.407
199.417	14.485	937.402	700.888
200.432	14.526	937.070	700.747
201.446	14.549	936.599	700.429
202.461	14.681	936.041	700.504
203.475	14.535	935.439	699.379
204.490	14.575	934.812	699.019
205.504	14.501	933.739	697.845
206.519	14.682	932.799	697.837
207.534	14.592	932.042	696.834
208.548	14.650	931.401	696.533
209.563	14.654	930.718	695.977
210.577	14.727	929.984	695.673
211.592	14.825	928.852	695.169
212.607	14.770	928.487	694.609
213.621	14.699	928.292	694.103
214.636	14.700	927.026	693.100
215.650	14.751	926.281	692.693
216.665	14.713	926.208	692.418
217.680	14.907	924.662	692.007
218.694	14.958	924.088	691.726
219.709	14.863	923.637	690.936
220.723	14.815	922.915	690.135
221.738	14.883	921.979	689.655
222.753	15.010	921.105	689.464
223.767	14.931	920.859	688.891
224.782	14.899	920.438	688.386
225.796	15.014	919.713	688.256
226.811	14.951	919.223	687.568
227.826	14.878	918.710	686.825
228.840	14.924	917.774	686.251
229.855	14.871	917.194	685.543
230.869	15.095	915.961	685.475
231.884	14.913	915.783	684.537
232.899	14.974	914.624	683.861
233.913	14.902	914.553	683.452
234.928	14.976	913.698	683.054
235.942	14.885	913.621	682.563
236.957	15.010	912.492	682.171
237.972	14.786	911.977	680.813
238.986	15.097	910.956	681.254
240.001	15.000	910.822	680.701
241.015	14.969	909.960	679.872
242.030	15.008	909.642	679.729
243.045	15.014	908.748	679.026
244.059	15.116	907.570	678.499
245.074	15.025	907.404	677.946
246.088	15.088	906.601	677.541
247.103	15.325	905.795	677.836
248.117	15.294	905.378	677.341
249.132	15.235	904.607	676.465
250.147	15.342	904.156	676.502
251.161	15.339	903.081	675.625
252.176	15.412	902.783	675.637
253.190	15.482	901.918	675.211
254.205	15.359	901.561	674.389
255.220	15.418	900.524	673.789
256.234	15.348	899.961	673.029
257.249	15.466	899.446	673.057
258.263	15.471	898.142	672.040
259.278	15.534	897.617	671.840
260.293	15.562	897.160	671.552
261.307	15.685	896.755	671.679
262.322	15.575	896.395	670.911
263.336	15.544	895.308	669.914
264.351	15.451	894.490	668.872
265.366	15.661	893.576	668.968
266.380	15.649	893.486	668.794
267.395	15.691	892.560	668.208
268.409	15.660	891.766	667.431
269.424	15.664	890.761	666.636
270.439	15.602	890.622	666.224
271.453	15.695	889.756	665.889
272.468	15.718	889.178	665.488
273.482	15.614	889.015	664.894
274.497	15.747	887.690	664.369
275.512	15.708	887.632	664.113
276.526	15.776	887.292	664.071
277.541	15.805	886.644	663.638
278.555	15.757	886.007	662.916
279.570	15.724	885.157	662.090
280.585	15.805	884.275	661.692
281.599	15.899	883.517	661.436
282.614	15.834	883.043	660.765
283.628	15.904	882.255	660.391
284.643	15.952	881.878	660.242
285.657	15.908	881.218	659.516
286.672	15.898	880.345	658.765
287.687	16.020	879.674	658.683
288.701	15.820	879.315	657.574
289.716	15.822	878.805	657.140
290.730	16.115	877.674	657.377
291.745	16.078	877.384	656.961
292.760	16.089	876.852	656.548
293.774	16.004	876.237	655.697
294.789	15.895	875.590	654.731
295.803	16.085	874.878	654.877
296.818	15.952	874.282	653.859
297.833	15.995	873.406	653.312
298.847	16.102	872.710	653.148
299.862	16.124	872.228	652.816
300.876	16.135	871.704	652.406
301.891	16.249	870.871	652.166
302.906	16.283	870.309	651.820
303.920	16.260	870.011	651.449
304.935	16.207	869.603	650.880
305.949	16.301	868.825	650.605
306.964	16.243	868.311	649.940
307.979	16.286	867.668	649.565
308.993	16.216	866.906	648.667
310.008	16.289	866.822	648.828
311.022	16.256	866.330	648.274
312.037	16.338	865.659	648.029
313.052	16.274	865.106	647.314
314.066	16.289	864.465	646.834
315.081	16.494	863.138	646.569
316.095	16.291	863.145	645.741
317.110	16.310	862.649	645.384
318.125	16.369	862.127	645.165
319.139	16.278	862.025	644.683
320.154	16.457	861.245	644.723
321.168	16.300	860.608	643.593
322.183	16.395	859.943	643.400
323.197	16.368	859.336	642.786
324.212	16.425	858.775	642.526
325.227	16.490	858.049	642.174
326.241	16.444	857.688	641.669
327.256	16.551	856.998	641.502
328.270	16.558	856.648	641.212
329.285	16.445	855.996	640.239
330.300	16.566	855.208	640.052
331.314	16.500	854.795	639.437
332.329	16.465	854.234	638.827
333.343	16.556	854.244	639.123
334.358	16.506	853.739	638.501
335.373	16.646	853.065	638.468
336.387	16.619	852.704	638.038
337.402	16.655	852.337	637.843
338.416	16.783	852.015	638.027
339.431	16.716	851.937	637.662
340.446	16.751	850.988	637.025
341.460	16.780	850.885	637.001
342.475	16.768	850.417	636.550
343.489	16.853	849.906	636.428
344.504	16.931	849.255	636.178
345.519	16.768	849.121	635.409
346.533	16.932	848.185	635.267
347.548	16.823	847.742	634.470
348.562	16.948	847.471	634.682
349.577	16.857	846.606	633.636
350.592	16.764	846.034	632.804
351.606	16.851	845.170	632.425
352.621	16.793	844.631	631.751
353.635	16.867	844.160	631.620
354.650	16.886	843.766	631.340
355.665	16.814	843.340	630.696
356.679	17.028	842.208	630.589
357.694	16.925	841.435	629.574
358.708	16.970	841.259	629.550
359.723	17.061	840.516	629.279
360.738	17.041	839.826	628.630
361.752	16.961	839.699	628.185
362.767	17.210	838.801	628.379
363.781	16.984	838.620	627.351
364.796	17.118	837.743	627.133
365.810	17.107	837.472	626.836
366.825	17.144	837.021	626.578
367.840	17.290	836.418	626.612
368.854	17.254	835.925	626.051
369.869	17.196	835.597	625.539
370.883	17.237	835.539	625.591
371.898	17.281	834.758	625.113
372.913	17.354	834.081	624.820
373.927	17.393	833.608	624.552
374.942	17.387	833.432	624.344
375.956	17.287	833.334	623.846
376.971	17.436	832.491	623.707
377.986	17.428	831.773	623.086
379.000	17.585	831.141	623.130
380.015	17.583	830.888	622.879
381.029	17.321	830.523	621.593
382.044	17.414	830.131	621.584
383.059	17.502	829.338	621.257
384.073	17.572	828.786	621.043
385.088	17.494	828.346	620.373
386.102	17.448	827.604	619.596
387.117	17.536	827.046	619.441
388.132	17.559	826.305	618.916
389.146	17.507	825.705	618.222
390.161	17.432	825.851	618.007
391.175	17.614	824.890	617.891
392.190	17.607	824.416	617.456
393.205	17.580	823.910	616.926
394.219	17.609	823.466	616.645
395.234	17.589	823.171	616.296
396.248	17.379	823.444	615.685
397.263	17.561	822.635	615.683
398.278	17.666	822.116	615.620
399.292	17.582	821.324	614.669
400.307	17.587	821.165	614.514
401.321	17.567	820.648	614.002
402.336	17.536	820.213	613.511
403.350	17.675	819.827	613.668
404.365	17.765	819.214	613.479
405.380	17.897	818.704	613.517
406.394	17.883	818.458	613.227
407.409	17.880	817.557	612.488
408.423	17.849	817.387	612.196
409.438	17.823	817.308	611.989
410.453	17.836	816.668	611.501
411.467	17.892	816.473	611.501
412.482	17.957	815.910	611.259
413.496	17.934	815.778	611.024
414.511	18.040	814.815	610.627
415.526	18.046	814.172	610.112
416.540	17.996	814.073	609.804
417.555	18.146	813.307	609.711
418.569	18.006	813.165	609.053
419.584	18.094	812.827	609.058
420.599	17.971	812.366	608.222
421.613	114.570	1298.902	1486.897
422.628	99.152	1369.769	1486.948
