DTS Sentinel unit serial number:	SN413079Multiplexer serial number:	ORYXHardware model number:	OX4-SRSoftware version number:	ORYX F/W v4.00 Oryx Data Collector v3.7.2.0data status	okinstallation	princeton_trtdifferential loss correction	single-endedforward channel	channel 1reverse channel	N/Adate	2019/09/12time	03:28:11forward acquisition time	60.00reverse acquisition time	0.00gamma	496.2192k internal	0.2322k external	0.2322temperature offset calibration	1.0082default loss term (dB/km)	0.3790temperature slope calibration	1.0000multiplexer offset coefficient	1.0000multiplexer slope coefficient	1.0000fibre end	0.00T internal ref (°C)	32.19T ext. ref 1 (°C)	2.13T ext. ref 2 (°C)	27.22length (m)	temperature (°C)	Stokes	anti-Stokes-747.200	-96.876	-0.293	0.078
-746.185	-86.914	-0.254	-0.078
-745.171	-135.461	0.177	-0.021
-744.156	-75.886	-0.082	-0.029
-743.142	45.261	-0.205	0.191
-742.127	800.000	-0.094	0.399
-741.112	-194.302	-0.189	-0.002
-740.098	165.475	-0.147	0.210
-739.083	17.229	0.109	0.087
-738.069	128.592	0.330	0.424
-737.054	130.159	-0.126	-0.163
-736.039	800.000	-0.036	-0.138
-735.025	319.483	0.143	-0.274
-734.010	-200.000	-0.007	-0.071
-732.996	167.950	-0.179	-0.257
-731.981	130.500	0.118	-0.153
-730.966	-102.094	-0.027	-0.007
-729.952	424.748	-0.166	0.362
-728.937	-96.410	0.170	0.045
-727.923	800.000	-0.053	-0.222
-726.908	-39.018	0.122	0.065
-725.894	83.420	0.045	-0.050
-724.879	-146.773	0.237	0.021
-723.864	800.000	-0.038	0.145
-722.850	800.000	-0.057	-0.251
-721.835	-63.367	-0.102	-0.042
-720.821	-101.248	-0.432	-0.107
-719.806	-200.000	-0.009	0.229
-718.791	246.367	-0.220	0.375
-717.777	51.426	-0.313	-0.300
-716.762	-171.805	-0.258	-0.009
-715.748	-200.000	0.033	-0.345
-714.733	-171.701	-0.064	-0.002
-713.718	-96.416	-0.161	-0.043
-712.704	-137.883	-0.233	0.026
-711.689	-200.000	-0.014	0.072
-710.675	66.135	0.032	0.033
-709.660	195.524	-0.202	0.310
-708.645	-83.727	0.456	0.147
-707.631	-149.119	-0.237	-0.019
-706.616	-3.276	0.315	-0.222
-705.602	3.515	-0.184	-0.136
-704.587	800.000	-0.025	0.092
-703.572	-16.737	0.149	-0.095
-702.558	-113.017	-0.228	0.045
-701.543	571.330	0.066	-0.163
-700.529	-175.997	0.241	-0.006
-699.514	173.062	0.329	0.478
-698.499	-200.000	-0.039	0.210
-697.485	65.568	0.193	-0.197
-696.470	88.948	-0.203	0.228
-695.456	304.255	0.138	0.258
-694.441	-70.314	0.262	0.100
-693.426	-134.956	-0.045	-0.006
-692.412	167.809	-0.036	-0.052
-691.397	211.997	0.176	0.279
-690.383	-37.034	-0.272	0.147
-689.368	-200.000	0.007	-0.244
-688.354	-14.432	-0.310	-0.201
-687.339	-158.512	-0.105	-0.006
-686.324	20.178	0.091	-0.074
-685.310	-80.199	-0.105	0.036
-684.295	-37.552	0.098	0.053
-683.281	-92.777	-0.363	0.102
-682.266	-133.025	-0.111	0.014
-681.251	-166.854	-0.355	-0.015
-680.237	-200.000	-0.039	-0.230
-679.222	-126.246	-0.279	-0.042
-678.208	800.000	-0.130	-0.536
-677.193	45.407	-0.055	-0.051
-676.178	262.784	0.142	-0.249
-675.164	-200.000	0.049	-0.286
-674.149	800.000	0.045	-0.175
-673.135	-200.000	0.033	0.302
-672.120	495.317	0.135	-0.312
-671.105	401.739	0.107	-0.226
-670.091	315.012	0.170	-0.324
-669.076	-110.301	0.119	0.025
-668.062	-54.446	-0.348	-0.159
-667.047	-200.000	-0.040	0.247
-666.032	205.431	-0.114	0.179
-665.018	-38.553	-0.280	0.149
-664.003	-35.971	-0.113	-0.062
-662.989	-53.351	-0.303	0.140
-661.974	-147.417	-0.100	-0.009
-660.959	259.055	0.048	0.083
-659.945	-200.000	0.065	-0.392
-658.930	171.942	0.265	-0.383
-657.916	-4.790	0.160	-0.111
-656.901	800.000	0.011	0.043
-655.886	-200.000	0.037	0.288
-654.872	-37.489	-0.088	0.047
-653.857	384.075	-0.143	-0.297
-652.843	-92.285	-0.386	-0.110
-651.828	191.932	0.192	-0.291
-650.814	467.549	0.106	-0.239
-649.799	-131.885	0.225	0.030
-648.784	-72.136	-0.203	-0.076
-647.770	-5.290	0.173	-0.120
-646.755	18.787	0.277	-0.223
-645.741	-48.500	-0.126	0.061
-644.726	-166.419	0.124	-0.005
-643.711	-159.363	0.297	0.017
-642.697	79.116	-0.188	-0.203
-641.682	216.720	-0.075	0.120
-640.668	473.156	0.023	-0.052
-639.653	-95.230	0.246	0.067
-638.638	-23.439	0.115	0.069
-637.624	800.000	-0.038	0.122
-636.609	70.249	-0.047	0.049
-635.595	800.000	-0.090	-0.370
-634.580	-134.418	0.240	0.030
-633.565	33.673	-0.255	0.223
-632.551	-200.000	0.014	-0.073
-631.536	-79.222	0.347	-0.118
-630.522	-138.565	0.060	0.007
-629.507	-20.438	0.265	-0.164
-628.492	655.412	0.065	-0.168
-627.478	61.024	0.078	-0.078
-626.463	800.000	-0.040	-0.132
-625.449	68.469	0.039	-0.040
-624.434	-171.536	-0.028	-0.001
-623.419	-123.713	0.281	-0.045
-622.405	-84.132	-0.265	0.085
-621.390	20.521	0.183	0.148
-620.376	144.267	-0.212	0.284
-619.361	-34.120	0.320	0.177
-618.346	800.000	0.045	0.129
-617.332	800.000	0.060	0.183
-616.317	16.785	0.192	-0.153
-615.303	-128.046	0.062	-0.009
-614.288	127.811	0.128	-0.164
-613.273	195.868	0.107	0.164
-612.259	-200.000	0.023	-0.131
-611.244	1.145	-0.128	0.093
-610.230	83.320	0.095	-0.104
-609.215	95.327	0.060	-0.069
-608.201	-38.796	-0.134	0.071
-607.186	504.506	-0.101	0.236
-606.171	120.223	-0.052	-0.064
-605.157	3.846	0.237	-0.174
-604.142	211.685	0.048	-0.076
-603.128	-200.000	0.049	0.313
-602.113	397.225	-0.031	0.066
-601.098	-186.455	-0.149	-0.002
-600.084	-200.000	0.024	0.170
-599.069	-46.317	-0.155	-0.077
-598.055	135.237	0.136	0.178
-597.040	800.000	-0.061	0.179
-596.025	-166.344	-0.391	-0.017
-595.011	-34.090	0.118	0.065
-593.996	-200.000	-0.015	0.158
-592.982	-34.316	0.274	0.151
-591.967	800.000	-0.089	0.290
-590.952	-89.609	-0.164	-0.048
-589.938	-200.000	-0.024	-0.118
-588.923	-124.554	0.427	-0.067
-587.909	-133.258	-0.087	0.011
-586.894	-104.838	0.286	-0.066
-585.879	83.086	-0.104	-0.114
-584.865	249.601	0.083	0.142
-583.850	255.104	-0.142	-0.245
-582.836	535.787	-0.131	-0.312
-581.821	30.932	-0.105	-0.090
-580.806	39.107	0.197	0.177
-579.792	-200.000	-0.076	0.388
-578.777	-153.469	0.172	0.012
-577.763	-200.000	-0.000	-0.033
-576.748	-77.573	-0.125	-0.043
-575.733	-200.000	0.016	0.106
-574.719	56.289	-0.193	-0.188
-573.704	250.487	0.132	0.225
-572.690	-200.000	-0.018	0.116
-571.675	-200.000	-0.060	0.275
-570.661	6.777	-0.215	-0.161
-569.646	-200.000	0.035	-0.184
-568.631	-44.846	-0.112	0.056
-567.617	-200.000	0.049	0.364
-566.602	-62.216	-0.095	0.040
-565.588	-200.000	-0.022	-0.352
-564.573	-148.858	0.403	0.033
-563.558	40.582	-0.179	-0.162
-562.544	800.000	0.057	-0.166
-561.529	38.444	-0.228	-0.204
-560.515	800.000	-0.132	-0.365
-559.500	-200.000	0.094	-0.562
-558.485	210.894	-0.136	0.215
-557.471	-161.679	0.202	0.010
-556.456	436.306	-0.142	0.309
-555.442	-41.699	-0.121	-0.062
-554.427	-100.811	0.219	-0.054
-553.412	74.101	-0.263	0.277
-552.398	-51.228	0.106	-0.050
-551.383	186.650	0.098	-0.147
-550.369	189.599	-0.078	-0.117
-549.354	-200.000	0.053	-0.373
-548.339	-150.776	-0.151	-0.011
-547.325	-136.934	0.548	0.063
-546.310	-200.000	0.011	0.252
-545.296	676.180	0.090	0.233
-544.281	16.702	0.190	-0.151
-543.266	19.433	0.101	-0.082
-542.252	-45.268	0.139	0.069
-541.237	-12.616	-0.258	-0.169
-540.223	-130.288	-0.187	-0.025
-539.208	97.971	0.196	0.226
-538.193	-141.224	-0.153	0.016
-537.179	-11.320	0.071	0.047
-536.164	156.381	0.052	0.072
-535.150	-128.093	0.096	0.014
-534.135	134.473	0.065	-0.084
-533.121	206.230	-0.077	-0.120
-532.106	-107.131	-0.213	0.047
-531.091	-107.634	0.257	-0.056
-530.077	104.575	0.199	-0.235
-529.062	-1.778	-0.103	-0.073
-528.048	-92.373	0.062	0.018
-527.033	179.396	-0.259	0.380
-526.018	104.096	-0.101	-0.120
-525.004	-17.259	-0.160	0.101
-523.989	129.996	-0.112	0.143
-522.975	-12.926	0.086	-0.056
-521.960	-28.306	0.134	-0.078
-520.945	-200.000	-0.038	-0.168
-519.931	-115.033	-0.177	0.034
-518.916	44.758	-0.156	-0.144
-517.902	-161.659	-0.013	-0.001
-516.887	-200.000	0.017	0.136
-515.872	800.000	0.083	0.293
-514.858	800.000	0.080	-0.279
-513.843	-72.471	-0.223	-0.082
-512.829	-200.000	-0.007	-0.225
-511.814	-94.893	0.137	0.037
-510.799	-142.511	-0.055	0.005
-509.785	-196.278	0.268	-0.002
-508.770	237.500	0.172	-0.286
-507.756	-136.777	-0.421	-0.049
-506.741	-184.559	0.223	-0.004
-505.726	-91.832	-0.288	-0.082
-504.712	-200.000	-0.001	-0.230
-503.697	60.098	-0.158	-0.156
-502.683	-125.793	0.651	-0.098
-501.668	146.602	0.140	-0.188
-500.653	-72.474	0.102	0.038
-499.639	800.000	-0.024	-0.080
-498.624	-200.000	-0.016	-0.375
-497.610	-50.789	-0.169	0.079
-496.595	-97.158	0.134	-0.035
-495.581	155.166	0.124	0.171
-494.566	289.622	0.194	0.351
-493.551	-170.141	-0.316	0.011
-492.537	32.917	-0.054	-0.047
-491.522	179.293	-0.083	-0.121
-490.508	318.506	0.068	0.128
-489.493	-87.921	-0.183	0.055
-488.478	-200.000	0.008	0.253
-487.464	-66.306	-0.153	-0.061
-486.449	-46.306	0.244	-0.120
-485.435	-155.757	0.370	-0.024
-484.420	-200.000	0.009	-0.156
-483.405	78.240	0.149	-0.160
-482.391	414.168	0.072	-0.154
-481.376	-200.000	-0.054	-0.238
-480.362	-200.000	0.063	-0.367
-479.347	-55.518	-0.429	-0.192
-478.332	-134.783	-0.260	-0.032
-477.318	-5.111	0.044	0.030
-476.303	-75.000	0.382	-0.137
-475.289	-159.634	-0.192	-0.011
-474.274	-165.352	-0.351	0.015
-473.259	800.000	0.079	-0.313
-472.245	-200.000	-0.006	-0.171
-471.230	800.000	-0.037	0.157
-470.216	278.615	-0.065	0.116
-469.201	-200.000	-0.011	-0.264
-468.186	-200.000	0.056	0.354
-467.172	-134.853	0.199	-0.024
-466.157	-94.137	-0.139	0.038
-465.143	-61.650	-0.311	-0.130
-464.128	-154.094	0.395	0.027
-463.113	-124.841	0.109	-0.017
-462.099	109.532	-0.164	0.196
-461.084	-200.000	-0.003	-0.270
-460.070	-200.000	0.024	-0.282
-459.055	-200.000	-0.016	-0.166
-458.040	800.000	0.049	0.160
-457.026	208.894	-0.108	0.169
-456.011	-0.118	0.195	0.139
-454.997	610.083	-0.078	0.196
-453.982	-112.694	0.410	0.081
-452.968	201.420	-0.061	-0.094
-451.953	-126.732	-0.192	0.028
-450.938	-12.303	-0.040	-0.026
-449.924	-76.625	-0.237	-0.083
-448.909	484.930	-0.083	-0.190
-447.895	-200.000	-0.044	-0.246
-446.880	-137.371	0.209	0.024
-445.865	623.714	-0.079	-0.199
-444.851	-200.000	0.018	-0.441
-443.836	-21.436	0.162	-0.099
-442.822	-154.829	0.118	-0.008
-441.807	211.721	0.244	-0.384
-440.792	-200.000	-0.068	0.308
-439.778	-136.631	0.043	0.005
-438.763	-104.655	0.047	0.011
-437.749	-76.106	-0.108	0.038
-436.734	-50.230	-0.021	-0.010
-435.719	52.900	0.198	0.189
-434.705	-105.551	-0.207	0.047
-433.690	76.333	0.089	-0.094
-432.676	-10.441	-0.179	0.118
-431.661	-200.000	-0.007	0.035
-430.646	121.840	0.151	-0.189
-429.632	76.953	-0.122	-0.129
-428.617	-200.000	-0.002	-0.191
-427.603	-163.581	-0.197	0.009
-426.588	95.671	-0.007	-0.008
-425.573	800.000	0.065	0.206
-424.559	37.205	0.123	0.109
-423.544	115.268	-0.078	0.096
-422.530	-94.457	0.118	0.032
-421.515	113.171	0.240	0.290
-420.500	-30.837	-0.005	0.003
-419.486	-200.000	0.004	-0.214
-418.471	800.000	-0.056	-0.228
-417.457	-151.626	0.055	-0.004
-416.442	78.153	-0.253	-0.269
-415.428	16.426	0.108	0.085
-414.413	800.000	0.038	0.146
-413.398	46.896	0.043	0.040
-412.384	-129.205	0.132	-0.018
-411.369	-200.000	-0.067	0.339
-410.355	114.833	0.067	0.082
-409.340	-129.345	-0.060	-0.008
-408.325	-87.234	-0.233	-0.071
-407.311	88.023	-0.254	-0.280
-406.296	-101.801	0.172	0.042
-405.282	-78.345	0.290	0.099
-404.267	-28.482	-0.162	0.093
-403.252	443.352	0.062	0.136
-402.238	56.659	0.099	0.096
-401.223	166.740	0.040	0.057
-400.209	-200.000	-0.010	-0.047
-399.194	187.928	0.081	0.120
-398.179	800.000	-0.031	-0.130
-397.165	-200.000	0.023	0.178
-396.150	-200.000	0.022	-0.276
-395.136	-150.089	0.071	-0.006
-394.121	298.544	0.138	0.253
-393.106	58.871	-0.358	-0.351
-392.092	-90.341	-0.355	0.103
-391.077	-106.153	0.096	0.021
-390.063	93.634	-0.128	-0.144
-389.048	-200.000	0.020	0.180
-388.033	-124.713	-0.201	-0.031
-387.019	-198.785	0.411	-0.002
-386.004	-9.556	0.235	-0.156
-384.990	41.789	-0.263	0.237
-383.975	266.346	-0.073	0.127
-382.960	800.000	0.031	0.113
-381.946	253.421	-0.079	-0.134
-380.931	568.199	0.050	-0.122
-379.917	556.816	-0.099	0.239
-378.902	82.516	-0.113	-0.122
-377.888	83.668	0.208	-0.226
-376.873	783.820	-0.214	0.583
-375.858	-25.032	-0.090	0.053
-374.844	136.292	-0.094	0.122
-373.829	266.454	0.084	-0.147
-372.815	-65.630	-0.539	-0.215
-371.800	91.345	0.107	-0.119
-370.785	712.002	0.038	0.101
-369.771	-50.445	0.500	0.235
-368.756	-11.275	0.072	-0.047
-367.742	-82.163	-0.206	-0.067
-366.727	31.213	0.043	-0.037
-365.712	36.255	-0.176	-0.154
-364.698	-72.110	-0.142	0.052
-363.683	-18.686	-0.229	0.142
-362.669	-200.000	-0.104	0.573
-361.654	45.927	-0.150	0.139
-360.639	-78.250	-0.247	0.085
-359.625	269.829	-0.115	-0.200
-358.610	-177.541	-0.368	-0.009
-357.596	134.920	-0.147	0.190
-356.581	-88.027	-0.099	0.030
-355.566	-65.947	-0.252	-0.100
-354.552	-78.907	0.197	-0.067
-353.537	-92.962	0.099	0.028
-352.523	-200.000	-0.018	0.317
-351.508	-37.531	-0.414	-0.220
-350.493	-17.045	-0.296	-0.186
-349.479	336.752	0.068	-0.132
-348.464	215.692	-0.038	-0.060
-347.450	43.858	0.340	0.310
-346.435	-200.000	-0.043	-0.383
-345.420	213.616	-0.197	-0.310
-344.406	-79.650	-0.134	-0.045
-343.391	-200.000	0.014	0.263
-342.377	-6.254	0.066	0.045
-341.362	-19.671	0.173	-0.106
-340.348	-200.000	0.013	-0.539
-339.333	-137.996	0.210	0.023
-338.318	-147.695	-0.258	-0.022
-337.304	-53.250	0.104	-0.048
-336.289	128.753	-0.083	0.106
-335.275	18.534	0.127	0.101
-334.260	800.000	0.073	0.309
-333.245	800.000	0.007	0.025
-332.231	-144.382	-0.177	-0.016
-331.216	-200.000	0.018	-0.417
-330.202	18.416	0.138	-0.110
-329.187	29.093	-0.193	0.162
-328.172	-3.101	0.209	-0.145
-327.158	294.667	-0.024	-0.043
-326.143	-98.383	-0.156	0.040
-325.129	22.576	0.190	0.154
-324.114	-2.851	0.155	0.108
-323.099	-107.534	0.384	0.084
-322.085	734.508	-0.062	0.164
-321.070	-200.000	-0.077	0.532
-320.056	-95.266	-0.173	-0.046
-319.041	-31.366	0.153	-0.086
-318.026	124.604	-0.186	0.232
-317.012	-110.440	-0.187	-0.039
-315.997	14.477	-0.079	-0.061
-314.983	675.195	0.105	0.272
-313.968	-43.899	0.151	0.075
-312.953	-58.515	0.369	-0.159
-311.939	279.491	-0.106	0.188
-310.924	-200.000	0.003	0.279
-309.910	308.080	0.142	0.263
-308.895	107.981	-0.085	-0.100
-307.880	-66.658	0.094	0.037
-306.866	12.711	-0.177	0.135
-305.851	468.166	-0.119	-0.266
-304.837	-0.679	0.209	0.147
-303.822	-133.726	-0.275	0.034
-302.807	266.857	0.088	0.152
-301.793	83.007	-0.051	0.055
-300.778	22.788	-0.225	0.183
-299.764	800.000	-0.078	0.242
-298.749	-96.761	-0.105	0.028
-297.735	98.913	-0.158	-0.181
-296.720	-120.048	0.163	-0.028
-295.705	-25.415	0.357	-0.210
-294.691	279.357	-0.153	0.271
-293.676	-8.666	0.070	0.047
-292.662	-81.374	0.181	0.059
-291.647	-33.515	0.147	-0.080
-290.632	-136.679	-0.020	-0.002
-289.618	-200.000	0.086	-0.441
-288.603	-82.705	-0.181	-0.058
-287.589	105.055	0.081	-0.095
-286.574	11.206	0.170	0.129
-285.559	-200.000	-0.006	0.160
-284.545	0.186	-0.116	0.082
-283.530	-138.679	-0.266	0.029
-282.516	119.841	-0.100	-0.123
-281.501	35.790	0.071	-0.062
-280.486	-2.290	-0.290	-0.202
-279.472	800.000	-0.049	-0.179
-278.457	-93.120	-0.361	0.100
-277.443	339.864	0.055	-0.107
-276.428	227.554	-0.238	-0.383
-275.413	-200.000	0.019	0.309
-274.399	-200.000	-0.035	0.233
-273.384	13.794	0.381	-0.294
-272.370	-59.208	0.266	-0.114
-271.355	156.141	0.097	0.132
-270.340	-44.177	-0.143	0.071
-269.326	99.449	-0.176	0.202
-268.311	368.532	-0.084	-0.168
-267.297	107.553	0.143	-0.169
-266.282	-109.418	0.248	-0.052
-265.267	800.000	-0.066	0.217
-264.253	75.242	-0.243	0.254
-263.238	-103.752	0.047	-0.011
-262.224	-82.397	-0.411	0.132
-261.209	-96.060	-0.095	-0.025
-260.195	-1.280	0.206	-0.144
-259.180	-200.000	-0.025	0.219
-258.165	27.227	-0.194	-0.162
-257.151	-67.546	0.090	0.035
-256.136	-188.286	0.076	-0.001
-255.122	-25.753	-0.243	0.142
-254.107	-200.000	0.094	-0.413
-253.092	-76.556	-0.070	0.024
-252.078	800.000	0.059	0.171
-251.063	-99.453	-0.034	0.009
-250.049	-157.366	0.242	0.014
-249.034	431.227	-0.146	0.313
-248.019	133.779	-0.212	0.272
-247.005	37.935	-0.097	-0.086
-245.990	-200.000	0.006	-0.143
-244.976	-200.000	0.102	-0.000
-243.961	24.197	0.289	0.236
-242.946	800.000	-0.016	-0.071
-241.932	73.372	0.065	0.068
-240.917	-17.188	-0.143	0.089
-239.903	110.609	0.101	-0.120
-238.888	293.420	-0.106	0.192
-237.873	800.000	0.012	0.047
-236.859	-12.866	0.303	-0.195
-235.844	37.045	0.089	0.078
-234.830	258.920	-0.002	0.004
-233.815	-41.631	-0.043	-0.022
-232.800	17.163	0.091	0.072
-231.786	800.000	-0.030	-0.099
-230.771	3.774	0.148	0.107
-229.757	-103.454	-0.028	-0.007
-228.742	800.000	0.049	-0.190
-227.727	-123.486	0.200	-0.032
-226.713	800.000	0.060	-0.256
-225.698	-200.000	0.010	-0.112
-224.684	27.104	0.063	-0.052
-223.669	-67.675	-0.157	-0.061
-222.655	-200.000	0.035	0.437
-221.640	226.564	-0.071	-0.115
-220.625	372.002	0.188	-0.378
-219.611	1.062	-0.108	-0.077
-218.596	-200.000	-0.039	0.290
-217.582	440.131	0.064	-0.139
-216.567	-152.248	-0.188	0.013
-215.552	110.603	-0.121	0.144
-214.538	-10.371	-0.253	-0.166
-213.523	-19.832	-0.077	0.047
-212.509	-32.017	-0.253	-0.140
-211.494	371.076	0.100	-0.201
-210.479	-165.596	-0.146	-0.006
-209.465	100.463	-0.034	0.039
-208.450	-46.580	-0.319	0.155
-207.436	-64.702	0.249	-0.100
-206.421	198.458	0.141	0.213
-205.406	-160.123	0.256	0.014
-204.392	-85.923	-0.502	0.154
-203.377	187.561	-0.172	0.254
-202.363	14.138	0.252	0.194
-201.348	-40.451	0.343	0.176
-200.333	-115.516	-0.145	-0.027
-199.319	473.625	-0.022	0.049
-198.304	-97.678	0.330	0.085
-197.290	123.654	-0.140	0.173
-196.275	800.000	0.044	-0.170
-195.260	4.821	0.167	0.122
-194.246	345.115	0.089	0.173
-193.231	665.020	-0.120	0.306
-192.217	-82.806	-0.105	0.033
-191.202	-200.000	0.031	-0.353
-190.187	96.953	-0.092	-0.105
-189.173	-76.249	0.107	-0.037
-188.158	284.400	0.194	-0.345
-187.144	-122.598	0.125	-0.020
-186.129	-11.124	0.159	0.104
-185.114	7.006	-0.236	-0.174
-184.100	10.385	-0.216	0.163
-183.085	479.198	0.119	0.268
-182.071	-200.000	-0.002	-0.137
-181.056	172.673	0.046	0.066
-180.042	-128.082	0.499	0.071
-179.027	181.861	-0.114	0.166
-178.012	49.583	-0.046	0.043
-176.998	696.927	-0.037	-0.097
-175.983	54.396	-0.266	0.254
-174.969	-90.465	0.156	0.045
-173.954	-200.000	-0.003	0.299
-172.939	364.846	-0.038	0.076
-171.925	97.375	0.132	-0.150
-170.910	-200.000	0.049	0.252
-169.896	-48.390	0.182	-0.087
-168.881	-13.345	-0.064	-0.041
-167.866	-127.560	0.178	-0.026
-166.852	-200.000	-0.061	-0.266
-165.837	72.649	0.121	0.124
-164.823	-104.653	-0.183	0.042
-163.808	-65.001	-0.169	-0.067
-162.793	17.668	0.060	-0.047
-161.779	442.443	0.066	-0.143
-160.764	686.596	-0.077	0.199
-159.750	175.095	-0.093	0.133
-158.735	457.875	-0.073	0.159
-157.720	800.000	-0.118	-0.348
-156.706	451.494	-0.028	-0.061
-155.691	15.648	0.057	-0.044
-154.677	-81.053	-0.204	0.067
-153.662	18.593	0.202	-0.160
-152.647	800.000	-0.023	0.097
-151.633	-19.726	-0.180	0.110
-150.618	-13.770	-0.455	0.291
-149.604	382.689	-0.064	-0.130
-148.589	-200.000	0.024	0.293
-147.574	184.124	0.155	0.227
-146.560	-10.075	-0.040	0.026
-145.545	9.152	0.275	0.205
-144.531	150.115	-0.117	-0.157
-143.516	-200.000	-0.017	0.147
-142.502	-66.155	0.156	0.061
-141.487	-200.000	0.072	-0.401
-140.472	274.317	0.069	0.121
-139.458	-0.874	0.068	-0.048
-138.443	-44.755	0.177	0.087
-137.429	90.394	-0.133	0.147
-136.414	-20.312	-0.229	-0.139
-135.399	46.419	-0.110	-0.100
-134.385	-126.729	-0.192	0.028
-133.370	-200.000	0.008	-0.084
-132.356	-200.000	-0.020	-0.210
-131.341	-200.000	0.013	0.243
-130.326	80.172	-0.201	-0.213
-129.312	-200.000	0.010	-0.219
-128.297	123.999	0.187	-0.232
-127.283	-200.000	-0.008	-0.222
-126.268	52.037	-0.187	0.176
-125.253	-101.581	-0.357	-0.086
-124.239	-200.000	0.013	-0.076
-123.224	-28.635	-0.045	-0.026
-122.210	186.167	-0.074	0.108
-121.195	-200.000	-0.020	-0.146
-120.180	-200.000	-0.014	-0.150
-119.166	-113.366	0.199	-0.038
-118.151	215.674	0.069	0.109
-117.137	-200.000	-0.021	-0.105
-116.122	204.148	0.279	0.426
-115.107	87.456	0.242	-0.264
-114.093	9.914	0.094	-0.071
-113.078	-1.850	0.128	0.089
-112.064	-122.733	-0.467	-0.075
-111.049	-100.133	0.144	0.035
-110.034	-143.603	0.290	-0.027
-109.020	-200.000	0.055	0.281
-108.005	-200.000	0.030	0.269
-106.991	19.119	0.249	0.197
-105.976	102.520	0.102	-0.118
-104.962	-200.000	-0.025	-0.133
-103.947	-17.041	-0.161	0.100
-102.932	-200.000	0.024	0.185
-101.918	-200.000	0.016	0.122
-100.903	52.798	0.147	-0.138
-99.889	-200.000	0.047	0.309
-98.874	562.665	-0.145	0.345
-97.859	241.809	-0.089	0.147
-96.845	800.000	-0.083	0.350
-95.830	135.280	-0.135	0.172
-94.816	157.576	0.199	-0.271
-93.801	-200.000	-0.054	-0.348
-92.786	-94.938	-0.318	-0.085
-91.772	-134.341	0.154	0.019
-90.757	607.312	0.119	-0.293
-89.743	-80.870	0.502	0.164
-88.728	-200.000	-0.072	0.391
-87.713	-200.000	-0.004	0.202
-86.699	-200.000	-0.080	-0.392
-85.684	800.000	0.070	-0.251
-84.670	-62.902	-0.288	0.117
-83.655	-104.451	0.099	-0.023
-82.640	-76.850	0.153	-0.053
-81.626	-124.494	0.203	-0.031
-80.611	22.460	0.019	0.015
-79.597	-52.222	-0.069	0.032
-78.582	161.175	-0.037	-0.051
-77.567	706.221	-0.026	0.068
-76.553	-167.173	0.165	-0.007
-75.538	-29.277	0.089	-0.050
-74.524	-112.826	0.352	0.069
-73.509	-200.000	0.016	0.221
-72.494	-59.828	-0.224	0.094
-71.480	-151.402	0.236	-0.017
-70.465	40.637	-0.158	0.140
-69.451	-7.984	-0.127	0.084
-68.436	82.759	0.504	0.539
-67.422	-196.077	0.332	-0.002
-66.407	632.919	0.117	0.293
-65.392	0.789	0.173	-0.122
-64.378	-160.601	-0.098	0.005
-63.363	-64.498	-0.152	0.061
-62.349	-200.000	0.036	0.169
-61.334	208.617	-0.579	-0.891
-60.319	-200.000	0.095	0.463
-59.305	-200.000	0.094	-0.744
-58.290	800.000	0.364	1.176
-57.276	-200.000	0.048	1.241
-56.261	-200.000	95.687	597.052
-55.246	577.138	1361.407	3273.200
-54.232	163.092	2537.007	3505.380
-53.217	114.153	2134.745	2554.586
-52.203	43.997	1599.968	1442.054
-51.188	35.744	1338.422	1156.887
-50.173	32.618	1296.551	1102.399
-49.159	54.387	1343.754	1272.604
-48.144	56.758	1360.069	1302.104
-47.130	35.868	1319.602	1141.171
-46.115	32.459	1302.154	1106.050
-45.100	32.087	1297.159	1099.586
-44.086	32.122	1294.266	1097.295
-43.071	32.051	1292.338	1095.201
-42.057	32.111	1290.021	1093.543
-41.042	32.179	1287.670	1091.903
-40.027	32.220	1286.213	1090.860
-39.013	32.129	1284.952	1089.222
-37.998	32.202	1283.225	1088.140
-36.984	32.118	1281.178	1085.870
-35.969	32.108	1279.788	1084.594
-34.954	32.296	1277.921	1084.054
-33.940	32.230	1276.714	1082.606
-32.925	32.289	1275.312	1081.712
-31.911	32.279	1273.636	1080.191
-30.896	32.268	1272.267	1078.922
-29.881	32.296	1270.692	1077.706
-28.867	32.400	1269.460	1077.216
-27.852	32.218	1268.316	1075.161
-26.838	32.293	1266.900	1074.346
-25.823	32.345	1265.153	1073.119
-24.809	32.312	1263.998	1071.905
-23.794	32.242	1263.044	1070.655
-22.779	32.265	1261.675	1069.583
-21.765	32.230	1260.555	1068.393
-20.750	32.335	1259.136	1067.747
-19.736	32.167	1257.551	1065.408
-18.721	32.136	1256.374	1064.192
-17.706	32.153	1255.355	1063.383
-16.692	32.053	1254.501	1062.052
-15.677	32.132	1253.117	1061.286
-14.663	32.191	1251.781	1060.441
-13.648	32.160	1251.065	1059.618
-12.633	32.084	1250.135	1058.361
-11.619	32.096	1249.281	1057.665
-10.604	32.133	1248.277	1056.981
-9.590	31.986	1247.847	1055.746
-8.575	32.150	1246.058	1055.110
-7.560	32.105	1244.865	1053.807
-6.546	32.071	1244.691	1053.429
-5.531	32.122	1244.038	1053.120
-4.517	32.113	1243.027	1052.172
-3.502	32.047	1242.425	1051.251
-2.487	32.092	1241.232	1050.453
-1.473	32.193	1236.454	1046.928
-0.458	30.731	1222.215	1026.773
0.556	27.956	1205.414	990.913
1.571	24.434	1211.571	976.650
2.586	23.741	1226.948	985.113
3.600	23.419	1215.956	974.433
4.615	17.170	1143.862	884.156
5.629	6.981	1066.905	774.896
6.644	2.423	1046.370	737.971
7.659	2.130	1043.641	734.573
8.673	2.007	1042.303	732.976
9.688	1.951	1041.112	731.805
10.702	2.440	1040.379	733.567
11.717	9.240	1049.434	772.671
12.731	19.236	1063.906	831.758
13.746	24.334	1069.666	860.862
14.761	25.514	1070.392	867.063
15.775	25.371	1070.433	866.332
16.790	25.242	1069.642	864.994
17.804	25.075	1069.428	863.938
18.819	25.273	1068.378	863.967
19.834	25.414	1068.173	864.405
20.848	25.501	1067.837	864.474
21.863	25.612	1067.088	864.325
22.877	25.267	1066.778	862.337
23.892	25.263	1065.654	861.335
24.907	25.331	1064.871	860.953
25.921	25.341	1063.811	860.067
26.936	25.257	1062.969	858.910
27.950	25.218	1061.288	857.289
28.965	25.083	1059.717	855.296
29.980	25.233	1057.749	854.347
30.994	25.484	1056.967	854.837
32.009	25.408	1056.102	853.699
33.023	25.126	1054.947	851.350
34.038	25.329	1053.863	851.366
35.053	25.278	1053.786	850.986
36.067	25.409	1052.567	850.543
37.082	25.506	1051.990	850.461
38.096	25.616	1051.364	850.403
39.111	25.710	1050.197	849.823
40.126	25.446	1049.360	847.826
41.140	25.107	1047.716	844.828
42.155	24.940	1046.267	842.799
43.169	25.035	1045.382	842.458
44.184	25.071	1043.900	841.356
45.199	25.036	1042.844	840.268
46.213	25.074	1042.146	839.809
47.228	25.126	1041.615	839.550
48.242	25.339	1040.969	839.951
49.257	25.245	1040.634	839.169
50.271	25.332	1039.421	838.524
51.286	25.419	1038.523	838.127
52.301	25.451	1037.854	837.666
53.315	25.360	1036.920	836.413
54.330	25.386	1035.825	835.576
55.344	25.397	1035.392	835.205
56.359	25.324	1034.219	833.847
57.374	25.180	1033.353	832.403
58.388	25.095	1033.035	831.679
59.403	25.076	1031.958	830.651
60.417	25.016	1030.462	829.095
61.432	25.050	1030.186	828.957
62.447	25.087	1029.809	828.754
63.461	25.142	1028.869	828.176
64.476	25.258	1027.930	827.881
65.490	24.984	1026.987	825.788
66.505	25.003	1026.560	825.459
67.520	25.095	1025.753	825.162
68.534	24.842	1024.940	823.270
69.549	24.646	1023.282	820.965
70.563	24.609	1023.015	820.509
71.578	24.616	1021.915	819.584
72.593	24.458	1021.303	818.296
73.607	24.519	1021.235	818.451
74.622	24.929	1020.224	819.445
75.636	25.010	1019.434	819.109
76.651	24.777	1018.895	817.537
77.666	24.818	1018.319	817.191
78.680	24.770	1017.719	816.415
79.695	24.834	1016.808	815.907
80.709	25.041	1015.970	816.103
81.724	25.017	1015.216	815.317
82.739	25.044	1014.934	815.140
83.753	25.419	1014.233	816.209
84.768	25.767	1013.515	817.140
85.782	25.763	1012.670	816.370
86.797	25.546	1011.792	814.606
87.812	25.449	1010.792	813.290
88.826	25.623	1009.636	813.073
89.841	25.655	1008.857	812.520
90.855	25.606	1008.287	811.765
91.870	25.704	1007.187	811.251
92.884	25.574	1006.131	809.744
93.899	25.482	1005.131	808.454
94.914	25.694	1004.351	808.705
95.928	25.410	1003.854	806.961
96.943	25.254	1001.929	804.643
97.957	24.993	1000.972	802.634
98.972	24.984	999.627	801.441
99.987	25.193	999.236	801.992
101.001	25.315	998.350	801.755
102.016	25.403	997.550	801.436
103.030	25.186	997.087	800.026
104.045	25.088	995.901	798.564
105.060	24.824	995.349	796.878
106.074	25.227	994.260	797.728
107.089	25.403	994.038	798.259
108.103	25.392	992.517	796.917
109.118	25.208	991.490	795.208
110.133	25.151	990.257	793.895
111.147	24.865	989.187	791.704
112.162	24.713	988.301	790.252
113.176	25.023	987.886	791.219
114.191	24.925	986.785	789.837
115.206	24.646	986.114	787.998
116.220	24.569	985.429	787.043
117.235	24.752	984.509	787.045
118.249	24.757	983.340	786.064
119.264	24.668	982.826	785.190
120.279	24.638	982.042	784.365
121.293	24.822	981.263	784.479
122.308	24.880	980.429	783.996
123.322	24.656	979.446	782.163
124.337	24.655	977.770	780.749
125.352	24.149	976.284	777.284
126.366	24.105	975.897	776.718
127.381	24.794	975.890	779.645
128.395	25.173	975.262	780.724
129.410	25.339	974.436	780.717
130.424	25.322	973.278	779.647
131.439	25.251	972.901	778.966
132.454	25.213	971.659	777.742
133.468	25.199	970.812	776.931
134.483	25.298	970.066	776.695
135.497	25.578	968.837	776.849
136.512	25.596	968.240	776.381
137.527	25.569	967.207	775.370
138.541	25.445	966.913	774.531
139.556	25.542	965.708	773.916
140.570	25.634	965.653	774.198
141.585	25.681	964.147	773.122
142.600	25.533	963.402	771.823
143.614	25.640	962.659	771.618
144.629	25.879	961.834	771.912
145.643	25.675	960.344	769.777
146.658	25.605	958.737	768.120
147.673	25.440	958.279	766.981
148.687	25.480	957.240	766.254
149.702	25.277	956.335	764.595
150.716	25.441	955.063	764.208
151.731	25.484	954.613	763.963
152.746	25.623	954.239	764.186
153.760	25.779	953.709	764.357
154.775	25.754	953.155	763.739
155.789	25.706	952.035	762.571
156.804	25.668	951.722	762.092
157.819	25.779	950.396	761.434
158.833	25.708	949.857	760.634
159.848	25.875	949.034	760.611
160.862	25.839	947.460	759.133
161.877	25.700	946.724	757.889
162.892	25.777	945.852	757.448
163.906	25.695	944.875	756.255
164.921	25.542	944.281	755.069
165.935	25.930	942.607	755.289
166.950	25.709	942.190	753.962
167.964	25.650	941.158	752.824
168.979	25.600	940.187	751.773
169.994	25.494	939.204	750.478
171.008	25.698	939.163	751.227
172.023	25.824	937.977	750.740
173.037	25.557	936.589	748.452
174.052	25.447	935.750	747.254
175.067	25.551	935.014	747.033
176.081	25.671	934.565	747.106
177.096	25.463	934.180	745.869
178.110	25.169	933.525	744.060
179.125	24.980	932.844	742.672
180.140	25.077	932.404	742.657
181.154	25.346	931.907	743.310
182.169	25.399	932.340	743.808
183.183	25.753	931.541	744.568
184.198	25.659	930.509	743.290
185.213	25.701	929.723	742.771
186.227	25.733	929.189	742.409
187.242	25.677	928.369	741.456
188.256	25.796	927.726	741.370
189.271	25.740	927.391	740.802
190.286	25.604	925.295	738.507
191.300	24.908	924.317	734.805
192.315	24.210	922.619	730.530
193.329	23.988	922.488	729.451
194.344	24.993	922.766	733.724
195.359	25.472	922.936	735.758
196.373	25.738	922.037	736.065
197.388	25.583	921.666	735.066
198.402	25.442	921.258	734.101
199.417	25.497	920.471	733.635
200.432	25.208	919.414	731.548
201.446	25.210	918.760	730.972
202.461	25.272	917.972	730.532
203.475	24.419	916.126	725.532
204.490	23.489	915.389	721.104
205.504	24.443	915.601	725.085
206.519	25.192	915.140	727.694
207.534	25.210	915.018	727.608
208.548	25.659	914.413	728.881
209.563	25.537	913.415	727.527
210.577	25.354	913.661	726.916
211.592	25.793	912.779	727.926
212.607	25.760	912.163	727.240
213.621	25.772	911.489	726.685
214.636	25.682	910.993	725.862
215.650	25.658	909.788	724.740
216.665	25.824	909.384	725.024
217.680	25.828	908.431	724.217
218.694	25.369	907.402	721.488
219.709	25.236	906.707	720.338
220.723	25.614	906.248	721.424
221.738	25.679	905.926	721.368
222.753	25.550	905.466	720.419
223.767	25.619	905.382	720.566
224.782	25.835	905.105	721.145
225.796	25.966	904.102	720.804
226.811	25.352	902.543	717.050
227.826	24.680	901.115	713.170
228.840	24.836	900.482	713.227
229.855	24.845	900.173	712.958
230.869	24.642	898.966	711.129
231.884	25.085	898.974	712.833
232.899	25.749	899.114	715.523
233.913	25.527	898.445	714.045
234.928	25.567	897.951	713.749
235.942	25.519	896.796	712.577
236.957	25.156	895.987	710.434
237.972	25.097	895.891	710.060
238.986	25.343	895.037	710.295
240.001	25.334	894.410	709.698
241.015	25.440	894.026	709.750
242.030	25.561	893.645	709.863
243.045	25.610	893.471	709.854
244.059	25.775	892.871	709.967
245.074	25.492	891.999	708.093
246.088	25.194	891.028	706.090
247.103	25.526	890.540	706.946
248.117	26.075	890.408	708.936
249.132	26.292	889.888	709.312
250.147	26.378	889.785	709.502
251.161	26.508	889.474	709.700
252.176	26.406	888.675	708.602
253.190	26.625	888.365	709.148
254.205	26.745	887.769	709.080
255.220	26.632	887.534	708.390
256.234	26.478	886.456	706.864
257.249	26.299	885.929	705.680
258.263	26.463	885.213	705.690
259.278	26.404	884.539	704.858
260.293	26.539	884.095	704.971
261.307	26.417	883.521	703.976
262.322	26.341	882.167	702.537
263.336	25.467	880.363	697.648
264.351	24.523	878.783	692.672
265.366	24.650	878.828	693.142
266.380	25.863	878.912	697.848
267.395	26.141	878.558	698.582
268.409	26.121	877.920	697.934
269.424	26.282	877.672	698.297
270.439	26.287	877.049	697.758
271.453	26.249	876.954	697.477
272.468	26.459	876.489	697.853
273.482	26.593	875.734	697.706
274.497	26.103	874.625	694.876
275.512	25.969	873.524	693.424
276.526	26.081	873.892	694.086
277.541	26.382	873.003	694.474
278.555	26.119	872.449	692.963
279.570	25.990	871.900	691.971
280.585	26.156	871.076	691.890
281.599	26.126	870.223	691.037
282.614	25.454	869.098	687.514
283.628	25.498	868.723	687.325
284.643	25.987	867.998	688.559
285.657	25.490	867.154	685.930
286.672	25.255	866.063	684.111
287.687	25.812	866.259	686.330
288.701	25.908	865.837	686.298
289.716	25.593	864.847	684.256
290.730	25.531	864.172	683.423
291.745	25.258	863.320	681.655
292.760	25.481	863.782	682.805
293.774	26.632	863.824	687.148
294.789	26.802	863.753	687.677
295.803	27.024	862.759	687.665
296.818	26.797	862.441	686.490
297.833	26.430	860.513	683.509
298.847	26.184	860.368	682.403
299.862	26.639	860.311	684.017
300.876	26.732	860.017	684.075
301.891	26.780	858.833	683.251
302.906	26.464	857.853	681.221
303.920	26.406	857.970	681.038
304.935	27.004	857.504	682.856
305.949	26.948	856.691	681.940
306.964	26.693	856.095	680.448
307.979	26.646	855.724	679.914
308.993	26.943	855.867	681.084
310.008	27.174	854.582	680.867
311.022	26.572	854.195	678.242
312.037	26.489	854.120	677.812
313.052	26.227	852.981	675.867
314.066	25.391	851.488	671.498
315.081	24.961	850.607	669.140
316.095	26.020	850.933	673.293
317.110	26.508	850.602	674.791
318.125	25.649	849.303	670.503
319.139	24.693	846.942	665.025
320.154	24.612	847.140	664.820
321.168	25.353	847.873	668.094
322.183	26.094	847.721	670.672
323.197	26.476	847.352	671.737
324.212	26.584	847.182	671.943
325.227	26.517	846.907	671.419
326.241	26.488	845.872	670.432
327.256	26.345	844.770	668.969
328.270	26.293	844.592	668.575
329.285	26.148	843.735	667.302
330.300	26.065	842.710	666.128
331.314	26.284	842.655	666.834
332.329	26.677	842.493	668.096
333.343	26.812	842.164	668.273
334.358	26.766	841.803	667.758
335.373	26.753	841.530	667.433
336.387	27.022	841.474	668.321
337.402	27.224	841.096	668.705
338.416	26.974	841.154	667.771
339.431	27.385	840.480	668.689
340.446	27.481	840.199	668.756
341.460	27.127	840.043	667.275
342.475	27.063	839.268	666.365
343.489	27.136	838.674	666.102
344.504	27.264	838.745	666.569
345.519	27.391	838.292	666.616
346.533	27.622	837.515	666.783
347.548	27.563	837.044	666.132
348.562	27.373	836.917	665.279
349.577	27.421	835.841	664.540
350.592	27.480	835.262	664.235
351.606	27.350	834.874	663.394
352.621	27.346	833.669	662.364
353.635	27.304	832.990	661.613
354.650	26.546	831.504	657.621
355.665	25.689	829.751	653.067
356.679	26.112	829.875	654.644
357.694	26.450	829.477	655.498
358.708	26.305	828.991	654.531
359.723	26.856	828.808	656.320
360.738	27.112	828.624	657.042
361.752	27.260	827.839	656.899
362.767	27.633	827.792	658.147
363.781	27.889	827.501	658.784
364.796	27.928	826.880	658.371
365.810	27.900	826.726	658.088
366.825	28.006	826.100	657.912
367.840	27.516	826.013	656.020
368.854	27.126	824.884	653.665
369.869	27.211	824.150	653.331
370.883	27.183	823.843	652.929
371.898	27.153	823.545	652.526
372.913	27.222	823.069	652.341
373.927	27.293	822.723	652.263
374.942	27.440	822.681	652.700
375.956	27.646	821.821	652.696
376.971	27.695	821.585	652.628
377.986	27.810	821.076	652.577
379.000	27.871	820.287	652.108
380.015	27.621	819.785	650.761
381.029	27.611	819.104	650.124
382.044	27.864	818.698	650.649
383.059	27.901	818.379	650.468
384.073	27.868	817.574	649.652
385.088	27.932	817.187	649.516
386.102	27.690	816.128	647.757
387.117	27.671	815.477	647.118
388.132	27.335	814.380	644.996
389.146	26.754	813.967	642.553
390.161	27.247	813.865	644.165
391.175	27.530	813.638	644.929
392.190	27.336	812.346	643.162
393.205	25.731	810.560	636.025
394.219	24.344	808.687	629.608
395.234	24.334	808.209	629.143
396.248	25.786	809.885	635.520
397.263	27.499	810.757	642.194
398.278	27.309	810.331	641.131
399.292	27.090	809.679	639.788
400.307	26.931	809.172	638.772
401.321	27.306	808.374	639.402
402.336	27.778	808.500	641.103
403.350	27.991	808.720	641.971
404.365	28.407	808.431	643.142
405.380	28.546	808.219	643.405
406.394	28.647	807.321	642.989
407.409	28.567	807.050	642.434
408.423	28.360	807.072	641.670
409.438	28.478	806.651	641.691
410.453	28.626	805.892	641.550
411.467	28.503	805.369	640.646
412.482	28.555	804.860	640.365
413.496	28.634	804.736	640.485
414.511	28.704	804.042	640.120
415.526	28.516	803.912	639.305
416.540	28.427	803.074	638.274
417.555	28.203	802.295	636.819
418.569	28.280	801.884	636.704
419.584	28.231	801.254	635.978
420.599	28.131	800.691	635.126
421.613	111.582	1285.510	1457.422
422.628	96.311	1356.120	1457.527
