DTS Sentinel unit serial number:	SN413079Multiplexer serial number:	ORYXHardware model number:	OX4-SRSoftware version number:	ORYX F/W v4.00 Oryx Data Collector v3.7.2.0data status	okinstallation	princeton_trtdifferential loss correction	single-endedforward channel	channel 1reverse channel	N/Adate	2019/09/13time	22:46:35forward acquisition time	60.00reverse acquisition time	0.00gamma	496.2192k internal	0.2333k external	0.2333temperature offset calibration	1.0088default loss term (dB/km)	0.3790temperature slope calibration	1.0000multiplexer offset coefficient	1.0000multiplexer slope coefficient	1.0000fibre end	0.00T internal ref (°C)	27.56T ext. ref 1 (°C)	3.22T ext. ref 2 (°C)	21.62length (m)	temperature (°C)	Stokes	anti-Stokes-747.200	-200.000	-0.016	-0.413
-746.185	89.420	-0.182	0.203
-745.171	800.000	0.116	-0.366
-744.156	-200.000	0.046	0.392
-743.142	63.905	0.106	0.107
-742.127	-200.000	-0.079	0.428
-741.112	-52.604	0.311	0.145
-740.098	-200.000	0.002	0.031
-739.083	-118.807	0.150	0.027
-738.069	-150.992	-0.267	0.020
-737.054	106.178	0.218	-0.259
-736.039	89.768	-0.044	-0.049
-735.025	128.139	0.137	-0.175
-734.010	21.750	-0.076	0.062
-732.996	-200.000	-0.050	-0.288
-731.981	-200.000	0.012	-0.195
-730.966	800.000	-0.032	-0.105
-729.952	-65.383	-0.131	-0.053
-728.937	-55.633	0.426	-0.192
-727.923	-121.989	-0.237	0.039
-726.908	482.009	-0.081	0.185
-725.894	-125.763	-0.304	0.046
-724.879	-148.694	-0.159	0.013
-723.864	-118.615	-0.255	0.045
-722.850	800.000	0.028	0.086
-721.835	473.136	0.107	-0.243
-720.821	-200.000	0.035	-0.203
-719.806	488.240	-0.124	0.285
-718.791	-109.414	0.043	0.009
-717.777	-40.012	0.185	0.097
-716.762	-200.000	0.004	0.061
-715.748	-200.000	0.009	-0.050
-714.733	-101.929	0.083	-0.020
-713.718	-46.579	0.066	0.033
-712.704	-8.426	-0.129	0.087
-711.689	-45.496	-0.066	-0.033
-710.675	192.793	-0.199	-0.302
-709.660	-5.210	0.102	0.071
-708.645	-7.716	0.025	0.017
-707.631	483.642	-0.021	-0.048
-706.616	800.000	-0.093	-0.351
-705.602	68.878	0.157	0.162
-704.587	-200.000	-0.010	-0.456
-703.572	-14.849	0.044	0.028
-702.558	-128.969	-0.253	0.036
-701.543	368.751	0.119	0.242
-700.529	55.044	-0.071	-0.069
-699.514	800.000	0.049	-0.152
-698.499	23.400	-0.059	-0.049
-697.485	62.782	0.037	-0.038
-696.470	-200.000	-0.008	-0.105
-695.456	-200.000	-0.092	0.502
-694.441	-200.000	0.032	-0.146
-693.426	197.455	-0.058	-0.089
-692.412	-49.471	0.330	0.158
-691.397	133.726	0.232	0.301
-690.383	-33.061	0.062	0.035
-689.368	19.175	-0.387	-0.311
-688.354	116.956	0.067	-0.083
-687.339	-122.956	-0.186	-0.030
-686.324	-200.000	-0.096	0.444
-685.310	-200.000	0.000	0.016
-684.295	53.447	-0.153	0.147
-683.281	-169.807	-0.229	-0.008
-682.266	40.888	0.309	0.280
-681.251	-119.358	-0.332	-0.058
-680.237	-156.002	-0.251	0.016
-679.222	-96.273	0.237	-0.063
-678.208	191.398	-0.073	-0.111
-677.193	800.000	0.031	0.132
-676.178	-130.829	0.196	-0.026
-675.164	-117.151	-0.089	0.016
-674.149	-84.306	-0.112	-0.035
-673.135	-112.417	0.096	0.019
-672.120	35.190	-0.176	-0.154
-671.105	-55.184	0.207	0.093
-670.091	424.423	-0.032	0.069
-669.076	163.130	-0.158	-0.223
-668.062	-128.627	-0.046	-0.007
-667.047	-200.000	0.039	0.292
-666.032	-94.632	-0.484	-0.132
-665.018	-52.921	-0.090	0.041
-664.003	10.484	-0.073	0.056
-662.989	608.194	0.096	-0.240
-661.974	-89.395	0.287	0.085
-660.959	131.101	-0.181	0.233
-659.945	98.423	0.023	-0.027
-658.930	343.109	0.181	-0.356
-657.916	16.946	-0.248	0.197
-656.901	-200.000	-0.040	-0.299
-655.886	140.487	-0.328	0.434
-654.872	44.532	0.255	-0.234
-653.857	800.000	-0.091	-0.298
-652.843	258.818	0.318	-0.549
-651.828	-70.629	-0.060	-0.023
-650.814	-46.564	-0.183	0.090
-649.799	-65.020	0.077	-0.031
-648.784	-105.868	0.075	-0.017
-647.770	47.469	-0.198	-0.185
-646.755	43.581	0.119	0.109
-645.741	13.972	-0.088	-0.069
-644.726	-18.710	-0.029	-0.018
-643.711	162.902	-0.162	-0.227
-642.697	-78.270	-0.159	0.055
-641.682	-24.870	0.173	-0.103
-640.668	128.701	-0.235	0.300
-639.653	-177.670	0.187	0.005
-638.638	-200.000	0.020	-0.192
-637.624	-47.131	0.246	0.120
-636.609	307.169	-0.050	0.093
-635.595	123.545	-0.297	0.372
-634.580	-90.325	0.441	0.128
-633.565	-20.889	0.242	0.149
-632.551	-95.991	-0.088	-0.023
-631.536	79.601	0.278	-0.299
-630.522	731.668	0.074	-0.198
-629.507	-138.948	-0.203	-0.022
-628.492	-200.000	-0.113	-0.510
-627.478	-39.418	-0.249	0.131
-626.463	-111.088	0.259	0.053
-625.449	-200.000	0.001	-0.159
-624.434	-41.923	-0.304	0.156
-623.419	-200.000	0.020	0.146
-622.405	-39.212	0.109	-0.057
-621.390	75.219	0.144	0.152
-620.376	26.320	-0.076	0.064
-619.361	264.685	0.157	0.274
-618.346	-137.219	0.230	-0.026
-617.332	-97.090	0.011	0.003
-616.317	173.412	0.170	0.246
-615.303	800.000	-0.099	0.294
-614.288	126.652	0.121	-0.154
-613.273	184.756	0.174	0.257
-612.259	-67.387	-0.356	-0.140
-611.244	498.274	0.096	-0.221
-610.230	-200.000	-0.027	-0.210
-609.215	-147.904	-0.124	-0.010
-608.201	800.000	-0.101	-0.281
-607.186	-50.795	0.367	-0.173
-606.171	-71.447	-0.418	0.156
-605.157	-122.582	-0.154	0.025
-604.142	-50.461	0.112	-0.053
-603.128	-23.304	0.139	-0.084
-602.113	352.251	-0.034	-0.067
-601.098	338.102	0.069	0.134
-600.084	-200.000	0.006	0.179
-599.069	-66.346	0.287	-0.114
-598.055	159.124	0.089	-0.123
-597.040	-78.780	-0.253	-0.086
-596.025	-55.276	-0.217	0.097
-595.011	-122.381	-0.406	-0.066
-593.996	-169.208	0.227	-0.008
-592.982	800.000	-0.037	0.131
-591.967	273.509	0.054	0.095
-590.952	6.776	-0.173	0.129
-589.938	118.247	0.137	-0.168
-588.923	800.000	-0.038	0.155
-587.909	-200.000	0.000	0.108
-586.894	-22.801	0.156	0.094
-585.879	198.901	-0.161	0.246
-584.865	-56.948	-0.125	-0.055
-583.850	400.867	0.039	0.081
-582.836	800.000	0.095	-0.319
-581.821	800.000	-0.080	0.314
-580.806	149.583	0.168	-0.227
-579.792	-145.701	-0.225	0.020
-578.777	-200.000	-0.013	-0.325
-577.763	-21.424	-0.141	-0.086
-576.748	150.976	-0.071	0.097
-575.733	-200.000	-0.022	-0.314
-574.719	75.850	0.179	-0.189
-573.704	-2.118	-0.118	-0.083
-572.690	-76.164	0.241	0.085
-571.675	19.902	0.438	-0.353
-570.661	403.498	-0.055	0.116
-569.646	-200.000	-0.009	-0.173
-568.631	15.870	0.093	0.073
-567.617	736.285	-0.072	-0.192
-566.602	192.225	-0.153	-0.230
-565.588	-43.779	-0.232	-0.117
-564.573	-200.000	0.072	-0.342
-563.558	-150.206	-0.168	-0.013
-562.544	-58.570	0.329	0.143
-561.529	745.779	-0.167	0.450
-560.515	-200.000	-0.007	0.213
-559.500	18.986	0.144	0.115
-558.485	800.000	-0.028	0.087
-557.471	-122.119	-0.286	-0.047
-556.456	-200.000	-0.008	-0.105
-555.442	-161.142	0.141	0.007
-554.427	-200.000	-0.065	-0.318
-553.412	-169.875	0.206	-0.007
-552.398	-200.000	-0.008	0.130
-551.383	470.404	-0.045	-0.101
-550.369	800.000	0.014	0.049
-549.354	462.176	0.186	-0.414
-548.339	-200.000	-0.071	0.000
-547.325	-200.000	-0.005	-0.189
-546.310	-14.907	0.091	-0.058
-545.296	5.050	0.080	-0.059
-544.281	535.135	-0.049	-0.117
-543.266	-200.000	0.022	-0.371
-542.252	-110.243	0.301	0.062
-541.237	213.875	0.068	-0.107
-540.223	-112.618	0.158	-0.031
-539.208	-58.218	0.217	0.094
-538.193	74.686	-0.032	0.034
-537.179	-132.129	-0.185	0.024
-536.164	-159.118	0.387	0.022
-535.150	-134.140	0.272	0.033
-534.135	-5.337	0.078	-0.054
-533.121	-200.000	-0.002	-0.019
-532.106	-45.142	0.117	0.058
-531.091	208.785	0.149	-0.233
-530.077	-200.000	-0.005	0.143
-529.062	225.086	0.105	0.170
-528.048	-98.850	0.401	-0.102
-527.033	-66.594	-0.177	-0.070
-526.018	-130.863	0.230	0.031
-525.004	800.000	-0.107	-0.305
-523.989	-28.674	0.058	-0.033
-522.975	-200.000	-0.003	-0.057
-521.960	69.400	0.044	0.045
-520.945	-141.325	-0.210	0.021
-519.931	523.575	0.084	0.198
-518.916	55.965	-0.142	-0.138
-517.902	16.930	0.169	0.133
-516.887	-200.000	0.052	0.337
-515.872	-53.700	-0.131	-0.060
-514.858	187.577	-0.071	0.106
-513.843	-200.000	0.072	0.383
-512.829	538.343	0.111	0.263
-511.814	-94.196	-0.363	0.099
-510.799	-175.671	0.351	-0.009
-509.785	28.904	0.249	-0.210
-508.770	800.000	-0.029	0.092
-507.756	-200.000	-0.030	0.254
-506.741	-200.000	-0.041	0.181
-505.726	-76.185	-0.137	0.048
-504.712	123.687	-0.162	-0.203
-503.697	57.857	0.238	-0.232
-502.683	-109.138	-0.518	0.110
-501.668	-99.343	-0.079	-0.020
-500.653	-200.000	-0.069	0.380
-499.639	-88.338	-0.081	0.024
-498.624	-76.732	0.262	-0.091
-497.610	-81.245	0.074	-0.024
-496.595	-85.946	-0.061	0.019
-495.581	-200.000	-0.151	-0.000
-494.566	341.528	-0.083	-0.162
-493.551	32.348	-0.313	0.269
-492.537	-96.178	-0.204	0.054
-491.522	-75.150	0.224	-0.080
-490.508	-109.754	-0.174	-0.036
-489.493	-200.000	-0.036	0.423
-488.478	-58.189	0.198	-0.086
-487.464	800.000	-0.108	0.354
-486.449	-101.463	-0.231	0.056
-485.435	127.486	0.052	0.066
-484.420	-104.505	0.238	-0.055
-483.405	-98.275	0.175	0.045
-482.391	-56.895	0.172	-0.076
-481.376	-200.000	-0.014	-0.271
-480.362	-65.333	0.133	0.053
-479.347	-200.000	-0.218	0.001
-478.332	-16.435	-0.098	0.062
-477.318	-119.903	0.145	0.025
-476.303	-5.822	-0.136	-0.093
-475.289	-61.194	0.210	-0.088
-474.274	313.365	-0.111	0.207
-473.259	800.000	0.101	0.407
-472.245	100.142	0.223	0.257
-471.230	-200.000	-0.047	0.319
-470.216	121.125	0.170	-0.211
-469.201	-59.274	0.101	-0.043
-468.186	-200.000	0.014	0.270
-467.172	-200.000	-0.048	-0.259
-466.157	800.000	0.055	-0.230
-465.143	800.000	-0.027	0.112
-464.128	165.589	-0.213	-0.299
-463.113	233.325	0.053	-0.086
-462.099	278.735	-0.175	-0.311
-461.084	-200.000	0.032	0.291
-460.070	-31.863	0.117	0.065
-459.055	46.982	-0.281	-0.260
-458.040	800.000	0.175	-0.487
-457.026	-81.476	0.257	-0.084
-456.011	78.116	0.137	-0.145
-454.997	-108.646	0.268	0.057
-453.982	-52.440	0.194	0.089
-452.968	662.730	-0.095	0.242
-451.953	13.646	-0.157	-0.122
-450.938	32.241	0.053	-0.045
-449.924	351.879	-0.154	0.303
-448.909	-44.908	-0.065	-0.032
-447.895	-63.682	-0.163	0.067
-446.880	-61.717	-0.165	-0.069
-445.865	597.193	-0.037	0.092
-444.851	-8.477	0.163	0.109
-443.836	-31.259	0.086	0.048
-442.822	-200.000	-0.008	-0.203
-441.807	331.354	-0.085	-0.163
-440.792	-29.605	0.235	-0.133
-439.778	119.049	-0.052	0.064
-438.763	43.727	-0.213	0.194
-437.749	156.554	0.284	0.389
-436.734	122.153	-0.232	0.288
-435.719	-200.000	0.004	0.021
-434.705	72.271	0.105	0.109
-433.690	207.771	0.091	-0.141
-432.676	-24.449	0.135	-0.080
-431.661	604.697	-0.107	0.264
-430.646	-200.000	0.016	0.319
-429.632	-200.000	0.016	0.138
-428.617	-19.274	-0.214	0.132
-427.603	-57.483	-0.063	0.028
-426.588	-125.477	-0.213	-0.032
-425.573	20.941	-0.270	-0.217
-424.559	-77.682	0.078	-0.027
-423.544	40.046	-0.311	-0.277
-422.530	37.889	0.142	-0.126
-421.515	-62.726	0.320	0.132
-420.500	-200.000	-0.032	-0.198
-419.486	66.231	0.070	0.071
-418.471	-115.593	-0.185	-0.035
-417.457	79.664	0.206	-0.219
-416.442	433.931	0.049	-0.105
-415.428	800.000	0.107	-0.451
-414.413	-114.862	0.322	-0.061
-413.398	800.000	0.013	0.055
-412.384	-15.514	0.213	-0.135
-411.369	330.800	-0.178	0.340
-410.355	84.862	-0.158	0.171
-409.340	-140.219	-0.043	0.005
-408.325	274.721	-0.110	0.194
-407.311	-200.000	-0.004	0.028
-406.296	-27.615	0.037	0.021
-405.282	122.365	0.176	0.219
-404.267	45.606	0.191	0.175
-403.252	800.000	0.034	0.126
-402.238	343.047	-0.092	0.178
-401.223	800.000	-0.066	-0.250
-400.209	113.014	-0.172	0.207
-399.194	800.000	0.033	-0.116
-398.179	111.760	-0.359	-0.430
-397.165	-110.245	-0.182	-0.038
-396.150	-60.689	0.140	-0.059
-395.136	-63.853	-0.178	-0.072
-394.121	-104.519	0.131	0.030
-393.106	-83.253	-0.158	0.050
-392.092	800.000	0.084	0.240
-391.077	27.690	0.211	0.176
-390.063	-53.838	0.294	-0.133
-389.048	800.000	0.031	0.085
-388.033	383.067	0.134	0.273
-387.019	101.263	0.210	0.243
-386.004	123.150	-0.085	-0.105
-384.990	-86.890	0.373	0.113
-383.975	-47.057	-0.029	-0.014
-382.960	71.919	0.085	0.088
-381.946	-154.987	-0.241	0.016
-380.931	-34.632	-0.227	0.123
-379.917	141.815	-0.248	-0.326
-378.902	350.138	-0.077	-0.150
-377.888	12.202	-0.315	0.241
-376.873	-50.648	-0.151	-0.070
-375.858	-200.000	-0.017	-0.075
-374.844	-9.084	0.259	-0.172
-373.829	-200.000	0.015	0.308
-372.815	-34.129	0.202	0.110
-371.800	8.135	-0.118	0.088
-370.785	154.784	-0.128	-0.175
-369.771	-2.471	0.139	-0.096
-368.756	-112.387	0.272	0.054
-367.742	109.623	0.216	0.257
-366.727	-100.830	-0.280	-0.068
-365.712	800.000	0.094	0.267
-364.698	-75.812	0.042	-0.015
-363.683	8.370	-0.173	-0.129
-362.669	-166.666	-0.323	0.013
-361.654	87.937	-0.075	0.083
-360.639	-200.000	0.069	0.330
-359.625	-95.371	0.347	0.092
-358.610	200.071	-0.067	0.102
-357.596	-101.781	-0.115	-0.028
-356.581	-200.000	0.013	0.215
-355.566	20.896	-0.176	0.141
-354.552	207.658	0.289	0.446
-353.537	-34.075	-0.286	0.156
-352.523	-200.000	0.002	0.203
-351.508	-58.766	-0.223	-0.096
-350.493	106.128	-0.084	0.099
-349.479	-200.000	0.004	0.375
-348.464	250.587	0.074	-0.125
-347.450	-200.000	-0.040	-0.291
-346.435	148.906	0.204	-0.273
-345.420	-200.000	-0.016	-0.175
-344.406	-109.365	-0.048	0.010
-343.391	-39.522	0.382	0.198
-342.377	-149.806	0.016	-0.001
-341.362	800.000	0.136	0.422
-340.348	-93.897	-0.015	0.004
-339.333	414.703	0.045	-0.094
-338.318	-101.326	-0.182	0.044
-337.304	14.787	-0.299	0.231
-336.289	368.967	-0.142	-0.285
-335.275	-200.000	-0.053	-0.336
-334.260	-176.880	-0.122	-0.003
-333.245	-200.000	0.014	-0.094
-332.231	800.000	0.079	0.267
-331.216	-78.351	-0.124	-0.042
-330.202	153.551	-0.076	-0.103
-329.187	13.465	0.054	-0.041
-328.172	-176.324	-0.106	0.003
-327.158	287.918	-0.074	0.133
-326.143	800.000	0.098	0.329
-325.129	701.392	0.090	0.235
-324.114	-119.084	-0.363	0.063
-323.099	42.615	-0.182	0.164
-322.085	23.104	-0.187	-0.152
-321.070	-12.186	-0.253	0.164
-320.056	280.131	-0.140	-0.247
-319.041	-200.000	-0.016	-0.366
-318.026	-20.990	0.201	0.122
-317.012	110.001	0.192	0.227
-315.997	-200.000	-0.039	0.388
-314.983	-58.907	-0.308	0.132
-313.968	163.446	-0.138	0.192
-312.953	581.035	0.154	-0.373
-311.939	681.211	-0.050	-0.127
-310.924	117.166	-0.123	-0.149
-309.910	-99.110	0.113	-0.028
-308.895	27.611	0.440	-0.366
-307.880	149.474	-0.147	0.197
-306.866	800.000	-0.063	0.224
-305.851	-62.153	0.348	0.144
-304.837	-200.000	-0.008	-0.265
-303.822	39.173	-0.252	0.223
-302.807	257.721	-0.131	-0.223
-301.793	641.236	-0.130	0.328
-300.778	220.753	-0.247	-0.391
-299.764	-48.040	-0.392	-0.187
-298.749	-112.655	0.408	-0.080
-297.735	800.000	0.089	-0.364
-296.720	-200.000	0.027	-0.148
-295.705	-57.657	0.305	0.132
-294.691	-200.000	-0.067	-0.314
-293.676	-112.888	0.123	-0.024
-292.662	-67.269	-0.223	-0.087
-291.647	-158.180	0.140	0.008
-290.632	40.238	-0.156	-0.139
-289.618	-25.915	-0.166	-0.097
-288.603	-145.265	-0.147	-0.013
-287.589	-20.714	0.172	0.104
-286.574	-73.611	-0.322	0.116
-285.559	27.253	0.363	0.301
-284.545	614.276	0.046	-0.114
-283.530	71.052	0.119	0.122
-282.516	-115.515	-0.374	0.069
-281.501	59.681	-0.039	-0.038
-280.486	21.671	-0.010	0.008
-279.472	93.141	0.119	0.132
-278.457	-28.753	-0.239	0.136
-277.443	800.000	0.044	-0.155
-276.428	161.115	-0.191	0.264
-275.413	-19.532	-0.041	-0.025
-274.399	-22.754	-0.162	-0.097
-273.384	-104.975	-0.311	-0.070
-272.370	173.278	-0.110	0.156
-271.355	-200.000	-0.003	-0.065
-270.340	-200.000	0.036	-0.351
-269.326	-124.146	-0.176	-0.027
-268.311	12.016	0.411	-0.312
-267.297	77.812	0.143	0.151
-266.282	-6.352	-0.276	-0.186
-265.267	35.666	0.159	-0.137
-264.253	-200.000	0.045	-0.242
-263.238	720.109	-0.060	-0.157
-262.224	743.705	-0.042	0.111
-261.209	-77.650	0.148	0.051
-260.195	-200.000	-0.041	-0.247
-259.180	-109.404	-0.117	-0.024
-258.165	-30.408	0.279	0.156
-257.151	-171.496	0.083	0.003
-256.136	29.078	0.061	0.051
-255.122	-90.381	-0.108	0.031
-254.107	-61.155	-0.192	0.080
-253.092	800.000	0.034	0.144
-252.078	-94.926	-0.157	0.042
-251.063	-30.255	0.098	0.055
-250.049	-66.259	-0.530	-0.208
-249.034	-200.000	-0.021	0.324
-248.019	90.383	-0.181	-0.200
-247.005	-82.621	-0.101	0.032
-245.990	-200.000	0.000	-0.084
-244.976	3.396	-0.262	0.188
-243.961	43.662	0.130	-0.117
-242.946	-163.928	-0.060	-0.003
-241.932	-98.085	0.103	0.026
-240.917	-47.803	-0.135	0.064
-239.903	-200.000	-0.011	0.243
-238.888	-84.651	-0.312	-0.097
-237.873	-36.242	-0.211	0.112
-236.859	-138.657	0.187	-0.020
-235.844	-160.592	0.264	-0.014
-234.830	569.750	0.033	-0.079
-233.815	-200.000	0.002	0.039
-232.800	-89.157	0.442	-0.129
-231.786	-67.511	0.309	-0.120
-230.771	2.515	0.102	-0.073
-229.757	-200.000	-0.035	-0.199
-228.742	-200.000	0.029	-0.158
-227.727	627.622	-0.119	-0.295
-226.713	47.348	-0.222	-0.204
-225.698	693.229	0.073	0.189
-224.684	-144.634	-0.362	0.033
-223.669	66.287	0.087	-0.087
-222.655	800.000	0.039	0.130
-221.640	509.705	-0.030	0.068
-220.625	750.934	0.157	0.418
-219.611	-113.752	-0.272	-0.052
-218.596	12.449	0.145	0.110
-217.582	383.765	0.229	0.465
-216.567	418.991	-0.174	0.367
-215.552	-62.115	0.149	0.061
-214.538	28.073	0.220	-0.182
-213.523	-170.386	0.135	-0.005
-212.509	-47.146	-0.229	-0.110
-211.494	62.266	-0.123	0.121
-210.479	-131.969	0.270	-0.035
-209.465	-153.181	-0.253	0.017
-208.450	-123.602	0.195	0.031
-207.436	-148.094	0.132	-0.011
-206.421	-40.264	0.155	-0.079
-205.406	-200.000	-0.004	-0.233
-204.392	-7.871	-0.078	0.052
-203.377	164.887	-0.175	0.243
-202.363	-107.212	0.379	0.082
-201.348	3.734	-0.174	-0.125
-200.333	31.907	-0.098	-0.083
-199.319	-200.000	0.015	0.151
-198.304	178.653	-0.091	0.131
-197.290	35.701	0.139	-0.120
-196.275	-200.000	0.013	-0.081
-195.260	273.718	0.116	-0.202
-194.246	-170.566	-0.128	-0.004
-193.231	-200.000	-0.001	0.253
-192.217	133.647	-0.041	-0.052
-191.202	529.577	0.090	-0.209
-190.187	390.362	-0.032	-0.066
-189.173	625.060	-0.094	-0.234
-188.158	-36.309	-0.168	-0.089
-187.144	249.064	0.112	-0.187
-186.129	53.158	0.256	-0.241
-185.114	-61.999	-0.235	0.097
-184.100	800.000	-0.014	-0.049
-183.085	800.000	0.003	0.010
-182.071	-59.496	-0.212	0.090
-181.056	-48.747	0.209	-0.098
-180.042	-200.000	-0.031	-0.188
-179.027	81.743	0.114	-0.121
-178.012	-26.298	0.094	-0.054
-176.998	62.919	-0.090	-0.089
-175.983	396.689	0.070	-0.143
-174.969	-200.000	0.012	0.066
-173.954	-60.009	0.248	-0.104
-172.939	-10.885	0.228	0.148
-171.925	800.000	-0.070	0.272
-170.910	131.095	-0.078	0.098
-169.896	296.727	0.041	0.075
-168.881	-4.412	0.183	-0.124
-167.866	-200.000	0.008	0.139
-166.852	184.370	-0.091	-0.133
-165.837	-200.000	0.058	-0.291
-164.823	800.000	-0.063	0.182
-163.808	-49.299	-0.184	-0.086
-162.793	800.000	0.007	0.023
-161.779	745.448	0.073	-0.193
-160.764	-41.232	-0.379	-0.192
-159.750	173.453	0.073	-0.103
-158.735	413.340	-0.080	-0.167
-157.720	-100.454	-0.065	0.016
-156.706	-42.219	0.236	-0.118
-155.691	-18.895	0.083	-0.051
-154.677	788.911	0.071	-0.191
-153.662	101.167	0.113	-0.129
-152.647	-152.710	-0.163	0.011
-151.633	50.820	0.167	-0.155
-150.618	-73.084	0.264	0.095
-149.604	-37.664	-0.146	-0.076
-148.589	-79.093	0.149	-0.050
-147.574	713.511	0.185	-0.482
-146.560	292.226	0.172	-0.307
-145.545	-107.014	-0.074	0.016
-144.531	-103.927	0.418	0.096
-143.516	-59.407	0.323	0.137
-142.502	238.192	0.118	0.192
-141.487	-200.000	0.000	-0.201
-140.472	-200.000	0.277	-0.001
-139.458	-16.096	-0.376	0.235
-138.443	-16.765	0.161	0.100
-137.429	-43.814	0.036	0.018
-136.414	436.523	0.090	0.192
-135.399	570.148	-0.088	-0.211
-134.385	433.157	-0.094	-0.200
-133.370	-138.518	-0.294	0.032
-132.356	-28.383	0.350	-0.198
-131.341	-26.864	0.298	0.171
-130.326	-200.000	-0.019	0.346
-129.312	-4.718	-0.129	0.088
-128.297	50.470	0.326	-0.302
-127.283	800.000	0.045	-0.174
-126.268	40.542	-0.062	0.055
-125.253	593.850	-0.100	0.241
-124.239	-129.439	-0.209	0.028
-123.224	-200.000	0.002	-0.088
-122.210	326.669	0.173	-0.325
-121.195	-93.847	-0.457	0.123
-120.180	800.000	-0.112	-0.437
-119.166	-166.084	-0.048	0.002
-118.151	129.472	-0.247	0.310
-117.137	284.318	0.157	0.276
-116.122	-127.896	0.243	0.034
-115.107	60.505	-0.191	-0.186
-114.093	-105.773	0.317	0.070
-113.078	530.521	-0.195	0.452
-112.064	240.847	0.098	0.160
-111.049	-200.000	0.001	0.080
-110.034	457.095	-0.035	0.076
-109.020	-200.000	0.005	0.130
-108.005	9.425	0.193	0.143
-106.991	-117.522	-0.146	0.026
-105.976	-176.951	-0.224	-0.006
-104.962	-23.821	-0.142	-0.083
-103.947	-200.000	0.019	0.082
-102.932	-86.946	-0.171	0.051
-101.918	-200.000	0.025	-0.148
-100.903	-87.882	0.262	-0.077
-99.889	-200.000	0.036	0.168
-98.874	-65.801	0.203	0.079
-97.859	128.144	-0.101	0.126
-96.845	24.867	-0.048	-0.039
-95.830	-160.982	0.143	0.007
-94.816	-200.000	-0.002	0.193
-93.801	-200.000	0.016	0.070
-92.786	-119.101	0.115	-0.020
-91.772	800.000	-0.047	0.184
-90.757	47.359	-0.203	0.186
-89.743	-200.000	0.049	0.256
-88.728	62.558	0.209	0.205
-87.713	184.635	-0.139	-0.202
-86.699	-58.958	0.360	0.152
-85.684	-41.454	0.151	-0.076
-84.670	-38.838	-0.342	-0.176
-83.655	-200.000	-0.033	-0.158
-82.640	308.974	-0.048	0.089
-81.626	-200.000	0.011	-0.113
-80.611	-5.549	-0.194	-0.130
-79.597	-200.000	-0.002	0.049
-78.582	800.000	-0.099	-0.364
-77.567	417.048	0.207	0.434
-76.553	-138.088	-0.233	-0.025
-75.538	-200.000	0.006	-0.227
-74.524	-200.000	0.036	-0.214
-73.509	447.912	-0.069	0.149
-72.494	-200.000	0.080	0.384
-71.480	670.796	0.013	-0.034
-70.465	25.531	-0.289	0.236
-69.451	593.393	0.080	0.193
-68.436	766.949	0.044	0.118
-67.422	125.955	0.114	-0.141
-66.407	132.649	-0.061	-0.077
-65.392	558.926	-0.082	-0.195
-64.378	-200.000	-0.022	-0.180
-63.363	-94.911	-0.223	0.059
-62.349	-200.000	0.014	-0.284
-61.334	111.891	-0.849	-1.003
-60.319	89.491	0.646	0.705
-59.305	800.000	-0.246	-0.852
-58.290	388.912	0.703	1.425
-57.276	118.890	0.843	1.020
-56.261	-200.000	114.771	668.834
-55.246	547.782	1517.693	3555.895
-54.232	179.287	2682.949	3841.949
-53.217	110.225	2147.478	2523.746
-52.203	39.198	1594.474	1396.016
-51.188	30.777	1341.676	1124.056
-50.173	27.854	1304.365	1075.563
-49.159	55.846	1361.039	1291.237
-48.144	54.409	1375.032	1295.858
-47.130	31.153	1330.229	1116.537
-46.115	27.668	1312.694	1081.155
-45.100	27.492	1307.690	1075.951
-44.086	27.454	1304.821	1073.327
-43.071	27.328	1302.732	1070.824
-42.057	27.357	1300.780	1069.348
-41.042	27.307	1299.945	1068.327
-40.027	27.461	1297.951	1067.544
-39.013	27.495	1295.450	1065.644
-37.998	27.314	1294.258	1063.564
-36.984	27.539	1292.145	1063.098
-35.969	27.620	1290.152	1061.891
-34.954	27.560	1288.815	1060.395
-33.940	27.602	1287.300	1059.353
-32.925	27.569	1286.378	1058.363
-31.911	27.532	1285.031	1056.999
-30.896	27.755	1282.898	1056.491
-29.881	27.721	1282.148	1055.632
-28.867	27.641	1280.603	1053.857
-27.852	27.717	1279.043	1052.970
-26.838	27.686	1277.535	1051.508
-25.823	27.669	1276.611	1050.607
-24.809	27.588	1275.545	1049.227
-23.794	27.655	1273.714	1048.062
-22.779	27.765	1271.966	1047.212
-21.765	27.604	1271.527	1045.887
-20.750	27.620	1270.036	1044.708
-19.736	27.554	1268.928	1043.380
-18.721	27.466	1267.752	1041.866
-17.706	27.523	1266.260	1040.925
-16.692	27.451	1265.789	1040.084
-15.677	27.576	1264.210	1039.459
-14.663	27.427	1263.289	1037.815
-13.648	27.591	1262.003	1037.650
-12.633	27.517	1261.151	1036.488
-11.619	27.525	1260.062	1035.594
-10.604	27.588	1259.160	1035.170
-9.590	27.461	1258.362	1033.752
-8.575	27.504	1257.429	1033.190
-7.560	27.476	1256.760	1032.437
-6.546	27.527	1255.684	1031.801
-5.531	27.506	1254.754	1030.880
-4.517	27.491	1254.206	1030.304
-3.502	27.549	1253.504	1030.014
-2.487	27.563	1251.843	1028.686
-1.473	27.516	1247.792	1025.052
-0.458	25.920	1232.682	1003.719
0.556	22.522	1215.085	963.714
1.571	18.671	1220.813	946.967
2.586	17.792	1235.681	953.505
3.600	17.479	1223.729	942.461
4.615	13.172	1152.791	865.239
5.629	6.292	1081.397	777.683
6.644	3.378	1063.915	750.859
7.659	3.139	1061.204	747.720
8.673	3.161	1060.448	747.228
9.688	3.192	1059.075	746.345
10.702	3.360	1056.656	745.384
11.717	7.266	1061.672	767.815
12.731	14.580	1072.684	811.396
13.746	19.263	1078.119	838.271
14.761	19.826	1078.743	841.424
15.775	19.087	1076.756	836.209
16.790	18.063	1074.896	829.722
17.804	17.326	1073.125	824.707
18.819	17.088	1072.450	822.966
19.834	16.864	1071.922	821.400
20.848	16.772	1070.728	819.967
21.863	16.656	1070.200	818.931
22.877	16.505	1068.926	817.152
23.892	16.366	1068.565	816.133
24.907	16.409	1067.764	815.658
25.921	16.456	1067.004	815.229
26.936	16.356	1065.973	813.888
27.950	16.543	1063.648	812.940
28.965	16.591	1062.336	812.096
29.980	16.624	1061.309	811.398
30.994	16.700	1060.420	811.012
32.009	16.797	1059.104	810.397
33.023	16.666	1058.467	809.211
34.038	16.708	1057.279	808.431
35.053	16.611	1056.345	807.181
36.067	16.600	1055.392	806.330
37.082	16.626	1054.584	805.768
38.096	16.698	1054.025	805.612
39.111	16.721	1053.286	805.085
40.126	16.645	1051.478	803.268
41.140	16.212	1050.637	800.503
42.155	16.173	1049.657	799.500
43.169	16.180	1048.573	798.636
44.184	16.198	1047.322	797.701
45.199	16.282	1046.247	797.205
46.213	16.412	1045.171	796.929
47.228	16.583	1044.312	797.009
48.242	16.533	1043.508	796.088
49.257	16.564	1042.683	795.536
50.271	16.601	1041.876	795.022
51.286	16.680	1040.990	794.646
52.301	16.529	1040.149	793.228
53.315	16.478	1038.910	791.973
54.330	16.332	1038.090	790.596
55.344	16.226	1037.340	789.456
56.359	16.487	1035.803	789.437
57.374	16.373	1035.115	788.309
58.388	16.138	1034.757	786.874
59.403	16.215	1033.268	786.029
60.417	16.293	1032.502	785.738
61.432	16.171	1031.905	784.649
62.447	16.138	1031.006	783.743
63.461	15.993	1030.470	782.591
64.476	16.036	1029.240	781.786
65.490	16.064	1028.727	781.458
66.505	16.151	1028.058	781.286
67.520	16.089	1027.229	780.296
68.534	16.205	1026.605	780.294
69.549	16.116	1026.203	779.505
70.563	15.972	1025.053	777.899
71.578	15.911	1024.170	776.877
72.593	16.008	1023.255	776.562
73.607	15.876	1022.553	775.351
74.622	16.016	1021.741	775.312
75.636	16.020	1021.300	774.929
76.651	16.119	1020.545	774.739
77.666	15.938	1020.116	773.515
78.680	15.932	1019.783	773.168
79.695	16.005	1019.089	772.909
80.709	16.218	1017.859	772.883
81.724	16.302	1017.860	773.197
82.739	16.264	1017.199	772.455
83.753	16.570	1016.018	772.891
84.768	16.762	1015.177	773.056
85.782	16.863	1014.421	772.874
86.797	16.828	1013.302	771.792
87.812	16.607	1012.838	770.364
88.826	16.649	1011.789	769.689
89.841	16.747	1010.932	769.416
90.855	16.774	1010.238	768.940
91.870	16.718	1009.657	768.178
92.884	16.789	1008.601	767.625
93.899	16.813	1007.584	766.894
94.914	16.752	1006.998	766.105
95.928	16.834	1006.284	765.865
96.943	16.663	1005.003	764.050
97.957	16.642	1004.069	763.178
98.972	16.685	1003.246	762.678
99.987	16.726	1002.320	762.089
101.001	16.709	1001.641	761.431
102.016	16.622	1000.594	760.178
103.030	16.707	999.957	760.006
104.045	16.743	999.220	759.539
105.060	16.660	998.257	758.371
106.074	16.431	996.929	756.268
107.089	16.387	995.476	754.903
108.103	16.246	994.820	753.710
109.118	16.153	994.218	752.772
110.133	16.059	993.270	751.570
111.147	16.257	992.061	751.467
112.162	16.141	991.431	750.409
113.176	16.294	990.847	750.583
114.191	16.310	990.480	750.306
115.206	16.358	989.384	749.626
116.220	16.375	988.425	748.906
117.235	16.410	987.268	748.116
118.249	16.279	986.913	747.202
119.264	16.129	986.495	746.156
120.279	16.132	985.617	745.442
121.293	16.144	984.927	744.906
122.308	16.033	983.547	743.308
123.322	16.057	982.143	742.285
124.337	16.059	981.382	741.655
125.352	15.980	980.590	740.641
126.366	15.997	978.906	739.380
127.381	16.080	978.089	739.059
128.395	16.131	977.004	738.398
129.410	16.146	976.308	737.872
130.424	16.232	975.430	737.519
131.439	16.296	974.868	737.307
132.454	16.216	974.124	736.334
133.468	16.419	973.053	736.341
134.483	16.250	972.351	735.012
135.497	16.286	971.720	734.624
136.512	16.360	970.720	734.125
137.527	16.424	969.411	733.347
138.541	16.376	969.012	732.772
139.556	16.431	968.377	732.466
140.570	16.495	967.754	732.208
141.585	16.693	966.846	732.311
142.600	16.718	966.174	731.848
143.614	16.798	965.303	731.466
144.629	16.730	964.897	730.801
145.643	16.623	963.685	729.357
146.658	16.559	962.793	728.344
147.673	16.534	961.535	727.220
148.687	16.454	960.490	726.021
149.702	16.487	959.655	725.469
150.716	16.395	958.985	724.501
151.731	16.397	958.434	724.031
152.746	16.584	957.562	724.105
153.760	16.517	957.469	723.688
154.775	16.600	956.681	723.382
155.789	16.601	956.153	722.921
156.804	16.646	955.432	722.505
157.819	16.752	954.711	722.351
158.833	16.763	954.632	722.273
159.848	16.879	953.410	721.777
160.862	16.738	952.281	720.257
161.877	16.504	950.991	718.225
162.892	16.476	950.063	717.341
163.906	16.427	948.883	716.182
164.921	16.575	947.881	715.988
165.935	16.642	947.545	715.954
166.950	16.653	946.573	715.203
167.964	16.706	945.399	714.477
168.979	16.587	944.512	713.242
169.994	16.505	944.131	712.545
171.008	16.539	943.665	712.272
172.023	16.684	943.095	712.390
173.037	16.880	942.225	712.496
174.052	16.721	941.443	711.170
175.067	16.616	940.403	709.884
176.081	16.590	939.661	709.151
177.096	16.490	939.088	708.236
178.110	16.648	938.396	708.315
179.125	16.604	938.231	707.941
180.140	16.664	937.873	707.858
181.154	16.793	937.178	707.811
182.169	16.860	937.234	708.072
183.183	16.833	936.239	707.146
184.198	16.976	935.254	706.934
185.213	16.952	934.528	706.224
186.227	17.011	934.178	706.141
187.242	16.919	933.819	705.425
188.256	17.142	932.777	705.500
189.271	17.041	932.248	704.621
190.286	16.794	931.154	702.707
191.300	16.501	930.095	700.630
192.315	16.384	929.472	699.616
193.329	16.472	929.357	699.831
194.344	16.624	928.110	699.460
195.359	16.699	927.836	699.502
196.373	16.836	927.183	699.511
197.388	16.927	927.266	699.889
198.402	16.991	926.898	699.811
199.417	17.142	925.892	699.611
200.432	17.341	925.211	699.855
201.446	17.396	925.011	699.870
202.461	17.454	924.592	699.730
203.475	17.279	923.741	698.304
204.490	17.207	922.865	697.285
205.504	17.099	922.081	696.188
206.519	16.963	921.188	694.896
207.534	17.076	920.800	695.003
208.548	17.216	919.674	694.663
209.563	17.114	919.624	694.147
210.577	17.159	918.713	693.581
211.592	17.232	918.524	693.676
212.607	17.456	917.324	693.621
213.621	17.303	916.792	692.533
214.636	17.304	916.160	691.999
215.650	17.359	915.193	691.431
216.665	17.444	914.555	691.232
217.680	17.365	914.389	690.725
218.694	17.520	913.307	690.477
219.709	17.562	912.839	690.233
220.723	17.432	912.219	689.174
221.738	17.373	911.532	688.356
222.753	17.405	910.860	687.916
223.767	17.459	910.565	687.852
224.782	17.564	910.020	687.804
225.796	17.640	909.380	687.566
226.811	17.544	908.450	686.416
227.826	17.637	907.448	685.973
228.840	17.496	906.922	684.944
229.855	17.374	906.063	683.745
230.869	17.399	905.432	683.308
231.884	17.384	904.974	682.842
232.899	17.271	903.897	681.515
233.913	17.314	903.343	681.213
234.928	17.265	902.531	680.343
235.942	17.269	902.013	679.909
236.957	17.399	901.319	679.845
237.972	17.180	900.820	678.532
238.986	17.258	900.377	678.453
240.001	17.242	900.181	678.178
241.015	17.279	899.280	677.588
242.030	17.425	898.763	677.720
243.045	17.456	898.372	677.489
244.059	17.446	897.447	676.691
245.074	17.508	896.728	676.334
246.088	17.606	896.223	676.285
247.103	17.711	895.716	676.256
248.117	17.865	895.356	676.539
249.132	17.919	895.187	676.562
250.147	18.141	894.472	676.841
251.161	18.126	893.491	675.981
252.176	17.992	893.360	675.292
253.190	18.315	892.222	675.648
254.205	18.238	891.472	674.717
255.220	18.205	890.769	673.996
256.234	18.144	890.244	673.298
257.249	18.188	889.492	672.840
258.263	18.215	888.673	672.267
259.278	18.263	888.302	672.117
260.293	18.255	887.644	671.526
261.307	18.392	887.082	671.582
262.322	18.428	886.419	671.160
263.336	18.378	886.115	670.675
264.351	18.287	885.173	669.548
265.366	18.426	884.539	669.552
266.380	18.407	883.766	668.832
267.395	18.256	883.433	667.932
268.409	18.405	882.233	667.548
269.424	18.341	881.640	666.789
270.439	18.236	880.907	665.766
271.453	18.138	880.383	664.932
272.468	18.081	879.805	664.216
273.482	18.158	879.006	663.853
274.497	18.155	878.550	663.436
275.512	18.039	878.384	662.802
276.526	18.137	877.738	662.635
277.541	18.285	877.012	662.604
278.555	18.247	876.904	662.316
279.570	18.323	876.297	662.094
280.585	18.467	875.431	661.937
281.599	18.420	874.072	660.667
282.614	18.429	873.351	660.098
283.628	18.434	872.704	659.570
284.643	18.265	872.665	658.832
285.657	18.298	872.010	658.407
286.672	18.324	870.993	657.680
287.687	18.358	870.814	657.617
288.701	18.511	869.826	657.401
289.716	18.339	869.647	656.546
290.730	18.365	869.043	656.135
291.745	18.427	868.401	655.827
292.760	18.600	867.717	655.913
293.774	18.730	866.894	655.731
294.789	18.500	866.613	654.583
295.803	18.448	865.615	653.571
296.818	18.544	864.986	653.405
297.833	18.435	864.044	652.220
298.847	18.479	863.652	652.035
299.862	18.537	863.008	651.711
300.876	18.596	862.764	651.695
301.891	18.720	862.117	651.617
302.906	18.888	861.306	651.585
303.920	18.869	861.361	651.498
304.935	18.885	861.022	651.245
305.949	18.800	860.048	650.126
306.964	18.615	859.435	648.906
307.979	18.671	858.758	648.551
308.993	18.787	858.368	648.637
310.008	19.081	857.564	649.080
311.022	18.720	856.835	647.112
312.037	18.785	856.559	647.089
313.052	18.786	855.834	646.487
314.066	18.541	854.915	644.816
315.081	18.577	854.798	644.805
316.095	18.508	854.233	644.065
317.110	18.501	853.713	643.587
318.125	18.747	852.259	643.358
319.139	18.610	852.348	642.853
320.154	18.630	851.980	642.595
321.168	18.672	851.493	642.326
322.183	18.651	851.155	641.935
323.197	18.659	850.654	641.531
324.212	18.785	849.777	641.286
325.227	18.732	849.447	640.779
326.241	18.667	848.842	640.024
327.256	18.712	848.049	639.538
328.270	18.672	847.367	638.818
329.285	18.660	846.955	638.406
330.300	18.601	846.568	637.837
331.314	18.605	845.754	637.185
332.329	18.927	845.437	638.083
333.343	19.031	844.614	637.793
334.358	18.860	844.601	637.093
335.373	19.115	843.975	637.508
336.387	19.108	843.751	637.256
337.402	19.130	843.367	636.990
338.416	19.124	843.359	636.906
339.431	19.262	843.248	637.279
340.446	19.303	842.701	636.959
341.460	19.446	842.379	637.189
342.475	19.406	841.924	636.639
343.489	19.371	841.550	636.171
344.504	19.599	841.090	636.608
345.519	19.592	840.586	636.142
346.533	19.457	840.123	635.239
347.548	19.425	839.146	634.328
348.562	19.301	838.359	633.223
349.577	19.078	837.909	632.006
350.592	19.108	837.033	631.399
351.606	18.982	836.517	630.494
352.621	19.108	835.753	630.323
353.635	19.091	835.616	630.101
354.650	19.225	834.819	629.935
355.665	19.441	833.962	630.020
356.679	19.410	833.464	629.475
357.694	19.183	833.066	628.290
358.708	19.133	832.996	628.002
359.723	19.387	831.910	628.053
360.738	19.308	831.532	627.422
361.752	19.272	830.929	626.780
362.767	19.537	830.007	626.994
363.781	19.691	829.662	627.235
364.796	19.617	829.586	626.853
365.810	19.739	829.235	626.977
366.825	19.748	828.583	626.460
367.840	19.755	828.377	626.273
368.854	19.610	827.749	625.220
369.869	19.572	827.437	624.792
370.883	19.644	826.502	624.288
371.898	19.740	826.417	624.517
372.913	19.773	826.153	624.380
373.927	19.799	825.090	623.617
374.942	19.841	824.704	623.422
375.956	19.945	824.455	623.552
376.971	19.933	824.086	623.175
377.986	20.024	823.641	623.110
379.000	20.034	822.983	622.594
380.015	20.017	822.631	622.213
381.029	19.983	822.029	621.579
382.044	19.883	821.455	620.732
383.059	20.036	821.230	621.054
384.073	19.989	820.212	620.062
385.088	19.741	819.760	618.778
386.102	19.830	818.867	618.366
387.117	19.751	818.202	617.528
388.132	19.866	817.749	617.541
389.146	19.865	817.270	617.121
390.161	19.912	817.129	617.128
391.175	19.908	816.702	616.738
392.190	19.896	816.339	616.367
393.205	19.802	815.554	615.384
394.219	19.816	814.948	614.920
395.234	19.827	814.495	614.565
396.248	19.678	814.327	613.853
397.263	19.584	813.734	613.019
398.278	19.694	813.460	613.149
399.292	19.826	812.490	612.833
400.307	19.860	811.994	612.525
401.321	19.726	811.692	611.768
402.336	19.802	811.449	611.799
403.350	20.029	810.984	612.198
404.365	19.937	810.684	611.592
405.380	19.877	810.528	611.207
406.394	20.213	809.650	611.674
407.409	20.239	809.192	611.369
408.423	20.412	808.731	611.573
409.438	20.385	808.839	611.508
410.453	20.533	808.163	611.461
411.467	20.358	807.955	610.636
412.482	20.520	807.588	610.874
413.496	20.539	806.918	610.378
414.511	20.503	806.865	610.160
415.526	20.400	806.403	609.395
416.540	20.381	805.557	608.635
417.555	20.494	805.182	608.693
418.569	20.431	804.775	608.111
419.584	20.480	804.502	608.022
420.599	20.406	803.968	607.307
421.613	161.680	1372.831	1795.806
422.628	140.487	1455.702	1795.903
