DTS Sentinel unit serial number:	SN413079Multiplexer serial number:	ORYXHardware model number:	OX4-SRSoftware version number:	ORYX F/W v4.00 Oryx Data Collector v3.7.2.0data status	okinstallation	princeton_trtdifferential loss correction	single-endedforward channel	channel 1reverse channel	N/Adate	2019/09/18time	16:38:36forward acquisition time	60.00reverse acquisition time	0.00gamma	496.2192k internal	0.2292k external	0.2292temperature offset calibration	0.9994default loss term (dB/km)	0.3790temperature slope calibration	1.0000multiplexer offset coefficient	1.0000multiplexer slope coefficient	1.0000fibre end	0.00T internal ref (°C)	39.61T ext. ref 1 (°C)	0.86T ext. ref 2 (°C)	36.84length (m)	temperature (°C)	Stokes	anti-Stokes-747.200	-195.134	0.135	-0.001
-746.185	159.759	0.186	0.265
-745.171	-200.000	0.030	-0.247
-744.156	-200.000	-0.026	0.157
-743.142	-200.000	0.005	0.211
-742.127	84.182	0.271	0.303
-741.112	800.000	0.050	0.156
-740.098	254.199	-0.135	0.236
-739.083	-200.000	0.004	0.208
-738.069	-79.720	0.091	-0.032
-737.054	-37.833	0.164	-0.089
-736.039	-107.711	-0.187	0.042
-735.025	-40.208	-0.193	0.103
-734.010	26.166	0.033	0.028
-732.996	-128.038	-0.167	-0.024
-731.981	147.801	-0.011	-0.015
-730.966	-200.000	-0.035	0.213
-729.952	39.732	0.159	0.146
-728.937	236.935	-0.042	0.071
-727.923	61.888	-0.224	-0.229
-726.908	305.677	0.167	0.317
-725.894	542.415	-0.092	0.225
-724.879	-200.000	-0.025	-0.216
-723.864	-157.552	0.180	-0.011
-722.850	-34.299	-0.093	0.052
-721.835	-200.000	0.002	-0.392
-720.821	-149.967	-0.102	-0.008
-719.806	17.477	-0.093	-0.076
-718.791	65.067	-0.041	-0.042
-717.777	-200.000	0.035	-0.358
-716.762	-200.000	0.028	-0.149
-715.748	127.678	0.183	-0.238
-714.733	229.004	-0.185	-0.308
-713.718	590.171	-0.154	-0.389
-712.704	-200.000	0.005	0.034
-711.689	25.561	-0.074	0.063
-710.675	-186.258	0.391	-0.006
-709.660	-95.206	0.221	-0.061
-708.645	800.000	-0.063	-0.191
-707.631	-200.000	-0.056	0.402
-706.616	46.683	-0.145	-0.138
-705.602	-200.000	0.048	-0.379
-704.587	-182.239	0.304	-0.006
-703.572	-200.000	0.019	-0.121
-702.558	535.989	0.170	-0.411
-701.543	-200.000	0.082	-0.389
-700.529	800.000	-0.070	-0.206
-699.514	-23.095	-0.188	-0.116
-698.499	-200.000	-0.027	0.313
-697.485	-200.000	-0.051	0.265
-696.470	-182.682	-0.224	-0.004
-695.456	8.513	-0.133	-0.102
-694.441	12.544	-0.112	0.088
-693.426	-62.716	-0.070	0.029
-692.412	-16.822	0.094	0.060
-691.397	-50.573	-0.152	0.073
-690.383	800.000	-0.088	-0.342
-689.368	258.352	-0.206	-0.363
-688.354	-200.000	0.019	-0.284
-687.339	-23.854	-0.288	0.176
-686.324	173.716	0.081	-0.119
-685.310	19.601	0.110	0.090
-684.295	-200.000	0.021	-0.100
-683.281	-14.844	-0.211	-0.139
-682.266	153.626	0.182	-0.255
-681.251	-108.318	-0.240	0.053
-680.237	-200.000	0.027	0.156
-679.222	800.000	0.061	-0.240
-678.208	84.105	0.192	-0.214
-677.193	-101.963	-0.318	0.078
-676.178	155.310	0.077	-0.108
-675.164	597.284	-0.048	0.122
-674.149	800.000	0.079	0.252
-673.135	790.772	-0.141	-0.395
-672.120	-7.101	0.087	-0.061
-671.105	-178.046	0.182	0.004
-670.091	-86.428	0.318	-0.100
-669.076	800.000	-0.065	0.285
-668.062	184.961	-0.056	-0.085
-667.047	-200.000	0.032	0.160
-666.032	710.227	0.130	-0.351
-665.018	-139.396	0.331	0.036
-664.003	140.681	-0.206	-0.278
-662.989	209.828	0.092	0.147
-661.974	-62.879	-0.198	0.084
-660.959	-103.004	-0.065	-0.016
-659.945	21.543	-0.256	-0.213
-658.930	60.342	-0.125	-0.127
-657.916	442.165	0.120	-0.268
-656.901	-66.735	-0.168	-0.068
-655.886	800.000	0.038	0.109
-654.872	-200.000	-0.041	0.243
-653.857	-71.999	0.148	0.056
-652.843	-86.359	0.196	-0.061
-651.828	800.000	-0.051	-0.219
-650.814	-72.823	0.200	0.075
-649.799	800.000	-0.140	0.548
-648.784	-200.000	0.012	-0.164
-647.770	65.653	-0.222	-0.229
-646.755	253.706	-0.120	-0.210
-645.741	8.306	0.143	-0.110
-644.726	151.584	-0.079	-0.110
-643.711	800.000	0.076	-0.263
-642.697	705.708	0.085	0.228
-641.682	-200.000	-0.028	-0.168
-640.668	8.509	0.120	0.092
-639.653	196.201	0.134	0.208
-638.638	-5.871	-0.305	-0.213
-637.624	-71.170	0.279	0.107
-636.609	-33.182	-0.118	0.067
-635.595	9.946	0.077	-0.060
-634.580	48.582	-0.045	0.043
-633.565	-87.157	-0.441	0.137
-632.551	-200.000	0.045	0.247
-631.536	800.000	0.047	-0.210
-630.522	800.000	0.098	-0.434
-629.507	83.223	-0.072	0.080
-628.492	489.612	-0.142	-0.331
-627.478	-57.300	0.090	-0.040
-626.463	-117.248	0.116	0.021
-625.449	-200.000	0.010	0.056
-624.434	-200.000	0.040	-0.185
-623.419	-200.000	-0.043	-0.477
-622.405	-0.926	-0.140	0.101
-621.390	390.077	0.115	0.242
-620.376	180.446	0.193	0.288
-619.361	-91.045	0.283	0.083
-618.346	-200.000	0.012	0.419
-617.332	2.651	-0.271	-0.200
-616.317	-200.000	0.008	-0.210
-615.303	16.067	0.136	0.109
-614.288	1.560	0.272	-0.199
-613.273	-7.718	-0.158	-0.109
-612.259	-94.772	-0.319	-0.088
-611.244	-57.139	0.192	0.086
-610.230	70.413	-0.221	-0.232
-609.215	800.000	0.066	0.241
-608.201	-93.779	-0.080	-0.022
-607.186	-114.690	-0.218	-0.042
-606.171	-15.925	0.229	0.149
-605.157	800.000	0.049	0.202
-604.142	-32.365	-0.044	-0.025
-603.128	-107.666	-0.089	0.020
-602.113	191.601	0.130	-0.199
-601.098	87.457	-0.118	-0.132
-600.084	-5.149	0.074	-0.052
-599.069	800.000	0.031	0.095
-598.055	262.152	-0.221	0.390
-597.040	411.740	-0.113	0.244
-596.025	800.000	-0.131	0.390
-595.011	23.981	-0.180	-0.151
-593.996	-200.000	0.007	0.321
-592.982	800.000	-0.074	-0.274
-591.967	730.706	0.093	0.253
-590.952	87.979	0.117	-0.132
-589.938	-132.990	-0.369	0.048
-588.923	61.331	-0.068	-0.069
-587.909	-101.556	0.063	-0.015
-586.894	52.923	0.116	-0.113
-585.879	-200.000	-0.000	0.048
-584.865	-200.000	0.031	0.151
-583.850	165.408	-0.118	-0.170
-582.836	76.238	-0.139	0.150
-581.821	292.148	0.114	-0.211
-580.806	-76.872	-0.114	-0.040
-579.792	-108.655	0.254	-0.055
-578.777	-90.939	0.208	-0.061
-577.763	785.775	0.063	0.175
-576.748	-44.809	0.260	-0.132
-575.733	-99.039	0.180	-0.046
-574.719	-200.000	-0.313	-0.001
-573.704	-32.089	0.108	-0.061
-572.690	185.177	-0.179	-0.270
-571.675	128.006	-0.083	-0.107
-570.661	-79.406	0.354	-0.122
-569.646	-28.661	0.247	-0.145
-568.631	-98.054	0.310	0.081
-567.617	4.920	0.072	0.054
-566.602	-73.665	-0.259	0.096
-565.588	77.208	-0.035	-0.038
-564.573	-200.000	-0.035	-0.285
-563.558	44.825	-0.221	0.207
-562.544	800.000	0.081	0.292
-561.529	139.319	-0.234	0.313
-560.515	61.411	-0.101	0.102
-559.500	-36.379	0.273	-0.149
-558.485	188.709	-0.222	-0.337
-557.471	33.362	-0.118	0.104
-556.456	121.938	0.110	0.140
-555.442	-120.843	-0.016	0.003
-554.427	-109.134	-0.277	0.060
-553.412	-109.765	-0.071	0.015
-552.398	-200.000	-0.017	0.213
-551.383	300.329	0.161	0.301
-550.369	108.396	-0.213	-0.258
-549.354	-89.622	0.460	0.137
-548.339	-200.000	0.013	-0.327
-547.325	-21.418	0.251	0.156
-546.310	800.000	-0.027	0.097
-545.296	-173.726	-0.271	-0.008
-544.281	-16.917	-0.094	-0.061
-543.266	-200.000	0.025	-0.113
-542.252	42.028	0.199	-0.183
-541.237	-51.723	0.051	0.024
-540.223	-200.000	0.007	-0.270
-539.208	241.625	0.180	0.305
-538.193	-65.965	-0.259	0.105
-537.179	800.000	0.053	-0.227
-536.164	236.844	0.100	-0.168
-535.150	152.222	0.207	-0.287
-534.135	800.000	-0.024	-0.084
-533.121	-77.662	0.108	0.038
-532.106	-123.816	0.408	0.065
-531.091	280.127	0.040	-0.073
-530.077	349.582	0.058	-0.116
-529.062	210.708	0.186	0.296
-528.048	207.851	0.117	0.186
-527.033	-200.000	0.036	-0.266
-526.018	570.577	-0.107	0.263
-525.004	796.296	-0.148	-0.414
-523.989	65.421	-0.062	-0.063
-522.975	-118.766	-0.253	0.045
-521.960	-147.586	0.090	0.008
-520.945	-86.711	0.066	0.021
-519.931	800.000	0.032	0.120
-518.916	800.000	0.076	-0.323
-517.902	-135.692	-0.463	0.056
-516.887	-35.402	0.186	-0.103
-515.872	800.000	-0.037	-0.105
-514.858	-200.000	0.017	0.183
-513.843	-40.130	0.445	0.235
-512.829	-200.000	-0.041	-0.214
-511.814	800.000	0.107	-0.335
-510.799	-44.747	-0.294	-0.149
-509.785	800.000	-0.074	0.237
-508.770	-200.000	-0.004	0.068
-507.756	275.026	-0.184	-0.330
-506.741	-6.796	0.092	0.063
-505.726	800.000	0.125	-0.477
-504.712	-200.000	0.027	-0.142
-503.697	47.216	-0.164	0.155
-502.683	-84.051	0.035	-0.011
-501.668	-94.271	0.051	0.014
-500.653	-200.000	0.023	-0.113
-499.639	-16.418	-0.043	-0.028
-498.624	471.276	0.129	-0.295
-497.610	19.333	-0.390	0.317
-496.595	-116.403	0.393	-0.074
-495.581	13.116	0.168	-0.132
-494.566	195.860	-0.268	-0.413
-493.551	-54.893	0.264	-0.121
-492.537	-112.233	-0.490	0.100
-491.522	139.718	-0.159	-0.212
-490.508	132.260	-0.114	-0.148
-489.493	42.476	-0.167	0.154
-488.478	-142.374	0.115	-0.011
-487.464	159.985	0.180	0.254
-486.449	-117.325	0.140	-0.026
-485.435	121.360	-0.117	0.148
-484.420	-86.588	-0.083	0.026
-483.405	-184.983	-0.447	-0.007
-482.391	130.214	0.079	0.103
-481.376	208.625	0.172	0.273
-480.362	-1.816	0.056	-0.040
-479.347	-67.306	-0.067	-0.027
-478.332	800.000	0.098	0.331
-477.318	-128.815	-0.052	-0.007
-476.303	-61.150	-0.189	0.081
-475.289	133.069	-0.137	-0.179
-474.274	-82.708	0.521	0.171
-473.259	526.507	-0.048	-0.114
-472.245	-200.000	-0.000	0.058
-471.230	2.534	0.123	0.090
-470.216	-155.446	0.071	-0.005
-469.201	-187.331	0.185	-0.003
-468.186	-161.764	0.155	0.008
-467.172	-78.829	-0.298	-0.103
-466.157	-22.999	0.313	0.191
-465.143	148.008	-0.096	-0.131
-464.128	7.605	-0.202	0.153
-463.113	225.808	-0.102	-0.168
-462.099	-200.000	-0.280	0.001
-461.084	5.046	0.066	0.049
-460.070	-200.000	-0.002	0.015
-459.055	109.445	0.124	-0.150
-458.040	-114.186	0.180	0.035
-457.026	133.385	-0.113	0.148
-456.011	-182.460	0.101	0.002
-454.997	-56.609	0.148	0.066
-453.982	181.803	-0.031	-0.046
-452.968	222.870	0.124	0.203
-451.953	-105.335	-0.288	0.066
-450.938	800.000	0.037	-0.103
-449.924	-62.365	-0.393	0.165
-448.909	-200.000	-0.037	-0.210
-447.895	-128.071	-0.247	0.036
-446.880	-99.833	-0.215	0.054
-445.865	-200.000	-0.064	-0.295
-444.851	118.350	0.043	-0.054
-443.836	-64.185	-0.196	-0.081
-442.822	-31.523	-0.145	0.083
-441.807	88.970	0.159	-0.179
-440.792	-200.000	-0.001	-0.009
-439.778	47.219	-0.266	0.251
-438.763	41.363	0.053	0.048
-437.749	107.082	0.344	0.413
-436.734	-51.951	-0.166	-0.078
-435.719	-200.000	0.009	0.085
-434.705	78.464	-0.146	-0.158
-433.690	316.394	0.050	-0.095
-432.676	74.418	-0.301	0.319
-431.661	177.051	-0.068	-0.101
-430.646	-47.734	0.206	0.101
-429.632	-103.280	-0.096	0.023
-428.617	800.000	0.068	0.276
-427.603	800.000	-0.030	-0.105
-426.588	-200.000	0.000	0.116
-425.573	-146.743	0.090	-0.008
-424.559	41.011	0.138	0.126
-423.544	0.385	0.367	0.265
-422.530	800.000	0.050	-0.158
-421.515	-200.000	-0.104	-0.475
-420.500	-200.000	0.053	-0.328
-419.486	-200.000	0.003	-0.139
-418.471	-13.442	-0.190	-0.124
-417.457	-140.940	-0.203	0.021
-416.442	-5.766	0.286	0.198
-415.428	-123.865	0.103	-0.016
-414.413	-200.000	-0.021	0.212
-413.398	205.858	-0.100	-0.157
-412.384	-200.000	-0.006	0.107
-411.369	-102.832	-0.269	-0.065
-410.355	-200.000	0.019	0.182
-409.340	-130.794	-0.047	-0.006
-408.325	-200.000	-0.006	0.203
-407.311	800.000	-0.066	0.236
-406.296	-123.932	0.225	0.036
-405.282	-70.026	-0.234	-0.090
-404.267	-48.975	-0.077	-0.037
-403.252	323.745	0.112	-0.217
-402.238	-125.568	-0.312	-0.048
-401.223	113.569	0.230	-0.282
-400.209	-1.020	0.233	0.167
-399.194	-114.232	-0.203	-0.040
-398.179	800.000	-0.040	0.116
-397.165	0.906	-0.052	-0.037
-396.150	-200.000	0.067	0.459
-395.136	-127.211	0.273	-0.040
-394.121	800.000	-0.084	0.270
-393.106	-200.000	0.013	0.078
-392.092	209.133	-0.067	-0.106
-391.077	-200.000	0.035	0.000
-390.063	59.807	-0.209	-0.208
-389.048	-116.861	0.132	-0.024
-388.033	-200.000	-0.005	-0.153
-387.019	-50.144	-0.143	-0.068
-386.004	-170.625	-0.055	-0.002
-384.990	-200.000	0.027	-0.125
-383.975	11.403	0.162	0.126
-382.960	420.516	-0.087	-0.187
-381.946	800.000	-0.013	0.037
-380.931	-200.000	-0.045	0.330
-379.917	800.000	-0.045	0.181
-378.902	17.975	-0.155	-0.125
-377.888	160.497	-0.039	0.055
-376.873	44.684	0.212	0.197
-375.858	61.985	-0.108	-0.109
-374.844	-93.712	-0.073	0.020
-373.829	203.273	0.168	0.262
-372.815	200.847	0.308	0.478
-371.800	-28.779	0.056	-0.032
-370.785	-52.641	-0.197	0.092
-369.771	273.392	0.042	-0.076
-368.756	-200.000	-0.022	-0.165
-367.742	-70.916	0.142	-0.054
-366.727	-200.000	0.003	0.185
-365.712	-200.000	-0.027	-0.176
-364.698	800.000	-0.036	-0.135
-363.683	35.703	0.365	-0.324
-362.669	-60.273	-0.147	-0.063
-361.654	-136.097	-0.235	0.028
-360.639	117.997	0.052	-0.064
-359.625	535.965	0.042	0.100
-358.610	234.622	-0.079	-0.132
-357.596	-200.000	0.025	-0.298
-356.581	74.016	-0.203	-0.215
-355.566	2.248	-0.131	-0.095
-354.552	65.226	-0.104	0.106
-353.537	414.424	-0.148	0.318
-352.523	-35.031	0.541	0.297
-351.508	-33.697	-0.379	-0.211
-350.493	-144.093	0.040	-0.004
-349.479	-108.761	-0.411	0.089
-348.464	106.704	-0.211	0.252
-347.450	-105.722	0.064	0.015
-346.435	139.990	0.052	-0.069
-345.420	-111.549	0.164	0.034
-344.406	-200.000	-0.005	-0.040
-343.391	-92.204	0.384	0.109
-342.377	-46.747	-0.493	0.243
-341.362	-108.447	0.258	0.056
-340.348	-22.364	0.388	-0.237
-339.333	800.000	0.085	-0.271
-338.318	46.791	0.142	0.133
-337.304	13.702	0.193	0.151
-336.289	119.754	-0.296	-0.369
-335.275	-142.311	0.212	0.021
-334.260	-200.000	0.079	0.351
-333.245	171.848	0.109	0.157
-332.231	250.263	0.183	0.312
-331.216	137.938	-0.025	0.032
-330.202	-200.000	0.041	0.239
-329.187	-93.901	0.372	0.103
-328.172	800.000	0.024	-0.098
-327.158	16.072	-0.043	-0.034
-326.143	277.732	-0.071	-0.127
-325.129	800.000	0.056	-0.193
-324.114	-66.421	0.295	-0.118
-323.099	-105.968	0.293	0.066
-322.085	113.514	-0.029	0.035
-321.070	-200.000	0.022	0.252
-320.056	88.684	-0.330	0.370
-319.041	108.485	-0.103	0.124
-318.026	62.474	0.106	0.107
-317.012	97.646	0.212	-0.245
-315.997	-87.813	-0.201	-0.061
-314.983	-200.000	-0.039	0.258
-313.968	447.304	0.031	-0.069
-312.953	-113.305	0.125	0.025
-311.939	-177.899	-0.590	0.014
-310.924	-107.774	-0.107	0.023
-309.910	-200.000	-0.004	0.080
-308.895	-148.152	-0.300	-0.025
-307.880	194.409	0.184	-0.281
-306.866	295.142	-0.149	0.275
-305.851	-200.000	-0.064	-0.309
-304.837	-134.468	-0.398	0.049
-303.822	800.000	0.070	-0.216
-302.807	53.275	0.145	0.140
-301.793	-16.147	-0.180	-0.115
-300.778	64.503	0.288	0.292
-299.764	107.586	0.161	-0.193
-298.749	-99.543	0.197	-0.050
-297.735	-200.000	-0.025	0.166
-296.720	-108.554	-0.215	-0.046
-295.705	286.658	-0.081	0.146
-294.691	186.783	0.131	-0.196
-293.676	-54.439	0.187	0.085
-292.662	-77.780	-0.337	0.117
-291.647	-167.450	-0.213	0.009
-290.632	-69.131	-0.316	0.122
-289.618	-26.466	-0.076	0.045
-288.603	-200.000	-0.022	-0.314
-287.589	-119.684	0.145	-0.025
-286.574	145.082	-0.041	-0.054
-285.559	-163.879	-0.412	-0.019
-284.545	-0.228	-0.334	-0.239
-283.530	448.159	-0.095	-0.210
-282.516	188.364	0.192	-0.289
-281.501	-85.623	0.462	0.144
-280.486	-200.000	-0.042	0.328
-279.472	313.207	-0.087	0.164
-278.457	-37.832	-0.071	0.038
-277.443	543.312	0.036	0.086
-276.428	800.000	-0.063	-0.196
-275.413	-41.539	-0.138	-0.071
-274.399	7.471	0.110	-0.083
-273.384	-60.836	0.112	-0.048
-272.370	48.803	-0.166	0.156
-271.355	143.110	0.059	-0.079
-270.340	-100.474	0.264	0.066
-269.326	800.000	0.073	-0.241
-268.311	-90.007	-0.268	0.079
-267.297	330.983	0.132	0.255
-266.282	-200.000	0.034	-0.236
-265.267	42.235	-0.138	-0.126
-264.253	800.000	0.020	-0.065
-263.238	194.081	-0.064	-0.097
-262.224	-121.127	0.483	-0.081
-261.209	240.797	0.157	-0.263
-260.195	-84.680	-0.276	0.087
-259.180	-59.120	-0.275	-0.119
-258.165	256.880	0.123	-0.213
-257.151	-72.478	-0.218	0.081
-256.136	800.000	-0.018	-0.062
-255.122	19.870	-0.273	-0.221
-254.107	-143.775	-0.134	0.013
-253.092	-15.415	0.149	0.095
-252.078	-5.461	0.075	-0.051
-251.063	265.060	-0.096	-0.168
-250.049	-38.237	0.294	-0.156
-249.034	289.076	0.109	-0.198
-248.019	582.266	-0.144	-0.354
-247.005	178.337	0.100	-0.147
-245.990	113.020	-0.063	-0.077
-244.976	0.841	0.311	-0.224
-243.961	800.000	0.159	-0.499
-242.946	-35.279	0.335	-0.183
-241.932	-129.574	-0.151	0.021
-240.917	22.060	0.135	-0.110
-239.903	-34.366	-0.016	-0.009
-238.888	-200.000	0.001	0.235
-237.873	-137.375	0.116	0.013
-236.859	104.409	-0.083	-0.098
-235.844	-200.000	0.056	0.359
-234.830	-200.000	0.054	0.255
-233.815	-3.002	0.097	-0.068
-232.800	-80.644	0.191	-0.064
-231.786	4.415	-0.055	-0.041
-230.771	-182.828	-0.104	0.002
-229.757	-85.658	0.248	-0.077
-228.742	-26.941	-0.219	0.128
-227.727	-200.000	0.005	-0.204
-226.713	71.451	0.099	-0.103
-225.698	-200.000	-0.050	0.228
-224.684	109.236	-0.314	0.376
-223.669	183.590	0.092	0.137
-222.655	101.497	0.172	-0.201
-221.640	-200.000	0.005	-0.130
-220.625	-133.786	0.068	-0.009
-219.611	-17.251	-0.128	0.081
-218.596	153.905	-0.036	-0.049
-217.582	1.032	0.193	0.139
-216.567	-200.000	-0.022	0.154
-215.552	142.589	0.016	0.021
-214.538	27.076	-0.085	-0.072
-213.523	180.771	0.105	0.155
-212.509	-161.905	-0.308	-0.016
-211.494	355.049	0.170	0.339
-210.479	-22.227	-0.085	0.052
-209.465	270.115	0.089	-0.156
-208.450	-73.973	-0.236	-0.086
-207.436	-117.714	-0.283	0.051
-206.421	54.479	-0.125	-0.121
-205.406	800.000	-0.068	0.241
-204.392	44.173	-0.116	-0.106
-203.377	800.000	0.121	-0.359
-202.363	-76.432	-0.274	-0.097
-201.348	-200.000	-0.000	0.052
-200.333	-200.000	0.097	0.454
-199.319	-69.664	-0.340	-0.130
-198.304	798.877	-0.034	-0.093
-197.290	279.287	-0.121	-0.216
-196.275	72.671	-0.162	0.169
-195.260	245.310	0.011	0.019
-194.246	-146.553	0.231	0.020
-193.231	-200.000	0.010	0.220
-192.217	-79.273	-0.023	0.008
-191.202	-135.231	0.295	-0.035
-190.187	-75.977	0.267	-0.095
-189.173	67.329	0.257	0.263
-188.158	-7.325	0.056	-0.038
-187.144	396.031	-0.076	-0.159
-186.129	378.731	-0.098	-0.201
-185.114	-200.000	0.035	-0.262
-184.100	-200.000	0.001	0.231
-183.085	239.041	-0.082	-0.136
-182.071	81.049	-0.040	-0.044
-181.056	-45.943	0.074	-0.037
-180.042	-200.000	0.048	0.280
-179.027	-101.197	0.304	0.074
-178.012	-76.688	0.054	-0.019
-176.998	156.716	0.048	0.067
-175.983	-33.039	0.094	-0.052
-174.969	-34.825	-0.249	-0.136
-173.954	-30.264	0.157	0.089
-172.939	30.336	-0.192	0.164
-171.925	25.219	-0.280	0.233
-170.910	-130.388	0.234	0.032
-169.896	800.000	0.059	0.231
-168.881	265.523	0.130	0.227
-167.866	-121.227	-0.120	0.020
-166.852	-85.912	-0.184	0.057
-165.837	-96.608	0.202	0.053
-164.823	-200.000	-0.000	0.182
-163.808	210.164	0.143	-0.224
-162.793	-200.000	0.010	0.136
-161.779	393.283	0.075	0.155
-160.764	-57.847	0.300	0.131
-159.750	5.155	0.101	0.074
-158.735	-35.319	0.321	-0.175
-157.720	-104.491	0.152	0.035
-156.706	-30.535	-0.199	-0.113
-155.691	-200.000	0.004	0.182
-154.677	-200.000	0.036	-0.287
-153.662	368.899	0.141	0.286
-152.647	83.086	-0.225	0.245
-151.633	54.787	0.183	0.176
-150.618	569.592	0.076	0.184
-149.604	-200.000	0.276	-0.001
-148.589	274.424	0.032	-0.056
-147.574	366.171	0.072	-0.144
-146.560	-192.273	-0.235	-0.002
-145.545	185.101	-0.118	-0.176
-144.531	128.824	0.071	-0.091
-143.516	800.000	0.158	-0.554
-142.502	333.173	-0.129	0.250
-141.487	-58.804	-0.263	-0.114
-140.472	348.099	0.077	0.152
-139.458	-48.872	-0.325	-0.156
-138.443	7.239	0.178	-0.133
-137.429	-48.898	0.143	0.069
-136.414	-110.269	0.394	-0.082
-135.399	-68.203	-0.296	-0.115
-134.385	78.091	0.193	-0.205
-133.370	-80.818	-0.232	0.077
-132.356	539.677	-0.117	0.277
-131.341	-55.054	0.106	-0.048
-130.326	-138.092	-0.207	0.023
-129.312	-101.262	-0.160	0.039
-128.297	-63.774	-0.283	-0.116
-127.283	116.359	0.209	0.256
-126.268	800.000	-0.052	-0.144
-125.253	-174.026	0.262	0.008
-124.239	-60.611	-0.291	0.123
-123.224	241.675	-0.145	-0.242
-122.210	177.705	0.230	-0.335
-121.195	-200.000	-0.028	0.148
-120.180	-34.782	0.134	-0.073
-119.166	87.988	-0.157	-0.174
-118.151	-200.000	-0.008	-0.175
-117.137	-93.380	0.126	-0.035
-116.122	800.000	0.029	-0.119
-115.107	185.068	-0.082	-0.121
-114.093	-13.638	0.198	0.128
-113.078	-107.406	0.093	0.020
-112.064	99.570	0.090	0.103
-111.049	-200.000	-0.022	-0.325
-110.034	-200.000	-0.050	0.249
-109.020	9.053	-0.143	0.108
-108.005	-200.000	0.001	0.005
-106.991	-200.000	-0.058	0.359
-105.976	800.000	0.013	0.042
-104.962	-165.018	0.171	-0.008
-103.947	800.000	-0.061	-0.251
-102.932	-200.000	0.019	0.470
-101.918	79.554	0.102	0.109
-100.903	382.428	0.087	0.178
-99.889	-200.000	0.012	-0.058
-98.874	800.000	0.107	-0.311
-97.859	79.545	0.305	0.327
-96.845	502.038	-0.032	-0.074
-95.830	-127.236	-0.253	-0.037
-94.816	-106.631	0.141	0.031
-93.801	-200.000	-0.003	-0.084
-92.786	21.954	0.174	0.141
-91.772	-160.378	-0.312	0.017
-90.757	-38.069	-0.457	-0.242
-89.743	110.770	0.102	0.123
-88.728	800.000	0.070	0.286
-87.713	-200.000	-0.029	0.131
-86.699	334.247	0.066	0.128
-85.684	390.589	0.117	-0.242
-84.670	-44.090	0.144	0.072
-83.655	61.030	0.106	0.105
-82.640	-122.092	0.501	0.082
-81.626	256.067	0.201	-0.344
-80.611	-200.000	-0.043	0.229
-79.597	800.000	-0.059	0.198
-78.582	-15.511	-0.042	-0.027
-77.567	221.102	0.096	-0.154
-76.553	-87.970	-0.133	-0.040
-75.538	-42.698	-0.277	-0.140
-74.524	-151.601	0.138	-0.010
-73.509	40.902	-0.203	0.183
-72.494	190.006	0.157	-0.235
-71.480	263.285	-0.018	0.031
-70.465	-200.000	-0.008	0.180
-69.451	-200.000	0.046	-0.392
-68.436	89.068	0.217	0.241
-67.422	-200.000	0.018	-0.151
-66.407	26.372	-0.185	0.154
-65.392	131.461	0.124	-0.158
-64.378	-115.207	0.384	-0.072
-63.363	159.714	0.189	-0.262
-62.349	-44.713	-0.055	0.027
-61.334	-75.633	-0.795	-0.282
-60.319	6.764	0.127	0.094
-59.305	800.000	-0.229	-0.675
-58.290	304.714	0.446	0.825
-57.276	341.624	0.663	1.291
-56.261	-200.000	76.895	515.813
-55.246	491.577	1356.992	3096.145
-54.232	140.485	2612.911	3436.805
-53.217	112.920	2268.550	2738.813
-52.203	51.026	1709.516	1614.705
-51.188	43.115	1432.857	1302.497
-50.173	39.774	1386.840	1239.680
-49.159	57.753	1423.392	1386.782
-48.144	63.537	1442.585	1442.103
-47.130	43.717	1403.872	1279.760
-46.115	39.713	1387.407	1239.601
-45.100	39.531	1382.554	1234.079
-44.086	39.408	1380.389	1231.330
-43.071	39.474	1377.628	1229.227
-42.057	39.277	1376.482	1226.928
-41.042	39.331	1374.195	1225.179
-40.027	39.500	1372.845	1224.978
-39.013	39.450	1370.780	1222.775
-37.998	39.478	1368.771	1221.105
-36.984	39.591	1366.724	1219.932
-35.969	39.647	1364.750	1218.466
-34.954	39.682	1362.851	1216.942
-33.940	39.675	1361.689	1215.812
-32.925	39.682	1360.636	1214.866
-31.911	39.723	1359.272	1213.852
-30.896	39.747	1357.128	1212.037
-29.881	39.843	1355.607	1211.218
-28.867	39.724	1354.593	1209.536
-27.852	39.654	1353.331	1207.935
-26.838	39.798	1351.624	1207.242
-25.823	39.713	1349.975	1205.200
-24.809	39.681	1348.882	1203.982
-23.794	39.634	1347.552	1202.458
-22.779	39.662	1345.797	1201.016
-21.765	39.806	1344.355	1200.561
-20.750	39.736	1342.891	1198.782
-19.736	39.642	1341.599	1197.005
-18.721	39.691	1340.046	1195.872
-17.706	39.594	1339.340	1194.609
-16.692	39.547	1337.602	1192.727
-15.677	39.578	1337.089	1192.406
-14.663	39.450	1336.379	1190.953
-13.648	39.476	1334.771	1189.628
-12.633	39.537	1333.802	1189.084
-11.619	39.477	1332.833	1187.814
-10.604	39.520	1331.485	1186.827
-9.590	39.603	1330.490	1186.389
-8.575	39.498	1329.934	1185.213
-7.560	39.529	1329.083	1184.599
-6.546	39.414	1328.554	1183.387
-5.531	39.481	1327.057	1182.407
-4.517	39.500	1326.367	1181.860
-3.502	39.486	1325.985	1181.388
-2.487	39.570	1324.371	1180.405
-1.473	39.726	1320.603	1177.933
-0.458	39.009	1306.791	1161.329
0.556	34.621	1286.871	1120.359
1.571	29.232	1289.837	1091.036
2.586	26.611	1303.196	1086.537
3.600	24.246	1290.522	1061.803
4.615	17.397	1210.950	957.823
5.629	6.655	1126.454	834.371
6.644	1.306	1102.056	788.496
7.659	0.774	1099.992	784.189
8.673	0.649	1098.871	782.671
9.688	0.723	1097.547	782.047
10.702	0.905	1095.949	781.775
11.717	6.214	1103.006	814.285
12.731	14.741	1115.204	867.683
13.746	18.067	1117.875	886.980
14.761	17.484	1116.936	883.131
15.775	16.712	1114.795	877.360
16.790	15.580	1112.854	869.898
17.804	14.872	1111.327	864.963
18.819	14.421	1109.860	861.413
19.834	14.264	1108.467	859.449
20.848	14.015	1107.493	857.331
21.863	13.707	1106.761	855.100
22.877	13.627	1106.028	854.049
23.892	13.472	1105.508	852.769
24.907	13.367	1104.788	851.600
25.921	13.484	1103.960	851.489
26.936	13.469	1103.138	850.701
27.950	13.706	1101.525	850.598
28.965	13.717	1100.832	850.045
29.980	13.841	1098.770	849.012
30.994	13.645	1098.480	847.712
32.009	13.801	1096.931	847.237
33.023	13.742	1096.196	846.295
34.038	13.694	1095.261	845.252
35.053	13.707	1094.367	844.553
36.067	13.652	1093.669	843.657
37.082	13.729	1092.289	842.912
38.096	13.707	1091.713	842.281
39.111	13.752	1090.929	841.830
40.126	13.700	1089.672	840.524
41.140	13.564	1088.717	839.021
42.155	13.500	1087.781	837.902
43.169	13.511	1086.752	837.092
44.184	13.473	1085.808	836.096
45.199	13.443	1084.863	835.145
46.213	13.540	1083.489	834.503
47.228	13.584	1082.522	833.905
48.242	13.518	1081.205	832.486
49.257	13.569	1080.277	831.952
50.271	13.583	1079.477	831.332
51.286	13.544	1078.663	830.437
52.301	13.605	1077.511	829.781
53.315	13.461	1076.945	828.553
54.330	13.579	1075.618	828.051
55.344	13.603	1074.561	827.282
56.359	13.627	1073.499	826.509
57.374	13.578	1072.458	825.394
58.388	13.526	1071.839	824.585
59.403	13.510	1071.129	823.884
60.417	13.518	1070.089	823.050
61.432	13.471	1069.446	822.252
62.447	13.483	1068.829	821.763
63.461	13.409	1068.292	820.911
64.476	13.469	1066.803	819.990
65.490	13.405	1066.081	819.044
66.505	13.496	1065.323	818.843
67.520	13.410	1065.236	818.278
68.534	13.506	1064.180	817.869
69.549	13.441	1063.453	816.917
70.563	13.399	1062.717	816.070
71.578	13.498	1061.441	815.505
72.593	13.489	1060.439	814.621
73.607	13.369	1060.379	813.914
74.622	13.534	1059.327	813.845
75.636	13.416	1058.895	812.860
76.651	13.393	1057.830	811.858
77.666	13.344	1057.208	811.066
78.680	13.404	1056.885	811.041
79.695	13.393	1055.979	810.223
80.709	13.534	1055.141	810.199
81.724	13.517	1054.392	809.466
82.739	13.502	1053.989	809.014
83.753	13.645	1053.068	808.930
84.768	13.596	1052.007	807.806
85.782	13.677	1051.354	807.630
86.797	13.673	1050.235	806.676
87.812	13.520	1049.458	805.266
88.826	13.614	1048.395	804.835
89.841	13.698	1046.797	803.946
90.855	13.698	1046.174	803.396
91.870	13.577	1045.776	802.430
92.884	13.659	1044.768	801.984
93.899	13.699	1043.782	801.352
94.914	13.834	1043.008	801.337
95.928	13.794	1042.462	800.655
96.943	13.740	1041.416	799.519
97.957	13.697	1040.405	798.467
98.972	13.701	1039.939	798.056
99.987	13.705	1038.622	796.995
101.001	13.785	1037.485	796.437
102.016	13.684	1036.821	795.368
103.030	13.778	1035.909	795.052
104.045	13.755	1035.644	794.666
105.060	13.763	1034.427	793.702
106.074	13.638	1033.603	792.402
107.089	13.683	1032.209	791.474
108.103	13.643	1031.828	790.924
109.118	13.505	1030.639	789.284
110.133	13.555	1029.869	788.863
111.147	13.531	1029.253	788.206
112.162	13.532	1028.219	787.349
113.176	13.759	1026.947	787.383
114.191	13.700	1026.499	786.691
115.206	13.701	1025.830	786.113
116.220	13.629	1024.923	785.008
117.235	13.629	1023.673	783.980
118.249	13.560	1022.941	783.025
119.264	13.633	1022.036	782.609
120.279	13.694	1021.187	782.178
121.293	13.552	1020.426	780.857
122.308	13.658	1019.543	780.611
123.322	13.624	1018.463	779.555
124.337	13.599	1017.479	778.613
125.352	13.766	1016.417	778.516
126.366	13.681	1015.376	777.249
127.381	13.674	1014.538	776.508
128.395	13.676	1013.289	775.494
129.410	13.589	1012.457	774.381
130.424	13.645	1011.858	774.116
131.439	13.714	1010.753	773.525
132.454	13.872	1009.863	773.510
133.468	13.892	1009.062	772.924
134.483	13.811	1008.341	771.926
135.497	13.798	1007.269	770.976
136.512	13.733	1006.743	770.201
137.527	13.817	1005.816	769.814
138.541	13.863	1004.597	769.028
139.556	13.798	1004.333	768.457
140.570	13.786	1003.452	767.659
141.585	13.924	1002.714	767.665
142.600	13.957	1001.277	766.646
143.614	13.892	1000.778	765.901
144.629	13.957	1000.166	765.663
145.643	14.028	998.889	764.941
146.658	13.850	998.037	763.405
147.673	13.850	997.247	762.733
148.687	13.809	996.102	761.603
149.702	13.711	995.377	760.528
150.716	13.674	994.791	759.844
151.731	13.893	993.792	760.017
152.746	13.872	993.072	759.303
153.760	13.872	992.121	758.512
154.775	13.888	991.515	758.054
155.789	13.993	990.942	758.025
156.804	13.985	990.060	757.246
157.819	13.897	989.629	756.453
158.833	13.948	989.059	756.182
159.848	14.071	987.966	755.838
160.862	14.058	987.115	755.060
161.877	14.017	986.163	754.077
162.892	13.934	985.212	752.910
163.906	13.977	984.607	752.573
164.921	13.903	983.554	751.369
165.935	13.859	983.343	750.943
166.950	13.810	982.384	749.923
167.964	14.025	980.795	749.610
168.979	13.929	979.815	748.366
169.994	13.991	978.782	747.789
171.008	13.925	978.447	747.170
172.023	13.932	977.985	746.784
173.037	14.109	976.831	746.628
174.052	14.100	976.071	745.943
175.067	13.992	975.853	745.224
176.081	13.982	975.213	744.627
177.096	14.036	974.149	743.990
178.110	14.048	973.705	743.636
179.125	14.151	973.009	743.499
180.140	14.062	972.435	742.597
181.154	14.065	972.139	742.319
182.169	14.146	971.286	741.964
183.183	14.165	971.207	741.925
184.198	14.155	970.037	740.918
185.213	14.160	968.995	740.080
186.227	14.275	968.400	740.072
187.242	14.260	967.906	739.563
188.256	14.268	967.229	739.012
189.271	14.317	966.289	738.448
190.286	14.222	965.558	737.404
191.300	14.210	964.996	736.857
192.315	14.172	963.951	735.825
193.329	14.134	963.821	735.494
194.344	14.137	963.193	734.960
195.359	14.188	962.745	734.777
196.373	14.330	961.527	734.410
197.388	14.389	961.124	734.299
198.402	14.303	960.719	733.545
199.417	14.471	959.666	733.414
200.432	14.405	959.400	732.856
201.446	14.519	958.466	732.577
202.461	14.555	958.264	732.517
203.475	14.411	958.057	731.663
204.490	14.405	957.057	730.808
205.504	14.425	956.523	730.422
206.519	14.541	955.245	729.889
207.534	14.496	954.735	729.240
208.548	14.573	953.774	728.779
209.563	14.523	953.056	727.947
210.577	14.585	952.280	727.560
211.592	14.728	951.826	727.770
212.607	14.594	951.121	726.584
213.621	14.552	950.383	725.775
214.636	14.627	949.475	725.340
215.650	14.749	948.776	725.273
216.665	14.650	948.328	724.438
217.680	14.759	947.788	724.435
218.694	14.725	946.939	723.574
219.709	14.717	946.517	723.152
220.723	14.647	945.642	722.118
221.738	14.722	944.510	721.511
222.753	14.784	943.838	721.202
223.767	14.784	943.638	720.986
224.782	14.833	943.286	720.865
225.796	14.771	942.704	720.087
226.811	14.774	942.180	719.638
227.826	14.853	940.912	718.943
228.840	14.881	940.135	718.410
229.855	14.848	939.208	717.496
230.869	14.691	938.841	716.475
231.884	14.828	938.009	716.364
232.899	14.811	936.864	715.356
233.913	14.909	936.194	715.198
234.928	14.813	935.978	714.561
235.942	14.909	934.996	714.157
236.957	14.760	934.397	713.000
237.972	14.815	933.895	712.790
238.986	14.841	933.017	712.166
240.001	15.008	932.276	712.250
241.015	14.937	931.951	711.638
242.030	14.904	931.318	710.951
243.045	14.969	930.475	710.522
244.059	14.927	929.748	709.725
245.074	15.004	929.402	709.722
246.088	14.949	928.419	708.678
247.103	15.063	928.038	708.807
248.117	15.048	927.805	708.501
249.132	15.095	926.993	708.020
250.147	15.232	925.929	707.720
251.161	15.155	925.623	707.099
252.176	15.106	925.177	706.489
253.190	15.269	924.139	706.324
254.205	15.372	923.573	706.258
255.220	15.444	922.382	705.588
256.234	15.337	922.173	704.917
257.249	15.414	921.104	704.361
258.263	15.404	920.472	703.773
259.278	15.301	920.052	702.957
260.293	15.392	919.325	702.722
261.307	15.526	918.806	702.822
262.322	15.313	918.484	701.624
263.336	15.658	916.872	701.772
264.351	15.557	916.171	700.753
265.366	15.524	915.577	700.097
266.380	15.595	915.009	699.898
267.395	15.531	914.782	699.396
268.409	15.526	913.413	698.265
269.424	15.567	912.979	698.040
270.439	15.528	912.410	697.385
271.453	15.540	911.523	696.693
272.468	15.553	911.268	696.492
273.482	15.534	910.717	695.928
274.497	15.535	909.793	695.167
275.512	15.485	909.522	694.692
276.526	15.564	908.977	694.538
277.541	15.616	908.457	694.295
278.555	15.781	907.652	694.301
279.570	15.920	906.599	694.006
280.585	15.686	905.914	692.456
281.599	15.707	905.137	691.889
282.614	15.842	904.518	691.908
283.628	15.755	903.968	691.070
284.643	15.874	903.418	691.075
285.657	15.692	903.308	690.182
286.672	15.693	902.147	689.241
287.687	15.773	901.480	688.998
288.701	15.744	901.069	688.504
289.716	15.842	900.179	688.161
290.730	15.965	899.303	687.935
291.745	15.934	899.006	687.521
292.760	15.899	898.419	686.868
293.774	15.973	897.514	686.417
294.789	15.883	896.976	685.576
295.803	15.947	896.237	685.212
296.818	16.057	895.220	684.819
297.833	15.818	895.020	683.636
298.847	15.817	894.342	683.055
299.862	15.821	894.062	682.796
300.876	16.173	892.958	683.318
301.891	16.147	892.587	682.870
302.906	16.009	892.390	682.098
303.920	16.172	891.367	681.915
304.935	16.262	890.761	681.754
305.949	16.227	889.954	680.938
306.964	16.313	889.454	680.841
307.979	16.184	889.054	679.954
308.993	16.304	888.190	679.715
310.008	16.299	887.621	679.201
311.022	16.303	887.026	678.699
312.037	16.167	886.833	677.945
313.052	16.163	886.045	677.269
314.066	16.115	885.502	676.601
315.081	16.274	884.762	676.613
316.095	16.310	884.231	676.292
317.110	16.181	883.636	675.258
318.125	16.153	883.210	674.761
319.139	16.251	883.148	675.049
320.154	16.219	882.619	674.455
321.168	16.325	881.402	673.887
322.183	16.385	881.030	673.783
323.197	16.166	880.897	672.751
324.212	16.306	879.848	672.446
325.227	16.268	879.555	672.012
326.241	16.425	878.590	671.838
327.256	16.278	878.347	671.011
328.270	16.235	877.703	670.287
329.285	16.434	876.704	670.253
330.300	16.206	876.682	669.276
331.314	16.372	875.947	669.310
332.329	16.496	875.107	669.101
333.343	16.448	874.949	668.730
334.358	16.379	874.715	668.221
335.373	16.462	874.293	668.167
336.387	16.378	873.709	667.330
337.402	16.457	873.546	667.458
338.416	16.780	872.741	668.058
339.431	16.578	872.869	667.298
340.446	16.591	872.315	666.871
341.460	16.721	871.968	667.057
342.475	16.652	871.387	666.283
343.489	16.479	871.159	665.367
344.504	16.604	870.671	665.429
345.519	16.639	870.123	665.086
346.533	16.604	869.759	664.614
347.548	16.719	868.731	664.220
348.562	16.754	868.055	663.783
349.577	16.725	867.834	663.440
350.592	16.653	866.966	662.435
351.606	16.700	866.356	662.095
352.621	16.793	865.242	661.548
353.635	16.810	864.794	661.213
354.650	16.788	864.181	660.603
355.665	16.860	863.777	660.515
356.679	16.893	863.024	660.009
357.694	16.836	862.564	659.378
358.708	16.815	861.793	658.648
359.723	16.844	861.157	658.216
360.738	16.980	860.454	658.147
361.752	16.911	860.124	657.569
362.767	16.853	859.448	656.769
363.781	17.113	858.453	656.955
364.796	17.099	858.208	656.658
365.810	17.087	858.000	656.392
366.825	17.043	857.748	655.972
367.840	17.110	856.900	655.524
368.854	16.976	856.675	654.775
369.869	16.972	856.133	654.289
370.883	17.038	855.761	654.201
371.898	17.124	855.147	654.005
372.913	17.195	854.806	653.961
373.927	17.120	854.187	653.142
374.942	17.094	853.900	652.762
375.956	17.299	853.459	653.157
376.971	17.252	852.804	652.417
377.986	17.387	852.238	652.445
379.000	17.318	851.851	651.827
380.015	17.266	851.383	651.212
381.029	17.283	851.006	650.930
382.044	17.373	850.366	650.725
383.059	17.244	849.466	649.489
384.073	17.463	848.853	649.799
385.088	17.527	847.955	649.297
386.102	17.340	847.863	648.454
387.117	17.422	846.966	648.025
388.132	17.320	846.699	647.375
389.146	17.379	846.369	647.288
390.161	17.523	845.629	647.213
391.175	17.416	845.323	646.518
392.190	17.354	844.918	645.915
393.205	17.284	844.040	644.918
394.219	17.473	844.021	645.565
395.234	17.344	843.700	644.774
396.248	17.311	843.149	644.170
397.263	17.396	842.465	643.910
398.278	17.449	842.405	644.008
399.292	17.489	842.099	643.869
400.307	17.325	841.443	642.693
401.321	17.295	841.151	642.297
402.336	17.539	840.302	642.516
403.350	17.500	839.917	642.016
404.365	17.663	839.494	642.251
405.380	17.686	838.887	641.814
406.394	17.673	838.134	641.134
407.409	17.630	837.845	640.692
408.423	17.740	837.499	640.784
409.438	17.910	836.972	640.964
410.453	17.787	836.714	640.250
411.467	17.857	836.274	640.118
412.482	17.812	835.865	639.580
413.496	17.888	835.171	639.276
414.511	17.624	835.420	638.422
415.526	17.908	834.358	638.617
416.540	17.845	833.890	637.963
417.555	17.941	833.434	637.917
418.569	17.945	833.287	637.765
419.584	18.010	832.277	637.178
420.599	17.898	832.346	636.756
421.613	94.530	1272.527	1388.743
422.628	81.646	1336.688	1388.874
