DTS Sentinel unit serial number:	SN413079Multiplexer serial number:	ORYXHardware model number:	OX4-SRSoftware version number:	ORYX F/W v4.00 Oryx Data Collector v3.7.2.0data status	okinstallation	princeton_trtdifferential loss correction	single-endedforward channel	channel 1reverse channel	N/Adate	2019/09/13time	08:18:35forward acquisition time	60.00reverse acquisition time	0.00gamma	496.2192k internal	0.2330k external	0.2330temperature offset calibration	1.0166default loss term (dB/km)	0.3790temperature slope calibration	1.0000multiplexer offset coefficient	1.0000multiplexer slope coefficient	1.0000fibre end	0.00T internal ref (°C)	27.19T ext. ref 1 (°C)	4.28T ext. ref 2 (°C)	23.13length (m)	temperature (°C)	Stokes	anti-Stokes-747.200	157.949	-0.131	-0.183
-746.185	245.271	0.147	0.249
-745.171	800.000	-0.067	0.210
-744.156	-0.235	-0.220	0.157
-743.142	672.119	-0.079	-0.207
-742.127	-122.216	-0.197	-0.032
-741.112	-200.000	0.008	0.230
-740.098	-200.000	0.015	0.136
-739.083	-80.863	-0.266	-0.089
-738.069	-76.828	0.247	0.087
-737.054	800.000	0.031	0.116
-736.039	124.784	-0.189	0.240
-735.025	-3.542	0.275	-0.193
-734.010	-116.930	-0.197	0.036
-732.996	-3.709	0.123	-0.086
-731.981	-132.658	-0.222	-0.029
-730.966	73.719	-0.234	0.246
-729.952	-54.018	0.100	0.046
-728.937	-173.174	0.331	0.010
-727.923	642.185	-0.115	-0.294
-726.908	-200.000	0.015	-0.193
-725.894	-25.549	-0.367	0.218
-724.879	-106.552	0.203	-0.045
-723.864	-77.734	-0.355	-0.123
-722.850	-200.000	0.055	-0.267
-721.835	-123.145	0.178	0.029
-720.821	-7.450	-0.179	0.122
-719.806	1.104	-0.300	-0.216
-718.791	167.366	0.125	0.179
-717.777	-88.362	0.152	0.046
-716.762	-200.000	-0.032	0.249
-715.748	549.913	-0.130	-0.314
-714.733	-159.804	-0.325	-0.018
-713.718	-200.000	0.028	0.346
-712.704	-200.000	0.009	-0.135
-711.689	800.000	0.018	0.053
-710.675	800.000	0.081	-0.274
-709.660	800.000	0.019	0.058
-708.645	-200.000	-0.060	0.464
-707.631	-200.000	0.013	0.088
-706.616	133.953	0.071	-0.092
-705.602	-85.057	0.180	-0.057
-704.587	46.056	0.017	-0.016
-703.572	118.836	-0.136	0.170
-702.558	-73.705	0.122	-0.045
-701.543	240.770	-0.150	-0.252
-700.529	160.830	-0.141	0.198
-699.514	-136.752	-0.209	0.024
-698.499	-66.327	-0.051	0.020
-697.485	800.000	-0.087	0.355
-696.470	671.360	0.043	-0.113
-695.456	-200.000	0.030	0.173
-694.441	-165.113	-0.090	-0.004
-693.426	155.120	-0.153	-0.211
-692.412	-47.757	-0.192	-0.093
-691.397	99.404	-0.146	0.170
-690.383	-200.000	0.019	-0.083
-689.368	-106.723	-0.140	0.031
-688.354	40.790	-0.183	0.166
-687.339	397.762	-0.139	0.291
-686.324	-59.455	-0.228	0.098
-685.310	328.918	0.161	0.312
-684.295	324.423	-0.082	-0.158
-683.281	485.923	0.105	0.240
-682.266	564.895	0.109	-0.266
-681.251	5.081	0.180	-0.133
-680.237	274.467	0.138	-0.246
-679.222	-87.772	0.161	-0.049
-678.208	-15.856	-0.124	0.079
-677.193	-111.412	0.222	-0.046
-676.178	-15.019	-0.259	-0.167
-675.164	-55.636	0.174	0.078
-674.149	57.313	0.076	-0.074
-673.135	-133.106	0.128	0.016
-672.120	800.000	-0.053	0.226
-671.105	39.334	0.083	0.075
-670.091	383.932	0.034	0.069
-669.076	-70.552	-0.245	0.093
-668.062	35.382	0.079	0.070
-667.047	-200.000	0.049	0.435
-666.032	8.491	0.198	0.149
-665.018	66.845	-0.181	-0.185
-664.003	-43.979	-0.190	-0.096
-662.989	210.849	-0.249	-0.392
-661.974	-200.000	0.027	-0.318
-660.959	-200.000	0.055	-0.321
-659.945	-200.000	-0.068	0.343
-658.930	-167.607	0.182	0.007
-657.916	-200.000	0.004	0.171
-656.901	120.149	0.234	0.292
-655.886	-98.847	-0.142	0.036
-654.872	168.728	0.192	0.274
-653.857	-85.090	-0.129	-0.041
-652.843	19.665	0.051	-0.041
-651.828	101.769	0.084	-0.098
-650.814	-169.630	-0.053	-0.002
-649.799	-144.705	0.421	-0.039
-648.784	83.204	-0.249	-0.272
-647.770	441.974	-0.172	-0.378
-646.755	-67.131	-0.274	0.108
-645.741	-50.165	-0.080	0.038
-644.726	338.263	0.283	-0.552
-643.711	-200.000	0.033	-0.276
-642.697	70.026	-0.114	0.118
-641.682	145.408	-0.134	-0.180
-640.668	-200.000	-0.024	0.223
-639.653	175.622	-0.121	-0.176
-638.638	124.658	-0.244	0.308
-637.624	281.373	0.077	0.138
-636.609	-200.000	0.033	-0.257
-635.595	800.000	-0.044	-0.164
-634.580	-70.389	-0.433	0.165
-633.565	212.345	-0.118	0.187
-632.551	-76.571	-0.215	0.076
-631.536	-200.000	-0.088	0.582
-630.522	-200.000	-0.007	-0.067
-629.507	-121.948	0.020	0.003
-628.492	-91.265	0.044	0.013
-627.478	-99.592	0.319	0.080
-626.463	-35.814	-0.151	0.082
-625.449	407.890	0.083	-0.175
-624.434	-110.776	0.190	-0.039
-623.419	226.111	-0.135	-0.220
-622.405	-113.424	0.152	-0.030
-621.390	-105.462	0.146	0.033
-620.376	673.669	-0.187	-0.487
-619.361	169.350	0.089	-0.128
-618.346	328.764	0.077	-0.147
-617.332	513.000	0.058	0.137
-616.317	4.447	-0.147	0.108
-615.303	-200.000	0.055	-0.245
-614.288	-104.876	-0.124	0.029
-613.273	207.675	-0.076	0.119
-612.259	154.979	-0.197	-0.271
-611.244	-159.858	0.304	0.017
-610.230	-183.710	0.338	-0.006
-609.215	-94.004	-0.029	0.008
-608.201	-107.030	0.237	-0.052
-607.186	800.000	0.146	0.466
-606.171	755.988	-0.074	0.201
-605.157	-132.253	-0.139	0.018
-604.142	-200.000	0.000	-0.296
-603.128	-200.000	-0.054	0.440
-602.113	-162.044	0.118	-0.006
-601.098	-53.020	-0.389	-0.179
-600.084	122.045	-0.063	-0.078
-599.069	-200.000	0.020	-0.322
-598.055	800.000	0.173	-0.556
-597.040	412.556	0.065	0.139
-596.025	-99.632	0.353	-0.089
-595.011	8.746	-0.240	-0.181
-593.996	-150.134	-0.279	0.022
-592.982	296.368	0.078	0.143
-591.967	-55.687	0.172	-0.077
-590.952	54.637	-0.096	-0.092
-589.938	-72.141	0.149	-0.055
-588.923	-141.322	-0.340	0.035
-587.909	43.860	0.161	-0.148
-586.894	-31.439	-0.152	-0.085
-585.879	269.965	-0.120	0.211
-584.865	-79.092	-0.148	0.050
-583.850	-133.613	0.275	0.034
-582.836	16.279	0.304	-0.240
-581.821	-10.281	0.099	-0.066
-580.806	-152.788	-0.186	0.013
-579.792	582.034	-0.076	-0.186
-578.777	29.009	0.199	0.169
-577.763	79.372	-0.208	0.223
-576.748	-38.641	-0.062	-0.033
-575.733	79.104	-0.251	0.269
-574.719	-200.000	0.006	0.047
-573.704	-133.562	0.266	-0.033
-572.690	-181.646	-0.305	0.006
-571.675	129.612	0.021	-0.027
-570.661	57.063	0.152	0.148
-569.646	421.781	0.151	-0.324
-568.631	-200.000	0.017	-0.281
-567.617	-84.746	-0.186	-0.058
-566.602	-200.000	-0.001	-0.506
-565.588	57.003	0.209	0.204
-564.573	-200.000	-0.006	0.040
-563.558	-2.127	0.176	-0.124
-562.544	51.935	0.041	-0.039
-561.529	-24.583	-0.242	0.144
-560.515	800.000	0.063	0.248
-559.500	-200.000	-0.009	0.102
-558.485	-200.000	-0.005	0.155
-557.471	94.235	0.140	0.159
-556.456	-138.383	-0.385	0.042
-555.442	-78.692	0.181	0.062
-554.427	800.000	0.029	-0.101
-553.412	43.998	0.185	0.169
-552.398	-50.117	0.166	-0.079
-551.383	32.774	0.291	-0.251
-550.369	-19.816	-0.120	-0.074
-549.354	-81.770	0.204	-0.067
-548.339	-200.000	-0.017	0.127
-547.325	-90.033	-0.213	0.062
-546.310	214.418	-0.096	0.152
-545.296	295.035	-0.074	0.136
-544.281	-200.000	0.019	0.125
-543.266	148.402	0.129	-0.174
-542.252	-102.819	-0.048	-0.011
-541.237	-200.000	0.052	0.259
-540.223	4.235	-0.124	-0.090
-539.208	-104.282	0.158	-0.037
-538.193	527.379	-0.089	-0.210
-537.179	-106.147	-0.081	0.018
-536.164	22.680	0.183	-0.150
-535.150	-200.000	-0.006	0.185
-534.135	-185.473	0.391	-0.006
-533.121	-38.050	0.064	-0.034
-532.106	-51.642	-0.371	-0.173
-531.091	350.201	-0.053	-0.105
-530.077	-108.576	0.271	0.058
-529.062	-117.108	0.253	-0.046
-528.048	322.572	-0.062	-0.119
-527.033	484.556	-0.080	-0.182
-526.018	43.839	-0.278	0.254
-525.004	113.223	-0.188	-0.227
-523.989	-200.000	0.018	0.244
-522.975	-19.153	-0.418	0.259
-521.960	1.429	0.089	-0.064
-520.945	-200.000	0.041	-0.236
-519.931	355.972	0.068	0.135
-518.916	800.000	-0.065	0.267
-517.902	-68.927	-0.277	0.107
-516.887	100.907	0.106	0.123
-515.872	-83.956	-0.044	0.014
-514.858	800.000	-0.009	0.037
-513.843	74.773	-0.042	0.044
-512.829	-3.987	0.189	-0.131
-511.814	-89.355	-0.263	0.077
-510.799	413.986	-0.016	0.035
-509.785	800.000	0.143	0.556
-508.770	133.773	-0.079	-0.102
-507.756	36.484	0.363	-0.320
-506.741	-110.290	0.097	-0.020
-505.726	276.477	-0.159	-0.282
-504.712	-41.089	-0.072	-0.037
-503.697	240.510	-0.015	-0.025
-502.683	-152.563	0.160	-0.011
-501.668	800.000	0.020	-0.083
-500.653	800.000	0.102	0.374
-499.639	122.202	-0.222	0.276
-498.624	-41.925	0.223	-0.114
-497.610	-102.129	0.407	0.098
-496.595	565.249	-0.073	-0.177
-495.581	1.530	-0.109	-0.078
-494.566	-133.824	0.287	0.036
-493.551	235.213	0.185	0.305
-492.537	255.643	0.239	0.409
-491.522	800.000	-0.047	-0.200
-490.508	-80.092	0.226	-0.076
-489.493	-50.135	-0.279	0.132
-488.478	89.837	-0.148	0.164
-487.464	-200.000	0.007	0.452
-486.449	-200.000	0.029	0.338
-485.435	159.706	0.379	0.526
-484.420	168.500	0.103	-0.147
-483.405	76.636	-0.147	-0.155
-482.391	-44.962	0.136	0.067
-481.376	-103.643	0.369	-0.086
-480.362	-200.000	-0.013	-0.356
-479.347	618.478	-0.055	0.138
-478.332	219.819	0.142	-0.227
-477.318	2.138	-0.213	0.153
-476.303	-200.000	0.015	-0.188
-475.289	-74.909	-0.184	-0.066
-474.274	-200.000	0.001	0.361
-473.259	800.000	-0.048	-0.174
-472.245	98.421	-0.077	0.088
-471.230	-168.079	0.248	0.010
-470.216	-200.000	0.042	-0.255
-469.201	329.966	0.008	-0.015
-468.186	18.303	-0.120	-0.095
-467.172	800.000	-0.044	0.125
-466.157	800.000	0.061	0.192
-465.143	95.474	0.034	0.039
-464.128	-200.000	0.030	-0.160
-463.113	702.994	-0.027	-0.072
-462.099	554.259	0.119	0.285
-461.084	-200.000	0.003	0.256
-460.070	577.966	-0.062	0.151
-459.055	-198.346	-0.331	0.002
-458.040	-99.629	0.361	0.090
-457.026	-142.463	-0.165	0.016
-456.011	331.953	0.039	-0.075
-454.997	732.565	0.060	0.159
-453.982	86.412	-0.122	-0.133
-452.968	621.190	-0.063	-0.158
-451.953	19.426	-0.092	-0.074
-450.938	19.231	-0.062	-0.049
-449.924	412.603	0.130	0.276
-448.909	-62.544	0.344	-0.142
-447.895	800.000	0.072	0.280
-446.880	682.223	-0.139	0.362
-445.865	7.083	0.106	0.079
-444.851	62.133	0.251	0.250
-443.836	138.933	0.122	0.160
-442.822	-38.449	-0.033	-0.017
-441.807	144.572	-0.189	0.251
-440.792	800.000	0.059	0.175
-439.778	-173.171	0.263	0.008
-438.763	188.450	-0.195	-0.290
-437.749	-132.676	0.163	0.021
-436.734	571.621	-0.048	0.116
-435.719	15.464	-0.158	0.123
-434.705	-106.268	0.022	0.005
-433.690	-200.000	0.005	0.275
-432.676	239.504	0.040	-0.067
-431.661	-28.294	-0.266	-0.153
-430.646	129.213	0.172	-0.218
-429.632	-98.913	-0.184	0.046
-428.617	-200.000	0.005	-0.064
-427.603	-143.342	-0.121	-0.012
-426.588	-42.129	0.192	0.098
-425.573	800.000	-0.095	-0.327
-424.559	-200.000	0.005	-0.370
-423.544	48.519	-0.105	-0.097
-422.530	171.868	-0.197	-0.282
-421.515	-151.697	0.091	0.007
-420.500	65.661	0.241	0.243
-419.486	-39.899	-0.179	0.093
-418.471	800.000	0.061	0.205
-417.457	-78.560	-0.093	-0.032
-416.442	36.243	-0.048	0.042
-415.428	800.000	0.069	0.221
-414.413	-200.000	-0.016	0.126
-413.398	-200.000	0.016	-0.100
-412.384	527.411	-0.123	0.289
-411.369	149.974	0.230	-0.310
-410.355	800.000	-0.039	0.119
-409.340	13.732	-0.112	-0.087
-408.325	-93.366	-0.189	0.052
-407.311	800.000	0.038	-0.137
-406.296	800.000	0.033	0.120
-405.282	13.948	0.160	0.124
-404.267	65.081	0.284	0.285
-403.252	359.406	0.264	0.525
-402.238	-64.331	-0.032	0.013
-401.223	68.977	-0.228	0.232
-400.209	-44.715	-0.079	-0.039
-399.194	-49.472	0.142	0.067
-398.179	-42.335	-0.279	-0.141
-397.165	-200.000	0.038	-0.300
-396.150	36.102	0.093	0.081
-395.136	-200.000	-0.006	0.163
-394.121	108.999	-0.067	-0.079
-393.106	-103.484	-0.292	0.068
-392.092	154.943	0.177	-0.241
-391.077	-57.018	-0.300	-0.131
-390.063	-93.205	-0.113	0.031
-389.048	704.433	0.143	0.374
-388.033	-200.000	-0.022	-0.146
-387.019	-10.891	0.301	0.197
-386.004	-200.000	-0.008	-0.347
-384.990	-81.683	-0.055	-0.018
-383.975	-153.089	-0.329	0.023
-382.960	-12.772	0.117	-0.075
-381.946	169.404	0.117	0.166
-380.931	-200.000	0.004	-0.187
-379.917	-97.778	0.144	-0.037
-378.902	-71.203	0.115	-0.043
-377.888	13.505	-0.049	-0.038
-376.873	-200.000	-0.002	-0.085
-375.858	7.236	-0.126	0.093
-374.844	800.000	0.035	-0.140
-373.829	-104.717	0.131	0.030
-372.815	-105.248	0.218	0.049
-371.800	-200.000	0.013	-0.095
-370.785	-36.376	-0.121	-0.065
-369.771	-141.458	0.313	0.031
-368.756	118.186	0.107	0.131
-367.742	202.463	-0.196	-0.300
-366.727	-148.635	-0.229	0.019
-365.712	-98.870	0.076	-0.019
-364.698	620.716	-0.200	-0.498
-363.683	353.696	-0.084	-0.166
-362.669	387.635	0.114	-0.234
-361.654	800.000	0.029	-0.089
-360.639	117.589	-0.312	0.381
-359.625	231.361	0.085	-0.138
-358.610	98.313	-0.250	-0.286
-357.596	72.592	-0.061	0.063
-356.581	93.143	0.081	-0.091
-355.566	-106.298	-0.091	0.020
-354.552	-200.000	0.000	0.281
-353.537	-83.363	0.045	0.014
-352.523	800.000	-0.107	-0.380
-351.508	800.000	0.083	0.274
-350.493	337.002	0.096	-0.185
-349.479	321.126	-0.114	-0.214
-348.464	-147.230	0.120	0.010
-347.450	-49.741	-0.183	0.086
-346.435	107.715	-0.200	0.237
-345.420	800.000	-0.029	-0.080
-344.406	32.971	-0.160	0.137
-343.391	10.555	-0.212	0.160
-342.377	50.116	-0.384	-0.359
-341.362	78.151	-0.228	-0.241
-340.348	-54.060	-0.260	-0.117
-339.333	22.041	0.149	0.121
-338.318	-76.796	-0.174	0.061
-337.304	800.000	0.078	-0.325
-336.289	800.000	-0.007	-0.019
-335.275	-200.000	-0.008	-0.209
-334.260	-200.000	0.010	0.132
-333.245	91.856	0.259	-0.289
-332.231	320.428	0.027	-0.051
-331.216	470.541	-0.008	-0.017
-330.202	178.108	-0.171	0.247
-329.187	-200.000	-0.007	-0.233
-328.172	-43.632	0.337	-0.168
-327.158	59.840	-0.060	0.059
-326.143	168.615	-0.163	0.230
-325.129	-83.936	-0.333	-0.105
-324.114	-77.957	-0.162	0.055
-323.099	451.475	-0.094	0.206
-322.085	-94.052	-0.305	-0.083
-321.070	-93.338	0.153	-0.042
-320.056	-117.177	0.035	0.006
-319.041	-161.020	0.146	-0.008
-318.026	18.641	0.148	0.117
-317.012	63.545	0.156	0.155
-315.997	-86.097	-0.099	0.030
-314.983	-200.000	0.025	-0.290
-313.968	160.960	-0.150	-0.207
-312.953	-89.273	0.203	-0.059
-311.939	-200.000	-0.005	-0.161
-310.924	-53.478	0.169	-0.077
-309.910	-165.947	0.088	0.004
-308.895	-15.122	-0.442	-0.280
-307.880	84.363	-0.275	0.297
-306.866	97.072	-0.260	0.295
-305.851	-200.000	-0.005	0.142
-304.837	191.241	0.105	-0.157
-303.822	-145.123	0.234	-0.021
-302.807	115.411	-0.054	-0.065
-301.793	-70.800	-0.233	-0.087
-300.778	-32.449	0.100	-0.055
-299.764	-71.513	-0.103	0.038
-298.749	800.000	0.033	-0.095
-297.735	-18.377	0.144	-0.089
-296.720	207.979	-0.072	0.112
-295.705	-83.658	0.183	-0.058
-294.691	-200.000	-0.012	0.342
-293.676	60.502	-0.323	-0.316
-292.662	-27.502	0.383	0.220
-291.647	73.836	0.100	-0.104
-290.632	10.716	0.139	0.105
-289.618	248.371	-0.140	0.235
-288.603	93.514	-0.043	-0.048
-287.589	-200.000	0.026	-0.251
-286.574	-77.612	0.167	-0.057
-285.559	-7.633	0.187	0.125
-284.545	99.613	0.101	-0.116
-283.530	42.286	-0.109	0.098
-282.516	132.761	-0.283	-0.362
-281.501	-112.107	0.210	-0.042
-280.486	94.002	0.133	-0.149
-279.472	506.761	0.094	0.215
-278.457	-200.000	-0.022	0.418
-277.443	279.722	-0.136	0.241
-276.428	148.932	0.169	0.226
-275.413	-200.000	0.050	0.315
-274.399	-43.626	-0.418	0.209
-273.384	38.058	0.232	-0.204
-272.370	144.350	-0.026	-0.035
-271.355	-37.422	-0.267	-0.141
-270.340	52.156	-0.188	-0.178
-269.326	-42.605	-0.405	0.204
-268.311	76.841	0.244	-0.256
-267.297	13.242	-0.400	-0.306
-266.282	155.882	-0.118	0.161
-265.267	-91.270	0.476	0.135
-264.253	43.888	0.148	0.134
-263.238	-49.612	0.159	0.075
-262.224	635.467	0.086	-0.216
-261.209	-200.000	-0.021	0.232
-260.195	141.753	0.102	-0.133
-259.180	-138.924	0.189	-0.020
-258.165	523.333	-0.129	0.300
-257.151	-200.000	0.023	-0.103
-256.136	67.639	-0.169	-0.171
-255.122	-65.658	-0.331	-0.131
-254.107	-13.256	-0.197	-0.126
-253.092	31.428	0.200	-0.170
-252.078	-119.337	0.117	0.020
-251.063	549.803	-0.138	0.326
-250.049	67.238	-0.113	-0.113
-249.034	800.000	0.062	-0.231
-248.019	800.000	-0.031	0.083
-247.005	-67.240	-0.345	-0.134
-245.990	-152.854	0.538	0.038
-244.976	-100.706	-0.074	0.018
-243.961	341.558	0.124	0.240
-242.946	-200.000	-0.006	-0.337
-241.932	-200.000	0.010	-0.257
-240.917	-61.084	-0.102	-0.042
-239.903	-66.576	0.031	-0.012
-238.888	800.000	0.035	-0.142
-237.873	-54.764	-0.236	0.105
-236.859	99.716	-0.173	-0.198
-235.844	115.617	0.182	0.220
-234.830	-36.518	0.124	-0.066
-233.815	27.140	0.126	-0.104
-232.800	-21.365	0.100	0.060
-231.786	-80.386	-0.187	0.062
-230.771	-41.604	0.095	0.048
-229.757	447.855	0.120	-0.260
-228.742	426.797	-0.221	0.470
-227.727	70.241	-0.181	-0.184
-226.713	-200.000	0.013	-0.243
-225.698	91.525	-0.236	-0.262
-224.684	-70.630	0.204	0.076
-223.669	204.839	0.056	-0.086
-222.655	-131.864	-0.131	0.017
-221.640	-87.021	-0.311	-0.093
-220.625	162.656	-0.137	0.190
-219.611	-97.308	0.312	0.080
-218.596	209.576	0.158	0.245
-217.582	281.037	0.045	-0.080
-216.567	101.794	-0.051	0.059
-215.552	-200.000	-0.030	0.188
-214.538	-49.734	0.302	0.142
-213.523	-200.000	0.019	0.278
-212.509	761.537	-0.091	-0.243
-211.494	-14.743	-0.078	0.050
-210.479	-97.978	0.139	-0.035
-209.465	-200.000	0.008	-0.165
-208.450	-200.000	-0.023	-0.138
-207.436	54.043	-0.165	0.157
-206.421	800.000	-0.012	0.036
-205.406	800.000	-0.041	0.127
-204.392	800.000	-0.082	0.271
-203.377	-200.000	-0.006	0.104
-202.363	99.586	-0.191	0.218
-201.348	311.235	0.070	0.129
-200.333	-200.000	-0.016	-0.133
-199.319	-185.212	0.318	0.005
-198.304	-129.990	-0.512	-0.069
-197.290	-86.726	-0.069	0.021
-196.275	-200.000	0.018	0.328
-195.260	-91.093	-0.173	-0.049
-194.246	-96.200	-0.158	0.041
-193.231	-160.735	-0.192	0.010
-192.217	448.319	-0.118	-0.256
-191.202	800.000	0.020	0.078
-190.187	59.864	0.048	-0.047
-189.173	328.293	-0.098	-0.185
-188.158	800.000	-0.017	-0.052
-187.144	182.843	-0.296	0.430
-186.129	-200.000	0.093	0.533
-185.114	-127.945	0.250	-0.035
-184.100	-85.582	-0.269	0.082
-183.085	146.399	-0.145	-0.191
-182.071	51.912	0.231	-0.217
-181.056	103.860	0.254	-0.293
-180.042	-139.253	0.361	0.038
-179.027	-133.825	0.095	0.012
-178.012	800.000	0.095	-0.351
-176.998	-122.057	0.190	-0.031
-175.983	-128.844	0.131	0.018
-174.969	427.630	-0.068	-0.145
-173.954	-0.567	0.253	-0.177
-172.939	-67.910	0.194	0.075
-171.925	-44.531	0.250	-0.123
-170.910	-200.000	0.052	-0.233
-169.896	478.949	-0.052	0.116
-168.881	-109.283	-0.075	-0.016
-167.866	800.000	-0.026	-0.104
-166.852	212.616	0.201	-0.312
-165.837	233.036	0.069	0.112
-164.823	-200.000	0.065	-0.000
-163.808	28.732	0.304	-0.254
-162.793	235.133	0.130	0.210
-161.779	19.506	-0.174	0.137
-160.764	-9.724	-0.348	0.228
-159.750	22.498	0.251	0.202
-158.735	87.411	0.286	0.312
-157.720	22.821	-0.290	0.234
-156.706	-94.064	0.248	-0.067
-155.691	101.756	-0.102	-0.117
-154.677	-97.532	0.360	0.092
-153.662	-108.001	-0.250	0.053
-152.647	-200.000	0.012	-0.101
-151.633	-43.474	0.354	-0.176
-150.618	608.412	0.018	-0.045
-149.604	-68.686	-0.148	-0.056
-148.589	359.898	-0.059	0.116
-147.574	-56.159	0.100	0.044
-146.560	800.000	-0.035	-0.114
-145.545	177.655	0.086	0.124
-144.531	-58.027	-0.237	-0.102
-143.516	181.641	0.040	0.058
-142.502	-116.796	-0.160	-0.029
-141.487	-200.000	0.025	0.292
-140.472	800.000	0.203	0.779
-139.458	-104.540	0.227	-0.051
-138.443	-200.000	-0.012	0.481
-137.429	-186.194	-0.104	0.001
-136.414	-46.321	0.127	0.062
-135.399	-129.749	-0.089	-0.012
-134.385	-140.984	-0.105	-0.011
-133.370	800.000	0.034	-0.134
-132.356	-200.000	-0.000	-0.176
-131.341	68.189	0.206	-0.207
-130.326	-42.725	-0.179	0.089
-129.312	-83.074	0.137	0.043
-128.297	244.554	-0.082	-0.135
-127.283	15.335	0.201	0.155
-126.268	-23.504	0.265	0.156
-125.253	143.509	-0.066	0.087
-124.239	-189.829	0.454	-0.005
-123.224	-98.062	0.294	0.074
-122.210	-166.181	-0.264	-0.011
-121.195	-96.586	0.167	-0.043
-120.180	-33.715	0.069	-0.037
-119.166	-38.887	-0.339	0.175
-118.151	800.000	-0.078	0.243
-117.137	-0.415	0.121	-0.084
-116.122	-136.209	-0.109	-0.012
-115.107	689.919	-0.051	-0.131
-114.093	-98.159	-0.201	-0.051
-113.078	-25.445	0.402	-0.233
-112.064	-200.000	0.028	0.352
-111.049	-200.000	0.027	-0.139
-110.034	-76.701	-0.121	0.042
-109.020	0.986	0.179	-0.126
-108.005	153.074	0.262	0.351
-106.991	-108.328	-0.181	0.038
-105.976	109.882	0.056	0.066
-104.962	800.000	-0.042	0.156
-103.947	75.720	0.156	0.162
-102.932	-200.000	0.056	0.256
-101.918	669.345	-0.061	0.156
-100.903	97.910	-0.022	0.024
-99.889	-107.728	0.137	-0.029
-98.874	-107.367	-0.272	-0.059
-97.859	111.529	0.137	0.162
-96.845	210.633	-0.074	0.115
-95.830	-144.736	-0.239	-0.022
-94.816	51.805	0.261	0.244
-93.801	-200.000	-0.054	0.447
-92.786	-200.000	-0.030	0.630
-91.772	-155.844	0.341	0.021
-90.757	-70.573	0.373	-0.138
-89.743	726.559	0.033	-0.087
-88.728	-17.046	-0.331	0.205
-87.713	-200.000	0.022	0.193
-86.699	645.494	0.098	0.247
-85.684	110.946	-0.034	-0.040
-84.670	137.130	0.174	0.224
-83.655	27.741	0.265	-0.219
-82.640	-118.977	0.411	-0.071
-81.626	129.815	-0.261	0.327
-80.611	-11.236	0.224	0.145
-79.597	800.000	-0.028	0.110
-78.582	-200.000	0.013	-0.161
-77.567	-200.000	-0.082	0.426
-76.553	-200.000	0.055	0.268
-75.538	126.907	-0.207	0.257
-74.524	412.459	-0.047	0.098
-73.509	800.000	-0.081	0.254
-72.494	480.672	0.126	0.281
-71.480	-116.901	0.111	0.020
-70.465	109.677	-0.135	0.159
-69.451	-158.523	0.189	-0.011
-68.436	-2.655	-0.097	-0.067
-67.422	2.359	0.155	-0.110
-66.407	49.546	-0.193	0.179
-65.392	141.511	0.161	-0.208
-64.378	363.609	-0.084	-0.165
-63.363	-118.449	0.266	-0.046
-62.349	333.412	0.105	0.198
-61.334	34.024	-1.023	-0.873
-60.319	23.120	0.737	0.593
-59.305	800.000	-0.339	-0.943
-58.290	534.651	0.572	1.330
-57.276	175.174	0.948	1.346
-56.261	-200.000	114.083	647.701
-55.246	528.229	1528.692	3534.498
-54.232	176.165	2698.874	3841.143
-53.217	108.464	2163.245	2530.913
-52.203	38.986	1604.081	1405.010
-51.188	30.548	1348.882	1130.388
-50.173	27.607	1310.722	1080.952
-49.159	54.967	1368.022	1294.557
-48.144	53.459	1381.990	1298.621
-47.130	30.713	1337.111	1121.342
-46.115	27.356	1318.917	1086.042
-45.100	27.107	1314.025	1080.489
-44.086	27.069	1311.665	1078.284
-43.071	27.036	1309.315	1076.113
-42.057	26.982	1307.228	1074.031
-41.042	27.050	1305.728	1073.162
-40.027	26.928	1304.688	1071.542
-39.013	27.063	1302.616	1070.593
-37.998	27.043	1300.879	1069.010
-36.984	27.049	1299.032	1067.484
-35.969	27.178	1296.691	1066.272
-34.954	27.280	1295.139	1065.552
-33.940	27.175	1294.107	1064.044
-32.925	27.335	1292.704	1063.786
-31.911	27.404	1290.720	1062.515
-30.896	27.289	1289.891	1061.115
-29.881	27.301	1288.423	1059.940
-28.867	27.408	1286.784	1059.170
-27.852	27.283	1285.749	1057.550
-26.838	27.199	1284.248	1055.785
-25.823	27.222	1282.901	1054.770
-24.809	27.280	1281.437	1053.859
-23.794	27.248	1280.212	1052.624
-22.779	27.254	1278.710	1051.383
-21.765	27.350	1277.490	1050.895
-20.750	27.260	1276.417	1049.451
-19.736	27.184	1274.979	1047.789
-18.721	27.119	1274.356	1046.859
-17.706	27.162	1272.801	1045.786
-16.692	27.225	1271.532	1045.068
-15.677	27.078	1270.865	1043.632
-14.663	27.103	1269.403	1042.532
-13.648	27.157	1268.337	1041.928
-12.633	27.141	1267.443	1041.060
-11.619	27.131	1266.460	1040.153
-10.604	27.231	1265.191	1039.640
-9.590	27.140	1264.696	1038.674
-8.575	27.129	1263.591	1037.661
-7.560	27.050	1263.000	1036.685
-6.546	26.977	1262.001	1035.408
-5.531	27.141	1260.849	1035.357
-4.517	27.066	1260.006	1034.192
-3.502	27.159	1259.385	1034.173
-2.487	27.040	1258.121	1032.419
-1.473	27.145	1254.279	1029.820
-0.458	25.814	1239.658	1010.315
0.556	24.266	1223.048	973.529
1.571	20.605	1228.869	957.951
2.586	19.676	1243.107	963.788
3.600	18.935	1231.528	950.631
4.615	14.539	1159.629	872.112
5.629	7.555	1087.298	783.295
6.644	4.608	1069.586	756.153
7.659	4.309	1067.011	752.813
8.673	4.140	1066.090	751.280
9.688	4.074	1064.911	750.063
10.702	4.462	1062.469	750.152
11.717	9.003	1068.761	776.547
12.731	16.652	1079.761	821.742
13.746	21.209	1085.143	847.946
14.761	22.031	1085.740	852.329
15.775	21.268	1084.571	847.635
16.790	20.382	1082.105	841.341
17.804	19.687	1080.950	837.005
18.819	19.467	1080.132	835.231
19.834	19.445	1079.462	834.535
20.848	19.287	1078.612	833.042
21.863	19.191	1077.532	831.667
22.877	19.029	1076.929	830.346
23.892	18.857	1076.479	829.097
24.907	19.016	1075.645	829.147
25.921	19.053	1074.192	828.134
26.936	18.943	1073.046	826.650
27.950	18.968	1071.586	825.571
28.965	19.060	1070.608	825.182
29.980	19.303	1068.986	825.023
30.994	19.331	1068.176	824.462
32.009	19.386	1067.022	823.760
33.023	19.426	1065.739	822.886
34.038	19.121	1065.143	820.899
35.053	19.130	1064.041	820.022
36.067	19.086	1063.499	819.319
37.082	19.086	1062.051	818.132
38.096	19.214	1061.866	818.528
39.111	19.292	1061.029	818.177
40.126	19.038	1059.632	815.824
41.140	18.789	1058.257	813.513
42.155	18.608	1057.110	811.706
43.169	18.521	1056.312	810.611
44.184	18.539	1055.156	809.734
45.199	18.650	1053.708	809.075
46.213	18.901	1053.125	809.738
47.228	19.109	1052.303	810.014
48.242	19.094	1051.425	809.198
49.257	18.953	1050.769	807.960
50.271	19.175	1049.670	808.084
51.286	19.217	1048.745	807.498
52.301	19.039	1048.549	806.439
53.315	18.846	1047.447	804.617
54.330	18.768	1045.914	803.004
55.344	18.767	1044.923	802.166
56.359	18.833	1043.782	801.527
57.374	18.783	1043.107	800.706
58.388	18.571	1042.225	798.971
59.403	18.488	1041.184	797.717
60.417	18.606	1040.457	797.636
61.432	18.478	1039.929	796.565
62.447	18.421	1039.252	795.715
63.461	18.388	1037.744	794.334
64.476	18.497	1037.034	794.225
65.490	18.278	1036.584	792.798
66.505	18.412	1035.732	792.693
67.520	18.423	1035.022	792.134
68.534	18.546	1034.204	792.004
69.549	18.422	1033.248	790.630
70.563	18.347	1032.381	789.552
71.578	18.173	1031.718	788.173
72.593	18.133	1030.785	787.203
73.607	18.053	1030.332	786.420
74.622	18.202	1029.517	786.417
75.636	18.275	1028.661	786.026
76.651	18.277	1028.310	785.698
77.666	18.323	1027.553	785.262
78.680	18.294	1027.107	784.720
79.695	18.327	1026.417	784.273
80.709	18.694	1025.680	785.321
81.724	18.797	1025.208	785.358
82.739	18.797	1024.780	784.960
83.753	19.067	1024.005	785.531
84.768	19.365	1023.148	786.166
85.782	19.482	1022.802	786.363
86.797	19.318	1021.739	784.728
87.812	19.132	1020.739	783.043
88.826	19.114	1019.879	782.235
89.841	19.332	1018.544	782.128
90.855	19.420	1018.133	782.144
91.870	19.403	1017.108	781.210
92.884	19.305	1016.486	780.218
93.899	19.331	1015.903	779.819
94.914	19.498	1014.629	779.529
95.928	19.284	1014.191	778.155
96.943	19.255	1013.011	777.052
97.957	19.172	1012.166	775.960
98.972	19.268	1011.128	775.531
99.987	19.248	1009.946	774.463
101.001	19.248	1009.022	773.684
102.016	19.155	1008.471	772.778
103.030	19.276	1007.901	772.815
104.045	19.368	1006.681	772.223
105.060	19.075	1005.894	770.240
106.074	18.860	1004.542	768.177
107.089	18.669	1003.061	766.125
108.103	18.505	1002.793	765.118
109.118	18.519	1001.886	764.420
110.133	18.466	1000.383	762.970
111.147	18.404	999.845	762.219
112.162	18.541	999.326	762.362
113.176	18.596	998.486	761.901
114.191	18.816	997.961	762.410
115.206	18.603	997.404	760.969
116.220	18.617	996.290	760.116
117.235	18.589	995.354	759.212
118.249	18.469	994.670	758.089
119.264	18.484	993.671	757.330
120.279	18.501	993.030	756.846
121.293	18.408	991.683	755.346
122.308	18.380	990.660	754.377
123.322	18.143	989.998	752.763
124.337	18.301	988.456	752.214
125.352	18.275	987.508	751.314
126.366	18.295	986.337	750.443
127.381	18.199	986.246	749.888
128.395	18.328	984.927	749.382
129.410	18.392	984.067	748.941
130.424	18.342	983.773	748.433
131.439	18.487	982.942	748.367
132.454	18.808	981.837	748.860
133.468	18.615	981.477	747.679
134.483	18.697	980.430	747.171
135.497	18.729	979.531	746.559
136.512	18.683	978.625	745.602
137.527	18.724	978.009	745.248
138.541	18.746	977.151	744.620
139.556	18.983	976.190	744.850
140.570	18.909	976.336	744.577
141.585	19.098	975.720	744.859
142.600	19.271	974.250	744.419
143.614	19.300	973.530	743.927
144.629	19.273	973.236	743.521
145.643	19.204	971.888	742.125
146.658	19.015	970.797	740.415
147.673	18.820	970.125	738.996
148.687	18.715	968.812	737.481
149.702	18.760	967.810	736.848
150.716	18.614	967.149	735.650
151.731	18.803	966.146	735.635
152.746	18.834	965.514	735.219
153.760	18.899	965.202	735.194
154.775	18.955	964.891	735.131
155.789	19.023	963.952	734.642
156.804	19.001	963.101	733.833
157.819	19.109	962.688	733.915
158.833	19.231	962.433	734.176
159.848	19.382	961.287	733.879
160.862	19.188	960.157	732.128
161.877	18.885	958.696	729.664
162.892	18.646	957.724	727.845
163.906	18.772	956.712	727.544
164.921	18.805	956.309	727.313
165.935	18.914	955.405	727.022
166.950	18.875	954.748	726.293
167.964	18.985	953.414	725.677
168.979	18.750	952.746	724.115
169.994	18.856	951.896	723.850
171.008	18.997	951.028	723.720
172.023	19.240	950.660	724.398
173.037	19.376	950.204	724.558
174.052	19.145	949.592	723.059
175.067	18.890	948.243	720.896
176.081	18.696	947.874	719.740
177.096	18.686	947.118	719.059
178.110	18.810	946.325	718.912
179.125	18.893	946.197	719.099
180.140	19.061	945.212	718.988
181.154	19.153	945.469	719.506
182.169	19.231	944.917	719.346
183.183	19.312	943.977	718.907
184.198	19.268	943.138	718.020
185.213	19.239	943.048	717.767
186.227	19.264	942.277	717.222
187.242	19.410	941.644	717.282
188.256	19.675	940.472	717.426
189.271	19.620	940.176	716.910
190.286	19.068	939.021	713.676
191.300	18.666	937.583	710.855
192.315	18.549	937.147	709.979
193.329	18.732	936.398	710.107
194.344	18.884	935.741	710.174
195.359	19.039	935.377	710.474
196.373	19.236	935.248	711.127
197.388	19.312	934.739	710.990
198.402	19.548	934.515	711.730
199.417	19.631	933.994	711.613
200.432	19.840	933.461	712.003
201.446	19.881	932.931	711.703
202.461	19.938	932.594	711.619
203.475	19.755	932.208	710.507
204.490	19.539	930.854	708.527
205.504	19.370	929.809	706.974
206.519	19.364	928.859	706.168
207.534	19.408	928.570	706.065
208.548	19.227	928.148	704.943
209.563	19.216	927.740	704.525
210.577	19.346	926.754	704.242
211.592	19.790	925.884	705.330
212.607	19.812	925.042	704.717
213.621	19.735	924.406	703.858
214.636	19.591	923.722	702.690
215.650	19.674	923.040	702.446
216.665	19.689	922.896	702.334
217.680	19.969	921.778	702.557
218.694	19.871	921.041	701.537
219.709	19.763	920.803	700.856
220.723	19.835	919.836	700.349
221.738	19.687	919.400	699.358
222.753	19.790	918.444	698.981
223.767	19.853	918.257	699.033
224.782	20.076	917.628	699.392
225.796	20.002	917.407	698.864
226.811	19.733	916.764	697.227
227.826	19.732	915.632	696.301
228.840	19.776	914.330	695.427
229.855	19.672	913.886	694.607
230.869	19.727	913.036	694.120
231.884	19.583	912.616	693.165
232.899	19.488	911.536	691.900
233.913	19.506	910.692	691.270
234.928	19.340	910.556	690.442
235.942	19.369	909.821	689.941
236.957	19.332	908.914	689.042
237.972	19.441	908.207	688.880
238.986	19.359	907.984	688.324
240.001	19.418	907.115	687.838
241.015	19.453	906.834	687.704
242.030	19.708	905.996	688.026
243.045	19.541	905.752	687.114
244.059	19.833	905.031	687.665
245.074	19.818	904.557	687.185
246.088	19.892	904.051	687.035
247.103	20.024	903.892	687.376
248.117	20.131	903.083	687.124
249.132	20.400	902.917	688.003
250.147	20.675	902.525	688.735
251.161	20.530	901.690	687.461
252.176	20.730	901.113	687.751
253.190	20.752	900.857	687.581
254.205	20.846	899.929	687.182
255.220	20.686	898.993	685.776
256.234	20.637	898.651	685.264
257.249	20.518	898.122	684.329
258.263	20.519	897.180	683.556
259.278	20.562	896.480	683.130
260.293	20.701	895.845	683.133
261.307	20.852	895.428	683.348
262.322	20.924	894.613	682.947
263.336	20.830	893.734	681.845
264.351	20.766	893.190	681.120
265.366	20.837	892.735	680.993
266.380	20.780	892.180	680.283
267.395	20.731	891.242	679.316
268.409	20.784	890.241	678.703
269.424	20.639	889.564	677.559
270.439	20.639	888.801	676.921
271.453	20.538	887.744	675.662
272.468	20.491	887.632	675.333
273.482	20.457	886.976	674.644
274.497	20.408	886.446	673.989
275.512	20.417	886.211	673.789
276.526	20.612	885.532	673.966
277.541	20.705	884.887	673.778
278.555	20.824	884.547	673.918
279.570	21.092	884.095	674.551
280.585	20.859	882.892	672.672
281.599	20.641	882.139	671.201
282.614	20.585	881.712	670.600
283.628	20.598	881.149	670.162
284.643	20.685	880.310	669.798
285.657	20.604	879.785	669.030
286.672	20.716	879.201	668.956
287.687	20.694	878.538	668.308
288.701	20.803	877.547	667.913
289.716	20.689	877.702	667.534
290.730	20.679	877.079	666.964
291.745	20.798	876.281	666.753
292.760	20.829	875.897	666.519
293.774	21.052	875.314	666.872
294.789	20.973	874.647	666.001
295.803	20.687	873.682	664.117
296.818	20.564	873.178	663.207
297.833	20.685	872.058	662.758
298.847	20.774	871.477	662.594
299.862	20.831	871.484	662.757
300.876	20.899	871.041	662.623
301.891	21.102	870.213	662.703
302.906	21.284	869.992	663.169
303.920	21.355	869.676	663.140
304.935	21.364	869.102	662.676
305.949	21.261	868.617	661.857
306.964	21.081	867.558	660.310
307.979	21.058	867.093	659.811
308.993	21.197	866.528	659.850
310.008	21.259	865.932	659.570
311.022	21.147	865.323	658.625
312.037	21.005	864.638	657.511
313.052	20.764	863.648	655.792
314.066	20.671	863.164	655.015
315.081	20.819	862.372	654.913
316.095	20.732	861.939	654.202
317.110	20.963	861.494	654.671
318.125	20.754	860.839	653.332
319.139	20.878	860.365	653.381
320.154	20.810	859.690	652.553
321.168	20.887	859.451	652.604
322.183	20.947	859.026	652.450
323.197	20.911	858.563	651.905
324.212	20.841	858.465	651.510
325.227	20.937	857.410	651.008
326.241	20.845	856.709	650.077
327.256	20.896	856.023	649.687
328.270	20.832	855.634	649.099
329.285	20.878	855.143	648.841
330.300	20.698	854.538	647.651
331.314	20.793	854.033	647.565
332.329	21.088	853.474	648.181
333.343	21.276	853.107	648.543
334.358	21.270	852.327	647.871
335.373	21.258	852.247	647.708
336.387	21.239	852.545	647.806
337.402	21.359	852.116	647.869
338.416	21.556	851.594	648.145
339.431	21.578	851.562	648.144
340.446	21.694	851.011	648.096
341.460	21.744	850.373	647.739
342.475	21.725	850.160	647.448
343.489	21.771	849.649	647.170
344.504	21.910	849.462	647.484
345.519	22.026	848.880	647.411
346.533	21.860	848.094	646.144
347.548	21.532	847.434	644.375
348.562	21.421	846.729	643.373
349.577	21.383	845.860	642.517
350.592	21.227	845.361	641.509
351.606	21.136	844.801	640.691
352.621	21.255	844.020	640.478
353.635	21.487	843.431	640.826
354.650	21.329	842.740	639.665
355.665	21.528	842.143	639.884
356.679	21.446	841.818	639.279
357.694	21.490	841.335	639.020
358.708	21.454	840.609	638.278
359.723	21.591	839.555	637.920
360.738	21.561	839.304	637.564
361.752	21.663	839.119	637.740
362.767	21.877	838.066	637.662
363.781	21.842	838.159	637.547
364.796	22.070	837.708	637.976
365.810	22.132	837.278	637.819
366.825	22.183	836.982	637.719
367.840	22.147	836.413	637.099
368.854	22.161	835.383	636.312
369.869	22.011	835.087	635.486
370.883	21.954	834.743	634.962
371.898	22.136	834.879	635.666
372.913	22.090	834.330	635.026
373.927	22.029	833.517	634.129
374.942	22.037	833.520	634.106
375.956	22.218	832.845	634.191
376.971	22.275	832.383	633.987
377.986	22.449	832.000	634.267
379.000	22.390	831.547	633.653
380.015	22.414	830.541	632.916
381.029	22.335	830.085	632.228
382.044	22.301	829.557	631.648
383.059	22.329	829.045	631.302
384.073	22.289	828.090	630.378
385.088	22.008	827.367	628.763
386.102	21.890	827.064	628.054
387.117	21.985	825.941	627.488
388.132	21.964	825.754	627.214
389.146	22.122	825.439	627.485
390.161	22.235	825.149	627.611
391.175	22.230	824.765	627.245
392.190	22.229	823.436	626.174
393.205	22.050	823.361	625.426
394.219	22.098	822.767	625.090
395.234	22.073	822.369	624.644
396.248	21.744	821.986	623.127
397.263	21.711	821.615	622.675
398.278	21.736	821.137	622.346
399.292	21.787	820.503	621.993
400.307	21.758	820.140	621.558
401.321	21.816	819.391	621.143
402.336	21.923	819.411	621.481
403.350	22.159	818.757	621.766
404.365	22.313	818.678	622.193
405.380	22.455	818.335	622.378
406.394	22.473	817.677	621.887
407.409	22.534	817.697	622.065
408.423	22.533	817.449	621.818
409.438	22.604	817.215	621.834
410.453	22.749	816.498	621.746
411.467	22.604	816.377	621.086
412.482	22.835	815.819	621.420
413.496	23.029	815.127	621.519
414.511	23.102	814.441	621.197
415.526	22.875	814.224	620.181
416.540	22.732	813.389	618.989
417.555	22.795	813.087	618.925
418.569	22.740	812.832	618.483
419.584	22.749	812.343	618.086
420.599	22.697	811.783	617.425
421.613	164.209	1371.736	1795.018
422.628	143.067	1453.310	1795.099
