DTS Sentinel unit serial number:	SN413079Multiplexer serial number:	ORYXHardware model number:	OX4-SRSoftware version number:	ORYX F/W v4.00 Oryx Data Collector v3.7.2.0data status	okinstallation	princeton_trtdifferential loss correction	single-endedforward channel	channel 1reverse channel	N/Adate	2019/09/19time	11:54:35forward acquisition time	60.00reverse acquisition time	0.00gamma	496.2192k internal	0.2337k external	0.2337temperature offset calibration	1.0008default loss term (dB/km)	0.3790temperature slope calibration	1.0000multiplexer offset coefficient	1.0000multiplexer slope coefficient	1.0000fibre end	0.00T internal ref (°C)	25.89T ext. ref 1 (°C)	0.83T ext. ref 2 (°C)	21.92length (m)	temperature (°C)	Stokes	anti-Stokes-747.200	504.855	-0.157	0.365
-746.185	532.470	-0.200	0.475
-745.171	-15.906	-0.269	0.172
-744.156	-88.366	0.046	0.014
-743.142	-28.670	-0.283	0.164
-742.127	-200.000	-0.042	0.298
-741.112	-200.000	0.048	-0.247
-740.098	-83.736	0.151	0.048
-739.083	-78.222	0.052	-0.018
-738.069	359.279	0.116	-0.234
-737.054	6.280	-0.179	0.133
-736.039	64.324	0.146	-0.148
-735.025	174.673	-0.037	0.054
-734.010	32.909	-0.297	0.258
-732.996	247.876	-0.129	0.219
-731.981	800.000	0.041	0.130
-730.966	-41.164	0.081	-0.042
-729.952	-4.801	-0.300	-0.208
-728.937	-46.507	0.232	0.114
-727.923	48.071	-0.212	0.199
-726.908	70.522	-0.056	0.058
-725.894	-142.584	-0.026	0.003
-724.879	49.148	-0.326	0.308
-723.864	800.000	-0.059	0.197
-722.850	521.982	-0.056	0.132
-721.835	-128.968	-0.393	-0.055
-720.821	-92.803	0.448	-0.126
-719.806	-50.075	-0.072	-0.034
-718.791	229.250	0.054	-0.089
-717.777	-29.725	0.194	-0.111
-716.762	90.144	-0.228	0.256
-715.748	-114.976	-0.243	0.046
-714.733	-172.730	0.163	0.005
-713.718	-76.719	-0.249	0.088
-712.704	179.656	-0.262	0.385
-711.689	-179.280	-0.035	0.001
-710.675	66.694	0.086	0.087
-709.660	615.380	-0.112	-0.282
-708.645	195.319	-0.013	0.020
-707.631	94.733	0.186	-0.212
-706.616	149.905	0.160	-0.217
-705.602	-107.269	0.371	-0.082
-704.587	403.753	0.062	-0.131
-703.572	-14.958	-0.198	0.127
-702.558	-66.543	0.048	0.019
-701.543	-200.000	0.011	-0.199
-700.529	-101.615	0.231	-0.056
-699.514	-83.515	-0.363	0.116
-698.499	150.579	0.069	-0.093
-697.485	-115.875	-0.359	0.067
-696.470	-158.536	-0.433	-0.025
-695.456	235.404	-0.081	0.133
-694.441	800.000	0.023	0.091
-693.426	498.075	0.133	-0.306
-692.412	-200.000	-0.031	-0.218
-691.397	-135.841	-0.277	-0.033
-690.383	-99.433	-0.330	-0.083
-689.368	736.728	0.080	-0.214
-688.354	195.214	0.059	-0.089
-687.339	-200.000	0.093	0.415
-686.324	120.385	-0.233	0.290
-685.310	-25.969	0.158	-0.093
-684.295	-200.000	0.016	-0.086
-683.281	12.590	-0.023	-0.018
-682.266	176.217	-0.062	0.090
-681.251	-157.140	0.125	0.008
-680.237	38.253	0.118	0.106
-679.222	122.704	-0.055	0.069
-678.208	-200.000	0.042	0.413
-677.193	18.848	-0.161	0.129
-676.178	-32.914	-0.032	0.018
-675.164	-200.000	0.020	-0.231
-674.149	231.672	0.070	0.116
-673.135	-11.245	0.134	0.088
-672.120	-40.931	-0.165	0.086
-671.105	538.083	-0.209	0.497
-670.091	-11.761	0.178	0.117
-669.076	800.000	0.001	0.003
-668.062	44.907	-0.309	-0.285
-667.047	-104.747	0.079	-0.018
-666.032	-68.375	0.467	-0.181
-665.018	-44.191	-0.354	-0.178
-664.003	510.227	-0.074	0.172
-662.989	5.473	0.299	-0.221
-661.974	-110.645	0.152	-0.031
-660.959	-43.812	0.021	0.011
-659.945	-47.681	-0.244	-0.119
-658.930	426.902	0.070	0.151
-657.916	-114.747	0.141	0.027
-656.901	-90.450	0.162	-0.047
-655.886	308.152	-0.133	-0.248
-654.872	-200.000	-0.053	0.263
-653.857	-47.510	0.216	-0.105
-652.843	210.328	-0.152	0.238
-651.828	58.336	0.329	-0.323
-650.814	-14.105	0.187	-0.120
-649.799	186.654	-0.171	0.255
-648.784	94.450	-0.117	-0.133
-647.770	273.126	0.057	0.101
-646.755	800.000	-0.025	0.082
-645.741	662.015	-0.097	-0.251
-644.726	64.921	-0.083	0.084
-643.711	133.193	0.112	-0.144
-642.697	-13.210	0.277	0.180
-641.682	-112.424	-0.288	-0.058
-640.668	-200.000	0.017	-0.092
-639.653	57.894	0.072	0.070
-638.638	102.491	-0.089	0.104
-637.624	553.573	0.107	-0.257
-636.609	240.301	-0.058	0.097
-635.595	-63.805	0.115	0.047
-634.580	132.736	0.147	0.190
-633.565	-200.000	-0.030	-0.204
-632.551	-15.387	0.137	-0.088
-631.536	-128.774	-0.422	-0.059
-630.522	-7.397	-0.199	-0.135
-629.507	298.272	0.043	-0.079
-628.492	-7.042	0.209	-0.142
-627.478	-153.288	-0.046	-0.003
-626.463	112.685	-0.146	-0.177
-625.449	42.171	0.050	-0.045
-624.434	692.746	-0.181	0.473
-623.419	-72.555	-0.238	-0.088
-622.405	-40.882	0.215	0.111
-621.390	650.852	0.091	0.232
-620.376	-4.927	-0.197	0.135
-619.361	15.186	-0.215	0.168
-618.346	-200.000	-0.044	-0.227
-617.332	512.141	0.072	-0.167
-616.317	74.640	-0.200	0.210
-615.303	149.536	-0.103	0.139
-614.288	-133.262	-0.102	-0.013
-613.273	-111.985	0.286	0.058
-612.259	-200.000	0.017	-0.102
-611.244	-197.542	0.105	0.001
-610.230	-200.000	0.043	-0.222
-609.215	-99.221	-0.115	-0.029
-608.201	-30.168	0.056	0.032
-607.186	-89.942	-0.062	0.018
-606.171	800.000	-0.011	-0.035
-605.157	-99.384	-0.074	-0.019
-604.142	-188.170	-0.254	-0.003
-603.128	88.770	0.240	0.267
-602.113	-55.402	0.087	0.039
-601.098	45.220	-0.167	-0.154
-600.084	24.612	-0.126	0.104
-599.069	88.696	0.012	-0.013
-598.055	256.924	-0.054	0.092
-597.040	-58.284	0.446	0.194
-596.025	-111.768	-0.204	0.041
-595.011	-21.688	-0.062	-0.038
-593.996	43.466	0.077	-0.070
-592.982	-147.914	-0.067	0.006
-591.967	120.109	0.121	0.150
-590.952	-92.327	-0.200	-0.056
-589.938	-200.000	-0.047	-0.283
-588.923	-0.621	-0.237	0.168
-587.909	-136.659	-0.228	0.026
-586.894	2.112	0.124	-0.089
-585.879	-200.000	0.037	-0.272
-584.865	800.000	0.079	-0.265
-583.850	800.000	0.050	-0.163
-582.836	-33.561	-0.057	0.032
-581.821	-85.976	0.248	0.077
-580.806	-200.000	-0.010	0.129
-579.792	104.224	0.191	-0.224
-578.777	-14.768	0.184	0.118
-577.763	-64.168	0.267	-0.109
-576.748	-200.000	0.004	0.050
-575.733	-95.302	0.158	-0.042
-574.719	-200.000	-0.039	0.350
-573.704	-89.781	-0.104	-0.030
-572.690	-47.458	0.169	-0.082
-571.675	-200.000	0.018	0.262
-570.661	-74.286	-0.218	0.078
-569.646	-200.000	0.013	0.155
-568.631	-93.524	0.178	0.049
-567.617	522.311	0.093	0.217
-566.602	-89.821	-0.086	-0.025
-565.588	38.237	0.195	-0.173
-564.573	18.009	0.142	-0.113
-563.558	185.595	0.203	0.301
-562.544	-200.000	-0.010	-0.106
-561.529	349.282	0.073	-0.143
-560.515	800.000	-0.061	0.195
-559.500	800.000	-0.092	0.298
-558.485	-65.154	-0.147	0.059
-557.471	-74.221	0.013	0.005
-556.456	346.723	0.068	-0.134
-555.442	-107.404	0.213	0.047
-554.427	-14.278	0.213	0.137
-553.412	64.204	-0.152	-0.153
-552.398	-200.000	-0.002	-0.167
-551.383	257.180	0.028	0.048
-550.369	-145.671	-0.217	0.019
-549.354	-170.195	-0.277	-0.010
-548.339	-41.857	0.171	0.087
-547.325	-53.477	-0.608	-0.277
-546.310	214.885	-0.027	-0.042
-545.296	154.194	0.135	-0.185
-544.281	-74.388	-0.079	-0.028
-543.266	800.000	0.086	0.301
-542.252	-200.000	0.027	0.307
-541.237	-93.470	0.300	-0.083
-540.223	-33.388	0.230	-0.127
-539.208	800.000	-0.065	0.229
-538.193	159.455	0.220	-0.304
-537.179	-2.324	-0.533	0.373
-536.164	-113.788	0.090	-0.017
-535.150	-124.274	-0.141	0.022
-534.135	-34.463	-0.183	0.100
-533.121	-103.871	0.155	0.036
-532.106	-59.623	-0.199	0.085
-531.091	-200.000	-0.021	-0.271
-530.077	216.682	0.078	-0.123
-529.062	-122.352	-0.283	-0.046
-528.048	-104.061	0.258	-0.060
-527.033	-34.370	0.043	-0.023
-526.018	-200.000	0.064	0.315
-525.004	-60.222	-0.387	-0.164
-523.989	-50.981	0.186	0.087
-522.975	281.919	-0.106	0.189
-521.960	-56.160	0.143	-0.063
-520.945	-200.000	0.004	0.153
-519.931	233.348	-0.069	0.113
-518.916	287.107	-0.190	-0.341
-517.902	800.000	-0.015	0.046
-516.887	-200.000	0.005	-0.065
-515.872	7.934	0.139	-0.104
-514.858	262.636	0.165	0.285
-513.843	438.126	0.137	0.297
-512.829	-200.000	0.006	-0.057
-511.814	-27.951	-0.206	0.119
-510.799	-24.136	0.267	0.159
-509.785	120.763	0.020	0.025
-508.770	-200.000	0.025	-0.113
-507.756	-200.000	-0.015	0.141
-506.741	34.714	-0.216	0.188
-505.726	-22.578	-0.028	-0.017
-504.712	-26.807	-0.066	-0.038
-503.697	-23.742	0.140	-0.083
-502.683	256.460	0.179	0.305
-501.668	-200.000	-0.002	-0.216
-500.653	-187.150	0.340	0.005
-499.639	-49.926	-0.094	0.044
-498.624	-89.193	-0.135	0.040
-497.610	48.516	-0.193	0.180
-496.595	6.910	0.226	-0.167
-495.581	-200.000	0.009	-0.113
-494.566	800.000	0.098	0.314
-493.551	-193.336	-0.485	0.004
-492.537	136.071	-0.168	-0.218
-491.522	800.000	-0.090	-0.284
-490.508	-85.751	0.055	0.017
-489.493	150.169	0.128	0.173
-488.478	-180.037	0.233	0.005
-487.464	605.011	0.043	-0.107
-486.449	508.724	-0.063	0.146
-485.435	199.787	-0.156	-0.237
-484.420	-49.273	-0.152	-0.072
-483.405	-3.789	0.033	-0.023
-482.391	-97.822	-0.439	-0.113
-481.376	-116.326	-0.528	-0.097
-480.362	-200.000	-0.002	-0.206
-479.347	-87.267	0.343	-0.104
-478.332	25.744	0.127	0.105
-477.318	136.719	0.106	-0.137
-476.303	-59.388	0.024	0.010
-475.289	20.639	-0.245	0.197
-474.274	-125.621	0.198	0.030
-473.259	800.000	0.085	-0.302
-472.245	-0.136	-0.291	-0.206
-471.230	800.000	-0.040	0.147
-470.216	-200.000	-0.017	0.281
-469.201	1.542	-0.200	0.143
-468.186	-91.918	0.159	0.045
-467.172	-56.940	0.263	0.115
-466.157	-200.000	-0.042	-0.321
-465.143	-200.000	-0.004	-0.134
-464.128	-11.727	-0.256	-0.167
-463.113	773.146	0.061	-0.166
-462.099	800.000	0.084	0.240
-461.084	-155.050	-0.108	0.007
-460.070	800.000	-0.083	-0.324
-459.055	8.031	-0.219	-0.163
-458.040	800.000	0.040	-0.147
-457.026	-26.130	0.208	0.121
-456.011	532.378	-0.042	0.098
-454.997	-102.424	-0.215	-0.051
-453.982	-97.131	0.165	-0.043
-452.968	35.831	0.322	0.281
-451.953	800.000	0.031	0.123
-450.938	-200.000	0.005	-0.054
-449.924	800.000	-0.046	-0.129
-448.909	10.401	-0.117	0.088
-447.895	800.000	-0.043	-0.181
-446.880	-200.000	0.001	-0.010
-445.865	-130.124	-0.150	-0.020
-444.851	-200.000	0.027	-0.259
-443.836	-122.850	-0.143	-0.023
-442.822	-56.879	-0.063	-0.027
-441.807	-54.512	0.289	-0.130
-440.792	-119.907	0.273	-0.047
-439.778	-200.000	-0.008	0.301
-438.763	-118.336	-0.062	0.011
-437.749	38.523	-0.186	0.164
-436.734	800.000	-0.112	-0.365
-435.719	21.920	-0.048	0.039
-434.705	800.000	-0.050	-0.182
-433.690	142.548	0.161	0.213
-432.676	-33.385	-0.179	-0.098
-431.661	800.000	0.120	-0.439
-430.646	-22.171	0.151	0.091
-429.632	45.596	-0.291	0.267
-428.617	0.492	0.216	0.153
-427.603	21.022	0.055	0.044
-426.588	-160.884	0.197	0.010
-425.573	-45.015	-0.211	0.104
-424.559	47.289	-0.165	0.152
-423.544	-27.566	0.355	-0.205
-422.530	-3.462	0.352	-0.243
-421.515	-153.596	-0.178	0.012
-420.500	-200.000	0.003	-0.035
-419.486	800.000	0.020	-0.079
-418.471	480.739	-0.121	-0.271
-417.457	-200.000	0.012	0.099
-416.442	800.000	-0.084	-0.253
-415.428	-200.000	0.036	0.381
-414.413	539.226	0.073	0.172
-413.398	-200.000	-0.006	0.171
-412.384	-102.298	-0.051	0.012
-411.369	-177.751	-0.020	0.000
-410.355	-152.589	0.221	0.016
-409.340	49.990	-0.070	-0.066
-408.325	800.000	0.024	-0.075
-407.311	800.000	0.008	-0.023
-406.296	-41.745	0.487	0.248
-405.282	106.175	-0.043	-0.050
-404.267	82.809	-0.122	0.131
-403.252	-7.398	0.094	0.063
-402.238	88.317	0.083	0.091
-401.223	-99.314	-0.241	-0.060
-400.209	-200.000	-0.048	-0.448
-399.194	-27.421	0.167	-0.096
-398.179	-1.604	-0.203	-0.142
-397.165	-198.157	-0.158	0.001
-396.150	171.008	0.119	0.169
-395.136	247.608	0.061	0.101
-394.121	-200.000	-0.028	0.210
-393.106	134.543	0.113	-0.146
-392.092	-144.055	-0.148	0.014
-391.077	-200.000	-0.028	0.139
-390.063	240.847	-0.189	0.312
-389.048	-200.000	0.034	0.161
-388.033	11.085	-0.173	-0.131
-387.019	-158.983	0.376	0.021
-386.004	-49.286	-0.302	-0.143
-384.990	48.206	-0.152	-0.141
-383.975	-199.053	-0.128	-0.001
-382.960	126.537	0.011	-0.014
-381.946	346.835	-0.111	-0.216
-380.931	800.000	0.053	0.176
-379.917	-74.334	0.181	0.065
-378.902	36.543	0.130	-0.113
-377.888	-136.838	-0.033	-0.004
-376.873	-200.000	0.012	0.080
-375.858	-76.872	-0.201	-0.070
-374.844	800.000	0.075	0.240
-373.829	108.372	-0.204	0.241
-372.815	-200.000	-0.008	0.079
-371.800	-200.000	0.002	0.055
-370.785	-4.001	0.044	0.030
-369.771	-87.633	-0.341	0.102
-368.756	-200.000	0.015	0.356
-367.742	-108.675	-0.180	-0.038
-366.727	470.818	-0.171	-0.380
-365.712	-200.000	0.008	-0.141
-364.698	69.533	0.140	-0.142
-363.683	800.000	0.053	0.179
-362.669	242.323	0.110	-0.181
-361.654	10.806	-0.081	-0.061
-360.639	-8.002	0.206	0.138
-359.625	800.000	-0.045	0.135
-358.610	-39.862	-0.319	0.165
-357.596	-200.000	-0.006	0.174
-356.581	-38.089	0.070	-0.037
-355.566	410.684	0.111	0.234
-354.552	37.525	0.266	0.233
-353.537	506.460	-0.106	-0.243
-352.523	-200.000	0.013	-0.071
-351.508	-133.028	-0.101	-0.013
-350.493	15.887	0.243	-0.189
-349.479	218.090	-0.059	0.094
-348.464	-80.243	-0.139	-0.046
-347.450	-80.662	-0.115	-0.038
-346.435	800.000	0.142	0.518
-345.420	-150.231	-0.036	0.003
-344.406	238.376	0.079	-0.129
-343.391	30.558	0.103	0.087
-342.377	115.714	0.249	0.301
-341.362	26.648	0.225	0.186
-340.348	-125.122	0.327	-0.050
-339.333	-30.429	-0.104	-0.058
-338.318	800.000	0.040	-0.124
-337.304	800.000	-0.054	0.177
-336.289	-112.474	-0.107	-0.021
-335.275	538.955	-0.118	0.277
-334.260	25.581	-0.149	-0.122
-333.245	-53.536	0.232	0.105
-332.231	-52.467	0.056	-0.026
-331.216	800.000	-0.054	-0.183
-330.202	-57.393	-0.258	0.112
-329.187	-200.000	0.011	0.116
-328.172	71.225	0.131	-0.134
-327.158	34.466	0.315	-0.272
-326.143	277.510	-0.090	-0.158
-325.129	-200.000	-0.099	-0.536
-324.114	93.533	-0.155	-0.173
-323.099	800.000	0.099	-0.319
-322.085	112.573	0.123	-0.147
-321.070	47.078	0.156	0.143
-320.056	126.077	-0.213	-0.266
-319.041	106.198	0.199	-0.232
-318.026	85.946	-0.196	-0.213
-317.012	-176.499	-0.266	-0.007
-315.997	-80.249	0.289	0.095
-314.983	284.532	0.136	-0.242
-313.968	411.097	-0.137	-0.287
-312.953	-56.966	0.174	-0.076
-311.939	497.474	0.116	-0.264
-310.924	-92.513	-0.331	-0.092
-309.910	280.193	-0.098	-0.173
-308.895	-30.107	-0.109	-0.061
-307.880	-53.220	0.138	-0.063
-306.866	-200.000	0.047	0.300
-305.851	749.323	0.045	-0.119
-304.837	157.009	0.101	-0.137
-303.822	-192.620	-0.111	-0.001
-302.807	728.365	0.080	-0.210
-301.793	-200.000	-0.015	-0.324
-300.778	-200.000	0.012	0.141
-299.764	-16.614	-0.200	-0.125
-298.749	-70.201	0.220	-0.083
-297.735	16.570	0.272	0.212
-296.720	334.115	0.148	0.282
-295.705	-136.033	0.256	-0.030
-294.691	47.338	-0.194	0.178
-293.676	-200.000	0.044	0.232
-292.662	-200.000	-0.020	0.112
-291.647	-200.000	0.029	-0.131
-290.632	-80.576	0.132	-0.043
-289.618	274.509	-0.197	0.345
-288.603	167.565	0.184	-0.258
-287.589	-70.586	-0.147	0.055
-286.574	-200.000	-0.044	0.255
-285.559	-200.000	-0.003	0.161
-284.545	-36.826	-0.278	0.147
-283.530	800.000	0.091	0.318
-282.516	46.246	-0.025	-0.023
-281.501	800.000	0.098	0.354
-280.486	-200.000	0.031	0.237
-279.472	-200.000	0.014	0.099
-278.457	587.800	-0.149	0.361
-277.443	-78.770	-0.345	0.116
-276.428	-78.002	0.398	-0.135
-275.413	202.494	-0.107	0.163
-274.399	-25.088	0.133	0.078
-273.384	64.447	0.009	-0.009
-272.370	-200.000	-0.007	-0.195
-271.355	97.036	0.150	-0.170
-270.340	-109.711	0.086	-0.018
-269.326	105.113	0.032	0.037
-268.311	94.569	0.232	0.260
-267.297	-200.000	0.039	-0.212
-266.282	69.619	0.225	-0.228
-265.267	-141.978	-0.553	-0.054
-264.253	-200.000	-0.051	0.257
-263.238	269.459	-0.083	-0.143
-262.224	-66.924	0.350	-0.136
-261.209	143.690	-0.162	-0.212
-260.195	800.000	0.047	0.178
-259.180	62.670	0.034	-0.033
-258.165	37.313	0.212	-0.185
-257.151	-200.000	0.015	0.274
-256.136	-200.000	-0.004	0.052
-255.122	2.800	0.356	0.254
-254.107	-97.959	-0.094	0.024
-253.092	225.436	0.061	0.098
-252.078	728.752	-0.143	0.376
-251.063	108.955	0.087	0.102
-250.049	-41.864	-0.076	-0.039
-249.034	399.821	0.207	-0.428
-248.019	71.238	-0.105	0.108
-247.005	-76.601	-0.215	0.074
-245.990	684.037	-0.100	-0.258
-244.976	465.338	0.040	-0.087
-243.961	-200.000	-0.001	-0.105
-242.946	647.476	0.056	-0.142
-241.932	800.000	0.066	0.241
-240.917	-106.501	-0.346	0.076
-239.903	-48.497	0.111	-0.053
-238.888	73.249	0.073	-0.075
-237.873	-200.000	-0.040	-0.224
-236.859	610.896	0.091	0.224
-235.844	-61.784	0.067	-0.028
-234.830	-117.210	0.181	-0.032
-233.815	-36.773	0.031	0.017
-232.800	128.913	0.279	-0.350
-231.786	-23.672	0.176	0.104
-230.771	-55.059	0.030	0.013
-229.757	-200.000	0.001	0.037
-228.742	643.011	0.100	0.250
-227.727	800.000	0.110	-0.342
-226.713	-19.322	0.119	0.072
-225.698	-46.139	-0.212	0.103
-224.684	-116.348	-0.100	-0.018
-223.669	321.457	-0.031	-0.058
-222.655	800.000	-0.079	0.241
-221.640	-54.795	-0.148	0.066
-220.625	80.329	0.166	-0.175
-219.611	758.332	0.052	0.138
-218.596	-83.904	-0.223	0.070
-217.582	25.322	-0.185	0.151
-216.567	316.180	-0.125	0.231
-215.552	-200.000	0.024	0.116
-214.538	800.000	0.054	-0.224
-213.523	-132.964	0.137	-0.017
-212.509	51.366	-0.098	0.091
-211.494	2.624	-0.212	-0.151
-210.479	152.826	-0.152	0.204
-209.465	-200.000	0.015	-0.163
-208.450	-37.020	0.328	0.173
-207.436	-200.000	-0.003	-0.152
-206.421	-123.022	0.207	0.033
-205.406	-200.000	0.051	0.254
-204.392	47.884	0.206	-0.189
-203.377	0.719	-0.283	0.199
-202.363	71.139	0.085	0.087
-201.348	296.703	-0.069	0.125
-200.333	800.000	-0.043	0.120
-199.319	121.141	0.130	-0.159
-198.304	-6.583	0.243	0.163
-197.290	147.902	0.047	0.063
-196.275	-200.000	-0.017	0.294
-195.260	-126.803	-0.305	0.044
-194.246	-93.983	-0.063	-0.017
-193.231	-200.000	-0.001	0.048
-192.217	-200.000	0.051	-0.361
-191.202	267.494	-0.057	-0.098
-190.187	15.277	-0.266	-0.205
-189.173	800.000	-0.077	-0.301
-188.158	-41.338	0.219	0.111
-187.144	554.704	-0.118	-0.279
-186.129	49.280	-0.461	-0.425
-185.114	-143.360	0.138	0.013
-184.100	-112.489	-0.220	0.043
-183.085	243.444	-0.155	0.256
-182.071	60.428	-0.201	0.195
-181.056	-33.666	0.449	-0.243
-180.042	800.000	-0.097	-0.275
-179.027	176.294	0.111	-0.158
-178.012	394.815	-0.036	-0.073
-176.998	422.765	-0.083	0.175
-175.983	-74.116	-0.151	-0.054
-174.969	-57.409	0.430	-0.185
-173.954	158.157	0.080	-0.109
-172.939	-186.825	-0.177	0.002
-171.925	-130.360	0.225	0.030
-170.910	-200.000	-0.014	0.209
-169.896	-200.000	-0.011	-0.368
-168.881	-29.754	-0.147	-0.082
-167.866	-27.585	0.193	0.110
-166.852	-60.653	0.334	0.139
-165.837	30.313	0.160	0.134
-164.823	800.000	-0.002	-0.009
-163.808	3.366	0.145	0.104
-162.793	-61.734	-0.070	-0.029
-161.779	800.000	0.049	-0.169
-160.764	-200.000	-0.008	-0.074
-159.750	0.666	0.298	-0.209
-158.735	-177.224	-0.211	-0.005
-157.720	-26.338	-0.363	-0.209
-156.706	-200.000	0.003	0.048
-155.691	-148.796	-0.200	-0.016
-154.677	-108.195	-0.247	-0.052
-153.662	459.913	0.030	-0.066
-152.647	-43.482	0.259	0.128
-151.633	161.717	-0.136	-0.187
-150.618	-70.741	-0.055	0.020
-149.604	-200.000	0.015	-0.107
-148.589	341.697	0.081	-0.155
-147.574	-200.000	-0.055	0.316
-146.560	-61.868	-0.349	0.143
-145.545	-200.000	0.028	0.201
-144.531	-153.958	-0.174	0.012
-143.516	-119.257	0.097	-0.017
-142.502	800.000	-0.059	-0.188
-141.487	800.000	0.121	0.382
-140.472	-79.685	0.343	0.113
-139.458	800.000	0.061	-0.247
-138.443	-200.000	0.004	0.076
-137.429	800.000	-0.028	0.080
-136.414	-43.632	-0.153	0.075
-135.399	-200.000	-0.013	-0.394
-134.385	329.053	0.090	0.169
-133.370	183.686	0.036	-0.051
-132.356	-200.000	0.009	0.263
-131.341	-200.000	0.013	-0.272
-130.326	61.429	0.084	0.082
-129.312	-103.534	0.264	-0.061
-128.297	-107.115	-0.234	-0.051
-127.283	-200.000	-0.010	0.050
-126.268	74.773	0.240	-0.248
-125.253	63.485	-0.114	-0.113
-124.239	-200.000	-0.019	0.199
-123.224	800.000	-0.031	0.103
-122.210	48.759	-0.041	-0.038
-121.195	800.000	0.073	-0.207
-120.180	-97.794	0.172	0.044
-119.166	-86.176	-0.075	0.023
-118.151	40.058	-0.129	0.113
-117.137	-122.248	0.047	0.007
-116.122	-70.286	0.196	-0.073
-115.107	-200.000	0.006	0.183
-114.093	332.738	0.153	0.290
-113.078	203.775	0.103	0.157
-112.064	-200.000	0.035	-0.190
-111.049	-18.756	0.149	0.091
-110.034	-200.000	-0.027	0.146
-109.020	382.337	-0.066	0.134
-108.005	-113.696	0.227	0.043
-106.991	67.939	-0.221	0.221
-105.976	-109.752	-0.192	-0.039
-104.962	38.499	0.049	0.043
-103.947	-115.327	0.476	0.088
-102.932	-104.692	0.496	-0.112
-101.918	19.011	0.197	0.155
-100.903	167.606	-0.119	-0.165
-99.889	327.121	0.183	0.344
-98.874	-40.213	-0.193	-0.098
-97.859	319.262	-0.152	0.282
-96.845	498.003	0.034	0.076
-95.830	-200.000	0.030	-0.326
-94.816	-111.886	0.130	-0.026
-93.801	165.491	-0.133	-0.184
-92.786	-62.416	0.100	-0.041
-91.772	-200.000	-0.002	-0.125
-90.757	-179.863	-0.246	-0.005
-89.743	-155.811	-0.098	0.006
-88.728	-200.000	-0.007	0.382
-87.713	83.847	0.218	0.233
-86.699	800.000	-0.043	-0.124
-85.684	63.070	0.077	0.075
-84.670	-81.828	0.183	-0.059
-83.655	-200.000	0.061	0.000
-82.640	605.820	-0.148	0.360
-81.626	-200.000	-0.022	0.368
-80.611	638.614	-0.072	0.179
-79.597	112.888	-0.097	-0.115
-78.582	154.933	0.085	-0.114
-77.567	81.223	-0.097	0.103
-76.553	800.000	0.077	0.319
-75.538	64.719	0.212	-0.209
-74.524	63.296	0.191	0.187
-73.509	214.370	0.142	-0.220
-72.494	800.000	-0.058	-0.212
-71.480	-43.680	0.304	0.150
-70.465	-88.167	-0.182	0.053
-69.451	78.670	0.126	0.132
-68.436	-147.700	0.528	-0.043
-67.422	-200.000	0.046	-0.226
-66.407	-82.684	0.590	0.187
-65.392	-88.114	-0.170	0.050
-64.378	-91.794	0.143	0.040
-63.363	-200.000	0.002	-0.142
-62.349	800.000	0.062	0.218
-61.334	54.071	-0.819	-0.770
-60.319	70.716	0.701	0.709
-59.305	601.934	-0.363	-0.883
-58.290	446.521	0.535	1.149
-57.276	800.000	0.519	1.520
-56.261	-200.000	115.989	613.935
-55.246	413.323	1546.959	3215.098
-54.232	140.863	2733.915	3530.905
-53.217	98.832	2189.078	2469.049
-52.203	37.765	1617.509	1403.813
-51.188	29.248	1357.457	1126.284
-50.173	26.387	1318.259	1076.714
-49.159	51.268	1377.472	1277.450
-48.144	49.820	1390.486	1280.653
-47.130	29.437	1344.191	1116.247
-46.115	26.134	1326.282	1081.578
-45.100	25.797	1321.570	1075.680
-44.086	25.827	1318.713	1073.491
-43.071	25.720	1316.535	1071.039
-42.057	25.721	1314.672	1069.488
-41.042	25.730	1313.247	1068.340
-40.027	25.838	1311.345	1067.390
-39.013	25.830	1309.360	1065.682
-37.998	25.798	1307.739	1064.131
-36.984	25.932	1305.597	1063.137
-35.969	25.934	1303.772	1061.622
-34.954	25.926	1302.193	1060.245
-33.940	25.935	1300.751	1059.082
-32.925	25.980	1299.217	1058.055
-31.911	25.911	1298.182	1056.765
-30.896	25.973	1296.431	1055.661
-29.881	25.991	1294.871	1054.452
-28.867	26.009	1294.183	1053.959
-27.852	26.037	1292.667	1052.846
-26.838	25.998	1290.899	1051.136
-25.823	25.901	1290.308	1050.050
-24.809	26.006	1288.406	1049.068
-23.794	25.978	1287.135	1047.829
-22.779	25.984	1285.570	1046.548
-21.765	25.994	1284.042	1045.319
-20.750	25.916	1283.491	1044.378
-19.736	25.908	1281.466	1042.642
-18.721	25.851	1280.774	1041.710
-17.706	25.878	1279.621	1040.888
-16.692	25.924	1278.236	1039.982
-15.677	25.860	1277.266	1038.786
-14.663	25.803	1275.925	1037.326
-13.648	25.711	1274.854	1035.885
-12.633	25.828	1273.863	1035.712
-11.619	25.760	1272.551	1034.212
-10.604	25.855	1272.269	1034.488
-9.590	25.837	1271.348	1033.594
-8.575	25.843	1269.959	1032.456
-7.560	25.804	1269.142	1031.528
-6.546	25.822	1268.303	1030.911
-5.531	25.789	1267.871	1030.328
-4.517	25.910	1266.735	1030.056
-3.502	25.921	1265.563	1029.126
-2.487	25.734	1265.006	1027.563
-1.473	25.814	1260.717	1024.492
-0.458	24.734	1246.207	1006.587
0.556	20.550	1230.365	971.152
1.571	17.071	1237.604	957.197
2.586	16.183	1253.621	964.423
3.600	15.957	1242.131	954.221
4.615	12.125	1168.250	876.931
5.629	4.553	1093.770	782.927
6.644	1.050	1075.464	752.378
7.659	0.738	1073.408	749.331
8.673	0.816	1072.599	749.084
9.688	0.706	1071.334	747.592
10.702	1.004	1069.588	747.778
11.717	5.282	1075.279	772.885
12.731	12.542	1084.068	815.231
13.746	16.586	1088.430	838.524
14.761	17.356	1089.264	842.912
15.775	16.693	1087.641	838.299
16.790	15.653	1085.499	831.432
17.804	14.858	1084.199	826.434
18.819	14.524	1083.372	824.080
19.834	14.293	1081.978	821.809
20.848	14.004	1081.474	819.925
21.863	13.707	1080.646	817.760
22.877	13.595	1079.703	816.423
23.892	13.544	1079.176	815.699
24.907	13.607	1078.268	815.254
25.921	13.660	1077.621	814.950
26.936	13.651	1076.703	814.140
27.950	13.728	1075.665	813.661
28.965	13.721	1074.435	812.626
29.980	13.859	1072.924	812.083
30.994	13.914	1071.767	811.404
32.009	13.878	1070.816	810.440
33.023	13.751	1069.385	808.668
34.038	13.825	1068.268	808.112
35.053	13.797	1067.688	807.465
36.067	13.796	1066.745	806.675
37.082	13.677	1066.162	805.581
38.096	13.767	1065.384	805.361
39.111	13.829	1064.543	804.955
40.126	13.729	1063.082	803.295
41.140	13.674	1062.293	802.363
42.155	13.614	1061.302	801.252
43.169	13.646	1059.835	800.225
44.184	13.562	1059.110	799.206
45.199	13.663	1057.829	798.653
46.213	13.556	1057.173	797.570
47.228	13.739	1055.471	797.096
48.242	13.637	1054.554	795.844
49.257	13.733	1053.270	795.264
50.271	13.631	1052.845	794.387
51.286	13.706	1051.763	793.856
52.301	13.795	1050.358	793.153
53.315	13.811	1049.303	792.361
54.330	13.655	1048.069	790.618
55.344	13.700	1047.376	790.237
56.359	13.682	1046.666	789.546
57.374	13.663	1045.964	788.856
58.388	13.676	1044.638	787.848
59.403	13.517	1044.502	786.919
60.417	13.653	1043.426	786.687
61.432	13.637	1042.946	786.178
62.447	13.542	1042.113	785.029
63.461	13.626	1040.829	784.393
64.476	13.687	1039.956	783.954
65.490	13.606	1039.357	783.048
66.505	13.702	1038.600	782.862
67.520	13.582	1038.029	781.798
68.534	13.751	1037.145	781.860
69.549	13.621	1036.284	780.526
70.563	13.624	1035.748	780.072
71.578	13.625	1034.793	779.288
72.593	13.566	1034.072	778.398
73.607	13.494	1033.292	777.405
74.622	13.475	1032.785	776.865
75.636	13.544	1032.087	776.591
76.651	13.542	1031.325	775.940
77.666	13.587	1030.665	775.585
78.680	13.653	1029.791	775.170
79.695	13.672	1028.976	774.575
80.709	13.632	1028.882	774.249
81.724	13.564	1028.157	773.320
82.739	13.620	1027.479	773.002
83.753	13.698	1026.242	772.367
84.768	13.828	1024.873	771.871
85.782	13.679	1024.565	770.876
86.797	13.634	1023.842	770.057
87.812	13.729	1022.349	769.309
88.826	13.648	1021.600	768.300
89.841	13.847	1020.457	768.294
90.855	13.807	1019.641	767.426
91.870	13.780	1019.205	766.907
92.884	13.823	1018.247	766.316
93.899	13.833	1017.777	765.942
94.914	13.884	1016.283	764.981
95.928	13.910	1015.843	764.702
96.943	13.852	1014.745	763.545
97.957	13.800	1014.266	762.874
98.972	13.817	1013.180	762.068
99.987	13.768	1012.615	761.354
101.001	13.796	1011.567	760.626
102.016	13.898	1010.556	760.265
103.030	13.930	1009.718	759.714
104.045	13.891	1008.776	758.758
105.060	13.886	1007.765	757.909
106.074	13.689	1007.091	756.437
107.089	13.774	1006.237	756.118
108.103	13.746	1005.002	754.993
109.118	13.813	1004.200	754.630
110.133	13.767	1003.226	753.621
111.147	13.713	1001.984	752.375
112.162	13.724	1001.386	751.910
113.176	13.846	1000.617	751.818
114.191	13.876	999.827	751.293
115.206	13.852	999.091	750.568
116.220	13.719	998.808	749.686
117.235	13.752	997.351	748.674
118.249	13.810	996.810	748.466
119.264	13.893	996.048	748.199
120.279	13.814	995.060	747.035
121.293	13.853	994.160	746.470
122.308	13.715	993.906	745.593
123.322	13.775	992.466	744.717
124.337	13.690	991.696	743.690
125.352	13.764	990.041	742.718
126.366	13.830	988.593	741.861
127.381	13.672	988.435	740.969
128.395	13.770	987.214	740.424
129.410	13.813	986.338	739.897
130.424	13.733	985.917	739.156
131.439	13.866	984.850	738.884
132.454	13.982	983.891	738.616
133.468	13.784	983.255	737.192
134.483	13.771	982.955	736.843
135.497	13.863	981.435	736.047
136.512	13.911	980.677	735.626
137.527	13.783	979.851	734.373
138.541	13.803	978.982	733.745
139.556	13.720	978.958	733.299
140.570	13.821	977.870	732.861
141.585	13.876	977.040	732.418
142.600	13.990	976.236	732.253
143.614	13.969	974.820	731.036
144.629	14.080	974.101	730.920
145.643	14.048	973.556	730.306
146.658	14.004	972.675	729.387
147.673	14.088	971.086	728.499
148.687	13.866	970.943	727.353
149.702	13.869	970.048	726.630
150.716	13.918	968.812	725.856
151.731	14.015	968.300	725.831
152.746	13.986	967.891	725.335
153.760	13.978	966.964	724.540
154.775	13.995	966.937	724.531
155.789	14.106	965.932	724.196
156.804	14.130	965.092	723.609
157.819	14.036	964.720	722.856
158.833	14.155	963.965	722.744
159.848	14.206	962.667	721.929
160.862	14.119	961.820	720.850
161.877	14.049	960.990	719.864
162.892	13.998	960.319	719.077
163.906	14.115	959.066	718.578
164.921	14.101	958.662	718.151
165.935	14.102	957.674	717.354
166.950	14.157	956.440	716.602
167.964	14.196	955.550	716.040
168.979	14.055	954.911	714.890
169.994	14.181	953.877	714.595
171.008	14.132	953.425	713.982
172.023	14.207	952.966	713.899
173.037	14.248	952.080	713.348
174.052	14.208	951.218	712.468
175.067	14.145	950.308	711.452
176.081	14.176	950.083	711.354
177.096	14.172	949.277	710.670
178.110	14.294	948.625	710.641
179.125	14.126	948.424	709.708
180.140	14.296	947.641	709.785
181.154	14.290	947.230	709.391
182.169	14.254	946.667	708.750
183.183	14.349	946.002	708.595
184.198	14.311	945.225	707.790
185.213	14.374	944.607	707.530
186.227	14.590	943.616	707.642
187.242	14.513	942.821	706.656
188.256	14.580	941.851	706.150
189.271	14.501	941.377	705.398
190.286	14.405	940.935	704.602
191.300	14.258	940.225	703.385
192.315	14.323	939.654	703.168
193.329	14.337	938.973	702.655
194.344	14.344	938.448	702.231
195.359	14.327	937.882	701.675
196.373	14.443	937.163	701.561
197.388	14.464	936.820	701.332
198.402	14.515	936.101	700.946
199.417	14.494	935.717	700.510
200.432	14.633	934.907	700.422
201.446	14.629	934.703	700.193
202.461	14.741	933.832	699.947
203.475	14.731	933.097	699.294
204.490	14.677	932.357	698.451
205.504	14.560	931.961	697.602
206.519	14.603	931.128	697.095
207.534	14.721	930.212	696.841
208.548	14.553	929.948	695.883
209.563	14.691	928.759	695.503
210.577	14.657	928.328	694.978
211.592	14.755	927.221	694.496
212.607	14.740	927.132	694.304
213.621	14.824	926.171	693.874
214.636	14.845	925.498	693.394
215.650	14.844	924.563	692.627
216.665	14.931	924.064	692.552
217.680	14.885	923.482	691.865
218.694	14.911	923.000	691.550
219.709	14.943	922.248	691.058
220.723	14.935	921.131	690.130
221.738	14.812	920.961	689.433
222.753	14.725	920.112	688.377
223.767	14.881	919.740	688.681
224.782	15.010	918.969	688.571
225.796	15.099	918.263	688.348
226.811	14.941	917.981	687.426
227.826	14.946	917.061	686.697
228.840	14.982	916.191	686.133
229.855	15.041	915.241	685.601
230.869	14.996	914.579	684.862
231.884	14.919	914.027	684.074
232.899	14.981	913.276	683.703
233.913	15.078	912.356	683.352
234.928	15.023	911.857	682.692
235.942	14.889	911.378	681.725
236.957	14.996	910.819	681.682
237.972	15.024	910.113	681.209
238.986	15.079	909.410	680.845
240.001	14.923	909.102	679.921
241.015	15.037	908.181	679.637
242.030	15.082	907.567	679.300
243.045	15.145	907.031	679.092
244.059	15.167	906.287	678.566
245.074	15.126	905.551	677.788
246.088	15.107	904.997	677.237
247.103	15.188	904.123	676.851
248.117	15.266	903.459	676.607
249.132	15.357	902.891	676.489
250.147	15.324	902.183	675.765
251.161	15.437	901.909	675.956
252.176	15.234	901.555	674.815
253.190	15.413	900.232	674.484
254.205	15.483	899.757	674.348
255.220	15.360	899.146	673.337
256.234	15.335	898.798	672.918
257.249	15.444	897.710	672.478
258.263	15.509	896.925	672.091
259.278	15.449	896.500	671.475
260.293	15.397	896.096	670.903
261.307	15.625	895.062	670.981
262.322	15.617	894.322	670.334
263.336	15.644	893.558	669.810
264.351	15.584	893.179	669.230
265.366	15.629	892.614	668.926
266.380	15.714	891.572	668.423
267.395	15.834	890.694	668.182
268.409	15.709	889.936	667.059
269.424	15.657	889.458	666.433
270.439	15.753	888.838	666.293
271.453	15.807	887.940	665.775
272.468	15.642	887.900	665.030
273.482	15.678	887.312	664.676
274.497	15.699	886.591	664.157
275.512	15.792	885.788	663.866
276.526	15.659	885.521	663.080
277.541	15.671	885.040	662.710
278.555	15.813	884.474	662.788
279.570	15.891	883.392	662.225
280.585	15.908	882.921	661.878
281.599	15.847	881.893	660.811
282.614	15.778	881.743	660.372
283.628	16.063	880.677	660.632
284.643	15.847	880.650	659.703
285.657	15.947	879.821	659.417
286.672	15.884	878.949	658.458
287.687	15.923	878.587	658.283
288.701	15.939	877.817	657.709
289.716	16.174	876.970	657.931
290.730	15.990	876.592	656.874
291.745	16.061	875.851	656.535
292.760	16.051	875.401	656.104
293.774	16.139	874.553	655.749
294.789	16.029	874.064	654.900
295.803	15.898	873.467	653.885
296.818	16.040	872.730	653.827
297.833	16.052	872.112	653.352
298.847	16.203	871.053	653.086
299.862	16.142	870.535	652.405
300.876	16.296	869.917	652.477
301.891	16.274	869.731	652.196
302.906	16.202	869.254	651.503
303.920	16.340	868.387	651.326
304.935	16.358	867.986	651.036
305.949	16.334	867.347	650.408
306.964	16.410	866.647	650.118
307.979	16.273	866.510	649.431
308.993	16.305	865.699	648.888
310.008	16.289	864.925	648.188
311.022	16.383	864.352	648.065
312.037	16.397	863.628	647.516
313.052	16.389	862.954	646.923
314.066	16.282	862.657	646.234
315.081	16.345	862.300	646.149
316.095	16.343	861.851	645.750
317.110	16.309	861.094	644.996
318.125	16.369	860.509	644.730
319.139	16.365	860.290	644.494
320.154	16.470	859.478	644.228
321.168	16.455	858.939	643.710
322.183	16.622	857.982	643.569
323.197	16.602	857.500	643.075
324.212	16.448	857.233	642.234
325.227	16.430	856.963	641.907
326.241	16.552	856.121	641.682
327.256	16.575	855.285	641.087
328.270	16.465	854.835	640.273
329.285	16.420	854.615	639.884
330.300	16.440	854.068	639.491
331.314	16.687	853.134	639.669
332.329	16.602	853.000	639.192
333.343	16.602	852.552	638.798
334.358	16.641	851.866	638.377
335.373	16.614	851.874	638.224
336.387	16.533	851.240	637.388
337.402	16.629	850.871	637.415
338.416	16.792	850.387	637.608
339.431	16.755	850.283	637.335
340.446	16.847	849.551	637.076
341.460	16.890	849.117	636.857
342.475	16.784	849.196	636.462
343.489	16.824	848.707	636.188
344.504	16.774	848.127	635.510
345.519	16.866	847.654	635.445
346.533	16.843	847.206	634.966
347.548	16.993	845.941	634.523
348.562	16.855	845.910	633.927
349.577	16.822	845.511	633.448
350.592	16.903	844.687	633.076
351.606	16.791	844.058	632.132
352.621	16.840	843.399	631.767
353.635	16.927	842.868	631.637
354.650	16.862	841.904	630.617
355.665	17.031	841.220	630.677
356.679	17.102	840.512	630.354
357.694	17.071	839.964	629.773
358.708	17.075	839.449	629.345
359.723	17.072	838.941	628.898
360.738	16.997	838.084	627.922
361.752	17.159	837.891	628.322
362.767	17.046	837.130	627.276
363.781	16.988	836.708	626.690
364.796	17.208	836.243	627.097
365.810	17.222	835.833	626.788
366.825	17.185	835.749	626.534
367.840	17.272	834.947	626.195
368.854	17.318	834.315	625.836
369.869	17.208	834.157	625.259
370.883	17.156	833.528	624.542
371.898	17.400	833.036	625.014
372.913	17.312	832.735	624.408
373.927	17.202	832.773	623.976
374.942	17.318	831.866	623.667
375.956	17.455	831.418	623.779
376.971	17.567	830.620	623.536
377.986	17.652	829.859	623.219
379.000	17.542	830.005	622.872
380.015	17.514	829.366	622.236
381.029	17.551	828.786	621.881
382.044	17.493	828.223	621.189
383.059	17.576	827.865	621.169
384.073	17.605	826.882	620.483
385.088	17.526	826.782	620.067
386.102	17.620	825.961	619.736
387.117	17.736	825.072	619.435
388.132	17.666	824.546	618.732
389.146	17.568	824.475	618.270
390.161	17.636	823.980	618.091
391.175	17.629	823.528	617.670
392.190	17.779	822.890	617.682
393.205	17.757	822.478	617.237
394.219	17.526	822.446	616.322
395.234	17.719	821.806	616.488
396.248	17.724	821.233	616.020
397.263	17.773	820.675	615.725
398.278	17.646	820.353	614.970
399.292	17.554	820.415	614.630
400.307	17.690	819.230	614.179
401.321	17.708	819.015	614.027
402.336	17.623	818.592	613.350
403.350	17.666	818.130	613.103
404.365	17.926	817.330	613.382
405.380	17.740	817.115	612.501
406.394	17.788	816.449	612.118
407.409	17.775	816.393	611.976
408.423	17.751	816.182	611.677
409.438	17.838	815.722	611.590
410.453	17.847	815.076	611.085
411.467	17.940	814.471	610.911
412.482	17.902	814.162	610.489
413.496	17.901	814.004	610.311
414.511	17.994	813.374	610.117
415.526	18.131	812.893	610.190
416.540	18.134	812.317	609.716
417.555	18.180	811.932	609.536
418.569	18.130	811.438	608.933
419.584	18.060	810.865	608.201
420.599	18.111	810.793	608.275
421.613	113.793	1297.643	1483.430
422.628	98.421	1368.521	1483.492
