DTS Sentinel unit serial number:	SN413079Multiplexer serial number:	ORYXHardware model number:	OX4-SRSoftware version number:	ORYX F/W v4.00 Oryx Data Collector v3.7.2.0data status	okinstallation	princeton_trtdifferential loss correction	single-endedforward channel	channel 1reverse channel	N/Adate	2019/09/17time	10:02:35forward acquisition time	60.00reverse acquisition time	0.00gamma	496.2192k internal	0.2323k external	0.2323temperature offset calibration	0.9958default loss term (dB/km)	0.3790temperature slope calibration	1.0000multiplexer offset coefficient	1.0000multiplexer slope coefficient	1.0000fibre end	0.00T internal ref (°C)	29.64T ext. ref 1 (°C)	0.17T ext. ref 2 (°C)	25.33length (m)	temperature (°C)	Stokes	anti-Stokes-747.200	800.000	0.070	0.272
-746.185	181.204	-0.269	0.400
-745.171	152.535	0.351	-0.484
-744.156	-156.938	-0.066	0.004
-743.142	-187.439	0.193	-0.003
-742.127	238.454	-0.204	0.342
-741.112	78.163	-0.076	-0.082
-740.098	-166.607	-0.352	0.015
-739.083	-200.000	-0.012	0.328
-738.069	-117.105	-0.285	0.052
-737.054	-152.416	-0.394	-0.029
-736.039	-116.192	-0.522	0.098
-735.025	-31.641	0.348	0.197
-734.010	106.208	0.143	0.171
-732.996	119.221	-0.164	0.205
-731.981	72.951	-0.122	0.128
-730.966	-30.235	-0.013	-0.008
-729.952	-149.469	0.279	-0.022
-728.937	-86.823	-0.210	-0.065
-727.923	147.293	-0.014	-0.019
-726.908	163.980	0.133	-0.189
-725.894	800.000	-0.041	-0.147
-724.879	-129.023	-0.250	-0.035
-723.864	-70.868	-0.138	-0.052
-722.850	200.155	-0.215	0.334
-721.835	-81.756	0.344	0.114
-720.821	3.987	-0.328	-0.242
-719.806	-23.217	-0.249	-0.151
-718.791	-200.000	-0.021	-0.347
-717.777	-38.054	0.159	0.085
-716.762	115.872	0.092	0.113
-715.748	25.209	-0.474	0.397
-714.733	800.000	-0.045	-0.157
-713.718	26.648	0.138	-0.117
-712.704	-39.329	-0.278	0.147
-711.689	162.706	0.057	0.080
-710.675	-200.000	-0.014	0.196
-709.660	376.569	-0.108	0.222
-708.645	-84.902	-0.290	-0.092
-707.631	49.335	0.336	-0.319
-706.616	-105.580	-0.229	0.052
-705.602	81.034	0.039	0.043
-704.587	-64.647	-0.159	0.065
-703.572	-104.522	-0.294	0.068
-702.558	184.748	0.163	-0.244
-701.543	16.074	0.022	0.018
-700.529	-39.566	-0.103	0.054
-699.514	-200.000	0.037	0.201
-698.499	-182.720	0.125	0.002
-697.485	58.443	0.292	0.289
-696.470	497.280	-0.213	-0.495
-695.456	36.878	-0.370	-0.330
-694.441	800.000	-0.063	0.214
-693.426	-161.828	0.245	0.013
-692.412	48.299	-0.221	0.209
-691.397	145.959	0.134	0.181
-690.383	119.068	-0.193	-0.240
-689.368	-75.702	0.172	-0.061
-688.354	101.311	0.085	-0.099
-687.339	283.042	-0.123	-0.223
-686.324	54.999	-0.109	0.106
-685.310	-200.000	0.032	0.253
-684.295	-52.831	0.349	0.162
-683.281	-154.465	-0.199	0.013
-682.266	637.960	0.058	-0.149
-681.251	-98.914	0.354	0.091
-680.237	-17.544	0.095	0.060
-679.222	457.339	0.078	0.175
-678.208	0.979	-0.071	0.052
-677.193	-147.314	0.159	-0.014
-676.178	153.672	-0.121	0.167
-675.164	-200.000	-0.023	0.434
-674.149	316.392	0.073	-0.139
-673.135	-21.884	0.382	0.234
-672.120	64.554	0.242	-0.246
-671.105	166.616	0.229	-0.327
-670.091	-200.000	-0.008	0.093
-669.076	0.675	-0.117	0.084
-668.062	722.794	0.072	-0.192
-667.047	-36.423	0.281	-0.152
-666.032	-92.536	-0.261	-0.074
-665.018	-186.147	0.328	0.005
-664.003	-163.839	-0.204	-0.010
-662.989	72.589	0.096	-0.101
-661.974	-95.894	-0.189	-0.051
-660.959	0.118	0.121	0.087
-659.945	263.827	0.065	-0.114
-658.930	-102.361	-0.442	0.107
-657.916	-82.369	-0.098	-0.032
-656.901	-56.898	0.125	-0.055
-655.886	-113.302	-0.338	0.067
-654.872	-200.000	0.029	0.232
-653.857	-40.972	0.178	-0.092
-652.843	-133.762	0.200	-0.025
-651.828	-102.161	-0.280	-0.068
-650.814	-134.386	-0.117	0.014
-649.799	-29.785	-0.058	0.033
-648.784	800.000	-0.069	0.237
-647.770	-200.000	-0.013	-0.197
-646.755	-160.162	-0.260	-0.014
-645.741	800.000	-0.053	0.153
-644.726	-5.337	-0.239	-0.165
-643.711	-127.324	0.059	0.009
-642.697	130.646	-0.163	0.211
-641.682	497.665	0.128	-0.295
-640.668	-96.280	0.089	0.024
-639.653	800.000	-0.084	-0.347
-638.638	-81.125	-0.214	0.071
-637.624	15.575	0.128	-0.101
-636.609	-165.142	-0.102	0.005
-635.595	-200.000	0.012	0.092
-634.580	88.758	0.077	-0.086
-633.565	267.588	-0.178	-0.314
-632.551	-4.709	0.264	0.183
-631.536	800.000	-0.063	0.179
-630.522	138.367	-0.136	0.180
-629.507	-88.731	-0.327	0.098
-628.492	-200.000	0.047	0.258
-627.478	-200.000	0.000	-0.060
-626.463	679.411	0.046	-0.121
-625.449	-200.000	-0.020	0.141
-624.434	-165.965	0.174	0.007
-623.419	800.000	0.138	0.414
-622.405	-81.127	-0.072	0.024
-621.390	800.000	0.068	-0.270
-620.376	-200.000	-0.018	0.248
-619.361	-66.706	-0.162	-0.065
-618.346	-77.831	-0.240	0.083
-617.332	-146.075	-0.133	0.012
-616.317	-120.041	-0.137	0.024
-615.303	-200.000	-0.013	-0.413
-614.288	423.965	0.113	-0.245
-613.273	-122.396	0.226	0.037
-612.259	800.000	-0.061	0.179
-611.244	-30.728	0.157	0.089
-610.230	-200.000	0.004	0.229
-609.215	0.293	0.132	-0.095
-608.201	-13.826	-0.142	0.092
-607.186	-200.000	-0.026	0.130
-606.171	-200.000	-0.005	0.118
-605.157	377.994	-0.040	0.081
-604.142	313.001	0.074	0.139
-603.128	800.000	0.070	0.251
-602.113	79.734	-0.120	0.130
-601.098	-200.000	0.012	0.065
-600.084	-51.399	0.251	0.118
-599.069	-158.857	0.175	-0.010
-598.055	167.074	-0.060	0.086
-597.040	-53.427	0.213	0.098
-596.025	70.999	-0.164	0.171
-595.011	-104.241	0.269	-0.063
-593.996	-98.774	0.266	0.068
-592.982	800.000	-0.036	0.124
-591.967	-200.000	-0.046	-0.232
-590.952	147.727	0.188	-0.254
-589.938	-155.930	0.152	0.010
-588.923	-146.525	-0.180	-0.016
-587.909	-11.505	-0.279	-0.184
-586.894	-172.213	0.215	-0.007
-585.879	115.276	-0.095	-0.117
-584.865	295.414	0.167	-0.307
-583.850	-28.822	0.043	-0.025
-582.836	259.787	-0.128	-0.221
-581.821	-67.849	-0.247	0.097
-580.806	88.023	-0.257	0.286
-579.792	167.890	0.194	0.277
-578.777	184.038	-0.063	-0.094
-577.763	-200.000	0.045	-0.283
-576.748	165.297	0.187	-0.265
-575.733	-142.014	0.141	-0.014
-574.719	-99.808	0.158	-0.040
-573.704	19.767	-0.146	-0.118
-572.690	205.132	-0.119	-0.186
-571.675	-12.417	-0.179	-0.117
-570.661	-113.502	0.244	-0.048
-569.646	347.804	-0.127	-0.252
-568.631	431.958	0.170	-0.370
-567.617	57.529	-0.121	-0.118
-566.602	-29.749	0.138	-0.079
-565.588	800.000	-0.044	-0.130
-564.573	-71.652	-0.124	0.047
-563.558	-200.000	-0.004	-0.163
-562.544	-129.486	-0.406	0.056
-561.529	800.000	-0.064	0.220
-560.515	339.644	-0.225	-0.439
-559.500	-103.399	0.357	-0.084
-558.485	156.686	-0.224	-0.310
-557.471	10.123	0.259	-0.198
-556.456	-17.113	0.133	0.084
-555.442	52.120	-0.041	0.039
-554.427	307.465	-0.099	-0.185
-553.412	-110.824	-0.026	-0.005
-552.398	754.582	0.068	-0.184
-551.383	800.000	-0.058	-0.162
-550.369	191.190	-0.064	-0.097
-549.354	477.087	0.034	-0.077
-548.339	100.698	0.112	-0.130
-547.325	195.813	0.085	-0.130
-546.310	516.794	0.164	-0.384
-545.296	-46.773	0.056	0.027
-544.281	800.000	-0.045	0.136
-543.266	345.312	0.152	-0.299
-542.252	-166.862	-0.120	0.005
-541.237	-95.214	0.413	-0.111
-540.223	-200.000	-0.047	0.344
-539.208	75.988	0.135	0.143
-538.193	81.882	0.180	-0.195
-537.179	233.483	0.137	-0.225
-536.164	-27.969	0.357	-0.207
-535.150	696.317	-0.023	-0.059
-534.135	-126.949	-0.074	0.011
-533.121	498.276	-0.070	0.161
-532.106	190.750	0.050	0.075
-531.091	-200.000	0.047	0.281
-530.077	-96.757	0.052	0.014
-529.062	181.258	-0.178	-0.262
-528.048	353.526	-0.161	-0.320
-527.033	-8.155	0.375	0.253
-526.018	-200.000	0.002	0.083
-525.004	-8.910	-0.273	-0.183
-523.989	252.619	-0.175	-0.298
-522.975	800.000	-0.063	0.211
-521.960	105.912	0.333	-0.394
-520.945	-200.000	-0.014	-0.095
-519.931	-122.246	-0.416	-0.068
-518.916	-197.706	0.135	-0.001
-517.902	184.251	-0.103	-0.153
-516.887	-95.908	-0.226	-0.060
-515.872	-22.276	-0.387	0.235
-514.858	-200.000	0.000	0.393
-513.843	-19.346	0.401	-0.249
-512.829	-130.438	-0.222	-0.030
-511.814	800.000	-0.062	0.226
-510.799	-200.000	-0.018	0.113
-509.785	-68.711	-0.101	0.039
-508.770	-61.223	0.142	0.060
-507.756	-1.164	0.133	-0.094
-506.741	14.509	0.226	-0.176
-505.726	-200.000	-0.011	-0.258
-504.712	221.957	-0.087	0.140
-503.697	269.304	-0.113	0.199
-502.683	101.632	0.164	0.191
-501.668	-177.332	0.098	0.002
-500.653	-200.000	0.014	-0.171
-499.639	2.720	0.090	0.065
-498.624	800.000	-0.077	-0.259
-497.610	-200.000	0.045	0.356
-496.595	-200.000	0.023	-0.167
-495.581	-45.093	-0.208	0.103
-494.566	-193.013	-0.273	0.002
-493.551	404.605	0.080	-0.169
-492.537	-17.861	0.083	0.052
-491.522	245.245	-0.121	0.203
-490.508	800.000	-0.139	-0.531
-489.493	800.000	0.016	-0.067
-488.478	-152.863	-0.106	0.007
-487.464	-75.577	-0.065	-0.023
-486.449	40.928	0.106	0.096
-485.435	-12.196	-0.265	-0.173
-484.420	800.000	-0.102	0.347
-483.405	-200.000	-0.032	0.248
-482.391	-133.576	-0.176	-0.022
-481.376	-42.316	0.413	-0.211
-480.362	-131.706	-0.327	-0.043
-479.347	-46.075	-0.165	-0.081
-478.332	85.754	-0.117	-0.128
-477.318	-31.044	0.021	0.012
-476.303	345.032	-0.142	0.279
-475.289	-107.785	-0.243	0.053
-474.274	-49.341	0.200	0.095
-473.259	800.000	-0.098	0.370
-472.245	-41.426	-0.021	0.011
-471.230	-27.874	-0.174	0.101
-470.216	132.902	-0.173	-0.223
-469.201	-70.310	0.410	0.155
-468.186	153.713	0.081	-0.111
-467.172	800.000	0.067	-0.203
-466.157	-78.275	0.160	0.055
-465.143	-86.119	0.243	0.075
-464.128	83.409	0.272	0.296
-463.113	51.463	0.098	0.093
-462.099	17.554	0.099	0.078
-461.084	-63.740	0.157	0.064
-460.070	-37.206	-0.115	0.062
-459.055	-115.029	0.067	0.013
-458.040	42.731	0.100	0.091
-457.026	-133.538	-0.383	-0.048
-456.011	279.265	-0.107	-0.191
-454.997	251.972	-0.171	0.291
-453.982	-39.688	-0.140	0.073
-452.968	186.075	-0.194	-0.289
-451.953	393.957	0.164	-0.341
-450.938	-131.987	0.241	-0.031
-449.924	-105.930	-0.068	0.015
-448.909	-114.276	-0.095	-0.018
-447.895	-200.000	-0.014	-0.089
-446.880	56.050	0.168	-0.163
-445.865	-127.573	0.134	-0.019
-444.851	170.835	-0.092	0.132
-443.836	-200.000	0.046	0.272
-442.822	800.000	0.041	-0.158
-441.807	-33.774	-0.307	-0.169
-440.792	-51.970	0.181	0.084
-439.778	-200.000	-0.014	-0.176
-438.763	67.449	0.059	0.060
-437.749	-200.000	0.026	0.325
-436.734	-98.620	-0.181	-0.046
-435.719	-200.000	-0.004	0.022
-434.705	26.778	0.298	-0.249
-433.690	-200.000	-0.061	-0.272
-432.676	-200.000	0.005	0.244
-431.661	-200.000	0.007	0.239
-430.646	503.859	-0.068	0.157
-429.632	-115.674	-0.205	-0.038
-428.617	103.922	0.113	0.133
-427.603	-121.251	0.274	0.046
-426.588	800.000	0.100	0.348
-425.573	-20.557	-0.057	0.035
-424.559	800.000	-0.107	0.399
-423.544	54.204	-0.049	-0.047
-422.530	245.914	-0.091	0.152
-421.515	800.000	-0.004	-0.019
-420.500	-139.365	-0.245	-0.026
-419.486	-128.954	0.197	-0.028
-418.471	-59.074	-0.149	0.064
-417.457	-31.097	0.045	0.025
-416.442	7.467	0.083	0.062
-415.428	-0.996	0.226	0.160
-414.413	140.922	-0.223	-0.294
-413.398	-70.323	-0.035	0.013
-412.384	-78.748	0.312	0.106
-411.369	-143.366	-0.102	0.010
-410.355	466.303	0.051	0.115
-409.340	-200.000	0.000	-0.020
-408.325	47.756	-0.227	-0.211
-407.311	800.000	-0.039	0.157
-406.296	-85.888	0.317	0.098
-405.282	-168.720	-0.168	-0.006
-404.267	-36.811	0.170	0.091
-403.252	-56.318	-0.128	-0.057
-402.238	249.368	0.075	-0.127
-401.223	-93.770	-0.460	-0.126
-400.209	-200.000	0.011	0.145
-399.194	-142.738	-0.060	-0.006
-398.179	197.220	0.240	0.365
-397.165	-56.049	0.320	0.142
-396.150	-13.845	0.175	-0.113
-395.136	200.987	-0.133	-0.204
-394.121	-101.003	-0.083	0.020
-393.106	551.390	-0.019	-0.046
-392.092	464.176	0.111	-0.248
-391.077	550.419	0.017	0.039
-390.063	6.691	0.133	0.098
-389.048	-200.000	-0.021	0.152
-388.033	-96.817	-0.190	0.050
-387.019	-32.093	0.242	0.135
-386.004	27.486	0.262	-0.219
-384.990	-200.000	-0.032	0.463
-383.975	86.640	-0.153	0.168
-382.960	94.387	0.144	-0.162
-381.946	-144.815	0.175	0.016
-380.931	800.000	0.123	-0.400
-379.917	82.729	0.074	-0.080
-378.902	127.844	-0.217	0.274
-377.888	-22.019	-0.328	0.199
-376.873	-46.215	-0.239	-0.117
-375.858	-98.452	0.343	0.087
-374.844	-144.885	-0.228	-0.021
-373.829	267.334	-0.195	-0.339
-372.815	-200.000	0.003	-0.137
-371.800	-200.000	-0.062	0.294
-370.785	-63.412	-0.133	0.054
-369.771	-81.088	-0.098	-0.032
-368.756	-200.000	0.027	-0.230
-367.742	756.024	-0.054	-0.145
-366.727	-200.000	-0.044	0.201
-365.712	-98.974	-0.356	-0.090
-364.698	-5.059	-0.201	0.137
-363.683	34.017	-0.247	0.214
-362.669	-53.451	0.189	0.086
-361.654	166.728	-0.101	-0.143
-360.639	-200.000	0.230	-0.000
-359.625	30.414	-0.011	0.009
-358.610	-67.230	-0.088	-0.035
-357.596	53.396	0.286	-0.273
-356.581	-200.000	-0.087	-0.446
-355.566	-28.004	-0.160	-0.092
-354.552	-153.364	0.151	-0.010
-353.537	-42.908	-0.288	-0.145
-352.523	-200.000	-0.025	0.336
-351.508	-61.764	0.088	-0.037
-350.493	800.000	0.051	0.159
-349.479	-20.121	-0.180	-0.110
-348.464	-133.361	0.274	0.034
-347.450	-18.205	0.254	0.158
-346.435	-200.000	-0.041	-0.184
-345.420	-167.804	-0.139	-0.005
-344.406	137.907	-0.079	0.103
-343.391	72.684	0.269	-0.279
-342.377	92.289	0.216	0.243
-341.362	149.468	0.084	-0.114
-340.348	-66.380	-0.157	0.062
-339.333	344.050	0.243	-0.475
-338.318	-68.285	-0.099	-0.038
-337.304	-141.625	0.179	-0.018
-336.289	61.294	-0.076	-0.075
-335.275	800.000	0.035	-0.140
-334.260	-200.000	-0.004	-0.216
-333.245	-2.172	-0.288	-0.201
-332.231	272.466	0.147	0.258
-331.216	-200.000	-0.027	0.142
-330.202	356.999	-0.243	-0.482
-329.187	-56.786	-0.070	-0.031
-328.172	46.545	-0.206	0.190
-327.158	-200.000	-0.054	0.239
-326.143	75.406	0.179	-0.188
-325.129	-200.000	-0.080	0.502
-324.114	-200.000	-0.036	0.410
-323.099	-64.558	-0.144	0.058
-322.085	68.360	-0.155	0.157
-321.070	306.540	0.081	0.150
-320.056	427.565	0.166	0.355
-319.041	55.073	-0.223	0.214
-318.026	12.713	-0.160	0.123
-317.012	-200.000	0.029	-0.202
-315.997	-146.992	0.449	0.038
-314.983	363.268	0.102	-0.204
-313.968	-200.000	-0.010	0.231
-312.953	-200.000	-0.077	0.480
-311.939	800.000	0.060	-0.227
-310.924	3.996	-0.108	0.078
-309.910	38.572	0.415	0.367
-308.895	388.210	0.070	0.143
-307.880	133.953	-0.046	-0.059
-306.866	51.304	-0.180	0.169
-305.851	722.629	-0.114	0.302
-304.837	54.310	-0.156	-0.149
-303.822	-27.637	-0.082	0.047
-302.807	800.000	0.094	0.271
-301.793	-82.296	0.185	-0.060
-300.778	170.745	-0.133	0.188
-299.764	-113.250	-0.170	-0.033
-298.749	-24.885	-0.198	-0.117
-297.735	800.000	-0.109	-0.384
-296.720	-175.542	0.101	0.003
-295.705	-136.246	-0.154	-0.018
-294.691	800.000	0.066	0.217
-293.676	442.115	0.023	0.049
-292.662	-114.365	0.323	-0.062
-291.647	800.000	0.071	0.247
-290.632	-102.196	-0.401	0.096
-289.618	-200.000	-0.239	0.000
-288.603	-182.058	0.092	-0.002
-287.589	-177.574	0.052	0.001
-286.574	201.512	0.087	0.133
-285.559	-26.578	0.143	0.083
-284.545	-69.110	0.198	0.076
-283.530	195.335	-0.179	-0.270
-282.516	1.783	-0.137	0.098
-281.501	-127.311	0.343	0.050
-280.486	-84.573	0.216	0.068
-279.472	735.262	0.032	0.084
-278.457	138.759	-0.283	0.369
-277.443	48.730	-0.302	0.281
-276.428	-83.526	0.277	0.088
-275.413	297.604	0.116	-0.211
-274.399	-149.616	0.208	0.016
-273.384	-115.447	-0.069	0.013
-272.370	337.392	0.115	0.222
-271.355	800.000	0.018	0.054
-270.340	318.503	0.168	0.316
-269.326	-124.448	0.383	0.059
-268.311	-69.543	-0.352	0.134
-267.297	68.727	0.149	0.152
-266.282	-32.802	0.135	0.074
-265.267	101.177	0.152	-0.176
-264.253	257.017	0.067	0.114
-263.238	209.537	0.129	-0.201
-262.224	12.192	0.082	0.063
-261.209	-46.179	-0.187	-0.091
-260.195	113.640	0.230	-0.276
-259.180	-185.617	0.104	-0.002
-258.165	-200.000	-0.079	-0.375
-257.151	61.563	-0.233	-0.230
-256.136	-96.774	-0.310	0.081
-255.122	-200.000	0.027	-0.156
-254.107	800.000	-0.080	-0.290
-253.092	215.053	0.154	-0.242
-252.078	312.821	-0.120	-0.224
-251.063	229.314	-0.104	0.168
-250.049	448.954	0.062	-0.136
-249.034	95.716	-0.164	0.185
-248.019	-39.319	0.147	-0.077
-247.005	-75.411	0.292	0.103
-245.990	63.361	-0.405	0.402
-244.976	693.223	-0.024	-0.063
-243.961	490.296	-0.057	0.129
-242.946	800.000	-0.104	-0.351
-241.932	-117.997	-0.067	0.012
-240.917	-14.737	0.141	-0.090
-239.903	175.514	0.218	0.313
-238.888	800.000	0.117	0.358
-237.873	-158.496	0.272	-0.016
-236.859	-200.000	0.047	-0.256
-235.844	-106.130	0.466	0.104
-234.830	163.466	-0.035	-0.049
-233.815	298.955	-0.088	-0.160
-232.800	419.026	-0.154	-0.326
-231.786	201.457	0.106	0.161
-230.771	-59.229	-0.037	-0.016
-229.757	-200.000	0.061	0.318
-228.742	-154.059	0.173	0.012
-227.727	457.755	0.071	0.156
-226.713	-200.000	-0.012	-0.321
-225.698	-146.433	-0.038	0.003
-224.684	-143.014	-0.213	0.020
-223.669	-125.979	-0.196	-0.029
-222.655	-121.889	0.423	-0.069
-221.640	800.000	0.070	0.196
-220.625	-44.365	-0.096	-0.047
-219.611	58.159	-0.148	-0.143
-218.596	107.610	0.179	-0.210
-217.582	-200.000	0.017	0.163
-216.567	-2.249	0.077	-0.053
-215.552	-133.801	0.329	-0.040
-214.538	67.915	-0.161	-0.163
-213.523	-175.938	0.060	-0.002
-212.509	116.070	-0.121	0.146
-211.494	258.291	-0.109	0.186
-210.479	348.508	-0.109	-0.212
-209.465	-153.889	-0.594	0.040
-208.450	-25.331	-0.177	0.104
-207.436	-171.917	-0.135	0.004
-206.421	190.675	0.117	0.174
-205.406	-200.000	0.030	-0.275
-204.392	-176.932	0.104	0.003
-203.377	-146.098	0.280	-0.024
-202.363	-200.000	0.021	-0.126
-201.348	800.000	-0.035	0.134
-200.333	-3.383	-0.089	-0.061
-199.319	-101.920	0.277	-0.066
-198.304	93.542	0.287	0.321
-197.290	800.000	-0.041	0.141
-196.275	-200.000	0.015	0.172
-195.260	-200.000	0.071	-0.317
-194.246	322.243	-0.113	-0.214
-193.231	47.494	-0.154	-0.142
-192.217	800.000	0.139	0.445
-191.202	800.000	0.021	-0.066
-190.187	-21.681	0.111	0.067
-189.173	-200.000	-0.043	0.308
-188.158	-59.592	0.295	0.125
-187.144	188.183	-0.170	0.251
-186.129	-15.280	0.415	-0.262
-185.114	-56.321	-0.139	-0.061
-184.100	-82.974	-0.299	-0.095
-183.085	424.378	-0.053	-0.112
-182.071	244.637	-0.074	-0.123
-181.056	432.405	-0.115	-0.247
-180.042	-200.000	-0.032	-0.215
-179.027	341.211	-0.193	-0.373
-178.012	127.084	0.135	-0.169
-176.998	-27.408	-0.155	0.089
-175.983	-78.225	-0.121	-0.041
-174.969	-96.556	-0.206	0.054
-173.954	693.153	-0.035	-0.092
-172.939	-39.744	0.225	-0.116
-171.925	-44.281	0.339	-0.168
-170.910	105.273	-0.097	0.113
-169.896	-20.692	-0.092	0.056
-168.881	43.695	0.004	0.004
-167.866	234.781	-0.094	0.153
-166.852	800.000	0.094	0.259
-165.837	-51.556	0.156	0.072
-164.823	195.322	0.235	-0.352
-163.808	-6.957	-0.302	-0.203
-162.793	-40.680	-0.049	0.025
-161.779	-163.397	0.156	-0.007
-160.764	-58.821	-0.136	-0.058
-159.750	-27.916	-0.231	-0.132
-158.735	40.011	-0.180	0.160
-157.720	421.914	0.074	-0.156
-156.706	-160.786	-0.237	0.012
-155.691	-200.000	0.008	0.190
-154.677	-189.459	0.263	0.003
-153.662	163.824	-0.056	0.078
-152.647	-84.173	0.150	0.047
-151.633	25.540	0.053	-0.043
-150.618	-200.000	0.026	0.180
-149.604	-16.208	0.271	-0.170
-148.589	136.685	0.141	-0.182
-147.574	-179.192	0.226	0.005
-146.560	-200.000	-0.004	-0.095
-145.545	81.911	-0.114	-0.122
-144.531	185.439	0.125	0.183
-143.516	800.000	-0.013	0.053
-142.502	-131.486	0.213	-0.028
-141.487	-135.729	-0.223	-0.026
-140.472	-200.000	-0.127	0.566
-139.458	-200.000	0.003	0.060
-138.443	800.000	-0.060	0.246
-137.429	-200.000	-0.058	0.532
-136.414	-200.000	0.028	-0.203
-135.399	-200.000	0.036	0.156
-134.385	78.883	0.157	0.166
-133.370	-60.021	0.373	-0.157
-132.356	800.000	0.072	0.264
-131.341	-25.337	0.303	0.177
-130.326	-147.506	0.169	-0.014
-129.312	206.592	0.175	0.269
-128.297	-80.322	0.255	0.084
-127.283	-134.624	-0.358	-0.043
-126.268	9.199	0.003	-0.002
-125.253	68.119	-0.044	-0.044
-124.239	-177.133	-0.046	-0.001
-123.224	-99.699	-0.142	0.035
-122.210	74.337	0.265	0.275
-121.195	-200.000	-0.006	-0.156
-120.180	481.973	0.171	-0.382
-119.166	800.000	-0.140	-0.463
-118.151	173.724	0.308	-0.438
-117.137	160.587	0.109	0.149
-116.122	-147.576	0.200	-0.017
-115.107	-105.594	-0.115	-0.026
-114.093	-130.093	0.174	0.023
-113.078	-114.729	-0.292	-0.055
-112.064	-200.000	0.001	0.037
-111.049	-8.160	-0.085	0.057
-110.034	35.339	0.230	0.199
-109.020	-200.000	-0.012	0.068
-108.005	-200.000	-0.047	0.210
-106.991	-200.000	0.014	0.308
-105.976	-120.549	-0.276	0.046
-104.962	-110.879	0.099	0.020
-103.947	-200.000	-0.259	0.000
-102.932	192.345	0.162	0.241
-101.918	81.458	-0.093	-0.099
-100.903	-35.824	0.167	0.089
-99.889	-200.000	0.036	0.268
-98.874	261.043	0.078	0.132
-97.859	800.000	0.057	-0.162
-96.845	-200.000	0.031	0.320
-95.830	54.199	-0.120	0.114
-94.816	276.858	-0.077	-0.134
-93.801	34.606	-0.220	0.189
-92.786	-55.956	-0.263	-0.116
-91.772	-200.000	0.030	0.289
-90.757	489.780	0.042	0.095
-89.743	-103.969	0.301	0.069
-88.728	407.200	-0.117	0.243
-87.713	313.309	-0.066	-0.122
-86.699	800.000	-0.039	0.143
-85.684	-100.663	-0.101	0.025
-84.670	-111.689	0.413	0.082
-83.655	-120.121	-0.172	0.029
-82.640	800.000	-0.032	0.110
-81.626	-65.446	0.175	-0.069
-80.611	354.264	0.105	0.205
-79.597	71.317	0.069	-0.070
-78.582	-4.861	-0.146	-0.099
-77.567	397.518	0.070	-0.143
-76.553	-117.138	-0.079	0.014
-75.538	298.630	-0.115	-0.208
-74.524	150.021	0.048	0.064
-73.509	157.391	-0.220	0.299
-72.494	283.908	-0.120	0.211
-71.480	-12.031	0.191	0.123
-70.465	800.000	-0.012	0.041
-69.451	-200.000	-0.028	0.173
-68.436	-79.845	0.249	0.082
-67.422	141.032	-0.110	-0.143
-66.407	222.289	-0.157	0.249
-65.392	674.441	0.077	0.195
-64.378	184.989	0.123	0.179
-63.363	15.462	0.321	-0.248
-62.349	-96.627	0.327	-0.085
-61.334	41.669	-1.137	-1.013
-60.319	214.202	0.282	0.439
-59.305	384.729	-0.565	-1.145
-58.290	275.454	0.687	1.197
-57.276	418.004	0.700	1.470
-56.261	-200.000	105.124	571.169
-55.246	447.732	1465.105	3170.344
-54.232	147.343	2656.095	3514.824
-53.217	106.181	2169.371	2525.594
-52.203	41.209	1611.550	1431.649
-51.188	33.135	1347.311	1148.079
-50.173	29.996	1305.904	1094.243
-49.159	53.692	1358.302	1281.507
-48.144	54.025	1374.224	1298.479
-47.130	33.254	1329.783	1133.676
-46.115	29.768	1312.510	1098.245
-45.100	29.599	1307.127	1092.701
-44.086	29.631	1304.569	1090.706
-43.071	29.325	1303.144	1087.668
-42.057	29.522	1300.340	1086.444
-41.042	29.645	1298.365	1085.473
-40.027	29.577	1296.979	1083.871
-39.013	29.549	1295.069	1082.069
-37.998	29.568	1293.228	1080.599
-36.984	29.580	1292.293	1079.849
-35.969	29.613	1290.224	1078.267
-34.954	29.679	1288.503	1077.168
-33.940	29.710	1286.776	1075.862
-32.925	29.610	1286.190	1074.750
-31.911	29.828	1284.032	1074.168
-30.896	29.695	1282.891	1072.403
-29.881	29.752	1281.405	1071.445
-28.867	29.785	1279.799	1070.252
-27.852	29.731	1278.444	1068.764
-26.838	29.678	1277.224	1067.399
-25.823	29.828	1275.488	1066.768
-24.809	29.694	1274.363	1065.013
-23.794	29.683	1273.598	1064.268
-22.779	29.715	1272.190	1063.233
-21.765	29.656	1271.773	1062.504
-20.750	29.719	1269.440	1060.874
-19.736	29.655	1267.622	1058.943
-18.721	29.659	1267.384	1058.729
-17.706	29.610	1265.870	1057.142
-16.692	29.651	1264.711	1056.366
-15.677	29.575	1264.012	1055.308
-14.663	29.688	1262.146	1054.350
-13.648	29.547	1261.412	1052.892
-12.633	29.577	1260.958	1052.642
-11.619	29.526	1259.766	1051.313
-10.604	29.583	1258.592	1050.619
-9.590	29.598	1257.768	1049.975
-8.575	29.592	1256.804	1049.093
-7.560	29.544	1256.175	1048.255
-6.546	29.568	1255.061	1047.415
-5.531	29.566	1253.916	1046.410
-4.517	29.627	1252.890	1045.858
-3.502	29.676	1252.084	1045.418
-2.487	29.659	1251.760	1045.010
-1.473	29.673	1247.775	1041.723
-0.458	28.376	1232.636	1021.812
0.556	23.183	1215.724	984.737
1.571	19.369	1222.408	968.684
2.586	18.558	1236.730	975.334
3.600	18.290	1225.696	965.035
4.615	13.552	1152.133	881.868
5.629	4.698	1076.151	779.441
6.644	0.502	1056.634	744.569
7.659	0.088	1054.135	740.701
8.673	0.086	1053.038	739.858
9.688	0.025	1051.778	738.607
10.702	0.368	1049.556	738.661
11.717	5.485	1057.192	769.175
12.731	14.011	1068.527	819.564
13.746	17.345	1071.600	838.310
14.761	16.937	1070.677	835.501
15.775	16.009	1068.257	828.975
16.790	15.014	1065.781	822.095
17.804	14.317	1064.780	817.827
18.819	13.905	1063.804	814.986
19.834	13.714	1062.631	813.079
20.848	13.302	1061.938	810.458
21.863	13.170	1060.781	808.855
22.877	13.028	1060.208	807.653
23.892	12.919	1059.625	806.607
24.907	13.013	1059.055	806.557
25.921	13.021	1058.372	806.005
26.936	13.072	1057.504	805.525
27.950	13.045	1056.374	804.460
28.965	13.186	1055.121	804.119
29.980	13.255	1053.696	803.300
30.994	13.276	1053.011	802.808
32.009	13.205	1051.889	801.537
33.023	13.251	1050.707	800.786
34.038	13.184	1049.748	799.663
35.053	13.068	1049.411	798.771
36.067	13.172	1048.338	798.387
37.082	13.223	1047.375	797.832
38.096	13.160	1046.957	797.135
39.111	13.335	1045.383	796.710
40.126	13.237	1044.606	795.577
41.140	12.973	1043.808	793.627
42.155	13.018	1042.543	792.813
43.169	13.021	1041.396	791.883
44.184	12.988	1040.402	790.901
45.199	12.918	1039.571	789.866
46.213	12.969	1038.443	789.181
47.228	13.198	1036.664	788.853
48.242	13.230	1035.692	788.197
49.257	13.023	1035.207	786.770
50.271	13.124	1033.954	786.228
51.286	13.147	1033.609	786.007
52.301	13.169	1032.034	784.842
53.315	13.145	1031.664	784.378
54.330	12.941	1030.562	782.506
55.344	13.152	1029.244	782.435
56.359	13.056	1028.578	781.405
57.374	13.119	1027.654	780.932
58.388	13.001	1027.233	779.984
59.403	13.061	1025.919	779.202
60.417	13.065	1024.932	778.403
61.432	12.953	1024.914	777.789
62.447	12.925	1023.761	776.714
63.461	12.809	1023.279	775.734
64.476	12.985	1022.069	775.574
65.490	12.897	1021.116	774.371
66.505	13.002	1020.837	774.584
67.520	12.890	1020.514	773.746
68.534	12.941	1019.531	773.170
69.549	12.980	1018.347	772.386
70.563	12.930	1017.804	771.671
71.578	12.899	1016.977	770.833
72.593	12.873	1016.153	770.019
73.607	12.872	1015.543	769.482
74.622	12.875	1014.865	768.914
75.636	12.835	1014.479	768.366
76.651	12.818	1013.803	767.710
77.666	12.896	1013.055	767.436
78.680	13.019	1011.840	767.022
79.695	12.933	1011.624	766.390
80.709	13.073	1010.781	766.334
81.724	13.013	1010.508	765.780
82.739	13.047	1009.473	765.084
83.753	13.096	1008.942	764.843
84.768	13.121	1008.200	764.325
85.782	13.276	1006.809	763.923
86.797	13.189	1005.916	762.777
87.812	13.088	1005.095	761.619
88.826	12.950	1004.458	760.433
89.841	13.153	1003.543	760.609
90.855	13.270	1002.290	760.129
91.870	13.178	1001.955	759.386
92.884	13.163	1000.683	758.282
93.899	13.249	999.934	758.044
94.914	13.359	999.434	758.102
95.928	13.172	998.775	756.678
96.943	13.167	997.916	755.936
97.957	13.196	996.981	755.298
98.972	13.206	995.823	754.395
99.987	13.302	994.735	753.946
101.001	13.147	994.297	752.839
102.016	13.217	993.304	752.340
103.030	13.181	992.575	751.557
104.045	13.202	992.184	751.289
105.060	13.211	990.964	750.340
106.074	13.109	990.158	749.202
107.089	13.078	989.227	748.291
108.103	13.127	988.277	747.729
109.118	13.113	986.876	746.538
110.133	12.946	986.745	745.616
111.147	13.213	985.657	745.933
112.162	13.129	984.932	744.940
113.176	13.175	984.480	744.739
114.191	13.235	983.613	744.289
115.206	13.174	983.087	743.550
116.220	13.166	982.080	742.688
117.235	13.194	980.922	741.872
118.249	13.136	980.381	741.138
119.264	13.061	979.872	740.351
120.279	12.988	979.153	739.414
121.293	13.150	977.506	738.830
122.308	13.019	977.167	737.920
123.322	12.963	976.405	737.029
124.337	13.070	975.098	736.457
125.352	13.168	973.530	735.643
126.366	13.018	973.037	734.538
127.381	13.099	971.834	733.927
128.395	13.125	971.016	733.359
129.410	13.195	970.133	732.938
130.424	13.105	969.504	731.996
131.439	13.184	968.657	731.643
132.454	13.176	967.830	730.918
133.468	13.092	967.342	730.113
134.483	13.141	966.368	729.529
135.497	13.103	965.617	728.730
136.512	13.283	963.990	728.231
137.527	13.198	963.308	727.277
138.541	13.221	962.853	726.972
139.556	13.208	961.689	725.971
140.570	13.232	961.280	725.705
141.585	13.273	960.335	725.105
142.600	13.387	959.613	724.998
143.614	13.313	958.500	723.767
144.629	13.409	958.023	723.765
145.643	13.400	957.036	722.916
146.658	13.344	955.894	721.745
147.673	13.289	955.235	720.942
148.687	13.312	954.478	720.408
149.702	13.310	953.400	719.520
150.716	13.252	952.731	718.701
151.731	13.334	951.900	718.368
152.746	13.243	951.553	717.645
153.760	13.333	950.825	717.424
154.775	13.413	950.071	717.136
155.789	13.360	949.814	716.649
156.804	13.394	949.151	716.234
157.819	13.387	948.312	715.507
158.833	13.525	947.417	715.363
159.848	13.470	946.957	714.716
160.862	13.603	945.378	714.035
161.877	13.485	944.616	712.887
162.892	13.402	943.681	711.765
163.906	13.436	942.877	711.238
164.921	13.421	942.106	710.531
165.935	13.476	941.247	710.054
166.950	13.544	940.285	709.557
167.964	13.440	939.628	708.556
168.979	13.443	938.692	707.801
169.994	13.444	937.937	707.174
171.008	13.440	937.745	706.947
172.023	13.521	936.940	706.621
173.037	13.665	935.642	706.197
174.052	13.509	935.207	705.138
175.067	13.403	934.401	704.018
176.081	13.458	934.167	704.014
177.096	13.544	933.689	703.960
178.110	13.366	932.919	702.559
179.125	13.521	932.256	702.654
180.140	13.481	931.900	702.155
181.154	13.635	930.941	702.024
182.169	13.662	930.603	701.821
183.183	13.656	930.455	701.619
184.198	13.663	929.464	700.842
185.213	13.714	928.285	700.104
186.227	13.771	927.615	699.779
187.242	13.909	927.116	699.920
188.256	13.800	926.799	699.163
189.271	13.788	925.880	698.357
190.286	13.660	925.351	697.359
191.300	13.695	924.598	696.876
192.315	13.517	923.990	695.606
193.329	13.617	923.288	695.438
194.344	13.657	922.660	695.070
195.359	13.656	922.165	694.632
196.373	13.736	921.256	694.221
197.388	13.827	920.936	694.298
198.402	13.795	920.581	693.836
199.417	13.971	919.550	693.732
200.432	14.026	919.068	693.538
201.446	14.011	918.694	693.129
202.461	14.052	918.262	692.914
203.475	14.050	917.698	692.417
204.490	13.939	916.936	691.319
205.504	13.975	915.993	690.697
206.519	13.895	915.631	690.029
207.534	13.938	915.007	689.679
208.548	13.848	914.663	688.983
209.563	14.028	913.647	688.904
210.577	14.096	912.754	688.452
211.592	14.127	911.922	687.893
212.607	14.105	911.585	687.486
213.621	14.010	910.907	686.523
214.636	14.115	910.053	686.251
215.650	14.187	909.058	685.735
216.665	14.187	908.350	685.140
217.680	14.316	907.607	685.051
218.694	14.316	906.942	684.489
219.709	14.333	906.529	684.186
220.723	14.156	905.867	682.900
221.738	14.100	905.133	682.056
222.753	14.181	904.643	681.957
223.767	14.352	903.738	681.913
224.782	14.400	903.320	681.734
225.796	14.242	903.150	680.899
226.811	14.405	902.323	680.883
227.826	14.262	901.737	679.797
228.840	14.273	900.962	679.200
229.855	14.245	899.973	678.279
230.869	14.278	899.328	677.867
231.884	14.241	898.498	677.029
232.899	14.314	897.610	676.596
233.913	14.308	897.250	676.243
234.928	14.195	896.885	675.450
235.942	14.226	896.498	675.222
236.957	14.299	895.820	674.950
237.972	14.357	894.941	674.459
238.986	14.281	894.028	673.407
240.001	14.201	893.871	672.906
241.015	14.303	893.224	672.769
242.030	14.418	892.593	672.698
243.045	14.361	891.950	671.927
244.059	14.492	891.448	672.015
245.074	14.490	890.402	671.160
246.088	14.542	889.906	670.934
247.103	14.496	889.261	670.207
248.117	14.559	889.078	670.261
249.132	14.550	888.543	669.762
250.147	14.641	887.898	669.583
251.161	14.638	886.860	668.727
252.176	14.740	886.140	668.533
253.190	14.846	885.668	668.543
254.205	14.862	884.960	668.012
255.220	14.682	884.429	666.834
256.234	14.852	883.795	666.977
257.249	14.902	882.938	666.470
258.263	14.879	882.081	665.671
259.278	14.926	881.460	665.333
260.293	14.903	881.080	664.894
261.307	14.978	880.432	664.645
262.322	15.061	879.445	664.170
263.336	14.990	879.061	663.539
264.351	15.035	878.528	663.257
265.366	15.088	877.703	662.785
266.380	14.980	877.384	662.058
267.395	14.903	876.729	661.202
268.409	15.098	875.423	660.928
269.424	15.064	874.586	660.104
270.439	15.009	874.199	659.536
271.453	15.029	873.802	659.257
272.468	15.013	873.229	658.702
273.482	14.871	872.947	657.873
274.497	15.015	872.224	657.836
275.512	15.103	871.314	657.439
276.526	15.098	870.749	656.935
277.541	15.089	870.797	656.875
278.555	15.198	869.942	656.598
279.570	15.144	869.110	655.703
280.585	15.294	867.790	655.236
281.599	15.164	867.612	654.537
282.614	15.196	867.020	654.157
283.628	15.228	866.121	653.545
284.643	15.147	865.645	652.810
285.657	15.184	865.328	652.658
286.672	15.292	864.449	652.359
287.687	15.235	864.240	651.922
288.701	15.270	863.797	651.664
289.716	15.373	863.036	651.432
290.730	15.302	862.620	650.785
291.745	15.208	861.834	649.772
292.760	15.389	861.167	649.911
293.774	15.260	860.677	648.987
294.789	15.465	859.672	648.961
295.803	15.485	859.088	648.543
296.818	15.407	858.298	647.586
297.833	15.389	858.038	647.262
298.847	15.442	857.353	646.895
299.862	15.511	856.915	646.774
300.876	15.351	856.657	645.903
301.891	15.565	855.704	645.952
302.906	15.501	855.396	645.414
303.920	15.638	854.721	645.375
304.935	15.714	854.011	645.076
305.949	15.600	853.657	644.311
306.964	15.674	852.638	643.770
307.979	15.639	852.069	643.149
308.993	15.620	851.790	642.810
310.008	15.730	851.114	642.662
311.022	15.782	850.506	642.344
312.037	15.598	849.812	641.063
313.052	15.404	849.668	640.157
314.066	15.588	849.220	640.463
315.081	15.582	848.729	640.016
316.095	15.740	847.845	639.891
317.110	15.605	846.808	638.538
318.125	15.733	846.553	638.776
319.139	15.621	846.119	637.966
320.154	15.869	845.304	638.236
321.168	15.654	845.488	637.504
322.183	15.668	844.549	636.792
323.197	15.681	844.379	636.656
324.212	15.745	843.662	636.304
325.227	15.702	843.310	635.818
326.241	15.762	842.532	635.401
327.256	15.856	841.494	634.919
328.270	15.829	841.171	634.516
329.285	15.902	840.387	634.144
330.300	15.660	840.157	633.002
331.314	15.870	839.838	633.498
332.329	15.814	839.135	632.700
333.343	15.943	838.560	632.694
334.358	15.883	838.413	632.301
335.373	15.872	837.713	631.677
336.387	15.934	837.711	631.853
337.402	16.004	837.429	631.848
338.416	16.014	837.173	631.637
339.431	15.984	836.834	631.212
340.446	15.991	836.238	630.730
341.460	16.054	835.731	630.530
342.475	16.137	835.316	630.471
343.489	16.117	834.705	629.879
344.504	16.264	834.031	629.864
345.519	16.250	833.994	629.726
346.533	16.301	832.846	628.994
347.548	16.163	832.667	628.290
348.562	16.226	832.266	628.166
349.577	16.183	831.775	627.581
350.592	16.258	830.866	627.118
351.606	16.299	829.749	626.372
352.621	16.288	829.622	626.181
353.635	16.233	829.025	625.470
354.650	16.143	828.649	624.796
355.665	16.203	827.914	624.409
356.679	16.295	827.275	624.214
357.694	16.271	826.888	623.778
358.708	16.182	826.195	622.869
359.723	16.316	825.443	622.742
360.738	16.307	824.781	622.155
361.752	16.454	824.063	622.099
362.767	16.439	823.646	621.674
363.781	16.448	823.315	621.402
364.796	16.573	822.736	621.369
365.810	16.666	822.223	621.269
366.825	16.438	822.141	620.314
367.840	16.612	821.526	620.433
368.854	16.531	821.208	619.843
369.869	16.506	820.828	619.408
370.883	16.604	820.264	619.286
371.898	16.609	820.151	619.165
372.913	16.566	819.606	618.540
373.927	16.623	818.911	618.170
374.942	16.661	818.446	617.903
375.956	16.626	818.001	617.385
376.971	16.787	817.643	617.648
377.986	16.720	817.039	616.892
379.000	16.815	816.567	616.829
380.015	16.762	816.078	616.212
381.029	16.790	815.409	615.753
382.044	16.873	814.987	615.682
383.059	16.893	814.341	615.209
384.073	16.888	813.970	614.857
385.088	16.790	813.151	613.831
386.102	16.812	812.890	613.658
387.117	16.769	812.211	612.935
388.132	16.811	811.447	612.457
389.146	16.827	811.251	612.312
390.161	17.012	810.815	612.598
391.175	16.941	810.095	611.745
392.190	16.859	809.529	610.967
393.205	16.874	809.267	610.769
394.219	16.997	808.742	610.762
395.234	17.015	808.549	610.627
396.248	16.782	808.362	609.592
397.263	16.734	807.477	608.699
398.278	16.914	807.179	609.067
399.292	16.909	806.754	608.675
400.307	16.794	806.773	608.223
401.321	16.969	806.041	608.242
402.336	16.897	805.550	607.563
403.350	16.933	805.106	607.302
404.365	17.024	804.665	607.242
405.380	16.985	804.231	606.720
406.394	17.274	803.151	606.882
407.409	17.052	803.115	606.008
408.423	17.164	802.764	606.090
409.438	17.197	802.273	605.782
410.453	17.359	801.752	605.914
411.467	17.282	801.602	605.474
412.482	17.332	800.964	605.115
413.496	17.282	800.650	604.647
414.511	17.512	800.021	604.937
415.526	17.396	799.818	604.316
416.540	17.297	799.551	603.710
417.555	17.261	799.237	603.292
418.569	17.410	798.627	603.308
419.584	17.307	798.349	602.679
420.599	17.183	798.194	602.067
421.613	108.728	1291.111	1466.904
422.628	93.508	1362.906	1467.030
