DTS Sentinel unit serial number:	SN413079Multiplexer serial number:	ORYXHardware model number:	OX4-SRSoftware version number:	ORYX F/W v4.00 Oryx Data Collector v3.7.2.0data status	okinstallation	princeton_trtdifferential loss correction	single-endedforward channel	channel 1reverse channel	N/Adate	2019/09/15time	02:34:35forward acquisition time	60.00reverse acquisition time	0.00gamma	496.2192k internal	0.2323k external	0.2323temperature offset calibration	0.9983default loss term (dB/km)	0.3790temperature slope calibration	1.0000multiplexer offset coefficient	1.0000multiplexer slope coefficient	1.0000fibre end	0.00T internal ref (°C)	31.50T ext. ref 1 (°C)	4.57T ext. ref 2 (°C)	25.85length (m)	temperature (°C)	Stokes	anti-Stokes-747.200	-111.857	0.324	-0.066
-746.185	0.761	0.287	0.208
-745.171	-200.000	-0.058	0.301
-744.156	-84.415	-0.217	0.069
-743.142	-200.000	0.017	-0.095
-742.127	-200.000	0.048	0.329
-741.112	24.277	0.154	-0.128
-740.098	637.360	-0.077	0.198
-739.083	-26.566	-0.218	0.129
-738.069	-107.507	-0.223	0.049
-737.054	96.908	-0.203	-0.235
-736.039	412.110	-0.032	0.069
-735.025	800.000	-0.054	-0.172
-734.010	544.040	-0.114	-0.274
-732.996	15.079	-0.160	-0.127
-731.981	60.302	0.170	-0.169
-730.966	76.339	-0.182	-0.194
-729.952	590.721	-0.140	-0.349
-728.937	-56.113	-0.055	0.025
-727.923	800.000	0.069	0.229
-726.908	-113.957	-0.086	-0.017
-725.894	-200.000	0.039	-0.603
-724.879	731.867	0.029	0.080
-723.864	-117.738	0.443	-0.080
-722.850	95.254	0.084	0.096
-721.835	70.222	-0.133	0.138
-720.821	-91.579	-0.201	-0.058
-719.806	-84.981	-0.359	-0.114
-718.791	133.989	0.308	-0.402
-717.777	528.312	0.102	-0.242
-716.762	-84.811	-0.107	-0.034
-715.748	140.458	-0.244	-0.325
-714.733	-200.000	0.018	-0.404
-713.718	41.199	-0.320	-0.292
-712.704	-18.516	0.124	0.078
-711.689	372.395	0.044	-0.091
-710.675	419.855	0.104	0.225
-709.660	55.428	-0.159	-0.156
-708.645	-63.396	0.167	0.069
-707.631	-91.064	0.376	0.109
-706.616	800.000	-0.039	-0.123
-705.602	-109.366	-0.286	0.061
-704.587	276.464	-0.018	-0.031
-703.572	-200.000	0.045	-0.290
-702.558	166.685	-0.092	0.132
-701.543	-190.601	-0.147	0.002
-700.529	-87.455	0.312	-0.095
-699.514	-22.674	-0.162	0.099
-698.499	-72.380	-0.062	-0.023
-697.485	-200.000	0.029	0.130
-696.470	-106.616	0.130	0.029
-695.456	-101.821	-0.115	-0.028
-694.441	366.094	0.050	0.101
-693.426	158.152	0.226	-0.316
-692.412	-66.177	-0.326	-0.131
-691.397	-98.040	0.139	0.036
-690.383	-17.294	0.262	0.166
-689.368	290.959	0.092	-0.169
-688.354	32.188	0.051	-0.044
-687.339	-58.703	-0.160	-0.070
-686.324	460.815	0.178	-0.399
-685.310	736.779	0.039	-0.105
-684.295	455.466	-0.032	0.072
-683.281	-200.000	-0.022	-0.228
-682.266	190.090	0.115	0.175
-681.251	18.869	0.214	0.173
-680.237	-11.389	-0.170	-0.113
-679.222	-106.671	-0.420	0.094
-678.208	-43.137	0.174	0.089
-677.193	-135.863	-0.108	-0.013
-676.178	800.000	0.101	-0.321
-675.164	144.250	0.200	-0.269
-674.149	22.399	-0.278	0.229
-673.135	800.000	0.040	-0.173
-672.120	244.501	-0.046	-0.077
-671.105	-200.000	-0.045	-0.296
-670.091	-114.100	-0.206	0.040
-669.076	437.109	-0.057	-0.124
-668.062	262.831	0.105	-0.184
-667.047	-200.000	0.005	-0.263
-666.032	226.248	0.390	-0.636
-665.018	30.842	-0.139	-0.120
-664.003	-124.848	-0.068	-0.011
-662.989	147.018	-0.181	-0.245
-661.974	245.201	-0.056	-0.095
-660.959	-23.137	-0.079	0.048
-659.945	-200.000	-0.068	-0.370
-658.930	-200.000	-0.003	-0.244
-657.916	52.814	-0.183	0.176
-656.901	304.412	-0.034	-0.063
-655.886	800.000	0.077	0.313
-654.872	482.084	-0.198	-0.454
-653.857	-13.280	-0.209	-0.136
-652.843	-44.017	0.060	0.030
-651.828	-174.879	0.099	0.003
-650.814	-95.809	0.174	-0.047
-649.799	800.000	0.043	-0.187
-648.784	-138.285	0.046	0.005
-647.770	-12.145	-0.381	-0.251
-646.755	-200.000	-0.049	-0.273
-645.741	-200.000	-0.116	0.640
-644.726	91.457	-0.236	0.266
-643.711	376.575	-0.053	0.109
-642.697	-132.057	-0.397	-0.052
-641.682	330.053	-0.078	0.152
-640.668	-164.068	-0.125	-0.006
-639.653	37.525	0.170	-0.152
-638.638	79.463	0.152	-0.163
-637.624	54.424	0.045	-0.044
-636.609	-93.343	0.213	0.059
-635.595	36.097	-0.177	-0.156
-634.580	33.117	-0.127	-0.111
-633.565	-153.210	-0.238	0.017
-632.551	5.290	0.023	-0.017
-631.536	-60.593	0.105	-0.045
-630.522	22.507	-0.153	-0.126
-629.507	183.464	-0.042	-0.063
-628.492	-200.000	-0.021	-0.233
-627.478	-200.000	0.031	0.141
-626.463	800.000	-0.062	-0.226
-625.449	-121.961	-0.402	-0.066
-624.434	4.005	-0.260	-0.191
-623.419	-112.248	-0.185	-0.037
-622.405	-200.000	-0.028	0.245
-621.390	-29.806	0.170	0.097
-620.376	257.001	0.113	-0.195
-619.361	103.843	0.170	0.201
-618.346	19.689	-0.196	0.158
-617.332	-200.000	-0.118	-0.000
-616.317	-200.000	-0.027	0.212
-615.303	-82.342	-0.073	0.024
-614.288	-66.153	-0.201	-0.080
-613.273	342.736	-0.138	0.271
-612.259	-121.599	0.023	-0.004
-611.244	-164.388	0.110	-0.005
-610.230	-200.000	0.013	0.092
-609.215	59.000	0.267	-0.264
-608.201	139.616	0.036	-0.047
-607.186	-88.973	0.103	0.031
-606.171	-39.222	-0.192	-0.101
-605.157	-117.231	-0.250	0.046
-604.142	185.431	0.088	0.131
-603.128	-76.232	-0.041	0.015
-602.113	-200.000	-0.063	-0.390
-601.098	80.281	0.026	0.028
-600.084	-82.698	-0.162	-0.053
-599.069	27.254	0.102	0.086
-598.055	-78.049	0.131	-0.045
-597.040	-150.045	0.258	-0.020
-596.025	-59.464	-0.232	-0.100
-595.011	-200.000	0.006	0.110
-593.996	624.581	0.008	-0.019
-592.982	47.941	0.045	0.042
-591.967	-119.316	-0.392	0.069
-590.952	-178.791	-0.304	0.007
-589.938	308.918	-0.117	0.220
-588.923	-144.384	0.486	-0.045
-587.909	211.092	0.077	0.122
-586.894	-77.467	-0.135	-0.047
-585.879	-200.000	0.023	0.117
-584.865	105.022	0.048	0.057
-583.850	-58.140	-0.319	-0.140
-582.836	800.000	-0.071	0.227
-581.821	94.080	-0.118	-0.135
-580.806	-192.853	-0.194	0.002
-579.792	-180.674	-0.113	0.002
-578.777	-200.000	-0.028	-0.153
-577.763	-200.000	0.076	-0.372
-576.748	-162.388	0.131	-0.007
-575.733	-151.712	0.126	0.009
-574.719	-34.174	0.061	0.034
-573.704	202.514	-0.046	0.071
-572.690	400.494	0.051	-0.108
-571.675	-59.590	0.076	-0.033
-570.661	-100.441	-0.386	0.096
-569.646	-149.754	0.330	-0.026
-568.631	-76.221	-0.115	0.041
-567.617	-6.352	-0.203	-0.139
-566.602	800.000	0.009	-0.036
-565.588	-48.451	-0.110	-0.053
-564.573	-97.511	0.210	-0.055
-563.558	1.971	0.190	0.137
-562.544	98.749	0.181	-0.209
-561.529	195.251	-0.075	-0.114
-560.515	-200.000	-0.001	0.007
-559.500	39.797	0.053	-0.047
-558.485	-140.397	-0.224	0.023
-557.471	-49.978	-0.159	0.076
-556.456	-98.022	0.197	0.051
-555.442	-78.288	0.404	0.139
-554.427	71.816	-0.280	0.291
-553.412	800.000	0.048	-0.151
-552.398	-98.456	0.142	-0.036
-551.383	248.545	0.144	-0.244
-550.369	800.000	-0.026	0.094
-549.354	-130.120	0.142	0.019
-548.339	-67.612	-0.188	0.074
-547.325	-200.000	0.060	-0.443
-546.310	-189.589	0.409	0.005
-545.296	800.000	0.043	-0.188
-544.281	119.326	0.084	-0.104
-543.266	800.000	0.018	0.057
-542.252	-67.291	0.143	0.057
-541.237	-19.039	0.060	-0.037
-540.223	-56.500	-0.185	0.082
-539.208	666.914	0.030	0.078
-538.193	-80.567	-0.106	-0.035
-537.179	394.654	0.149	0.311
-536.164	130.585	0.200	0.257
-535.150	800.000	0.051	-0.162
-534.135	100.660	0.071	-0.083
-533.121	800.000	-0.069	0.247
-532.106	49.950	-0.189	0.179
-531.091	240.434	0.202	0.337
-530.077	191.660	0.137	0.206
-529.062	-200.000	0.034	0.256
-528.048	96.003	-0.132	0.152
-527.033	-200.000	-0.023	0.168
-526.018	-18.825	0.019	0.012
-525.004	69.911	0.188	-0.194
-523.989	800.000	0.031	0.095
-522.975	800.000	-0.081	0.325
-521.960	79.675	-0.120	-0.129
-520.945	117.144	0.033	0.040
-519.931	-200.000	-0.011	-0.110
-518.916	-200.000	-0.027	-0.234
-517.902	800.000	0.103	-0.382
-516.887	-15.503	0.161	-0.103
-515.872	104.341	-0.052	0.061
-514.858	-84.809	0.211	0.066
-513.843	800.000	-0.038	0.145
-512.829	99.174	0.124	0.143
-511.814	-35.276	-0.168	0.091
-510.799	-45.795	-0.286	0.141
-509.785	-73.819	-0.195	-0.071
-508.770	481.991	-0.085	0.194
-507.756	-85.080	-0.123	0.038
-506.741	-76.357	0.200	0.070
-505.726	-56.942	-0.203	0.090
-504.712	242.242	-0.093	-0.156
-503.697	697.719	0.052	-0.138
-502.683	79.004	0.122	-0.131
-501.668	-200.000	0.031	-0.158
-500.653	-46.747	-0.077	0.038
-499.639	-28.285	0.247	-0.143
-498.624	84.758	-0.096	0.105
-497.610	-165.156	-0.309	-0.014
-496.595	-200.000	0.045	-0.423
-495.581	-200.000	0.011	0.108
-494.566	-3.405	0.324	-0.225
-493.551	565.214	-0.066	-0.159
-492.537	-141.993	0.038	0.004
-491.522	226.361	0.053	0.086
-490.508	-83.166	-0.060	-0.019
-489.493	152.106	0.079	-0.108
-488.478	-40.587	0.174	-0.090
-487.464	-25.629	-0.490	0.289
-486.449	-131.388	0.092	0.012
-485.435	-100.981	-0.105	-0.026
-484.420	79.574	-0.183	0.196
-483.405	-103.432	0.196	-0.046
-482.391	92.172	0.158	-0.178
-481.376	82.107	0.116	-0.126
-480.362	-24.876	0.209	-0.124
-479.347	800.000	0.121	-0.344
-478.332	-113.170	-0.257	0.051
-477.318	454.121	-0.068	0.150
-476.303	72.606	0.143	0.149
-475.289	-200.000	-0.028	-0.256
-474.274	-200.000	0.062	0.303
-473.259	228.040	0.153	-0.249
-472.245	-200.000	-0.001	0.049
-471.230	646.271	0.126	-0.322
-470.216	800.000	-0.050	-0.169
-469.201	-200.000	0.007	-0.288
-468.186	11.077	0.294	-0.225
-467.172	19.987	0.296	-0.239
-466.157	800.000	0.077	0.222
-465.143	768.497	-0.066	-0.180
-464.128	417.028	0.170	-0.362
-463.113	166.669	0.145	-0.205
-462.099	-36.881	0.128	0.068
-461.084	-200.000	0.031	0.166
-460.070	-0.193	-0.114	-0.081
-459.055	353.486	-0.140	0.278
-458.040	-44.377	-0.335	0.167
-457.026	190.264	-0.063	0.094
-456.011	-200.000	-0.040	-0.211
-454.997	60.691	-0.149	0.147
-453.982	22.171	-0.090	0.074
-452.968	800.000	-0.063	-0.245
-451.953	389.335	0.025	-0.052
-450.938	75.088	0.175	-0.184
-449.924	-51.380	-0.462	0.216
-448.909	-200.000	-0.018	0.147
-447.895	-13.851	-0.315	-0.204
-446.880	-154.923	-0.027	0.002
-445.865	485.970	0.072	0.163
-444.851	-85.899	-0.147	0.046
-443.836	120.989	0.128	0.158
-442.822	-45.695	0.246	-0.121
-441.807	-2.296	-0.298	0.209
-440.792	-37.166	0.206	0.110
-439.778	800.000	0.072	0.277
-438.763	25.017	-0.074	-0.062
-437.749	-30.103	0.062	-0.035
-436.734	800.000	0.108	-0.418
-435.719	-200.000	-0.031	0.208
-434.705	-116.915	0.278	0.051
-433.690	800.000	0.022	-0.068
-432.676	293.606	-0.203	0.370
-431.661	337.302	-0.069	0.134
-430.646	-110.456	-0.031	0.006
-429.632	47.460	-0.109	0.101
-428.617	-108.552	-0.493	0.106
-427.603	800.000	0.062	0.263
-426.588	-52.497	-0.098	-0.045
-425.573	-138.245	-0.114	0.013
-424.559	-83.389	-0.033	-0.011
-423.544	91.835	0.175	0.196
-422.530	-102.920	-0.234	-0.056
-421.515	202.474	-0.197	-0.303
-420.500	-200.000	0.020	-0.159
-419.486	-200.000	-0.013	-0.309
-418.471	-143.529	0.176	0.017
-417.457	-191.261	0.214	0.002
-416.442	41.252	0.090	0.081
-415.428	750.014	-0.095	0.257
-414.413	-38.097	0.337	-0.178
-413.398	-200.000	0.011	-0.160
-412.384	-82.101	-0.249	0.081
-411.369	-134.299	-0.227	0.028
-410.355	109.443	0.035	-0.042
-409.340	800.000	-0.023	0.097
-408.325	-151.586	-0.167	0.012
-407.311	-135.504	0.237	0.028
-406.296	-66.938	0.106	-0.042
-405.282	755.707	0.102	0.276
-404.267	-131.933	0.280	0.036
-403.252	-17.269	-0.114	-0.072
-402.238	6.245	-0.230	-0.170
-401.223	-200.000	-0.002	-0.025
-400.209	100.239	0.024	0.028
-399.194	-0.971	0.174	0.123
-398.179	800.000	0.057	0.176
-397.165	800.000	-0.095	0.284
-396.150	109.471	-0.049	-0.058
-395.136	1.023	-0.096	-0.069
-394.121	-131.984	0.169	-0.022
-393.106	332.579	-0.104	0.200
-392.092	433.375	0.111	0.239
-391.077	-200.000	0.059	-0.342
-390.063	-157.769	-0.146	-0.009
-389.048	-93.167	0.265	0.073
-388.033	-200.000	-0.033	0.353
-387.019	800.000	0.065	0.275
-386.004	283.239	-0.124	-0.222
-384.990	800.000	-0.048	0.135
-383.975	363.935	-0.077	0.154
-382.960	-34.855	-0.126	0.069
-381.946	-200.000	0.026	-0.147
-380.931	-84.150	-0.131	-0.041
-379.917	-28.581	-0.091	-0.052
-378.902	194.553	0.143	0.215
-377.888	41.164	0.023	-0.021
-376.873	800.000	0.089	-0.369
-375.858	-63.072	-0.202	-0.083
-374.844	-101.344	-0.211	-0.051
-373.829	-106.364	0.385	-0.086
-372.815	800.000	0.064	0.200
-371.800	200.605	0.186	0.285
-370.785	-200.000	0.023	0.225
-369.771	-37.237	0.165	-0.088
-368.756	-17.734	-0.254	-0.158
-367.742	800.000	0.060	-0.258
-366.727	-64.403	-0.103	0.042
-365.712	234.424	0.166	0.273
-364.698	-156.362	-0.111	0.007
-363.683	-200.000	-0.020	0.106
-362.669	-26.429	0.330	-0.193
-361.654	-200.000	-0.011	-0.396
-360.639	800.000	-0.071	0.275
-359.625	39.291	-0.213	0.190
-358.610	800.000	0.043	-0.175
-357.596	155.439	-0.026	-0.035
-356.581	-200.000	-0.036	0.164
-355.566	457.675	0.100	-0.220
-354.552	92.530	0.251	0.281
-353.537	-161.729	-0.167	-0.008
-352.523	800.000	-0.008	0.027
-351.508	43.753	-0.294	0.267
-350.493	682.953	-0.106	-0.275
-349.479	-65.651	0.284	-0.113
-348.464	-83.152	0.051	-0.016
-347.450	-65.463	-0.124	0.050
-346.435	-11.385	0.209	-0.137
-345.420	-200.000	-0.016	0.234
-344.406	800.000	0.033	0.144
-343.391	-116.725	0.359	-0.066
-342.377	800.000	0.021	0.090
-341.362	114.744	-0.159	-0.193
-340.348	-53.411	-0.247	-0.112
-339.333	374.763	-0.037	0.074
-338.318	81.276	0.091	-0.098
-337.304	695.721	0.031	0.081
-336.289	-39.894	0.341	-0.177
-335.275	157.696	-0.172	-0.236
-334.260	348.475	-0.048	-0.094
-333.245	46.884	0.279	0.258
-332.231	-61.923	-0.426	-0.177
-331.216	-77.695	-0.212	-0.073
-330.202	-200.000	0.001	-0.316
-329.187	-106.493	0.261	-0.058
-328.172	-200.000	0.013	-0.199
-327.158	-200.000	-0.008	0.081
-326.143	44.035	0.134	-0.122
-325.129	100.508	-0.074	-0.085
-324.114	348.475	0.089	-0.174
-323.099	800.000	-0.073	0.202
-322.085	65.397	0.144	0.144
-321.070	800.000	0.033	-0.098
-320.056	72.995	0.109	0.113
-319.041	-42.833	-0.428	-0.216
-318.026	-56.705	-0.087	-0.038
-317.012	-22.708	0.152	0.091
-315.997	-32.598	0.277	-0.153
-314.983	43.741	0.241	0.219
-313.968	55.820	0.138	-0.132
-312.953	-200.000	0.057	0.268
-311.939	-96.110	0.235	-0.062
-310.924	-61.307	0.472	0.198
-309.910	-141.256	0.058	-0.006
-308.895	-200.000	-0.066	0.302
-307.880	73.676	0.147	0.153
-306.866	-200.000	-0.024	0.314
-305.851	78.774	-0.224	0.238
-304.837	800.000	-0.097	0.322
-303.822	-61.496	-0.305	-0.127
-302.807	-47.582	-0.219	-0.106
-301.793	-52.405	0.273	0.125
-300.778	-200.000	0.024	0.424
-299.764	451.920	-0.031	-0.067
-298.749	296.564	0.166	0.302
-297.735	336.293	-0.059	0.114
-296.720	-200.000	0.002	-0.103
-295.705	368.737	0.076	-0.152
-294.691	744.000	0.067	-0.179
-293.676	-61.529	0.179	-0.074
-292.662	141.177	0.268	-0.352
-291.647	-200.000	0.046	-0.225
-290.632	2.916	-0.253	-0.182
-289.618	-47.106	0.339	0.164
-288.603	290.651	0.093	0.167
-287.589	-121.240	0.221	-0.037
-286.574	800.000	0.023	-0.070
-285.559	-147.244	0.040	0.003
-284.545	-200.000	0.023	0.184
-283.530	-200.000	0.026	-0.259
-282.516	165.381	-0.091	0.127
-281.501	276.786	0.114	0.201
-280.486	127.222	-0.205	-0.258
-279.472	99.932	-0.122	0.140
-278.457	1.054	-0.435	0.309
-277.443	-200.000	0.021	-0.181
-276.428	-115.647	-0.106	0.020
-275.413	293.435	-0.082	0.149
-274.399	-200.000	0.040	-0.183
-273.384	-2.399	0.088	0.061
-272.370	-136.658	-0.159	-0.018
-271.355	-50.291	-0.267	0.125
-270.340	-134.406	-0.095	0.012
-269.326	-154.883	-0.421	0.028
-268.311	171.495	-0.020	-0.029
-267.297	70.241	0.249	0.254
-266.282	-200.000	0.048	0.237
-265.267	220.226	-0.111	-0.176
-264.253	-200.000	-0.020	-0.131
-263.238	-18.897	-0.424	-0.261
-262.224	-200.000	-0.001	-0.067
-261.209	51.419	0.314	0.295
-260.195	52.030	0.102	0.097
-259.180	-17.942	0.193	0.120
-258.165	-63.049	0.091	-0.037
-257.151	23.026	0.174	0.141
-256.136	-200.000	-0.016	0.287
-255.122	41.682	-0.068	-0.061
-254.107	-34.593	-0.263	-0.143
-253.092	-200.000	0.046	-0.210
-252.078	30.926	0.209	-0.177
-251.063	-86.001	-0.277	0.085
-250.049	-87.897	0.082	-0.024
-249.034	-200.000	0.029	0.145
-248.019	125.358	0.125	0.156
-247.005	266.950	-0.185	0.320
-245.990	-200.000	0.033	0.283
-244.976	-41.949	-0.136	-0.069
-243.961	153.854	0.316	0.429
-242.946	-200.000	-0.025	0.163
-241.932	705.316	0.072	0.187
-240.917	-57.294	0.253	-0.110
-239.903	29.083	-0.295	0.248
-238.888	-53.937	-0.305	-0.138
-237.873	-192.905	0.150	-0.001
-236.859	-132.945	-0.107	0.013
-235.844	114.730	0.099	-0.119
-234.830	800.000	0.077	-0.255
-233.815	-33.066	-0.082	0.045
-232.800	800.000	0.119	0.377
-231.786	-200.000	0.047	0.706
-230.771	-95.857	0.194	-0.051
-229.757	-142.220	0.155	-0.015
-228.742	-114.751	-0.444	0.084
-227.727	90.715	-0.215	-0.239
-226.713	-94.298	0.202	-0.055
-225.698	-59.000	0.258	0.110
-224.684	-88.143	-0.147	0.044
-223.669	800.000	0.065	-0.267
-222.655	-50.650	0.180	-0.084
-221.640	-200.000	-0.014	0.179
-220.625	800.000	-0.096	-0.302
-219.611	581.390	0.159	-0.386
-218.596	-10.320	0.160	-0.105
-217.582	-200.000	-0.025	-0.160
-216.567	28.591	-0.384	0.321
-215.552	333.608	0.072	-0.138
-214.538	20.230	-0.127	-0.101
-213.523	44.621	0.133	-0.121
-212.509	-167.312	0.109	-0.004
-211.494	343.008	0.160	-0.310
-210.479	60.037	0.213	-0.208
-209.465	-36.551	0.369	-0.197
-208.450	-95.075	-0.207	-0.055
-207.436	-75.315	-0.392	-0.138
-206.421	-18.364	-0.105	0.065
-205.406	18.242	-0.156	0.123
-204.392	-57.511	-0.091	0.039
-203.377	-200.000	0.038	-0.232
-202.363	683.543	0.141	-0.365
-201.348	-171.533	0.398	0.013
-200.333	-200.000	-0.004	0.231
-199.319	800.000	0.017	-0.062
-198.304	636.755	-0.055	0.138
-197.290	-36.660	0.212	0.112
-196.275	-54.734	-0.252	0.113
-195.260	-95.921	-0.195	0.051
-194.246	7.753	-0.243	-0.180
-193.231	-103.769	-0.204	0.047
-192.217	-136.114	0.155	0.018
-191.202	-200.000	-0.002	-0.115
-190.187	-109.422	0.091	0.019
-189.173	-200.000	0.001	-0.253
-188.158	800.000	0.144	0.564
-187.144	800.000	-0.104	0.292
-186.129	-94.745	0.084	-0.023
-185.114	400.692	-0.061	0.127
-184.100	140.199	-0.076	-0.100
-183.085	-200.000	-0.041	-0.317
-182.071	-33.513	0.233	-0.127
-181.056	55.074	-0.050	-0.048
-180.042	800.000	0.040	0.141
-179.027	800.000	0.052	0.168
-178.012	-200.000	0.025	0.217
-176.998	-81.287	0.108	-0.035
-175.983	-145.627	-0.241	0.021
-174.969	-200.000	-0.003	-0.189
-173.954	-88.236	0.251	-0.074
-172.939	259.118	0.203	-0.345
-171.925	449.225	0.098	-0.213
-170.910	-86.255	-0.249	-0.076
-169.896	-12.054	0.221	-0.143
-168.881	-182.360	0.187	-0.003
-167.866	146.451	-0.183	-0.242
-166.852	800.000	0.076	-0.296
-165.837	-39.322	-0.145	0.075
-164.823	723.663	-0.094	-0.248
-163.808	-121.993	-0.098	-0.016
-162.793	-138.869	0.319	0.034
-161.779	-135.195	0.308	-0.037
-160.764	65.542	-0.069	-0.069
-159.750	-114.243	0.057	-0.011
-158.735	-130.696	-0.246	-0.033
-157.720	588.581	-0.031	-0.076
-156.706	52.912	0.092	-0.086
-155.691	800.000	-0.070	0.293
-154.677	128.701	-0.114	0.143
-153.662	5.713	-0.222	-0.162
-152.647	241.068	-0.129	-0.213
-151.633	21.467	0.205	0.165
-150.618	231.471	-0.044	0.071
-149.604	468.616	-0.099	0.220
-148.589	-145.723	0.149	-0.013
-147.574	-100.592	-0.200	-0.049
-146.560	-38.161	0.145	0.076
-145.545	-200.000	-0.019	-0.116
-144.531	18.180	-0.279	-0.220
-143.516	201.147	-0.189	-0.287
-142.502	449.558	-0.069	0.150
-141.487	53.695	-0.265	-0.251
-140.472	566.470	-0.160	0.382
-139.458	-87.698	0.210	0.062
-138.443	800.000	0.122	-0.364
-137.429	144.175	-0.157	-0.206
-136.414	757.306	0.124	0.331
-135.399	-200.000	0.004	0.040
-134.385	583.618	0.150	-0.363
-133.370	800.000	0.063	0.176
-132.356	-200.000	0.079	0.394
-131.341	-200.000	0.032	-0.429
-130.326	-122.836	-0.450	-0.072
-129.312	800.000	-0.035	-0.120
-128.297	4.569	0.303	0.219
-127.283	-200.000	-0.017	0.156
-126.268	-200.000	-0.010	-0.091
-125.253	562.117	-0.146	-0.347
-124.239	587.760	-0.016	-0.039
-123.224	298.403	-0.100	-0.182
-122.210	-9.992	-0.178	0.116
-121.195	-108.487	-0.180	-0.038
-120.180	174.328	-0.114	-0.163
-119.166	-122.935	-0.333	0.053
-118.151	392.740	-0.067	0.136
-117.137	-97.375	0.158	0.040
-116.122	151.182	-0.178	-0.238
-115.107	532.076	0.162	-0.378
-114.093	-121.687	0.262	-0.043
-113.078	-126.143	0.213	0.031
-112.064	299.558	-0.125	-0.227
-111.049	-52.760	-0.239	-0.109
-110.034	800.000	0.070	0.217
-109.020	-14.310	0.197	0.125
-108.005	-106.097	0.324	-0.072
-106.991	-200.000	0.014	-0.146
-105.976	-84.863	0.344	0.107
-104.962	800.000	0.016	-0.045
-103.947	-18.783	-0.150	-0.092
-102.932	-121.216	-0.385	-0.063
-101.918	-22.288	-0.063	0.038
-100.903	179.430	-0.043	-0.062
-99.889	-82.077	-0.433	-0.139
-98.874	-200.000	-0.029	0.155
-97.859	-200.000	0.190	0.000
-96.845	36.226	-0.108	0.094
-95.830	182.690	0.158	0.229
-94.816	-42.946	0.067	-0.034
-93.801	-78.686	-0.151	-0.051
-92.786	95.665	0.091	0.103
-91.772	-163.221	-0.076	-0.004
-90.757	-164.379	-0.120	-0.005
-89.743	346.648	0.207	0.401
-88.728	800.000	-0.041	0.119
-87.713	-140.422	0.064	-0.007
-86.699	177.405	0.190	-0.272
-85.684	315.945	-0.050	0.092
-84.670	800.000	0.021	-0.081
-83.655	83.863	-0.286	0.307
-82.640	-193.055	0.333	0.003
-81.626	-200.000	0.112	0.633
-80.611	35.834	0.203	-0.176
-79.597	245.767	-0.121	-0.200
-78.582	172.384	-0.169	-0.239
-77.567	-78.526	0.280	0.094
-76.553	800.000	-0.070	0.290
-75.538	-200.000	-0.002	-0.301
-74.524	-200.000	-0.010	-0.047
-73.509	-67.149	-0.235	-0.091
-72.494	-200.000	0.054	-0.404
-71.480	242.358	-0.171	-0.282
-70.465	324.228	0.183	-0.344
-69.451	65.232	-0.171	0.170
-68.436	-40.401	0.199	-0.102
-67.422	103.855	0.265	-0.306
-66.407	519.740	-0.070	-0.162
-65.392	14.048	0.143	0.109
-64.378	-64.181	0.314	-0.126
-63.363	800.000	0.127	0.349
-62.349	-11.322	0.280	0.181
-61.334	88.907	-0.730	-0.798
-60.319	-10.507	0.595	0.388
-59.305	558.021	-0.353	-0.837
-58.290	396.279	0.570	1.169
-57.276	800.000	0.497	1.527
-56.261	-200.000	98.449	603.721
-55.246	610.897	1393.665	3424.269
-54.232	195.189	2574.035	3842.645
-53.217	119.386	2139.925	2603.374
-52.203	43.801	1596.175	1436.404
-51.188	35.143	1332.674	1147.648
-50.173	31.773	1291.416	1092.464
-49.159	54.951	1339.905	1271.524
-48.144	56.697	1356.522	1297.590
-47.130	35.303	1314.364	1132.645
-46.115	31.706	1296.618	1096.296
-45.100	31.593	1291.690	1091.430
-44.086	31.492	1289.179	1088.680
-43.071	31.356	1287.403	1086.346
-42.057	31.396	1285.169	1084.647
-41.042	31.473	1283.486	1083.628
-40.027	31.410	1282.236	1082.170
-39.013	31.385	1280.567	1080.572
-37.998	31.468	1278.478	1079.243
-36.984	31.431	1276.863	1077.625
-35.969	31.493	1275.425	1076.726
-34.954	31.519	1273.326	1075.060
-33.940	31.597	1272.070	1074.404
-32.925	31.538	1270.773	1072.926
-31.911	31.620	1269.334	1072.138
-30.896	31.580	1267.757	1070.537
-29.881	31.603	1266.359	1069.446
-28.867	31.641	1265.195	1068.635
-27.852	31.668	1263.568	1067.375
-26.838	31.678	1262.232	1066.260
-25.823	31.573	1260.967	1064.553
-24.809	31.583	1259.851	1063.627
-23.794	31.525	1258.561	1062.166
-22.779	31.569	1256.939	1061.001
-21.765	31.636	1255.663	1060.265
-20.750	31.569	1254.489	1058.850
-19.736	31.503	1252.839	1057.040
-18.721	31.469	1252.014	1056.116
-17.706	31.346	1250.747	1054.310
-16.692	31.355	1249.871	1053.582
-15.677	31.454	1248.375	1052.835
-14.663	31.452	1247.825	1052.314
-13.648	31.505	1245.998	1051.029
-12.633	31.506	1244.918	1050.086
-11.619	31.337	1244.810	1049.000
-10.604	31.470	1243.089	1048.255
-9.590	31.367	1242.720	1047.326
-8.575	31.404	1241.998	1046.883
-7.560	31.449	1240.708	1046.009
-6.546	31.448	1240.009	1045.368
-5.531	31.500	1239.054	1044.817
-4.517	31.409	1238.391	1043.706
-3.502	31.477	1237.370	1043.181
-2.487	31.401	1236.398	1041.898
-1.473	31.360	1232.458	1038.311
-0.458	29.820	1217.794	1017.451
0.556	24.885	1199.871	978.752
1.571	21.096	1204.664	961.735
2.586	20.324	1218.298	968.229
3.600	19.773	1207.417	956.449
4.615	15.109	1137.431	876.574
5.629	7.901	1065.355	785.496
6.644	4.694	1046.406	755.898
7.659	4.578	1043.757	753.354
8.673	4.528	1043.227	752.664
9.688	4.469	1041.498	751.063
10.702	4.521	1040.033	750.189
11.717	8.652	1045.346	773.967
12.731	15.429	1055.528	814.432
13.746	18.407	1058.351	831.002
14.761	17.861	1056.864	827.119
15.775	16.762	1055.530	820.677
16.790	15.827	1052.710	813.894
17.804	15.177	1050.854	809.250
18.819	14.754	1050.083	806.539
19.834	14.344	1049.467	804.019
20.848	14.327	1048.348	803.006
21.863	14.059	1047.690	801.139
22.877	13.944	1046.743	799.791
23.892	13.926	1046.438	799.403
24.907	13.986	1045.579	798.961
25.921	13.969	1044.674	798.120
26.936	14.027	1042.914	796.980
27.950	14.000	1042.083	796.147
28.965	14.105	1040.294	795.210
29.980	14.193	1038.631	794.291
30.994	14.217	1037.722	793.637
32.009	14.363	1036.413	793.264
33.023	14.295	1035.753	792.367
34.038	14.210	1034.346	790.812
35.053	14.005	1033.924	789.449
36.067	14.006	1033.000	788.677
37.082	14.142	1031.849	788.372
38.096	14.144	1031.336	787.920
39.111	14.255	1030.606	787.818
40.126	14.039	1029.301	785.729
41.140	13.905	1028.038	784.067
42.155	13.909	1027.155	783.340
43.169	13.829	1025.589	781.701
44.184	13.756	1025.347	781.104
45.199	13.846	1024.199	780.585
46.213	14.009	1022.866	780.261
47.228	14.081	1021.975	779.851
48.242	14.176	1020.462	779.071
49.257	14.017	1019.852	777.797
50.271	13.998	1019.390	777.285
51.286	13.983	1018.663	776.593
52.301	14.083	1017.684	776.245
53.315	14.026	1016.428	774.952
54.330	13.974	1014.865	773.450
55.344	13.904	1014.635	772.878
56.359	13.953	1013.659	772.294
57.374	14.016	1012.349	771.520
58.388	13.849	1011.829	770.283
59.403	13.927	1010.881	769.855
60.417	13.867	1010.331	769.089
61.432	13.738	1009.800	768.019
62.447	13.849	1008.569	767.527
63.461	13.896	1007.549	766.900
64.476	13.727	1007.008	765.641
65.490	13.665	1006.159	764.642
66.505	13.768	1005.252	764.361
67.520	13.783	1004.543	763.820
68.534	13.950	1003.885	764.024
69.549	13.840	1003.533	763.181
70.563	13.715	1002.630	761.851
71.578	13.800	1001.336	761.194
72.593	13.786	1000.346	760.306
73.607	13.612	1000.378	759.469
74.622	13.720	999.813	759.467
75.636	13.649	999.476	758.816
76.651	13.743	998.313	758.297
77.666	13.748	997.634	757.738
78.680	13.936	996.932	757.996
79.695	13.735	996.527	756.705
80.709	13.834	995.840	756.567
81.724	13.791	995.579	756.102
82.739	14.000	994.737	756.352
83.753	14.099	993.511	755.803
84.768	14.145	992.822	755.417
85.782	14.325	991.649	755.276
86.797	14.185	991.026	754.102
87.812	14.055	990.066	752.712
88.826	13.996	989.222	751.740
89.841	14.252	988.147	752.011
90.855	14.239	987.264	751.217
91.870	14.155	986.587	750.255
92.884	14.224	985.481	749.657
93.899	14.290	984.349	749.027
94.914	14.301	983.810	748.602
95.928	14.261	983.485	748.109
96.943	14.162	982.670	746.976
97.957	14.088	982.121	746.162
98.972	14.010	981.269	745.096
99.987	14.225	980.046	745.066
101.001	14.148	979.008	743.866
102.016	14.197	978.007	743.257
103.030	14.207	977.214	742.636
104.045	14.168	976.568	741.906
105.060	14.178	975.562	741.118
106.074	13.967	975.031	739.712
107.089	13.985	973.334	738.438
108.103	13.927	972.130	737.202
109.118	13.925	971.461	736.623
110.133	13.910	970.829	736.009
111.147	13.854	969.957	735.037
112.162	13.968	969.027	734.771
113.176	14.013	968.286	734.342
114.191	14.059	967.588	733.949
115.206	13.903	967.321	732.994
116.220	13.943	966.108	732.187
117.235	13.972	964.729	731.205
118.249	14.004	964.424	731.052
119.264	13.951	963.791	730.274
120.279	13.957	962.855	729.523
121.293	13.796	961.937	728.058
122.308	13.861	961.512	727.959
123.322	13.890	960.034	726.900
124.337	13.775	958.809	725.405
125.352	13.750	958.329	724.869
126.366	13.898	957.051	724.486
127.381	13.934	956.099	723.857
128.395	13.876	955.753	723.278
129.410	13.957	954.278	722.450
130.424	13.960	953.522	721.830
131.439	13.983	953.265	721.667
132.454	13.996	952.458	721.050
133.468	14.064	951.494	720.552
134.483	14.065	950.505	719.741
135.497	14.046	949.968	719.189
136.512	14.093	948.984	718.585
137.527	13.967	948.233	717.409
138.541	13.963	947.767	716.974
139.556	14.132	946.985	717.047
140.570	14.061	946.564	716.361
141.585	14.253	945.385	716.231
142.600	14.196	944.879	715.538
143.614	14.438	943.816	715.713
144.629	14.398	943.126	714.952
145.643	14.299	942.181	713.748
146.658	14.187	941.007	712.319
147.673	14.251	940.340	712.025
148.687	14.180	939.548	711.055
149.702	14.102	938.664	709.993
150.716	13.974	938.463	709.230
151.731	14.130	937.385	709.018
152.746	14.001	936.736	707.915
153.760	14.189	936.214	708.260
154.775	14.042	935.910	707.340
155.789	14.247	935.060	707.507
156.804	14.193	934.077	706.469
157.819	14.425	933.367	706.855
158.833	14.444	932.839	706.475
159.848	14.350	932.349	705.643
160.862	14.320	931.137	704.536
161.877	14.261	929.989	703.357
162.892	14.166	929.036	702.171
163.906	14.123	927.738	700.945
164.921	14.194	927.350	700.890
165.935	14.234	926.387	700.267
166.950	14.272	925.461	699.667
167.964	14.392	924.516	699.395
168.979	14.211	923.716	697.966
169.994	14.409	922.451	697.778
171.008	14.256	922.732	697.291
172.023	14.481	921.428	697.185
173.037	14.417	920.997	696.527
174.052	14.298	920.355	695.485
175.067	14.334	919.718	695.090
176.081	14.251	919.035	694.168
177.096	14.227	918.655	693.719
178.110	14.274	918.043	693.392
179.125	14.333	917.262	692.984
180.140	14.398	916.748	692.808
181.154	14.297	916.786	692.355
182.169	14.498	916.016	692.547
183.183	14.541	915.468	692.251
184.198	14.694	914.160	691.832
185.213	14.600	913.640	690.989
186.227	14.591	913.209	690.563
187.242	14.529	912.553	689.751
188.256	14.754	911.949	690.164
189.271	14.555	911.411	688.872
190.286	14.477	910.257	687.617
191.300	14.329	909.555	686.417
192.315	14.290	909.469	686.130
193.329	14.352	908.430	685.543
194.344	14.455	907.655	685.318
195.359	14.452	907.240	684.933
196.373	14.520	906.882	684.881
197.388	14.686	906.269	685.037
198.402	14.735	905.764	684.799
199.417	14.814	905.324	684.729
200.432	14.858	904.918	684.539
201.446	14.953	904.085	684.238
202.461	14.812	903.983	683.525
203.475	14.781	902.976	682.574
204.490	14.786	902.360	682.069
205.504	14.682	901.735	681.114
206.519	14.695	900.606	680.251
207.534	14.702	900.064	679.813
208.548	14.730	899.563	679.485
209.563	14.863	898.740	679.346
210.577	14.696	898.071	678.103
211.592	14.915	897.527	678.519
212.607	15.051	896.710	678.393
213.621	14.927	895.954	677.258
214.636	14.862	895.294	676.435
215.650	15.030	894.524	676.474
216.665	14.881	893.990	675.408
217.680	15.083	893.162	675.539
218.694	15.028	892.689	674.901
219.709	14.962	892.225	674.221
220.723	15.143	891.480	674.331
221.738	14.969	890.639	672.935
222.753	15.005	890.277	672.745
223.767	15.155	889.635	672.804
224.782	15.068	889.529	672.313
225.796	15.260	888.396	672.170
226.811	15.183	887.795	671.348
227.826	15.075	887.241	670.436
228.840	15.093	886.399	669.812
229.855	15.067	885.472	668.947
230.869	14.976	884.680	667.928
231.884	15.005	884.412	667.779
232.899	14.973	883.832	667.156
233.913	15.011	882.825	666.488
234.928	14.989	882.312	665.953
235.942	15.007	881.847	665.618
236.957	15.065	881.268	665.349
237.972	15.031	880.455	664.544
238.986	15.150	879.725	664.404
240.001	15.032	879.148	663.442
241.015	15.139	878.475	663.301
242.030	15.135	878.045	662.902
243.045	15.227	877.774	663.000
244.059	15.160	877.022	662.110
245.074	15.233	876.557	661.989
246.088	15.265	875.768	661.461
247.103	15.322	875.418	661.363
248.117	15.385	874.814	661.098
249.132	15.543	874.279	661.254
250.147	15.595	873.551	660.850
251.161	15.576	873.086	660.365
252.176	15.597	872.385	659.860
253.190	15.638	871.864	659.567
254.205	15.834	871.046	659.661
255.220	15.744	870.477	658.820
256.234	15.690	869.998	658.185
257.249	15.877	868.886	658.015
258.263	15.712	868.022	656.659
259.278	15.628	867.626	655.974
260.293	15.711	867.184	655.908
261.307	15.862	866.628	656.016
262.322	15.847	865.911	655.358
263.336	15.848	865.254	654.805
264.351	15.832	864.480	654.099
265.366	15.968	863.578	653.887
266.380	15.846	863.648	653.411
267.395	15.843	862.886	652.764
268.409	15.820	861.788	651.784
269.424	16.032	860.765	651.772
270.439	15.825	860.208	650.495
271.453	15.900	859.489	650.182
272.468	15.815	859.197	649.578
273.482	15.805	858.696	649.101
274.497	15.842	858.397	648.961
275.512	15.891	857.633	648.513
276.526	15.865	857.496	648.252
277.541	16.063	856.565	648.253
278.555	15.930	856.036	647.286
279.570	16.121	855.256	647.372
280.585	16.074	854.518	646.576
281.599	16.021	853.646	645.653
282.614	16.118	853.083	645.544
283.628	15.885	853.127	644.627
284.643	15.957	852.315	644.234
285.657	16.062	851.347	643.846
286.672	16.054	850.671	643.247
287.687	16.283	849.826	643.422
288.701	15.980	849.918	642.282
289.716	16.167	848.985	642.233
290.730	16.119	848.609	641.709
291.745	16.059	848.229	641.133
292.760	16.190	847.308	640.880
293.774	16.322	846.599	640.786
294.789	16.250	846.250	640.193
295.803	16.089	845.628	639.056
296.818	16.086	845.016	638.524
297.833	16.297	843.984	638.486
298.847	16.167	843.528	637.596
299.862	16.127	843.280	637.199
300.876	16.261	842.648	637.173
301.891	16.449	841.873	637.240
302.906	16.375	841.599	636.696
303.920	16.452	841.137	636.581
304.935	16.431	840.844	636.221
305.949	16.480	839.891	635.628
306.964	16.485	839.240	635.098
307.979	16.441	838.779	634.528
308.993	16.457	838.324	634.190
310.008	16.502	837.667	633.806
311.022	16.450	836.871	632.952
312.037	16.379	836.340	632.229
313.052	16.318	836.057	631.730
314.066	16.415	835.267	631.439
315.081	16.414	834.648	630.911
316.095	16.444	834.065	630.526
317.110	16.507	833.309	630.134
318.125	16.337	833.266	629.412
319.139	16.349	832.753	629.014
320.154	16.484	831.864	628.791
321.168	16.460	831.409	628.300
322.183	16.563	830.930	628.266
323.197	16.479	830.608	627.653
324.212	16.542	829.599	627.071
325.227	16.472	828.889	626.219
326.241	16.391	828.798	625.794
327.256	16.298	828.607	625.252
328.270	16.396	828.095	625.172
329.285	16.535	827.043	624.835
330.300	16.573	826.287	624.350
331.314	16.400	826.693	623.962
332.329	16.642	825.570	623.951
333.343	16.855	824.858	624.142
334.358	16.708	824.600	623.353
335.373	16.636	824.892	623.252
336.387	16.614	824.491	622.814
337.402	16.686	824.342	622.911
338.416	16.864	823.748	623.061
339.431	16.675	823.408	622.054
340.446	16.889	822.776	622.305
341.460	16.954	823.012	622.669
342.475	16.886	822.168	621.724
343.489	16.782	821.836	621.038
344.504	16.943	821.037	620.970
345.519	17.103	820.589	621.162
346.533	17.062	819.967	620.485
347.548	16.859	819.526	619.354
348.562	17.121	818.804	619.712
349.577	16.970	818.098	618.572
350.592	16.819	817.710	617.671
351.606	16.944	816.973	617.518
352.621	16.799	816.545	616.608
353.635	17.074	815.804	616.997
354.650	16.983	815.218	616.169
355.665	16.873	814.757	615.364
356.679	16.926	814.391	615.226
357.694	16.998	813.612	614.846
358.708	17.015	813.037	614.419
359.723	17.065	812.255	613.953
360.738	17.136	811.658	613.705
361.752	17.038	811.386	613.091
362.767	17.231	810.441	613.019
363.781	17.225	809.943	612.565
364.796	17.344	809.748	612.791
365.810	17.407	809.324	612.645
366.825	17.393	809.124	612.388
367.840	17.229	808.883	611.563
368.854	17.306	808.189	611.259
369.869	17.105	808.085	610.403
370.883	17.338	807.519	610.760
371.898	17.479	806.937	610.772
372.913	17.517	806.468	610.500
373.927	17.407	806.007	609.701
374.942	17.526	805.346	609.573
375.956	17.379	805.221	608.897
376.971	17.476	804.660	608.766
377.986	17.542	804.176	608.585
379.000	17.708	803.800	608.838
380.015	17.686	802.980	608.085
381.029	17.628	802.807	607.693
382.044	17.649	802.240	607.284
383.059	17.704	801.546	606.900
384.073	17.656	800.953	606.228
385.088	17.585	800.271	605.405
386.102	17.656	799.496	605.018
387.117	17.516	799.565	604.521
388.132	17.487	798.674	603.688
389.146	17.410	798.336	603.107
390.161	17.618	797.843	603.417
391.175	17.674	797.422	603.244
392.190	17.594	796.567	602.264
393.205	17.630	796.355	602.174
394.219	17.541	796.243	601.726
395.234	17.562	795.514	601.196
396.248	17.589	794.857	600.740
397.263	17.516	794.570	600.210
398.278	17.480	794.305	599.833
399.292	17.379	793.755	599.006
400.307	17.673	793.009	599.427
401.321	17.602	792.634	598.841
402.336	17.635	791.954	598.388
403.350	17.691	792.076	598.625
404.365	17.714	791.918	598.534
405.380	17.935	791.145	598.671
406.394	17.928	790.656	598.224
407.409	17.934	790.262	597.894
408.423	17.962	789.898	597.665
409.438	18.021	789.655	597.634
410.453	17.981	789.238	597.122
411.467	18.032	788.935	597.020
412.482	17.985	788.695	596.620
413.496	18.118	788.195	596.655
414.511	18.160	787.660	596.343
415.526	18.167	786.967	595.790
416.540	18.075	786.161	594.807
417.555	18.150	786.139	594.999
418.569	17.914	785.905	593.948
419.584	18.089	785.500	594.198
420.599	18.153	784.780	593.823
421.613	156.734	1370.266	1795.408
422.628	135.408	1455.557	1795.483
