DTS Sentinel unit serial number:	SN413079Multiplexer serial number:	ORYXHardware model number:	OX4-SRSoftware version number:	ORYX F/W v4.00 Oryx Data Collector v3.7.2.0data status	okinstallation	princeton_trtdifferential loss correction	single-endedforward channel	channel 1reverse channel	N/Adate	2019/09/13time	22:54:35forward acquisition time	60.00reverse acquisition time	0.00gamma	496.2192k internal	0.2334k external	0.2334temperature offset calibration	1.0085default loss term (dB/km)	0.3790temperature slope calibration	1.0000multiplexer offset coefficient	1.0000multiplexer slope coefficient	1.0000fibre end	0.00T internal ref (°C)	27.44T ext. ref 1 (°C)	3.21T ext. ref 2 (°C)	21.50length (m)	temperature (°C)	Stokes	anti-Stokes-747.200	-55.231	-0.358	0.162
-746.185	285.073	-0.026	0.046
-745.171	800.000	0.048	-0.168
-744.156	228.666	-0.151	0.248
-743.142	190.618	-0.029	0.045
-742.127	394.510	-0.046	0.097
-741.112	-56.547	-0.315	-0.140
-740.098	297.730	0.108	0.200
-739.083	690.249	-0.087	-0.229
-738.069	-200.000	-0.065	0.320
-737.054	306.889	0.125	0.234
-736.039	-163.566	-0.287	0.014
-735.025	-59.890	-0.089	-0.038
-734.010	158.776	0.073	-0.101
-732.996	-177.894	-0.044	0.001
-731.981	12.555	0.111	-0.086
-730.966	-200.000	-0.002	-0.059
-729.952	12.465	-0.217	-0.168
-728.937	12.188	-0.456	-0.353
-727.923	-66.534	0.290	-0.116
-726.908	-200.000	-0.003	-0.051
-725.894	-92.271	-0.355	-0.100
-724.879	-57.250	-0.074	-0.033
-723.864	153.803	-0.206	-0.284
-722.850	-200.000	0.005	0.165
-721.835	236.751	0.070	-0.116
-720.821	321.158	-0.151	0.288
-719.806	-200.000	-0.004	-0.100
-718.791	81.284	-0.154	-0.167
-717.777	-22.563	0.121	-0.074
-716.762	-200.000	-0.079	-0.412
-715.748	-132.689	0.167	-0.022
-714.733	-89.381	-0.508	-0.150
-713.718	26.287	0.057	-0.048
-712.704	-63.959	0.118	0.049
-711.689	-200.000	0.027	-0.195
-710.675	224.456	-0.088	-0.142
-709.660	282.308	-0.056	0.101
-708.645	-200.000	-0.026	0.309
-707.631	-91.077	-0.149	-0.043
-706.616	-20.233	-0.150	-0.093
-705.602	-150.020	-0.188	-0.015
-704.587	-161.066	0.200	-0.011
-703.572	141.546	-0.251	-0.334
-702.558	-52.650	-0.266	-0.123
-701.543	3.478	-0.393	-0.287
-700.529	476.681	0.169	0.384
-699.514	-200.000	-0.028	0.411
-698.499	-200.000	0.005	0.129
-697.485	-200.000	0.024	-0.117
-696.470	5.086	-0.110	0.082
-695.456	-200.000	-0.000	0.114
-694.441	-170.303	-0.076	0.003
-693.426	36.749	-0.144	0.128
-692.412	-200.000	0.017	-0.176
-691.397	514.362	-0.039	-0.091
-690.383	185.755	-0.191	-0.285
-689.368	218.583	0.182	-0.291
-688.354	-76.125	-0.152	-0.054
-687.339	-200.000	-0.001	-0.454
-686.324	-200.000	-0.103	0.478
-685.310	223.046	-0.134	-0.217
-684.295	800.000	-0.077	-0.312
-683.281	800.000	0.049	-0.203
-682.266	-84.413	-0.040	0.013
-681.251	-128.706	0.167	0.024
-680.237	733.132	-0.042	-0.113
-679.222	-200.000	-0.033	-0.206
-678.208	-200.000	-0.032	0.269
-677.193	305.240	0.062	-0.115
-676.178	-131.409	-0.510	-0.068
-675.164	-134.719	-0.030	0.004
-674.149	800.000	0.047	-0.165
-673.135	-110.522	-0.106	-0.022
-672.120	-200.000	-0.010	-0.164
-671.105	-23.776	-0.163	0.098
-670.091	106.879	-0.171	-0.204
-669.076	-100.046	-0.049	0.012
-668.062	6.159	-0.132	-0.098
-667.047	263.110	0.117	-0.203
-666.032	174.738	-0.164	-0.238
-665.018	-33.394	-0.247	0.137
-664.003	11.257	0.110	-0.085
-662.989	-57.148	-0.365	-0.161
-661.974	-8.136	0.268	0.181
-660.959	365.950	-0.139	-0.281
-659.945	-7.895	0.057	-0.039
-658.930	-37.377	-0.035	-0.019
-657.916	-133.211	-0.170	0.022
-656.901	-20.665	-0.236	-0.145
-655.886	-31.535	0.045	0.025
-654.872	800.000	-0.083	-0.242
-653.857	276.354	0.026	-0.046
-652.843	-200.000	-0.007	-0.113
-651.828	-200.000	0.018	-0.235
-650.814	481.273	-0.130	-0.296
-649.799	421.913	-0.140	0.302
-648.784	-200.000	-0.030	-0.428
-647.770	12.256	0.221	0.170
-646.755	-116.450	-0.215	-0.040
-645.741	-18.163	-0.256	0.160
-644.726	99.172	-0.184	-0.213
-643.711	-102.569	0.044	0.010
-642.697	-53.575	-0.266	-0.122
-641.682	131.001	0.072	0.093
-640.668	-146.633	0.222	-0.019
-639.653	191.062	0.180	-0.272
-638.638	-200.000	0.019	0.110
-637.624	-36.800	-0.232	-0.125
-636.609	25.346	-0.184	-0.153
-635.595	-110.311	0.354	0.074
-634.580	82.411	-0.072	-0.078
-633.565	-55.952	-0.285	0.127
-632.551	800.000	0.061	-0.207
-631.536	800.000	-0.073	-0.248
-630.522	-1.594	0.385	-0.272
-629.507	800.000	-0.015	0.064
-628.492	-109.531	0.117	0.025
-627.478	-200.000	0.035	-0.326
-626.463	-200.000	-0.016	-0.127
-625.449	800.000	0.043	-0.140
-624.434	-88.294	0.162	-0.049
-623.419	-97.396	-0.060	0.016
-622.405	-74.214	0.209	-0.076
-621.390	-200.000	-0.023	-0.123
-620.376	800.000	0.051	-0.151
-619.361	-179.565	-0.253	0.006
-618.346	153.358	0.121	0.165
-617.332	-64.252	-0.085	0.035
-616.317	8.255	-0.131	-0.098
-615.303	-91.285	-0.284	0.081
-614.288	49.841	-0.107	-0.101
-613.273	247.591	-0.133	0.226
-612.259	-9.535	0.242	-0.162
-611.244	-66.751	0.105	0.041
-610.230	-200.000	-0.015	-0.404
-609.215	156.626	0.061	0.084
-608.201	-200.000	-0.028	-0.529
-607.186	-200.000	0.043	-0.553
-606.171	114.279	0.180	-0.219
-605.157	800.000	-0.023	-0.082
-604.142	-68.732	-0.342	-0.132
-603.128	-153.977	-0.289	-0.020
-602.113	-147.962	0.234	-0.019
-601.098	-27.210	-0.123	-0.071
-600.084	173.518	-0.059	0.085
-599.069	699.366	-0.145	0.381
-598.055	55.728	-0.044	0.042
-597.040	3.111	-0.170	0.124
-596.025	52.465	-0.056	-0.053
-595.011	-28.511	-0.182	-0.105
-593.996	-5.178	0.129	-0.089
-592.982	477.949	-0.083	0.187
-591.967	323.989	-0.055	-0.106
-590.952	-169.220	-0.144	-0.005
-589.938	-200.000	0.023	0.226
-588.923	800.000	-0.038	0.117
-587.909	-102.453	0.495	0.118
-586.894	-11.615	0.039	-0.026
-585.879	-67.316	-0.233	0.092
-584.865	47.601	0.294	-0.274
-583.850	-140.310	-0.246	-0.026
-582.836	-92.817	-0.068	-0.019
-581.821	7.421	-0.156	0.116
-580.806	106.133	0.077	-0.091
-579.792	-66.512	-0.295	0.117
-578.777	-42.961	0.135	-0.068
-577.763	612.354	0.062	0.154
-576.748	-200.000	0.008	0.038
-575.733	86.226	-0.129	0.142
-574.719	-200.000	-0.013	-0.144
-573.704	-200.000	-0.010	-0.071
-572.690	-200.000	-0.041	0.262
-571.675	-76.140	-0.075	0.026
-570.661	77.041	0.045	-0.048
-569.646	-200.000	0.011	-0.054
-568.631	800.000	-0.111	-0.399
-567.617	6.384	-0.076	-0.056
-566.602	800.000	0.074	-0.257
-565.588	800.000	0.046	-0.165
-564.573	620.762	0.030	-0.075
-563.558	71.521	-0.259	0.269
-562.544	-98.008	-0.020	0.005
-561.529	800.000	0.068	0.188
-560.515	-10.556	-0.117	0.077
-559.500	-200.000	0.200	-0.001
-558.485	-56.635	0.176	-0.078
-557.471	-65.419	-0.200	0.080
-556.456	-100.702	0.429	-0.106
-555.442	-47.275	-0.297	0.144
-554.427	-36.587	-0.227	-0.122
-553.412	4.996	0.170	-0.124
-552.398	213.280	-0.112	0.177
-551.383	800.000	-0.098	0.312
-550.369	40.503	-0.066	-0.059
-549.354	115.535	-0.128	-0.156
-548.339	33.126	-0.191	-0.165
-547.325	-110.110	0.255	0.053
-546.310	155.251	-0.220	-0.303
-545.296	16.631	-0.362	0.285
-544.281	-111.764	-0.133	-0.027
-543.266	-149.189	0.084	-0.007
-542.252	800.000	0.023	0.082
-541.237	771.793	-0.078	0.213
-540.223	62.306	-0.144	0.144
-539.208	-11.227	0.105	-0.069
-538.193	-116.683	-0.428	0.079
-537.179	160.578	-0.119	0.165
-536.164	-75.449	-0.104	-0.037
-535.150	-200.000	-0.024	0.169
-534.135	-50.283	0.264	0.124
-533.121	36.841	0.043	0.038
-532.106	-200.000	0.019	-0.463
-531.091	376.486	0.101	0.206
-530.077	-11.200	-0.162	-0.107
-529.062	217.753	-0.062	0.099
-528.048	703.774	0.093	0.244
-527.033	-200.000	0.004	-0.057
-526.018	-200.000	0.018	0.195
-525.004	-179.832	-0.325	-0.007
-523.989	6.514	-0.158	0.117
-522.975	61.467	-0.072	-0.071
-521.960	800.000	0.093	-0.342
-520.945	11.615	0.174	0.133
-519.931	230.052	-0.025	-0.040
-518.916	-90.072	0.187	0.054
-517.902	179.643	-0.065	0.095
-516.887	-26.050	0.123	-0.072
-515.872	-200.000	-0.013	0.121
-514.858	-93.973	-0.300	-0.082
-513.843	-200.000	0.016	0.079
-512.829	-194.259	0.129	0.001
-511.814	-76.413	0.137	-0.048
-510.799	-200.000	0.039	-0.336
-509.785	-200.000	-0.152	0.000
-508.770	225.183	0.212	0.341
-507.756	-88.433	0.067	0.020
-506.741	454.252	-0.043	-0.094
-505.726	118.102	-0.107	-0.131
-504.712	124.303	-0.184	0.230
-503.697	-13.582	0.317	0.204
-502.683	800.000	-0.128	0.384
-501.668	58.601	-0.050	0.049
-500.653	88.645	0.170	0.188
-499.639	74.152	0.279	0.291
-498.624	-86.958	-0.055	0.017
-497.610	-200.000	0.003	-0.051
-496.595	392.425	-0.191	-0.395
-495.581	-4.393	0.222	-0.153
-494.566	800.000	0.150	-0.441
-493.551	-200.000	-0.021	-0.182
-492.537	682.475	0.048	0.123
-491.522	-200.000	-0.014	-0.213
-490.508	-24.692	0.156	-0.092
-489.493	-107.557	0.248	-0.054
-488.478	-200.000	-0.041	-0.218
-487.464	-159.628	0.205	0.011
-486.449	-143.149	0.274	-0.026
-485.435	85.567	-0.168	0.184
-484.420	-38.774	-0.074	-0.039
-483.405	-122.963	0.236	-0.038
-482.391	-200.000	0.049	0.389
-481.376	-200.000	-0.030	0.181
-480.362	114.471	-0.142	0.172
-479.347	-96.582	-0.060	0.016
-478.332	800.000	0.053	-0.162
-477.318	-52.034	0.270	0.125
-476.303	800.000	-0.007	-0.025
-475.289	408.576	0.023	0.049
-474.274	-141.086	0.305	0.031
-473.259	653.669	0.061	-0.156
-472.245	664.655	-0.108	-0.276
-471.230	800.000	-0.025	0.103
-470.216	-136.384	0.187	0.022
-469.201	-29.112	-0.112	-0.064
-468.186	5.708	-0.222	-0.163
-467.172	800.000	0.029	-0.114
-466.157	123.909	-0.135	0.168
-465.143	-79.228	0.158	0.053
-464.128	-77.832	0.120	-0.041
-463.113	39.739	-0.158	-0.141
-462.099	-200.000	-0.007	0.264
-461.084	-25.886	0.134	-0.078
-460.070	93.777	0.105	0.118
-459.055	68.685	-0.217	-0.221
-458.040	-45.913	0.099	-0.049
-457.026	800.000	0.061	0.178
-456.011	50.092	-0.217	-0.203
-454.997	-131.741	0.108	0.014
-453.982	-200.000	0.033	0.317
-452.968	-5.844	0.217	0.148
-451.953	730.980	-0.075	-0.198
-450.938	616.455	-0.110	0.274
-449.924	515.614	0.062	0.143
-448.909	-10.180	-0.077	-0.051
-447.895	286.797	-0.033	-0.059
-446.880	800.000	0.097	0.326
-445.865	-147.379	-0.305	-0.026
-444.851	-70.034	0.250	-0.095
-443.836	-15.049	-0.159	-0.101
-442.822	-200.000	-0.062	0.387
-441.807	-87.588	0.113	0.034
-440.792	-45.820	0.323	0.158
-439.778	169.255	-0.163	0.231
-438.763	-200.000	0.030	0.000
-437.749	-200.000	0.027	-0.289
-436.734	359.186	0.126	0.249
-435.719	-200.000	0.024	0.165
-434.705	298.136	0.045	-0.082
-433.690	195.075	-0.106	0.160
-432.676	150.753	0.187	0.253
-431.661	110.113	-0.059	-0.071
-430.646	-92.853	0.017	0.005
-429.632	-144.007	-0.307	0.029
-428.617	-67.985	0.257	0.100
-427.603	-200.000	0.047	-0.285
-426.588	-45.866	0.177	-0.087
-425.573	-25.796	-0.117	-0.069
-424.559	-64.787	0.296	0.119
-423.544	107.057	-0.164	-0.194
-422.530	-200.000	0.002	0.129
-421.515	324.324	0.163	0.310
-420.500	-107.327	-0.259	0.056
-419.486	-200.000	-0.057	0.255
-418.471	-146.099	0.082	0.007
-417.457	-68.652	-0.258	-0.099
-416.442	800.000	0.067	0.212
-415.428	-19.124	0.245	-0.151
-414.413	419.498	-0.122	0.259
-413.398	30.445	0.144	-0.122
-412.384	230.870	-0.106	-0.172
-411.369	89.616	-0.026	-0.029
-410.355	195.542	-0.099	-0.149
-409.340	73.347	0.134	-0.139
-408.325	350.693	-0.119	-0.234
-407.311	35.234	-0.017	0.015
-406.296	72.884	-0.224	-0.232
-405.282	800.000	0.091	0.300
-404.267	686.648	-0.088	0.229
-403.252	-42.231	-0.249	0.126
-402.238	612.925	-0.051	0.126
-401.223	-200.000	0.010	-0.158
-400.209	-83.535	0.296	0.094
-399.194	-200.000	0.014	0.111
-398.179	529.586	0.205	0.481
-397.165	-14.552	0.343	0.219
-396.150	-77.488	-0.194	0.067
-395.136	-91.304	-0.384	-0.109
-394.121	-97.669	0.082	0.021
-393.106	-200.000	-0.048	0.481
-392.092	-200.000	0.051	0.241
-391.077	86.642	-0.158	0.173
-390.063	-122.619	0.236	-0.038
-389.048	-200.000	-0.019	-0.184
-388.033	800.000	0.085	-0.289
-387.019	265.481	-0.155	0.267
-386.004	-146.420	-0.201	0.017
-384.990	-200.000	0.192	-0.000
-383.975	-59.000	0.072	-0.031
-382.960	25.778	-0.082	0.068
-381.946	-130.905	-0.269	-0.036
-380.931	-200.000	0.000	-0.080
-379.917	-119.233	-0.150	0.026
-378.902	800.000	0.046	0.127
-377.888	-200.000	-0.023	-0.389
-376.873	-100.783	-0.186	0.045
-375.858	-22.285	0.229	-0.138
-374.844	119.876	0.159	-0.195
-373.829	-76.751	0.117	0.041
-372.815	-57.006	-0.387	0.169
-371.800	-84.183	-0.085	-0.027
-370.785	-37.178	0.179	0.095
-369.771	-200.000	-0.009	-0.131
-368.756	-82.029	-0.203	0.066
-367.742	800.000	0.026	-0.078
-366.727	166.248	0.076	-0.107
-365.712	6.667	-0.112	0.083
-364.698	-175.187	-0.184	0.005
-363.683	246.258	-0.142	-0.236
-362.669	119.727	0.143	-0.175
-361.654	800.000	0.053	-0.146
-360.639	157.621	0.067	0.092
-359.625	204.277	0.174	0.266
-358.610	-200.000	0.017	0.161
-357.596	-177.550	0.320	0.008
-356.581	-200.000	-0.050	-0.500
-355.566	197.100	-0.205	-0.309
-354.552	-200.000	0.034	-0.186
-353.537	-142.314	0.164	-0.016
-352.523	-63.142	0.113	0.046
-351.508	-200.000	0.049	0.382
-350.493	-96.363	0.250	0.066
-349.479	-116.082	0.185	-0.034
-348.464	116.954	0.058	0.071
-347.450	45.759	-0.218	-0.199
-346.435	84.245	0.095	0.103
-345.420	-31.605	-0.158	0.088
-344.406	-200.000	0.042	-0.194
-343.391	36.351	-0.275	0.240
-342.377	-200.000	-0.009	0.167
-341.362	-200.000	0.013	-0.232
-340.348	-43.376	0.193	0.097
-339.333	25.936	0.126	0.104
-338.318	-13.227	0.264	0.170
-337.304	-200.000	0.008	0.225
-336.289	-200.000	0.005	-0.363
-335.275	370.878	0.083	-0.166
-334.260	-131.842	-0.352	0.046
-333.245	-200.000	-0.014	-0.243
-332.231	165.704	-0.204	-0.285
-331.216	-126.713	0.202	-0.030
-330.202	-161.337	0.206	-0.011
-329.187	571.825	0.046	0.110
-328.172	168.637	0.072	0.101
-327.158	37.292	0.122	-0.107
-326.143	256.642	-0.148	0.252
-325.129	-200.000	-0.063	-0.431
-324.114	-200.000	-0.109	-0.517
-323.099	79.839	0.099	-0.105
-322.085	155.432	-0.227	0.309
-321.070	-200.000	-0.047	-0.245
-320.056	79.545	0.216	-0.229
-319.041	-200.000	-0.003	0.107
-318.026	494.708	0.075	-0.171
-317.012	148.082	0.092	-0.123
-315.997	-155.703	-0.012	0.001
-314.983	589.100	0.080	0.195
-313.968	-57.254	-0.176	0.076
-312.953	72.768	-0.138	0.142
-311.939	-68.906	0.082	0.031
-310.924	800.000	0.029	-0.116
-309.910	-200.000	0.027	-0.288
-308.895	800.000	-0.099	-0.341
-307.880	82.429	0.158	0.170
-306.866	800.000	-0.096	0.284
-305.851	746.135	-0.022	-0.058
-304.837	390.572	0.165	-0.338
-303.822	5.553	-0.233	0.170
-302.807	529.542	-0.039	0.090
-301.793	-94.920	-0.210	0.056
-300.778	42.076	0.128	0.115
-299.764	-60.247	-0.196	0.083
-298.749	24.408	-0.297	0.243
-297.735	604.475	0.152	-0.373
-296.720	-62.378	-0.224	-0.092
-295.705	-200.000	-0.022	0.276
-294.691	247.707	0.145	0.242
-293.676	-61.569	0.225	0.093
-292.662	800.000	0.062	0.245
-291.647	-96.929	0.262	0.068
-290.632	-200.000	-0.041	-0.196
-289.618	-91.369	0.032	0.009
-288.603	340.845	-0.036	0.069
-287.589	800.000	-0.052	0.162
-286.574	-85.957	-0.156	0.048
-285.559	-24.964	0.186	-0.109
-284.545	13.859	0.318	-0.244
-283.530	393.657	0.047	-0.097
-282.516	800.000	0.042	-0.157
-281.501	21.170	-0.083	-0.067
-280.486	742.784	0.084	-0.222
-279.472	-200.000	-0.012	-0.124
-278.457	-200.000	-0.043	0.226
-277.443	-114.571	-0.111	0.021
-276.428	-110.302	-0.072	0.015
-275.413	-79.797	0.114	-0.038
-274.399	253.489	-0.117	0.197
-273.384	359.731	-0.112	0.221
-272.370	800.000	0.067	0.283
-271.355	638.231	0.060	0.151
-270.340	-66.473	0.205	-0.080
-269.326	-200.000	0.012	-0.307
-268.311	-54.592	-0.508	-0.227
-267.297	-200.000	-0.022	0.199
-266.282	800.000	-0.090	0.252
-265.267	-83.299	-0.229	0.073
-264.253	73.727	0.108	-0.111
-263.238	278.756	0.141	0.248
-262.224	358.207	-0.172	-0.339
-261.209	-135.288	0.227	-0.027
-260.195	-200.000	-0.038	-0.436
-259.180	-106.138	-0.356	-0.079
-258.165	-43.695	0.166	-0.083
-257.151	-30.163	-0.186	-0.104
-256.136	68.534	0.170	0.172
-255.122	-146.247	0.298	-0.026
-254.107	-46.989	-0.113	-0.054
-253.092	614.728	-0.054	0.134
-252.078	-45.265	0.128	0.063
-251.063	-200.000	-0.035	-0.318
-250.049	-92.296	0.278	-0.077
-249.034	56.215	-0.134	-0.128
-248.019	-10.737	0.101	-0.066
-247.005	-174.231	0.161	0.005
-245.990	-200.000	-0.046	-0.524
-244.976	-200.000	-0.002	0.324
-243.961	189.838	-0.296	0.437
-242.946	800.000	-0.035	-0.148
-241.932	80.838	0.084	0.090
-240.917	800.000	0.080	-0.224
-239.903	-139.469	-0.261	-0.028
-238.888	-61.264	0.183	-0.076
-237.873	800.000	0.094	0.295
-236.859	-200.000	-0.057	-0.404
-235.844	-148.088	0.180	-0.015
-234.830	-139.692	0.085	0.009
-233.815	-102.261	-0.264	0.062
-232.800	-200.000	0.011	-0.158
-231.786	-35.657	0.176	0.094
-230.771	-200.000	-0.032	0.151
-229.757	503.982	0.072	0.164
-228.742	-133.280	-0.054	0.007
-227.727	-200.000	0.003	-0.211
-226.713	-80.670	0.173	-0.057
-225.698	-187.129	0.218	-0.003
-224.684	138.173	-0.140	0.181
-223.669	-1.255	-0.131	0.091
-222.655	143.870	-0.039	0.051
-221.640	-185.108	0.117	0.002
-220.625	-61.024	0.182	-0.076
-219.611	295.572	-0.159	0.287
-218.596	-200.000	0.032	-0.147
-217.582	93.802	0.305	0.340
-216.567	-111.921	0.338	0.067
-215.552	99.873	-0.083	-0.095
-214.538	-200.000	0.006	0.096
-213.523	38.724	0.222	0.195
-212.509	-11.194	0.176	-0.114
-211.494	-195.560	0.203	-0.001
-210.479	-71.490	-0.035	0.013
-209.465	800.000	-0.174	-0.544
-208.450	-139.220	0.144	-0.015
-207.436	168.094	0.094	-0.131
-206.421	-54.292	0.221	0.099
-205.406	-43.656	-0.332	-0.165
-204.392	13.471	0.146	0.111
-203.377	-46.507	0.203	0.098
-202.363	39.799	0.206	0.182
-201.348	-88.970	0.249	-0.073
-200.333	163.824	-0.092	-0.127
-199.319	-162.791	-0.410	-0.020
-198.304	-200.000	-0.003	-0.292
-197.290	-94.827	-0.126	0.034
-196.275	-139.893	-0.047	0.005
-195.260	715.881	0.095	0.248
-194.246	99.331	-0.074	-0.084
-193.231	69.410	0.105	0.107
-192.217	157.525	0.140	0.191
-191.202	-200.000	0.005	-0.101
-190.187	68.191	-0.096	-0.097
-189.173	-28.332	-0.288	-0.163
-188.158	11.839	-0.123	0.093
-187.144	56.518	0.135	-0.129
-186.129	-200.000	0.181	0.000
-185.114	-200.000	-0.006	-0.189
-184.100	-133.831	0.075	-0.009
-183.085	220.563	-0.067	0.105
-182.071	117.703	0.143	0.173
-181.056	-149.437	-0.137	0.011
-180.042	-200.000	-0.011	-0.367
-179.027	-200.000	-0.009	0.211
-178.012	-35.890	-0.213	0.113
-176.998	519.551	-0.091	0.210
-175.983	-2.898	-0.297	-0.204
-174.969	-70.800	-0.140	-0.052
-173.954	265.737	0.185	0.317
-172.939	-3.628	-0.057	-0.039
-171.925	800.000	0.023	-0.066
-170.910	-109.865	-0.197	0.041
-169.896	-200.000	0.030	0.187
-168.881	60.633	0.097	0.094
-167.866	-200.000	-0.004	-0.280
-166.852	-142.588	0.372	0.036
-165.837	148.088	0.171	0.227
-164.823	-96.325	0.176	0.046
-163.808	800.000	0.110	0.320
-162.793	-46.467	-0.261	0.126
-161.779	-200.000	-0.013	0.119
-160.764	-200.000	0.001	-0.143
-159.750	-16.275	0.288	0.180
-158.735	5.458	-0.248	0.180
-157.720	10.984	-0.124	0.093
-156.706	800.000	0.078	0.271
-155.691	-6.331	-0.233	0.156
-154.677	102.995	-0.155	-0.178
-153.662	109.437	0.143	-0.169
-152.647	152.215	-0.135	-0.181
-151.633	800.000	-0.106	0.401
-150.618	0.125	-0.062	-0.044
-149.604	114.500	0.263	-0.315
-148.589	486.857	0.047	0.105
-147.574	-200.000	0.034	0.410
-146.560	-200.000	-0.016	-0.125
-145.545	800.000	0.037	-0.132
-144.531	800.000	0.036	0.129
-143.516	-132.383	0.171	0.022
-142.502	-129.687	0.322	0.044
-141.487	-49.711	-0.318	0.148
-140.472	-8.673	-0.201	-0.132
-139.458	74.366	-0.305	-0.315
-138.443	-200.000	-0.005	-0.379
-137.429	774.522	-0.078	-0.210
-136.414	800.000	0.122	0.356
-135.399	704.906	-0.029	-0.074
-134.385	335.675	-0.146	0.278
-133.370	432.957	-0.180	0.384
-132.356	-101.168	-0.166	-0.040
-131.341	-46.467	0.303	-0.146
-130.326	800.000	0.046	0.173
-129.312	283.405	-0.118	-0.208
-128.297	21.981	0.261	0.209
-127.283	-10.289	-0.460	0.300
-126.268	-200.000	0.044	0.194
-125.253	-200.000	0.017	-0.168
-124.239	-53.509	-0.213	-0.096
-123.224	196.012	-0.112	-0.167
-122.210	22.368	0.314	0.252
-121.195	10.693	0.061	0.046
-120.180	760.569	-0.041	0.110
-119.166	112.979	0.117	-0.139
-118.151	-137.103	-0.316	0.035
-117.137	135.600	0.035	-0.044
-116.122	800.000	-0.094	-0.299
-115.107	481.483	0.069	-0.154
-114.093	-2.399	-0.158	0.108
-113.078	-127.470	0.151	0.022
-112.064	-53.348	0.163	0.073
-111.049	3.388	0.100	-0.071
-110.034	-125.141	-0.216	-0.032
-109.020	596.366	0.037	0.091
-108.005	398.393	-0.039	0.081
-106.991	106.417	0.058	0.067
-105.976	247.934	0.080	-0.133
-104.962	-200.000	-0.007	-0.254
-103.947	336.227	0.039	-0.075
-102.932	69.397	0.156	-0.157
-101.918	-100.630	0.282	-0.068
-100.903	101.266	-0.097	-0.111
-99.889	-109.183	-0.123	0.026
-98.874	-200.000	0.057	0.385
-97.859	-200.000	0.002	-0.227
-96.845	-200.000	-0.003	0.377
-95.830	515.552	-0.042	0.095
-94.816	277.044	0.158	0.275
-93.801	-101.736	0.567	0.135
-92.786	219.639	-0.133	-0.209
-91.772	43.094	0.052	-0.047
-90.757	575.809	0.087	-0.209
-89.743	-110.092	-0.465	-0.095
-88.728	146.233	-0.044	-0.057
-87.713	224.051	0.108	0.171
-86.699	-7.582	-0.199	-0.132
-85.684	4.362	0.226	-0.163
-84.670	162.283	0.074	0.101
-83.655	77.500	-0.337	0.352
-82.640	-89.623	0.467	-0.134
-81.626	-100.694	0.074	-0.018
-80.611	119.522	-0.135	-0.164
-79.597	-95.815	0.413	-0.108
-78.582	-92.821	-0.322	0.088
-77.567	-117.960	-0.007	-0.001
-76.553	-86.667	0.070	0.021
-75.538	520.005	0.139	-0.319
-74.524	-151.761	0.371	-0.027
-73.509	163.723	0.148	0.204
-72.494	-74.376	-0.293	0.103
-71.480	-54.842	0.270	0.119
-70.465	-200.000	0.017	0.129
-69.451	-200.000	0.037	0.206
-68.436	-52.134	0.243	0.110
-67.422	-200.000	-0.001	0.130
-66.407	-145.162	-0.065	0.006
-65.392	-128.276	-0.287	0.040
-64.378	-86.452	0.054	0.016
-63.363	-124.242	0.103	0.016
-62.349	-73.482	-0.121	-0.043
-61.334	107.233	-1.038	-1.208
-60.319	143.779	0.709	0.925
-59.305	152.311	-0.609	-0.814
-58.290	639.201	0.559	1.392
-57.276	510.682	0.827	1.882
-56.261	-200.000	115.615	673.356
-55.246	548.564	1521.135	3564.957
-54.232	179.324	2684.361	3843.182
-53.217	110.625	2146.687	2525.480
-52.203	39.186	1592.380	1393.691
-51.188	30.818	1339.624	1122.250
-50.173	27.891	1301.871	1073.406
-49.159	55.965	1358.806	1289.443
-48.144	54.194	1373.128	1292.396
-47.130	31.031	1327.820	1113.456
-46.115	27.585	1310.301	1078.378
-45.100	27.371	1305.594	1073.200
-44.086	27.288	1302.976	1070.518
-43.071	27.216	1300.750	1068.220
-42.057	27.244	1298.643	1066.615
-41.042	27.210	1297.626	1065.535
-40.027	27.349	1295.701	1064.728
-39.013	27.189	1293.704	1062.108
-37.998	27.382	1291.854	1061.672
-36.984	27.386	1290.292	1060.370
-35.969	27.394	1288.274	1058.718
-34.954	27.470	1286.723	1057.843
-33.940	27.486	1285.448	1056.846
-32.925	27.413	1284.345	1055.473
-31.911	27.517	1282.323	1054.372
-30.896	27.543	1280.998	1053.391
-29.881	27.585	1279.588	1052.430
-28.867	27.607	1278.363	1051.510
-27.852	27.535	1276.861	1049.814
-26.838	27.598	1275.277	1048.837
-25.823	27.497	1274.504	1047.575
-24.809	27.525	1273.020	1046.477
-23.794	27.409	1271.779	1044.748
-22.779	27.614	1269.823	1044.275
-21.765	27.517	1268.692	1042.746
-20.750	27.559	1267.770	1042.191
-19.736	27.454	1266.577	1040.565
-18.721	27.465	1265.040	1039.323
-17.706	27.389	1264.341	1038.274
-16.692	27.473	1263.317	1037.875
-15.677	27.401	1262.431	1036.695
-14.663	27.366	1261.198	1035.444
-13.648	27.471	1259.924	1034.954
-12.633	27.380	1259.252	1033.843
-11.619	27.351	1258.117	1032.704
-10.604	27.395	1257.298	1032.239
-9.590	27.366	1256.057	1031.018
-8.575	27.279	1255.635	1030.135
-7.560	27.302	1254.616	1029.388
-6.546	27.414	1253.694	1029.224
-5.531	27.360	1252.668	1028.035
-4.517	27.328	1251.832	1027.129
-3.502	27.401	1251.048	1026.856
-2.487	27.506	1250.025	1026.568
-1.473	27.285	1245.716	1021.748
-0.458	25.626	1230.988	1000.411
0.556	22.363	1213.210	961.299
1.571	18.510	1219.044	944.647
2.586	17.593	1233.491	950.641
3.600	17.086	1221.629	938.613
4.615	12.848	1150.776	861.977
5.629	6.185	1079.541	775.769
6.644	3.278	1062.212	749.121
7.659	3.107	1059.618	746.396
8.673	3.183	1058.442	745.874
9.688	3.262	1056.889	745.095
10.702	3.428	1054.649	744.252
11.717	7.134	1059.948	765.880
12.731	14.588	1070.614	809.817
13.746	19.260	1075.801	836.402
14.761	19.758	1076.588	839.357
15.775	19.075	1074.831	834.601
16.790	18.064	1072.923	828.151
17.804	17.305	1071.099	822.999
18.819	16.974	1070.630	820.962
19.834	16.941	1069.441	819.819
20.848	16.796	1068.507	818.331
21.863	16.516	1067.945	816.476
22.877	16.279	1067.697	815.071
23.892	16.418	1066.432	814.703
24.907	16.375	1065.954	814.054
25.921	16.437	1064.497	813.168
26.936	16.312	1063.781	811.951
27.950	16.441	1061.996	811.135
28.965	16.611	1060.146	810.465
29.980	16.686	1059.009	809.881
30.994	16.791	1057.980	809.524
32.009	16.650	1057.776	808.623
33.023	16.657	1056.705	807.768
34.038	16.661	1054.862	806.309
35.053	16.480	1054.747	805.286
36.067	16.600	1053.047	804.487
37.082	16.573	1052.418	803.808
38.096	16.682	1051.801	803.780
39.111	16.698	1050.966	803.147
40.126	16.516	1049.675	801.231
41.140	16.236	1048.132	798.657
42.155	16.259	1046.909	797.760
43.169	16.191	1046.441	797.012
44.184	16.149	1045.518	796.039
45.199	16.125	1044.387	794.999
46.213	16.319	1043.083	794.846
47.228	16.416	1042.442	794.744
48.242	16.711	1040.636	794.681
49.257	16.597	1040.053	793.631
50.271	16.581	1039.633	793.168
51.286	16.647	1038.320	792.403
52.301	16.525	1037.582	791.197
53.315	16.435	1036.075	789.562
54.330	16.331	1035.580	788.628
55.344	16.190	1034.831	787.329
56.359	16.415	1033.292	787.138
57.374	16.223	1032.777	785.779
58.388	16.231	1031.860	785.050
59.403	16.182	1030.970	784.078
60.417	16.139	1030.373	783.352
61.432	16.228	1029.136	782.754
62.447	15.960	1028.679	781.095
63.461	16.121	1027.528	780.901
64.476	16.045	1026.763	779.896
65.490	15.979	1025.905	778.873
66.505	15.959	1025.688	778.547
67.520	16.194	1024.414	778.592
68.534	16.034	1024.095	777.542
69.549	15.986	1023.201	776.576
70.563	16.084	1022.190	776.193
71.578	15.887	1021.434	774.643
72.593	15.725	1021.237	773.676
73.607	15.924	1019.692	773.354
74.622	15.985	1019.302	773.268
75.636	15.940	1018.723	772.554
76.651	16.028	1017.485	771.950
77.666	15.904	1017.307	771.182
78.680	16.109	1016.200	771.208
79.695	16.058	1016.082	770.821
80.709	16.048	1015.477	770.247
81.724	16.214	1014.850	770.458
82.739	16.316	1014.163	770.337
83.753	16.506	1013.531	770.654
84.768	16.726	1013.041	771.216
85.782	16.573	1012.112	769.746
86.797	16.664	1011.113	769.331
87.812	16.528	1010.011	767.805
88.826	16.460	1009.191	766.805
89.841	16.673	1008.258	766.994
90.855	16.666	1007.565	766.368
91.870	16.780	1006.519	766.019
92.884	16.667	1005.690	764.809
93.899	16.735	1004.656	764.264
94.914	16.766	1004.280	764.049
95.928	16.683	1003.473	762.995
96.943	16.642	1002.183	761.761
97.957	16.572	1001.595	760.934
98.972	16.614	1000.723	760.393
99.987	16.647	999.894	759.843
101.001	16.735	998.892	759.408
102.016	16.581	998.085	758.035
103.030	16.655	997.398	757.779
104.045	16.601	996.749	756.980
105.060	16.403	995.736	755.256
106.074	16.359	994.514	754.066
107.089	16.131	993.669	752.343
108.103	16.066	992.632	751.201
109.118	16.157	991.029	750.325
110.133	16.123	990.662	749.831
111.147	16.187	989.498	749.167
112.162	16.284	988.621	748.866
113.176	16.211	988.685	748.526
114.191	16.289	987.707	748.063
115.206	16.321	986.733	747.402
116.220	16.367	985.552	746.644
117.235	16.264	984.886	745.620
118.249	16.336	984.136	745.304
119.264	16.123	983.966	744.169
120.279	16.248	982.377	743.453
121.293	16.296	981.379	742.843
122.308	16.065	980.829	741.346
123.322	16.040	979.623	740.259
124.337	16.044	978.368	739.263
125.352	15.979	977.730	738.429
126.366	15.812	976.625	736.799
127.381	16.013	975.489	736.754
128.395	16.188	974.623	736.801
129.410	16.180	973.746	736.035
130.424	16.200	973.000	735.496
131.439	16.228	972.204	734.950
132.454	16.188	971.851	734.443
133.468	16.364	970.452	734.088
134.483	16.185	970.342	733.162
135.497	16.232	969.534	732.691
136.512	16.329	968.392	732.182
137.527	16.379	967.280	731.495
138.541	16.169	967.163	730.429
139.556	16.450	966.372	730.986
140.570	16.472	965.492	730.347
141.585	16.669	964.756	730.579
142.600	16.612	963.852	729.584
143.614	16.817	962.984	729.742
144.629	16.814	962.355	729.193
145.643	16.683	961.741	728.097
146.658	16.533	959.991	726.063
147.673	16.347	959.496	724.827
148.687	16.339	958.507	723.982
149.702	16.332	957.824	723.372
150.716	16.400	956.555	722.639
151.731	16.342	956.293	722.131
152.746	16.456	955.264	721.778
153.760	16.579	954.490	721.654
154.775	16.569	954.218	721.343
155.789	16.677	953.561	721.239
156.804	16.599	953.212	720.581
157.819	16.761	952.270	720.491
158.833	16.770	951.831	720.134
159.848	16.814	951.106	719.710
160.862	16.762	949.595	718.283
161.877	16.528	948.646	716.508
162.892	16.384	948.089	715.418
163.906	16.356	946.759	714.231
164.921	16.472	945.776	713.915
165.935	16.533	945.158	713.645
166.950	16.507	944.276	712.806
167.964	16.560	943.438	712.334
168.979	16.519	942.006	711.015
169.994	16.500	941.769	710.696
171.008	16.562	941.508	710.696
172.023	16.712	940.676	710.632
173.037	16.747	939.562	709.877
174.052	16.755	938.547	709.078
175.067	16.497	938.362	707.797
176.081	16.540	937.509	707.272
177.096	16.540	936.869	706.726
178.110	16.635	936.344	706.663
179.125	16.490	935.668	705.487
180.140	16.548	935.460	705.508
181.154	16.719	934.923	705.754
182.169	16.839	934.358	705.765
183.183	16.888	933.585	705.325
184.198	16.913	932.800	704.772
185.213	16.824	931.912	703.668
186.227	16.960	931.246	703.667
187.242	16.982	930.919	703.450
188.256	17.092	930.347	703.410
189.271	17.058	929.602	702.644
190.286	16.837	928.733	701.013
191.300	16.429	927.838	698.586
192.315	16.455	927.156	698.120
193.329	16.422	926.798	697.654
194.344	16.648	926.135	698.025
195.359	16.794	925.653	698.200
196.373	16.850	925.577	698.313
197.388	16.991	924.861	698.289
198.402	17.089	924.390	698.276
199.417	17.093	923.734	697.734
200.432	17.193	923.124	697.621
201.446	17.351	922.812	697.975
202.461	17.240	922.753	697.414
203.475	17.317	921.611	696.803
204.490	17.217	920.488	695.484
205.504	17.137	919.703	694.503
206.519	16.964	919.129	693.298
207.534	17.070	918.569	693.247
208.548	17.005	917.953	692.457
209.563	17.047	917.543	692.258
210.577	17.026	916.886	691.616
211.592	17.211	916.316	691.878
212.607	17.416	915.144	691.764
213.621	17.300	914.430	690.694
214.636	17.346	913.845	690.374
215.650	17.258	912.992	689.315
216.665	17.373	912.331	689.222
217.680	17.348	911.790	688.650
218.694	17.426	911.078	688.366
219.709	17.360	910.732	687.777
220.723	17.366	910.084	687.249
221.738	17.343	908.810	686.134
222.753	17.288	908.433	685.567
223.767	17.435	908.170	685.902
224.782	17.541	907.676	685.894
225.796	17.537	907.337	685.563
226.811	17.591	906.354	684.974
227.826	17.329	905.529	683.238
228.840	17.282	904.600	682.289
229.855	17.405	903.669	682.020
230.869	17.152	903.377	680.725
231.884	17.274	902.330	680.363
232.899	17.297	901.669	679.897
233.913	17.199	900.992	678.936
234.928	17.199	899.931	678.077
235.942	17.164	899.625	677.647
236.957	17.015	899.553	676.937
237.972	17.201	898.873	677.108
238.986	17.259	898.277	676.828
240.001	17.362	897.195	676.364
241.015	17.125	897.025	675.233
242.030	17.274	896.497	675.367
243.045	17.345	895.791	675.058
244.059	17.378	895.315	674.772
245.074	17.522	894.575	674.722
246.088	17.523	894.004	674.239
247.103	17.796	893.111	674.583
248.117	17.720	893.008	674.147
249.132	17.989	892.738	674.944
250.147	18.045	892.147	674.658
251.161	18.169	891.427	674.543
252.176	18.165	890.872	674.051
253.190	18.148	890.044	673.297
254.205	18.172	889.504	672.920
255.220	17.999	889.019	671.815
256.234	18.178	887.934	671.638
257.249	18.133	887.475	671.055
258.263	18.161	886.700	670.520
259.278	18.166	886.117	670.041
260.293	18.312	885.283	669.920
261.307	18.271	885.269	669.690
262.322	18.283	884.508	669.105
263.336	18.294	883.895	668.622
264.351	18.439	883.130	668.552
265.366	18.417	882.419	667.869
266.380	18.247	881.991	666.822
267.395	18.235	881.325	666.214
268.409	18.203	879.916	664.966
269.424	18.293	879.411	664.876
270.439	18.062	878.885	663.521
271.453	18.124	877.942	662.991
272.468	18.098	877.889	662.793
273.482	18.072	877.302	662.188
274.497	18.066	876.921	661.817
275.512	18.171	876.004	661.476
276.526	18.138	875.287	660.748
277.541	18.263	874.914	660.890
278.555	18.435	874.448	661.142
279.570	18.493	873.732	660.766
280.585	18.486	873.152	660.242
281.599	18.239	872.399	658.666
282.614	18.214	871.744	658.016
283.628	18.313	870.882	657.686
284.643	18.241	870.592	657.132
285.657	18.363	869.553	656.759
286.672	18.185	869.357	655.871
287.687	18.270	868.441	655.445
288.701	18.382	868.183	655.622
289.716	18.338	868.019	655.272
290.730	18.331	867.165	654.542
291.745	18.453	866.411	654.381
292.760	18.523	865.716	654.065
293.774	18.590	865.100	653.799
294.789	18.505	864.614	653.048
295.803	18.374	863.737	651.830
296.818	18.434	862.690	651.210
297.833	18.389	862.205	650.616
298.847	18.534	861.503	650.581
299.862	18.457	861.560	650.271
300.876	18.498	861.011	649.957
301.891	18.637	860.465	650.013
302.906	18.728	859.939	649.904
303.920	18.912	859.162	649.953
304.935	18.906	858.630	649.472
305.949	18.872	857.721	648.597
306.964	18.837	857.286	648.078
307.979	18.683	856.711	647.008
308.993	18.819	856.154	647.041
310.008	18.916	855.405	646.781
311.022	18.668	855.319	645.727
312.037	18.647	854.377	644.882
313.052	18.646	853.207	643.935
314.066	18.627	853.184	643.791
315.081	18.517	852.556	642.848
316.095	18.525	851.801	642.251
317.110	18.477	851.787	642.003
318.125	18.487	851.039	641.420
319.139	18.462	850.926	641.186
320.154	18.649	849.834	641.003
321.168	18.646	849.567	640.735
322.183	18.769	848.903	640.637
323.197	18.614	848.622	639.789
324.212	18.778	847.937	639.827
325.227	18.629	847.392	638.806
326.241	18.720	846.424	638.356
327.256	18.700	846.121	637.996
328.270	18.740	845.442	637.579
329.285	18.735	844.818	637.032
330.300	18.652	844.332	636.302
331.314	18.780	843.548	636.130
332.329	18.699	843.531	635.758
333.343	18.930	843.127	636.256
334.358	18.844	842.691	635.552
335.373	19.024	842.034	635.663
336.387	18.967	841.713	635.156
337.402	19.164	841.713	635.825
338.416	19.153	841.795	635.791
339.431	19.166	841.550	635.597
340.446	19.191	840.562	634.886
341.460	19.232	840.650	635.048
342.475	19.311	840.121	634.884
343.489	19.380	839.588	634.680
344.504	19.420	838.837	634.202
345.519	19.467	838.279	633.896
346.533	19.475	837.894	633.581
347.548	19.276	837.193	632.264
348.562	19.403	836.136	631.873
349.577	19.105	836.083	630.686
350.592	19.128	835.194	630.046
351.606	19.118	834.683	629.567
352.621	19.043	833.949	628.683
353.635	19.073	833.926	628.721
354.650	19.248	832.561	628.275
355.665	19.302	831.948	627.951
356.679	19.269	831.785	627.652
357.694	19.261	831.077	627.033
358.708	19.221	830.581	626.458
359.723	19.321	829.774	626.157
360.738	19.338	829.140	625.688
361.752	19.283	828.819	625.190
362.767	19.464	828.141	625.277
363.781	19.612	827.970	625.631
364.796	19.477	827.576	624.787
365.810	19.786	827.105	625.494
366.825	19.777	826.463	624.920
367.840	19.681	826.324	624.415
368.854	19.598	825.803	623.665
369.869	19.561	825.191	623.015
370.883	19.664	825.061	623.233
371.898	19.654	824.568	622.770
372.913	19.834	823.980	622.920
373.927	19.685	823.326	621.833
374.942	19.793	822.816	621.781
375.956	19.724	822.589	621.305
376.971	19.924	821.760	621.343
377.986	19.862	822.045	621.282
379.000	19.984	821.131	620.972
380.015	19.832	821.142	620.382
381.029	20.014	820.150	620.228
382.044	20.048	819.420	619.743
383.059	19.964	819.036	619.096
384.073	19.863	818.336	618.151
385.088	19.761	817.534	617.130
386.102	19.726	816.898	616.469
387.117	19.699	816.194	615.786
388.132	19.628	816.094	615.404
389.146	19.768	815.334	615.276
390.161	20.025	814.741	615.687
391.175	19.988	814.382	615.228
392.190	19.856	813.703	614.193
393.205	19.808	813.387	613.730
394.219	19.839	812.891	613.411
395.234	19.733	812.492	612.680
396.248	19.646	812.206	612.101
397.263	19.540	811.723	611.308
398.278	19.746	811.027	611.458
399.292	19.774	810.960	611.455
400.307	19.602	810.718	610.610
401.321	19.668	809.817	610.108
402.336	19.786	809.468	610.210
403.350	19.834	809.179	610.104
404.365	20.036	808.377	610.161
405.380	20.137	808.023	610.192
406.394	20.035	807.762	609.582
407.409	20.364	807.452	610.452
408.423	20.175	807.257	609.586
409.438	20.354	806.429	609.536
410.453	20.370	806.356	609.484
411.467	20.432	805.738	609.179
412.482	20.491	805.292	608.996
413.496	20.408	805.300	608.656
414.511	20.494	804.863	608.575
415.526	20.351	804.301	607.594
416.540	20.339	803.713	607.054
417.555	20.303	803.317	606.574
418.569	20.360	803.078	606.541
419.584	20.471	802.220	606.225
420.599	20.544	801.905	606.188
421.613	161.944	1372.812	1796.904
422.628	140.650	1455.982	1796.980
