DTS Sentinel unit serial number:	SN413079Multiplexer serial number:	ORYXHardware model number:	OX4-SRSoftware version number:	ORYX F/W v4.00 Oryx Data Collector v3.7.2.0data status	okinstallation	princeton_trtdifferential loss correction	single-endedforward channel	channel 1reverse channel	N/Adate	2019/09/18time	02:50:35forward acquisition time	60.00reverse acquisition time	0.00gamma	496.2192k internal	0.2341k external	0.2341temperature offset calibration	0.9974default loss term (dB/km)	0.3790temperature slope calibration	1.0000multiplexer offset coefficient	1.0000multiplexer slope coefficient	1.0000fibre end	0.00T internal ref (°C)	22.77T ext. ref 1 (°C)	0.17T ext. ref 2 (°C)	16.60length (m)	temperature (°C)	Stokes	anti-Stokes-747.200	-2.028	0.208	-0.146
-746.185	-200.000	0.011	0.163
-745.171	-200.000	0.005	0.300
-744.156	-30.624	-0.172	0.097
-743.142	100.079	0.068	0.079
-742.127	67.931	-0.327	-0.335
-741.112	-200.000	-0.017	-0.081
-740.098	-108.468	-0.345	-0.074
-739.083	-120.733	-0.135	0.023
-738.069	425.377	-0.146	0.316
-737.054	-0.635	-0.346	0.246
-736.039	800.000	-0.083	-0.230
-735.025	165.502	0.306	0.434
-734.010	526.717	0.052	-0.122
-732.996	53.959	-0.226	-0.218
-731.981	-200.000	-0.058	-0.304
-730.966	-200.000	-0.043	-0.246
-729.952	-200.000	0.042	-0.217
-728.937	-200.000	0.008	-0.134
-727.923	65.352	-0.272	-0.275
-726.908	653.067	-0.063	-0.162
-725.894	-51.135	0.161	-0.076
-724.879	-200.000	0.011	-0.184
-723.864	-51.110	-0.471	-0.221
-722.850	187.795	0.210	-0.315
-721.835	-200.000	-0.035	-0.153
-720.821	-94.949	0.293	0.079
-719.806	136.749	0.069	0.090
-718.791	-119.759	-0.348	-0.060
-717.777	-61.305	0.308	0.130
-716.762	-97.021	-0.383	0.101
-715.748	-93.549	0.100	-0.028
-714.733	-37.766	0.066	-0.035
-713.718	143.840	-0.233	-0.311
-712.704	-112.539	-0.243	-0.048
-711.689	-109.434	-0.184	-0.039
-710.675	100.680	0.132	-0.154
-709.660	-81.511	0.328	0.108
-708.645	-200.000	-0.009	-0.394
-707.631	-113.462	0.140	-0.027
-706.616	-200.000	-0.013	-0.097
-705.602	-131.549	0.210	-0.028
-704.587	78.142	-0.084	0.089
-703.572	29.256	-0.127	0.108
-702.558	-16.443	0.049	0.031
-701.543	-200.000	-0.024	-0.174
-700.529	-126.884	-0.070	0.010
-699.514	-108.254	-0.365	-0.079
-698.499	140.282	0.039	-0.052
-697.485	268.800	-0.213	-0.373
-696.470	-37.414	0.203	-0.108
-695.456	-68.370	-0.184	0.071
-694.441	-25.845	-0.090	-0.053
-693.426	-64.323	-0.241	0.098
-692.412	-152.271	-0.354	-0.026
-691.397	120.451	0.071	-0.088
-690.383	-34.620	-0.146	0.080
-689.368	-51.499	0.317	0.148
-688.354	0.814	-0.141	-0.101
-687.339	-169.446	0.229	0.008
-686.324	-171.727	0.331	-0.011
-685.310	120.824	-0.112	-0.140
-684.295	-109.859	0.039	0.008
-683.281	631.873	-0.083	-0.210
-682.266	16.650	-0.185	-0.146
-681.251	78.756	0.223	-0.238
-680.237	75.438	-0.065	0.069
-679.222	-200.000	0.096	0.482
-678.208	-99.258	0.333	0.084
-677.193	62.034	-0.083	-0.082
-676.178	-108.973	-0.282	-0.060
-675.164	-186.421	0.180	0.003
-674.149	333.533	-0.073	-0.142
-673.135	239.260	-0.059	-0.098
-672.120	296.855	-0.117	0.214
-671.105	800.000	0.065	0.270
-670.091	88.079	-0.216	0.240
-669.076	-200.000	-0.052	-0.388
-668.062	320.699	0.126	-0.240
-667.047	500.454	0.116	-0.267
-666.032	293.006	-0.130	0.237
-665.018	-131.240	0.281	-0.037
-664.003	-94.603	0.115	-0.031
-662.989	257.973	-0.266	0.458
-661.974	234.133	0.107	0.176
-660.959	-62.625	0.121	-0.050
-659.945	-109.450	-0.133	-0.028
-658.930	541.105	-0.071	-0.169
-657.916	-137.459	-0.202	0.023
-656.901	528.907	-0.038	-0.089
-655.886	-116.482	0.046	0.008
-654.872	439.584	-0.104	0.228
-653.857	800.000	0.103	-0.308
-652.843	-200.000	-0.019	0.167
-651.828	-33.345	-0.327	-0.181
-650.814	800.000	0.136	-0.548
-649.799	588.204	-0.095	0.233
-648.784	288.360	-0.219	0.395
-647.770	233.172	0.149	-0.245
-646.755	800.000	-0.054	0.153
-645.741	800.000	-0.079	-0.224
-644.726	-200.000	-0.028	0.144
-643.711	76.806	-0.223	-0.237
-642.697	-124.881	-0.303	-0.047
-641.682	-200.000	-0.054	0.289
-640.668	-200.000	0.003	0.195
-639.653	20.017	0.097	0.078
-638.638	81.019	-0.130	0.141
-637.624	38.031	0.134	0.119
-636.609	5.817	-0.054	-0.040
-635.595	-37.214	-0.116	-0.062
-634.580	-138.105	-0.238	-0.026
-633.565	177.763	-0.042	-0.062
-632.551	79.948	-0.092	0.099
-631.536	500.342	0.098	-0.226
-630.522	-58.243	-0.200	-0.087
-629.507	-22.053	-0.271	-0.164
-628.492	-77.617	0.141	0.049
-627.478	-200.000	0.060	-0.353
-626.463	37.393	-0.115	-0.102
-625.449	49.819	0.088	-0.082
-624.434	-117.626	-0.039	0.007
-623.419	96.783	-0.231	0.264
-622.405	-10.096	0.355	0.235
-621.390	-56.220	0.236	0.105
-620.376	800.000	-0.128	-0.431
-619.361	-200.000	-0.035	0.169
-618.346	-80.067	0.192	-0.064
-617.332	-97.198	0.148	-0.038
-616.317	-79.893	0.098	0.033
-615.303	152.728	0.060	0.081
-614.288	53.980	0.283	0.272
-613.273	-200.000	-0.002	0.084
-612.259	383.665	-0.090	-0.184
-611.244	17.622	0.079	0.063
-610.230	-200.000	-0.047	0.293
-609.215	-166.178	0.162	-0.007
-608.201	-200.000	-0.058	-0.256
-607.186	-9.355	-0.108	0.072
-606.171	180.277	-0.050	0.074
-605.157	257.852	-0.136	-0.233
-604.142	-154.483	-0.162	-0.011
-603.128	-90.791	0.169	0.049
-602.113	-114.621	-0.122	0.023
-601.098	-105.985	-0.170	-0.038
-600.084	194.471	0.058	-0.088
-599.069	594.860	0.077	-0.190
-598.055	-200.000	0.032	0.228
-597.040	-200.000	0.018	-0.391
-596.025	-200.000	0.044	-0.238
-595.011	-194.433	-0.375	-0.003
-593.996	-200.000	0.073	-0.410
-592.982	258.810	-0.144	0.247
-591.967	267.668	0.073	0.127
-590.952	800.000	-0.094	0.328
-589.938	-200.000	0.489	0.000
-588.923	-200.000	0.055	-0.358
-587.909	555.215	-0.065	0.156
-586.894	38.120	0.216	-0.191
-585.879	-57.017	-0.297	-0.130
-584.865	-129.592	-0.217	-0.030
-583.850	30.586	-0.143	-0.122
-582.836	-118.176	-0.354	-0.063
-581.821	-200.000	-0.025	-0.294
-580.806	-46.149	-0.095	-0.046
-579.792	-123.185	0.069	-0.011
-578.777	800.000	-0.049	0.183
-577.763	56.980	-0.301	-0.292
-576.748	-160.176	0.199	-0.011
-575.733	401.892	0.025	-0.053
-574.719	-156.140	-0.036	-0.002
-573.704	-200.000	-0.014	0.072
-572.690	-114.507	-0.113	-0.022
-571.675	800.000	0.042	0.144
-570.661	-200.000	0.016	-0.284
-569.646	121.313	-0.155	-0.192
-568.631	-200.000	0.003	-0.014
-567.617	333.175	0.101	0.194
-566.602	-82.394	0.250	0.081
-565.588	-10.100	-0.107	0.070
-564.573	-86.755	0.222	-0.067
-563.558	800.000	0.043	-0.121
-562.544	282.532	-0.047	0.083
-561.529	-40.895	0.077	0.040
-560.515	-92.721	0.069	0.019
-559.500	-200.000	-0.059	0.358
-558.485	487.856	-0.060	-0.137
-557.471	-200.000	0.017	0.074
-556.456	755.715	0.073	-0.196
-555.442	-113.251	0.406	-0.079
-554.427	-115.843	-0.296	-0.055
-553.412	-128.424	-0.293	0.041
-552.398	800.000	-0.031	0.118
-551.383	-1.623	-0.141	0.099
-550.369	-24.169	-0.227	-0.135
-549.354	-37.249	-0.143	0.076
-548.339	49.439	-0.204	0.191
-547.325	358.110	-0.047	0.094
-546.310	16.979	0.091	0.071
-545.296	47.455	-0.033	0.030
-544.281	-104.162	-0.129	0.030
-543.266	-59.693	-0.091	-0.039
-542.252	2.748	-0.362	0.261
-541.237	-112.281	0.233	-0.046
-540.223	-25.092	-0.134	-0.079
-539.208	-99.382	0.201	0.050
-538.193	-200.000	0.009	0.168
-537.179	-92.743	-0.147	0.041
-536.164	129.010	0.045	-0.058
-535.150	415.895	-0.080	0.169
-534.135	-36.270	-0.096	-0.051
-533.121	-200.000	0.070	-0.366
-532.106	-83.853	-0.433	-0.137
-531.091	-120.598	-0.141	0.024
-530.077	-12.277	-0.408	-0.265
-529.062	-200.000	0.010	0.221
-528.048	74.939	-0.135	-0.141
-527.033	517.341	-0.086	-0.200
-526.018	-200.000	0.037	-0.235
-525.004	800.000	0.056	0.229
-523.989	95.554	-0.194	0.220
-522.975	-47.709	-0.089	0.043
-521.960	38.735	0.322	0.286
-520.945	-66.176	-0.340	-0.135
-519.931	226.617	0.169	0.273
-518.916	800.000	-0.041	-0.133
-517.902	567.712	0.013	-0.031
-516.887	623.832	0.079	0.198
-515.872	-15.238	0.280	-0.178
-514.858	77.032	0.205	0.216
-513.843	-78.052	-0.266	0.091
-512.829	-145.422	-0.262	-0.023
-511.814	95.627	0.146	-0.165
-510.799	-152.362	-0.111	-0.008
-509.785	-115.723	-0.287	0.053
-508.770	-43.714	0.324	-0.162
-507.756	95.166	0.080	0.090
-506.741	-152.496	-0.133	-0.009
-505.726	-104.222	-0.168	-0.039
-504.712	3.446	0.080	0.058
-503.697	339.832	0.090	0.175
-502.683	-164.248	0.093	-0.004
-501.668	-146.164	0.112	0.010
-500.653	-139.589	-0.419	-0.044
-499.639	-2.158	-0.214	-0.149
-498.624	800.000	0.065	-0.181
-497.610	65.270	0.221	0.222
-496.595	-102.704	0.211	0.050
-495.581	80.997	-0.163	0.175
-494.566	-26.399	-0.226	0.132
-493.551	800.000	-0.065	-0.183
-492.537	800.000	0.069	-0.255
-491.522	305.305	-0.066	-0.122
-490.508	425.502	0.147	0.313
-489.493	-91.055	-0.033	-0.009
-488.478	292.240	-0.084	-0.153
-487.464	304.584	0.242	0.445
-486.449	800.000	-0.062	-0.267
-485.435	-82.527	-0.178	0.057
-484.420	800.000	-0.098	-0.329
-483.405	-200.000	-0.005	-0.101
-482.391	-200.000	-0.037	0.294
-481.376	57.456	0.122	0.118
-480.362	-16.159	-0.478	-0.301
-479.347	-32.633	-0.240	-0.133
-478.332	42.875	0.238	-0.215
-477.318	-200.000	-0.029	-0.157
-476.303	800.000	0.057	0.235
-475.289	-6.058	-0.436	0.296
-474.274	323.677	0.211	0.400
-473.259	-114.125	0.167	0.032
-472.245	465.744	0.119	-0.265
-471.230	-170.320	-0.312	-0.011
-470.216	334.361	0.201	0.385
-469.201	-74.122	-0.460	0.165
-468.186	12.018	-0.383	0.292
-467.172	-200.000	-0.017	0.299
-466.157	-60.566	0.417	0.176
-465.143	-200.000	0.017	-0.088
-464.128	-200.000	0.016	-0.317
-463.113	-93.367	-0.113	0.031
-462.099	432.257	-0.109	0.234
-461.084	311.958	-0.028	0.052
-460.070	290.313	-0.107	-0.192
-459.055	413.409	-0.093	-0.197
-458.040	-38.315	0.110	-0.058
-457.026	-200.000	-0.022	0.138
-456.011	-200.000	-0.088	-0.423
-454.997	800.000	0.072	-0.297
-453.982	152.655	0.196	0.266
-452.968	69.495	-0.121	-0.123
-451.953	-200.000	0.024	-0.118
-450.938	3.352	0.126	-0.091
-449.924	12.707	0.162	-0.124
-448.909	800.000	-0.018	-0.050
-447.895	-200.000	-0.028	0.145
-446.880	-36.777	0.198	-0.105
-445.865	-88.508	0.249	-0.073
-444.851	800.000	-0.053	-0.231
-443.836	-70.464	0.063	0.024
-442.822	60.907	0.149	0.146
-441.807	641.372	0.114	0.287
-440.792	-200.000	0.003	0.077
-439.778	201.825	-0.096	0.146
-438.763	-179.618	-0.174	-0.004
-437.749	75.350	-0.136	-0.143
-436.734	-92.072	-0.245	-0.068
-435.719	-54.529	0.104	-0.047
-434.705	-114.907	0.115	0.022
-433.690	-52.171	-0.148	-0.068
-432.676	-165.792	0.379	0.016
-431.661	-200.000	0.016	-0.283
-430.646	173.827	0.248	0.355
-429.632	-61.964	0.138	0.057
-428.617	-61.175	0.153	0.064
-427.603	-71.541	-0.142	-0.053
-426.588	4.728	0.083	-0.061
-425.573	241.422	0.133	-0.220
-424.559	710.121	0.094	0.245
-423.544	153.769	0.099	-0.134
-422.530	800.000	0.080	0.295
-421.515	21.898	-0.088	0.071
-420.500	-84.432	0.396	-0.124
-419.486	27.471	0.358	-0.298
-418.471	800.000	-0.057	-0.195
-417.457	59.396	-0.130	-0.127
-416.442	2.097	0.176	-0.126
-415.428	191.498	0.174	-0.259
-414.413	38.068	0.115	0.101
-413.398	63.954	-0.087	0.087
-412.384	-200.000	-0.055	0.357
-411.369	-154.358	-0.331	0.022
-410.355	-16.620	-0.214	0.134
-409.340	800.000	0.163	-0.499
-408.325	322.274	-0.090	0.169
-407.311	-118.098	-0.262	-0.046
-406.296	78.231	-0.193	-0.204
-405.282	800.000	-0.074	-0.211
-404.267	-171.826	0.161	-0.005
-403.252	777.462	-0.018	-0.048
-402.238	-135.145	-0.178	-0.021
-401.223	653.368	0.139	-0.353
-400.209	-200.000	0.020	0.185
-399.194	-64.241	-0.248	0.100
-398.179	800.000	-0.032	0.115
-397.165	116.839	-0.199	0.242
-396.150	-200.000	-0.003	0.104
-395.136	-27.306	0.231	0.133
-394.121	-200.000	0.001	-0.023
-393.106	8.481	0.118	0.088
-392.092	800.000	-0.008	-0.026
-391.077	137.651	0.091	0.118
-390.063	426.875	-0.123	0.263
-389.048	-200.000	0.055	0.361
-388.033	-101.983	-0.343	-0.082
-387.019	509.541	0.148	0.340
-386.004	75.135	0.162	0.169
-384.990	800.000	0.039	-0.160
-383.975	-110.809	-0.300	0.061
-382.960	800.000	-0.067	-0.215
-381.946	274.405	0.094	0.165
-380.931	-111.130	-0.347	-0.070
-379.917	66.963	0.128	0.129
-378.902	71.010	-0.057	-0.058
-377.888	-0.129	-0.198	-0.139
-376.873	-200.000	-0.061	-0.269
-375.858	-27.071	-0.204	0.117
-374.844	38.481	0.029	0.025
-373.829	-71.003	-0.072	-0.027
-372.815	-200.000	-0.006	0.178
-371.800	143.647	-0.058	-0.076
-370.785	800.000	-0.023	-0.087
-369.771	-86.270	-0.175	-0.053
-368.756	-54.649	0.171	-0.077
-367.742	-95.528	0.238	0.063
-366.727	35.912	0.054	0.047
-365.712	158.921	0.004	0.006
-364.698	-183.971	-0.263	0.004
-363.683	558.704	0.152	-0.362
-362.669	-200.000	0.005	0.301
-361.654	199.689	-0.083	0.126
-360.639	800.000	0.044	0.186
-359.625	380.706	0.127	-0.258
-358.610	373.337	-0.084	0.170
-357.596	-89.042	0.237	0.069
-356.581	23.448	-0.202	0.164
-355.566	257.071	-0.136	-0.231
-354.552	93.158	0.093	0.104
-353.537	-57.824	0.072	-0.031
-352.523	-120.173	0.142	0.024
-351.508	-200.000	0.007	0.100
-350.493	96.960	0.097	0.110
-349.479	144.955	0.104	-0.137
-348.464	372.224	-0.091	-0.182
-347.450	-51.140	-0.062	0.028
-346.435	613.482	0.140	0.346
-345.420	118.677	0.246	0.300
-344.406	84.218	0.150	-0.162
-343.391	800.000	0.070	-0.216
-342.377	50.558	-0.192	0.179
-341.362	-151.087	0.187	-0.014
-340.348	597.587	0.034	-0.083
-339.333	164.602	0.137	-0.191
-338.318	800.000	-0.115	-0.350
-337.304	-151.363	-0.030	0.002
-336.289	101.289	0.120	0.138
-335.275	272.001	0.081	0.141
-334.260	-200.000	-0.039	0.198
-333.245	-200.000	0.009	0.085
-332.231	-61.986	0.240	0.099
-331.216	-67.362	0.458	-0.178
-330.202	406.561	-0.025	-0.051
-329.187	-200.000	-0.003	0.081
-328.172	-11.992	0.184	-0.119
-327.158	35.068	0.123	-0.106
-326.143	-87.021	0.136	0.041
-325.129	-160.818	0.152	-0.008
-324.114	141.541	0.117	0.153
-323.099	-124.060	-0.289	-0.045
-322.085	183.794	0.129	0.188
-321.070	800.000	0.053	0.200
-320.056	113.627	0.154	-0.184
-319.041	-199.073	-0.135	0.001
-318.026	171.195	0.029	-0.042
-317.012	-200.000	0.010	-0.209
-315.997	-97.852	-0.008	0.002
-314.983	-139.268	0.249	0.026
-313.968	295.649	-0.104	-0.187
-312.953	-37.045	0.206	0.109
-311.939	-133.056	0.484	-0.061
-310.924	-68.547	-0.224	-0.086
-309.910	-14.052	-0.457	-0.291
-308.895	66.672	0.284	0.284
-307.880	-144.508	-0.249	-0.023
-306.866	123.383	0.125	0.154
-305.851	771.137	0.138	0.370
-304.837	-42.184	-0.123	0.062
-303.822	19.565	0.069	0.055
-302.807	146.645	0.201	0.266
-301.793	-200.000	0.040	0.304
-300.778	-51.981	0.247	0.113
-299.764	-200.000	-0.051	-0.234
-298.749	-78.594	-0.226	0.076
-297.735	800.000	0.049	-0.196
-296.720	-200.000	0.004	0.158
-295.705	-169.786	-0.060	0.002
-294.691	-71.409	0.060	0.022
-293.676	-101.149	0.429	0.103
-292.662	386.727	0.062	0.127
-291.647	-200.000	-0.036	-0.227
-290.632	156.263	0.184	-0.250
-289.618	64.384	0.124	-0.123
-288.603	386.713	0.104	-0.212
-287.589	-200.000	-0.021	0.111
-286.574	-200.000	-0.016	-0.078
-285.559	293.649	0.152	0.273
-284.545	-70.916	-0.510	-0.189
-283.530	105.381	0.093	0.108
-282.516	-200.000	0.011	0.336
-281.501	36.875	-0.030	-0.026
-280.486	-65.558	-0.186	0.073
-279.472	-171.323	-0.088	-0.003
-278.457	-99.543	-0.155	-0.038
-277.443	108.068	0.252	-0.296
-276.428	84.705	0.170	-0.183
-275.413	-42.658	0.163	-0.082
-274.399	-139.707	0.247	0.026
-273.384	412.207	0.047	0.098
-272.370	-200.000	0.270	-0.001
-271.355	86.743	0.116	0.126
-270.340	-200.000	0.009	-0.201
-269.326	55.647	-0.000	0.000
-268.311	28.470	0.248	-0.206
-267.297	534.051	0.112	-0.261
-266.282	141.108	-0.143	0.186
-265.267	-75.590	-0.132	-0.046
-264.253	800.000	-0.038	0.106
-263.238	87.106	0.149	-0.162
-262.224	40.161	0.053	0.047
-261.209	32.906	0.320	0.273
-260.195	-152.988	0.383	0.027
-259.180	-92.220	-0.132	0.037
-258.165	101.676	0.189	-0.217
-257.151	-92.157	-0.127	-0.035
-256.136	-48.763	-0.196	0.092
-255.122	97.599	0.301	-0.340
-254.107	-122.939	-0.255	0.040
-253.092	-120.247	-0.176	-0.029
-252.078	-95.812	-0.281	-0.074
-251.063	-74.631	-0.198	0.070
-250.049	-200.000	0.049	0.252
-249.034	-135.610	0.143	0.017
-248.019	28.500	0.103	0.085
-247.005	-9.214	-0.053	-0.035
-245.990	800.000	-0.072	-0.288
-244.976	-178.442	-0.102	-0.002
-243.961	-139.980	0.368	0.038
-242.946	-35.513	-0.117	-0.062
-241.932	396.127	-0.048	-0.099
-240.917	23.087	0.051	0.041
-239.903	212.136	0.047	0.073
-238.888	-13.376	-0.189	0.121
-237.873	-134.385	0.572	0.069
-236.859	-113.843	0.108	0.021
-235.844	-200.000	-0.028	-0.217
-234.830	-177.237	-0.205	-0.005
-233.815	394.198	-0.120	0.245
-232.800	440.805	0.016	-0.034
-231.786	-200.000	-0.056	-0.352
-230.771	-200.000	-0.026	0.408
-229.757	800.000	0.102	0.286
-228.742	356.008	-0.227	0.444
-227.727	101.637	0.029	-0.033
-226.713	74.002	0.170	0.175
-225.698	108.275	0.140	-0.164
-224.684	15.573	-0.297	0.229
-223.669	-200.000	-0.038	0.181
-222.655	-200.000	-0.055	-0.241
-221.640	229.202	0.287	-0.460
-220.625	-94.382	-0.066	-0.018
-219.611	-85.734	0.291	0.089
-218.596	-151.689	0.116	0.008
-217.582	162.670	-0.222	-0.305
-216.567	-146.446	-0.294	0.025
-215.552	-135.029	-0.065	-0.008
-214.538	247.179	-0.071	0.118
-213.523	800.000	-0.061	0.241
-212.509	-94.045	-0.243	-0.066
-211.494	-200.000	0.055	0.393
-210.479	89.076	-0.334	0.365
-209.465	113.039	-0.202	-0.241
-208.450	250.615	0.116	0.193
-207.436	-59.620	0.195	0.082
-206.421	47.059	-0.107	-0.098
-205.406	-200.000	0.031	-0.258
-204.392	328.411	-0.126	-0.238
-203.377	266.830	-0.090	-0.154
-202.363	-0.161	0.246	-0.172
-201.348	-200.000	0.029	0.199
-200.333	109.870	-0.183	-0.216
-199.319	182.823	-0.213	-0.308
-198.304	-151.862	0.121	0.009
-197.290	-200.000	0.003	0.230
-196.275	210.053	0.082	0.126
-195.260	261.747	0.040	0.069
-194.246	-44.212	0.413	0.203
-193.231	-178.707	-0.171	0.004
-192.217	-20.959	-0.021	-0.013
-191.202	204.233	0.172	0.262
-190.187	-19.480	0.216	0.131
-189.173	800.000	0.028	0.088
-188.158	-11.489	-0.210	-0.136
-187.144	37.256	0.210	-0.183
-186.129	-79.959	-0.292	-0.096
-185.114	-4.481	-0.122	0.083
-184.100	551.622	-0.066	0.156
-183.085	-98.221	-0.264	-0.067
-182.071	-83.702	0.154	0.048
-181.056	-147.840	-0.145	0.012
-180.042	84.907	0.158	-0.170
-179.027	444.674	0.107	0.230
-178.012	800.000	-0.069	-0.253
-176.998	13.559	0.241	0.183
-175.983	-10.141	0.306	-0.199
-174.969	800.000	0.075	-0.303
-173.954	-88.972	-0.050	0.014
-172.939	800.000	0.030	-0.121
-171.925	-115.782	0.273	0.050
-170.910	-95.410	0.234	-0.062
-169.896	-95.705	-0.117	-0.031
-168.881	800.000	-0.101	0.302
-167.866	16.254	-0.294	-0.227
-166.852	-32.243	0.104	-0.057
-165.837	-200.000	-0.039	0.227
-164.823	127.335	-0.250	-0.311
-163.808	-200.000	-0.024	0.294
-162.793	-68.309	-0.166	0.063
-161.779	701.305	0.160	-0.414
-160.764	-57.389	-0.089	0.038
-159.750	-200.000	0.034	-0.350
-158.735	85.436	0.069	-0.074
-157.720	-61.927	0.279	-0.114
-156.706	193.638	-0.192	-0.285
-155.691	-102.368	0.024	0.006
-154.677	-85.759	0.157	-0.048
-153.662	58.752	-0.075	0.072
-152.647	18.980	0.370	-0.290
-151.633	-200.000	0.009	0.179
-150.618	163.005	0.076	0.104
-149.604	203.557	-0.048	-0.073
-148.589	-50.478	-0.050	-0.023
-147.574	800.000	0.050	0.165
-146.560	800.000	0.054	0.170
-145.545	162.617	0.213	0.292
-144.531	-108.175	-0.056	0.012
-143.516	800.000	0.024	0.097
-142.502	-197.342	-0.342	-0.002
-141.487	800.000	0.070	0.294
-140.472	656.391	0.004	-0.011
-139.458	39.982	-0.068	-0.059
-138.443	-3.441	0.156	0.106
-137.429	-200.000	0.044	-0.296
-136.414	470.204	-0.082	-0.180
-135.399	-105.494	0.249	-0.055
-134.385	348.617	-0.123	0.237
-133.370	148.378	0.050	-0.065
-132.356	129.174	-0.136	-0.170
-131.341	-200.000	0.031	0.155
-130.326	699.295	-0.052	-0.134
-129.312	327.618	-0.013	-0.024
-128.297	87.749	0.134	-0.146
-127.283	666.800	-0.096	-0.243
-126.268	283.935	0.036	-0.063
-125.253	-200.000	-0.048	0.399
-124.239	254.071	-0.106	-0.178
-123.224	83.513	0.134	0.143
-122.210	-76.327	0.028	0.009
-121.195	-16.874	-0.321	0.199
-120.180	-200.000	0.001	0.354
-119.166	-200.000	0.017	-0.153
-118.151	-130.819	-0.129	0.017
-117.137	134.518	0.154	0.196
-116.122	-200.000	-0.008	-0.066
-115.107	800.000	-0.038	-0.134
-114.093	-134.447	0.178	0.021
-113.078	47.287	-0.223	0.203
-112.064	800.000	0.019	0.071
-111.049	-166.155	-0.249	0.010
-110.034	373.951	-0.104	-0.208
-109.020	-142.415	0.251	-0.024
-108.005	-72.617	0.069	0.025
-106.991	800.000	0.081	-0.343
-105.976	-58.048	0.247	-0.105
-104.962	-200.000	0.020	0.144
-103.947	-87.885	-0.259	0.076
-102.932	-200.000	0.111	0.001
-101.918	-200.000	0.004	-0.203
-100.903	71.014	-0.162	0.164
-99.889	180.624	-0.154	0.221
-98.874	99.249	0.142	-0.161
-97.859	220.521	-0.070	-0.110
-96.845	-200.000	-0.031	-0.162
-95.830	-190.981	-0.478	0.005
-94.816	-133.063	0.464	-0.058
-93.801	-75.823	0.127	0.044
-92.786	-80.391	-0.302	0.099
-91.772	800.000	-0.180	-0.485
-90.757	-200.000	0.038	-0.231
-89.743	162.237	0.140	-0.191
-88.728	-117.218	-0.046	-0.008
-87.713	-143.598	0.250	-0.023
-86.699	101.152	-0.079	-0.090
-85.684	423.114	0.078	-0.163
-84.670	-63.875	0.141	-0.057
-83.655	-200.000	-0.011	0.118
-82.640	800.000	-0.053	-0.149
-81.626	172.746	0.121	0.170
-80.611	70.924	-0.078	-0.079
-79.597	-98.570	0.123	0.031
-78.582	199.446	-0.286	0.428
-77.567	-200.000	0.011	0.225
-76.553	248.125	-0.146	0.242
-75.538	-22.209	-0.235	0.139
-74.524	-16.257	-0.232	-0.144
-73.509	-28.546	0.040	-0.023
-72.494	20.349	-0.226	-0.178
-71.480	8.936	-0.187	0.138
-70.465	-200.000	0.097	0.446
-69.451	-82.171	-0.318	0.101
-68.436	315.555	-0.174	0.321
-67.422	800.000	0.030	-0.097
-66.407	-200.000	0.032	-0.136
-65.392	-86.053	-0.154	0.046
-64.378	555.664	0.031	-0.073
-63.363	-200.000	0.088	0.409
-62.349	800.000	-0.054	0.176
-61.334	76.070	-1.140	-1.177
-60.319	25.650	0.717	0.583
-59.305	-200.000	-0.173	-1.159
-58.290	360.139	0.882	1.722
-57.276	396.327	0.709	1.444
-56.261	-200.000	128.628	676.666
-55.246	402.115	1617.082	3314.966
-54.232	137.443	2769.624	3535.318
-53.217	95.270	2164.255	2405.572
-52.203	34.323	1592.745	1355.473
-51.188	26.013	1336.818	1087.754
-50.173	23.546	1299.932	1043.210
-49.159	51.960	1369.875	1272.325
-48.144	48.279	1380.791	1260.188
-47.130	26.181	1328.469	1081.796
-46.115	22.934	1309.123	1046.795
-45.100	22.717	1304.387	1041.684
-44.086	22.660	1301.418	1038.938
-43.071	22.613	1298.950	1036.651
-42.057	22.605	1297.089	1035.077
-41.042	22.618	1295.532	1033.867
-40.027	22.795	1293.821	1033.502
-39.013	22.686	1291.992	1031.360
-37.998	22.754	1289.688	1029.877
-36.984	22.781	1288.466	1029.016
-35.969	22.744	1287.096	1027.666
-34.954	22.706	1285.155	1025.854
-33.940	22.660	1284.185	1024.773
-32.925	22.706	1282.978	1024.035
-31.911	22.830	1281.215	1023.308
-30.896	22.866	1279.672	1022.240
-29.881	22.906	1278.936	1021.846
-28.867	22.963	1276.906	1020.513
-27.852	22.842	1275.747	1018.845
-26.838	22.899	1274.079	1017.805
-25.823	22.922	1272.984	1017.020
-24.809	22.880	1271.264	1015.368
-23.794	22.919	1270.648	1015.058
-22.779	22.781	1269.645	1013.422
-21.765	22.851	1267.927	1012.414
-20.750	22.846	1266.538	1011.237
-19.736	22.723	1265.782	1009.885
-18.721	22.754	1264.521	1009.018
-17.706	22.676	1263.180	1007.461
-16.692	22.701	1262.017	1006.640
-15.677	22.677	1260.828	1005.515
-14.663	22.718	1259.441	1004.599
-13.648	22.687	1258.485	1003.621
-12.633	22.803	1257.610	1003.545
-11.619	22.749	1256.847	1002.590
-10.604	22.689	1256.186	1001.679
-9.590	22.816	1254.922	1001.353
-8.575	22.595	1254.159	999.451
-7.560	22.732	1253.064	999.317
-6.546	22.619	1252.492	998.181
-5.531	22.774	1251.489	998.215
-4.517	22.818	1250.772	997.856
-3.502	22.629	1250.168	996.263
-2.487	22.785	1248.917	996.111
-1.473	22.720	1244.455	992.146
-0.458	21.081	1230.271	971.675
0.556	16.011	1215.186	935.603
1.571	12.653	1223.201	922.890
2.586	12.044	1238.670	931.024
3.600	12.145	1225.997	921.983
4.615	8.828	1154.668	850.682
5.629	2.914	1084.842	769.598
6.644	0.388	1067.875	745.026
7.659	0.092	1066.231	742.352
8.673	0.122	1065.486	741.918
9.688	0.059	1064.257	740.685
10.702	0.187	1061.480	739.317
11.717	3.646	1065.871	759.343
12.731	10.601	1074.707	799.959
13.746	15.440	1081.002	828.517
14.761	16.728	1082.171	835.699
15.775	16.096	1080.161	830.956
16.790	15.028	1077.893	823.882
17.804	14.401	1076.656	819.782
18.819	14.021	1075.603	817.041
19.834	13.795	1074.624	815.113
20.848	13.411	1074.089	812.752
21.863	13.260	1073.285	811.331
22.877	13.197	1072.091	810.047
23.892	13.069	1071.736	809.078
24.907	13.013	1071.401	808.483
25.921	13.132	1070.433	808.263
26.936	13.048	1069.323	806.943
27.950	13.029	1068.284	805.993
28.965	13.255	1067.025	806.072
29.980	13.219	1065.942	805.009
30.994	13.294	1064.783	804.426
32.009	13.331	1063.600	803.644
33.023	13.458	1062.626	803.450
34.038	13.358	1061.757	802.239
35.053	13.273	1061.126	801.280
36.067	13.353	1060.008	800.752
37.082	13.250	1059.610	799.879
38.096	13.279	1058.775	799.322
39.111	13.251	1058.079	798.589
40.126	13.244	1056.221	797.081
41.140	13.220	1055.141	796.082
42.155	13.177	1054.327	795.191
43.169	13.001	1053.747	793.836
44.184	13.242	1052.173	793.735
45.199	13.160	1051.093	792.456
46.213	13.124	1050.479	791.754
47.228	13.075	1049.948	791.049
48.242	13.258	1048.390	790.680
49.257	13.255	1047.159	789.668
50.271	13.229	1046.243	788.781
51.286	13.181	1045.849	788.183
52.301	13.195	1044.904	787.468
53.315	13.178	1043.452	786.227
54.330	13.167	1042.593	785.457
55.344	13.100	1042.039	784.650
56.359	13.148	1040.989	784.021
57.374	13.191	1039.749	783.219
58.388	13.138	1039.035	782.364
59.403	13.082	1038.422	781.567
60.417	13.069	1037.757	780.935
61.432	13.134	1036.481	780.214
62.447	13.101	1035.760	779.446
63.461	13.160	1034.898	779.007
64.476	12.980	1034.312	777.647
65.490	13.007	1033.289	776.937
66.505	13.131	1032.688	776.998
67.520	13.035	1032.041	775.991
68.534	13.081	1030.940	775.314
69.549	13.036	1030.407	774.633
70.563	12.993	1029.731	773.852
71.578	13.049	1028.647	773.231
72.593	12.996	1027.843	772.313
73.607	12.866	1027.819	771.618
74.622	12.947	1026.503	770.938
75.636	13.030	1025.718	770.668
76.651	12.935	1025.656	770.109
77.666	13.010	1024.704	769.675
78.680	12.995	1023.720	768.799
79.695	13.116	1022.931	768.702
80.709	13.170	1022.459	768.533
81.724	13.061	1021.575	767.290
82.739	13.225	1020.609	767.260
83.753	13.247	1020.245	767.021
84.768	13.224	1019.566	766.334
85.782	13.272	1017.860	765.209
86.797	13.259	1017.454	764.775
87.812	13.111	1016.581	763.369
88.826	13.214	1015.773	763.170
89.841	13.174	1014.619	762.048
90.855	13.396	1013.467	762.138
91.870	13.224	1012.866	760.830
92.884	13.349	1011.964	760.659
93.899	13.354	1011.160	760.009
94.914	13.381	1010.662	759.693
95.928	13.363	1009.849	758.931
96.943	13.251	1008.361	757.230
97.957	13.344	1007.802	757.173
98.972	13.369	1006.458	756.209
99.987	13.344	1006.198	755.832
101.001	13.299	1004.779	754.493
102.016	13.163	1004.418	753.535
103.030	13.253	1003.521	753.205
104.045	13.210	1002.928	752.501
105.060	13.144	1001.956	751.405
106.074	13.224	1000.622	750.698
107.089	13.213	999.564	749.790
108.103	13.215	998.618	749.022
109.118	13.193	997.866	748.291
110.133	13.156	997.055	747.450
111.147	13.261	995.968	747.043
112.162	13.329	995.407	746.864
113.176	13.210	994.640	745.687
114.191	13.318	993.859	745.523
115.206	13.215	993.131	744.444
116.220	13.239	992.495	744.009
117.235	13.172	991.553	742.936
118.249	13.289	990.137	742.336
119.264	13.182	989.790	741.531
120.279	13.198	989.036	740.973
121.293	13.149	988.201	740.062
122.308	13.237	986.954	739.453
123.322	13.174	986.106	738.471
124.337	13.177	985.026	737.612
125.352	13.257	984.532	737.533
126.366	13.301	983.166	736.643
127.381	13.224	982.488	735.726
128.395	13.164	981.427	734.598
129.410	13.182	980.764	734.120
130.424	13.294	979.473	733.583
131.439	13.295	978.474	732.775
132.454	13.200	978.177	732.067
133.468	13.185	977.248	731.239
134.483	13.146	976.394	730.363
135.497	13.286	975.256	730.066
136.512	13.248	974.617	729.357
137.527	13.162	973.930	728.400
138.541	13.327	972.665	728.114
139.556	13.352	972.059	727.706
140.570	13.410	971.584	727.540
141.585	13.320	970.719	726.434
142.600	13.378	969.991	726.077
143.614	13.408	969.115	725.492
144.629	13.414	968.221	724.785
145.643	13.504	967.256	724.391
146.658	13.400	966.158	723.049
147.673	13.398	965.255	722.300
148.687	13.370	964.798	721.774
149.702	13.240	963.801	720.398
150.716	13.369	962.771	720.124
151.731	13.342	962.346	719.625
152.746	13.350	961.239	718.769
153.760	13.250	961.172	718.222
154.775	13.372	960.576	718.243
155.789	13.473	959.541	717.841
156.804	13.512	958.761	717.365
157.819	13.494	958.266	716.854
158.833	13.552	957.539	716.497
159.848	13.598	956.833	716.104
160.862	13.575	956.026	715.337
161.877	13.417	954.916	713.762
162.892	13.590	953.842	713.641
163.906	13.485	953.001	712.496
164.921	13.467	952.383	711.896
165.935	13.597	951.422	711.672
166.950	13.664	950.492	711.202
167.964	13.620	949.630	710.305
168.979	13.564	948.864	709.428
169.994	13.513	947.796	708.348
171.008	13.618	947.155	708.255
172.023	13.622	946.882	708.005
173.037	13.642	946.129	707.465
174.052	13.687	945.140	706.857
175.067	13.703	944.433	706.331
176.081	13.509	944.100	705.196
177.096	13.600	943.321	704.936
178.110	13.613	942.913	704.627
179.125	13.640	941.866	703.897
180.140	13.723	941.264	703.734
181.154	13.649	941.165	703.284
182.169	13.536	941.124	702.714
183.183	13.812	939.870	702.884
184.198	13.708	939.315	701.968
185.213	13.827	938.795	702.018
186.227	13.776	937.864	701.046
187.242	13.912	937.225	701.081
188.256	13.871	936.671	700.430
189.271	13.974	935.292	699.769
190.286	13.737	935.430	698.813
191.300	13.635	934.635	697.727
192.315	13.708	933.650	697.240
193.329	13.750	933.169	696.996
194.344	13.663	932.792	696.285
195.359	13.717	932.029	695.881
196.373	13.793	931.644	695.852
197.388	13.936	930.761	695.730
198.402	13.956	930.441	695.512
199.417	14.019	929.778	695.219
200.432	14.008	929.334	694.779
201.446	14.166	928.868	695.027
202.461	14.099	928.509	694.419
203.475	14.127	927.214	693.505
204.490	14.002	926.736	692.567
205.504	14.037	925.988	692.090
206.519	13.967	925.420	691.313
207.534	14.041	924.715	691.034
208.548	14.012	924.101	690.395
209.563	14.108	923.313	690.144
210.577	14.145	922.786	689.842
211.592	14.144	922.009	689.195
212.607	14.264	921.120	688.967
213.621	14.152	920.549	688.015
214.636	14.264	919.940	687.963
215.650	14.156	919.348	687.011
216.665	14.391	918.158	687.030
217.680	14.348	917.633	686.401
218.694	14.284	917.619	686.065
219.709	14.350	916.730	685.612
220.723	14.384	915.861	685.043
221.738	14.254	915.362	684.071
222.753	14.345	914.542	683.773
223.767	14.402	913.861	683.439
224.782	14.442	913.345	683.156
225.796	14.545	912.827	683.131
226.811	14.382	912.077	681.841
227.826	14.347	911.643	681.311
228.840	14.490	910.366	680.880
229.855	14.426	909.951	680.251
230.869	14.398	909.307	679.593
231.884	14.445	908.342	679.002
232.899	14.378	907.754	678.230
233.913	14.345	907.174	677.603
234.928	14.296	906.994	677.210
235.942	14.355	906.104	676.727
236.957	14.417	905.815	676.702
237.972	14.402	904.924	675.916
238.986	14.414	904.092	675.283
240.001	14.545	903.374	675.217
241.015	14.507	902.891	674.641
242.030	14.499	902.198	674.031
243.045	14.502	901.788	673.680
244.059	14.485	901.298	673.184
245.074	14.592	900.356	672.854
246.088	14.649	899.713	672.542
247.103	14.670	898.902	671.960
248.117	14.734	898.523	671.874
249.132	14.794	897.854	671.556
250.147	14.868	896.925	671.100
251.161	14.941	896.349	670.901
252.176	14.828	895.899	670.054
253.190	14.831	895.372	669.612
254.205	14.957	894.624	669.499
255.220	14.938	894.009	668.901
256.234	15.061	893.102	668.654
257.249	14.986	892.543	667.878
258.263	14.839	892.034	666.854
259.278	14.943	891.388	666.724
260.293	15.027	890.935	666.663
261.307	14.981	890.206	665.875
262.322	14.997	889.630	665.447
263.336	15.158	888.593	665.253
264.351	15.234	887.433	664.627
265.366	15.129	887.156	663.946
266.380	15.241	886.571	663.894
267.395	15.106	886.058	662.913
268.409	15.026	885.627	662.215
269.424	15.279	884.233	662.116
270.439	15.166	883.792	661.279
271.453	15.012	883.362	660.293
272.468	15.199	882.499	660.326
273.482	15.074	882.263	659.598
274.497	15.074	881.876	659.251
275.512	15.267	880.678	659.055
276.526	15.209	880.569	658.687
277.541	15.254	880.223	658.548
278.555	15.231	879.627	657.953
279.570	15.358	878.795	657.772
280.585	15.365	877.848	657.030
281.599	15.264	877.111	656.028
282.614	15.246	876.896	655.738
283.628	15.346	875.784	655.239
284.643	15.396	875.368	655.063
285.657	15.260	874.940	654.153
286.672	15.312	874.366	653.873
287.687	15.270	873.689	653.141
288.701	15.448	872.946	653.223
289.716	15.463	872.266	652.716
290.730	15.402	871.666	651.971
291.745	15.428	871.063	651.564
292.760	15.393	870.842	651.204
293.774	15.581	869.915	651.183
294.789	15.595	868.953	650.460
295.803	15.478	868.615	649.697
296.818	15.526	867.738	649.168
297.833	15.585	866.634	648.512
298.847	15.514	866.597	648.154
299.862	15.533	866.043	647.752
300.876	15.492	865.796	647.352
301.891	15.542	865.080	646.954
302.906	15.574	864.409	646.517
303.920	15.647	864.026	646.454
304.935	15.604	863.536	645.867
305.949	15.677	862.670	645.440
306.964	15.795	861.640	645.066
307.979	15.692	861.381	644.419
308.993	15.822	860.899	644.499
310.008	15.921	860.327	644.396
311.022	15.827	859.411	643.293
312.037	15.768	859.251	642.889
313.052	15.875	858.811	642.912
314.066	15.731	858.103	641.775
315.081	15.727	857.511	641.263
316.095	15.700	857.142	640.826
317.110	15.858	856.136	640.618
318.125	15.762	855.540	639.750
319.139	15.804	855.252	639.636
320.154	15.683	854.939	638.887
321.168	15.765	854.576	638.871
322.183	15.738	853.709	638.062
323.197	15.943	853.355	638.520
324.212	16.010	852.552	638.115
325.227	16.013	851.673	637.413
326.241	15.948	851.245	636.793
327.256	15.879	850.952	636.253
328.270	15.795	850.645	635.653
329.285	15.951	849.820	635.567
330.300	15.952	849.177	635.036
331.314	15.954	848.433	634.429
332.329	16.016	848.132	634.381
333.343	16.107	847.453	634.159
334.358	15.870	847.503	633.249
335.373	16.088	846.784	633.477
336.387	16.173	846.421	633.467
337.402	16.077	846.417	633.047
338.416	16.084	845.984	632.695
339.431	16.130	845.625	632.541
340.446	16.175	845.089	632.255
341.460	16.172	844.774	631.951
342.475	16.257	844.334	631.883
343.489	16.469	843.484	631.986
344.504	16.268	843.639	631.294
345.519	16.180	843.270	630.633
346.533	16.306	842.496	630.467
347.548	16.384	841.972	630.310
348.562	16.255	841.387	629.338
349.577	16.304	840.692	628.943
350.592	16.252	839.850	628.065
351.606	16.365	839.209	627.951
352.621	16.411	838.597	627.608
353.635	16.454	838.002	627.266
354.650	16.442	837.452	626.753
355.665	16.406	836.967	626.201
356.679	16.490	836.198	625.883
357.694	16.418	835.587	625.104
358.708	16.503	835.041	624.956
359.723	16.421	834.453	624.157
360.738	16.447	834.061	623.903
361.752	16.470	833.390	623.431
362.767	16.547	832.726	623.165
363.781	16.684	832.057	623.110
364.796	16.618	831.856	622.664
365.810	16.696	831.400	622.554
366.825	16.611	831.284	622.099
367.840	16.699	830.790	621.996
368.854	16.616	830.184	621.183
369.869	16.638	829.464	620.670
370.883	16.636	829.151	620.376
371.898	16.828	828.498	620.533
372.913	16.789	828.584	620.402
373.927	16.731	828.005	619.701
374.942	16.727	827.823	619.493
375.956	16.821	827.207	619.322
376.971	16.975	826.289	619.144
377.986	16.832	826.335	618.599
379.000	17.024	825.399	618.546
380.015	16.816	825.158	617.552
381.029	17.002	824.499	617.681
382.044	17.081	823.636	617.267
383.059	17.058	823.453	616.993
384.073	16.988	822.841	616.224
385.088	17.006	822.120	615.694
386.102	16.993	821.484	615.116
387.117	16.866	820.981	614.225
388.132	16.906	820.646	614.067
389.146	16.998	819.966	613.836
390.161	17.003	819.688	613.591
391.175	17.107	819.157	613.515
392.190	16.883	819.092	612.601
393.205	17.181	817.819	612.672
394.219	16.889	818.166	611.824
395.234	16.942	817.475	611.445
396.248	17.066	816.991	611.473
397.263	17.061	816.700	611.184
398.278	17.002	816.632	610.866
399.292	17.230	815.402	610.714
400.307	17.164	814.858	610.014
401.321	16.956	814.665	609.069
402.336	17.088	814.279	609.198
403.350	17.116	814.157	609.155
404.365	17.065	813.666	608.551
405.380	17.236	812.831	608.485
406.394	17.184	812.198	607.771
407.409	17.290	811.629	607.671
408.423	17.225	811.818	607.525
409.438	17.456	811.374	607.965
410.453	17.492	810.672	607.514
411.467	17.223	810.726	606.541
412.482	17.369	810.018	606.476
413.496	17.449	809.567	606.371
414.511	17.511	809.074	606.169
415.526	17.535	808.692	605.914
416.540	17.492	808.418	605.501
417.555	17.413	808.021	604.872
418.569	17.527	807.569	604.883
419.584	17.581	806.910	604.529
420.599	17.491	806.235	603.649
421.613	113.815	1299.441	1488.035
422.628	98.267	1371.269	1488.082
