DTS Sentinel unit serial number:	SN413079Multiplexer serial number:	ORYXHardware model number:	OX4-SRSoftware version number:	ORYX F/W v4.00 Oryx Data Collector v3.7.2.0data status	okinstallation	princeton_trtdifferential loss correction	single-endedforward channel	channel 1reverse channel	N/Adate	2019/09/11time	06:04:11forward acquisition time	60.00reverse acquisition time	0.00gamma	496.2192k internal	0.2331k external	0.2331temperature offset calibration	0.9924default loss term (dB/km)	0.3790temperature slope calibration	1.0000multiplexer offset coefficient	1.0000multiplexer slope coefficient	1.0000fibre end	0.00T internal ref (°C)	29.44T ext. ref 1 (°C)	-0.22T ext. ref 2 (°C)	23.69length (m)	temperature (°C)	Stokes	anti-Stokes-747.200	78.569	0.126	0.136
-746.185	-200.000	-0.014	-0.111
-745.171	487.417	-0.056	0.129
-744.156	86.710	-0.369	0.410
-743.142	-200.000	-0.026	-0.176
-742.127	16.107	0.130	0.103
-741.112	-100.216	0.195	0.049
-740.098	-200.000	0.065	0.387
-739.083	800.000	-0.079	-0.267
-738.069	140.146	0.125	-0.166
-737.054	800.000	0.169	0.500
-736.039	-71.140	-0.212	-0.080
-735.025	-143.328	-0.136	0.013
-734.010	141.570	-0.099	-0.132
-732.996	78.966	-0.308	-0.331
-731.981	-11.066	0.147	0.098
-730.966	-7.297	0.305	-0.208
-729.952	-200.000	-0.020	-0.121
-728.937	800.000	0.111	-0.471
-727.923	-200.000	0.014	-0.313
-726.908	800.000	0.020	0.062
-725.894	-73.947	0.350	0.128
-724.879	90.872	0.109	-0.123
-723.864	-116.429	0.119	0.022
-722.850	597.746	0.065	0.161
-721.835	-91.680	-0.408	-0.117
-720.821	107.730	-0.200	-0.239
-719.806	67.994	-0.119	-0.122
-718.791	239.073	-0.042	-0.070
-717.777	-54.541	-0.306	-0.139
-716.762	-200.000	0.050	-0.223
-715.748	-40.299	0.220	0.115
-714.733	-94.861	-0.400	-0.109
-713.718	800.000	-0.010	0.029
-712.704	142.720	-0.218	-0.291
-711.689	-2.103	-0.171	0.121
-710.675	-200.000	-0.020	0.101
-709.660	153.231	0.195	-0.268
-708.645	800.000	-0.072	-0.273
-707.631	-151.355	0.141	0.011
-706.616	-200.000	0.006	-0.176
-705.602	-104.336	-0.273	-0.064
-704.587	198.288	0.109	-0.168
-703.572	-113.870	0.260	0.051
-702.558	-62.520	-0.163	-0.068
-701.543	-200.000	0.016	0.282
-700.529	-66.102	-0.235	0.094
-699.514	110.853	-0.143	0.173
-698.499	-104.287	0.096	-0.022
-697.485	-200.000	0.014	0.296
-696.470	31.644	0.137	-0.119
-695.456	-200.000	-0.060	-0.270
-694.441	98.511	-0.116	0.134
-693.426	502.406	0.088	-0.204
-692.412	-109.037	-0.212	0.045
-691.397	198.154	0.157	0.240
-690.383	-91.256	0.164	-0.047
-689.368	-60.944	0.010	-0.004
-688.354	800.000	0.092	-0.313
-687.339	629.780	-0.030	0.075
-686.324	-15.136	0.151	-0.097
-685.310	-21.206	-0.259	0.159
-684.295	-200.000	0.173	-0.000
-683.281	531.420	0.096	0.227
-682.266	57.373	-0.100	0.098
-681.251	236.250	-0.142	0.236
-680.237	-31.762	0.352	-0.198
-679.222	327.604	-0.216	-0.416
-678.208	168.684	0.289	0.413
-677.193	-13.401	0.266	-0.173
-676.178	-103.723	-0.167	-0.039
-675.164	-60.516	-0.068	0.029
-674.149	-200.000	-0.006	-0.087
-673.135	-200.000	-0.052	-0.342
-672.120	38.318	0.137	-0.122
-671.105	142.392	0.124	-0.165
-670.091	-200.000	-0.013	-0.126
-669.076	53.899	0.075	-0.072
-668.062	-138.780	-0.399	0.044
-667.047	-200.000	0.193	0.000
-666.032	255.800	-0.113	-0.194
-665.018	555.409	-0.143	-0.345
-664.003	-94.042	-0.066	-0.018
-662.989	63.613	-0.207	-0.208
-661.974	-200.000	-0.019	-0.160
-660.959	-200.000	-0.045	0.233
-659.945	555.388	0.071	0.172
-658.930	-200.000	0.014	-0.196
-657.916	90.452	-0.148	-0.166
-656.901	-200.000	0.138	-0.000
-655.886	137.750	-0.112	-0.148
-654.872	-14.149	0.085	-0.055
-653.857	2.599	0.226	-0.164
-652.843	-57.345	-0.069	0.030
-651.828	-147.140	-0.257	0.022
-650.814	-102.245	0.139	-0.033
-649.799	-38.799	0.162	0.086
-648.784	-200.000	-0.063	0.377
-647.770	-39.720	0.144	-0.076
-646.755	-200.000	-0.023	-0.186
-645.741	-200.000	-0.012	0.455
-644.726	32.669	-0.178	-0.154
-643.711	8.252	-0.110	-0.083
-642.697	-62.370	-0.073	0.030
-641.682	589.815	0.106	0.261
-640.668	-71.938	0.269	0.100
-639.653	-133.502	0.054	0.007
-638.638	-38.032	-0.118	-0.063
-637.624	41.065	-0.105	0.095
-636.609	30.132	0.112	-0.095
-635.595	800.000	0.092	0.348
-634.580	-200.000	-0.002	0.076
-633.565	-22.591	0.198	0.120
-632.551	768.431	0.030	0.081
-631.536	-171.933	0.287	0.009
-630.522	-109.585	0.131	-0.028
-629.507	285.785	0.080	0.144
-628.492	800.000	0.053	-0.162
-627.478	-141.185	-0.193	0.020
-626.463	33.311	-0.255	-0.221
-625.449	97.041	-0.142	-0.163
-624.434	800.000	-0.012	-0.038
-623.419	17.947	0.243	-0.194
-622.405	-23.990	-0.151	0.090
-621.390	-170.103	-0.242	0.009
-620.376	120.312	0.117	0.146
-619.361	800.000	-0.091	-0.257
-618.346	-91.440	-0.093	-0.027
-617.332	-126.809	-0.215	-0.032
-616.317	138.145	-0.110	0.144
-615.303	-135.198	0.136	0.016
-614.288	-200.000	0.001	0.109
-613.273	-200.000	0.022	-0.129
-612.259	164.080	0.044	0.062
-611.244	-44.705	-0.229	-0.114
-610.230	-200.000	0.017	0.254
-609.215	-64.395	-0.243	-0.099
-608.201	61.604	-0.078	-0.078
-607.186	33.933	-0.034	0.030
-606.171	-38.958	-0.068	0.036
-605.157	10.997	0.265	0.203
-604.142	-27.299	-0.150	0.087
-603.128	-100.873	0.353	0.087
-602.113	-45.124	-0.282	-0.141
-601.098	-157.652	-0.040	0.002
-600.084	-200.000	0.038	-0.247
-599.069	-54.425	0.227	-0.103
-598.055	-200.000	0.027	-0.260
-597.040	800.000	-0.084	-0.316
-596.025	-200.000	-0.014	-0.598
-595.011	-200.000	-0.040	-0.313
-593.996	-184.632	0.138	0.002
-592.982	800.000	0.016	-0.064
-591.967	42.598	-0.174	-0.159
-590.952	-102.310	0.326	0.078
-589.938	237.398	0.059	-0.098
-588.923	48.796	0.161	-0.151
-587.909	566.298	0.058	0.140
-586.894	-158.007	-0.237	-0.014
-585.879	800.000	0.089	-0.255
-584.865	236.192	-0.061	-0.102
-583.850	-8.851	-0.402	-0.269
-582.836	-30.459	-0.109	0.062
-581.821	-200.000	0.022	-0.224
-580.806	476.850	-0.052	0.119
-579.792	-142.292	-0.261	0.026
-578.777	-50.647	-0.431	0.203
-577.763	-116.654	-0.125	-0.023
-576.748	-89.728	-0.074	0.022
-575.733	-200.000	0.031	-0.154
-574.719	-200.000	-0.002	-0.198
-573.704	98.039	-0.119	0.137
-572.690	-200.000	0.011	-0.239
-571.675	-97.266	-0.304	-0.079
-570.661	51.322	-0.173	-0.165
-569.646	-200.000	0.015	-0.095
-568.631	215.686	-0.128	0.203
-567.617	-200.000	-0.031	-0.172
-566.602	-159.033	-0.217	-0.012
-565.588	-110.268	0.187	-0.039
-564.573	15.559	0.189	0.148
-563.558	-200.000	-0.048	0.232
-562.544	-68.714	0.065	-0.025
-561.529	151.122	0.057	-0.077
-560.515	-172.438	-0.496	0.016
-559.500	47.669	0.239	-0.223
-558.485	11.955	0.197	0.151
-557.471	-59.835	-0.102	-0.044
-556.456	361.357	-0.004	-0.008
-555.442	-200.000	-0.038	0.211
-554.427	800.000	0.037	-0.155
-553.412	-35.504	0.191	-0.103
-552.398	129.117	-0.146	-0.186
-551.383	-200.000	-0.007	-0.275
-550.369	800.000	-0.045	0.165
-549.354	-77.029	-0.205	-0.071
-548.339	363.324	-0.111	-0.223
-547.325	-39.032	0.230	0.121
-546.310	-117.749	0.377	0.068
-545.296	800.000	-0.001	-0.002
-544.281	55.993	-0.103	-0.099
-543.266	-121.447	-0.088	-0.015
-542.252	61.502	0.166	-0.165
-541.237	800.000	0.036	0.138
-540.223	800.000	-0.058	0.252
-539.208	30.485	0.069	0.059
-538.193	-29.039	-0.363	-0.208
-537.179	-2.557	-0.168	0.118
-536.164	800.000	-0.089	-0.324
-535.150	15.241	0.074	0.058
-534.135	800.000	0.031	-0.132
-533.121	-138.491	0.292	-0.032
-532.106	800.000	0.034	-0.093
-531.091	312.197	-0.086	0.160
-530.077	-53.108	-0.114	-0.052
-529.062	-103.900	-0.153	0.036
-528.048	-82.827	0.124	0.040
-527.033	-53.949	0.263	-0.119
-526.018	-144.694	-0.341	-0.031
-525.004	86.745	-0.198	-0.218
-523.989	-116.634	0.370	-0.068
-522.975	27.851	0.156	0.131
-521.960	231.639	0.031	-0.050
-520.945	-133.137	0.214	-0.027
-519.931	-159.035	-0.313	0.018
-518.916	-75.163	-0.303	0.108
-517.902	-45.854	-0.255	-0.126
-516.887	69.848	-0.150	0.155
-515.872	-111.492	0.059	0.012
-514.858	800.000	0.061	-0.201
-513.843	27.889	0.049	-0.041
-512.829	-200.000	0.010	0.302
-511.814	-17.768	0.288	-0.180
-510.799	-144.227	0.094	-0.009
-509.785	310.034	-0.086	-0.161
-508.770	800.000	0.083	0.258
-507.756	-88.862	-0.054	-0.016
-506.741	-96.235	0.230	-0.061
-505.726	-92.056	0.051	-0.014
-504.712	800.000	-0.085	0.250
-503.697	-200.000	-0.041	0.221
-502.683	230.052	0.093	-0.151
-501.668	-85.863	0.254	0.079
-500.653	-146.675	-0.424	-0.037
-499.639	-200.000	0.034	-0.378
-498.624	800.000	-0.062	-0.263
-497.610	800.000	-0.038	-0.126
-496.595	-150.342	-0.379	-0.029
-495.581	-44.530	-0.073	-0.036
-494.566	-38.870	0.274	-0.144
-493.551	197.578	-0.099	0.150
-492.537	-102.691	-0.123	0.029
-491.522	-200.000	0.006	-0.122
-490.508	588.359	-0.073	-0.180
-489.493	800.000	-0.043	-0.168
-488.478	-42.723	0.076	0.039
-487.464	800.000	-0.150	-0.444
-486.449	800.000	-0.072	0.247
-485.435	602.674	-0.086	-0.212
-484.420	58.911	-0.051	-0.050
-483.405	-169.205	0.379	0.014
-482.391	-200.000	-0.043	0.241
-481.376	-64.865	-0.236	-0.095
-480.362	110.731	-0.137	-0.164
-479.347	42.191	-0.186	0.168
-478.332	-96.246	-0.219	-0.058
-477.318	-56.996	0.320	0.141
-476.303	-200.000	-0.026	0.150
-475.289	592.147	-0.080	0.197
-474.274	-115.036	0.315	0.060
-473.259	24.105	-0.181	0.149
-472.245	-163.566	-0.082	-0.004
-471.230	236.009	0.143	0.235
-470.216	-61.582	-0.196	0.082
-469.201	-173.542	-0.312	-0.009
-468.186	-200.000	-0.011	0.341
-467.172	-176.233	0.097	0.003
-466.157	327.712	-0.205	-0.391
-465.143	208.888	-0.223	0.348
-464.128	-98.667	0.319	0.081
-463.113	1.493	0.291	0.209
-462.099	69.814	-0.107	0.110
-461.084	-95.535	-0.102	-0.027
-460.070	-84.590	-0.173	0.054
-459.055	163.157	-0.178	-0.249
-458.040	493.089	0.055	0.125
-457.026	-28.644	-0.094	0.054
-456.011	800.000	-0.058	0.177
-454.997	46.329	-0.297	0.274
-453.982	-71.707	0.055	0.020
-452.968	800.000	-0.158	0.526
-451.953	-200.000	-0.028	0.387
-450.938	-35.796	-0.118	0.064
-449.924	-6.470	0.142	0.097
-448.909	42.904	-0.074	0.067
-447.895	-71.046	-0.183	0.068
-446.880	522.000	-0.059	0.137
-445.865	88.726	0.083	-0.091
-444.851	800.000	-0.059	0.246
-443.836	-36.771	0.259	0.138
-442.822	149.490	-0.164	0.221
-441.807	800.000	-0.010	0.041
-440.792	-94.349	0.108	0.029
-439.778	-65.355	0.041	-0.016
-438.763	800.000	-0.063	0.194
-437.749	-9.411	-0.249	-0.165
-436.734	-96.546	-0.178	-0.047
-435.719	-139.579	0.214	-0.023
-434.705	-55.456	-0.198	0.088
-433.690	123.817	-0.200	-0.249
-432.676	-200.000	0.058	-0.397
-431.661	-200.000	-0.038	-0.250
-430.646	-0.811	0.267	0.188
-429.632	-33.627	-0.107	0.058
-428.617	177.477	-0.114	-0.165
-427.603	358.406	-0.111	-0.220
-426.588	-200.000	-0.020	0.127
-425.573	-74.505	-0.388	0.139
-424.559	-66.936	0.151	0.059
-423.544	23.603	0.148	0.121
-422.530	-10.161	-0.225	0.148
-421.515	-200.000	-0.034	0.191
-420.500	-3.028	0.221	0.153
-419.486	-200.000	0.002	-0.289
-418.471	8.364	-0.147	-0.110
-417.457	-77.201	0.039	0.014
-416.442	-200.000	0.022	0.395
-415.428	-121.144	0.161	-0.027
-414.413	-118.544	-0.120	-0.021
-413.398	257.299	0.117	0.200
-412.384	-200.000	-0.001	-0.180
-411.369	-200.000	-0.015	0.317
-410.355	-129.425	-0.198	-0.027
-409.340	-36.575	-0.338	-0.180
-408.325	188.181	0.122	0.181
-407.311	-46.905	0.056	-0.027
-406.296	314.973	-0.095	0.177
-405.282	434.031	-0.051	-0.110
-404.267	-126.013	-0.307	-0.046
-403.252	-68.704	-0.111	0.043
-402.238	-159.847	-0.158	0.009
-401.223	532.282	-0.099	0.232
-400.209	-126.431	-0.154	-0.023
-399.194	-63.882	-0.100	-0.041
-398.179	-70.859	0.158	0.059
-397.165	-200.000	-0.010	0.054
-396.150	-152.332	0.224	-0.016
-395.136	-150.142	0.164	-0.013
-394.121	-200.000	0.041	-0.270
-393.106	-49.563	0.201	0.095
-392.092	208.829	-0.117	-0.182
-391.077	279.375	-0.135	-0.240
-390.063	-186.408	-0.147	0.002
-389.048	-35.047	0.217	-0.117
-388.033	30.432	0.123	0.104
-387.019	-110.765	-0.237	0.049
-386.004	-200.000	-0.014	0.113
-384.990	-50.161	-0.204	0.096
-383.975	167.995	0.373	-0.526
-382.960	-25.346	-0.214	-0.126
-381.946	-8.004	0.237	-0.158
-380.931	203.158	-0.184	0.282
-379.917	-74.296	-0.243	0.087
-378.902	-75.189	-0.103	-0.037
-377.888	-172.329	0.211	0.007
-376.873	35.511	0.122	-0.106
-375.858	455.260	-0.105	0.231
-374.844	-112.859	0.407	0.080
-373.829	-200.000	0.049	-0.324
-372.815	24.640	0.132	0.108
-371.800	-200.000	0.006	0.187
-370.785	144.886	-0.211	0.279
-369.771	-27.521	0.074	0.043
-368.756	-200.000	-0.018	-0.095
-367.742	-137.356	0.336	-0.038
-366.727	-86.437	-0.176	-0.054
-365.712	-186.857	0.063	-0.001
-364.698	-200.000	0.065	0.390
-363.683	-121.300	0.086	-0.014
-362.669	132.217	-0.096	-0.123
-361.654	-200.000	0.017	-0.336
-360.639	-200.000	0.066	-0.314
-359.625	-200.000	-0.029	-0.186
-358.610	93.731	-0.084	-0.095
-357.596	-200.000	0.014	0.172
-356.581	33.572	-0.138	-0.119
-355.566	28.291	0.146	0.123
-354.552	131.062	-0.059	-0.076
-353.537	800.000	0.029	0.117
-352.523	43.521	-0.212	0.192
-351.508	-93.473	0.117	-0.032
-350.493	547.495	-0.033	-0.079
-349.479	532.639	0.051	-0.120
-348.464	800.000	-0.023	-0.087
-347.450	423.456	-0.122	0.259
-346.435	-35.577	0.362	0.195
-345.420	162.424	0.076	0.105
-344.406	441.487	0.058	0.126
-343.391	119.218	0.077	-0.094
-342.377	142.772	-0.042	0.055
-341.362	98.469	0.171	0.195
-340.348	-93.866	0.322	0.088
-339.333	373.062	-0.088	0.177
-338.318	-147.650	0.153	0.013
-337.304	-30.555	-0.250	0.141
-336.289	56.739	-0.146	-0.140
-335.275	-46.825	0.147	-0.071
-334.260	-114.033	0.114	0.022
-333.245	266.001	-0.066	0.113
-332.231	-135.270	0.153	-0.018
-331.216	255.930	0.150	-0.255
-330.202	-65.277	0.114	-0.045
-329.187	6.574	-0.248	0.183
-328.172	15.983	0.010	-0.008
-327.158	-200.000	-0.037	0.218
-326.143	93.924	0.053	0.060
-325.129	293.572	-0.117	-0.211
-324.114	-146.072	0.253	0.022
-323.099	-200.000	0.003	0.026
-322.085	-94.601	0.463	0.125
-321.070	55.902	0.188	-0.181
-320.056	800.000	-0.094	0.279
-319.041	-37.342	0.280	0.148
-318.026	-15.380	-0.163	0.103
-317.012	-153.278	0.361	-0.025
-315.997	-200.000	-0.013	-0.084
-314.983	451.180	0.035	-0.076
-313.968	-200.000	-0.038	-0.296
-312.953	-140.628	-0.220	-0.023
-311.939	-35.149	0.240	-0.129
-310.924	-154.146	0.146	-0.010
-309.910	-87.627	0.153	0.046
-308.895	-94.088	0.306	-0.083
-307.880	-87.275	-0.415	-0.125
-306.866	-93.483	0.184	-0.050
-305.851	-16.560	0.141	-0.088
-304.837	59.492	0.117	0.114
-303.822	-77.141	-0.121	0.042
-302.807	85.232	-0.052	0.056
-301.793	-60.255	0.264	0.111
-300.778	-109.207	0.189	-0.040
-299.764	-153.991	-0.245	0.016
-298.749	-149.538	-0.081	-0.006
-297.735	193.691	-0.123	0.185
-296.720	79.205	0.068	-0.072
-295.705	800.000	-0.118	-0.404
-294.691	-14.935	-0.103	0.065
-293.676	-200.000	0.013	0.201
-292.662	-200.000	0.029	0.185
-291.647	-16.332	0.438	-0.275
-290.632	-81.288	-0.344	-0.112
-289.618	639.140	0.061	0.155
-288.603	510.464	0.089	-0.204
-287.589	-152.802	-0.364	0.026
-286.574	189.667	-0.146	-0.217
-285.559	-128.890	0.097	0.014
-284.545	401.921	0.085	-0.176
-283.530	-200.000	-0.027	-0.148
-282.516	24.160	0.274	-0.224
-281.501	373.645	-0.096	-0.193
-280.486	84.368	0.135	0.146
-279.472	-200.000	0.015	0.072
-278.457	-67.229	0.323	0.126
-277.443	-126.238	0.095	-0.014
-276.428	-159.570	-0.228	0.012
-275.413	78.914	0.144	0.153
-274.399	-130.464	0.239	-0.032
-273.384	-26.395	0.077	-0.044
-272.370	-182.170	0.193	0.004
-271.355	-176.652	0.340	-0.009
-270.340	44.048	-0.248	-0.224
-269.326	190.468	0.127	0.189
-268.311	661.475	-0.123	0.313
-267.297	127.258	-0.161	0.202
-266.282	316.414	0.119	0.222
-265.267	-200.000	0.032	0.180
-264.253	800.000	0.033	0.124
-263.238	38.876	0.237	-0.209
-262.224	140.350	0.033	0.043
-261.209	-191.256	0.161	0.002
-260.195	-87.986	0.134	-0.040
-259.180	28.073	-0.192	0.160
-258.165	36.107	0.191	-0.166
-257.151	-25.910	0.108	-0.063
-256.136	800.000	0.115	-0.401
-255.122	464.378	-0.082	-0.182
-254.107	42.458	-0.255	0.229
-253.092	-200.000	0.058	0.283
-252.078	464.766	-0.033	-0.073
-251.063	-200.000	-0.008	0.590
-250.049	-200.000	-0.011	0.221
-249.034	-200.000	0.039	0.299
-248.019	-200.000	-0.014	0.232
-247.005	-144.967	-0.153	0.014
-245.990	178.820	0.059	0.085
-244.976	1.536	0.227	-0.161
-243.961	800.000	0.076	0.305
-242.946	-200.000	0.007	0.229
-241.932	-97.963	0.178	0.045
-240.917	-97.454	0.197	-0.050
-239.903	-29.525	-0.411	-0.232
-238.888	-5.241	0.170	-0.115
-237.873	28.296	0.096	0.080
-236.859	3.793	-0.058	-0.042
-235.844	-129.643	0.196	0.027
-234.830	-200.000	-0.034	-0.407
-233.815	800.000	-0.048	-0.136
-232.800	147.003	-0.106	-0.141
-231.786	570.501	-0.049	-0.117
-230.771	-200.000	0.288	0.000
-229.757	260.228	-0.076	-0.130
-228.742	188.015	-0.056	-0.083
-227.727	-90.902	-0.157	-0.045
-226.713	530.238	-0.048	-0.111
-225.698	-165.071	0.390	0.017
-224.684	-74.476	-0.274	-0.098
-223.669	293.061	0.178	0.320
-222.655	-200.000	-0.018	-0.107
-221.640	-200.000	0.005	0.391
-220.625	-47.282	0.157	-0.075
-219.611	296.103	0.162	-0.292
-218.596	255.136	-0.119	0.201
-217.582	-54.964	-0.216	0.096
-216.567	-78.037	-0.237	0.081
-215.552	-71.369	-0.114	-0.042
-214.538	334.206	0.165	0.314
-213.523	-87.647	-0.220	0.066
-212.509	498.280	0.121	0.275
-211.494	399.540	0.066	0.136
-210.479	-146.409	-0.205	0.018
-209.465	-200.000	-0.082	-0.565
-208.450	419.320	-0.052	-0.109
-207.436	0.293	0.164	-0.115
-206.421	-30.944	0.277	0.154
-205.406	-128.616	-0.269	-0.038
-204.392	800.000	0.050	0.149
-203.377	44.292	0.179	0.162
-202.363	-10.722	-0.122	-0.079
-201.348	2.748	0.225	0.161
-200.333	-98.184	-0.115	0.029
-199.319	-200.000	-0.002	0.300
-198.304	800.000	0.048	-0.147
-197.290	-200.000	0.043	-0.366
-196.275	103.703	-0.158	0.183
-195.260	800.000	0.041	-0.173
-194.246	-137.390	0.266	0.030
-193.231	121.987	0.174	-0.214
-192.217	-200.000	-0.010	0.260
-191.202	0.631	-0.354	0.249
-190.187	-49.950	-0.099	-0.046
-189.173	591.792	0.110	0.267
-188.158	-100.369	0.185	0.045
-187.144	589.045	0.123	-0.300
-186.129	-15.602	0.231	-0.145
-185.114	-112.804	-0.097	0.019
-184.100	17.628	0.092	-0.072
-183.085	122.985	0.269	-0.331
-182.071	81.076	0.090	-0.095
-181.056	-200.000	-0.003	-0.068
-180.042	-200.000	0.003	0.124
-179.027	-83.892	-0.166	-0.052
-178.012	-16.365	0.109	-0.068
-176.998	477.499	0.078	-0.173
-175.983	-155.939	-0.183	0.011
-174.969	-0.569	0.164	0.114
-173.954	-149.512	0.350	0.027
-172.939	-129.603	0.062	-0.008
-171.925	187.158	-0.188	-0.276
-170.910	48.709	-0.289	0.267
-169.896	-148.958	0.266	0.021
-168.881	-93.965	-0.110	-0.030
-167.866	-200.000	-0.045	-0.484
-166.852	-57.214	0.420	0.182
-165.837	18.713	-0.345	0.272
-164.823	-85.927	-0.133	-0.041
-163.808	-8.954	0.282	-0.186
-162.793	-200.000	0.028	-0.215
-161.779	252.240	-0.222	-0.372
-160.764	171.380	0.114	0.161
-159.750	-44.908	-0.218	0.107
-158.735	-48.918	-0.391	-0.184
-157.720	-65.657	0.256	0.101
-156.706	-194.269	-0.333	-0.003
-155.691	-95.152	0.442	0.117
-154.677	118.912	-0.094	0.114
-153.662	83.346	0.117	-0.125
-152.647	-10.685	0.058	0.038
-151.633	-200.000	0.027	-0.184
-150.618	418.646	-0.048	-0.100
-149.604	-5.365	0.142	0.096
-148.589	540.369	0.073	0.171
-147.574	-200.000	0.031	0.190
-146.560	-200.000	-0.003	-0.016
-145.545	152.857	0.183	-0.246
-144.531	-200.000	0.040	0.237
-143.516	800.000	0.027	0.115
-142.502	-200.000	0.009	0.281
-141.487	-94.536	0.302	-0.081
-140.472	800.000	0.075	0.263
-139.458	-100.190	-0.167	0.041
-138.443	730.668	-0.064	-0.169
-137.429	800.000	-0.022	0.086
-136.414	-61.951	-0.149	0.061
-135.399	-200.000	0.025	0.275
-134.385	-53.571	-0.172	-0.077
-133.370	302.011	0.175	0.318
-132.356	31.664	-0.154	0.130
-131.341	-56.680	-0.106	-0.046
-130.326	-118.955	0.209	0.036
-129.312	-33.976	-0.327	-0.177
-128.297	270.747	0.056	-0.098
-127.283	-200.000	-0.016	-0.175
-126.268	-200.000	0.060	-0.268
-125.253	-200.000	-0.029	-0.264
-124.239	-61.751	-0.071	-0.029
-123.224	-200.000	-0.014	-0.269
-122.210	-200.000	0.022	-0.169
-121.195	-200.000	-0.007	-0.171
-120.180	-46.484	0.011	-0.005
-119.166	-82.449	0.389	-0.124
-118.151	-122.922	0.232	-0.037
-117.137	-62.474	-0.269	-0.110
-116.122	-2.677	0.212	0.145
-115.107	-52.579	0.234	0.106
-114.093	-200.000	-0.019	0.211
-113.078	800.000	-0.094	-0.276
-112.064	-200.000	0.110	-0.000
-111.049	125.030	0.017	-0.021
-110.034	-200.000	0.014	0.100
-109.020	-200.000	0.004	-0.081
-108.005	230.420	-0.048	0.077
-106.991	-200.000	0.063	-0.437
-105.976	-19.758	-0.087	0.053
-104.962	-61.016	0.138	-0.057
-103.947	800.000	0.042	-0.158
-102.932	-43.047	-0.128	-0.064
-101.918	-54.511	-0.134	0.060
-100.903	6.805	0.134	-0.098
-99.889	-103.695	0.336	-0.077
-98.874	-102.364	0.237	0.056
-97.859	800.000	0.072	-0.205
-96.845	-111.776	-0.190	-0.038
-95.830	215.579	-0.081	0.126
-94.816	800.000	-0.053	0.147
-93.801	662.019	-0.039	0.098
-92.786	-164.659	0.201	-0.009
-91.772	-109.730	-0.112	0.023
-90.757	288.174	0.177	-0.315
-89.743	-158.859	0.303	0.017
-88.728	-200.000	-0.015	0.073
-87.713	-12.980	-0.060	0.038
-86.699	-120.766	-0.067	-0.011
-85.684	800.000	-0.041	-0.155
-84.670	-200.000	0.025	-0.163
-83.655	-89.831	0.368	-0.106
-82.640	800.000	-0.047	-0.134
-81.626	611.001	0.045	0.111
-80.611	-200.000	0.012	0.076
-79.597	289.784	0.057	-0.102
-78.582	-200.000	0.033	0.157
-77.567	-94.484	0.353	-0.094
-76.553	7.983	0.264	-0.194
-75.538	197.513	-0.096	0.144
-74.524	730.450	0.028	0.075
-73.509	800.000	0.100	0.322
-72.494	317.144	0.084	-0.155
-71.480	-94.828	0.247	0.066
-70.465	286.371	0.042	0.075
-69.451	292.132	0.240	0.428
-68.436	800.000	-0.077	0.239
-67.422	538.726	-0.077	-0.180
-66.407	343.554	-0.138	-0.266
-65.392	131.534	0.102	0.129
-64.378	19.009	0.109	-0.086
-63.363	195.564	-0.103	-0.153
-62.349	-161.086	-0.087	0.004
-61.334	102.220	-0.926	-1.060
-60.319	466.399	0.244	0.535
-59.305	378.840	-0.427	-0.856
-58.290	280.384	0.586	1.026
-57.276	540.893	0.683	1.594
-56.261	-200.000	106.254	613.183
-55.246	503.973	1509.749	3422.157
-54.232	176.123	2702.894	3844.528
-53.217	111.742	2165.475	2560.435
-52.203	41.404	1599.671	1417.662
-51.188	32.953	1333.309	1131.201
-50.173	29.822	1291.987	1077.891
-49.159	54.432	1346.283	1270.205
-48.144	54.721	1361.698	1286.409
-47.130	33.036	1316.793	1117.500
-46.115	29.555	1298.794	1081.833
-45.100	29.450	1293.319	1076.614
-44.086	29.375	1291.050	1074.248
-43.071	29.323	1288.867	1072.085
-42.057	29.163	1287.048	1069.603
-41.042	29.336	1284.544	1068.483
-40.027	29.326	1283.425	1067.451
-39.013	29.281	1281.846	1065.838
-37.998	29.390	1279.791	1064.715
-36.984	29.418	1277.913	1063.273
-35.969	29.438	1276.252	1061.963
-34.954	29.482	1274.241	1060.498
-33.940	29.460	1272.669	1059.022
-32.925	29.482	1272.283	1058.784
-31.911	29.473	1270.161	1056.924
-30.896	29.462	1269.374	1056.164
-29.881	29.584	1267.667	1055.399
-28.867	29.632	1265.725	1054.015
-27.852	29.558	1264.596	1052.612
-26.838	29.498	1263.590	1051.389
-25.823	29.560	1261.857	1050.258
-24.809	29.594	1260.404	1049.200
-23.794	29.515	1259.286	1047.780
-22.779	29.634	1257.723	1047.114
-21.765	29.497	1257.142	1045.814
-20.750	29.356	1255.860	1043.905
-19.736	29.379	1254.430	1042.805
-18.721	29.411	1252.882	1041.657
-17.706	29.450	1251.969	1041.080
-16.692	29.373	1250.600	1039.465
-15.677	29.390	1249.969	1038.995
-14.663	29.413	1248.611	1037.957
-13.648	29.422	1247.676	1037.188
-12.633	29.419	1246.939	1036.516
-11.619	29.344	1245.757	1035.069
-10.604	29.376	1245.003	1034.582
-9.590	29.410	1243.789	1033.723
-8.575	29.270	1243.197	1032.407
-7.560	29.357	1242.307	1032.111
-6.546	29.356	1241.372	1031.291
-5.531	29.411	1240.255	1030.630
-4.517	29.359	1239.630	1029.776
-3.502	29.437	1238.865	1029.537
-2.487	29.410	1237.855	1028.507
-1.473	29.318	1233.881	1024.653
-0.458	27.995	1219.118	1005.083
0.556	22.304	1202.492	969.225
1.571	18.895	1207.888	954.588
2.586	18.210	1222.262	962.009
3.600	18.042	1211.739	952.707
4.615	13.615	1141.147	873.831
5.629	4.750	1067.250	773.289
6.644	0.085	1046.918	735.717
7.659	-0.194	1043.738	732.056
8.673	-0.299	1042.745	730.781
9.688	-0.451	1041.412	729.045
10.702	0.228	1039.908	731.224
11.717	6.119	1048.477	765.956
12.731	15.085	1061.786	819.688
13.746	19.655	1067.135	846.179
14.761	20.771	1068.318	852.509
15.775	20.932	1067.230	852.352
16.790	20.580	1066.473	849.952
17.804	20.617	1066.078	849.746
18.819	20.690	1065.864	849.857
19.834	20.748	1065.578	849.833
20.848	20.734	1065.354	849.510
21.863	20.726	1064.405	848.644
22.877	20.632	1064.090	847.857
23.892	20.611	1063.259	847.017
24.907	20.731	1062.117	846.615
25.921	20.758	1060.951	845.742
26.936	20.634	1060.291	844.541
27.950	20.750	1057.990	843.198
28.965	20.547	1056.279	840.774
29.980	20.486	1054.769	839.204
30.994	20.864	1053.753	840.143
32.009	20.875	1052.151	838.849
33.023	20.581	1051.243	836.633
34.038	20.763	1050.355	836.730
35.053	20.694	1050.116	836.135
36.067	20.652	1049.263	835.180
37.082	20.867	1048.319	835.385
38.096	20.940	1047.509	835.013
39.111	20.948	1046.946	834.530
40.126	20.986	1044.957	833.050
41.140	20.560	1043.523	829.803
42.155	20.349	1041.803	827.356
43.169	20.504	1041.264	827.591
44.184	20.536	1040.187	826.817
45.199	20.401	1039.170	825.293
46.213	20.563	1038.032	825.084
47.228	20.424	1037.855	824.211
48.242	20.631	1036.823	824.298
49.257	20.753	1035.971	824.126
50.271	20.711	1035.422	823.421
51.286	20.765	1034.540	822.898
52.301	20.839	1033.639	822.458
53.315	20.844	1032.743	821.696
54.330	20.739	1031.496	820.138
55.344	20.756	1031.035	819.779
56.359	20.633	1029.844	818.182
57.374	20.533	1028.939	816.919
58.388	20.552	1028.492	816.581
59.403	20.463	1027.282	815.130
60.417	20.319	1026.358	813.651
61.432	20.514	1025.938	814.157
62.447	20.692	1025.109	814.262
63.461	20.707	1024.490	813.771
64.476	20.580	1022.889	811.831
65.490	20.420	1022.689	810.856
66.505	20.509	1022.204	810.814
67.520	20.649	1020.634	810.148
68.534	20.274	1019.861	807.718
69.549	19.920	1019.401	805.638
70.563	20.096	1018.042	805.309
71.578	20.112	1017.060	804.535
72.593	19.904	1016.406	802.980
73.607	20.153	1015.949	803.705
74.622	20.405	1015.310	804.293
75.636	20.352	1014.507	803.342
76.651	20.193	1013.741	801.929
77.666	20.072	1012.951	800.672
78.680	20.182	1012.291	800.589
79.695	20.284	1011.776	800.581
80.709	20.521	1011.067	801.042
81.724	20.316	1010.312	799.431
82.739	20.404	1009.618	799.213
83.753	20.743	1008.896	800.129
84.768	20.970	1008.120	800.485
85.782	21.133	1007.355	800.557
86.797	21.034	1005.819	798.811
87.812	20.741	1004.912	796.677
88.826	20.906	1004.321	796.896
89.841	21.033	1003.236	796.543
90.855	21.143	1001.860	795.882
91.870	20.971	1001.060	794.391
92.884	20.894	1000.062	793.178
93.899	20.880	999.395	792.515
94.914	20.912	998.741	792.073
95.928	20.792	997.237	790.267
96.943	20.568	996.024	788.218
97.957	20.542	994.741	787.017
98.972	20.230	993.966	784.922
99.987	20.429	993.306	785.232
101.001	20.776	992.470	786.066
102.016	20.738	991.681	785.202
103.030	20.565	990.830	783.678
104.045	20.503	989.836	782.545
105.060	20.333	988.587	780.723
106.074	20.523	988.350	781.320
107.089	20.844	987.655	782.145
108.103	20.820	986.433	781.002
109.118	20.529	985.076	778.553
110.133	20.636	983.738	777.906
111.147	20.385	982.575	775.797
112.162	20.142	981.608	773.879
113.176	20.337	981.349	774.477
114.191	20.360	980.174	773.582
115.206	20.089	979.037	771.412
116.220	20.011	978.232	770.363
117.235	20.217	977.198	770.393
118.249	20.170	976.495	769.561
119.264	20.169	975.690	768.858
120.279	20.208	975.032	768.443
121.293	20.209	974.385	767.870
122.308	20.306	973.182	767.282
123.322	20.375	972.098	766.663
124.337	19.950	971.121	763.953
125.352	19.650	969.085	760.959
126.366	19.581	968.341	760.006
127.381	20.284	968.153	762.882
128.395	20.760	967.474	764.373
129.410	20.894	966.314	763.975
130.424	20.778	965.587	762.822
131.439	20.692	964.859	761.804
132.454	20.654	964.161	761.020
133.468	20.595	963.114	759.870
134.483	20.724	962.065	759.536
135.497	20.998	961.244	760.014
136.512	21.082	960.128	759.430
137.527	20.862	959.790	758.142
138.541	20.879	959.158	757.650
139.556	20.908	958.190	756.944
140.570	21.046	957.437	756.878
141.585	20.894	956.581	755.476
142.600	20.942	955.174	754.506
143.614	21.153	954.683	754.965
144.629	21.249	954.148	754.889
145.643	20.999	952.798	752.675
146.658	20.890	951.450	751.073
147.673	20.845	950.944	750.414
148.687	20.837	949.197	748.934
149.702	20.836	948.516	748.326
150.716	20.792	947.569	747.326
151.731	20.870	946.779	746.971
152.746	21.066	946.233	747.314
153.760	21.205	945.606	747.348
154.775	21.102	945.074	746.419
155.789	21.105	944.372	745.810
156.804	21.070	943.345	744.787
157.819	21.068	942.461	744.015
158.833	21.320	941.421	744.198
159.848	21.195	940.590	742.945
160.862	21.004	939.530	741.232
161.877	21.076	938.769	740.868
162.892	21.148	937.844	740.380
163.906	21.031	936.429	738.702
164.921	21.104	935.630	738.316
165.935	21.021	934.806	737.247
166.950	21.079	933.751	736.598
167.964	21.083	932.926	735.898
168.979	20.958	932.124	734.674
169.994	21.010	931.108	734.027
171.008	21.084	930.388	733.705
172.023	21.061	929.788	733.070
173.037	20.797	928.758	731.085
174.052	20.784	927.782	730.197
175.067	20.873	927.115	729.981
176.081	20.945	926.497	729.730
177.096	20.828	925.838	728.659
178.110	20.673	924.801	727.130
179.125	20.576	924.358	726.311
180.140	20.575	923.992	725.955
181.154	20.629	923.415	725.662
182.169	20.915	923.785	727.085
183.183	21.107	923.075	727.259
184.198	20.884	921.991	725.413
185.213	20.885	921.546	725.005
186.227	21.246	919.976	725.203
187.242	21.193	919.530	724.568
188.256	21.193	918.975	724.066
189.271	21.164	918.351	723.389
190.286	20.747	917.160	720.660
191.300	20.337	916.324	718.247
192.315	19.610	914.288	713.582
193.329	19.645	913.917	713.376
194.344	20.516	914.677	717.503
195.359	20.926	914.414	718.923
196.373	20.992	914.089	718.880
197.388	20.737	913.706	717.463
198.402	20.925	912.047	716.870
199.417	20.928	911.970	716.757
200.432	20.591	910.820	714.406
201.446	20.653	909.887	713.864
202.461	20.496	909.437	712.805
203.475	19.758	907.764	708.407
204.490	18.958	906.596	704.159
205.504	19.929	906.907	708.314
206.519	20.543	906.572	710.501
207.534	20.730	906.262	710.957
208.548	21.121	905.980	712.272
209.563	20.691	905.029	709.705
210.577	20.892	904.425	709.990
211.592	21.221	904.357	711.214
212.607	21.064	903.354	709.724
213.621	21.233	902.213	709.449
214.636	21.116	902.358	709.025
215.650	21.191	901.056	708.246
216.665	21.173	900.672	707.808
217.680	21.293	899.233	707.098
218.694	20.630	898.581	703.844
219.709	20.627	897.670	703.052
220.723	20.891	897.510	703.935
221.738	21.132	896.759	704.257
222.753	21.014	896.097	703.197
223.767	21.039	895.633	702.873
224.782	21.181	895.549	703.317
225.796	21.283	894.781	703.061
226.811	20.585	893.291	699.022
227.826	20.079	891.672	695.661
228.840	20.166	891.569	695.870
229.855	20.279	890.686	695.572
230.869	19.875	890.159	693.478
231.884	20.341	890.025	695.182
232.899	21.115	889.751	698.002
233.913	20.954	889.252	696.907
234.928	20.987	888.570	696.441
235.942	20.882	888.053	695.557
236.957	20.508	887.438	693.520
237.972	20.536	886.393	692.754
238.986	20.755	886.098	693.333
240.001	20.887	885.157	693.060
241.015	20.909	885.256	693.165
242.030	20.936	884.044	692.265
243.045	21.096	883.609	692.494
244.059	21.129	883.778	692.697
245.074	20.966	882.185	690.743
246.088	20.627	881.129	688.513
247.103	21.041	880.842	689.864
248.117	21.375	881.213	691.418
249.132	21.538	880.790	691.669
250.147	21.549	880.174	691.165
251.161	21.869	879.655	691.959
252.176	21.816	878.940	691.127
253.190	21.922	878.706	691.300
254.205	22.033	877.900	691.040
255.220	22.014	876.960	690.167
256.234	21.892	876.145	688.984
257.249	21.803	875.390	687.979
258.263	21.709	874.823	687.104
259.278	21.897	874.196	687.287
260.293	21.852	873.833	686.767
261.307	21.840	872.609	685.697
262.322	21.518	872.096	683.972
263.336	20.803	870.398	679.790
264.351	19.855	867.987	674.157
265.366	20.019	867.789	674.579
266.380	20.987	868.722	679.020
267.395	21.536	868.336	680.792
268.409	21.447	867.575	679.791
269.424	21.595	867.520	680.261
270.439	21.584	866.837	679.623
271.453	21.738	865.904	679.431
272.468	22.051	865.492	680.260
273.482	21.981	865.288	679.767
274.497	21.472	864.111	676.812
275.512	21.215	863.244	675.080
276.526	21.562	863.260	676.374
277.541	21.829	862.743	676.940
278.555	21.384	861.812	674.435
279.570	21.438	860.882	673.854
280.585	21.490	860.300	673.538
281.599	21.540	859.606	673.131
282.614	20.670	858.437	668.810
283.628	20.968	857.885	669.468
284.643	21.352	857.437	670.533
285.657	20.954	856.285	668.047
286.672	20.644	855.659	666.311
287.687	21.350	855.431	668.778
288.701	21.344	855.239	668.544
289.716	21.056	854.020	666.432
290.730	21.015	853.445	665.770
291.745	20.660	852.625	663.716
292.760	20.990	852.841	665.086
293.774	21.899	852.855	668.502
294.789	22.215	852.416	669.301
295.803	22.274	852.127	669.241
296.818	22.222	851.135	668.206
297.833	21.823	850.045	665.775
298.847	21.643	849.530	664.630
299.862	21.945	849.683	665.836
300.876	22.229	848.907	666.247
301.891	22.184	848.390	665.611
302.906	21.540	847.345	662.294
303.920	21.895	846.814	663.163
304.935	22.109	847.173	664.197
305.949	22.204	845.714	663.353
306.964	21.879	845.362	661.792
307.979	22.078	844.515	661.819
308.993	22.391	844.708	663.091
310.008	22.346	843.616	662.006
311.022	21.989	843.117	660.214
312.037	22.005	842.587	659.799
313.052	21.725	841.767	658.048
314.066	20.945	840.161	653.810
315.081	20.578	839.680	652.003
316.095	21.456	840.040	655.517
317.110	21.929	839.636	656.915
318.125	21.056	838.035	652.340
319.139	19.956	836.934	647.313
320.154	20.158	836.446	647.635
321.168	20.951	836.967	650.942
322.183	21.471	837.076	652.913
323.197	21.602	836.484	652.879
324.212	21.945	836.227	653.900
325.227	21.894	835.493	653.078
326.241	21.865	834.614	652.227
327.256	21.775	834.047	651.391
328.270	21.764	833.782	651.086
329.285	21.668	832.630	649.772
330.300	21.312	832.140	648.014
331.314	21.501	832.133	648.652
332.329	22.045	831.374	650.017
333.343	21.977	831.333	649.674
334.358	21.996	830.960	649.398
335.373	22.041	830.442	649.099
336.387	22.338	830.088	649.863
337.402	22.489	829.943	650.248
338.416	22.499	829.540	649.913
339.431	22.368	829.535	649.370
340.446	22.606	828.992	649.764
341.460	22.493	828.304	648.752
342.475	22.457	827.518	647.944
343.489	22.378	827.549	647.620
344.504	22.607	827.573	648.423
345.519	23.006	826.903	649.307
346.533	22.824	826.409	648.193
347.548	22.901	825.891	648.013
348.562	22.666	825.702	646.947
349.577	22.790	824.733	646.585
350.592	22.850	823.813	646.024
351.606	22.780	823.275	645.291
352.621	22.754	822.560	644.577
353.635	22.587	822.060	643.518
354.650	21.881	820.077	639.338
355.665	21.147	818.406	635.306
356.679	21.578	818.747	637.084
357.694	21.925	818.186	637.855
358.708	21.638	817.727	636.397
359.723	22.215	817.655	638.381
360.738	22.375	817.153	638.514
361.752	22.640	816.874	639.199
362.767	22.966	816.369	639.926
363.781	23.136	816.114	640.286
364.796	23.121	815.818	639.943
365.810	23.139	815.408	639.628
366.825	23.105	815.047	639.167
367.840	22.801	814.296	637.423
368.854	22.483	813.154	635.327
369.869	22.739	812.585	635.749
370.883	22.556	812.420	634.905
371.898	22.393	812.163	634.061
372.913	22.501	811.983	634.252
373.927	22.744	811.155	634.422
374.942	22.895	810.531	634.421
375.956	22.922	810.164	634.174
376.971	22.962	810.236	634.320
377.986	22.968	810.233	634.281
379.000	22.909	809.299	633.283
380.015	22.927	808.575	632.726
381.029	22.977	807.892	632.312
382.044	23.093	807.383	632.276
383.059	23.219	806.840	632.244
384.073	23.150	806.396	631.592
385.088	23.229	805.785	631.339
386.102	22.956	805.005	629.700
387.117	22.980	804.363	629.227
388.132	22.404	803.441	626.400
389.146	22.031	802.779	624.505
390.161	22.425	802.754	625.830
391.175	22.781	802.660	626.966
392.190	22.513	801.399	624.975
393.205	21.159	799.384	618.553
394.219	19.920	797.268	612.483
395.234	19.839	797.201	612.090
396.248	21.565	798.488	619.135
397.263	22.701	799.482	623.868
398.278	22.834	798.841	623.783
399.292	22.585	798.038	622.225
400.307	22.475	797.852	621.635
401.321	22.603	797.365	621.653
402.336	22.970	797.316	622.851
403.350	23.310	797.448	624.098
404.365	23.611	797.329	625.012
405.380	23.832	796.488	625.073
406.394	24.064	795.830	625.315
407.409	23.905	795.572	624.500
408.423	23.802	795.098	623.711
409.438	23.742	794.810	623.218
410.453	23.947	794.543	623.674
411.467	23.778	793.828	622.464
412.482	23.709	793.598	621.989
413.496	23.879	793.231	622.240
414.511	23.867	792.564	621.619
415.526	23.857	792.363	621.371
416.540	23.629	791.642	619.956
417.555	23.493	791.031	618.947
418.569	23.508	790.521	618.548
419.584	23.602	789.752	618.219
420.599	23.240	789.479	616.689
421.613	157.842	1364.883	1798.298
422.628	136.676	1448.699	1798.381
