DTS Sentinel unit serial number:	SN413079Multiplexer serial number:	ORYXHardware model number:	OX4-SRSoftware version number:	ORYX F/W v4.00 Oryx Data Collector v3.7.2.0data status	okinstallation	princeton_trtdifferential loss correction	single-endedforward channel	channel 1reverse channel	N/Adate	2019/09/12time	02:48:11forward acquisition time	60.00reverse acquisition time	0.00gamma	496.2192k internal	0.2322k external	0.2322temperature offset calibration	1.0076default loss term (dB/km)	0.3790temperature slope calibration	1.0000multiplexer offset coefficient	1.0000multiplexer slope coefficient	1.0000fibre end	0.00T internal ref (°C)	32.37T ext. ref 1 (°C)	2.09T ext. ref 2 (°C)	26.91length (m)	temperature (°C)	Stokes	anti-Stokes-747.200	-200.000	0.052	-0.261
-746.185	160.724	-0.129	0.182
-745.171	-200.000	0.024	0.227
-744.156	800.000	0.037	0.119
-743.142	300.404	0.241	0.449
-742.127	-75.993	-0.238	-0.085
-741.112	81.797	0.168	-0.184
-740.098	-200.000	-0.017	0.126
-739.083	800.000	0.066	0.292
-738.069	63.484	0.224	0.227
-737.054	-115.313	0.469	0.089
-736.039	-200.000	0.037	-0.203
-735.025	-200.000	-0.017	0.107
-734.010	-40.681	-0.151	-0.079
-732.996	-113.689	-0.169	-0.033
-731.981	-200.000	0.007	-0.203
-730.966	-97.329	-0.309	0.081
-729.952	255.513	0.026	0.044
-728.937	179.749	-0.140	0.207
-727.923	504.595	0.037	-0.087
-726.908	70.530	-0.218	-0.228
-725.894	-200.000	-0.002	-0.340
-724.879	703.860	0.047	0.126
-723.864	170.327	-0.150	0.217
-722.850	743.536	-0.039	0.105
-721.835	-200.000	0.032	0.149
-720.821	800.000	-0.055	-0.199
-719.806	71.588	0.300	-0.315
-718.791	325.886	0.094	-0.181
-717.777	-86.891	0.327	-0.101
-716.762	800.000	0.105	0.321
-715.748	-91.079	-0.340	0.099
-714.733	-26.991	0.295	0.174
-713.718	60.228	-0.280	-0.279
-712.704	491.214	0.079	0.183
-711.689	588.949	0.057	0.142
-710.675	107.173	-0.047	0.057
-709.660	-41.334	0.135	0.070
-708.645	-200.000	0.024	-0.349
-707.631	-188.639	-0.195	-0.002
-706.616	-136.012	0.214	0.025
-705.602	-182.123	-0.425	-0.008
-704.587	151.085	0.128	0.176
-703.572	-1.267	0.364	-0.259
-702.558	-147.259	-0.159	-0.014
-701.543	-200.000	-0.004	0.039
-700.529	-61.024	0.119	0.051
-699.514	464.883	0.152	-0.342
-698.499	-51.377	0.204	-0.096
-697.485	-29.811	0.192	0.110
-696.470	-69.260	0.173	0.067
-695.456	-200.000	0.002	0.118
-694.441	-90.931	0.211	-0.061
-693.426	800.000	0.051	0.198
-692.412	-200.000	0.046	-0.293
-691.397	111.712	-0.138	0.168
-690.383	-61.573	-0.176	0.075
-689.368	-200.000	0.001	-0.111
-688.354	70.860	0.107	0.112
-687.339	21.733	0.152	0.125
-686.324	67.118	-0.111	0.114
-685.310	-185.800	0.250	-0.004
-684.295	110.201	-0.167	0.202
-683.281	42.176	-0.154	-0.141
-682.266	-36.283	-0.262	0.142
-681.251	-200.000	-0.040	0.233
-680.237	136.174	-0.219	-0.288
-679.222	78.749	0.090	0.097
-678.208	-200.000	-0.004	-0.147
-677.193	202.110	0.198	-0.308
-676.178	181.402	-0.146	-0.217
-675.164	800.000	-0.095	-0.300
-674.149	800.000	0.060	0.240
-673.135	-73.224	-0.233	-0.086
-672.120	-200.000	-0.004	0.240
-671.105	-200.000	-0.009	-0.103
-670.091	187.166	-0.161	-0.242
-669.076	566.176	0.032	0.079
-668.062	520.289	-0.083	-0.197
-667.047	-71.569	0.085	0.032
-666.032	532.730	-0.024	-0.058
-665.018	89.402	0.295	0.331
-664.003	-200.000	-0.031	-0.144
-662.989	-78.385	-0.239	-0.083
-661.974	800.000	0.062	0.179
-660.959	800.000	-0.146	-0.526
-659.945	620.667	0.082	-0.209
-658.930	13.020	-0.351	-0.273
-657.916	224.395	-0.114	0.185
-656.901	258.265	0.036	0.063
-655.886	336.165	-0.095	-0.186
-654.872	261.979	-0.208	-0.363
-653.857	506.187	-0.088	-0.205
-652.843	5.208	-0.134	0.099
-651.828	-200.000	-0.001	0.224
-650.814	-200.000	0.018	0.163
-649.799	-116.736	0.272	0.050
-648.784	-33.404	-0.141	-0.079
-647.770	600.683	0.119	-0.297
-646.755	59.529	0.191	-0.189
-645.741	-200.000	0.000	-0.185
-644.726	55.080	-0.218	-0.212
-643.711	-56.132	0.156	-0.070
-642.697	50.105	-0.277	0.263
-641.682	-134.446	0.091	-0.011
-640.668	-200.000	0.023	0.114
-639.653	253.110	0.126	-0.216
-638.638	-140.390	-0.175	0.018
-637.624	-52.967	0.090	0.042
-636.609	-162.367	-0.431	-0.022
-635.595	-165.548	0.346	0.015
-634.580	-35.716	-0.193	-0.105
-633.565	262.582	-0.021	-0.036
-632.551	-141.582	-0.344	-0.035
-631.536	-159.335	-0.177	0.010
-630.522	-78.308	0.306	-0.106
-629.507	-200.000	-0.031	-0.324
-628.492	48.956	0.103	-0.098
-627.478	-75.884	0.404	-0.144
-626.463	519.304	-0.059	-0.138
-625.449	-55.522	-0.299	0.135
-624.434	-200.000	-0.004	-0.016
-623.419	800.000	-0.039	0.138
-622.405	800.000	0.020	0.084
-621.390	-11.043	-0.220	-0.146
-620.376	-12.829	0.174	0.114
-619.361	33.174	0.317	-0.276
-618.346	-126.704	-0.215	-0.032
-617.332	-88.380	0.155	0.047
-616.317	-111.103	-0.221	0.045
-615.303	-200.000	0.030	-0.219
-614.288	-200.000	-0.016	-0.208
-613.273	800.000	0.067	0.186
-612.259	800.000	-0.012	0.045
-611.244	54.598	-0.222	0.215
-610.230	-200.000	-0.011	-0.333
-609.215	67.642	-0.134	-0.137
-608.201	151.843	0.132	0.182
-607.186	-116.060	-0.410	0.077
-606.171	45.115	0.214	0.198
-605.157	-162.578	-0.166	0.008
-604.142	-52.887	-0.244	0.113
-603.128	-200.000	0.033	0.238
-602.113	94.763	0.160	-0.183
-601.098	-28.360	-0.017	0.010
-600.084	-73.865	0.212	-0.077
-599.069	-113.310	-0.254	-0.050
-598.055	34.049	0.095	0.083
-597.040	-135.970	-0.151	0.018
-596.025	441.117	-0.140	0.307
-595.011	234.981	-0.125	-0.207
-593.996	800.000	0.071	-0.312
-592.982	-200.000	-0.039	-0.296
-591.967	-75.902	-0.107	-0.038
-590.952	-200.000	-0.017	-0.238
-589.938	16.212	0.098	0.078
-588.923	93.736	-0.213	-0.242
-587.909	-156.983	0.245	-0.015
-586.894	146.557	0.033	-0.045
-585.879	800.000	0.028	-0.119
-584.865	-151.635	-0.336	-0.025
-583.850	-200.000	0.004	-0.223
-582.836	-16.476	-0.231	0.147
-581.821	107.258	0.105	0.125
-580.806	-200.000	0.032	-0.142
-579.792	-64.819	0.171	-0.069
-578.777	-200.000	0.014	-0.321
-577.763	-74.844	0.104	0.038
-576.748	-25.091	-0.162	0.097
-575.733	72.540	-0.189	0.198
-574.719	-125.498	-0.157	0.024
-573.704	-166.271	-0.204	-0.009
-572.690	-92.006	0.186	-0.053
-571.675	-200.000	-0.044	-0.412
-570.661	291.315	0.045	-0.082
-569.646	537.840	0.065	0.154
-568.631	-117.367	0.092	0.017
-567.617	-25.888	0.137	-0.081
-566.602	-36.580	0.366	0.198
-565.588	-90.089	0.174	0.051
-564.573	-89.788	0.368	-0.108
-563.558	-39.995	-0.302	-0.158
-562.544	112.792	0.057	-0.069
-561.529	-19.825	0.115	-0.072
-560.515	-48.917	-0.120	-0.058
-559.500	213.197	0.189	0.299
-558.485	-200.000	0.002	-0.135
-557.471	-18.602	-0.160	0.100
-556.456	-38.298	-0.073	-0.039
-555.442	-97.192	0.123	0.032
-554.427	52.711	-0.178	-0.171
-553.412	-200.000	0.007	0.123
-552.398	800.000	0.046	-0.145
-551.383	208.048	0.168	0.263
-550.369	-92.053	-0.233	-0.066
-549.354	-51.595	0.176	-0.083
-548.339	-144.208	-0.267	-0.025
-547.325	146.699	0.129	-0.173
-546.310	-116.671	0.157	-0.029
-545.296	198.852	-0.065	0.099
-544.281	384.953	-0.110	-0.228
-543.266	153.648	-0.258	-0.354
-542.252	-12.266	-0.153	0.101
-541.237	44.658	0.215	0.198
-540.223	160.350	-0.229	-0.320
-539.208	87.877	0.096	0.106
-538.193	-200.000	-0.028	0.128
-537.179	-21.449	-0.541	-0.331
-536.164	-90.468	0.051	-0.015
-535.150	-30.771	-0.083	-0.047
-534.135	800.000	-0.067	-0.225
-533.121	-36.553	-0.506	-0.273
-532.106	-200.000	-0.025	-0.302
-531.091	-200.000	-0.032	0.165
-530.077	-200.000	0.079	-0.350
-529.062	22.753	0.150	-0.123
-528.048	53.022	0.213	0.204
-527.033	26.355	-0.122	-0.102
-526.018	628.114	0.075	0.191
-525.004	800.000	0.086	-0.239
-523.989	-135.448	0.142	0.017
-522.975	-52.239	0.280	-0.130
-521.960	173.848	0.059	0.085
-520.945	-120.632	-0.317	-0.054
-519.931	128.555	0.189	0.241
-518.916	-160.423	-0.164	-0.009
-517.902	-13.657	0.161	-0.104
-516.887	-99.672	-0.332	0.083
-515.872	1.865	-0.172	-0.124
-514.858	-200.000	0.002	0.115
-513.843	-22.311	-0.168	-0.102
-512.829	-28.970	-0.162	-0.093
-511.814	72.551	-0.267	0.279
-510.799	85.020	0.154	0.169
-509.785	391.829	-0.035	0.074
-508.770	-200.000	-0.004	-0.086
-507.756	-3.018	-0.137	0.095
-506.741	-3.035	0.038	0.027
-505.726	-107.244	0.381	0.084
-504.712	-69.051	0.034	-0.013
-503.697	123.119	0.077	-0.097
-502.683	164.172	0.062	-0.087
-501.668	-48.508	-0.198	0.095
-500.653	-138.350	-0.148	-0.016
-499.639	283.242	0.094	0.169
-498.624	-200.000	0.005	-0.194
-497.610	122.867	-0.149	-0.186
-496.595	-101.781	0.268	0.065
-495.581	-66.393	-0.179	-0.071
-494.566	248.843	0.056	0.094
-493.551	95.567	0.166	0.189
-492.537	132.417	0.199	-0.256
-491.522	86.014	0.061	0.068
-490.508	-200.000	0.012	-0.086
-489.493	69.091	-0.292	0.300
-488.478	800.000	-0.109	0.305
-487.464	800.000	0.028	-0.093
-486.449	184.328	-0.151	-0.224
-485.435	32.961	-0.163	-0.141
-484.420	197.605	0.118	-0.180
-483.405	-94.399	0.363	0.099
-482.391	205.336	-0.187	-0.291
-481.376	-29.808	0.048	-0.027
-480.362	152.342	-0.209	-0.286
-479.347	635.527	0.105	0.266
-478.332	800.000	0.084	-0.253
-477.318	-84.101	-0.421	-0.134
-476.303	-13.193	-0.126	0.082
-475.289	139.938	0.175	0.231
-474.274	434.675	0.093	0.202
-473.259	508.213	-0.079	0.183
-472.245	-3.414	-0.065	0.045
-471.230	-16.120	0.197	-0.125
-470.216	549.290	0.145	-0.348
-469.201	78.683	0.079	0.085
-468.186	-110.387	0.410	0.085
-467.172	-49.178	0.196	0.094
-466.157	-83.155	-0.287	-0.092
-465.143	800.000	-0.074	-0.269
-464.128	-200.000	0.038	0.301
-463.113	800.000	0.015	-0.050
-462.099	391.171	-0.061	0.127
-461.084	-48.369	-0.100	0.048
-460.070	7.919	0.216	-0.162
-459.055	299.119	0.099	-0.182
-458.040	-155.357	0.072	0.005
-457.026	800.000	-0.135	0.433
-456.011	-200.000	-0.002	0.392
-454.997	-200.000	-0.019	0.184
-453.982	142.758	-0.158	0.210
-452.968	-179.166	0.035	0.001
-451.953	143.300	0.173	-0.229
-450.938	-153.382	-0.419	0.029
-449.924	-200.000	0.031	0.143
-448.909	-137.218	-0.318	-0.036
-447.895	242.589	-0.199	0.333
-446.880	49.249	-0.022	-0.020
-445.865	-200.000	0.056	-0.262
-444.851	-200.000	0.043	-0.243
-443.836	37.637	0.181	-0.161
-442.822	6.269	-0.122	-0.090
-441.807	555.223	-0.147	-0.354
-440.792	309.693	0.062	-0.115
-439.778	-135.656	-0.323	0.038
-438.763	-147.889	-0.410	0.034
-437.749	84.428	-0.124	0.135
-436.734	-200.000	0.021	0.147
-435.719	687.608	0.087	-0.226
-434.705	21.711	-0.153	-0.124
-433.690	-83.940	-0.084	-0.027
-432.676	-148.987	0.121	-0.010
-431.661	-26.028	-0.105	0.062
-430.646	-118.251	0.073	0.013
-429.632	-40.548	-0.210	-0.109
-428.617	-118.360	-0.107	-0.019
-427.603	32.600	-0.109	0.094
-426.588	34.678	0.151	-0.131
-425.573	34.689	-0.109	0.095
-424.559	323.085	-0.273	0.519
-423.544	-59.489	0.097	-0.042
-422.530	-200.000	-0.039	-0.254
-421.515	-3.477	0.125	0.087
-420.500	465.776	-0.052	0.116
-419.486	-200.000	-0.053	0.268
-418.471	-200.000	-0.030	-0.228
-417.457	408.362	-0.103	-0.217
-416.442	22.644	0.146	0.120
-415.428	451.068	0.051	0.113
-414.413	15.725	0.262	-0.205
-413.398	-150.462	-0.110	0.008
-412.384	-39.556	0.469	0.245
-411.369	-91.837	0.278	-0.079
-410.355	-200.000	-0.043	-0.267
-409.340	5.047	0.405	-0.297
-408.325	-200.000	0.030	-0.187
-407.311	18.749	0.162	-0.129
-406.296	428.520	-0.129	-0.277
-405.282	118.896	-0.173	-0.213
-404.267	-155.537	0.153	0.010
-403.252	-200.000	-0.005	-0.110
-402.238	800.000	0.105	0.293
-401.223	-32.609	-0.044	-0.025
-400.209	-139.359	-0.146	-0.016
-399.194	-58.894	0.187	-0.081
-398.179	-127.169	0.152	0.022
-397.165	-78.570	-0.196	-0.067
-396.150	-71.616	-0.202	0.075
-395.136	187.057	0.078	0.116
-394.121	499.926	0.075	-0.171
-393.106	-124.254	0.271	-0.042
-392.092	-21.419	-0.122	-0.074
-391.077	800.000	0.045	0.125
-390.063	353.839	0.085	-0.167
-389.048	39.034	-0.144	0.129
-388.033	-40.128	0.155	-0.081
-387.019	27.040	-0.252	0.211
-386.004	-65.803	-0.302	0.120
-384.990	-200.000	0.001	0.157
-383.975	-200.000	0.027	0.251
-382.960	800.000	-0.059	0.198
-381.946	-54.808	-0.193	0.087
-380.931	-200.000	-0.022	-0.289
-379.917	-152.008	-0.173	-0.013
-378.902	454.364	-0.087	-0.193
-377.888	-200.000	0.036	0.169
-376.873	-200.000	-0.029	-0.273
-375.858	800.000	-0.084	0.296
-374.844	-200.000	0.053	0.566
-373.829	-13.749	-0.248	0.160
-372.815	800.000	-0.080	-0.278
-371.800	-200.000	-0.041	-0.348
-370.785	-109.615	-0.127	0.027
-369.771	800.000	-0.038	0.130
-368.756	800.000	-0.023	0.065
-367.742	23.722	0.182	0.149
-366.727	-200.000	-0.029	0.356
-365.712	-130.302	0.165	0.022
-364.698	248.385	-0.074	-0.125
-363.683	-200.000	-0.006	0.179
-362.669	800.000	0.052	0.175
-361.654	30.762	0.151	-0.129
-360.639	-15.718	-0.226	0.144
-359.625	-200.000	0.024	-0.430
-358.610	-76.278	0.202	0.071
-357.596	87.977	-0.163	0.180
-356.581	115.916	0.074	-0.091
-355.566	-151.955	-0.201	0.015
-354.552	800.000	0.073	0.298
-353.537	-200.000	-0.013	-0.122
-352.523	-58.391	0.038	0.017
-351.508	-200.000	-0.076	0.343
-350.493	800.000	-0.097	0.270
-349.479	-200.000	0.004	-0.175
-348.464	479.464	0.182	0.410
-347.450	-99.618	0.237	-0.059
-346.435	800.000	-0.035	-0.114
-345.420	800.000	-0.113	0.370
-344.406	-50.236	-0.135	0.063
-343.391	208.632	0.135	-0.211
-342.377	359.869	-0.244	-0.486
-341.362	98.738	-0.108	-0.124
-340.348	-187.576	-0.108	0.001
-339.333	87.352	-0.204	0.224
-338.318	-200.000	0.044	0.447
-337.304	800.000	0.011	0.033
-336.289	800.000	0.026	-0.084
-335.275	-70.373	-0.260	-0.098
-334.260	50.034	0.085	0.080
-333.245	-141.976	-0.217	-0.021
-332.231	382.544	0.147	0.300
-331.216	-200.000	0.025	0.118
-330.202	-63.304	0.087	-0.036
-329.187	-5.381	0.169	0.116
-328.172	-200.000	0.001	0.045
-327.158	35.011	-0.304	-0.265
-326.143	-150.364	-0.127	-0.010
-325.129	800.000	0.113	-0.483
-324.114	-200.000	0.019	0.127
-323.099	-132.084	0.257	-0.033
-322.085	-121.609	0.368	0.061
-321.070	185.848	0.126	-0.186
-320.056	-200.000	0.017	-0.078
-319.041	-200.000	-0.008	0.289
-318.026	-128.937	0.249	-0.035
-317.012	-11.200	-0.223	-0.146
-315.997	-116.923	-0.122	-0.022
-314.983	-159.603	0.289	0.016
-313.968	-200.000	-0.070	-0.313
-312.953	285.698	0.045	-0.080
-311.939	-200.000	0.024	0.340
-310.924	-133.329	0.446	0.056
-309.910	753.885	0.098	0.262
-308.895	5.006	0.247	0.181
-307.880	129.001	-0.195	0.247
-306.866	800.000	0.043	0.121
-305.851	-200.000	0.081	0.432
-304.837	71.873	-0.075	0.078
-303.822	320.551	-0.082	-0.154
-302.807	208.391	-0.164	-0.255
-301.793	147.922	-0.055	0.074
-300.778	-200.000	0.021	0.309
-299.764	-200.000	0.021	0.145
-298.749	800.000	-0.043	0.177
-297.735	166.666	-0.212	0.298
-296.720	234.810	0.173	0.284
-295.705	-45.968	-0.296	-0.145
-294.691	800.000	0.026	-0.098
-293.676	-104.868	0.218	-0.050
-292.662	-26.809	0.224	-0.130
-291.647	-77.990	-0.175	-0.060
-290.632	-57.427	-0.093	0.040
-289.618	-57.027	-0.259	0.114
-288.603	-200.000	0.002	-0.292
-287.589	279.933	0.197	0.350
-286.574	-200.000	0.002	0.225
-285.559	33.522	-0.085	-0.073
-284.545	-32.449	-0.286	0.158
-283.530	800.000	-0.040	-0.110
-282.516	8.228	-0.304	0.226
-281.501	-112.365	-0.065	-0.013
-280.486	267.441	0.034	0.059
-279.472	320.819	-0.053	0.100
-278.457	107.384	0.139	-0.165
-277.443	169.651	-0.012	0.017
-276.428	-152.022	0.391	-0.028
-275.413	-104.826	0.317	0.072
-274.399	-200.000	-0.005	0.031
-273.384	290.565	-0.017	0.030
-272.370	65.833	0.132	0.133
-271.355	162.976	0.098	-0.137
-270.340	271.731	0.197	-0.344
-269.326	-111.761	0.153	0.031
-268.311	-118.543	-0.349	0.061
-267.297	184.247	0.275	-0.403
-266.282	130.676	0.142	-0.181
-265.267	258.740	-0.128	-0.219
-264.253	785.639	-0.081	0.220
-263.238	-4.665	0.186	0.128
-262.224	404.561	0.044	0.092
-261.209	-200.000	-0.003	0.331
-260.195	-116.102	0.026	-0.005
-259.180	428.898	0.020	-0.043
-258.165	86.431	0.158	0.173
-257.151	346.949	-0.126	-0.246
-256.136	602.292	-0.065	-0.161
-255.122	-200.000	0.012	0.279
-254.107	124.031	0.040	-0.049
-253.092	-200.000	-0.030	0.177
-252.078	145.125	-0.199	0.264
-251.063	-88.176	0.238	-0.071
-250.049	50.552	0.111	-0.104
-249.034	-95.072	-0.193	-0.052
-248.019	-133.002	-0.188	-0.024
-247.005	-63.605	0.111	0.045
-245.990	-200.000	0.038	-0.272
-244.976	-200.000	0.002	0.088
-243.961	-73.626	0.221	-0.080
-242.946	-118.508	-0.414	-0.073
-241.932	800.000	0.052	0.163
-240.917	169.039	-0.164	0.231
-239.903	-200.000	-0.016	-0.149
-238.888	-121.690	0.217	-0.036
-237.873	306.814	0.103	-0.191
-236.859	266.379	0.060	0.104
-235.844	77.992	0.238	-0.252
-234.830	26.246	-0.340	0.281
-233.815	-200.000	0.030	-0.146
-232.800	200.761	-0.058	-0.089
-231.786	-33.237	0.120	0.066
-230.771	-77.745	-0.104	0.036
-229.757	705.592	0.083	-0.216
-228.742	-200.000	0.010	-0.453
-227.727	800.000	-0.023	0.081
-226.713	245.466	-0.081	-0.135
-225.698	-137.551	0.289	0.032
-224.684	-159.490	-0.136	0.008
-223.669	-17.033	0.312	0.195
-222.655	-200.000	-0.021	-0.156
-221.640	97.165	-0.159	-0.180
-220.625	-63.431	0.198	0.080
-219.611	223.047	-0.227	0.363
-218.596	-81.873	0.254	-0.082
-217.582	-200.000	0.012	-0.183
-216.567	-169.737	0.313	-0.011
-215.552	-122.194	0.059	-0.010
-214.538	79.401	-0.070	0.074
-213.523	-200.000	-0.017	0.193
-212.509	39.256	0.211	0.187
-211.494	466.990	-0.078	0.174
-210.479	-200.000	0.023	0.272
-209.465	-27.266	0.227	-0.131
-208.450	93.415	0.227	-0.254
-207.436	-73.866	-0.084	0.030
-206.421	-96.005	0.179	-0.047
-205.406	-200.000	-0.012	0.247
-204.392	266.019	-0.121	0.209
-203.377	-146.819	0.206	0.018
-202.363	-75.088	0.067	0.024
-201.348	-200.000	-0.022	0.300
-200.333	800.000	0.120	-0.343
-199.319	-18.277	-0.173	0.107
-198.304	800.000	-0.046	0.176
-197.290	184.064	0.221	-0.324
-196.275	-126.325	0.244	-0.036
-195.260	-200.000	0.082	0.390
-194.246	56.025	-0.097	-0.094
-193.231	58.350	0.215	-0.208
-192.217	800.000	0.084	-0.241
-191.202	-200.000	-0.063	0.298
-190.187	718.400	0.079	-0.207
-189.173	-166.055	-0.075	0.003
-188.158	-65.068	0.321	-0.128
-187.144	-57.129	-0.089	0.039
-186.129	605.213	-0.099	-0.244
-185.114	504.588	-0.090	0.205
-184.100	241.618	0.209	0.345
-183.085	-33.626	0.316	-0.172
-182.071	-200.000	0.014	-0.192
-181.056	-200.000	-0.009	0.244
-180.042	343.155	0.126	0.244
-179.027	-22.791	-0.190	-0.113
-178.012	4.003	0.237	0.171
-176.998	800.000	0.040	0.152
-175.983	-144.143	-0.459	-0.042
-174.969	62.400	0.210	-0.207
-173.954	800.000	0.140	-0.405
-172.939	86.049	-0.182	0.198
-171.925	800.000	-0.044	0.132
-170.910	-142.263	0.248	0.024
-169.896	21.319	-0.059	-0.047
-168.881	33.928	-0.117	0.101
-167.866	-43.460	-0.190	0.095
-166.852	-26.644	0.042	-0.024
-165.837	211.577	0.131	0.203
-164.823	-87.160	0.079	0.024
-163.808	-13.355	-0.078	0.050
-162.793	330.245	0.102	0.193
-161.779	113.350	0.173	0.207
-160.764	800.000	0.078	0.312
-159.750	-38.022	0.075	-0.039
-158.735	29.223	-0.043	0.036
-157.720	132.914	-0.049	-0.063
-156.706	119.710	-0.146	0.179
-155.691	71.067	0.086	0.088
-154.677	-200.000	-0.057	0.353
-153.662	6.652	0.222	0.163
-152.647	-134.707	-0.233	-0.028
-151.633	-200.000	0.050	-0.465
-150.618	53.416	0.238	-0.225
-149.604	-59.168	0.089	-0.038
-148.589	-129.762	0.128	0.017
-147.574	-44.799	-0.195	-0.096
-146.560	-200.000	0.007	-0.074
-145.545	227.880	0.074	-0.119
-144.531	800.000	0.036	-0.099
-143.516	155.024	-0.161	0.219
-142.502	-92.449	-0.073	-0.020
-141.487	5.950	0.192	-0.140
-140.472	117.076	0.133	0.161
-139.458	800.000	0.053	0.164
-138.443	16.162	0.152	-0.118
-137.429	7.953	-0.239	0.177
-136.414	800.000	-0.033	0.124
-135.399	-141.923	0.168	0.017
-134.385	62.151	-0.124	0.122
-133.370	-200.000	0.008	-0.065
-132.356	-90.207	0.322	-0.092
-131.341	30.719	-0.158	0.134
-130.326	-85.494	0.133	0.041
-129.312	-161.511	-0.373	0.019
-128.297	-196.696	0.255	0.002
-127.283	37.161	0.161	0.141
-126.268	84.067	-0.113	-0.122
-125.253	-200.000	-0.026	-0.158
-124.239	233.502	-0.107	-0.173
-123.224	800.000	0.101	0.292
-122.210	-200.000	-0.004	0.162
-121.195	116.841	-0.191	-0.232
-120.180	277.520	-0.134	-0.236
-119.166	-104.601	0.259	0.059
-118.151	-113.560	0.358	-0.069
-117.137	394.565	-0.162	-0.333
-116.122	-51.521	0.213	-0.098
-115.107	116.693	-0.020	-0.024
-114.093	-181.064	0.299	-0.006
-113.078	-68.953	-0.129	-0.049
-112.064	-96.768	0.164	-0.042
-111.049	800.000	-0.063	-0.215
-110.034	77.663	-0.144	-0.151
-109.020	201.567	-0.170	-0.258
-108.005	254.436	0.097	0.164
-106.991	-84.218	0.252	-0.079
-105.976	-56.374	0.102	0.045
-104.962	800.000	0.078	0.232
-103.947	800.000	-0.012	-0.048
-102.932	-136.346	-0.287	-0.033
-101.918	246.430	0.091	-0.151
-100.903	-60.107	-0.091	0.038
-99.889	-111.978	-0.221	0.044
-98.874	-200.000	0.038	-0.224
-97.859	-76.166	0.234	-0.081
-96.845	-200.000	-0.027	-0.120
-95.830	-3.048	-0.290	-0.199
-94.816	-14.035	-0.127	-0.080
-93.801	-17.419	0.523	0.324
-92.786	-126.564	-0.112	0.016
-91.772	76.153	0.108	0.112
-90.757	-200.000	0.071	-0.315
-89.743	-200.000	0.029	-0.159
-88.728	-110.023	-0.342	0.070
-87.713	-27.472	-0.069	-0.040
-86.699	800.000	0.119	0.392
-85.684	162.166	0.219	-0.302
-84.670	249.117	-0.133	0.222
-83.655	252.072	-0.080	-0.134
-82.640	366.089	0.095	0.188
-81.626	254.488	-0.120	0.202
-80.611	-16.818	0.072	-0.045
-79.597	-63.698	-0.185	-0.075
-78.582	800.000	0.023	-0.092
-77.567	-46.793	0.267	-0.129
-76.553	33.940	0.070	-0.060
-75.538	-200.000	0.024	-0.243
-74.524	-81.730	0.240	0.078
-73.509	-125.106	-0.232	0.035
-72.494	95.506	0.066	-0.074
-71.480	559.146	0.054	0.128
-70.465	-71.024	0.215	0.080
-69.451	319.020	-0.178	0.332
-68.436	-44.179	0.322	-0.159
-67.422	79.892	-0.196	0.207
-66.407	800.000	-0.059	0.203
-65.392	225.014	0.155	-0.246
-64.378	600.421	0.127	0.311
-63.363	25.090	0.129	-0.105
-62.349	-12.141	0.092	0.059
-61.334	30.592	-1.241	-1.045
-60.319	-27.510	0.430	0.246
-59.305	800.000	-0.389	-1.168
-58.290	140.843	0.509	0.661
-57.276	220.663	0.940	1.482
-56.261	-200.000	95.507	587.569
-55.246	565.704	1366.066	3258.292
-54.232	162.809	2539.459	3506.084
-53.217	114.130	2135.545	2555.284
-52.203	44.088	1601.050	1443.641
-51.188	35.865	1339.090	1158.163
-50.173	32.735	1297.588	1103.935
-49.159	54.573	1344.973	1274.820
-48.144	56.674	1361.421	1302.864
-47.130	35.969	1320.351	1142.392
-46.115	32.576	1302.942	1107.379
-45.100	32.345	1297.997	1101.778
-44.086	32.251	1295.640	1099.183
-43.071	32.175	1293.566	1096.936
-42.057	32.231	1291.361	1095.353
-41.042	32.356	1288.993	1094.024
-40.027	32.290	1288.153	1092.889
-39.013	32.239	1286.552	1091.186
-37.998	32.227	1284.231	1089.104
-36.984	32.370	1282.386	1088.324
-35.969	32.406	1280.414	1086.818
-34.954	32.391	1279.115	1085.587
-33.940	32.491	1277.975	1085.152
-32.925	32.535	1276.239	1083.885
-31.911	32.501	1274.822	1082.443
-30.896	32.493	1273.153	1080.938
-29.881	32.515	1272.356	1080.346
-28.867	32.468	1270.768	1078.683
-27.852	32.446	1269.095	1077.098
-26.838	32.466	1267.758	1076.034
-25.823	32.509	1266.142	1074.866
-24.809	32.389	1265.152	1073.294
-23.794	32.522	1263.590	1072.689
-22.779	32.510	1262.656	1071.785
-21.765	32.429	1261.525	1070.318
-20.750	32.428	1260.400	1069.320
-19.736	32.363	1258.694	1067.457
-18.721	32.322	1257.624	1066.277
-17.706	32.229	1256.652	1064.881
-16.692	32.407	1255.348	1064.742
-15.677	32.240	1254.350	1062.912
-14.663	32.435	1252.901	1062.743
-13.648	32.435	1251.760	1061.730
-12.633	32.380	1250.954	1060.695
-11.619	32.294	1250.566	1059.843
-10.604	32.229	1249.541	1058.562
-9.590	32.287	1248.510	1057.971
-8.575	32.197	1247.390	1056.476
-7.560	32.265	1246.790	1056.310
-6.546	32.336	1245.746	1055.779
-5.531	32.237	1244.921	1054.483
-4.517	32.297	1244.039	1054.034
-3.502	32.296	1242.845	1052.975
-2.487	32.335	1242.214	1052.615
-1.473	32.325	1238.061	1049.001
-0.458	30.927	1223.165	1028.626
0.556	27.841	1206.088	991.360
1.571	24.246	1211.158	975.798
2.586	23.402	1226.124	983.091
3.600	22.928	1215.309	971.725
4.615	16.885	1142.865	882.367
5.629	6.883	1066.520	774.542
6.644	2.500	1045.577	738.172
7.659	1.945	1043.452	733.935
8.673	1.957	1042.118	732.987
9.688	1.939	1040.879	731.967
10.702	2.469	1039.507	733.476
11.717	9.018	1048.747	771.506
12.731	19.125	1063.017	830.959
13.746	24.113	1069.213	859.879
14.761	25.148	1070.635	865.950
15.775	25.234	1070.158	865.902
16.790	24.922	1069.336	863.653
17.804	24.861	1069.129	863.114
18.819	25.148	1068.435	863.863
19.834	25.141	1068.161	863.530
20.848	25.307	1067.323	863.578
21.863	25.289	1066.730	862.932
22.877	25.097	1066.489	861.741
23.892	25.131	1065.453	860.987
24.907	25.083	1064.939	860.270
25.921	25.200	1063.872	859.889
26.936	25.083	1062.782	858.372
27.950	25.178	1060.454	856.871
28.965	25.007	1059.013	854.814
29.980	25.068	1057.524	853.827
30.994	25.214	1057.399	854.347
32.009	25.233	1055.903	853.152
33.023	24.988	1054.821	851.041
34.038	25.121	1053.423	850.468
35.053	25.321	1053.206	851.164
36.067	25.332	1052.190	850.319
37.082	25.356	1051.886	850.112
38.096	25.473	1051.153	850.001
39.111	25.606	1050.195	849.776
40.126	25.299	1049.207	847.452
41.140	24.973	1047.547	844.501
42.155	24.811	1046.210	842.584
43.169	24.781	1045.565	841.851
44.184	24.735	1044.518	840.715
45.199	24.644	1043.824	839.655
46.213	24.782	1042.960	839.536
47.228	25.038	1042.128	839.991
48.242	25.080	1041.208	839.373
49.257	25.171	1040.526	839.174
50.271	25.236	1039.896	838.897
51.286	25.343	1038.863	838.487
52.301	25.317	1038.072	837.652
53.315	25.213	1037.079	836.292
54.330	25.090	1036.017	834.788
55.344	25.126	1035.744	834.663
56.359	25.216	1034.164	833.736
57.374	24.902	1033.491	831.658
58.388	24.994	1032.712	831.385
59.403	24.880	1031.970	830.185
60.417	24.775	1031.058	828.892
61.432	24.701	1031.134	828.538
62.447	24.868	1030.196	828.483
63.461	24.955	1029.484	828.243
64.476	24.875	1028.028	826.627
65.490	24.795	1027.406	825.684
66.505	24.977	1026.568	825.779
67.520	25.011	1025.695	825.160
68.534	24.714	1024.965	823.130
69.549	24.447	1024.168	821.191
70.563	24.454	1022.902	820.135
71.578	24.516	1022.234	819.811
72.593	24.319	1021.272	818.063
73.607	24.472	1020.812	818.323
74.622	24.775	1020.095	819.066
75.636	24.737	1019.816	818.593
76.651	24.548	1018.900	816.921
77.666	24.612	1017.925	816.359
78.680	24.598	1017.604	815.968
79.695	24.670	1016.800	815.581
80.709	24.941	1015.893	816.015
81.724	24.745	1015.363	814.624
82.739	24.952	1014.359	814.689
83.753	25.180	1014.122	815.461
84.768	25.564	1013.084	816.298
85.782	25.689	1012.182	816.065
86.797	25.466	1011.710	814.601
87.812	25.389	1010.723	813.389
88.826	25.334	1010.385	812.794
89.841	25.387	1009.498	812.251
90.855	25.576	1008.067	811.880
91.870	25.523	1007.366	811.001
92.884	25.248	1006.628	809.097
93.899	25.342	1005.256	808.347
94.914	25.422	1004.566	808.078
95.928	25.410	1003.386	807.005
96.943	25.144	1002.426	804.967
97.957	24.874	1001.062	802.592
98.972	24.844	1000.384	801.840
99.987	25.046	999.400	801.887
101.001	25.206	998.813	802.061
102.016	25.225	997.871	801.318
103.030	25.153	997.335	800.496
104.045	24.940	996.606	798.889
105.060	24.815	995.178	797.115
106.074	24.972	994.832	797.467
107.089	25.288	994.187	798.283
108.103	25.059	993.304	796.488
109.118	24.980	991.716	794.794
110.133	24.952	990.933	793.974
111.147	24.716	989.639	791.820
112.162	24.706	988.527	790.816
113.176	24.956	988.467	791.805
114.191	24.712	988.025	790.303
115.206	24.521	986.315	788.023
116.220	24.481	985.594	787.201
117.235	24.711	985.387	787.979
118.249	24.673	984.142	786.744
119.264	24.475	983.596	785.366
120.279	24.604	983.200	785.551
121.293	24.696	982.400	785.243
122.308	24.627	981.271	783.969
123.322	24.787	979.910	783.516
124.337	24.439	978.559	780.843
125.352	23.879	977.248	777.278
126.366	23.974	976.284	776.859
127.381	24.667	976.340	779.862
128.395	25.051	975.843	781.069
129.410	25.195	975.206	781.116
130.424	25.214	973.772	779.981
131.439	25.130	973.384	779.237
132.454	25.149	972.197	778.299
133.468	25.102	971.268	777.281
134.483	25.175	970.443	776.869
135.497	25.403	969.896	777.349
136.512	25.405	969.126	776.672
137.527	25.382	968.033	775.628
138.541	25.440	967.585	775.451
139.556	25.361	966.995	774.570
140.570	25.544	965.879	774.394
141.585	25.538	965.192	773.749
142.600	25.442	963.926	772.254
143.614	25.752	963.382	773.082
144.629	25.738	962.415	772.178
145.643	25.469	961.888	770.532
146.658	25.429	960.151	768.902
147.673	25.376	959.137	767.797
148.687	25.234	957.833	766.076
149.702	25.155	956.785	764.834
150.716	25.284	956.057	764.736
151.731	25.425	955.756	765.029
152.746	25.357	955.832	764.733
153.760	25.553	955.020	764.848
154.775	25.549	954.356	764.229
155.789	25.639	952.964	763.431
156.804	25.489	952.083	762.019
157.819	25.561	951.604	761.873
158.833	25.689	950.988	761.855
159.848	25.680	949.739	760.752
160.862	25.689	948.290	759.562
161.877	25.568	947.740	758.541
162.892	25.661	946.283	757.701
163.906	25.398	945.815	756.151
164.921	25.562	944.454	755.685
165.935	25.730	943.651	755.684
166.950	25.661	942.943	754.761
167.964	25.549	941.955	753.432
168.979	25.475	940.946	752.249
169.994	25.273	940.298	750.821
171.008	25.747	939.542	752.131
172.023	25.568	939.038	750.910
173.037	25.447	937.471	749.091
174.052	25.394	936.376	747.928
175.067	25.414	936.035	747.671
176.081	25.324	935.730	746.985
177.096	25.278	935.030	746.169
178.110	25.153	934.179	744.906
179.125	24.900	933.572	743.307
180.140	25.055	932.734	743.215
181.154	25.086	932.652	743.212
182.169	25.434	932.924	744.807
183.183	25.493	932.896	744.965
184.198	25.459	931.402	743.566
185.213	25.482	930.436	742.821
186.227	25.543	929.806	742.505
187.242	25.547	928.883	741.719
188.256	25.717	928.043	741.684
189.271	25.609	928.004	741.141
190.286	25.429	926.677	739.276
191.300	24.810	924.822	735.186
192.315	23.920	923.836	730.684
193.329	23.878	923.628	730.285
194.344	24.904	923.489	734.321
195.359	25.478	923.422	736.555
196.373	25.430	923.088	736.027
197.388	25.489	922.536	735.761
198.402	25.457	921.918	735.071
199.417	25.523	921.619	735.039
200.432	25.274	920.326	732.925
201.446	25.025	919.723	731.364
202.461	25.049	919.286	731.051
203.475	24.243	917.246	726.081
204.490	23.524	915.746	721.904
205.504	24.441	916.172	725.909
206.519	25.066	916.146	728.363
207.534	25.083	915.775	728.073
208.548	25.484	915.638	729.529
209.563	25.468	914.248	728.291
210.577	25.253	913.967	727.135
211.592	25.640	914.023	728.681
212.607	25.725	912.859	728.031
213.621	25.757	912.141	727.525
214.636	25.616	911.868	726.672
215.650	25.540	911.260	725.817
216.665	25.861	910.003	726.046
217.680	25.796	909.070	724.975
218.694	25.171	908.313	721.793
219.709	25.005	907.920	720.748
220.723	25.306	907.470	721.540
221.738	25.454	906.471	721.276
222.753	25.324	906.282	720.540
223.767	25.584	905.756	721.099
224.782	25.833	905.574	721.889
225.796	25.710	904.972	720.852
226.811	25.038	903.346	716.805
227.826	24.443	901.939	713.248
228.840	24.626	901.774	713.787
229.855	24.678	901.002	713.320
230.869	24.420	899.527	711.061
231.884	24.694	900.073	712.521
232.899	25.497	900.074	715.657
233.913	25.324	899.159	714.181
234.928	25.477	898.120	713.901
235.942	25.276	898.024	712.959
236.957	25.088	897.243	711.531
237.972	25.109	896.401	710.886
238.986	25.101	896.109	710.557
240.001	25.162	895.537	710.282
241.015	25.296	895.047	710.361
242.030	25.304	894.824	710.153
243.045	25.426	894.318	710.171
244.059	25.582	893.787	710.303
245.074	25.426	892.710	708.768
246.088	25.046	891.718	706.422
247.103	25.470	891.594	707.930
248.117	25.867	891.908	709.683
249.132	26.196	891.302	710.431
250.147	26.236	890.828	710.148
251.161	26.275	890.529	710.000
252.176	26.323	889.566	709.357
253.190	26.311	889.572	709.253
254.205	26.450	888.888	709.191
255.220	26.524	888.089	708.781
256.234	26.405	887.067	707.434
257.249	26.269	886.539	706.420
258.263	26.240	885.958	705.779
259.278	26.360	885.442	705.776
260.293	26.272	885.186	705.168
261.307	26.335	883.914	704.335
262.322	26.171	883.140	703.020
263.336	25.275	881.333	698.037
264.351	24.322	879.495	692.817
265.366	24.415	879.478	693.104
266.380	25.706	879.967	698.440
267.395	26.019	879.717	699.396
268.409	25.820	879.459	698.355
269.424	26.144	878.522	698.804
270.439	26.242	877.554	698.352
271.453	26.270	877.690	698.506
272.468	26.420	877.221	698.650
273.482	26.369	876.842	698.091
274.497	26.042	875.652	695.820
275.512	25.594	874.783	693.342
276.526	26.033	874.788	694.977
277.541	26.222	874.433	695.359
278.555	26.059	873.178	693.674
279.570	25.843	872.540	692.274
280.585	26.181	871.759	692.894
281.599	25.938	871.412	691.623
282.614	25.332	870.061	688.168
283.628	25.439	869.332	687.938
284.643	25.905	869.294	689.632
285.657	25.422	867.948	686.658
286.672	25.193	867.320	685.225
287.687	25.705	867.095	686.941
288.701	25.685	866.570	686.390
289.716	25.453	865.823	684.853
290.730	25.383	865.389	684.183
291.745	25.118	864.335	682.279
292.760	25.454	864.311	683.481
293.774	26.395	864.778	687.365
294.789	26.779	863.927	688.086
295.803	26.758	863.834	687.872
296.818	26.901	862.970	687.666
297.833	26.392	861.877	684.808
298.847	26.273	861.220	683.773
299.862	26.517	860.949	684.422
300.876	26.734	860.710	684.990
301.891	26.760	859.870	684.360
302.906	26.259	859.204	681.878
303.920	26.341	858.428	681.510
304.935	26.660	858.811	682.960
305.949	26.691	857.913	682.300
306.964	26.400	857.200	680.578
307.979	26.582	856.485	680.636
308.993	26.772	856.558	681.346
310.008	26.832	856.057	681.115
311.022	26.665	854.714	679.359
312.037	26.428	854.634	678.345
313.052	26.060	853.755	676.207
314.066	25.263	852.229	671.959
315.081	24.954	851.348	670.047
316.095	25.887	851.544	673.632
317.110	26.310	851.345	674.996
318.125	25.526	849.865	670.839
319.139	24.319	848.414	665.134
320.154	24.560	848.112	665.736
321.168	25.467	848.567	669.416
322.183	26.106	849.001	672.079
323.197	26.095	848.713	671.751
324.212	26.419	848.067	672.386
325.227	26.702	846.816	672.383
326.241	26.447	846.657	671.250
327.256	26.327	846.017	670.241
328.270	26.095	845.464	668.882
329.285	25.944	844.662	667.629
330.300	25.705	843.696	665.923
331.314	26.081	843.362	666.991
332.329	26.519	843.503	668.660
333.343	26.655	843.228	668.886
334.358	26.620	842.644	668.235
335.373	26.692	842.438	668.279
336.387	26.911	842.486	669.065
337.402	26.970	842.061	668.884
338.416	27.095	841.664	668.972
339.431	26.961	841.711	668.456
340.446	27.319	841.115	669.241
341.460	27.016	840.565	667.630
342.475	27.006	840.002	667.088
343.489	26.963	839.915	666.801
344.504	27.140	839.480	667.048
345.519	27.240	839.330	667.236
346.533	27.462	838.703	667.491
347.548	27.507	838.051	667.077
348.562	27.383	837.320	665.985
349.577	27.309	837.029	665.423
350.592	27.253	836.560	664.788
351.606	27.353	835.228	664.035
352.621	27.152	834.358	662.550
353.635	27.181	833.724	662.097
354.650	26.430	832.523	658.349
355.665	25.624	830.868	654.053
356.679	26.032	831.010	655.591
357.694	26.423	830.272	656.368
358.708	26.418	829.995	656.074
359.723	26.718	829.849	656.991
360.738	26.984	829.313	657.471
361.752	27.184	829.014	657.900
362.767	27.536	828.632	658.810
363.781	27.586	828.464	658.801
364.796	27.674	828.194	658.846
365.810	27.672	827.847	658.504
366.825	27.658	827.263	657.930
367.840	27.422	826.425	656.353
368.854	26.951	825.573	653.922
369.869	27.111	825.167	654.118
370.883	27.002	824.760	653.347
371.898	27.048	824.203	653.013
372.913	27.175	823.638	652.966
373.927	27.272	823.470	653.120
374.942	27.325	823.125	652.982
375.956	27.524	822.775	653.357
376.971	27.674	822.314	653.472
377.986	27.747	821.834	653.293
379.000	27.694	821.643	652.895
380.015	27.603	820.978	651.983
381.029	27.494	820.584	651.224
382.044	27.810	819.565	651.483
383.059	27.649	819.285	650.628
384.073	27.652	818.612	650.050
385.088	27.753	818.156	649.989
386.102	27.416	817.430	648.154
387.117	27.318	816.993	647.403
388.132	27.049	815.546	645.243
389.146	26.724	814.406	643.130
390.161	27.014	814.887	644.484
391.175	27.296	814.789	645.351
392.190	27.216	813.326	643.852
393.205	25.631	811.657	636.866
394.219	24.217	809.629	630.221
395.234	24.255	809.463	630.171
396.248	25.856	810.610	636.670
397.263	27.303	811.472	642.405
398.278	27.282	810.964	641.871
399.292	26.885	810.629	640.151
400.307	26.997	810.215	640.161
401.321	27.143	809.697	640.210
402.336	27.607	809.658	641.756
403.350	27.878	809.701	642.687
404.365	28.048	809.772	643.286
405.380	28.370	809.306	643.990
406.394	28.547	808.321	643.769
407.409	28.401	807.893	642.859
408.423	28.191	808.166	642.284
409.438	28.482	807.212	642.489
410.453	28.473	807.016	642.244
411.467	28.497	806.281	641.686
412.482	28.315	806.076	640.829
413.496	28.585	805.515	641.271
414.511	28.456	805.109	640.441
415.526	28.484	804.648	640.116
416.540	28.352	803.535	638.711
417.555	28.141	803.323	637.753
418.569	28.143	803.169	637.582
419.584	28.057	802.641	636.805
420.599	27.815	802.006	635.402
421.613	111.495	1285.823	1458.115
422.628	96.257	1356.314	1458.211
