DTS Sentinel unit serial number:	SN413079Multiplexer serial number:	ORYXHardware model number:	OX4-SRSoftware version number:	ORYX F/W v4.00 Oryx Data Collector v3.7.2.0data status	okinstallation	princeton_trtdifferential loss correction	single-endedforward channel	channel 1reverse channel	N/Adate	2019/09/14time	14:22:35forward acquisition time	60.00reverse acquisition time	0.00gamma	496.2192k internal	0.2293k external	0.2293temperature offset calibration	1.0079default loss term (dB/km)	0.3790temperature slope calibration	1.0000multiplexer offset coefficient	1.0000multiplexer slope coefficient	1.0000fibre end	0.00T internal ref (°C)	38.94T ext. ref 1 (°C)	5.10T ext. ref 2 (°C)	35.90length (m)	temperature (°C)	Stokes	anti-Stokes-747.200	-185.426	-0.073	-0.001
-746.185	-54.089	0.176	0.082
-745.171	-63.925	-0.114	-0.048
-744.156	-16.241	0.262	-0.170
-743.142	-133.022	-0.387	0.050
-742.127	-200.000	0.077	0.442
-741.112	-33.619	-0.129	0.073
-740.098	20.301	-0.249	0.206
-739.083	-200.000	-0.019	-0.179
-738.069	2.594	-0.172	-0.127
-737.054	-53.672	-0.208	0.097
-736.039	-200.000	0.035	-0.245
-735.025	-78.313	0.096	0.034
-734.010	-200.000	-0.006	0.094
-732.996	-51.220	-0.331	-0.158
-731.981	553.461	0.118	-0.289
-730.966	-162.045	-0.116	0.006
-729.952	800.000	-0.027	-0.096
-728.937	-140.201	-0.046	0.005
-727.923	448.253	-0.023	0.051
-726.908	409.155	-0.086	0.187
-725.894	-17.311	-0.238	0.153
-724.879	237.655	0.178	0.301
-723.864	157.270	-0.124	-0.175
-722.850	775.099	-0.019	-0.054
-721.835	-101.554	0.147	-0.037
-720.821	26.522	0.143	0.122
-719.806	136.757	-0.173	0.231
-718.791	-200.000	-0.028	-0.171
-717.777	-115.703	-0.109	0.021
-716.762	640.484	-0.067	-0.176
-715.748	40.487	-0.094	0.086
-714.733	109.334	0.231	0.283
-713.718	138.204	-0.100	0.134
-712.704	178.850	0.098	-0.147
-711.689	130.919	-0.117	-0.153
-710.675	-200.000	0.088	-0.433
-709.660	1.701	-0.162	0.119
-708.645	35.972	-0.332	-0.298
-707.631	401.235	-0.153	-0.328
-706.616	-200.000	-0.060	-0.345
-705.602	-75.557	-0.295	-0.107
-704.587	800.000	-0.107	-0.353
-703.572	177.681	-0.211	0.314
-702.558	8.939	0.340	0.262
-701.543	-200.000	-0.001	-0.040
-700.529	800.000	0.084	0.258
-699.514	49.558	-0.087	0.083
-698.499	315.035	0.133	-0.257
-697.485	-67.123	-0.384	0.155
-696.470	-68.748	-0.224	0.089
-695.456	359.334	0.020	-0.041
-694.441	30.598	-0.104	-0.091
-693.426	-3.489	0.122	-0.087
-692.412	-11.010	0.058	0.039
-691.397	5.760	0.085	-0.064
-690.383	-200.000	0.087	-0.392
-689.368	-200.000	0.001	-0.218
-688.354	-3.558	-0.320	-0.227
-687.339	-149.156	-0.278	-0.023
-686.324	-200.000	-0.003	-0.070
-685.310	-200.000	-0.020	-0.118
-684.295	331.642	0.103	-0.202
-683.281	-51.272	-0.043	-0.021
-682.266	389.073	0.073	0.154
-681.251	-79.412	-0.247	-0.085
-680.237	241.468	-0.141	-0.241
-679.222	162.441	0.031	-0.045
-678.208	-200.000	0.009	-0.299
-677.193	-200.000	0.081	-0.501
-676.178	161.535	0.143	0.204
-675.164	-200.000	0.030	-0.323
-674.149	-152.633	-0.205	0.015
-673.135	800.000	0.074	-0.277
-672.120	-159.933	0.315	0.018
-671.105	800.000	-0.040	-0.155
-670.091	-200.000	0.007	-0.044
-669.076	-175.218	-0.291	-0.008
-668.062	-111.781	-0.358	-0.074
-667.047	-117.077	-0.169	0.031
-666.032	-71.132	-0.258	-0.099
-665.018	98.951	-0.107	0.126
-664.003	-200.000	-0.004	0.072
-662.989	47.315	0.249	0.236
-661.974	-34.572	0.233	0.130
-660.959	319.740	0.017	0.034
-659.945	16.708	-0.144	-0.116
-658.930	231.754	0.100	-0.167
-657.916	626.494	-0.105	-0.271
-656.901	113.629	-0.025	0.031
-655.886	800.000	-0.086	-0.282
-654.872	34.770	0.130	-0.115
-653.857	-133.367	0.328	0.042
-652.843	425.344	0.162	-0.356
-651.828	-10.986	0.027	0.018
-650.814	-96.444	-0.050	0.013
-649.799	363.034	0.269	-0.550
-648.784	-73.885	-0.361	0.134
-647.770	-200.000	-0.004	-0.124
-646.755	56.599	-0.253	0.251
-645.741	-17.019	-0.073	-0.047
-644.726	286.868	0.146	0.269
-643.711	-100.260	0.241	-0.061
-642.697	-101.803	0.168	-0.041
-641.682	452.414	0.084	-0.188
-640.668	-200.000	0.028	-0.246
-639.653	-200.000	0.025	-0.167
-638.638	-200.000	-0.033	0.188
-637.624	256.242	-0.089	0.156
-636.609	-125.688	0.237	0.037
-635.595	-8.537	0.091	0.062
-634.580	-200.000	-0.081	0.438
-633.565	800.000	0.037	0.107
-632.551	-53.402	0.097	-0.045
-631.536	139.495	-0.198	0.265
-630.522	-200.000	-0.010	0.264
-629.507	800.000	-0.045	-0.200
-628.492	-47.297	-0.340	-0.169
-627.478	-105.700	-0.322	-0.074
-626.463	120.978	-0.071	-0.090
-625.449	-93.555	0.119	0.034
-624.434	66.342	-0.293	-0.303
-623.419	-200.000	-0.006	-0.140
-622.405	-67.637	0.371	0.148
-621.390	-77.233	0.292	0.104
-620.376	62.911	0.017	0.017
-619.361	319.658	-0.034	-0.066
-618.346	-70.601	-0.295	0.113
-617.332	72.555	-0.006	-0.006
-616.317	319.080	0.111	0.214
-615.303	-103.288	0.216	-0.052
-614.288	-200.000	-0.060	-0.368
-613.273	-200.000	0.019	-0.191
-612.259	12.686	-0.098	0.077
-611.244	800.000	-0.017	0.064
-610.230	48.070	0.061	0.058
-609.215	-36.915	0.196	-0.107
-608.201	-200.000	0.004	-0.200
-607.186	800.000	-0.174	0.608
-606.171	297.053	-0.257	0.480
-605.157	574.214	0.116	0.288
-604.142	-54.151	-0.201	0.093
-603.128	231.294	0.171	-0.285
-602.113	-161.257	-0.272	0.014
-601.098	-77.258	-0.246	0.087
-600.084	800.000	-0.099	-0.286
-599.069	-200.000	0.040	0.201
-598.055	-39.007	0.012	-0.006
-597.040	-200.000	0.074	-0.333
-596.025	-130.229	-0.234	-0.032
-595.011	-114.807	-0.251	0.049
-593.996	-200.000	0.009	0.150
-592.982	13.073	-0.139	-0.110
-591.967	-148.045	-0.139	0.012
-590.952	800.000	-0.119	-0.506
-589.938	-95.128	-0.147	-0.040
-588.923	-125.050	-0.201	-0.031
-587.909	-97.590	-0.347	0.091
-586.894	-163.785	-0.114	-0.005
-585.879	-96.147	0.141	0.038
-584.865	12.223	-0.229	0.179
-583.850	-21.071	0.012	0.008
-582.836	-138.583	0.286	-0.032
-581.821	408.977	-0.155	-0.334
-580.806	-98.418	0.171	-0.045
-579.792	-28.746	0.182	-0.106
-578.777	522.406	0.016	0.037
-577.763	607.075	0.056	-0.141
-576.748	136.891	-0.109	0.144
-575.733	-200.000	0.078	0.358
-574.719	-91.856	-0.220	0.063
-573.704	295.987	0.219	0.408
-572.690	-88.795	-0.285	-0.086
-571.675	-200.000	-0.037	-0.319
-570.661	-200.000	0.021	-0.101
-569.646	800.000	-0.111	-0.319
-568.631	-200.000	0.000	0.166
-567.617	35.574	0.069	0.061
-566.602	363.870	-0.055	0.111
-565.588	-86.684	-0.263	-0.082
-564.573	-200.000	0.015	0.228
-563.558	-86.934	0.159	-0.049
-562.544	-200.000	-0.030	-0.196
-561.529	55.929	-0.162	-0.160
-560.515	-200.000	-0.054	-0.410
-559.500	6.045	0.303	0.228
-558.485	-200.000	0.015	-0.205
-557.471	-58.172	0.195	0.086
-556.456	-200.000	-0.043	-0.223
-555.442	800.000	0.100	-0.359
-554.427	761.386	0.048	-0.132
-553.412	-50.996	-0.158	0.075
-552.398	560.876	-0.048	-0.119
-551.383	-157.595	0.189	-0.011
-550.369	161.343	0.087	-0.123
-549.354	-66.990	-0.088	-0.035
-548.339	52.325	0.113	-0.109
-547.325	-87.067	0.192	0.059
-546.310	108.905	-0.132	0.160
-545.296	800.000	-0.052	-0.147
-544.281	-200.000	-0.011	-0.324
-543.266	-123.735	-0.153	-0.025
-542.252	376.335	0.073	-0.152
-541.237	-35.011	0.104	0.058
-540.223	-54.565	0.232	0.107
-539.208	-20.839	-0.115	0.071
-538.193	-70.519	-0.142	-0.055
-537.179	114.389	-0.132	0.163
-536.164	-107.486	-0.188	-0.042
-535.150	-8.307	0.108	0.074
-534.135	-55.400	0.048	0.022
-533.121	131.402	-0.182	0.238
-532.106	-42.020	0.363	0.189
-531.091	40.839	0.064	-0.059
-530.077	-44.640	0.548	-0.278
-529.062	163.156	-0.030	-0.043
-528.048	-120.240	-0.043	0.007
-527.033	198.514	0.157	-0.244
-526.018	-200.000	-0.017	0.234
-525.004	109.431	-0.145	-0.176
-523.989	135.273	-0.222	-0.293
-522.975	-181.443	0.570	-0.011
-521.960	-158.468	0.269	0.016
-520.945	112.782	-0.118	0.145
-519.931	800.000	0.027	-0.084
-518.916	55.415	0.213	0.209
-517.902	3.926	0.125	0.093
-516.887	-59.657	-0.163	-0.071
-515.872	-93.790	0.115	0.032
-514.858	-45.138	-0.277	-0.139
-513.843	-200.000	0.021	0.196
-512.829	271.724	0.098	-0.176
-511.814	-83.861	-0.401	0.129
-510.799	0.449	-0.221	0.160
-509.785	800.000	-0.025	-0.100
-508.770	450.450	0.084	0.188
-507.756	-200.000	0.019	-0.131
-506.741	800.000	-0.043	-0.161
-505.726	-146.062	0.177	-0.016
-504.712	-14.981	0.058	-0.038
-503.697	209.450	-0.035	0.056
-502.683	268.638	0.024	-0.043
-501.668	-200.000	0.044	-0.231
-500.653	-200.000	-0.019	-0.267
-499.639	-82.032	-0.507	0.168
-498.624	-200.000	0.032	-0.183
-497.610	246.732	0.085	0.146
-496.595	187.636	-0.078	0.119
-495.581	308.324	0.071	0.134
-494.566	-159.772	-0.146	0.008
-493.551	-82.512	-0.108	-0.036
-492.537	-200.000	0.001	0.357
-491.522	-21.554	0.138	0.085
-490.508	-136.257	0.206	-0.024
-489.493	92.887	-0.339	0.388
-488.478	-117.217	-0.174	0.032
-487.464	-122.398	0.342	-0.056
-486.449	-4.967	0.034	0.024
-485.435	105.617	0.026	-0.032
-484.420	114.126	-0.059	-0.073
-483.405	-200.000	0.048	0.314
-482.391	537.838	0.072	-0.172
-481.376	-81.777	0.084	-0.028
-480.362	-200.000	0.009	-0.142
-479.347	286.826	0.098	0.180
-478.332	-200.000	-0.020	-0.160
-477.318	-27.615	-0.058	0.034
-476.303	146.668	-0.196	0.266
-475.289	-27.694	-0.183	-0.107
-474.274	5.941	-0.084	-0.063
-473.259	70.003	0.013	-0.014
-472.245	-47.887	-0.126	-0.062
-471.230	-12.862	0.329	0.217
-470.216	-68.475	0.145	0.057
-469.201	800.000	0.102	0.309
-468.186	352.020	-0.138	-0.277
-467.172	-43.469	0.339	-0.173
-466.157	-69.635	-0.125	0.049
-465.143	92.798	0.182	0.208
-464.128	-200.000	0.015	-0.151
-463.113	-86.937	-0.076	-0.024
-462.099	301.207	0.058	0.109
-461.084	-120.511	-0.109	0.019
-460.070	-147.724	-0.408	0.035
-459.055	-67.272	-0.060	-0.024
-458.040	651.569	-0.071	-0.185
-457.026	654.377	0.112	-0.290
-456.011	19.053	-0.239	-0.194
-454.997	102.396	-0.273	-0.323
-453.982	-0.748	0.321	0.230
-452.968	172.221	-0.178	0.259
-451.953	-114.123	0.206	0.040
-450.938	-148.865	-0.147	-0.012
-449.924	37.984	-0.055	-0.049
-448.909	456.736	-0.013	0.028
-447.895	-4.251	-0.216	0.151
-446.880	-200.000	-0.056	0.356
-445.865	9.289	0.365	-0.279
-444.851	117.463	0.257	-0.319
-443.836	186.949	0.124	-0.186
-442.822	132.199	0.095	-0.124
-441.807	-23.576	-0.298	-0.181
-440.792	-33.613	0.178	0.099
-439.778	-200.000	-0.018	0.139
-438.763	-135.306	-0.133	-0.016
-437.749	-52.494	0.239	0.112
-436.734	175.276	-0.101	0.148
-435.719	-200.000	-0.021	0.308
-434.705	742.419	-0.018	0.049
-433.690	-146.023	0.336	-0.030
-432.676	-122.197	-0.019	-0.003
-431.661	-115.415	-0.257	0.049
-430.646	-200.000	-0.003	0.147
-429.632	800.000	-0.060	0.208
-428.617	-108.300	-0.038	0.008
-427.603	213.155	0.129	-0.205
-426.588	257.541	0.144	-0.251
-425.573	-140.821	0.269	0.028
-424.559	-135.396	-0.362	0.044
-423.544	343.826	0.048	-0.095
-422.530	-17.802	0.050	-0.032
-421.515	264.736	-0.105	-0.185
-420.500	188.436	0.165	0.250
-419.486	13.120	0.037	0.029
-418.471	-200.000	-0.122	0.000
-417.457	491.566	0.115	0.266
-416.442	3.888	-0.170	0.125
-415.428	661.032	0.108	0.280
-414.413	-161.095	-0.350	0.018
-413.398	276.407	-0.111	-0.199
-412.384	-42.596	0.187	-0.096
-411.369	-87.430	-0.190	0.058
-410.355	-28.792	0.070	-0.041
-409.340	-53.197	0.009	-0.004
-408.325	224.866	0.154	0.252
-407.311	-200.000	-0.036	0.176
-406.296	-71.474	0.283	-0.107
-405.282	-175.888	-0.468	0.013
-404.267	23.129	-0.121	0.100
-403.252	800.000	0.026	0.104
-402.238	579.442	-0.052	-0.129
-401.223	15.529	-0.090	0.071
-400.209	-200.000	-0.033	-0.379
-399.194	-200.000	-0.002	-0.207
-398.179	4.653	-0.113	-0.084
-397.165	-200.000	-0.036	-0.333
-396.150	-141.906	-0.115	0.012
-395.136	-152.381	0.292	0.021
-394.121	-60.943	0.368	0.157
-393.106	43.668	0.133	0.123
-392.092	312.012	-0.060	-0.113
-391.077	-64.186	0.346	-0.142
-390.063	-200.000	-0.076	-0.381
-389.048	46.486	0.196	-0.184
-388.033	-107.943	0.174	0.038
-387.019	-24.848	0.084	-0.051
-386.004	546.596	-0.143	-0.346
-384.990	240.007	0.082	0.137
-383.975	158.294	-0.137	-0.191
-382.960	-85.621	-0.234	0.073
-381.946	16.696	-0.076	0.060
-380.931	-55.619	0.391	0.176
-379.917	-125.237	0.310	0.048
-378.902	552.554	0.108	0.261
-377.888	-139.764	0.176	-0.019
-376.873	2.210	0.098	0.071
-375.858	467.966	0.043	-0.097
-374.844	-69.806	0.395	-0.152
-373.829	-95.029	-0.105	0.029
-372.815	-53.601	-0.230	-0.106
-371.800	800.000	-0.134	0.451
-370.785	62.386	-0.153	-0.154
-369.771	-75.214	0.135	0.049
-368.756	-200.000	-0.019	0.113
-367.742	-200.000	-0.002	0.082
-366.727	-92.498	-0.074	0.021
-365.712	-51.125	-0.267	-0.126
-364.698	113.731	-0.123	-0.151
-363.683	59.100	-0.091	0.090
-362.669	87.958	0.079	0.088
-361.654	-15.937	-0.286	0.184
-360.639	-51.712	-0.129	0.060
-359.625	-200.000	0.012	0.107
-358.610	800.000	-0.067	0.250
-357.596	11.267	0.238	-0.184
-356.581	-200.000	-0.216	-0.001
-355.566	-4.343	-0.174	-0.121
-354.552	800.000	-0.023	0.098
-353.537	-119.282	0.178	-0.031
-352.523	800.000	0.131	-0.451
-351.508	-113.866	0.243	-0.048
-350.493	675.834	0.078	-0.203
-349.479	-48.084	0.163	0.079
-348.464	-160.494	-0.064	-0.003
-347.450	-200.000	0.039	-0.239
-346.435	11.354	0.289	-0.223
-345.420	-200.000	-0.035	-0.223
-344.406	7.145	-0.070	0.052
-343.391	44.281	0.078	-0.072
-342.377	-87.535	-0.221	0.067
-341.362	1.931	-0.219	0.159
-340.348	-141.993	0.324	-0.033
-339.333	-18.028	0.100	-0.063
-338.318	-8.920	-0.352	0.237
-337.304	-73.408	0.084	-0.031
-336.289	195.949	0.294	0.450
-335.275	236.077	0.150	0.249
-334.260	416.428	-0.038	-0.081
-333.245	172.381	-0.038	-0.055
-332.231	-11.958	-0.037	-0.024
-331.216	126.897	-0.064	0.082
-330.202	402.612	-0.076	0.160
-329.187	-160.927	-0.190	-0.010
-328.172	-85.477	0.247	-0.077
-327.158	-200.000	0.029	0.148
-326.143	102.580	0.270	-0.318
-325.129	-200.000	-0.035	0.333
-324.114	-122.380	0.227	-0.037
-323.099	-108.925	0.112	0.024
-322.085	69.966	0.261	0.271
-321.070	800.000	-0.032	0.131
-320.056	225.228	-0.255	0.416
-319.041	70.670	0.279	-0.290
-318.026	-200.000	0.015	-0.303
-317.012	29.481	0.098	0.084
-315.997	90.074	-0.192	-0.216
-314.983	-67.559	-0.150	-0.059
-313.968	52.006	-0.167	-0.160
-312.953	-200.000	-0.020	0.377
-311.939	311.889	0.068	-0.127
-310.924	-28.823	0.309	-0.179
-309.910	105.952	-0.119	-0.142
-308.895	199.949	0.040	-0.061
-307.880	800.000	-0.032	0.090
-306.866	60.783	0.049	-0.049
-305.851	-200.000	0.019	0.164
-304.837	627.641	0.097	0.247
-303.822	33.929	-0.136	-0.119
-302.807	123.510	0.232	0.293
-301.793	-66.161	-0.152	0.061
-300.778	538.556	0.037	0.089
-299.764	-158.022	0.199	-0.012
-298.749	-80.484	-0.354	-0.119
-297.735	-37.143	0.281	0.151
-296.720	-70.400	-0.187	-0.071
-295.705	-103.844	-0.286	0.067
-294.691	-200.000	-0.023	0.210
-293.676	261.538	0.102	0.178
-292.662	-72.784	-0.067	0.025
-291.647	536.601	-0.069	-0.165
-290.632	-92.619	-0.297	-0.084
-289.618	-129.528	-0.238	0.033
-288.603	-200.000	0.046	0.215
-287.589	149.851	0.160	-0.218
-286.574	-93.945	0.223	0.062
-285.559	-200.000	0.041	-0.274
-284.545	256.077	-0.034	-0.059
-283.530	13.221	-0.186	0.145
-282.516	-17.377	-0.249	-0.157
-281.501	205.022	-0.184	0.286
-280.486	800.000	-0.021	0.062
-279.472	43.641	-0.111	0.102
-278.457	-126.451	0.219	-0.033
-277.443	-24.050	-0.218	-0.131
-276.428	-200.000	-0.030	0.281
-275.413	249.657	0.214	0.364
-274.399	218.294	-0.101	-0.162
-273.384	12.065	0.043	-0.034
-272.370	677.136	-0.030	0.077
-271.355	-56.844	0.209	0.093
-270.340	-200.000	-0.001	0.302
-269.326	167.883	0.092	0.131
-268.311	742.521	0.148	-0.400
-267.297	-108.694	-0.143	-0.031
-266.282	-102.545	-0.038	0.009
-265.267	-200.000	0.008	-0.189
-264.253	-200.000	-0.003	0.018
-263.238	40.345	0.266	-0.240
-262.224	-26.165	-0.166	0.098
-261.209	800.000	-0.047	-0.148
-260.195	-192.173	-0.128	0.001
-259.180	-20.568	0.143	0.088
-258.165	800.000	-0.051	0.218
-257.151	-23.766	-0.183	-0.110
-256.136	-60.392	0.265	0.113
-255.122	-64.585	0.064	0.026
-254.107	800.000	0.107	-0.321
-253.092	-97.915	0.221	-0.057
-252.078	-77.455	-0.222	-0.077
-251.063	152.096	0.051	-0.070
-250.049	12.455	0.202	-0.156
-249.034	-51.668	0.039	0.018
-248.019	-157.018	0.202	0.012
-247.005	697.768	-0.039	0.104
-245.990	-200.000	0.045	0.287
-244.976	-125.808	-0.080	0.012
-243.961	199.481	0.162	0.249
-242.946	119.901	0.083	-0.103
-241.932	319.138	-0.073	0.139
-240.917	340.999	-0.074	-0.145
-239.903	227.873	0.086	-0.140
-238.888	-128.850	0.188	-0.026
-237.873	220.135	0.143	0.229
-236.859	-99.519	-0.074	-0.019
-235.844	800.000	-0.036	0.114
-234.830	517.703	0.059	-0.139
-233.815	-37.689	-0.282	0.151
-232.800	-156.546	0.224	-0.014
-231.786	-100.559	0.150	-0.037
-230.771	38.255	-0.362	-0.323
-229.757	-61.276	0.332	-0.140
-228.742	-200.000	0.027	0.283
-227.727	236.827	0.094	-0.156
-226.713	-200.000	0.011	0.254
-225.698	149.664	0.080	-0.109
-224.684	-200.000	-0.021	-0.235
-223.669	337.015	-0.063	0.123
-222.655	41.840	-0.103	-0.093
-221.640	21.653	-0.051	0.041
-220.625	28.568	-0.208	-0.177
-219.611	137.572	0.105	-0.138
-218.596	103.397	0.152	0.179
-217.582	-101.688	-0.141	-0.034
-216.567	800.000	0.036	0.148
-215.552	-200.000	0.014	0.189
-214.538	-34.724	0.058	-0.032
-213.523	-128.179	-0.048	-0.007
-212.509	-200.000	0.037	-0.188
-211.494	-200.000	-0.014	-0.171
-210.479	800.000	0.075	0.285
-209.465	-144.546	-0.187	-0.017
-208.450	800.000	-0.053	-0.156
-207.436	146.569	0.097	0.130
-206.421	-26.527	0.353	0.207
-205.406	-104.061	-0.209	0.049
-204.392	-37.284	-0.170	-0.091
-203.377	66.470	-0.127	-0.129
-202.363	-153.036	-0.466	-0.033
-201.348	-200.000	0.023	-0.206
-200.333	-54.324	0.195	-0.088
-199.319	800.000	-0.033	0.118
-198.304	-108.345	0.260	0.056
-197.290	-51.215	-0.177	0.083
-196.275	-8.054	0.114	-0.077
-195.260	-200.000	0.052	-0.243
-194.246	178.492	-0.018	0.026
-193.231	800.000	0.028	-0.105
-192.217	-74.792	0.132	0.048
-191.202	150.645	0.037	0.050
-190.187	-146.156	0.259	0.023
-189.173	-25.158	-0.223	-0.132
-188.158	-114.768	0.227	0.043
-187.144	655.140	-0.083	0.214
-186.129	-200.000	0.040	0.263
-185.114	-8.678	-0.190	0.128
-184.100	66.073	-0.295	-0.300
-183.085	213.693	-0.100	0.158
-182.071	-11.134	0.175	0.115
-181.056	133.478	-0.201	0.260
-180.042	54.738	-0.283	-0.273
-179.027	-200.000	-0.022	0.132
-178.012	171.281	0.129	-0.185
-176.998	-144.211	-0.271	-0.025
-175.983	389.275	0.144	0.298
-174.969	-27.217	0.210	-0.123
-173.954	-200.000	0.035	0.164
-172.939	-110.857	0.177	-0.037
-171.925	164.971	-0.102	-0.144
-170.910	319.662	0.102	0.193
-169.896	77.183	0.111	0.118
-168.881	183.613	-0.181	-0.267
-167.866	-39.565	0.308	-0.162
-166.852	203.291	-0.176	-0.273
-165.837	9.019	0.122	-0.092
-164.823	202.467	0.082	0.127
-163.808	15.356	0.232	0.182
-162.793	-110.852	0.128	0.026
-161.779	-81.329	-0.448	0.148
-160.764	800.000	0.153	-0.460
-159.750	800.000	-0.096	-0.368
-158.735	-93.141	-0.237	0.066
-157.720	-37.549	-0.144	-0.077
-156.706	-137.053	-0.327	0.037
-155.691	800.000	-0.093	0.296
-154.677	-200.000	0.018	-0.146
-153.662	-200.000	-0.012	0.214
-152.647	800.000	0.092	0.270
-151.633	-76.892	0.147	0.051
-150.618	23.150	0.170	0.140
-149.604	162.245	-0.027	-0.037
-148.589	-200.000	0.017	0.141
-147.574	149.967	0.152	0.206
-146.560	800.000	-0.064	0.280
-145.545	-40.144	-0.478	-0.249
-144.531	382.913	0.012	-0.024
-143.516	-130.260	0.312	-0.042
-142.502	-91.466	0.100	0.028
-141.487	-88.826	0.542	-0.161
-140.472	-200.000	0.005	0.500
-139.458	498.345	-0.023	0.054
-138.443	-189.275	0.160	-0.002
-137.429	-28.814	0.094	-0.054
-136.414	-200.000	-0.038	0.305
-135.399	-28.961	0.203	0.116
-134.385	-93.174	0.146	0.041
-133.370	800.000	0.118	-0.335
-132.356	45.987	0.216	-0.200
-131.341	80.421	0.071	0.076
-130.326	46.007	-0.061	0.056
-129.312	-200.000	0.039	0.234
-128.297	800.000	-0.080	-0.273
-127.283	71.989	0.115	0.119
-126.268	693.105	0.081	0.213
-125.253	-59.992	-0.125	0.053
-124.239	85.859	-0.056	0.061
-123.224	-152.570	-0.156	0.011
-122.210	-85.552	0.169	-0.052
-121.195	-176.445	-0.126	0.003
-120.180	205.758	-0.047	0.072
-119.166	38.296	-0.289	-0.257
-118.151	-200.000	-0.052	-0.363
-117.137	12.584	0.129	-0.099
-116.122	-1.594	0.274	0.193
-115.107	800.000	-0.082	0.234
-114.093	-200.000	-0.014	0.183
-113.078	-62.240	-0.025	-0.010
-112.064	-38.111	-0.247	0.131
-111.049	91.177	-0.283	0.317
-110.034	-97.694	0.150	0.039
-109.020	177.117	-0.068	-0.099
-108.005	-200.000	0.030	0.242
-106.991	-200.000	0.005	-0.037
-105.976	51.944	0.030	-0.028
-104.962	574.429	0.104	0.253
-103.947	-200.000	0.002	-0.120
-102.932	-15.267	-0.078	0.050
-101.918	-98.300	0.487	0.125
-100.903	-200.000	0.023	-0.325
-99.889	-32.006	-0.293	-0.164
-98.874	-54.663	-0.312	-0.141
-97.859	-200.000	0.038	0.436
-96.845	-200.000	-0.016	-0.123
-95.830	235.971	0.093	-0.153
-94.816	-39.645	-0.116	-0.060
-93.801	-57.482	-0.100	-0.044
-92.786	-10.437	-0.086	0.057
-91.772	-24.297	-0.089	-0.053
-90.757	800.000	-0.045	0.171
-89.743	-81.586	-0.205	0.067
-88.728	31.073	-0.117	-0.100
-87.713	23.204	0.063	0.051
-86.699	-200.000	0.059	0.303
-85.684	311.910	-0.095	-0.178
-84.670	-95.496	-0.300	0.080
-83.655	-99.014	-0.817	0.206
-82.640	26.364	0.145	-0.121
-81.626	-68.182	-0.236	0.092
-80.611	14.418	0.260	-0.203
-79.597	-200.000	0.009	0.115
-78.582	-20.276	-0.132	-0.081
-77.567	153.944	-0.155	-0.212
-76.553	-165.914	0.111	0.005
-75.538	8.956	0.092	0.069
-74.524	-200.000	0.042	-0.365
-73.509	-51.006	0.196	-0.092
-72.494	-200.000	-0.001	-0.215
-71.480	-3.878	0.193	0.133
-70.465	757.438	-0.102	0.275
-69.451	428.429	0.034	-0.072
-68.436	260.468	-0.118	-0.203
-67.422	-0.242	0.201	0.142
-66.407	22.208	-0.227	0.185
-65.392	-4.273	0.098	-0.067
-64.378	15.195	0.323	-0.252
-63.363	-122.872	-0.263	-0.042
-62.349	400.045	0.076	0.159
-61.334	-14.212	-0.702	-0.451
-60.319	-200.000	0.028	0.162
-59.305	-200.000	-0.183	-0.853
-58.290	646.640	0.375	0.953
-57.276	731.360	0.574	1.530
-56.261	-200.000	80.331	496.093
-55.246	546.765	1368.070	3258.900
-54.232	181.705	2598.854	3808.697
-53.217	120.438	2247.887	2779.716
-52.203	49.994	1696.347	1593.540
-51.188	42.338	1426.453	1290.936
-50.173	39.014	1382.330	1230.177
-49.159	56.915	1420.168	1377.587
-48.144	62.492	1439.260	1431.363
-47.130	42.777	1400.953	1270.430
-46.115	39.043	1383.482	1231.189
-45.100	38.856	1379.121	1226.091
-44.086	38.757	1376.358	1222.969
-43.071	38.789	1374.178	1221.182
-42.057	38.829	1371.724	1219.203
-41.042	38.771	1370.603	1217.798
-40.027	38.978	1368.316	1216.999
-39.013	38.900	1366.220	1214.601
-37.998	38.828	1365.431	1213.409
-36.984	38.917	1363.095	1211.833
-35.969	38.984	1361.539	1210.817
-34.954	38.906	1359.852	1208.786
-33.940	39.054	1358.168	1208.153
-32.925	39.066	1356.612	1206.797
-31.911	39.091	1355.511	1205.922
-30.896	39.124	1353.986	1204.721
-29.881	39.152	1352.022	1203.095
-28.867	39.155	1350.521	1201.732
-27.852	39.105	1349.324	1200.308
-26.838	39.150	1347.678	1199.072
-25.823	39.021	1346.565	1197.250
-24.809	39.060	1344.970	1196.020
-23.794	39.046	1343.121	1194.246
-22.779	38.929	1342.541	1192.973
-21.765	39.079	1340.844	1192.325
-20.750	39.023	1339.658	1190.884
-19.736	38.881	1338.756	1189.173
-18.721	38.878	1337.216	1187.741
-17.706	38.847	1335.929	1186.361
-16.692	38.994	1334.572	1185.997
-15.677	38.875	1333.414	1184.202
-14.663	38.898	1332.507	1183.492
-13.648	38.804	1331.281	1181.788
-12.633	38.804	1330.430	1180.990
-11.619	38.753	1329.453	1179.764
-10.604	38.765	1328.831	1179.238
-9.590	38.743	1327.658	1178.019
-8.575	38.891	1326.475	1177.811
-7.560	38.794	1325.826	1176.603
-6.546	38.792	1324.691	1175.542
-5.531	38.790	1324.302	1175.136
-4.517	38.919	1323.048	1174.748
-3.502	38.915	1322.049	1173.791
-2.487	38.878	1320.746	1172.366
-1.473	38.976	1317.259	1169.809
-0.458	38.008	1302.036	1150.537
0.556	34.970	1282.669	1108.628
1.571	30.896	1286.327	1087.956
2.586	29.296	1301.146	1090.936
3.600	27.348	1288.372	1068.698
4.615	20.217	1210.986	964.899
5.629	10.171	1128.788	846.973
6.644	5.237	1105.042	803.742
7.659	4.998	1102.414	800.534
8.673	5.038	1101.565	800.050
9.688	5.118	1099.836	799.134
10.702	5.321	1098.581	799.189
11.717	10.884	1107.255	834.038
12.731	19.566	1119.577	888.091
13.746	21.723	1120.993	900.227
14.761	19.951	1118.545	889.093
15.775	19.036	1115.761	882.111
16.790	17.936	1113.853	874.891
17.804	17.065	1112.022	868.916
18.819	16.734	1110.902	866.272
19.834	16.418	1109.989	863.870
20.848	16.226	1109.495	862.428
21.863	16.011	1108.671	860.613
22.877	15.836	1107.836	858.997
23.892	15.989	1106.881	858.958
24.907	15.894	1106.550	858.143
25.921	15.986	1104.953	857.299
26.936	16.041	1103.673	856.507
27.950	15.903	1102.219	854.602
28.965	16.087	1100.485	854.114
29.980	16.245	1099.265	853.890
30.994	16.179	1098.103	852.579
32.009	16.321	1096.868	852.264
33.023	16.245	1096.013	851.138
34.038	16.133	1094.659	849.449
35.053	16.145	1093.679	848.673
36.067	16.143	1092.853	847.949
37.082	16.048	1092.266	846.939
38.096	16.059	1091.604	846.407
39.111	16.215	1090.391	846.175
40.126	16.178	1089.206	844.993
41.140	15.876	1087.940	842.426
42.155	15.853	1086.350	841.004
43.169	15.790	1085.377	839.861
44.184	15.895	1084.266	839.450
45.199	15.889	1083.318	838.615
46.213	15.924	1082.299	837.926
47.228	15.989	1081.144	837.278
48.242	15.992	1080.299	836.567
49.257	15.976	1079.198	835.559
50.271	15.957	1078.648	834.965
51.286	16.132	1077.664	834.997
52.301	16.078	1076.593	833.827
53.315	15.946	1075.411	832.185
54.330	15.922	1074.285	831.121
55.344	15.818	1073.283	829.763
56.359	16.015	1072.534	830.079
57.374	15.898	1071.700	828.785
58.388	15.896	1070.635	827.878
59.403	15.860	1069.754	826.945
60.417	15.699	1068.988	825.490
61.432	15.780	1068.128	825.150
62.447	15.707	1067.429	824.179
63.461	15.669	1066.338	823.078
64.476	15.616	1065.299	821.945
65.490	15.599	1065.128	821.657
66.505	15.598	1064.137	820.815
67.520	15.653	1063.126	820.231
68.534	15.746	1062.221	819.914
69.549	15.687	1061.344	818.874
70.563	15.563	1060.941	817.888
71.578	15.634	1059.964	817.410
72.593	15.501	1059.235	816.129
73.607	15.603	1058.362	815.876
74.622	15.653	1057.920	815.709
75.636	15.529	1057.143	814.437
76.651	15.567	1056.246	813.855
77.666	15.618	1056.252	814.034
78.680	15.674	1055.256	813.468
79.695	15.611	1054.893	812.811
80.709	15.756	1053.956	812.715
81.724	15.880	1052.977	812.491
82.739	15.873	1052.512	812.025
83.753	16.051	1051.694	812.179
84.768	16.205	1051.184	812.454
85.782	16.208	1050.360	811.761
86.797	16.292	1049.233	811.220
87.812	16.086	1048.219	809.375
88.826	16.045	1047.447	808.515
89.841	16.128	1046.164	807.849
90.855	16.105	1045.602	807.236
91.870	16.164	1044.707	806.752
92.884	16.198	1044.021	806.314
93.899	16.181	1042.992	805.368
94.914	16.280	1042.533	805.413
95.928	16.274	1041.301	804.364
96.943	16.200	1040.229	803.109
97.957	16.166	1039.242	802.117
98.972	16.188	1038.481	801.561
99.987	16.252	1037.644	801.150
101.001	16.225	1036.592	800.138
102.016	16.097	1035.782	798.833
103.030	16.180	1035.424	798.881
104.045	16.136	1034.452	797.852
105.060	16.079	1033.474	796.758
106.074	15.960	1032.251	795.184
107.089	15.814	1031.372	793.747
108.103	15.870	1030.135	792.991
109.118	15.698	1029.569	791.675
110.133	15.809	1027.995	790.913
111.147	15.765	1027.643	790.366
112.162	15.759	1026.633	789.492
113.176	15.801	1026.446	789.478
114.191	15.826	1025.869	789.077
115.206	15.887	1024.550	788.281
116.220	15.858	1023.488	787.260
117.235	15.874	1022.499	786.502
118.249	15.840	1021.702	785.661
119.264	15.717	1020.843	784.357
120.279	15.882	1019.982	784.394
121.293	15.803	1019.066	783.256
122.308	15.749	1018.168	782.245
123.322	15.732	1017.379	781.488
124.337	15.669	1016.328	780.322
125.352	15.739	1014.858	779.449
126.366	15.721	1013.752	778.443
127.381	15.799	1012.434	777.724
128.395	15.752	1011.790	776.943
129.410	15.778	1011.151	776.506
130.424	15.826	1010.257	775.969
131.439	16.074	1009.102	776.155
132.454	16.005	1008.666	775.437
133.468	16.051	1007.942	775.023
134.483	16.001	1007.210	774.161
135.497	16.082	1006.179	773.670
136.512	15.975	1005.666	772.719
137.527	16.027	1004.642	772.102
138.541	16.035	1003.646	771.306
139.556	16.050	1003.077	770.869
140.570	16.238	1002.415	771.151
141.585	16.271	1001.442	770.482
142.600	16.168	1001.225	769.777
143.614	16.328	999.935	769.445
144.629	16.440	999.399	769.478
145.643	16.307	997.815	767.584
146.658	16.197	996.706	766.162
147.673	16.117	996.028	765.213
148.687	16.003	995.654	764.340
149.702	16.092	994.099	763.480
150.716	16.021	993.391	762.549
151.731	16.100	992.056	761.813
152.746	16.004	992.036	761.299
153.760	16.070	991.156	760.853
154.775	16.150	991.077	761.083
155.789	16.217	989.921	760.435
156.804	16.197	989.068	759.620
157.819	16.182	988.672	759.182
158.833	16.255	987.864	758.820
159.848	16.282	986.995	758.208
160.862	16.253	986.032	757.272
161.877	16.215	984.740	756.042
162.892	16.066	983.765	754.562
163.906	16.171	982.840	754.254
164.921	16.133	982.190	753.515
165.935	16.155	981.067	752.689
166.950	16.220	980.488	752.465
167.964	16.174	979.561	751.483
168.979	16.122	978.463	750.342
169.994	16.119	977.778	749.738
171.008	16.186	977.233	749.551
172.023	16.316	976.911	749.814
173.037	16.354	975.813	749.077
174.052	16.454	974.326	748.312
175.067	16.206	973.990	746.887
176.081	16.062	973.673	745.942
177.096	16.154	972.723	745.554
178.110	16.136	972.500	745.239
179.125	16.239	971.979	745.229
180.140	16.221	971.555	744.759
181.154	16.369	971.017	744.930
182.169	16.443	970.549	744.833
183.183	16.468	969.727	744.248
184.198	16.453	968.900	743.479
185.213	16.420	968.071	742.632
186.227	16.496	967.624	742.557
187.242	16.546	967.095	742.304
188.256	16.663	966.650	742.411
189.271	16.544	965.436	740.892
190.286	16.402	964.423	739.429
191.300	16.117	963.392	737.325
192.315	16.131	962.819	736.882
193.329	16.063	962.818	736.522
194.344	16.180	961.723	736.129
195.359	16.342	960.953	736.178
196.373	16.442	960.754	736.396
197.388	16.519	960.667	736.602
198.402	16.725	959.591	736.607
199.417	16.846	959.061	736.662
200.432	16.859	958.341	736.098
201.446	16.846	958.365	735.998
202.461	16.925	957.594	735.681
203.475	16.888	956.843	734.880
204.490	16.862	955.879	733.960
205.504	16.573	955.505	732.358
206.519	16.698	954.604	732.146
207.534	16.678	953.743	731.332
208.548	16.728	953.242	731.101
209.563	16.760	952.407	730.531
210.577	16.801	951.346	729.831
211.592	16.957	950.740	729.971
212.607	16.933	950.045	729.271
213.621	16.779	949.741	728.311
214.636	16.903	948.641	727.935
215.650	16.884	947.982	727.282
216.665	16.890	947.088	726.560
217.680	17.068	946.561	726.854
218.694	17.083	946.260	726.622
219.709	16.979	945.217	725.311
220.723	17.016	944.650	724.970
221.738	16.968	943.808	724.055
222.753	16.957	943.261	723.527
223.767	16.920	942.970	723.080
224.782	17.088	942.286	723.207
225.796	17.103	941.609	722.690
226.811	17.054	940.853	721.836
227.826	16.874	940.167	720.482
228.840	16.913	939.137	719.792
229.855	16.939	938.607	719.433
230.869	16.964	937.714	718.792
231.884	17.009	936.955	718.338
232.899	16.945	936.467	717.627
233.913	16.985	935.376	716.898
234.928	16.787	935.315	715.950
235.942	16.890	934.344	715.577
236.957	16.892	933.910	715.189
237.972	16.840	933.347	714.477
238.986	16.870	932.763	714.095
240.001	16.970	931.784	713.700
241.015	17.122	930.859	713.571
242.030	17.058	930.444	712.919
243.045	16.970	930.296	712.372
244.059	17.121	929.251	712.143
245.074	17.026	929.251	711.683
246.088	17.225	928.236	711.673
247.103	17.273	927.690	711.394
248.117	17.367	926.847	711.076
249.132	17.488	926.581	711.315
250.147	17.623	925.880	711.279
251.161	17.525	925.423	710.457
252.176	17.611	924.462	710.014
253.190	17.649	924.042	709.787
254.205	17.729	923.197	709.406
255.220	17.813	922.196	708.925
256.234	17.752	921.681	708.213
257.249	17.759	921.568	708.090
258.263	17.693	920.599	707.009
259.278	17.665	919.670	706.121
260.293	17.560	919.472	705.470
261.307	17.914	918.582	706.189
262.322	17.902	918.123	705.723
263.336	17.909	917.402	705.137
264.351	17.936	916.471	704.469
265.366	17.996	916.048	704.329
266.380	18.004	915.210	703.657
267.395	17.816	914.301	702.122
268.409	17.785	913.720	701.485
269.424	17.854	912.868	701.053
270.439	17.844	912.153	700.398
271.453	17.845	911.425	699.785
272.468	17.733	910.562	698.599
273.482	17.768	910.111	698.335
274.497	17.816	909.734	698.181
275.512	17.632	909.392	697.105
276.526	17.700	908.786	696.856
277.541	17.823	908.412	697.010
278.555	17.948	907.513	696.769
279.570	18.090	906.885	696.804
280.585	18.047	906.103	695.968
281.599	17.826	905.688	694.684
282.614	17.908	904.785	694.265
283.628	17.962	903.997	693.818
284.643	17.957	903.213	693.136
285.657	18.088	902.469	693.035
286.672	18.088	901.726	692.402
287.687	18.092	901.300	692.029
288.701	17.994	901.033	691.368
289.716	17.939	900.673	690.806
290.730	18.031	899.694	690.367
291.745	18.072	899.064	689.990
292.760	18.106	898.752	689.826
293.774	18.283	897.533	689.540
294.789	18.263	896.872	688.894
295.803	18.129	896.358	687.899
296.818	17.841	895.752	686.212
297.833	18.010	895.114	686.344
298.847	18.013	894.252	685.634
299.862	18.165	893.925	685.932
300.876	18.217	893.708	685.912
301.891	18.196	893.174	685.357
302.906	18.254	892.534	685.038
303.920	18.358	892.266	685.187
304.935	18.565	890.972	684.960
305.949	18.273	890.599	683.447
306.964	18.385	889.611	683.074
307.979	18.388	889.033	682.583
308.993	18.456	888.755	682.581
310.008	18.451	888.411	682.238
311.022	18.453	887.592	681.553
312.037	18.389	886.536	680.430
313.052	18.271	886.098	679.564
314.066	18.236	885.625	679.001
315.081	18.215	884.733	678.174
316.095	18.264	884.026	677.767
317.110	18.339	883.323	677.466
318.125	18.376	882.910	677.235
319.139	18.321	882.506	676.649
320.154	18.384	882.082	676.513
321.168	18.364	881.360	675.820
322.183	18.352	880.883	675.346
323.197	18.403	880.621	675.285
324.212	18.494	879.580	674.786
325.227	18.492	879.377	674.563
326.241	18.329	878.720	673.358
327.256	18.396	878.172	673.144
328.270	18.396	877.775	672.778
329.285	18.370	876.826	671.891
330.300	18.366	876.141	671.289
331.314	18.339	875.972	670.996
332.329	18.400	875.418	670.749
333.343	18.562	875.084	671.069
334.358	18.496	874.638	670.411
335.373	18.470	874.439	670.098
336.387	18.625	874.023	670.323
337.402	18.632	873.672	670.021
338.416	18.809	873.039	670.169
339.431	18.891	872.684	670.154
340.446	18.709	872.684	669.387
341.460	18.943	872.113	669.800
342.475	18.860	871.831	669.203
343.489	18.935	870.940	668.750
344.504	18.988	870.852	668.829
345.519	18.956	870.587	668.444
346.533	19.080	869.630	668.132
347.548	18.783	868.944	666.391
348.562	18.789	868.549	666.054
349.577	18.823	867.854	665.596
350.592	18.712	866.832	664.320
351.606	18.560	866.145	663.148
352.621	18.863	865.541	663.799
353.635	18.843	864.736	663.046
354.650	18.860	864.492	662.865
355.665	18.724	864.204	662.060
356.679	18.875	863.699	662.197
357.694	18.807	862.809	661.193
358.708	18.911	861.928	660.861
359.723	18.965	861.404	660.608
360.738	18.959	860.876	660.122
361.752	18.929	860.400	659.582
362.767	19.148	859.486	659.662
363.781	19.183	859.202	659.522
364.796	19.247	858.733	659.348
365.810	19.345	858.166	659.228
366.825	19.423	858.246	659.529
367.840	19.457	857.176	658.777
368.854	19.171	856.981	657.478
369.869	19.303	856.255	657.366
370.883	19.294	855.864	656.976
371.898	19.398	855.457	656.999
372.913	19.430	855.024	656.731
373.927	19.387	854.298	655.952
374.942	19.431	853.484	655.436
375.956	19.378	853.622	655.283
376.971	19.480	853.341	655.397
377.986	19.623	852.662	655.360
379.000	19.692	852.040	655.085
380.015	19.602	851.555	654.312
381.029	19.555	851.011	653.659
382.044	19.602	850.325	653.251
383.059	19.537	850.110	652.785
384.073	19.629	849.340	652.481
385.088	19.455	848.542	651.153
386.102	19.501	847.893	650.773
387.117	19.599	847.542	650.816
388.132	19.485	846.962	649.881
389.146	19.406	846.287	649.010
390.161	19.517	845.967	649.127
391.175	19.643	845.433	649.130
392.190	19.579	844.827	648.366
393.205	19.543	843.956	647.506
394.219	19.514	843.751	647.183
395.234	19.414	843.780	646.772
396.248	19.355	843.261	646.096
397.263	19.252	842.712	645.234
398.278	19.297	842.240	644.984
399.292	19.408	841.625	644.870
400.307	19.538	840.976	644.804
401.321	19.489	840.448	644.158
402.336	19.445	840.385	643.890
403.350	19.464	839.980	643.591
404.365	19.516	839.551	643.399
405.380	19.753	838.695	643.567
406.394	19.635	838.543	642.955
407.409	19.888	837.638	643.146
408.423	19.907	837.762	643.257
409.438	19.928	837.400	642.997
410.453	19.913	837.063	642.625
411.467	19.946	836.163	642.003
412.482	20.105	836.012	642.417
413.496	20.180	835.573	642.301
414.511	20.060	835.154	641.478
415.526	19.983	834.480	640.618
416.540	20.068	834.158	640.630
417.555	20.086	833.755	640.330
418.569	20.044	833.156	639.657
419.584	20.197	832.576	639.721
420.599	20.087	832.569	639.255
421.613	149.954	1364.641	1761.196
422.628	130.962	1442.181	1761.300
