DTS Sentinel unit serial number:	SN413079Multiplexer serial number:	ORYXHardware model number:	OX4-SRSoftware version number:	ORYX F/W v4.00 Oryx Data Collector v3.7.2.0data status	okinstallation	princeton_trtdifferential loss correction	single-endedforward channel	channel 1reverse channel	N/Adate	2019/09/16time	10:10:35forward acquisition time	60.00reverse acquisition time	0.00gamma	496.2192k internal	0.2313k external	0.2313temperature offset calibration	0.9965default loss term (dB/km)	0.3790temperature slope calibration	1.0000multiplexer offset coefficient	1.0000multiplexer slope coefficient	1.0000fibre end	0.00T internal ref (°C)	34.08T ext. ref 1 (°C)	12.43T ext. ref 2 (°C)	33.03length (m)	temperature (°C)	Stokes	anti-Stokes-747.200	-200.000	-0.000	-0.207
-746.185	108.072	0.104	0.126
-745.171	-27.450	0.242	-0.143
-744.156	-97.721	-0.264	0.069
-743.142	201.943	0.082	-0.129
-742.127	800.000	0.042	0.152
-741.112	-175.229	0.287	0.008
-740.098	-200.000	-0.003	0.324
-739.083	-37.571	-0.281	0.152
-738.069	-102.884	0.261	0.063
-737.054	-171.608	0.283	-0.009
-736.039	-100.076	0.220	0.056
-735.025	77.184	-0.076	0.081
-734.010	-98.479	-0.242	0.063
-732.996	800.000	0.047	-0.171
-731.981	330.234	0.111	-0.217
-730.966	-40.605	-0.136	-0.071
-729.952	237.508	0.145	-0.243
-728.937	-200.000	0.057	-0.417
-727.923	-71.512	-0.249	0.095
-726.908	-200.000	0.004	0.151
-725.894	-149.864	-0.256	0.020
-724.879	-155.897	-0.184	0.012
-723.864	215.993	-0.049	0.079
-722.850	243.744	-0.055	0.094
-721.835	44.885	-0.251	0.234
-720.821	-34.590	0.085	0.047
-719.806	-121.747	-0.122	0.020
-718.791	-13.639	-0.226	0.148
-717.777	-22.252	-0.115	-0.071
-716.762	-200.000	-0.009	0.122
-715.748	749.220	0.106	0.289
-714.733	-200.000	-0.010	-0.143
-713.718	-40.322	0.154	-0.081
-712.704	603.353	0.089	-0.225
-711.689	-111.062	-0.439	-0.091
-710.675	-123.775	-0.275	0.044
-709.660	33.546	-0.064	-0.057
-708.645	-131.344	0.183	0.024
-707.631	453.232	-0.032	-0.072
-706.616	-9.875	0.199	-0.134
-705.602	550.319	0.144	0.350
-704.587	63.879	-0.461	-0.470
-703.572	-33.309	-0.165	0.092
-702.558	-117.337	-0.048	-0.009
-701.543	359.322	-0.067	-0.136
-700.529	7.347	0.142	-0.108
-699.514	-94.524	-0.132	-0.036
-698.499	-200.000	0.020	0.125
-697.485	-200.000	0.029	-0.139
-696.470	-200.000	0.073	-0.523
-695.456	74.361	-0.117	0.125
-694.441	-152.869	-0.312	-0.022
-693.426	-95.142	-0.281	-0.077
-692.412	-70.267	-0.148	0.057
-691.397	134.812	-0.016	-0.020
-690.383	55.952	-0.152	-0.150
-689.368	-108.481	0.254	0.055
-688.354	-19.896	-0.468	0.293
-687.339	-107.797	0.047	0.010
-686.324	-137.254	-0.223	0.026
-685.310	-200.000	0.006	0.234
-684.295	95.030	-0.221	0.255
-683.281	-44.404	-0.146	-0.074
-682.266	107.486	-0.222	-0.267
-681.251	-81.572	0.155	0.052
-680.237	-37.089	-0.215	0.116
-679.222	-0.991	-0.129	-0.093
-678.208	-150.445	0.214	0.017
-677.193	45.729	-0.153	-0.143
-676.178	-164.418	-0.314	-0.015
-675.164	49.612	0.144	0.137
-674.149	-110.710	0.147	-0.031
-673.135	161.936	0.123	-0.174
-672.120	-29.322	-0.265	-0.153
-671.105	427.149	0.096	0.208
-670.091	-165.324	0.037	0.002
-669.076	549.604	0.012	0.029
-668.062	-200.000	0.000	0.188
-667.047	800.000	0.075	0.262
-666.032	97.596	0.116	-0.135
-665.018	46.704	0.180	-0.169
-664.003	800.000	0.043	-0.142
-662.989	-37.476	-0.343	0.185
-661.974	-30.891	-0.117	-0.067
-660.959	-143.455	0.217	0.021
-659.945	43.269	-0.275	-0.254
-658.930	100.076	0.045	-0.052
-657.916	159.682	-0.155	-0.219
-656.901	162.195	0.062	-0.088
-655.886	181.100	-0.086	-0.128
-654.872	-200.000	-0.016	-0.193
-653.857	-69.109	-0.278	0.108
-652.843	-200.000	0.092	0.438
-651.828	-200.000	-0.031	0.236
-650.814	-24.032	0.244	0.147
-649.799	267.545	-0.098	-0.173
-648.784	-200.000	0.008	0.208
-647.770	561.885	-0.063	-0.155
-646.755	-177.126	0.264	-0.007
-645.741	-134.634	-0.064	0.008
-644.726	-61.723	0.301	0.127
-643.711	566.373	-0.055	-0.134
-642.697	-135.497	0.075	0.009
-641.682	411.683	-0.117	0.251
-640.668	-200.000	-0.029	0.240
-639.653	-98.170	-0.207	0.054
-638.638	181.036	0.065	0.097
-637.624	394.906	0.113	0.238
-636.609	-164.869	0.455	-0.021
-635.595	-200.000	0.026	-0.227
-634.580	110.989	-0.046	0.055
-633.565	478.423	0.059	-0.135
-632.551	274.681	-0.110	-0.197
-631.536	-35.284	-0.055	0.030
-630.522	36.005	0.104	0.092
-629.507	6.774	0.105	-0.079
-628.492	-61.476	-0.158	-0.067
-627.478	800.000	0.024	0.101
-626.463	-135.287	-0.291	0.035
-625.449	-115.997	0.209	0.039
-624.434	-18.170	-0.119	-0.075
-623.419	800.000	0.061	0.173
-622.405	-95.331	0.180	0.049
-621.390	0.376	-0.374	-0.270
-620.376	-80.995	-0.085	-0.028
-619.361	-102.792	-0.072	0.017
-618.346	175.842	0.174	-0.254
-617.332	-200.000	0.041	0.265
-616.317	63.535	-0.256	-0.259
-615.303	-200.000	0.005	0.196
-614.288	-200.000	0.009	-0.062
-613.273	340.222	0.066	-0.130
-612.259	-185.646	-0.547	0.008
-611.244	361.109	0.118	0.239
-610.230	800.000	0.046	-0.141
-609.215	-72.957	0.086	-0.032
-608.201	-200.000	-0.025	0.133
-607.186	800.000	-0.160	-0.494
-606.171	88.704	-0.049	0.055
-605.157	48.430	0.218	-0.206
-604.142	10.495	-0.154	-0.119
-603.128	96.603	-0.133	-0.154
-602.113	-183.152	-0.093	0.002
-601.098	-135.022	-0.125	-0.015
-600.084	188.655	-0.198	0.299
-599.069	-122.752	0.279	0.046
-598.055	659.372	-0.059	-0.152
-597.040	800.000	-0.108	0.334
-596.025	-80.825	-0.199	-0.067
-595.011	608.884	0.055	-0.139
-593.996	-184.000	-0.300	0.005
-592.982	-136.056	-0.360	-0.043
-591.967	-200.000	0.109	0.000
-590.952	-200.000	-0.056	0.419
-589.938	-17.133	-0.163	-0.103
-588.923	212.764	0.096	-0.153
-587.909	-200.000	0.015	0.308
-586.894	-200.000	0.032	-0.278
-585.879	134.301	0.312	-0.408
-584.865	-200.000	0.009	0.124
-583.850	-84.290	0.107	0.034
-582.836	20.335	-0.147	0.120
-581.821	10.475	0.188	0.144
-580.806	-15.489	-0.222	0.143
-579.792	-200.000	0.021	0.311
-578.777	168.993	0.249	0.358
-577.763	-21.608	0.124	0.076
-576.748	177.998	-0.187	0.275
-575.733	45.093	0.065	-0.060
-574.719	-77.258	0.092	0.032
-573.704	-200.000	0.011	0.167
-572.690	56.320	-0.123	0.120
-571.675	56.680	0.025	-0.024
-570.661	-106.042	-0.171	0.039
-569.646	-200.000	-0.001	-0.090
-568.631	419.729	0.204	0.440
-567.617	155.145	0.148	0.205
-566.602	-35.041	0.192	-0.106
-565.588	-32.350	-0.207	-0.116
-564.573	-199.758	0.120	0.001
-563.558	-109.932	-0.087	-0.018
-562.544	-171.732	-0.220	0.007
-561.529	-200.000	-0.016	-0.154
-560.515	-37.138	0.268	-0.144
-559.500	139.419	0.138	-0.182
-558.485	-98.806	0.103	0.026
-557.471	-200.000	0.019	-0.094
-556.456	-166.114	0.333	-0.014
-555.442	25.242	-0.261	0.218
-554.427	800.000	-0.126	0.391
-553.412	-100.491	0.101	0.025
-552.398	-179.382	0.140	-0.003
-551.383	-200.000	-0.011	0.273
-550.369	-101.434	-0.238	-0.058
-549.354	-200.000	-0.014	-0.114
-548.339	-38.896	-0.085	0.045
-547.325	60.779	-0.118	0.118
-546.310	27.961	-0.231	-0.196
-545.296	-112.391	-0.181	0.036
-544.281	7.920	-0.307	-0.232
-543.266	216.307	0.100	0.160
-542.252	59.533	-0.088	-0.088
-541.237	130.245	0.124	-0.160
-540.223	-55.629	-0.133	0.060
-539.208	-118.015	-0.123	0.022
-538.193	-137.125	0.057	0.007
-537.179	-200.000	-0.004	-0.177
-536.164	800.000	-0.043	-0.134
-535.150	800.000	-0.097	0.329
-534.135	60.034	0.179	0.178
-533.121	17.912	-0.295	0.237
-532.106	367.781	0.079	-0.161
-531.091	12.592	0.040	-0.031
-530.077	-35.971	-0.144	-0.078
-529.062	369.273	0.049	-0.100
-528.048	800.000	-0.109	0.337
-527.033	800.000	-0.070	0.198
-526.018	-41.295	0.229	-0.119
-525.004	-1.344	-0.131	-0.093
-523.989	-90.667	-0.291	0.084
-522.975	-134.606	0.076	0.009
-521.960	-94.037	-0.121	-0.034
-520.945	-69.605	0.271	-0.104
-519.931	-114.851	-0.218	-0.042
-518.916	126.326	-0.118	-0.151
-517.902	800.000	0.069	0.245
-516.887	-155.435	-0.365	-0.024
-515.872	-97.261	0.216	0.057
-514.858	-25.204	0.047	0.028
-513.843	-164.168	-0.016	0.001
-512.829	800.000	-0.042	0.183
-511.814	-9.076	0.190	0.128
-510.799	-42.238	0.299	0.153
-509.785	55.300	0.192	0.186
-508.770	-37.534	0.228	0.122
-507.756	800.000	0.051	-0.181
-506.741	-75.444	-0.082	-0.029
-505.726	800.000	0.010	0.031
-504.712	-113.048	-0.488	-0.097
-503.697	203.373	-0.286	0.444
-502.683	-200.000	0.017	-0.193
-501.668	267.871	-0.087	0.153
-500.653	1.512	0.001	-0.001
-499.639	211.621	-0.076	-0.120
-498.624	-11.579	-0.378	-0.249
-497.610	278.858	-0.156	-0.279
-496.595	37.916	0.079	0.070
-495.581	25.378	0.155	0.129
-494.566	1.436	-0.218	0.157
-493.551	-200.000	-0.016	0.117
-492.537	-78.045	-0.381	-0.132
-491.522	360.985	-0.111	0.224
-490.508	646.454	-0.067	0.172
-489.493	-80.590	0.279	0.093
-488.478	-27.479	0.151	-0.088
-487.464	-49.002	0.358	-0.172
-486.449	-130.736	-0.246	-0.033
-485.435	-200.000	-0.001	-0.147
-484.420	-127.869	-0.203	-0.029
-483.405	-163.197	-0.416	0.020
-482.391	186.787	-0.182	0.273
-481.376	22.061	0.080	0.065
-480.362	-92.607	-0.220	-0.062
-479.347	-37.283	-0.312	0.168
-478.332	674.071	0.070	0.183
-477.318	-158.454	-0.337	0.020
-476.303	-184.330	0.197	-0.003
-475.289	-200.000	0.049	-0.279
-474.274	10.352	0.150	-0.115
-473.259	616.864	-0.026	0.066
-472.245	128.915	0.121	-0.155
-471.230	97.343	-0.294	-0.339
-470.216	-128.487	0.172	0.025
-469.201	-187.801	0.148	0.002
-468.186	800.000	0.088	0.280
-467.172	-153.840	-0.199	0.014
-466.157	443.664	0.106	-0.233
-465.143	-51.043	0.180	0.085
-464.128	-200.000	0.015	-0.312
-463.113	800.000	-0.139	-0.418
-462.099	800.000	0.051	0.210
-461.084	33.567	0.136	-0.118
-460.070	125.628	-0.108	0.136
-459.055	96.820	-0.157	-0.181
-458.040	55.525	-0.057	-0.055
-457.026	-17.455	0.160	-0.101
-456.011	-200.000	0.002	0.029
-454.997	210.087	0.057	-0.090
-453.982	-200.000	-0.030	-0.189
-452.968	-167.678	0.209	0.008
-451.953	-200.000	-0.027	-0.496
-450.938	73.334	-0.061	-0.064
-449.924	800.000	0.084	-0.266
-448.909	800.000	0.025	-0.084
-447.895	212.841	-0.143	0.226
-446.880	800.000	-0.153	-0.537
-445.865	800.000	0.071	0.286
-444.851	248.527	-0.251	0.425
-443.836	202.485	-0.329	0.509
-442.822	28.850	-0.066	-0.056
-441.807	91.237	0.068	0.076
-440.792	351.623	-0.058	0.115
-439.778	-106.249	-0.097	-0.022
-438.763	-200.000	-0.021	0.098
-437.749	-200.000	0.015	-0.077
-436.734	-131.449	0.196	-0.026
-435.719	-34.483	0.058	0.032
-434.705	250.549	-0.200	0.341
-433.690	121.443	0.178	-0.222
-432.676	-65.347	0.198	-0.080
-431.661	-21.823	-0.088	0.053
-430.646	800.000	0.109	0.393
-429.632	261.740	-0.046	0.081
-428.617	-65.455	-0.359	0.145
-427.603	160.908	-0.242	0.339
-426.588	-200.000	0.003	-0.328
-425.573	129.438	-0.140	0.179
-424.559	552.643	0.177	-0.425
-423.544	-200.000	0.033	-0.162
-422.530	-200.000	0.040	0.245
-421.515	800.000	0.041	-0.124
-420.500	-178.823	-0.292	-0.007
-419.486	-200.000	-0.024	-0.318
-418.471	800.000	-0.046	0.139
-417.457	-200.000	-0.017	0.087
-416.442	83.804	0.144	0.157
-415.428	-60.302	0.057	0.024
-414.413	-200.000	-0.016	-0.299
-413.398	72.082	0.099	0.103
-412.384	-189.565	0.178	-0.002
-411.369	-62.155	-0.078	-0.033
-410.355	800.000	0.147	0.523
-409.340	-32.084	0.096	-0.054
-408.325	-12.223	-0.179	0.117
-407.311	389.729	0.060	0.124
-406.296	601.854	-0.132	0.328
-405.282	-173.711	0.379	0.011
-404.267	41.991	0.172	0.156
-403.252	-133.698	-0.215	-0.027
-402.238	27.983	-0.100	0.085
-401.223	-64.657	0.121	0.049
-400.209	-200.000	-0.050	0.305
-399.194	-109.373	0.146	-0.031
-398.179	-59.171	-0.183	0.079
-397.165	-83.273	-0.391	-0.126
-396.150	-25.247	0.137	0.081
-395.136	-182.577	-0.177	-0.003
-394.121	15.905	0.085	0.067
-393.106	-52.623	0.261	0.120
-392.092	371.820	-0.081	-0.164
-391.077	127.138	-0.058	0.073
-390.063	800.000	-0.069	-0.246
-389.048	-133.725	-0.126	0.016
-388.033	-39.625	0.153	-0.080
-387.019	181.089	-0.107	0.157
-386.004	121.150	-0.025	-0.031
-384.990	-174.987	0.134	0.004
-383.975	743.457	0.177	0.477
-382.960	-51.747	-0.316	0.147
-381.946	13.541	-0.128	-0.099
-380.931	162.571	-0.048	0.067
-379.917	465.036	0.070	0.157
-378.902	-16.186	0.268	0.170
-377.888	-200.000	-0.005	0.102
-376.873	147.967	0.110	0.148
-375.858	-200.000	-0.035	-0.285
-374.844	-200.000	-0.041	0.245
-373.829	104.821	-0.088	0.103
-372.815	298.688	0.251	-0.461
-371.800	274.191	-0.154	-0.273
-370.785	31.197	0.104	0.089
-369.771	-158.732	0.164	0.009
-368.756	34.631	0.094	0.082
-367.742	-166.581	0.225	0.009
-366.727	-112.517	-0.156	0.031
-365.712	58.850	-0.123	-0.121
-364.698	789.677	-0.099	-0.273
-363.683	-85.556	0.138	-0.043
-362.669	-81.957	-0.047	-0.015
-361.654	-167.644	-0.101	0.004
-360.639	-101.230	0.277	0.068
-359.625	800.000	0.073	0.239
-358.610	200.847	0.176	-0.270
-357.596	800.000	-0.114	0.379
-356.581	-22.840	0.302	-0.182
-355.566	-72.050	-0.070	0.026
-354.552	275.251	0.075	-0.132
-353.537	-200.000	-0.021	-0.210
-352.523	136.090	0.273	0.355
-351.508	-71.238	0.252	-0.094
-350.493	326.474	-0.071	-0.136
-349.479	800.000	0.111	0.308
-348.464	-200.000	-0.005	-0.068
-347.450	407.337	-0.070	0.148
-346.435	113.248	0.145	0.175
-345.420	-119.761	0.190	0.033
-344.406	535.732	-0.042	0.099
-343.391	11.050	-0.179	0.137
-342.377	10.504	0.042	-0.032
-341.362	-27.697	0.087	-0.051
-340.348	-115.204	-0.017	0.003
-339.333	-190.030	0.264	-0.003
-338.318	-200.000	-0.012	-0.081
-337.304	-92.936	-0.293	-0.082
-336.289	-60.205	0.135	0.057
-335.275	-162.926	-0.355	-0.017
-334.260	617.740	-0.024	0.061
-333.245	191.823	-0.197	-0.296
-332.231	541.554	-0.112	-0.266
-331.216	-55.039	0.094	0.042
-330.202	800.000	-0.159	-0.491
-329.187	-16.915	-0.197	-0.124
-328.172	-82.717	-0.215	0.069
-327.158	-65.268	-0.058	0.023
-326.143	178.242	-0.067	0.097
-325.129	604.842	-0.043	-0.107
-324.114	25.476	-0.051	-0.043
-323.099	150.752	0.072	0.098
-322.085	-200.000	-0.000	-0.060
-321.070	706.864	-0.081	0.214
-320.056	64.107	0.240	-0.240
-319.041	-200.000	-0.038	-0.263
-318.026	-25.112	-0.260	0.154
-317.012	125.191	0.207	-0.260
-315.997	800.000	0.076	-0.226
-314.983	78.808	0.218	-0.233
-313.968	37.192	0.181	-0.159
-312.953	69.027	0.328	0.336
-311.939	-31.394	0.121	-0.068
-310.924	165.657	-0.060	0.084
-309.910	-200.000	-0.013	-0.235
-308.895	-200.000	-0.029	0.263
-307.880	-2.420	0.261	-0.182
-306.866	-75.110	0.166	0.059
-305.851	-200.000	-0.009	0.165
-304.837	717.946	-0.104	0.276
-303.822	-85.985	-0.540	-0.166
-302.807	-185.870	0.049	-0.001
-301.793	184.761	0.123	0.182
-300.778	113.278	-0.194	-0.235
-299.764	-138.394	-0.341	-0.038
-298.749	215.652	0.184	0.291
-297.735	-26.114	0.240	0.141
-296.720	-50.543	-0.211	0.099
-295.705	-200.000	-0.018	0.216
-294.691	111.213	0.141	0.169
-293.676	584.219	-0.108	0.264
-292.662	-74.251	-0.138	-0.050
-291.647	-108.843	0.384	0.082
-290.632	367.594	0.145	-0.291
-289.618	283.473	0.039	0.070
-288.603	-139.291	-0.530	-0.057
-287.589	-142.073	-0.132	0.013
-286.574	-200.000	-0.011	-0.421
-285.559	71.239	0.103	0.106
-284.545	-82.449	-0.137	0.044
-283.530	219.547	0.116	0.185
-282.516	65.741	0.092	0.093
-281.501	-108.335	-0.277	-0.059
-280.486	-83.868	-0.205	-0.065
-279.472	72.803	-0.134	-0.140
-278.457	800.000	-0.048	-0.144
-277.443	-200.000	0.035	-0.246
-276.428	26.883	0.159	0.133
-275.413	171.065	-0.125	0.178
-274.399	-139.769	-0.206	-0.022
-273.384	72.795	0.294	0.305
-272.370	-85.547	-0.128	-0.040
-271.355	48.657	-0.127	-0.119
-270.340	197.329	-0.073	-0.111
-269.326	-200.000	-0.032	-0.255
-268.311	800.000	-0.038	-0.155
-267.297	-145.282	0.265	-0.024
-266.282	130.996	0.322	-0.411
-265.267	-41.836	-0.095	0.049
-264.253	-31.173	-0.286	0.161
-263.238	73.436	0.003	-0.003
-262.224	-76.209	0.199	-0.070
-261.209	500.504	-0.050	0.115
-260.195	-200.000	0.009	-0.144
-259.180	5.451	0.097	0.071
-258.165	108.362	-0.038	0.045
-257.151	-135.893	0.205	0.024
-256.136	628.470	0.073	0.184
-255.122	-22.621	-0.149	-0.090
-254.107	-200.000	-0.034	-0.188
-253.092	-150.533	0.172	0.013
-252.078	-86.506	0.054	-0.017
-251.063	197.165	-0.072	-0.109
-250.049	15.627	-0.021	0.016
-249.034	-68.983	0.152	0.058
-248.019	-74.684	-0.101	0.036
-247.005	-40.653	0.436	0.225
-245.990	-80.535	0.027	0.009
-244.976	-71.841	0.308	-0.114
-243.961	-161.193	0.169	-0.009
-242.946	800.000	0.084	0.255
-241.932	26.634	0.223	0.186
-240.917	106.729	-0.182	0.215
-239.903	-12.514	0.127	-0.083
-238.888	-160.655	0.427	0.023
-237.873	-87.692	0.303	0.091
-236.859	42.269	0.042	-0.038
-235.844	-200.000	0.008	-0.113
-234.830	262.948	0.172	0.297
-233.815	116.903	0.189	-0.230
-232.800	800.000	0.076	-0.267
-231.786	-167.598	0.139	0.006
-230.771	800.000	0.041	-0.127
-229.757	-21.422	-0.066	-0.040
-228.742	314.696	-0.201	-0.376
-227.727	-69.628	-0.212	-0.081
-226.713	-95.296	-0.326	-0.087
-225.698	-49.272	-0.331	0.157
-224.684	126.399	-0.116	-0.146
-223.669	-200.000	0.011	-0.217
-222.655	9.740	0.131	0.098
-221.640	205.787	-0.138	0.213
-220.625	-200.000	-0.032	0.207
-219.611	-126.891	0.223	-0.033
-218.596	78.867	0.227	-0.241
-217.582	100.632	0.116	0.134
-216.567	157.717	0.022	0.030
-215.552	193.176	0.221	-0.331
-214.538	171.197	0.078	-0.112
-213.523	654.402	-0.092	-0.234
-212.509	102.919	-0.097	0.112
-211.494	-95.001	0.272	-0.073
-210.479	-44.384	-0.117	-0.058
-209.465	-158.226	0.284	-0.016
-208.450	-63.757	0.588	-0.239
-207.436	-200.000	0.000	-0.056
-206.421	-97.338	0.222	-0.058
-205.406	595.997	0.138	-0.338
-204.392	11.050	-0.187	-0.142
-203.377	-200.000	-0.005	-0.024
-202.363	595.573	0.106	0.261
-201.348	800.000	-0.100	-0.412
-200.333	86.250	-0.214	-0.234
-199.319	82.408	-0.149	0.160
-198.304	573.992	0.035	-0.084
-197.290	-84.684	0.188	-0.059
-196.275	-54.164	-0.204	-0.092
-195.260	-157.873	0.290	-0.017
-194.246	58.898	0.067	0.066
-193.231	-114.656	0.213	-0.040
-192.217	800.000	0.022	0.069
-191.202	389.286	0.101	-0.207
-190.187	223.621	-0.071	0.113
-189.173	142.155	-0.137	-0.180
-188.158	-86.027	-0.093	0.029
-187.144	3.658	-0.142	0.103
-186.129	-52.990	-0.217	-0.099
-185.114	-200.000	0.002	-0.024
-184.100	75.355	0.016	0.017
-183.085	-200.000	0.006	-0.133
-182.071	69.224	-0.206	0.210
-181.056	356.091	-0.061	0.121
-180.042	305.822	-0.096	-0.176
-179.027	-7.717	0.273	-0.183
-178.012	143.374	0.099	-0.131
-176.998	800.000	0.006	0.021
-175.983	166.041	-0.154	0.217
-174.969	209.050	-0.185	-0.287
-173.954	800.000	0.091	-0.282
-172.939	183.583	-0.022	-0.032
-171.925	-200.000	0.036	0.210
-170.910	183.140	0.257	0.377
-169.896	-83.386	-0.111	0.035
-168.881	-149.306	0.210	-0.017
-167.866	37.856	0.277	-0.244
-166.852	64.107	0.154	-0.154
-165.837	586.685	-0.074	0.180
-164.823	-53.217	0.323	0.147
-163.808	800.000	0.064	-0.261
-162.793	152.704	0.041	0.056
-161.779	-165.426	0.307	-0.013
-160.764	-8.868	0.260	-0.173
-159.750	167.283	0.156	-0.220
-158.735	-98.855	-0.111	-0.028
-157.720	194.871	-0.132	0.199
-156.706	-107.958	-0.361	0.078
-155.691	157.584	-0.108	-0.148
-154.677	800.000	-0.064	-0.192
-153.662	-5.914	0.105	0.071
-152.647	87.999	0.156	0.171
-151.633	12.280	-0.126	0.096
-150.618	-196.269	0.084	-0.001
-149.604	-200.000	0.052	0.301
-148.589	-69.523	0.145	0.055
-147.574	-82.482	0.235	0.076
-146.560	148.231	0.102	0.136
-145.545	-87.636	0.209	-0.063
-144.531	42.692	-0.262	-0.236
-143.516	250.556	0.089	-0.150
-142.502	-200.000	-0.014	-0.312
-141.487	-7.029	0.391	0.263
-140.472	-27.164	0.161	-0.093
-139.458	208.224	-0.125	-0.194
-138.443	5.751	-0.146	0.107
-137.429	-200.000	-0.010	0.460
-136.414	547.281	-0.104	0.247
-135.399	47.523	0.262	-0.242
-134.385	-200.000	0.011	-0.162
-133.370	47.466	-0.137	-0.126
-132.356	42.962	-0.355	0.320
-131.341	-125.897	-0.073	-0.011
-130.326	342.808	0.065	-0.126
-129.312	-79.903	0.393	0.131
-128.297	-118.011	-0.343	-0.061
-127.283	800.000	0.046	-0.170
-126.268	-72.965	-0.407	-0.148
-125.253	9.533	-0.126	0.095
-124.239	-200.000	0.003	-0.135
-123.224	-1.143	0.159	-0.111
-122.210	-200.000	-0.020	-0.363
-121.195	-66.010	-0.221	0.087
-120.180	218.694	0.053	-0.085
-119.166	-71.113	0.817	0.304
-118.151	800.000	-0.122	0.431
-117.137	-200.000	-0.029	0.141
-116.122	-58.554	0.468	0.201
-115.107	530.097	-0.143	-0.334
-114.093	-157.030	0.202	0.012
-113.078	-200.000	-0.017	-0.659
-112.064	49.088	-0.146	0.136
-111.049	-200.000	-0.002	0.116
-110.034	280.029	0.191	0.337
-109.020	491.976	0.068	-0.154
-108.005	646.896	0.013	-0.032
-106.991	292.831	-0.062	0.111
-105.976	338.534	0.151	0.291
-104.962	-72.155	0.300	0.110
-103.947	-200.000	0.038	-0.629
-102.932	800.000	0.007	0.019
-101.918	115.367	0.101	-0.122
-100.903	-5.287	-0.102	-0.069
-99.889	14.588	0.118	0.091
-98.874	-133.068	0.182	0.023
-97.859	348.546	-0.162	0.315
-96.845	-2.698	-0.280	0.194
-95.830	5.520	-0.288	0.210
-94.816	-200.000	0.001	0.090
-93.801	-51.571	0.177	0.082
-92.786	-127.902	0.407	-0.058
-91.772	155.254	-0.197	0.268
-90.757	16.677	-0.289	0.226
-89.743	800.000	-0.021	-0.073
-88.728	800.000	0.078	0.259
-87.713	430.216	0.033	0.072
-86.699	-105.919	0.244	-0.054
-85.684	-77.610	0.133	-0.046
-84.670	223.071	0.172	0.274
-83.655	-200.000	0.010	-0.133
-82.640	183.839	-0.199	-0.291
-81.626	-200.000	-0.042	-0.222
-80.611	282.214	0.061	-0.108
-79.597	314.063	0.086	0.161
-78.582	-11.984	0.224	-0.145
-77.567	-20.412	0.109	0.066
-76.553	-130.301	0.419	0.056
-75.538	-128.821	0.259	-0.036
-74.524	-75.310	0.224	-0.079
-73.509	-108.747	0.181	-0.038
-72.494	-42.287	0.152	0.077
-71.480	-34.871	-0.207	0.111
-70.465	-40.275	0.273	0.140
-69.451	105.728	-0.156	-0.183
-68.436	-22.134	0.154	-0.092
-67.422	583.648	-0.049	0.119
-66.407	-160.835	0.204	-0.011
-65.392	-152.742	0.258	0.018
-64.378	-200.000	-0.032	0.390
-63.363	-200.000	0.066	0.331
-62.349	-200.000	0.014	0.172
-61.334	156.840	-0.717	-0.979
-60.319	260.275	0.321	0.548
-59.305	800.000	-0.186	-0.736
-58.290	158.205	0.695	0.952
-57.276	704.821	0.585	1.525
-56.261	-200.000	95.630	546.431
-55.246	518.064	1403.585	3242.674
-54.232	147.252	2627.325	3490.735
-53.217	110.707	2216.869	2632.222
-52.203	45.648	1657.547	1511.677
-51.188	37.520	1388.031	1215.312
-50.173	34.290	1344.470	1157.540
-49.159	53.602	1392.406	1318.750
-48.144	56.978	1411.555	1357.754
-47.130	37.739	1365.759	1196.967
-46.115	34.312	1347.074	1159.727
-45.100	33.952	1343.027	1154.012
-44.086	33.889	1340.439	1151.364
-43.071	33.988	1338.092	1149.900
-42.057	33.938	1335.982	1147.741
-41.042	33.910	1334.060	1145.872
-40.027	33.882	1333.269	1144.980
-39.013	33.974	1330.601	1143.197
-37.998	34.063	1328.813	1142.149
-36.984	34.069	1327.062	1140.638
-35.969	34.074	1325.860	1139.584
-34.954	34.144	1323.578	1137.999
-33.940	34.056	1322.459	1136.463
-32.925	34.170	1320.841	1135.713
-31.911	34.207	1319.347	1134.601
-30.896	34.160	1317.866	1133.003
-29.881	34.215	1316.348	1131.981
-28.867	34.194	1314.826	1130.505
-27.852	34.127	1313.565	1128.973
-26.838	34.240	1311.957	1128.216
-25.823	34.200	1310.847	1126.982
-24.809	34.199	1309.335	1125.634
-23.794	34.184	1307.820	1124.198
-22.779	34.303	1306.437	1123.663
-21.765	34.190	1305.345	1122.015
-20.750	34.124	1303.866	1120.309
-19.736	34.043	1302.873	1118.939
-18.721	33.944	1301.993	1117.553
-17.706	34.019	1300.492	1116.662
-16.692	34.061	1299.211	1115.764
-15.677	34.043	1297.709	1114.322
-14.663	34.006	1296.861	1113.334
-13.648	33.936	1296.354	1112.444
-12.633	34.053	1294.630	1111.604
-11.619	33.961	1294.059	1110.532
-10.604	34.003	1293.088	1109.904
-9.590	33.955	1291.983	1108.628
-8.575	33.971	1291.077	1107.901
-7.560	33.999	1290.220	1107.285
-6.546	34.001	1289.553	1106.683
-5.531	33.997	1288.419	1105.642
-4.517	33.919	1287.436	1104.302
-3.502	34.018	1286.489	1104.017
-2.487	33.943	1285.880	1103.019
-1.473	34.092	1281.604	1100.166
-0.458	33.460	1267.832	1084.682
0.556	29.317	1250.942	1052.043
1.571	25.985	1257.538	1038.344
2.586	25.071	1272.386	1045.185
3.600	24.114	1261.352	1030.494
4.615	20.805	1190.632	954.524
5.629	15.533	1117.535	868.650
6.644	12.531	1098.414	838.428
7.659	12.351	1095.538	835.246
8.673	12.501	1093.704	834.533
9.688	12.328	1092.974	833.024
10.702	12.715	1090.807	833.258
11.717	16.258	1095.901	855.056
12.731	20.183	1100.414	878.426
13.746	19.446	1099.116	873.579
14.761	17.795	1095.740	862.480
15.775	16.647	1093.463	854.814
16.790	15.503	1091.439	847.389
17.804	14.775	1089.729	842.316
18.819	14.336	1088.576	839.138
19.834	14.058	1087.306	836.689
20.848	13.833	1086.395	834.781
21.863	13.637	1085.221	832.819
22.877	13.505	1084.937	831.864
23.892	13.380	1084.439	830.781
24.907	13.495	1083.195	830.334
25.921	13.464	1082.602	829.647
26.936	13.502	1081.301	828.770
27.950	13.528	1079.543	827.479
28.965	13.669	1077.576	826.598
29.980	13.737	1075.772	825.483
30.994	13.559	1075.201	824.087
32.009	13.723	1074.265	824.108
33.023	13.686	1072.894	822.799
34.038	13.675	1071.918	821.927
35.053	13.582	1071.385	820.982
36.067	13.556	1070.226	819.892
37.082	13.574	1069.397	819.276
38.096	13.679	1068.632	819.137
39.111	13.655	1067.766	818.283
40.126	13.612	1066.379	816.932
41.140	13.513	1064.952	815.279
42.155	13.383	1063.607	813.540
43.169	13.374	1063.080	813.022
44.184	13.323	1062.116	811.963
45.199	13.367	1060.948	811.212
46.213	13.455	1059.546	810.499
47.228	13.340	1059.238	809.627
48.242	13.529	1057.402	809.078
49.257	13.532	1057.008	808.718
50.271	13.593	1055.514	807.804
51.286	13.590	1054.595	807.012
52.301	13.624	1054.001	806.655
53.315	13.568	1052.259	804.976
54.330	13.479	1051.484	803.879
55.344	13.512	1050.920	803.537
56.359	13.461	1049.931	802.461
57.374	13.448	1049.089	801.684
58.388	13.424	1047.957	800.633
59.403	13.290	1047.545	799.598
60.417	13.383	1046.397	799.100
61.432	13.416	1045.685	798.646
62.447	13.397	1044.504	797.583
63.461	13.391	1043.676	796.852
64.476	13.333	1042.990	795.978
65.490	13.362	1042.388	795.585
66.505	13.404	1041.662	795.163
67.520	13.420	1040.963	794.637
68.534	13.345	1040.304	793.704
69.549	13.448	1039.375	793.418
70.563	13.399	1038.677	792.580
71.578	13.405	1037.758	791.837
72.593	13.304	1036.910	790.637
73.607	13.228	1036.226	789.683
74.622	13.239	1035.559	789.157
75.636	13.261	1034.850	788.651
76.651	13.193	1034.761	788.193
77.666	13.292	1033.632	787.731
78.680	13.295	1032.923	787.137
79.695	13.255	1032.342	786.434
80.709	13.408	1031.432	786.401
81.724	13.309	1031.076	785.587
82.739	13.433	1030.292	785.509
83.753	13.513	1029.368	785.114
84.768	13.525	1028.464	784.412
85.782	13.597	1027.948	784.290
86.797	13.657	1026.451	783.362
87.812	13.485	1025.909	782.069
88.826	13.537	1024.434	781.119
89.841	13.651	1023.608	780.955
90.855	13.789	1022.423	780.635
91.870	13.698	1021.740	779.615
92.884	13.633	1021.447	779.016
93.899	13.680	1020.420	778.384
94.914	13.746	1019.621	778.015
95.928	13.773	1018.573	777.275
96.943	13.822	1017.528	776.638
97.957	13.606	1016.790	774.997
98.972	13.593	1016.196	774.413
99.987	13.655	1014.921	773.663
101.001	13.664	1013.968	772.911
102.016	13.722	1013.275	772.583
103.030	13.604	1012.536	771.402
104.045	13.708	1011.394	770.946
105.060	13.704	1010.551	770.217
106.074	13.452	1010.057	768.605
107.089	13.543	1008.659	767.893
108.103	13.539	1007.844	767.185
109.118	13.473	1006.889	766.084
110.133	13.574	1005.435	765.380
111.147	13.392	1005.272	764.348
112.162	13.493	1004.432	764.106
113.176	13.584	1003.310	763.607
114.191	13.626	1002.850	763.380
115.206	13.564	1001.801	762.228
116.220	13.590	1000.901	761.594
117.235	13.631	999.417	760.587
118.249	13.487	998.867	759.440
119.264	13.429	998.259	758.645
120.279	13.517	997.464	758.380
121.293	13.660	995.886	757.767
122.308	13.443	995.870	756.692
123.322	13.515	994.279	755.748
124.337	13.494	993.577	755.052
125.352	13.525	992.420	754.247
126.366	13.539	991.610	753.626
127.381	13.501	990.354	752.431
128.395	13.494	989.841	751.947
129.410	13.597	989.113	751.792
130.424	13.577	988.081	750.852
131.439	13.687	987.517	750.855
132.454	13.566	987.027	749.867
133.468	13.658	986.043	749.470
134.483	13.642	984.875	748.443
135.497	13.566	984.248	747.557
136.512	13.726	983.033	747.289
137.527	13.704	982.084	746.402
138.541	13.687	981.777	746.028
139.556	13.751	980.693	745.423
140.570	13.768	980.152	745.024
141.585	13.777	979.343	744.384
142.600	13.816	978.456	743.821
143.614	13.897	977.709	743.547
144.629	13.860	976.780	742.608
145.643	13.790	975.825	741.504
146.658	13.845	974.437	740.632
147.673	13.790	973.308	739.464
148.687	13.658	972.754	738.386
149.702	13.662	971.510	737.396
150.716	13.600	971.296	736.891
151.731	13.653	970.625	736.554
152.746	13.600	970.146	735.889
153.760	13.679	968.987	735.296
154.775	13.661	968.992	735.156
155.789	13.912	967.763	735.267
156.804	13.911	966.863	734.513
157.819	13.858	966.283	733.774
158.833	13.975	965.554	733.676
159.848	13.894	965.438	733.164
160.862	13.874	964.643	732.407
161.877	13.890	963.025	731.184
162.892	13.787	962.288	730.105
163.906	13.778	961.276	729.233
164.921	13.711	960.704	728.443
165.935	13.770	960.023	728.121
166.950	13.800	958.509	727.036
167.964	13.865	957.573	726.550
168.979	13.913	956.668	726.005
169.994	13.860	956.140	725.312
171.008	13.994	955.220	725.133
172.023	14.016	954.475	724.602
173.037	14.031	953.868	724.139
174.052	14.109	953.214	723.921
175.067	13.992	952.819	723.046
176.081	13.905	952.316	722.223
177.096	13.887	951.720	721.627
178.110	13.835	951.029	720.814
179.125	14.005	950.353	720.977
180.140	13.880	950.131	720.201
181.154	14.066	949.304	720.318
182.169	14.022	948.562	719.499
183.183	14.088	948.242	719.479
184.198	14.186	947.412	719.208
185.213	14.093	946.516	718.066
186.227	14.111	945.724	717.477
187.242	14.092	945.723	717.330
188.256	14.125	945.147	716.973
189.271	14.237	943.978	716.506
190.286	14.149	942.901	715.245
191.300	13.967	942.274	713.924
192.315	13.859	941.856	713.080
193.329	13.949	941.299	712.983
194.344	14.108	940.416	712.933
195.359	14.086	939.787	712.297
196.373	14.240	939.190	712.441
197.388	14.070	939.227	711.679
198.402	14.324	938.242	711.957
199.417	14.401	937.935	711.988
200.432	14.350	937.383	711.289
201.446	14.500	936.267	711.017
202.461	14.449	936.263	710.734
203.475	14.451	936.116	710.570
204.490	14.418	935.218	709.684
205.504	14.394	933.858	708.489
206.519	14.401	933.107	707.883
207.534	14.296	932.831	707.168
208.548	14.351	932.174	706.838
209.563	14.465	931.186	706.511
210.577	14.385	930.720	705.755
211.592	14.524	930.148	705.849
212.607	14.582	929.041	705.192
213.621	14.549	928.294	704.422
214.636	14.582	927.518	703.910
215.650	14.569	926.854	703.289
216.665	14.489	926.702	702.774
217.680	14.656	925.716	702.667
218.694	14.718	925.080	702.383
219.709	14.532	924.733	701.274
220.723	14.586	924.119	700.976
221.738	14.700	923.139	700.649
222.753	14.614	922.803	699.968
223.767	14.670	921.908	699.462
224.782	14.666	921.528	699.097
225.796	14.832	921.222	699.497
226.811	14.807	920.363	698.678
227.826	14.717	919.521	697.601
228.840	14.599	918.521	696.291
229.855	14.840	917.194	696.226
230.869	14.629	917.120	695.230
231.884	14.726	916.298	694.947
232.899	14.736	915.254	694.135
233.913	14.558	914.983	693.130
234.928	14.538	914.548	692.658
235.942	14.642	913.632	692.332
236.957	14.721	912.997	692.118
237.972	14.740	912.515	691.771
238.986	14.733	911.685	691.051
240.001	14.674	911.120	690.317
241.015	14.673	910.726	689.955
242.030	14.853	909.807	689.938
243.045	14.767	909.491	689.284
244.059	14.826	909.018	689.109
245.074	14.808	908.136	688.303
246.088	14.754	907.705	687.694
247.103	14.922	907.007	687.796
248.117	14.914	906.541	687.347
249.132	15.104	906.033	687.682
250.147	15.065	904.940	686.631
251.161	15.146	904.633	686.669
252.176	15.138	903.863	685.994
253.190	15.223	903.276	685.832
254.205	15.192	902.662	685.181
255.220	15.329	901.683	684.936
256.234	15.193	901.287	684.022
257.249	15.273	900.298	683.535
258.263	15.139	900.130	682.800
259.278	15.281	899.156	682.580
260.293	15.293	898.358	681.964
261.307	15.192	898.072	681.274
262.322	15.279	897.426	681.075
263.336	15.375	896.394	680.624
264.351	15.517	895.780	680.671
265.366	15.423	895.118	679.728
266.380	15.336	894.666	678.972
267.395	15.497	893.976	679.039
268.409	15.384	892.904	677.709
269.424	15.363	892.362	677.153
270.439	15.397	891.664	676.702
271.453	15.190	891.061	675.349
272.468	15.542	890.131	676.001
273.482	15.493	889.762	675.464
274.497	15.444	889.377	674.915
275.512	15.283	888.944	673.879
276.526	15.445	888.355	674.023
277.541	15.560	887.828	674.024
278.555	15.538	887.588	673.697
279.570	15.605	886.367	672.976
280.585	15.551	885.752	672.235
281.599	15.528	884.835	671.388
282.614	15.548	884.218	670.940
283.628	15.627	883.874	670.936
284.643	15.642	883.145	670.381
285.657	15.806	882.306	670.340
286.672	15.606	881.726	669.044
287.687	15.720	881.192	669.034
288.701	15.635	880.810	668.347
289.716	15.676	880.000	667.836
290.730	15.696	879.703	667.629
291.745	15.652	879.180	666.998
292.760	15.706	878.653	666.753
293.774	15.842	877.798	666.584
294.789	15.824	877.157	665.967
295.803	15.673	876.439	664.767
296.818	15.905	875.641	665.021
297.833	15.869	874.918	664.270
298.847	15.753	874.651	663.552
299.862	15.909	874.013	663.623
300.876	15.830	873.425	662.806
301.891	15.910	872.682	662.498
302.906	16.039	872.209	662.586
303.920	16.167	871.733	662.669
304.935	15.901	871.472	661.370
305.949	15.939	870.576	660.781
306.964	16.061	869.663	660.505
307.979	16.035	869.313	660.081
308.993	16.150	868.869	660.134
310.008	16.203	868.062	659.671
311.022	16.171	867.475	659.039
312.037	16.008	866.908	657.917
313.052	16.180	865.856	657.730
314.066	15.986	865.973	657.005
315.081	16.022	865.492	656.719
316.095	16.168	864.183	656.239
317.110	16.004	864.211	655.564
318.125	16.084	863.646	655.389
319.139	16.012	863.309	654.794
320.154	16.123	862.833	654.804
321.168	16.192	861.644	654.111
322.183	16.188	861.303	653.782
323.197	16.083	861.206	653.241
324.212	16.241	860.462	653.230
325.227	16.255	859.654	652.614
326.241	16.214	859.096	651.976
327.256	16.150	858.223	651.010
328.270	16.212	857.614	650.727
329.285	16.119	857.770	650.428
330.300	16.124	857.280	650.020
331.314	16.074	856.428	649.124
332.329	16.305	855.868	649.529
333.343	16.298	855.527	649.186
334.358	16.343	854.972	648.880
335.373	16.407	854.234	648.510
336.387	16.384	854.371	648.470
337.402	16.364	854.103	648.130
338.416	16.305	853.838	647.648
339.431	16.414	853.304	647.599
340.446	16.489	852.891	647.516
341.460	16.510	852.433	647.192
342.475	16.588	852.097	647.179
343.489	16.363	851.625	645.902
344.504	16.608	851.254	646.499
345.519	16.622	850.479	645.907
346.533	16.613	849.864	645.349
347.548	16.650	849.135	644.878
348.562	16.634	848.845	644.542
349.577	16.584	848.175	643.784
350.592	16.494	847.429	642.820
351.606	16.535	847.053	642.634
352.621	16.561	846.376	642.161
353.635	16.769	845.552	642.270
354.650	16.607	844.981	641.163
355.665	16.489	844.717	640.462
356.679	16.722	843.766	640.565
357.694	16.734	843.097	640.045
358.708	16.553	842.844	639.114
359.723	16.736	841.775	638.937
360.738	16.722	841.583	638.683
361.752	16.710	841.048	638.172
362.767	16.608	840.359	637.209
363.781	16.924	839.647	637.803
364.796	16.872	839.377	637.346
365.810	16.965	839.043	637.385
366.825	17.002	838.566	637.104
367.840	17.050	837.953	636.762
368.854	16.884	837.395	635.661
369.869	16.934	837.232	635.666
370.883	17.037	836.650	635.556
371.898	16.961	836.451	635.063
372.913	17.119	835.859	635.147
373.927	16.860	835.408	633.783
374.942	17.079	835.055	634.277
375.956	17.196	834.572	634.290
376.971	17.304	834.034	634.229
377.986	17.137	834.075	633.581
379.000	17.102	833.547	632.991
380.015	17.147	832.617	632.396
381.029	17.267	832.166	632.444
382.044	17.219	831.482	631.692
383.059	17.274	830.658	631.215
384.073	17.247	830.528	630.958
385.088	17.265	829.510	630.197
386.102	17.307	828.889	629.826
387.117	17.338	828.594	629.661
388.132	17.259	827.910	628.792
389.146	17.465	826.811	628.663
390.161	17.181	826.913	627.635
391.175	17.199	826.623	627.424
392.190	17.367	825.972	627.497
393.205	17.299	825.539	626.862
394.219	17.370	825.474	627.019
395.234	17.176	824.924	625.828
396.248	17.220	824.453	625.579
397.263	17.291	823.732	625.239
398.278	17.261	823.551	624.935
399.292	17.286	823.249	624.743
400.307	17.303	822.301	624.030
401.321	17.221	822.395	623.744
402.336	17.328	821.628	623.501
403.350	17.353	821.187	623.201
404.365	17.598	820.501	623.524
405.380	17.570	820.232	623.161
406.394	17.586	819.632	622.707
407.409	17.576	819.305	622.369
408.423	17.513	819.064	621.899
409.438	17.645	818.526	621.920
410.453	17.583	818.078	621.296
411.467	17.684	817.791	621.393
412.482	17.800	817.276	621.370
413.496	17.863	816.860	621.227
414.511	17.867	816.762	621.110
415.526	17.792	816.004	620.209
416.540	17.765	815.252	619.484
417.555	17.814	815.002	619.417
418.569	17.738	814.706	618.861
419.584	17.852	814.123	618.777
420.599	17.935	813.322	618.414
421.613	104.049	1285.806	1442.694
422.628	89.701	1354.680	1442.797
