DTS Sentinel unit serial number:	SN413079Multiplexer serial number:	ORYXHardware model number:	OX4-SRSoftware version number:	ORYX F/W v4.00 Oryx Data Collector v3.7.2.0data status	okinstallation	princeton_trtdifferential loss correction	single-endedforward channel	channel 1reverse channel	N/Adate	2019/09/13time	02:58:35forward acquisition time	60.00reverse acquisition time	0.00gamma	496.2192k internal	0.2331k external	0.2331temperature offset calibration	1.0163default loss term (dB/km)	0.3790temperature slope calibration	1.0000multiplexer offset coefficient	1.0000multiplexer slope coefficient	1.0000fibre end	0.00T internal ref (°C)	27.44T ext. ref 1 (°C)	4.05T ext. ref 2 (°C)	22.22length (m)	temperature (°C)	Stokes	anti-Stokes-747.200	-4.178	-0.354	0.247
-746.185	-40.908	-0.363	0.189
-745.171	-145.278	-0.201	0.018
-744.156	419.561	0.043	0.093
-743.142	800.000	-0.078	0.256
-742.127	-200.000	0.005	0.093
-741.112	8.471	-0.111	-0.084
-740.098	-165.969	-0.350	-0.015
-739.083	-31.957	-0.317	0.178
-738.069	-200.000	0.055	0.321
-737.054	127.916	0.057	-0.073
-736.039	579.136	-0.129	-0.317
-735.025	55.431	0.274	0.267
-734.010	89.536	-0.370	-0.415
-732.996	163.147	-0.108	-0.152
-731.981	800.000	-0.103	0.363
-730.966	-200.000	0.013	0.239
-729.952	800.000	0.033	-0.146
-728.937	129.077	-0.097	0.124
-727.923	-42.618	-0.111	-0.057
-726.908	-27.121	-0.200	0.117
-725.894	-200.000	0.012	-0.128
-724.879	376.658	-0.112	-0.231
-723.864	410.138	-0.178	-0.379
-722.850	408.500	-0.218	-0.464
-721.835	409.199	0.056	0.120
-720.821	-200.000	-0.050	0.365
-719.806	-200.000	0.028	0.195
-718.791	19.137	0.228	0.184
-717.777	-47.066	-0.074	0.036
-716.762	83.133	-0.144	-0.157
-715.748	-200.000	0.007	-0.160
-714.733	192.351	-0.105	0.159
-713.718	-117.422	0.260	-0.047
-712.704	8.862	-0.222	0.169
-711.689	770.216	-0.061	-0.167
-710.675	673.785	-0.032	0.084
-709.660	76.826	0.213	0.227
-708.645	-48.362	0.129	-0.062
-707.631	18.393	-0.310	0.249
-706.616	-63.638	0.122	0.050
-705.602	103.533	0.194	-0.228
-704.587	524.758	-0.089	-0.209
-703.572	75.361	0.044	0.046
-702.558	18.117	-0.188	-0.151
-701.543	174.075	-0.146	-0.212
-700.529	800.000	-0.145	-0.416
-699.514	57.461	0.167	-0.164
-698.499	-119.483	-0.042	0.007
-697.485	428.701	-0.200	-0.433
-696.470	-200.000	-0.022	-0.270
-695.456	67.542	-0.157	0.161
-694.441	-12.703	-0.089	0.058
-693.426	153.929	0.152	-0.209
-692.412	800.000	-0.027	-0.099
-691.397	-11.599	-0.352	-0.232
-690.383	14.683	0.130	-0.102
-689.368	208.634	0.108	0.169
-688.354	360.563	-0.085	-0.171
-687.339	800.000	-0.070	0.271
-686.324	154.109	0.067	-0.092
-685.310	-102.149	0.190	0.046
-684.295	63.865	0.095	-0.096
-683.281	-200.000	0.011	-0.168
-682.266	-200.000	-0.032	-0.470
-681.251	354.380	-0.169	0.338
-680.237	216.266	0.160	0.255
-679.222	800.000	0.018	-0.079
-678.208	-83.231	-0.298	-0.096
-677.193	179.174	0.196	-0.288
-676.178	145.943	0.120	-0.161
-675.164	80.132	0.149	0.161
-674.149	160.628	0.111	0.155
-673.135	168.731	-0.052	0.075
-672.120	141.379	0.231	0.307
-671.105	-30.656	-0.121	-0.069
-670.091	-49.538	-0.190	0.091
-669.076	-79.919	-0.188	-0.063
-668.062	-200.000	-0.050	-0.459
-667.047	464.365	-0.153	0.344
-666.032	-22.465	-0.183	-0.111
-665.018	-97.263	0.187	0.049
-664.003	-2.602	-0.204	0.143
-662.989	-200.000	0.016	0.078
-661.974	-28.624	-0.292	0.169
-660.959	-58.056	-0.050	-0.022
-659.945	-200.000	0.005	-0.066
-658.930	644.476	-0.040	-0.103
-657.916	-126.369	0.331	-0.050
-656.901	50.483	-0.097	0.092
-655.886	-28.492	0.179	0.103
-654.872	-137.297	0.054	0.006
-653.857	-200.000	0.004	-0.043
-652.843	102.653	-0.068	0.080
-651.828	119.879	-0.106	0.131
-650.814	-90.203	-0.250	-0.073
-649.799	19.191	0.162	0.130
-648.784	350.012	-0.119	0.235
-647.770	-142.728	-0.349	0.034
-646.755	223.241	-0.121	0.196
-645.741	-200.000	0.015	-0.205
-644.726	483.220	-0.121	0.275
-643.711	-78.937	0.456	-0.155
-642.697	324.885	-0.112	0.215
-641.682	-27.947	0.356	-0.207
-640.668	92.574	-0.213	-0.240
-639.653	446.460	0.095	-0.210
-638.638	800.000	-0.112	0.310
-637.624	-200.000	0.045	-0.262
-636.609	318.637	-0.076	0.144
-635.595	328.097	0.107	-0.206
-634.580	-132.664	0.186	-0.024
-633.565	75.005	-0.145	0.153
-632.551	448.518	0.066	0.145
-631.536	-104.067	-0.289	0.068
-630.522	378.252	0.078	0.160
-629.507	332.018	0.036	-0.070
-628.492	-134.393	0.352	0.043
-627.478	163.131	-0.234	0.330
-626.463	334.513	0.035	0.067
-625.449	-200.000	0.006	-0.048
-624.434	95.923	0.210	-0.240
-623.419	800.000	0.093	-0.387
-622.405	-85.667	-0.315	0.098
-621.390	-112.236	-0.082	-0.016
-620.376	-26.027	-0.127	0.075
-619.361	-200.000	-0.042	-0.195
-618.346	-200.000	-0.120	0.000
-617.332	-130.442	-0.389	0.053
-616.317	800.000	-0.109	-0.373
-615.303	-33.302	-0.272	-0.151
-614.288	-200.000	0.038	0.262
-613.273	-76.910	-0.332	0.116
-612.259	49.005	-0.220	-0.206
-611.244	-167.435	0.170	-0.007
-610.230	-200.000	-0.028	0.185
-609.215	-200.000	-0.007	0.356
-608.201	13.324	-0.248	0.192
-607.186	16.843	-0.401	-0.318
-606.171	-123.694	0.295	-0.047
-605.157	800.000	0.010	0.028
-604.142	135.728	0.082	-0.106
-603.128	-49.592	-0.246	-0.117
-602.113	76.993	0.122	-0.130
-601.098	800.000	-0.032	-0.138
-600.084	348.815	0.011	-0.022
-599.069	19.684	-0.335	-0.269
-598.055	99.785	-0.231	-0.268
-597.040	800.000	0.046	-0.133
-596.025	-138.764	-0.107	0.012
-595.011	150.865	0.162	0.221
-593.996	-90.701	0.106	0.031
-592.982	-122.990	-0.170	-0.027
-591.967	79.512	-0.219	0.235
-590.952	800.000	-0.047	0.178
-589.938	291.692	-0.117	0.212
-588.923	800.000	-0.043	-0.162
-587.909	35.103	-0.219	-0.192
-586.894	285.580	-0.016	0.029
-585.879	-103.913	0.178	0.041
-584.865	-200.000	-0.042	-0.242
-583.850	53.719	0.060	-0.058
-582.836	-29.201	-0.188	-0.108
-581.821	-128.942	0.124	0.017
-580.806	-9.871	0.218	0.145
-579.792	-95.953	-0.233	0.062
-578.777	800.000	-0.096	-0.277
-577.763	5.048	-0.346	-0.255
-576.748	-72.926	0.096	-0.035
-575.733	-99.771	0.059	-0.015
-574.719	7.343	0.146	0.109
-573.704	-46.624	0.198	0.097
-572.690	-200.000	-0.010	0.076
-571.675	-122.273	-0.125	-0.020
-570.661	800.000	-0.023	-0.064
-569.646	224.525	-0.034	-0.054
-568.631	-200.000	-0.225	0.000
-567.617	129.183	-0.125	-0.159
-566.602	-200.000	0.023	0.136
-565.588	-200.000	-0.065	0.366
-564.573	636.334	0.137	0.347
-563.558	-126.246	-0.126	-0.019
-562.544	97.541	0.210	-0.242
-561.529	800.000	-0.115	0.346
-560.515	714.479	0.015	0.041
-559.500	-127.761	-0.218	0.031
-558.485	92.081	-0.152	0.171
-557.471	58.416	-0.064	-0.063
-556.456	-29.363	0.201	-0.115
-555.442	-131.301	0.160	0.021
-554.427	444.130	-0.092	-0.203
-553.412	-92.586	-0.256	-0.072
-552.398	-106.804	0.168	-0.037
-551.383	-111.491	0.414	-0.084
-550.369	186.873	0.235	0.350
-549.354	252.746	-0.065	0.111
-548.339	-151.257	0.320	-0.024
-547.325	246.012	-0.079	0.133
-546.310	35.660	0.091	0.080
-545.296	550.858	0.048	0.114
-544.281	44.648	-0.229	0.211
-543.266	-200.000	-0.008	0.270
-542.252	-161.506	-0.511	-0.026
-541.237	-36.791	0.039	0.021
-540.223	-86.414	-0.025	0.008
-539.208	-55.398	0.158	-0.071
-538.193	135.107	0.174	0.225
-537.179	232.321	-0.216	0.353
-536.164	-141.516	0.222	-0.022
-535.150	-68.850	0.357	0.138
-534.135	42.794	-0.034	0.031
-533.121	342.791	-0.122	0.239
-532.106	19.718	-0.080	0.064
-531.091	369.441	-0.207	-0.419
-530.077	-139.675	-0.319	0.034
-529.062	-43.715	0.134	0.068
-528.048	287.180	-0.147	0.265
-527.033	-200.000	-0.015	-0.230
-526.018	-169.024	0.056	0.002
-525.004	140.382	0.108	-0.142
-523.989	-67.834	0.232	0.090
-522.975	-200.000	-0.032	-0.197
-521.960	260.873	0.129	-0.222
-520.945	-200.000	-0.028	0.375
-519.931	-18.625	0.323	0.201
-518.916	244.562	0.027	-0.044
-517.902	-73.684	0.250	-0.091
-516.887	1.035	-0.216	0.155
-515.872	68.953	0.066	0.068
-514.858	-87.263	0.433	0.131
-513.843	-200.000	-0.003	0.039
-512.829	800.000	-0.045	0.126
-511.814	-131.868	-0.185	0.024
-510.799	-200.000	0.021	-0.108
-509.785	-52.400	-0.422	-0.195
-508.770	-200.000	0.010	-0.190
-507.756	134.211	0.144	0.186
-506.741	-200.000	-0.011	0.091
-505.726	-143.591	-0.108	0.010
-504.712	-130.209	-0.274	-0.037
-503.697	111.810	0.251	0.302
-502.683	800.000	0.054	-0.173
-501.668	-31.300	-0.270	0.152
-500.653	-126.300	0.150	0.022
-499.639	268.460	0.092	0.161
-498.624	13.601	0.146	-0.113
-497.610	-120.015	-0.371	-0.063
-496.595	656.787	-0.115	0.295
-495.581	-44.982	0.191	0.095
-494.566	-88.571	-0.187	0.056
-493.551	105.686	0.057	0.068
-492.537	142.892	0.195	-0.258
-491.522	500.902	-0.045	0.104
-490.508	-34.498	-0.124	0.068
-489.493	169.621	-0.069	0.098
-488.478	-200.000	0.002	-0.079
-487.464	-166.447	-0.114	0.005
-486.449	800.000	0.083	-0.332
-485.435	-200.000	-0.027	0.430
-484.420	800.000	-0.093	0.385
-483.405	295.209	-0.059	0.108
-482.391	-170.637	-0.174	0.006
-481.376	95.188	0.101	-0.115
-480.362	-71.585	0.278	-0.103
-479.347	-102.280	0.367	0.088
-478.332	-31.736	-0.246	0.137
-477.318	129.843	0.128	-0.163
-476.303	-85.623	-0.358	0.111
-475.289	-200.000	-0.004	0.122
-474.274	-200.000	-0.005	-0.167
-473.259	-8.608	0.216	0.144
-472.245	-132.100	0.253	0.033
-471.230	392.346	0.027	0.057
-470.216	-42.314	0.191	-0.097
-469.201	-128.314	-0.310	0.044
-468.186	-137.132	0.143	-0.016
-467.172	156.470	0.069	-0.095
-466.157	393.795	-0.125	-0.259
-465.143	99.054	0.105	-0.120
-464.128	7.590	0.289	0.215
-463.113	-85.599	-0.173	0.053
-462.099	-200.000	-0.030	0.437
-461.084	-200.000	0.034	-0.211
-460.070	-200.000	-0.029	0.165
-459.055	-200.000	-0.011	-0.184
-458.040	-175.741	0.231	-0.006
-457.026	-114.187	-0.398	-0.077
-456.011	-200.000	0.031	-0.195
-454.997	800.000	-0.030	0.114
-453.982	-25.962	0.304	-0.178
-452.968	-200.000	-0.022	0.155
-451.953	-57.759	0.236	-0.103
-450.938	357.520	0.176	-0.350
-449.924	63.425	0.151	-0.150
-448.909	110.563	0.082	-0.098
-447.895	49.138	-0.254	0.237
-446.880	800.000	-0.070	-0.249
-445.865	-10.281	0.052	0.035
-444.851	-104.857	0.494	0.113
-443.836	326.558	0.109	0.209
-442.822	-200.000	-0.054	-0.241
-441.807	91.928	-0.186	-0.208
-440.792	-11.897	-0.245	-0.160
-439.778	800.000	0.053	-0.225
-438.763	-74.109	0.292	0.105
-437.749	-140.753	0.254	0.026
-436.734	46.745	0.126	0.116
-435.719	-74.891	0.194	-0.069
-434.705	42.849	0.181	0.164
-433.690	-200.000	0.012	-0.139
-432.676	298.322	0.185	0.339
-431.661	-149.997	0.221	-0.017
-430.646	203.915	-0.088	0.136
-429.632	-191.566	-0.185	0.002
-428.617	-30.725	-0.264	0.149
-427.603	-71.212	-0.273	0.102
-426.588	0.731	0.239	0.170
-425.573	800.000	-0.074	-0.229
-424.559	-200.000	0.052	-0.333
-423.544	-123.601	0.133	0.021
-422.530	353.383	-0.164	-0.324
-421.515	135.363	0.271	-0.350
-420.500	758.851	-0.071	0.192
-419.486	-200.000	-0.047	-0.205
-418.471	-107.293	0.276	0.060
-417.457	800.000	-0.087	0.300
-416.442	72.504	0.127	-0.132
-415.428	-113.742	-0.168	-0.033
-414.413	203.173	0.070	0.108
-413.398	-13.168	-0.099	-0.064
-412.384	237.103	-0.121	0.199
-411.369	328.096	0.154	0.294
-410.355	-79.397	0.010	-0.003
-409.340	402.036	0.089	-0.186
-408.325	599.767	-0.065	-0.159
-407.311	-43.145	0.437	-0.220
-406.296	61.179	0.130	0.129
-405.282	9.191	0.087	-0.065
-404.267	-200.000	-0.033	0.283
-403.252	47.519	-0.085	-0.079
-402.238	-67.085	0.407	0.160
-401.223	-51.000	-0.346	0.161
-400.209	-87.930	-0.161	-0.048
-399.194	51.276	-0.149	-0.140
-398.179	-200.000	0.020	-0.281
-397.165	-96.826	-0.090	-0.023
-396.150	-66.779	-0.332	-0.130
-395.136	279.797	-0.055	0.097
-394.121	396.603	-0.066	0.136
-393.106	159.062	0.171	-0.237
-392.092	593.055	0.076	-0.186
-391.077	242.074	0.098	0.163
-390.063	800.000	-0.028	0.113
-389.048	-89.654	-0.038	-0.011
-388.033	-50.864	-0.207	0.097
-387.019	363.106	-0.091	0.181
-386.004	-200.000	0.022	0.414
-384.990	-13.435	0.104	-0.067
-383.975	179.929	-0.132	-0.192
-382.960	-200.000	-0.026	-0.195
-381.946	245.870	0.077	0.128
-380.931	-35.417	-0.136	0.073
-379.917	-20.708	-0.319	-0.194
-378.902	279.610	0.098	-0.173
-377.888	-164.632	-0.115	-0.005
-376.873	5.999	0.228	-0.167
-375.858	132.423	0.191	-0.244
-374.844	-200.000	0.017	0.090
-373.829	47.792	0.076	0.070
-372.815	558.886	0.065	-0.154
-371.800	-67.698	0.261	0.101
-370.785	250.282	-0.081	0.136
-369.771	-173.950	-0.458	0.013
-368.756	-15.204	-0.201	0.128
-367.742	106.287	-0.159	-0.187
-366.727	-103.983	-0.224	0.052
-365.712	130.008	0.083	0.105
-364.698	800.000	-0.117	0.482
-363.683	127.397	-0.144	0.181
-362.669	-78.608	0.282	-0.096
-361.654	-165.886	0.136	-0.006
-360.639	-111.360	-0.234	-0.047
-359.625	15.345	-0.079	-0.061
-358.610	46.454	-0.270	0.249
-357.596	216.987	0.173	0.273
-356.581	-43.414	-0.139	0.069
-355.566	-81.885	-0.134	-0.043
-354.552	31.106	-0.070	0.060
-353.537	-180.593	0.276	-0.006
-352.523	-157.901	-0.107	0.006
-351.508	291.293	-0.087	-0.157
-350.493	-104.274	0.127	0.029
-349.479	336.484	-0.122	-0.235
-348.464	800.000	0.073	-0.256
-347.450	384.656	0.112	-0.230
-346.435	-51.505	-0.175	-0.081
-345.420	800.000	0.070	-0.278
-344.406	-73.929	0.307	-0.110
-343.391	-67.399	0.120	-0.047
-342.377	73.473	-0.069	-0.072
-341.362	72.859	0.099	0.103
-340.348	-200.000	0.010	-0.221
-339.333	48.793	-0.088	-0.082
-338.318	33.485	0.151	0.130
-337.304	0.603	0.139	-0.099
-336.289	-200.000	-0.061	-0.325
-335.275	-59.166	0.227	-0.097
-334.260	-75.305	-0.146	0.052
-333.245	-2.048	0.400	0.278
-332.231	-2.277	-0.274	-0.191
-331.216	344.370	0.076	-0.147
-330.202	-76.336	0.236	-0.082
-329.187	51.634	-0.273	0.257
-328.172	-100.804	-0.145	0.035
-327.158	-94.197	0.108	-0.029
-326.143	-200.000	0.048	-0.213
-325.129	-169.679	-0.190	-0.007
-324.114	83.036	0.054	-0.058
-323.099	761.378	-0.062	-0.166
-322.085	531.454	0.212	-0.495
-321.070	363.421	0.112	-0.223
-320.056	8.853	-0.312	-0.233
-319.041	122.250	0.154	0.190
-318.026	-79.266	0.273	0.091
-317.012	156.800	-0.040	0.055
-315.997	7.178	-0.249	-0.184
-314.983	8.380	-0.131	0.098
-313.968	-145.653	-0.298	-0.026
-312.953	-148.519	-0.310	-0.025
-311.939	-200.000	0.024	0.236
-310.924	167.233	0.077	-0.108
-309.910	83.222	0.263	0.283
-308.895	125.438	-0.186	0.232
-307.880	12.083	0.298	0.226
-306.866	61.528	-0.295	0.290
-305.851	575.064	-0.090	0.217
-304.837	800.000	0.039	-0.111
-303.822	23.913	0.196	0.160
-302.807	-200.000	0.013	-0.217
-301.793	48.629	0.202	-0.187
-300.778	-155.471	-0.120	-0.008
-299.764	-191.830	0.052	0.001
-298.749	-28.018	-0.085	-0.049
-297.735	-165.940	-0.181	-0.008
-296.720	-156.065	-0.223	0.014
-295.705	-121.706	-0.029	0.005
-294.691	-54.593	0.339	-0.152
-293.676	800.000	0.021	-0.081
-292.662	-27.684	0.184	0.106
-291.647	201.909	0.088	0.134
-290.632	-200.000	0.031	0.147
-289.618	-45.952	0.208	-0.101
-288.603	35.969	-0.116	-0.101
-287.589	-200.000	-0.009	-0.051
-286.574	-200.000	-0.011	0.114
-285.559	-168.547	0.132	0.005
-284.545	800.000	-0.067	-0.259
-283.530	-149.783	-0.590	-0.046
-282.516	-200.000	0.043	0.312
-281.501	85.581	0.183	0.198
-280.486	40.928	0.142	-0.126
-279.472	-200.000	-0.025	0.174
-278.457	-130.582	-0.366	0.049
-277.443	89.129	0.072	0.079
-276.428	43.471	-0.249	0.225
-275.413	-200.000	-0.031	0.385
-274.399	-5.871	0.260	0.176
-273.384	800.000	-0.074	-0.240
-272.370	-162.850	-0.062	0.003
-271.355	-5.830	0.109	-0.074
-270.340	167.112	0.237	-0.332
-269.326	-39.932	0.307	0.158
-268.311	273.762	-0.099	-0.173
-267.297	60.111	-0.061	-0.059
-266.282	9.212	-0.096	-0.072
-265.267	-200.000	-0.518	0.001
-264.253	-16.230	0.140	-0.088
-263.238	-200.000	0.007	0.181
-262.224	53.130	-0.160	0.151
-261.209	5.373	-0.252	-0.184
-260.195	142.280	-0.028	-0.036
-259.180	32.477	0.190	0.162
-258.165	-109.061	-0.332	0.070
-257.151	4.490	0.103	0.075
-256.136	-136.132	-0.260	-0.030
-255.122	-50.909	-0.130	0.060
-254.107	-138.852	0.123	0.013
-253.092	611.877	-0.122	-0.302
-252.078	109.633	0.109	0.129
-251.063	-200.000	-0.002	-0.013
-250.049	-200.000	0.030	-0.261
-249.034	-200.000	-0.024	-0.199
-248.019	14.330	-0.017	-0.013
-247.005	-52.845	0.327	0.149
-245.990	23.905	-0.020	0.016
-244.976	137.135	-0.227	-0.293
-243.961	-137.644	0.246	0.027
-242.946	-73.984	0.287	0.103
-241.932	-150.657	0.065	0.005
-240.917	332.863	-0.127	-0.241
-239.903	-40.647	-0.227	0.116
-238.888	14.817	-0.181	-0.140
-237.873	-110.626	0.215	0.044
-236.859	86.065	0.072	-0.078
-235.844	-23.499	0.061	-0.036
-234.830	-200.000	0.000	-0.250
-233.815	84.280	0.039	-0.042
-232.800	-200.000	0.070	-0.431
-231.786	800.000	-0.057	0.165
-230.771	800.000	0.035	0.145
-229.757	122.057	-0.122	-0.150
-228.742	-200.000	0.034	0.332
-227.727	-92.669	0.123	-0.034
-226.713	-136.274	0.207	0.024
-225.698	9.403	0.202	0.151
-224.684	800.000	-0.012	0.049
-223.669	177.404	-0.057	-0.082
-222.655	-158.789	-0.096	0.005
-221.640	294.538	-0.081	0.146
-220.625	-11.665	0.265	0.172
-219.611	-74.341	0.308	0.110
-218.596	170.384	-0.153	-0.216
-217.582	-175.196	0.131	0.004
-216.567	800.000	-0.061	-0.168
-215.552	-111.809	0.504	-0.100
-214.538	431.829	0.072	0.153
-213.523	-168.356	0.023	-0.001
-212.509	171.741	-0.214	-0.303
-211.494	-10.740	0.253	-0.165
-210.479	-156.798	0.126	-0.008
-209.465	-4.731	-0.071	-0.048
-208.450	265.037	-0.130	-0.222
-207.436	271.238	-0.072	-0.125
-206.421	83.245	0.223	0.240
-205.406	800.000	0.069	-0.212
-204.392	56.794	0.232	0.222
-203.377	800.000	0.098	0.422
-202.363	138.011	0.204	0.264
-201.348	64.627	-0.107	0.106
-200.333	-164.856	0.190	-0.008
-199.319	800.000	0.011	0.047
-198.304	-200.000	-0.014	0.164
-197.290	193.549	-0.150	0.223
-196.275	-43.314	-0.057	0.029
-195.260	26.425	0.135	0.111
-194.246	-200.000	-0.014	-0.095
-193.231	4.749	0.108	-0.078
-192.217	-200.000	-0.009	-0.119
-191.202	30.515	0.072	0.061
-190.187	-200.000	0.006	-0.185
-189.173	82.047	-0.208	-0.222
-188.158	-200.000	0.065	-0.331
-187.144	-79.774	-0.440	0.146
-186.129	444.855	0.109	-0.235
-185.114	-13.878	0.232	-0.148
-184.100	-63.227	-0.205	0.083
-183.085	132.071	0.191	-0.242
-182.071	288.873	-0.128	-0.228
-181.056	42.330	-0.107	-0.096
-180.042	-66.474	0.213	0.083
-179.027	-136.161	-0.028	-0.003
-178.012	-200.000	0.007	0.208
-176.998	-69.513	-0.173	-0.065
-175.983	-200.000	0.029	0.201
-174.969	207.166	-0.112	-0.171
-173.954	-126.942	-0.262	-0.038
-172.939	-150.711	-0.099	-0.007
-171.925	800.000	-0.091	-0.260
-170.910	-200.000	-0.028	0.142
-169.896	-102.637	-0.154	-0.036
-168.881	478.548	-0.036	0.080
-167.866	-200.000	0.007	0.230
-166.852	-14.157	-0.262	-0.166
-165.837	-140.066	0.190	0.020
-164.823	-200.000	-0.020	0.289
-163.808	231.683	0.203	0.327
-162.793	-13.333	0.178	0.113
-161.779	145.106	-0.079	0.103
-160.764	310.191	-0.170	-0.314
-159.750	233.324	0.080	0.130
-158.735	-92.931	0.300	-0.082
-157.720	-75.623	-0.072	-0.025
-156.706	-27.214	0.356	0.204
-155.691	355.367	-0.082	-0.160
-154.677	63.104	0.141	-0.139
-153.662	-54.605	0.356	-0.158
-152.647	378.049	-0.084	-0.169
-151.633	204.822	-0.012	0.018
-150.618	-26.027	0.158	-0.091
-149.604	-64.896	0.155	-0.062
-148.589	-99.898	0.151	0.037
-147.574	-165.567	0.366	-0.016
-146.560	67.624	0.214	0.215
-145.545	-61.167	-0.065	0.027
-144.531	-25.678	-0.146	0.085
-143.516	-91.795	-0.137	-0.038
-142.502	800.000	-0.035	0.110
-141.487	800.000	0.005	0.017
-140.472	-200.000	0.024	-0.113
-139.458	-74.117	-0.061	0.022
-138.443	-80.543	0.276	0.091
-137.429	74.991	0.100	0.103
-136.414	-150.466	-0.222	-0.017
-135.399	-130.329	0.210	0.028
-134.385	800.000	0.053	0.184
-133.370	6.693	0.069	0.051
-132.356	800.000	-0.088	-0.253
-131.341	-36.517	0.190	-0.100
-130.326	140.892	0.055	-0.071
-129.312	529.552	0.148	0.344
-128.297	800.000	0.017	-0.057
-127.283	-188.037	-0.029	0.000
-126.268	-200.000	0.058	-0.295
-125.253	2.480	0.155	-0.110
-124.239	24.962	0.247	-0.201
-123.224	-200.000	-0.025	-0.226
-122.210	668.550	-0.017	-0.043
-121.195	-200.000	0.069	-0.298
-120.180	176.475	-0.239	-0.341
-119.166	226.771	0.181	0.288
-118.151	-200.000	-0.078	0.425
-117.137	-200.000	-0.038	0.168
-116.122	140.234	-0.064	0.083
-115.107	-200.000	0.021	-0.162
-114.093	-93.754	0.459	-0.124
-113.078	-120.675	0.378	-0.063
-112.064	800.000	-0.097	-0.264
-111.049	312.220	0.115	0.212
-110.034	14.682	0.284	0.218
-109.020	800.000	-0.093	-0.293
-108.005	65.204	0.096	0.095
-106.991	75.863	-0.170	0.176
-105.976	-163.013	-0.290	-0.014
-104.962	-200.000	-0.017	0.308
-103.947	118.956	0.102	0.124
-102.932	94.654	0.356	0.397
-101.918	-29.644	-0.162	0.091
-100.903	-61.884	0.078	0.032
-99.889	441.095	-0.097	0.208
-98.874	-56.900	-0.272	0.118
-97.859	318.315	-0.067	0.125
-96.845	227.073	-0.127	0.202
-95.830	-108.561	-0.040	0.008
-94.816	549.961	-0.058	0.138
-93.801	-89.066	-0.232	-0.067
-92.786	-200.000	-0.027	0.246
-91.772	-130.824	0.314	0.041
-90.757	-200.000	0.011	-0.088
-89.743	1.121	0.289	0.203
-88.728	-155.264	0.106	-0.007
-87.713	-83.661	0.092	-0.029
-86.699	-118.076	0.162	0.028
-85.684	15.617	0.153	-0.118
-84.670	470.034	-0.104	0.229
-83.655	800.000	-0.024	0.095
-82.640	437.153	-0.050	0.107
-81.626	-84.871	0.177	0.054
-80.611	-23.533	0.031	0.018
-79.597	2.678	0.192	-0.136
-78.582	94.393	-0.119	-0.133
-77.567	-56.876	-0.165	0.071
-76.553	63.411	0.439	0.431
-75.538	-159.590	-0.103	-0.006
-74.524	292.066	0.079	0.142
-73.509	-78.185	0.224	-0.076
-72.494	-200.000	0.015	-0.362
-71.480	52.499	-0.265	0.248
-70.465	-26.639	0.224	-0.128
-69.451	-114.413	-0.106	0.020
-68.436	27.416	-0.097	-0.080
-67.422	-200.000	0.016	0.252
-66.407	171.135	0.031	-0.044
-65.392	370.153	0.084	-0.167
-64.378	-200.000	0.070	0.312
-63.363	42.922	-0.250	-0.223
-62.349	-200.000	-0.025	0.146
-61.334	139.417	-0.713	-0.919
-60.319	396.922	0.196	0.400
-59.305	306.107	-0.478	-0.871
-58.290	91.767	0.838	0.924
-57.276	536.720	0.632	1.470
-56.261	-200.000	114.363	656.432
-55.246	540.724	1524.461	3556.110
-54.232	178.204	2689.207	3844.075
-53.217	109.101	2150.114	2519.393
-52.203	39.079	1595.743	1397.472
-51.188	30.849	1343.252	1126.771
-50.173	27.838	1305.831	1077.598
-49.159	55.435	1362.949	1291.714
-48.144	53.755	1376.722	1294.630
-47.130	31.089	1331.553	1118.222
-46.115	27.564	1313.958	1082.501
-45.100	27.422	1308.883	1077.441
-44.086	27.440	1306.200	1075.292
-43.071	27.267	1304.575	1072.891
-42.057	27.315	1302.450	1071.388
-41.042	27.267	1301.086	1069.938
-40.027	27.292	1299.326	1068.594
-39.013	27.350	1297.408	1067.315
-37.998	27.359	1295.547	1065.796
-36.984	27.359	1293.936	1064.427
-35.969	27.492	1292.043	1063.605
-34.954	27.390	1290.564	1061.752
-33.940	27.541	1289.212	1061.475
-32.925	27.470	1287.613	1059.704
-31.911	27.519	1286.293	1058.860
-30.896	27.491	1284.907	1057.514
-29.881	27.629	1283.217	1056.885
-28.867	27.668	1281.692	1055.810
-27.852	27.515	1280.786	1054.138
-26.838	27.612	1278.902	1053.105
-25.823	27.601	1277.608	1051.934
-24.809	27.504	1277.069	1050.892
-23.794	27.440	1275.796	1049.434
-22.779	27.504	1273.999	1048.282
-21.765	27.533	1272.736	1047.365
-20.750	27.480	1271.511	1046.010
-19.736	27.381	1270.466	1044.544
-18.721	27.398	1269.377	1043.703
-17.706	27.463	1267.811	1042.748
-16.692	27.461	1266.912	1041.953
-15.677	27.397	1265.869	1040.689
-14.663	27.362	1264.877	1039.632
-13.648	27.407	1263.878	1039.027
-12.633	27.400	1262.475	1037.791
-11.619	27.283	1261.879	1036.595
-10.604	27.423	1261.125	1036.732
-9.590	27.329	1259.879	1035.132
-8.575	27.390	1258.912	1034.643
-7.560	27.324	1258.148	1033.600
-6.546	27.333	1257.195	1032.826
-5.531	27.279	1256.605	1031.996
-4.517	27.399	1255.531	1031.752
-3.502	27.417	1254.534	1030.993
-2.487	27.312	1253.922	1029.854
-1.473	27.329	1249.604	1026.364
-0.458	25.897	1234.643	1006.047
0.556	24.162	1218.217	968.795
1.571	20.526	1224.439	953.747
2.586	19.636	1239.045	960.093
3.600	19.304	1227.468	949.208
4.615	14.927	1155.970	871.092
5.629	7.511	1084.295	780.654
6.644	4.440	1065.658	752.310
7.659	4.001	1063.725	748.755
8.673	3.921	1062.240	747.256
9.688	3.860	1061.012	746.031
10.702	4.332	1058.841	746.710
11.717	9.027	1065.486	774.026
12.731	17.099	1076.960	821.501
13.746	21.988	1082.266	849.186
14.761	22.821	1082.928	853.659
15.775	21.993	1081.719	848.632
16.790	21.125	1080.138	843.124
17.804	20.552	1078.514	839.017
18.819	20.239	1077.848	836.913
19.834	20.345	1077.100	836.769
20.848	20.318	1076.492	836.095
21.863	20.116	1075.537	834.307
22.877	19.961	1074.704	832.841
23.892	19.981	1074.211	832.482
24.907	19.806	1073.584	831.078
25.921	19.802	1072.389	830.062
26.936	19.794	1070.891	828.790
27.950	19.933	1069.132	828.023
28.965	19.919	1068.359	827.281
29.980	20.000	1067.362	826.826
30.994	20.277	1066.164	827.143
32.009	20.289	1064.947	826.186
33.023	20.138	1064.645	825.158
34.038	20.072	1062.938	823.447
35.053	20.003	1062.213	822.488
36.067	19.857	1061.227	820.959
37.082	19.930	1060.781	820.884
38.096	20.126	1060.013	821.148
39.111	20.011	1059.555	820.176
40.126	19.881	1057.689	818.043
41.140	19.519	1056.187	815.101
42.155	19.365	1054.891	813.303
43.169	19.292	1053.982	812.186
44.184	19.405	1052.504	811.505
45.199	19.373	1051.987	810.884
46.213	19.633	1051.449	811.621
47.228	19.826	1050.619	811.813
48.242	19.999	1049.447	811.646
49.257	19.931	1048.518	810.541
50.271	20.021	1048.000	810.489
51.286	20.107	1047.110	810.132
52.301	20.089	1046.040	809.144
53.315	19.935	1044.947	807.510
54.330	19.723	1043.640	805.441
55.344	19.621	1043.194	804.553
56.359	19.674	1042.348	804.073
57.374	19.489	1041.544	802.522
58.388	19.413	1039.941	800.865
59.403	19.381	1039.662	800.428
60.417	19.349	1038.983	799.686
61.432	19.367	1037.838	798.816
62.447	19.164	1037.102	797.240
63.461	19.095	1036.370	796.291
64.476	19.075	1034.925	795.017
65.490	19.135	1034.419	794.832
66.505	19.232	1033.724	794.676
67.520	19.185	1033.102	793.913
68.534	19.254	1032.215	793.479
69.549	19.168	1031.573	792.518
70.563	19.080	1030.494	791.216
71.578	18.923	1029.592	789.732
72.593	18.804	1029.095	788.733
73.607	18.867	1028.543	788.529
74.622	18.785	1028.084	787.730
75.636	19.023	1026.944	787.880
76.651	19.014	1026.365	787.322
77.666	19.076	1025.888	787.172
78.680	18.941	1025.534	786.212
79.695	19.136	1024.575	786.299
80.709	19.358	1024.009	786.810
81.724	19.401	1023.705	786.702
82.739	19.574	1022.879	786.786
83.753	19.983	1022.715	788.452
84.768	20.168	1022.563	789.105
85.782	20.471	1021.062	789.254
86.797	20.363	1020.462	788.234
87.812	20.101	1019.081	785.908
88.826	20.142	1018.087	785.259
89.841	20.312	1017.208	785.280
90.855	20.394	1016.731	785.213
91.870	20.201	1016.492	784.086
92.884	20.384	1015.234	783.873
93.899	20.316	1014.006	782.548
94.914	20.358	1013.073	781.946
95.928	20.253	1012.379	780.871
96.943	20.096	1011.640	779.523
97.957	20.057	1010.641	778.511
98.972	20.196	1009.381	778.096
99.987	20.150	1008.941	777.483
101.001	20.177	1007.849	776.694
102.016	20.098	1006.917	775.550
103.030	20.208	1006.012	775.278
104.045	20.182	1005.587	774.767
105.060	20.013	1004.266	772.924
106.074	19.710	1003.147	770.643
107.089	19.391	1002.085	768.339
108.103	19.333	1000.887	767.095
109.118	19.168	999.824	765.480
110.133	19.222	998.682	764.778
111.147	19.105	997.943	763.624
112.162	19.301	997.046	763.739
113.176	19.529	996.487	764.251
114.191	19.471	996.173	763.689
115.206	19.486	995.197	762.936
116.220	19.425	994.049	761.723
117.235	19.215	993.489	760.298
118.249	19.442	991.945	760.050
119.264	19.220	991.537	758.691
120.279	19.099	990.716	757.462
121.293	19.123	989.506	756.579
122.308	18.954	988.704	755.153
123.322	18.891	987.869	754.172
124.337	18.751	987.303	753.060
125.352	18.736	986.326	752.182
126.366	18.843	984.915	751.510
127.381	18.998	983.877	751.329
128.395	19.032	983.183	750.882
129.410	19.054	982.307	750.242
130.424	19.135	982.106	750.373
131.439	19.350	981.155	750.516
132.454	19.289	980.648	749.795
133.468	19.290	979.867	749.135
134.483	19.439	978.826	748.921
135.497	19.459	977.854	748.197
136.512	19.528	976.959	747.748
137.527	19.552	975.900	746.976
138.541	19.394	975.693	746.066
139.556	19.481	975.158	745.966
140.570	19.833	974.254	746.728
141.585	19.977	973.599	746.782
142.600	20.106	972.656	746.547
143.614	20.256	972.043	746.656
144.629	20.305	970.886	745.914
145.643	19.936	971.045	744.382
146.658	19.889	969.100	742.626
147.673	19.758	968.316	741.395
148.687	19.613	966.888	739.616
149.702	19.541	965.745	738.370
150.716	19.440	965.356	737.574
151.731	19.669	964.474	737.813
152.746	19.648	964.079	737.358
153.760	19.630	963.185	736.530
154.775	19.868	962.835	737.212
155.789	19.941	962.115	736.904
156.804	19.877	961.692	736.246
157.819	20.020	961.117	736.347
158.833	20.071	960.560	736.070
159.848	20.274	960.025	736.458
160.862	20.091	958.702	734.603
161.877	19.587	957.535	731.509
162.892	19.424	955.828	729.451
163.906	19.447	955.026	728.871
164.921	19.417	954.338	728.156
165.935	19.391	953.806	727.575
166.950	19.687	952.593	727.832
167.964	19.637	951.923	727.048
168.979	19.467	950.862	725.456
169.994	19.657	949.684	725.290
171.008	19.596	949.642	724.941
172.023	20.050	948.983	726.278
173.037	20.132	948.460	726.154
174.052	20.009	947.288	724.681
175.067	19.438	946.480	721.609
176.081	19.387	945.630	720.685
177.096	19.368	945.048	720.100
178.110	19.567	944.502	720.449
179.125	19.343	944.409	719.379
180.140	19.637	943.477	719.832
181.154	19.837	943.420	720.556
182.169	19.961	943.061	720.734
183.183	20.101	942.191	720.589
184.198	20.104	941.089	719.693
185.213	20.084	941.000	719.481
186.227	20.063	940.129	718.663
187.242	20.142	940.023	718.847
188.256	20.384	939.480	719.367
189.271	20.356	938.581	718.503
190.286	19.869	937.235	715.395
191.300	19.392	935.874	712.322
192.315	19.206	934.935	710.777
193.329	19.319	934.954	711.195
194.344	19.635	933.940	711.663
195.359	19.739	933.873	711.979
196.373	19.819	933.705	712.115
197.388	20.041	933.207	712.585
198.402	20.243	932.806	713.045
199.417	20.346	932.397	713.095
200.432	20.538	932.085	713.582
201.446	20.656	931.468	713.529
202.461	20.863	930.711	713.737
203.475	20.606	929.920	712.014
204.490	20.273	928.811	709.738
205.504	20.129	928.198	708.617
206.519	20.208	927.101	708.043
207.534	19.970	926.566	706.598
208.548	20.090	926.309	706.829
209.563	20.093	925.740	706.344
210.577	20.173	925.105	706.125
211.592	20.516	924.182	706.753
212.607	20.627	923.605	706.700
213.621	20.509	922.506	705.318
214.636	20.259	922.184	703.993
215.650	20.422	921.388	703.986
216.665	20.495	921.181	704.062
217.680	20.554	920.445	703.673
218.694	20.685	919.756	703.615
219.709	20.571	919.162	702.640
220.723	20.655	917.827	701.895
221.738	20.490	917.110	700.617
222.753	20.371	916.958	699.959
223.767	20.608	916.617	700.594
224.782	20.688	916.270	700.590
225.796	20.731	915.511	700.119
226.811	20.718	914.532	699.258
227.826	20.498	913.859	697.798
228.840	20.527	912.725	696.986
229.855	20.395	912.068	695.891
230.869	20.358	911.561	695.296
231.884	20.250	910.700	694.145
232.899	20.198	910.146	693.453
233.913	20.038	909.279	692.093
234.928	20.023	908.584	691.443
235.942	19.928	908.070	690.613
236.957	20.042	907.133	690.290
237.972	20.058	906.546	689.848
238.986	20.141	905.704	689.478
240.001	20.060	905.575	688.996
241.015	20.053	905.504	688.851
242.030	20.287	904.398	688.881
243.045	20.349	904.061	688.809
244.059	20.314	903.664	688.306
245.074	20.511	902.788	688.358
246.088	20.463	902.421	687.828
247.103	20.856	901.661	688.740
248.117	20.829	901.680	688.587
249.132	21.197	901.419	689.784
250.147	21.416	901.346	690.532
251.161	21.459	900.477	689.971
252.176	21.517	899.946	689.732
253.190	21.572	899.481	689.534
254.205	21.552	898.984	689.012
255.220	21.545	897.796	688.014
256.234	21.417	897.077	686.897
257.249	21.545	896.580	686.961
258.263	21.414	895.606	685.640
259.278	21.424	895.237	685.336
260.293	21.562	894.686	685.393
261.307	21.600	894.351	685.225
262.322	21.620	893.644	684.700
263.336	21.749	892.542	684.298
264.351	21.587	892.182	683.331
265.366	21.704	891.328	683.071
266.380	21.729	890.414	682.408
267.395	21.578	889.555	681.104
268.409	21.446	889.001	680.104
269.424	21.307	888.780	679.335
270.439	21.429	887.443	678.724
271.453	21.275	886.745	677.537
272.468	21.175	886.456	676.865
273.482	21.157	886.008	676.395
274.497	21.152	885.326	675.796
275.512	21.202	884.454	675.264
276.526	21.174	884.487	675.121
277.541	21.187	884.122	674.833
278.555	21.705	883.201	676.070
279.570	21.734	883.119	676.057
280.585	21.881	881.891	675.625
281.599	21.467	881.159	673.410
282.614	21.196	880.549	671.844
283.628	21.392	879.639	671.841
284.643	21.270	879.012	670.837
285.657	21.266	878.599	670.445
286.672	21.398	877.363	669.949
287.687	21.290	877.420	669.518
288.701	21.567	876.665	669.945
289.716	21.501	876.043	669.156
290.730	21.458	875.948	668.860
291.745	21.335	875.396	667.909
292.760	21.639	874.725	668.500
293.774	21.819	874.285	668.791
294.789	21.581	873.663	667.348
295.803	21.434	872.605	665.923
296.818	21.433	871.686	665.157
297.833	21.329	871.576	664.621
298.847	21.534	870.839	664.776
299.862	21.477	870.135	663.964
300.876	21.534	870.013	664.030
301.891	21.830	869.818	664.945
302.906	21.914	869.666	665.088
303.920	22.177	868.551	665.170
304.935	22.171	868.233	664.847
305.949	22.045	867.340	663.628
306.964	21.797	866.529	662.013
307.979	21.722	866.286	661.485
308.993	21.950	865.589	661.754
310.008	21.898	865.175	661.182
311.022	21.920	864.343	660.570
312.037	21.732	863.221	658.950
313.052	21.358	862.957	657.284
314.066	21.320	862.034	656.378
315.081	21.213	861.145	655.242
316.095	21.262	861.071	655.313
317.110	21.388	860.436	655.244
318.125	21.283	859.922	654.401
319.139	21.194	859.731	653.862
320.154	21.400	858.916	653.958
321.168	21.520	858.242	653.835
322.183	21.565	857.903	653.687
323.197	21.717	857.335	653.764
324.212	21.514	856.889	652.609
325.227	21.388	856.377	651.689
326.241	21.458	855.618	651.315
327.256	21.416	854.866	650.529
328.270	21.309	854.621	649.887
329.285	21.275	853.975	649.213
330.300	21.441	853.202	649.181
331.314	21.420	852.982	648.882
332.329	21.682	852.536	649.455
333.343	21.915	852.434	650.181
334.358	21.885	852.034	649.710
335.373	21.635	851.729	648.494
336.387	21.789	851.319	648.694
337.402	22.078	851.250	649.652
338.416	22.235	851.080	650.046
339.431	22.384	850.459	650.063
340.446	22.548	850.186	650.403
341.460	22.449	850.086	649.903
342.475	22.356	849.648	649.170
343.489	22.489	849.296	649.332
344.504	22.630	848.783	649.403
345.519	22.709	848.216	649.203
346.533	22.487	847.386	647.694
347.548	22.257	846.495	646.110
348.562	21.922	846.002	644.446
349.577	21.771	845.286	643.289
350.592	21.716	844.407	642.363
351.606	21.773	843.422	641.764
352.621	21.823	843.139	641.676
353.635	21.872	842.553	641.354
354.650	22.031	841.778	641.285
355.665	22.081	841.089	640.888
356.679	22.266	840.431	641.002
357.694	22.218	839.935	640.393
358.708	22.024	839.779	639.512
359.723	22.181	839.032	639.457
360.738	22.161	838.205	638.699
361.752	22.189	837.586	638.273
362.767	22.518	837.139	639.067
363.781	22.560	837.248	639.246
364.796	22.884	836.601	639.871
365.810	22.879	836.582	639.781
366.825	23.062	836.344	640.206
367.840	22.949	835.217	638.876
368.854	22.637	834.576	637.203
369.869	22.362	834.456	636.063
370.883	22.590	833.937	636.433
371.898	22.817	833.437	636.812
372.913	22.944	833.206	637.039
373.927	22.713	832.561	635.658
374.942	22.595	832.198	634.898
375.956	22.691	831.947	634.995
376.971	22.931	831.423	635.403
377.986	23.086	830.786	635.419
379.000	23.078	830.625	635.208
380.015	22.913	829.786	633.918
381.029	22.961	829.386	633.729
382.044	22.958	829.119	633.460
383.059	23.141	827.821	633.068
384.073	22.875	827.176	631.567
385.088	22.590	826.268	629.800
386.102	22.536	825.711	629.127
387.117	22.372	825.251	628.135
388.132	22.613	824.297	628.211
389.146	22.714	824.139	628.394
390.161	22.829	824.030	628.668
391.175	23.024	823.632	628.999
392.190	22.768	822.534	627.195
393.205	22.523	822.013	625.875
394.219	22.411	822.157	625.529
395.234	22.386	821.311	624.743
396.248	22.214	820.705	623.616
397.263	22.300	820.349	623.595
398.278	22.241	819.836	622.940
399.292	22.321	819.251	622.725
400.307	22.419	818.590	622.512
401.321	22.554	817.834	622.362
402.336	22.479	818.061	622.213
403.350	22.570	817.912	622.368
404.365	22.801	817.558	622.858
405.380	23.051	816.941	623.213
406.394	23.193	816.707	623.480
407.409	23.176	816.365	623.104
408.423	23.181	816.178	622.924
409.438	23.421	815.773	623.404
410.453	23.464	815.353	623.179
411.467	23.369	814.858	622.411
412.482	23.451	814.586	622.436
413.496	23.590	814.520	622.819
414.511	23.574	813.596	622.000
415.526	23.415	813.148	621.045
416.540	23.402	812.551	620.491
417.555	23.419	811.904	620.001
418.569	23.416	811.528	619.649
419.584	23.508	811.008	619.517
420.599	23.390	810.884	618.956
421.613	164.782	1372.483	1798.062
422.628	143.539	1454.293	1798.138
