DTS Sentinel unit serial number:	SN413079Multiplexer serial number:	ORYXHardware model number:	OX4-SRSoftware version number:	ORYX F/W v4.00 Oryx Data Collector v3.7.2.0data status	okinstallation	princeton_trtdifferential loss correction	single-endedforward channel	channel 1reverse channel	N/Adate	2019/09/12time	18:55:34forward acquisition time	15.00reverse acquisition time	0.00gamma	496.2192k internal	0.2319k external	0.2319temperature offset calibration	1.0115default loss term (dB/km)	0.3790temperature slope calibration	1.0000multiplexer offset coefficient	1.0000multiplexer slope coefficient	1.0000fibre end	0.00T internal ref (°C)	32.81T ext. ref 1 (°C)	3.03T ext. ref 2 (°C)	27.41length (m)	temperature (°C)	Stokes	anti-Stokes-747.200	-135.813	-0.377	-0.045
-746.185	800.000	-0.276	-1.021
-745.171	96.011	0.238	-0.275
-744.156	-156.290	0.777	-0.049
-743.142	-34.889	-0.582	-0.322
-742.127	-200.000	-0.017	-0.916
-741.112	4.305	-0.253	0.187
-740.098	26.259	0.064	0.054
-739.083	800.000	-0.134	-0.377
-738.069	-200.000	-0.847	0.003
-737.054	-53.135	0.021	-0.010
-736.039	-21.073	-0.345	-0.214
-735.025	41.288	0.311	0.285
-734.010	-200.000	-0.041	0.813
-732.996	322.187	-0.144	-0.277
-731.981	-101.908	-0.446	0.109
-730.966	-200.000	-0.008	-1.070
-729.952	583.209	-0.294	-0.731
-728.937	-66.932	-0.426	-0.170
-727.923	-44.844	0.616	0.311
-726.908	800.000	0.179	-0.709
-725.894	-121.594	-0.343	-0.058
-724.879	-200.000	-0.024	-0.366
-723.864	-138.214	0.510	0.057
-722.850	105.506	-0.218	-0.261
-721.835	293.615	-0.226	0.417
-720.821	-200.000	-0.044	0.411
-719.806	-200.000	0.128	0.648
-718.791	728.769	0.250	0.674
-717.777	-158.876	0.461	-0.027
-716.762	-200.000	-0.042	0.498
-715.748	-175.333	-0.712	-0.020
-714.733	-200.000	-0.019	-0.676
-713.718	-39.499	-0.076	-0.040
-712.704	800.000	-0.324	-1.023
-711.689	-101.015	-0.448	0.111
-710.675	-48.284	0.554	0.270
-709.660	-37.015	0.351	-0.190
-708.645	74.666	0.282	0.300
-707.631	-50.778	0.699	0.332
-706.616	-9.864	-0.262	0.176
-705.602	-60.758	-0.436	-0.187
-704.587	800.000	0.212	-0.847
-703.572	-200.000	0.237	1.216
-702.558	84.378	0.277	0.306
-701.543	-53.695	0.096	0.044
-700.529	150.714	-0.352	-0.483
-699.514	800.000	0.127	0.380
-698.499	-129.267	-1.118	0.157
-697.485	483.793	0.063	-0.144
-696.470	-41.335	0.310	-0.161
-695.456	-140.249	0.469	-0.050
-694.441	46.871	-0.345	0.324
-693.426	34.418	-0.454	0.400
-692.412	-49.024	0.149	0.072
-691.397	0.897	-0.230	0.166
-690.383	498.323	-0.264	0.614
-689.368	344.704	-0.535	1.060
-688.354	-32.478	0.499	0.281
-687.339	30.288	0.354	0.305
-686.324	153.170	-0.234	-0.324
-685.310	278.207	-0.192	-0.345
-684.295	177.275	-0.628	-0.923
-683.281	120.014	0.533	-0.667
-682.266	-67.794	-0.797	0.315
-681.251	-91.046	-0.931	-0.270
-680.237	-129.519	0.908	-0.127
-679.222	-35.031	-0.238	-0.131
-678.208	-5.450	0.480	0.333
-677.193	-139.919	-0.965	0.103
-676.178	-82.540	-0.878	-0.287
-675.164	72.623	0.502	-0.528
-674.149	-152.623	-0.167	-0.012
-673.135	-82.553	-0.529	0.173
-672.120	800.000	0.070	-0.223
-671.105	-200.000	-0.005	-0.685
-670.091	-64.641	0.875	0.358
-669.076	-35.998	-0.256	0.139
-668.062	-6.820	0.126	-0.086
-667.047	-151.543	0.347	-0.026
-666.032	-200.000	-0.062	-0.283
-665.018	800.000	0.277	1.055
-664.003	117.472	0.079	0.098
-662.989	132.451	0.644	-0.837
-661.974	25.067	-0.046	-0.038
-660.959	800.000	0.186	-0.619
-659.945	-83.116	-0.629	0.204
-658.930	44.934	-1.106	-1.027
-657.916	-99.396	-0.781	0.198
-656.901	-191.690	-0.572	-0.006
-655.886	167.200	0.505	0.723
-654.872	127.823	-0.307	0.393
-653.857	-169.404	0.706	0.026
-652.843	7.605	0.350	0.264
-651.828	116.507	-0.520	-0.643
-650.814	-37.599	0.144	-0.078
-649.799	-200.000	0.022	-0.768
-648.784	-47.831	0.088	0.043
-647.770	-30.580	0.797	-0.455
-646.755	182.872	-0.162	0.241
-645.741	-32.256	-0.450	-0.253
-644.726	763.448	-0.257	0.702
-643.711	94.505	-0.266	0.304
-642.697	-200.000	0.017	-0.162
-641.682	-63.858	-0.752	-0.310
-640.668	-8.823	0.254	-0.172
-639.653	-107.581	1.180	0.260
-638.638	800.000	-0.116	-0.351
-637.624	85.978	-0.291	-0.323
-636.609	-60.191	-0.325	-0.140
-635.595	73.576	-0.313	0.330
-634.580	8.152	-0.510	-0.386
-633.565	-190.520	0.131	-0.001
-632.551	59.034	0.741	-0.735
-631.536	-174.427	-0.959	0.028
-630.522	1.648	-0.480	0.348
-629.507	-9.910	-0.486	-0.326
-628.492	-145.481	0.365	-0.033
-627.478	-106.272	-1.083	0.244
-626.463	-17.461	-1.012	-0.641
-625.449	-200.000	0.243	-1.079
-624.434	-200.000	0.017	0.970
-623.419	29.767	-0.533	-0.457
-622.405	675.580	0.265	0.693
-621.390	800.000	-0.167	0.494
-620.376	214.499	0.223	0.355
-619.361	-200.000	0.130	0.814
-618.346	-200.000	0.021	-0.684
-617.332	-88.553	-0.441	-0.132
-616.317	-200.000	0.063	0.775
-615.303	201.025	0.146	0.226
-614.288	-100.890	0.536	0.133
-613.273	-79.152	-0.516	0.176
-612.259	-41.869	-1.205	-0.622
-611.244	103.557	-0.088	0.104
-610.230	394.650	0.206	-0.432
-609.215	-56.208	-0.332	0.149
-608.201	-200.000	0.132	1.089
-607.186	-81.944	0.617	-0.203
-606.171	-200.000	-0.058	0.450
-605.157	462.720	-0.498	1.119
-604.142	-66.623	-1.165	0.465
-603.128	-95.288	-0.243	-0.066
-602.113	29.042	0.452	-0.386
-601.098	-115.586	-0.781	-0.148
-600.084	16.386	0.336	0.267
-599.069	-200.000	0.063	0.753
-598.055	-80.334	-0.287	0.097
-597.040	38.074	0.557	-0.498
-596.025	-55.935	0.515	0.231
-595.011	143.110	-0.415	0.556
-593.996	-70.964	-0.392	0.149
-592.982	-200.000	-0.035	0.217
-591.967	379.860	0.182	0.375
-590.952	-200.000	-0.117	-0.583
-589.938	456.109	-0.343	-0.766
-588.923	12.896	-0.445	-0.346
-587.909	-59.704	0.395	-0.170
-586.894	243.633	0.238	0.401
-585.879	23.803	-0.413	0.342
-584.865	-77.766	0.268	-0.093
-583.850	-200.000	0.047	-0.261
-582.836	-90.448	-0.512	0.149
-581.821	-118.424	-0.839	-0.150
-580.806	521.628	0.382	0.901
-579.792	602.850	0.119	-0.298
-578.777	-200.000	-0.012	0.458
-577.763	-175.090	0.891	-0.025
-576.748	117.618	-0.091	0.112
-575.733	244.592	0.479	-0.809
-574.719	800.000	0.181	-0.616
-573.704	43.872	-0.232	0.214
-572.690	220.565	0.181	0.291
-571.675	175.766	-0.159	0.232
-570.661	800.000	0.145	0.546
-569.646	800.000	0.072	-0.212
-568.631	-21.106	0.518	0.318
-567.617	-86.202	-0.120	-0.037
-566.602	-36.619	-0.396	-0.214
-565.588	16.267	0.237	0.188
-564.573	-44.944	0.255	-0.128
-563.558	286.277	0.289	-0.524
-562.544	70.483	-0.240	-0.249
-561.529	634.478	-0.136	0.347
-560.515	75.711	0.613	0.651
-559.500	29.527	0.159	0.136
-558.485	-200.000	0.044	-0.238
-557.471	-200.000	-0.091	0.477
-556.456	526.735	0.068	0.162
-555.442	-69.479	-0.373	-0.144
-554.427	-200.000	-0.112	0.499
-553.412	194.758	0.166	-0.253
-552.398	-129.772	0.534	0.074
-551.383	11.554	0.131	-0.101
-550.369	-46.158	0.505	-0.250
-549.354	-200.000	0.012	1.291
-548.339	49.837	0.226	0.214
-547.325	-43.697	-0.651	-0.330
-546.310	776.015	0.019	-0.051
-545.296	137.541	-0.182	-0.239
-544.281	-39.522	0.176	0.093
-543.266	187.461	0.162	0.242
-542.252	-139.091	0.738	-0.080
-541.237	738.912	0.199	0.535
-540.223	-200.000	0.055	0.472
-539.208	95.588	-0.283	0.324
-538.193	-88.977	-0.291	0.087
-537.179	800.000	0.138	0.393
-536.164	-127.436	0.271	-0.040
-535.150	-49.262	-1.570	0.753
-534.135	-200.000	-0.210	0.962
-533.121	-21.781	-0.113	-0.069
-532.106	800.000	-0.132	0.562
-531.091	-111.601	-0.387	-0.079
-530.077	800.000	-0.127	-0.476
-529.062	-90.477	0.282	-0.082
-528.048	-200.000	-0.090	0.479
-527.033	-26.504	-0.991	0.582
-526.018	37.986	-0.497	-0.444
-525.004	800.000	-0.164	-0.644
-523.989	-200.000	0.077	0.747
-522.975	124.937	0.754	0.953
-521.960	-117.497	-0.633	0.115
-520.945	-118.127	-0.253	-0.045
-519.931	-200.000	-0.052	0.519
-518.916	-200.000	-0.002	0.386
-517.902	-183.048	0.724	-0.013
-516.887	800.000	-0.128	0.442
-515.872	38.512	-0.827	-0.739
-514.858	-200.000	0.038	0.540
-513.843	-53.465	-1.039	-0.477
-512.829	-200.000	0.046	0.519
-511.814	-200.000	0.001	-0.005
-510.799	-34.578	0.085	-0.047
-509.785	221.354	0.155	-0.250
-508.770	-135.406	-1.656	0.198
-507.756	-16.742	-0.265	-0.168
-506.741	-58.328	0.798	-0.348
-505.726	-106.676	0.894	0.199
-504.712	-113.269	0.298	0.059
-503.697	-200.000	0.070	0.442
-502.683	-4.176	-0.343	0.238
-501.668	13.050	0.374	-0.290
-500.653	-200.000	-0.005	-0.053
-499.639	279.899	0.527	0.944
-498.624	800.000	0.179	0.682
-497.610	-36.428	-0.302	-0.163
-496.595	-200.000	-0.013	0.322
-495.581	5.414	0.812	-0.601
-494.566	-24.233	0.342	0.205
-493.551	126.746	0.686	-0.871
-492.537	6.909	-0.296	0.221
-491.522	-200.000	0.150	-0.689
-490.508	736.987	0.249	-0.668
-489.493	-200.000	0.024	-0.224
-488.478	174.691	-0.182	-0.264
-487.464	12.328	-0.398	-0.307
-486.449	-76.373	-0.660	0.233
-485.435	-200.000	0.105	-0.663
-484.420	-200.000	0.056	-0.495
-483.405	-200.000	-0.026	0.223
-482.391	800.000	-0.282	0.963
-481.376	-107.056	0.258	0.057
-480.362	800.000	-0.141	-0.488
-479.347	-200.000	0.072	0.848
-478.332	298.939	0.382	-0.705
-477.318	62.200	-0.473	0.473
-476.303	-9.017	-0.180	-0.121
-475.289	419.670	0.490	-1.050
-474.274	551.806	0.333	0.801
-473.259	-0.691	-0.249	-0.177
-472.245	166.170	0.342	-0.485
-471.230	-200.000	-0.112	-0.527
-470.216	-81.711	-0.983	-0.323
-469.201	-118.023	0.941	0.168
-468.186	-81.473	0.559	-0.184
-467.172	719.114	0.224	-0.597
-466.157	416.196	0.073	0.155
-465.143	163.729	-0.345	-0.486
-464.128	159.003	0.179	0.249
-463.113	-200.000	0.089	-0.924
-462.099	-200.000	0.009	0.119
-461.084	-5.517	-0.434	-0.298
-460.070	277.293	0.429	-0.764
-459.055	-84.628	-0.914	-0.288
-458.040	-200.000	0.056	0.420
-457.026	25.997	0.548	0.457
-456.011	39.780	0.289	-0.259
-454.997	800.000	0.431	-1.406
-453.982	-44.647	0.403	-0.201
-452.968	-111.922	-0.487	-0.098
-451.953	-43.794	-0.277	0.140
-450.938	-137.175	1.000	0.114
-449.924	-80.253	0.320	-0.107
-448.909	-92.841	0.174	0.049
-447.895	800.000	-0.129	0.398
-446.880	-81.268	-0.607	0.200
-445.865	-200.000	-0.051	-0.414
-444.851	-188.673	1.106	0.014
-443.836	567.094	-0.118	0.287
-442.822	575.674	0.174	-0.425
-441.807	-14.780	-0.286	-0.184
-440.792	-110.364	-0.628	0.130
-439.778	-200.000	-0.071	-0.332
-438.763	-65.096	-0.468	0.189
-437.749	-100.766	-0.188	0.046
-436.734	-45.572	0.232	-0.115
-435.719	-200.000	0.014	0.514
-434.705	800.000	0.122	-0.524
-433.690	10.110	0.272	0.207
-432.676	54.789	-0.509	0.491
-431.661	-200.000	0.013	-0.138
-430.646	-170.627	-0.798	-0.028
-429.632	-20.359	0.518	0.318
-428.617	606.594	0.201	0.501
-427.603	800.000	-0.198	-0.586
-426.588	55.137	0.071	-0.069
-425.573	-22.929	-0.617	-0.372
-424.559	-200.000	0.003	0.138
-423.544	32.778	-0.749	0.648
-422.530	-200.000	0.107	0.641
-421.515	83.643	-0.313	0.341
-420.500	-81.330	-0.635	0.209
-419.486	800.000	-0.246	-0.819
-418.471	800.000	0.046	0.153
-417.457	-60.343	0.257	0.109
-416.442	-200.000	-0.087	1.055
-415.428	559.307	0.378	-0.910
-414.413	261.570	-0.094	-0.162
-413.398	-46.035	-0.388	0.191
-412.384	-156.420	0.103	-0.006
-411.369	39.427	0.706	-0.632
-410.355	-132.007	-0.670	0.087
-409.340	-200.000	0.134	0.627
-408.325	-45.952	0.422	-0.208
-407.311	5.331	-0.566	-0.417
-406.296	-29.508	-0.426	0.243
-405.282	101.228	-0.139	0.162
-404.267	-162.181	0.317	0.016
-403.252	800.000	0.039	0.130
-402.238	-131.535	-0.866	0.114
-401.223	-76.235	-0.251	0.088
-400.209	-136.242	0.885	0.103
-399.194	228.565	0.179	-0.291
-398.179	85.084	0.516	-0.565
-397.165	135.637	0.403	0.523
-396.150	20.953	0.970	-0.785
-395.136	-1.061	-0.380	-0.268
-394.121	-96.988	-0.422	-0.110
-393.106	133.493	-0.427	-0.551
-392.092	-50.220	-0.562	0.265
-391.077	-200.000	-0.091	-0.957
-390.063	39.853	-0.683	0.612
-389.048	391.703	-0.257	-0.534
-388.033	800.000	0.185	0.703
-387.019	41.579	0.361	0.326
-386.004	-200.000	0.016	0.241
-384.990	638.528	-0.178	0.452
-383.975	-118.306	0.470	0.083
-382.960	-81.724	0.471	0.154
-381.946	-78.158	-0.256	-0.088
-380.931	-86.451	-0.753	-0.231
-379.917	-30.990	-0.186	0.105
-378.902	-22.133	0.663	0.401
-377.888	-2.093	-0.739	-0.518
-376.873	-200.000	-0.005	-0.879
-375.858	26.178	-0.654	0.545
-374.844	-33.670	-1.076	-0.592
-373.829	23.347	-0.413	0.339
-372.815	-45.603	0.445	-0.220
-371.800	-36.445	0.658	0.353
-370.785	404.706	0.301	0.631
-369.771	-113.832	0.603	0.117
-368.756	218.163	0.157	0.250
-367.742	69.517	0.740	-0.760
-366.727	-200.000	0.132	1.157
-365.712	-17.318	-0.286	0.180
-364.698	-130.129	0.148	0.020
-363.683	-200.000	-0.112	-0.961
-362.669	-74.407	-0.592	0.213
-361.654	-102.808	0.515	0.122
-360.639	-111.101	0.080	-0.016
-359.625	-200.000	-0.106	-0.758
-358.610	800.000	0.277	-0.835
-357.596	162.575	0.079	0.111
-356.581	-111.332	-0.480	-0.098
-355.566	144.676	0.267	0.355
-354.552	-175.801	0.398	-0.011
-353.537	115.608	0.354	0.431
-352.523	81.063	0.409	-0.440
-351.508	-56.571	0.792	0.350
-350.493	737.876	-0.199	-0.531
-349.479	18.099	0.229	-0.182
-348.464	316.168	-0.215	-0.404
-347.450	-132.740	0.207	-0.026
-346.435	172.316	0.278	0.398
-345.420	-80.330	0.704	-0.234
-344.406	-79.311	-0.101	0.034
-343.391	53.244	0.198	0.189
-342.377	-70.114	-0.418	-0.158
-341.362	131.504	0.140	-0.179
-340.348	800.000	-0.193	-0.684
-339.333	-200.000	-0.205	-0.981
-338.318	-58.556	-0.629	-0.272
-337.304	-105.106	-0.206	0.047
-336.289	-72.803	-0.189	0.069
-335.275	92.168	0.449	-0.504
-334.260	197.747	-0.184	0.280
-333.245	-30.754	-0.807	0.454
-332.231	-200.000	0.000	-0.644
-331.216	-96.777	0.466	0.122
-330.202	-98.198	1.116	-0.285
-329.187	-125.491	0.267	0.040
-328.172	-50.673	0.798	-0.374
-327.158	116.411	-0.182	-0.223
-326.143	800.000	-0.083	0.319
-325.129	540.559	0.123	0.293
-324.114	22.497	-0.355	-0.289
-323.099	60.024	0.333	0.327
-322.085	-200.000	0.025	0.356
-321.070	-12.518	0.791	-0.514
-320.056	-125.445	-0.841	0.127
-319.041	-106.715	-0.147	0.033
-318.026	-200.000	0.035	-0.405
-317.012	800.000	-0.173	0.710
-315.997	-30.061	-0.429	0.243
-314.983	-71.909	-0.296	-0.110
-313.968	458.074	0.379	0.839
-312.953	-200.000	-0.131	0.640
-311.939	-126.311	-0.341	0.051
-310.924	47.757	0.479	-0.445
-309.910	47.192	-0.109	0.101
-308.895	-87.546	0.535	-0.161
-307.880	289.130	0.104	-0.188
-306.866	-200.000	-0.024	0.165
-305.851	-200.000	-0.094	-0.582
-304.837	-72.393	-0.405	0.149
-303.822	-34.322	-0.202	-0.110
-302.807	30.702	0.336	0.286
-301.793	-76.963	-0.101	0.035
-300.778	800.000	0.170	0.638
-299.764	-104.296	-0.086	-0.020
-298.749	35.454	-0.341	-0.298
-297.735	49.238	0.237	-0.221
-296.720	528.820	0.077	0.181
-295.705	-200.000	0.022	-0.148
-294.691	-200.000	-0.007	0.137
-293.676	-79.020	0.126	-0.043
-292.662	141.397	-0.368	-0.484
-291.647	-95.404	-0.308	0.082
-290.632	-200.000	0.034	0.272
-289.618	348.765	-0.546	-1.072
-288.603	800.000	-0.147	-0.502
-287.589	165.753	-0.345	0.486
-286.574	-41.567	-0.270	0.138
-285.559	181.429	-0.317	0.464
-284.545	52.264	-0.227	-0.215
-283.530	-7.966	0.599	-0.402
-282.516	800.000	0.187	0.656
-281.501	800.000	0.112	0.351
-280.486	-133.954	-0.939	0.116
-279.472	29.649	-0.364	0.308
-278.457	3.201	-1.077	-0.779
-277.443	-117.011	0.661	-0.120
-276.428	-67.489	0.666	-0.259
-275.413	37.596	-0.313	-0.276
-274.399	168.872	0.059	-0.083
-273.384	-77.232	-0.149	-0.052
-272.370	-31.844	0.826	-0.460
-271.355	-37.580	0.700	-0.371
-270.340	286.949	-0.568	-1.019
-269.326	-200.000	-0.075	-0.478
-268.311	213.305	0.365	-0.572
-267.297	800.000	-0.093	-0.326
-266.282	101.968	-0.556	-0.644
-265.267	-103.430	0.435	0.102
-264.253	-51.721	-0.700	0.324
-263.238	26.373	-0.654	0.543
-262.224	82.881	-0.301	0.325
-261.209	567.399	-0.489	-1.179
-260.195	201.829	0.440	-0.673
-259.180	-200.000	0.032	-0.224
-258.165	-122.847	0.217	0.035
-257.151	-125.574	0.428	-0.064
-256.136	45.798	0.803	-0.737
-255.122	-200.000	-0.082	0.430
-254.107	-10.950	0.440	0.288
-253.092	-64.591	1.057	-0.426
-252.078	-19.031	-0.627	-0.387
-251.063	189.951	0.254	0.378
-250.049	155.822	0.262	0.359
-249.034	107.254	-0.005	0.006
-248.019	800.000	0.100	-0.374
-247.005	456.679	0.169	0.371
-245.990	-200.000	0.010	1.050
-244.976	-127.509	0.621	0.089
-243.961	174.304	0.462	-0.662
-242.946	190.134	0.273	0.407
-241.932	-21.821	-0.273	0.165
-240.917	141.677	0.479	-0.629
-239.903	92.510	-0.382	-0.427
-238.888	176.868	0.056	-0.081
-237.873	100.722	-0.253	0.292
-236.859	-200.000	-0.051	0.285
-235.844	93.358	-0.554	-0.621
-234.830	329.940	0.095	-0.181
-233.815	-33.498	-0.469	0.257
-232.800	-151.282	0.664	-0.049
-231.786	-166.817	0.501	-0.020
-230.771	-81.089	0.585	-0.192
-229.757	-87.119	0.614	-0.185
-228.742	800.000	-0.126	-0.437
-227.727	140.467	0.183	-0.240
-226.713	361.353	-0.066	0.131
-225.698	-200.000	0.009	0.259
-224.684	-200.000	0.212	0.942
-223.669	118.908	-0.235	0.288
-222.655	314.036	0.081	-0.151
-221.640	-200.000	0.001	0.076
-220.625	275.556	-0.065	0.115
-219.611	47.007	0.432	0.398
-218.596	-67.135	-0.638	-0.249
-217.582	-17.197	0.569	-0.356
-216.567	800.000	-0.100	0.318
-215.552	-113.661	0.379	-0.073
-214.538	-98.723	0.549	0.139
-213.523	173.810	0.274	0.392
-212.509	14.749	-0.452	-0.350
-211.494	-110.023	-0.686	-0.142
-210.479	-200.000	-0.103	-0.614
-209.465	565.502	-0.074	0.177
-208.450	-200.000	0.006	-0.158
-207.436	197.607	-0.392	0.594
-206.421	-123.023	0.265	0.042
-205.406	-23.401	0.725	0.432
-204.392	-200.000	0.018	-0.248
-203.377	178.982	-0.192	0.278
-202.363	-148.229	0.553	0.045
-201.348	800.000	-0.251	-0.758
-200.333	-48.082	-0.444	-0.213
-199.319	96.270	-0.695	0.788
-198.304	-112.858	0.435	0.085
-197.290	-144.860	-0.478	-0.043
-196.275	800.000	0.247	0.777
-195.260	-200.000	0.001	-0.165
-194.246	149.661	0.238	0.320
-193.231	-74.251	0.417	-0.149
-192.217	-200.000	0.066	0.381
-191.202	-200.000	0.198	0.896
-190.187	-126.267	0.225	0.033
-189.173	-128.369	-0.407	-0.057
-188.158	-39.296	-0.264	0.137
-187.144	800.000	0.083	-0.272
-186.129	-35.875	0.420	0.225
-185.114	45.642	-0.047	0.043
-184.100	0.800	-0.373	0.265
-183.085	-5.944	-0.328	-0.222
-182.071	28.609	0.606	-0.507
-181.056	7.604	-0.461	-0.342
-180.042	-200.000	0.049	-0.472
-179.027	-176.778	0.588	-0.015
-178.012	23.234	0.839	-0.682
-176.998	99.361	-0.295	-0.338
-175.983	67.588	0.520	0.525
-174.969	-44.972	-0.940	-0.463
-173.954	223.041	0.113	0.180
-172.939	596.968	-0.116	0.283
-171.925	-92.426	-0.619	-0.172
-170.910	-56.106	0.997	-0.439
-169.896	106.256	0.371	0.435
-168.881	74.784	0.246	-0.256
-167.866	800.000	-0.115	-0.379
-166.852	-138.485	-0.339	-0.037
-165.837	119.793	0.347	0.426
-164.823	-56.636	0.522	-0.229
-163.808	800.000	0.259	0.746
-162.793	761.843	0.336	0.902
-161.779	-200.000	-0.048	-0.225
-160.764	-200.000	0.008	-0.071
-159.750	800.000	0.220	-0.663
-158.735	-200.000	-0.112	0.664
-157.720	-200.000	-0.023	0.593
-156.706	26.330	-0.299	0.247
-155.691	418.899	0.182	-0.386
-154.677	45.780	-0.225	-0.206
-153.662	-95.303	0.491	0.131
-152.647	713.567	0.345	0.903
-151.633	-142.985	0.154	-0.015
-150.618	-200.000	-0.003	-0.479
-149.604	-200.000	-0.053	-0.306
-148.589	-200.000	0.004	-0.632
-147.574	-200.000	-0.008	-0.370
-146.560	-200.000	0.049	-0.736
-145.545	3.554	-0.199	0.143
-144.531	800.000	0.127	-0.448
-143.516	46.176	0.202	0.185
-142.502	800.000	-0.074	0.205
-141.487	-56.518	-0.742	-0.325
-140.472	251.163	0.414	0.695
-139.458	-53.618	0.474	-0.214
-138.443	-38.674	0.712	-0.371
-137.429	58.422	0.328	0.318
-136.414	233.713	-0.392	0.637
-135.399	-115.162	0.703	-0.132
-134.385	-200.000	-0.058	0.572
-133.370	800.000	0.179	-0.573
-132.356	-51.669	-0.755	-0.348
-131.341	359.440	0.582	-1.150
-130.326	-200.000	-0.069	-0.391
-129.312	-43.365	0.301	-0.150
-128.297	146.924	0.430	0.571
-127.283	-49.301	-0.454	0.214
-126.268	526.531	-0.349	0.811
-125.253	133.989	0.431	0.552
-124.239	67.561	0.512	-0.517
-123.224	-41.659	0.533	0.270
-122.210	-97.089	-0.955	0.247
-121.195	-157.145	0.590	0.035
-120.180	174.667	-0.198	-0.283
-119.166	-106.390	-0.454	0.100
-118.151	-152.313	0.663	-0.047
-117.137	-200.000	-0.028	-0.160
-116.122	268.238	0.030	0.051
-115.107	85.070	-0.180	0.195
-114.093	-81.057	0.321	-0.105
-113.078	334.378	0.062	0.118
-112.064	-200.000	0.059	1.499
-111.049	512.003	0.255	-0.585
-110.034	-71.278	0.546	-0.202
-109.020	138.542	0.334	0.432
-108.005	368.383	-0.140	-0.280
-106.991	-132.574	1.140	0.144
-105.976	-7.075	0.570	-0.382
-104.962	-138.076	-0.296	-0.032
-103.947	151.339	-0.489	0.657
-102.932	146.754	0.344	-0.456
-101.918	800.000	-0.019	0.081
-100.903	-200.000	0.012	0.205
-99.889	-80.433	0.367	-0.121
-98.874	407.568	-0.204	-0.425
-97.859	-58.787	-0.027	-0.011
-96.845	34.669	-0.636	-0.548
-95.830	-27.049	-0.470	-0.271
-94.816	14.326	0.672	-0.517
-93.801	-168.479	-0.487	-0.018
-92.786	-200.000	0.084	0.547
-91.772	-200.000	-0.037	-0.593
-90.757	65.036	0.321	-0.320
-89.743	93.023	-0.209	0.233
-88.728	-59.098	-0.500	0.213
-87.713	178.862	-0.259	-0.373
-86.699	-143.491	0.538	0.051
-85.684	-200.000	0.009	-0.299
-84.670	-200.000	-0.006	-0.758
-83.655	-200.000	-0.035	-0.261
-82.640	-28.629	0.237	-0.134
-81.626	-200.000	-0.131	-0.577
-80.611	-200.000	-0.016	0.281
-79.597	-54.468	0.329	-0.147
-78.582	-200.000	-0.075	-0.457
-77.567	-200.000	-0.043	-0.197
-76.553	386.060	0.175	-0.357
-75.538	118.297	-0.567	-0.689
-74.524	113.561	-0.703	-0.841
-73.509	-153.293	-0.257	-0.018
-72.494	-62.185	0.337	0.139
-71.480	-150.185	-0.251	-0.019
-70.465	60.737	-0.312	-0.305
-69.451	-155.040	0.376	0.024
-68.436	502.644	-0.193	-0.439
-67.422	-30.703	-1.051	-0.586
-66.407	-200.000	0.077	0.605
-65.392	133.194	-0.384	-0.488
-64.378	10.706	0.124	0.093
-63.363	-48.214	-0.227	0.108
-62.349	29.077	0.438	0.366
-61.334	18.706	-1.768	-1.394
-60.319	-36.677	0.606	0.321
-59.305	155.836	0.626	-0.850
-58.290	-104.056	1.144	0.262
-57.276	111.197	1.476	1.752
-56.261	-200.000	96.111	581.454
-55.246	658.207	1362.905	3452.267
-54.232	203.136	2521.287	3838.503
-53.217	118.657	2123.743	2582.652
-52.203	44.479	1594.222	1442.257
-51.188	36.230	1335.209	1158.605
-50.173	33.085	1293.239	1103.812
-49.159	56.361	1343.503	1285.720
-48.144	57.414	1359.725	1307.452
-47.130	36.570	1317.339	1144.929
-46.115	32.945	1300.725	1109.199
-45.100	32.912	1294.777	1103.894
-44.086	32.401	1293.869	1100.085
-43.071	32.623	1291.014	1098.911
-42.057	32.586	1289.205	1097.115
-41.042	32.519	1287.285	1095.045
-40.027	32.485	1285.748	1093.496
-39.013	32.715	1283.805	1093.132
-37.998	32.627	1282.027	1091.066
-36.984	32.920	1279.842	1090.861
-35.969	32.911	1278.537	1089.649
-34.954	32.687	1276.048	1086.194
-33.940	33.147	1273.837	1086.915
-32.925	33.011	1273.768	1086.029
-31.911	33.091	1272.126	1085.046
-30.896	32.918	1270.910	1082.974
-29.881	32.884	1270.170	1082.109
-28.867	32.937	1268.373	1080.839
-27.852	33.107	1265.573	1079.379
-26.838	32.893	1265.504	1078.058
-25.823	32.970	1263.928	1077.110
-24.809	32.977	1263.331	1076.595
-23.794	32.981	1259.714	1073.494
-22.779	32.530	1260.736	1071.758
-21.765	32.938	1258.535	1072.159
-20.750	32.808	1257.815	1070.766
-19.736	32.719	1256.614	1069.197
-18.721	32.832	1255.149	1068.546
-17.706	32.688	1253.985	1066.700
-16.692	32.783	1252.159	1065.644
-15.677	32.855	1251.374	1065.338
-14.663	32.824	1250.899	1064.714
-13.648	33.008	1249.094	1064.174
-12.633	32.873	1248.552	1062.909
-11.619	32.784	1247.056	1061.096
-10.604	32.565	1247.305	1060.033
-9.590	32.260	1247.182	1058.165
-8.575	32.441	1246.238	1058.341
-7.560	32.528	1244.762	1057.537
-6.546	32.958	1242.842	1058.271
-5.531	32.674	1242.200	1056.093
-4.517	32.686	1241.496	1055.519
-3.502	32.863	1239.868	1055.086
-2.487	32.716	1239.231	1053.678
-1.473	32.412	1236.412	1049.547
-0.458	31.068	1221.277	1029.246
0.556	28.611	1202.825	990.428
1.571	24.788	1208.375	974.138
2.586	23.853	1223.335	980.953
3.600	23.030	1211.587	966.944
4.615	17.065	1139.906	878.866
5.629	7.736	1064.548	775.386
6.644	3.649	1044.417	741.072
7.659	2.791	1042.038	735.210
8.673	2.928	1040.261	734.544
9.688	2.755	1039.773	733.308
10.702	3.268	1037.690	734.219
11.717	9.251	1046.665	769.212
12.731	18.926	1059.105	824.929
13.746	23.876	1064.794	853.104
14.761	24.560	1066.292	857.512
15.775	24.390	1065.005	855.588
16.790	24.279	1063.446	853.726
17.804	24.016	1063.569	852.491
18.819	24.134	1064.080	853.391
19.834	24.209	1063.678	853.353
20.848	24.140	1063.063	852.452
21.863	24.280	1061.553	851.834
22.877	24.061	1061.940	851.021
23.892	23.850	1060.715	848.956
24.907	24.216	1059.633	849.761
25.921	24.167	1058.649	848.663
26.936	23.841	1058.236	846.706
27.950	24.231	1054.934	845.842
28.965	23.990	1054.118	843.969
29.980	24.009	1052.771	842.905
30.994	24.582	1051.415	844.456
32.009	24.082	1050.960	841.650
33.023	24.441	1049.141	841.816
34.038	24.337	1048.765	840.947
35.053	24.032	1048.735	839.413
36.067	23.962	1047.093	837.691
37.082	24.006	1046.278	837.173
38.096	24.229	1046.023	837.945
39.111	24.188	1045.562	837.307
40.126	23.952	1043.825	834.738
41.140	23.498	1043.299	832.110
42.155	23.604	1040.841	830.576
43.169	23.745	1040.221	830.663
44.184	23.438	1039.754	828.782
45.199	23.695	1038.103	828.593
46.213	23.591	1038.374	828.251
47.228	24.085	1037.761	829.994
48.242	24.029	1037.315	829.299
49.257	24.171	1036.818	829.490
50.271	24.300	1036.023	829.385
51.286	24.310	1035.227	828.719
52.301	24.393	1033.352	827.528
53.315	24.286	1033.491	827.072
54.330	23.935	1031.500	823.778
55.344	24.147	1030.913	824.216
56.359	24.157	1029.674	823.203
57.374	24.192	1028.854	822.634
58.388	23.627	1029.192	820.222
59.403	23.560	1027.543	818.527
60.417	23.952	1026.293	819.263
61.432	23.446	1026.870	817.321
62.447	23.642	1025.726	817.238
63.461	23.761	1024.621	816.834
64.476	23.797	1023.884	816.338
65.490	23.639	1023.148	814.952
66.505	23.795	1021.885	814.592
67.520	23.324	1022.353	812.733
68.534	23.423	1020.986	812.025
69.549	23.256	1019.905	810.330
70.563	23.351	1018.777	809.799
71.578	23.229	1017.319	808.008
72.593	22.768	1017.850	806.255
73.607	22.843	1016.757	805.658
74.622	23.316	1016.211	807.313
75.636	23.397	1015.343	806.922
76.651	23.319	1014.977	806.205
77.666	23.336	1014.304	805.676
78.680	23.422	1012.867	804.850
79.695	23.282	1013.118	804.345
80.709	23.500	1012.392	804.687
81.724	23.337	1011.758	803.373
82.739	24.043	1009.746	804.897
83.753	24.038	1010.968	805.776
84.768	24.361	1010.419	806.731
85.782	24.838	1008.513	807.290
86.797	24.480	1008.105	805.275
87.812	24.524	1006.838	804.391
88.826	24.285	1006.416	802.907
89.841	24.349	1005.569	802.450
90.855	24.693	1004.150	802.790
91.870	24.812	1002.898	802.253
92.884	24.517	1002.140	800.253
93.899	23.976	1002.595	798.119
94.914	24.220	1001.931	798.615
95.928	24.239	999.771	796.907
96.943	24.109	998.354	795.125
97.957	24.087	998.418	795.006
98.972	24.143	997.645	794.572
99.987	24.118	997.157	794.000
101.001	24.531	995.562	794.499
102.016	23.970	995.073	791.545
103.030	24.161	994.928	792.206
104.045	24.356	992.907	791.392
105.060	24.267	992.061	790.254
106.074	24.293	991.949	790.211
107.089	24.089	990.618	788.179
108.103	23.790	988.911	785.426
109.118	23.490	988.576	783.765
110.133	23.387	987.931	782.732
111.147	23.524	986.654	782.254
112.162	23.425	984.855	780.324
113.176	23.652	984.848	781.246
114.191	23.552	984.919	780.795
115.206	23.587	983.200	779.517
116.220	23.503	982.373	778.422
117.235	23.760	981.033	778.420
118.249	23.455	980.036	776.226
119.264	23.426	979.897	775.920
120.279	22.892	979.666	773.329
121.293	23.315	978.497	774.189
122.308	23.091	977.690	772.501
123.322	23.357	975.549	771.901
124.337	22.898	975.812	770.041
125.352	22.929	973.873	768.577
126.366	23.419	973.055	769.992
127.381	23.683	973.257	771.231
128.395	23.942	972.772	771.901
129.410	23.583	972.708	770.224
130.424	23.849	971.080	770.021
131.439	23.888	969.961	769.232
132.454	24.163	968.370	769.092
133.468	23.743	968.062	766.968
134.483	24.070	966.136	766.780
135.497	24.013	966.985	767.142
136.512	24.043	965.612	766.111
137.527	23.784	966.565	765.686
138.541	24.123	963.430	764.589
139.556	23.986	964.648	764.900
140.570	24.092	963.345	764.254
141.585	24.564	962.218	765.316
142.600	24.665	960.717	764.486
143.614	24.532	960.380	763.582
144.629	24.859	959.662	764.341
145.643	24.317	957.927	760.578
146.658	24.103	957.219	759.037
147.673	23.994	956.294	757.775
148.687	24.067	955.237	757.177
149.702	24.030	954.495	756.367
150.716	23.926	953.090	754.746
151.731	24.541	951.513	756.033
152.746	24.330	951.339	754.937
153.760	24.093	951.712	754.163
154.775	24.581	950.755	755.402
155.789	24.186	950.223	753.241
156.804	24.160	949.715	752.663
157.819	24.227	948.143	751.632
158.833	24.675	947.205	752.707
159.848	24.216	948.521	751.754
160.862	24.512	946.057	750.977
161.877	24.158	943.959	747.759
162.892	24.236	944.070	748.108
163.906	24.360	942.185	747.069
164.921	23.908	941.923	744.904
165.935	24.012	941.100	744.619
166.950	24.011	940.359	743.966
167.964	24.399	939.261	744.652
168.979	23.949	937.921	741.648
169.994	24.139	937.764	742.247
171.008	24.384	937.166	742.731
172.023	24.290	937.078	742.203
173.037	24.522	935.945	742.205
174.052	24.408	934.100	740.203
175.067	23.949	934.338	738.421
176.081	23.960	933.273	737.558
177.096	23.896	932.785	736.841
178.110	23.685	931.460	734.859
179.125	23.596	930.862	733.954
180.140	24.000	929.286	734.312
181.154	23.994	931.119	735.670
182.169	24.347	930.129	736.282
183.183	24.066	930.283	735.180
184.198	24.521	928.395	735.496
185.213	24.390	927.045	733.823
186.227	24.223	928.490	734.213
187.242	24.229	927.181	733.136
188.256	24.200	926.627	732.515
189.271	24.554	926.006	733.416
190.286	24.286	924.528	731.081
191.300	23.762	923.511	728.063
192.315	23.240	922.536	725.092
193.329	23.434	921.674	725.146
194.344	23.725	922.473	726.900
195.359	24.075	922.080	727.958
196.373	24.128	921.669	727.785
197.388	24.215	921.597	728.021
198.402	24.741	920.175	728.978
199.417	24.898	919.901	729.335
200.432	24.727	919.395	728.173
201.446	24.603	918.932	727.239
202.461	24.800	917.738	727.031
203.475	24.443	916.476	724.515
204.490	23.712	916.310	721.354
205.504	23.865	915.842	721.544
206.519	24.208	915.215	722.377
207.534	24.180	914.640	721.745
208.548	24.451	914.244	722.465
209.563	24.164	912.634	719.967
210.577	24.498	912.020	720.768
211.592	24.713	912.410	721.883
212.607	24.905	910.733	721.265
213.621	24.504	910.461	719.368
214.636	24.443	910.542	719.123
215.650	24.058	910.373	717.374
216.665	24.812	908.833	719.131
217.680	24.996	907.921	719.087
218.694	24.503	907.080	716.378
219.709	24.249	907.027	715.254
220.723	24.188	906.087	714.203
221.738	24.246	904.994	713.512
222.753	24.105	904.995	712.884
223.767	24.819	903.460	714.466
224.782	24.675	904.070	714.307
225.796	24.640	903.663	713.785
226.811	24.312	903.126	711.986
227.826	24.021	901.408	709.409
228.840	23.750	901.177	708.085
229.855	24.383	899.287	709.056
230.869	23.964	899.593	707.565
231.884	24.400	898.398	708.297
232.899	24.606	898.249	708.934
233.913	24.183	897.595	706.677
234.928	24.058	896.364	705.149
235.942	24.102	895.889	704.886
236.957	23.886	894.913	703.205
237.972	23.729	895.947	703.331
238.986	23.850	894.642	702.722
240.001	24.135	893.008	702.503
241.015	23.883	893.826	702.090
242.030	24.177	893.522	702.950
243.045	24.657	891.742	703.375
244.059	24.155	891.362	701.040
245.074	24.283	891.698	701.744
246.088	24.315	891.344	701.530
247.103	24.435	890.636	701.383
248.117	24.996	890.959	703.777
249.132	25.095	891.044	704.173
250.147	25.771	889.436	705.488
251.161	25.671	888.651	704.412
252.176	25.043	888.908	702.096
253.190	25.790	888.158	704.361
254.205	25.552	887.296	702.688
255.220	25.160	887.202	701.019
256.234	25.083	887.070	700.552
257.249	25.249	885.304	699.742
258.263	25.214	884.699	699.066
259.278	25.272	883.416	698.214
260.293	25.094	883.889	697.835
261.307	25.443	882.802	698.270
262.322	25.219	882.614	697.190
263.336	25.250	879.944	695.139
264.351	24.946	879.897	693.862
265.366	24.901	879.832	693.577
266.380	25.028	879.379	693.651
267.395	25.323	878.733	694.221
268.409	25.082	878.780	693.262
269.424	25.026	876.999	691.582
270.439	24.786	877.098	690.670
271.453	25.163	875.665	690.936
272.468	25.311	875.265	691.127
273.482	25.557	875.575	692.257
274.497	25.082	875.079	689.976
275.512	24.848	873.781	687.994
276.526	25.088	873.971	689.005
277.541	25.622	872.311	689.682
278.555	25.152	873.416	688.691
279.570	25.137	872.356	687.737
280.585	25.325	871.716	687.891
281.599	25.122	870.445	686.049
282.614	24.986	869.448	684.684
283.628	24.783	868.929	683.437
284.643	24.805	867.908	682.660
285.657	24.581	868.117	681.908
286.672	25.417	866.847	684.035
287.687	24.962	866.795	682.203
288.701	25.169	866.138	682.412
289.716	24.641	866.691	680.777
290.730	25.670	864.363	682.793
291.745	24.966	864.808	680.411
292.760	25.227	864.561	681.147
293.774	25.632	863.929	682.127
294.789	25.840	862.527	681.745
295.803	25.708	862.539	681.196
296.818	25.220	862.706	679.419
297.833	25.159	860.922	677.724
298.847	25.218	860.191	677.311
299.862	25.006	860.708	676.856
300.876	25.301	859.617	677.052
301.891	25.626	858.915	677.663
302.906	25.600	859.057	677.619
303.920	26.093	857.947	678.536
304.935	25.598	857.856	676.545
305.949	25.442	857.355	675.502
306.964	25.401	857.006	675.015
307.979	25.250	856.179	673.734
308.993	25.116	855.345	672.516
310.008	25.847	854.739	674.720
311.022	25.350	853.804	672.061
312.037	25.063	853.532	670.717
313.052	25.019	852.130	669.389
314.066	24.396	852.149	667.017
315.081	24.508	852.225	667.438
316.095	25.174	851.369	669.194
317.110	25.094	850.873	668.445
318.125	24.872	848.796	665.927
319.139	24.046	849.398	663.264
320.154	24.503	848.349	664.089
321.168	24.576	848.206	664.188
322.183	24.904	847.335	664.666
323.197	24.639	848.254	664.344
324.212	25.045	846.399	664.338
325.227	24.864	846.101	663.373
326.241	24.906	845.276	662.823
327.256	24.537	845.423	661.512
328.270	25.053	843.550	661.894
329.285	24.719	843.316	660.418
330.300	24.813	842.197	659.831
331.314	24.486	842.669	658.938
332.329	25.416	842.640	662.287
333.343	25.602	842.086	662.476
334.358	25.395	841.439	661.148
335.373	25.437	841.214	661.066
336.387	25.535	840.773	661.024
337.402	25.112	841.355	659.865
338.416	25.627	840.434	660.977
339.431	25.713	840.561	661.335
340.446	26.073	840.623	662.647
341.460	25.935	840.337	661.855
342.475	26.157	839.006	661.563
343.489	26.074	838.951	661.158
344.504	26.117	838.345	660.777
345.519	25.888	838.775	660.220
346.533	26.155	837.841	660.404
347.548	25.972	837.223	659.189
348.562	26.136	836.415	659.093
349.577	25.891	835.023	657.045
350.592	25.894	834.445	656.541
351.606	25.420	834.751	654.997
352.621	25.532	834.448	655.111
353.635	25.463	832.210	653.045
354.650	25.321	831.610	651.999
355.665	25.092	831.333	650.894
356.679	25.198	831.300	651.195
357.694	25.444	830.273	651.226
358.708	25.404	829.024	650.042
359.723	25.133	829.056	649.028
360.738	25.375	828.686	649.559
361.752	25.587	828.072	649.784
362.767	25.826	827.857	650.422
363.781	26.089	827.020	650.654
364.796	26.267	826.974	651.202
365.810	26.123	826.891	650.561
366.825	26.183	825.392	649.539
367.840	25.913	825.106	648.285
368.854	26.165	824.346	648.539
369.869	25.634	824.049	646.338
370.883	25.752	823.796	646.507
371.898	26.167	823.505	647.710
372.913	26.279	822.703	647.423
373.927	25.901	822.218	645.632
374.942	25.814	821.956	645.056
375.956	26.209	821.165	645.792
376.971	26.002	822.117	645.740
377.986	26.279	820.940	645.752
379.000	26.288	820.423	645.319
380.015	26.372	819.752	645.033
381.029	26.184	819.040	643.746
382.044	26.448	818.477	644.186
383.059	26.594	817.836	644.145
384.073	26.535	816.697	642.981
385.088	25.938	816.164	640.387
386.102	25.445	815.297	637.898
387.117	25.264	815.007	636.973
388.132	25.254	814.521	636.502
389.146	25.346	814.646	636.870
390.161	25.980	814.603	639.027
391.175	26.094	813.663	638.635
392.190	26.290	813.062	638.799
393.205	25.281	811.352	633.839
394.219	24.885	810.860	632.002
395.234	24.795	811.252	631.933
396.248	25.268	810.871	633.249
397.263	25.544	810.373	633.779
398.278	25.491	808.914	632.395
399.292	25.164	808.911	631.186
400.307	25.227	808.733	631.211
401.321	25.445	807.800	631.194
402.336	25.488	808.285	631.668
403.350	26.574	806.958	634.382
404.365	26.301	807.771	634.010
405.380	26.314	806.969	633.367
406.394	26.385	806.724	633.368
407.409	26.801	806.988	634.977
408.423	26.963	806.002	634.711
409.438	26.472	805.405	632.470
410.453	26.261	805.630	631.851
411.467	26.189	804.614	630.748
412.482	26.371	803.998	630.845
413.496	26.197	804.851	630.849
414.511	26.914	803.646	632.351
415.526	26.425	803.228	630.262
416.540	26.392	802.873	629.811
417.555	26.694	801.819	629.981
418.569	26.761	800.940	629.465
419.584	26.302	800.649	627.589
420.599	26.443	800.988	628.287
421.613	160.126	1370.833	1792.338
422.628	139.012	1453.844	1792.401
