DTS Sentinel unit serial number:	SN413079Multiplexer serial number:	ORYXHardware model number:	OX4-SRSoftware version number:	ORYX F/W v4.00 Oryx Data Collector v3.7.2.0data status	okinstallation	princeton_trtdifferential loss correction	single-endedforward channel	channel 1reverse channel	N/Adate	2019/09/13time	09:38:35forward acquisition time	60.00reverse acquisition time	0.00gamma	496.2192k internal	0.2325k external	0.2325temperature offset calibration	1.0160default loss term (dB/km)	0.3790temperature slope calibration	1.0000multiplexer offset coefficient	1.0000multiplexer slope coefficient	1.0000fibre end	0.00T internal ref (°C)	29.66T ext. ref 1 (°C)	4.42T ext. ref 2 (°C)	26.10length (m)	temperature (°C)	Stokes	anti-Stokes-747.200	-90.740	0.247	-0.072
-746.185	-6.928	-0.403	0.276
-745.171	800.000	0.059	0.254
-744.156	800.000	-0.086	0.269
-743.142	33.084	0.091	0.080
-742.127	-91.979	-0.298	-0.085
-741.112	152.324	-0.017	0.024
-740.098	89.999	-0.100	0.112
-739.083	-200.000	-0.239	-0.001
-738.069	15.463	-0.217	-0.172
-737.054	-200.000	-0.002	-0.163
-736.039	-65.806	-0.264	0.107
-735.025	-85.097	0.247	0.078
-734.010	-87.310	-0.184	0.056
-732.996	-65.490	-0.132	-0.053
-731.981	345.627	-0.080	0.158
-730.966	-9.930	0.248	0.166
-729.952	28.522	-0.104	-0.089
-728.937	217.039	-0.111	-0.178
-727.923	25.940	0.210	-0.176
-726.908	-191.362	-0.322	-0.003
-725.894	-200.000	0.021	-0.248
-724.879	86.501	0.181	-0.201
-723.864	-200.000	0.026	-0.137
-722.850	-139.552	0.230	-0.025
-721.835	-200.000	-0.024	0.236
-720.821	-200.000	-0.002	0.163
-719.806	-27.425	0.197	-0.115
-718.791	-132.043	-0.194	0.025
-717.777	-79.273	0.037	0.013
-716.762	-63.303	0.235	0.098
-715.748	-44.400	-0.059	0.030
-714.733	-57.977	-0.090	0.040
-713.718	744.920	-0.081	-0.220
-712.704	243.317	0.032	-0.054
-711.689	-157.365	0.352	-0.021
-710.675	-23.466	0.188	-0.114
-709.660	24.323	0.198	0.165
-708.645	-142.004	-0.124	-0.012
-707.631	-26.062	0.041	0.024
-706.616	14.172	-0.227	-0.179
-705.602	500.654	0.092	0.214
-704.587	-88.225	0.056	0.017
-703.572	-80.214	0.268	-0.090
-702.558	-200.000	0.008	-0.134
-701.543	256.093	0.141	0.243
-700.529	25.790	-0.339	-0.285
-699.514	1.287	0.162	-0.117
-698.499	-22.020	-0.153	0.094
-697.485	574.717	-0.122	-0.300
-696.470	-140.921	-0.361	0.037
-695.456	18.801	-0.067	-0.054
-694.441	274.051	-0.130	0.232
-693.426	-200.000	-0.033	-0.171
-692.412	-200.000	-0.109	-0.496
-691.397	38.112	0.140	0.125
-690.383	800.000	-0.100	0.393
-689.368	80.937	0.071	0.077
-688.354	37.919	0.189	-0.169
-687.339	-118.500	-0.290	-0.052
-686.324	146.061	-0.115	0.156
-685.310	-77.024	0.088	-0.031
-684.295	-200.000	0.050	0.271
-683.281	136.267	-0.056	0.073
-682.266	-200.000	0.023	-0.277
-681.251	-200.000	0.008	-0.198
-680.237	80.378	-0.142	0.154
-679.222	29.655	-0.226	-0.194
-678.208	327.488	0.180	0.348
-677.193	-96.242	0.388	0.103
-676.178	-37.254	-0.331	0.178
-675.164	-52.682	0.108	0.050
-674.149	-200.000	0.001	0.383
-673.135	-124.013	-0.048	0.008
-672.120	-4.799	0.247	-0.172
-671.105	445.689	0.130	0.287
-670.091	-92.580	0.202	0.057
-669.076	381.050	-0.147	-0.304
-668.062	227.476	0.086	-0.141
-667.047	-51.603	-0.047	0.022
-666.032	-71.765	0.124	0.047
-665.018	4.331	0.213	0.157
-664.003	52.940	-0.240	0.231
-662.989	800.000	-0.010	0.033
-661.974	55.138	0.200	-0.194
-660.959	254.574	0.181	0.311
-659.945	41.332	-0.146	0.133
-658.930	-128.513	0.445	-0.064
-657.916	-157.666	0.272	0.016
-656.901	88.596	-0.117	-0.130
-655.886	-87.630	-0.273	0.083
-654.872	13.197	0.097	-0.076
-653.857	-83.791	0.238	-0.076
-652.843	13.064	-0.067	-0.052
-651.828	-200.000	0.026	-0.201
-650.814	-100.922	0.222	-0.055
-649.799	-162.131	0.126	0.006
-648.784	632.810	-0.069	-0.177
-647.770	67.555	-0.240	0.247
-646.755	-11.363	-0.376	0.249
-645.741	-200.000	-0.011	-0.163
-644.726	-87.559	0.317	-0.096
-643.711	-10.507	-0.274	-0.183
-642.697	800.000	-0.023	0.087
-641.682	44.206	0.037	-0.034
-640.668	-83.992	-0.199	0.064
-639.653	49.243	0.146	-0.138
-638.638	-200.000	0.002	-0.279
-637.624	-134.665	-0.197	-0.024
-636.609	-200.000	0.018	0.091
-635.595	112.446	0.108	0.131
-634.580	277.032	-0.160	-0.287
-633.565	-11.179	0.112	0.074
-632.551	19.161	0.237	0.191
-631.536	93.932	-0.120	0.136
-630.522	-145.606	0.236	0.021
-629.507	-72.579	-0.188	0.070
-628.492	-103.445	0.202	0.048
-627.478	267.641	0.068	0.119
-626.463	-86.608	0.132	-0.041
-625.449	424.916	-0.072	-0.155
-624.434	548.825	-0.141	-0.339
-623.419	-23.099	0.045	0.027
-622.405	-200.000	-0.013	-0.098
-621.390	-96.266	-0.189	-0.050
-620.376	340.964	0.106	0.208
-619.361	-138.733	-0.155	0.017
-618.346	-49.312	-0.196	0.094
-617.332	-61.002	0.330	0.140
-616.317	-14.912	0.110	0.071
-615.303	-200.000	0.050	0.290
-614.288	800.000	-0.061	-0.221
-613.273	170.059	0.165	-0.237
-612.259	13.154	0.204	-0.159
-611.244	-99.034	-0.213	0.054
-610.230	-200.000	0.085	0.444
-609.215	-18.877	0.179	-0.112
-608.201	-109.353	-0.173	-0.037
-607.186	-200.000	0.019	0.107
-606.171	-151.367	-0.161	-0.012
-605.157	119.051	0.209	0.259
-604.142	-200.000	-0.089	0.423
-603.128	-200.000	0.049	-0.248
-602.113	-13.399	-0.203	-0.132
-601.098	800.000	-0.108	-0.304
-600.084	-48.977	-0.208	-0.100
-599.069	-100.928	-0.114	-0.028
-598.055	-103.216	0.420	-0.100
-597.040	-90.779	-0.359	0.104
-596.025	-128.940	-0.182	-0.026
-595.011	241.088	0.267	-0.447
-593.996	-54.480	-0.134	0.061
-592.982	-159.771	-0.158	0.009
-591.967	-200.000	-0.007	-0.118
-590.952	-200.000	0.072	-0.440
-589.938	27.937	-0.035	-0.030
-588.923	-120.560	-0.222	-0.038
-587.909	-200.000	0.008	0.058
-586.894	-127.110	0.206	0.030
-585.879	526.319	0.117	0.276
-584.865	-200.000	-0.037	0.272
-583.850	-200.000	-0.003	0.069
-582.836	0.040	-0.231	-0.165
-581.821	8.190	0.105	0.079
-580.806	-88.534	0.170	0.051
-579.792	-82.253	0.136	-0.045
-578.777	208.768	-0.102	0.161
-577.763	-108.800	0.186	-0.040
-576.748	800.000	-0.081	0.317
-575.733	531.178	-0.051	-0.120
-574.719	15.948	-0.064	-0.051
-573.704	142.193	0.149	-0.199
-572.690	193.315	-0.157	-0.238
-571.675	-200.000	0.049	0.416
-570.661	60.904	0.221	-0.219
-569.646	711.496	-0.071	0.190
-568.631	357.534	-0.050	0.099
-567.617	-75.114	0.166	-0.060
-566.602	-16.169	0.443	-0.282
-565.588	75.776	-0.120	-0.127
-564.573	-73.296	-0.349	-0.128
-563.558	800.000	-0.042	-0.176
-562.544	118.423	0.068	-0.084
-561.529	-121.959	0.217	-0.036
-560.515	-200.000	0.020	0.131
-559.500	75.321	-0.497	-0.525
-558.485	261.262	0.053	-0.092
-557.471	800.000	-0.058	-0.205
-556.456	170.531	-0.172	-0.247
-555.442	-73.360	-0.404	-0.148
-554.427	-137.884	-0.183	0.020
-553.412	-159.674	-0.094	0.005
-552.398	-125.784	-0.112	-0.017
-551.383	-146.724	0.110	0.009
-550.369	800.000	0.118	0.370
-549.354	485.168	0.025	0.056
-548.339	79.607	0.137	0.147
-547.325	800.000	0.011	-0.039
-546.310	-200.000	-0.060	0.291
-545.296	-134.182	-0.578	-0.071
-544.281	-108.082	-0.249	-0.054
-543.266	-200.000	-0.013	-0.233
-542.252	444.652	-0.053	0.117
-541.237	-200.000	-0.042	0.246
-540.223	-128.751	-0.077	-0.011
-539.208	-93.905	0.077	-0.021
-538.193	-55.245	-0.231	-0.104
-537.179	-132.397	0.168	0.022
-536.164	-200.000	0.017	-0.297
-535.150	-36.801	-0.071	0.038
-534.135	429.623	-0.081	0.175
-533.121	0.734	-0.055	0.039
-532.106	800.000	0.068	0.228
-531.091	-15.037	0.399	-0.256
-530.077	-200.000	0.035	-0.438
-529.062	86.056	-0.168	0.185
-528.048	-79.727	-0.104	0.035
-527.033	230.635	0.103	0.168
-526.018	-26.551	-0.136	-0.080
-525.004	128.884	0.117	-0.150
-523.989	-200.000	-0.011	0.140
-522.975	110.368	0.218	-0.262
-521.960	-21.565	0.241	-0.147
-520.945	-41.488	-0.371	-0.191
-519.931	-24.034	-0.250	-0.150
-518.916	-200.000	-0.009	0.275
-517.902	113.662	0.158	-0.192
-516.887	-200.000	-0.012	0.157
-515.872	-163.670	0.268	-0.013
-514.858	257.967	0.038	0.066
-513.843	584.027	0.150	0.368
-512.829	800.000	-0.112	-0.330
-511.814	-135.747	-0.118	0.014
-510.799	126.157	-0.156	0.198
-509.785	318.402	0.046	-0.087
-508.770	-4.691	0.209	0.144
-507.756	-11.474	0.097	-0.064
-506.741	84.719	0.168	0.184
-505.726	607.408	0.035	0.088
-504.712	-91.500	0.146	0.042
-503.697	-17.227	-0.297	-0.187
-502.683	191.729	-0.129	0.194
-501.668	426.242	0.213	-0.459
-500.653	-200.000	-0.035	-0.155
-499.639	-200.000	-0.000	0.035
-498.624	-45.747	0.109	-0.054
-497.610	291.353	-0.140	-0.255
-496.595	783.290	-0.016	-0.043
-495.581	311.296	-0.123	-0.230
-494.566	-200.000	0.006	0.086
-493.551	-167.204	-0.349	-0.014
-492.537	27.748	-0.319	-0.268
-491.522	247.036	0.027	-0.045
-490.508	-82.286	-0.222	0.072
-489.493	-200.000	0.009	0.097
-488.478	185.514	0.144	0.214
-487.464	211.752	0.096	0.151
-486.449	-130.746	-0.057	-0.008
-485.435	-65.690	-0.173	0.069
-484.420	-31.287	-0.166	0.093
-483.405	-200.000	0.029	0.193
-482.391	-15.603	-0.170	0.108
-481.376	-64.186	-0.115	0.047
-480.362	112.699	-0.116	-0.140
-479.347	-200.000	0.005	-0.031
-478.332	187.785	0.070	-0.104
-477.318	255.178	-0.026	-0.045
-476.303	-200.000	0.029	0.140
-475.289	-98.624	-0.159	0.041
-474.274	-200.000	0.015	0.293
-473.259	-86.017	0.204	-0.063
-472.245	95.581	0.189	0.215
-471.230	272.819	0.168	-0.296
-470.216	-143.979	0.038	0.004
-469.201	-200.000	0.002	0.475
-468.186	-200.000	0.005	0.064
-467.172	-200.000	-0.259	0.001
-466.157	-200.000	0.022	0.109
-465.143	-61.933	0.206	-0.086
-464.128	669.385	-0.059	-0.153
-463.113	37.830	0.143	-0.127
-462.099	123.901	-0.118	0.148
-461.084	-141.554	0.132	0.013
-460.070	-98.863	0.144	0.037
-459.055	238.643	0.116	0.192
-458.040	7.655	0.260	-0.194
-457.026	308.528	-0.032	-0.060
-456.011	131.338	-0.110	0.141
-454.997	-200.000	0.035	-0.429
-453.982	493.397	0.072	0.164
-452.968	800.000	-0.118	-0.398
-451.953	-34.804	-0.190	-0.104
-450.938	276.798	-0.095	-0.168
-449.924	-98.244	-0.197	-0.050
-448.909	612.325	-0.090	-0.226
-447.895	-90.746	0.409	0.118
-446.880	106.963	0.158	-0.187
-445.865	184.996	-0.069	-0.102
-444.851	800.000	-0.041	-0.146
-443.836	-141.219	-0.223	-0.023
-442.822	-200.000	0.008	-0.236
-441.807	-164.510	-0.039	-0.002
-440.792	600.538	0.025	0.062
-439.778	-95.324	-0.202	-0.054
-438.763	-80.895	0.057	-0.019
-437.749	344.294	0.140	0.274
-436.734	800.000	0.080	0.317
-435.719	202.359	0.092	-0.141
-434.705	-109.511	-0.229	0.048
-433.690	-185.454	-0.214	0.003
-432.676	-200.000	0.032	0.297
-431.661	-200.000	0.029	0.207
-430.646	-149.436	-0.321	-0.025
-429.632	800.000	-0.026	0.086
-428.617	-59.173	-0.161	0.069
-427.603	134.491	0.075	-0.096
-426.588	-200.000	-0.038	0.197
-425.573	-200.000	0.012	0.418
-424.559	-68.426	0.061	0.024
-423.544	357.829	0.181	0.361
-422.530	-200.000	0.056	0.296
-421.515	424.230	-0.091	-0.196
-420.500	-76.447	0.342	0.120
-419.486	-200.000	-0.007	0.341
-418.471	-200.000	0.028	-0.187
-417.457	-200.000	0.002	0.283
-416.442	-116.248	-0.162	-0.030
-415.428	-200.000	0.060	-0.267
-414.413	-200.000	-0.025	-0.380
-413.398	7.845	0.175	-0.131
-412.384	-181.690	0.107	0.002
-411.369	-7.506	-0.050	0.034
-410.355	-200.000	0.040	-0.180
-409.340	73.458	-0.284	-0.296
-408.325	-200.000	0.100	0.475
-407.311	402.507	-0.118	0.247
-406.296	76.196	-0.138	-0.146
-405.282	-4.871	-0.086	-0.059
-404.267	-99.002	0.199	0.050
-403.252	-200.000	-0.027	0.143
-402.238	31.025	-0.306	0.261
-401.223	156.543	0.130	0.179
-400.209	65.705	0.039	0.039
-399.194	145.100	0.109	-0.145
-398.179	-3.594	-0.160	-0.111
-397.165	-55.934	0.135	0.060
-396.150	34.358	-0.095	0.082
-395.136	-200.000	0.034	-0.149
-394.121	506.432	0.161	0.371
-393.106	-200.000	0.013	-0.277
-392.092	-7.976	0.227	-0.153
-391.077	191.034	-0.055	-0.082
-390.063	-200.000	-0.014	-0.270
-389.048	-52.389	0.056	0.026
-388.033	-59.223	0.218	-0.093
-387.019	-200.000	-0.045	-0.200
-386.004	-200.000	0.011	-0.056
-384.990	569.868	0.086	-0.209
-383.975	61.847	0.108	-0.107
-382.960	231.912	0.175	0.286
-381.946	800.000	-0.015	0.060
-380.931	-86.568	0.131	0.040
-379.917	12.982	-0.235	-0.181
-378.902	231.683	-0.136	-0.222
-377.888	-94.650	0.151	-0.041
-376.873	-200.000	-0.025	0.179
-375.858	27.346	-0.110	-0.092
-374.844	-138.895	-0.250	-0.027
-373.829	-200.000	-0.013	0.270
-372.815	-112.543	0.179	-0.035
-371.800	-200.000	-0.009	0.198
-370.785	-200.000	0.001	0.088
-369.771	-3.516	-0.168	0.116
-368.756	-89.511	-0.190	0.056
-367.742	374.962	-0.176	-0.357
-366.727	458.318	-0.118	0.262
-365.712	800.000	-0.038	0.155
-364.698	800.000	0.051	-0.161
-363.683	-0.350	-0.179	0.126
-362.669	106.702	-0.164	-0.194
-361.654	111.843	0.172	0.206
-360.639	-43.420	0.228	0.115
-359.625	-131.741	-0.153	-0.020
-358.610	-12.555	-0.198	0.128
-357.596	-71.193	-0.324	0.121
-356.581	-95.790	0.258	-0.068
-355.566	454.239	0.165	0.364
-354.552	-44.233	0.128	-0.064
-353.537	-200.000	0.019	0.417
-352.523	134.124	-0.088	-0.113
-351.508	-200.000	0.004	-0.355
-350.493	-200.000	-0.015	0.272
-349.479	-1.427	0.199	0.139
-348.464	558.633	-0.073	-0.175
-347.450	237.929	0.165	-0.273
-346.435	-58.776	0.066	-0.028
-345.420	-200.000	0.016	-0.198
-344.406	-111.541	-0.174	-0.035
-343.391	-144.688	0.283	-0.026
-342.377	323.611	0.071	-0.135
-341.362	411.019	0.091	-0.192
-340.348	-200.000	-0.034	0.311
-339.333	299.589	0.097	-0.177
-338.318	-104.283	-0.569	0.131
-337.304	-88.615	0.287	-0.085
-336.289	-145.167	0.117	-0.011
-335.275	-96.453	0.190	0.050
-334.260	137.819	-0.170	0.221
-333.245	800.000	0.065	0.230
-332.231	-200.000	0.030	0.156
-331.216	106.298	0.065	-0.077
-330.202	-4.580	-0.087	-0.059
-329.187	529.269	-0.200	0.469
-328.172	279.293	0.164	0.290
-327.158	-110.515	0.182	0.037
-326.143	20.542	0.273	-0.220
-325.129	230.312	0.030	0.049
-324.114	-155.686	-0.077	-0.005
-323.099	-166.535	-0.318	0.013
-322.085	-107.020	-0.073	0.016
-321.070	23.868	0.110	-0.090
-320.056	43.130	-0.086	0.077
-319.041	-137.848	-0.092	0.010
-318.026	87.074	-0.187	-0.205
-317.012	-200.000	0.048	-0.257
-315.997	-200.000	-0.035	-0.184
-314.983	376.949	-0.016	0.032
-313.968	118.426	0.044	0.054
-312.953	-167.461	0.109	-0.004
-311.939	-89.569	0.180	0.052
-310.924	349.590	0.041	0.081
-309.910	-200.000	-0.007	0.192
-308.895	-148.148	0.195	0.016
-307.880	77.277	-0.115	-0.122
-306.866	-200.000	0.028	-0.204
-305.851	-144.860	0.201	-0.018
-304.837	519.366	0.064	-0.149
-303.822	252.990	0.136	-0.231
-302.807	262.712	-0.177	0.305
-301.793	-67.684	-0.272	-0.106
-300.778	28.293	0.061	0.051
-299.764	-118.470	0.165	0.029
-298.749	-102.840	-0.275	-0.065
-297.735	-200.000	0.008	-0.120
-296.720	-120.436	-0.393	-0.066
-295.705	-85.061	-0.077	-0.024
-294.691	-14.391	-0.318	-0.203
-293.676	336.693	0.031	0.059
-292.662	-140.232	0.044	0.005
-291.647	800.000	0.040	-0.136
-290.632	-108.672	-0.278	-0.059
-289.618	-200.000	-0.025	0.220
-288.603	211.162	0.143	0.223
-287.589	70.203	0.133	-0.136
-286.574	-128.561	0.042	0.006
-285.559	168.542	-0.140	0.198
-284.545	17.665	0.232	-0.183
-283.530	296.167	-0.056	0.102
-282.516	-77.928	0.278	-0.095
-281.501	-200.000	-0.002	-0.206
-280.486	642.052	0.056	0.142
-279.472	-51.919	-0.118	0.054
-278.457	550.197	0.095	-0.225
-277.443	-88.652	0.328	-0.097
-276.428	-97.138	-0.257	-0.067
-275.413	36.504	-0.088	0.077
-274.399	-1.873	-0.130	0.090
-273.384	449.278	-0.034	0.075
-272.370	121.466	-0.168	0.207
-271.355	288.619	0.025	-0.045
-270.340	-157.219	0.449	0.027
-269.326	250.537	0.075	-0.126
-268.311	-23.967	0.228	0.135
-267.297	2.319	-0.084	0.060
-266.282	-29.553	-0.353	0.200
-265.267	800.000	-0.037	-0.152
-264.253	-72.757	0.508	0.185
-263.238	57.351	0.017	-0.016
-262.224	-200.000	-0.074	-0.388
-261.209	-200.000	-0.027	-0.177
-260.195	443.590	0.108	-0.233
-259.180	267.629	0.189	0.327
-258.165	51.043	-0.045	0.043
-257.151	14.481	0.185	0.143
-256.136	-200.000	0.047	-0.253
-255.122	800.000	0.003	0.013
-254.107	-116.589	-0.115	-0.021
-253.092	800.000	-0.040	-0.121
-252.078	-200.000	-0.070	-0.314
-251.063	-141.338	0.201	-0.020
-250.049	-143.110	0.160	-0.015
-249.034	-57.782	0.122	0.053
-248.019	-70.804	-0.079	-0.030
-247.005	-46.897	0.265	-0.128
-245.990	-133.942	-0.199	0.024
-244.976	-200.000	0.015	-0.091
-243.961	161.799	-0.034	0.047
-242.946	-40.953	-0.468	-0.240
-241.932	664.640	0.070	0.178
-240.917	-65.380	0.254	0.101
-239.903	800.000	-0.032	0.095
-238.888	-102.170	0.346	0.082
-237.873	115.188	0.180	-0.218
-236.859	-144.035	0.337	-0.031
-235.844	800.000	0.084	0.290
-234.830	800.000	0.013	-0.036
-233.815	-79.779	0.347	0.115
-232.800	74.210	-0.259	0.269
-231.786	-53.649	0.293	0.133
-230.771	210.775	-0.160	0.248
-229.757	-200.000	0.010	-0.183
-228.742	-103.063	-0.157	-0.037
-227.727	-107.103	0.131	-0.029
-226.713	-200.000	0.005	0.234
-225.698	184.718	0.085	0.125
-224.684	785.168	-0.065	-0.177
-223.669	136.791	0.083	-0.108
-222.655	-81.084	-0.297	0.097
-221.640	23.749	0.084	0.068
-220.625	-121.635	0.085	-0.014
-219.611	-200.000	-0.009	-0.080
-218.596	-73.564	-0.049	-0.018
-217.582	162.255	-0.118	-0.164
-216.567	-125.055	0.135	0.020
-215.552	-138.066	-0.185	-0.020
-214.538	269.205	-0.162	-0.281
-213.523	-103.306	-0.303	0.071
-212.509	-200.000	0.030	-0.187
-211.494	158.449	-0.094	0.128
-210.479	482.438	-0.064	-0.144
-209.465	-146.291	-0.346	-0.030
-208.450	104.324	0.041	0.048
-207.436	-200.000	-0.001	-0.160
-206.421	-53.178	-0.219	0.099
-205.406	132.644	0.232	0.296
-204.392	800.000	0.056	-0.189
-203.377	800.000	0.093	0.323
-202.363	-14.349	0.125	0.079
-201.348	-9.335	0.078	0.052
-200.333	18.212	0.207	-0.163
-199.319	59.395	-0.099	0.096
-198.304	-37.231	0.255	-0.135
-197.290	113.817	0.128	0.154
-196.275	-113.706	0.192	0.037
-195.260	-112.459	0.195	-0.038
-194.246	250.731	-0.174	0.293
-193.231	-105.892	0.053	-0.012
-192.217	-62.252	0.179	0.074
-191.202	-122.375	-0.396	-0.064
-190.187	-66.359	0.376	0.148
-189.173	-200.000	-0.128	0.000
-188.158	-200.000	-0.001	0.065
-187.144	7.950	0.118	0.088
-186.129	112.850	0.130	0.156
-185.114	-175.783	-0.169	-0.004
-184.100	345.091	0.020	0.040
-183.085	-97.725	-0.236	0.060
-182.071	176.164	-0.051	0.073
-181.056	-44.200	0.184	0.091
-180.042	-0.174	-0.193	-0.136
-179.027	319.726	0.058	-0.109
-178.012	78.229	-0.198	0.209
-176.998	1.237	0.082	0.058
-175.983	277.512	0.181	-0.317
-174.969	800.000	0.158	0.435
-173.954	77.231	-0.108	-0.113
-172.939	-200.000	-0.040	0.329
-171.925	453.299	-0.071	-0.154
-170.910	-44.652	0.249	0.123
-169.896	169.486	0.089	-0.126
-168.881	81.645	-0.104	0.111
-167.866	-200.000	-0.034	-0.240
-166.852	409.421	-0.077	-0.160
-165.837	187.872	-0.078	-0.115
-164.823	515.030	0.017	-0.038
-163.808	181.044	-0.192	-0.278
-162.793	800.000	0.005	0.019
-161.779	304.534	0.061	0.112
-160.764	453.004	0.028	0.062
-159.750	-200.000	-0.021	-0.286
-158.735	261.922	-0.051	0.087
-157.720	-83.174	0.421	0.134
-156.706	291.550	0.112	0.202
-155.691	-18.909	0.041	-0.025
-154.677	-53.091	0.179	0.081
-153.662	-141.400	-0.187	-0.019
-152.647	-32.491	0.057	0.031
-151.633	-32.995	0.236	-0.129
-150.618	800.000	0.099	-0.369
-149.604	218.376	0.090	-0.141
-148.589	114.962	-0.165	0.198
-147.574	800.000	-0.046	-0.133
-146.560	8.309	-0.305	0.226
-145.545	-190.813	0.085	-0.001
-144.531	72.349	-0.100	0.103
-143.516	-147.594	0.200	0.017
-142.502	190.470	-0.164	0.242
-141.487	11.789	0.133	0.101
-140.472	338.147	0.165	0.316
-139.458	800.000	-0.036	-0.134
-138.443	182.742	0.125	-0.182
-137.429	-200.000	-0.033	-0.223
-136.414	515.733	0.236	0.544
-135.399	547.001	0.032	-0.076
-134.385	37.825	-0.259	0.227
-133.370	227.207	0.080	-0.129
-132.356	37.485	-0.167	-0.146
-131.341	-117.947	0.387	0.068
-130.326	630.217	-0.109	-0.271
-129.312	108.077	-0.191	0.224
-128.297	41.868	0.097	-0.086
-127.283	-200.000	-0.025	-0.266
-126.268	-58.508	0.208	0.089
-125.253	-133.912	-0.289	-0.035
-124.239	-200.000	-0.081	-0.000
-123.224	210.364	-0.038	-0.060
-122.210	-89.963	0.233	0.067
-121.195	-101.878	0.274	0.065
-120.180	-200.000	-0.058	0.295
-119.166	800.000	-0.036	0.140
-118.151	312.095	-0.122	0.226
-117.137	-126.254	-0.228	-0.034
-116.122	728.336	0.026	0.068
-115.107	111.487	0.086	0.103
-114.093	632.451	-0.088	0.219
-113.078	-200.000	-0.033	0.222
-112.064	-1.407	0.129	0.090
-111.049	86.999	0.139	-0.152
-110.034	-200.000	0.061	-0.289
-109.020	0.657	0.124	0.088
-108.005	40.284	-0.096	-0.085
-106.991	800.000	-0.080	-0.279
-105.976	153.581	-0.191	0.258
-104.962	393.656	0.141	0.288
-103.947	148.729	0.088	-0.117
-102.932	-200.000	0.023	-0.103
-101.918	-57.396	-0.191	0.082
-100.903	800.000	-0.023	0.085
-99.889	131.043	-0.190	0.240
-98.874	564.469	-0.086	-0.206
-97.859	800.000	-0.019	0.060
-96.845	38.561	-0.096	0.084
-95.830	-200.000	-0.008	-0.104
-94.816	800.000	0.052	-0.152
-93.801	149.767	0.115	-0.153
-92.786	-28.040	0.316	0.180
-91.772	73.916	0.120	-0.124
-90.757	-148.716	0.260	-0.021
-89.743	-88.870	0.375	-0.109
-88.728	-58.787	-0.239	0.102
-87.713	508.322	-0.061	0.139
-86.699	-113.945	0.280	-0.053
-85.684	-128.089	-0.233	0.033
-84.670	-35.778	0.207	-0.110
-83.655	17.048	-0.069	0.054
-82.640	800.000	-0.006	-0.024
-81.626	-200.000	-0.019	-0.211
-80.611	62.901	0.100	-0.099
-79.597	209.955	-0.047	0.073
-78.582	-196.323	-0.198	-0.001
-77.567	34.692	0.119	-0.102
-76.553	-78.087	0.419	-0.142
-75.538	800.000	-0.005	-0.018
-74.524	-194.696	0.211	-0.002
-73.509	-200.000	0.081	0.368
-72.494	70.090	0.134	-0.136
-71.480	-200.000	0.011	0.245
-70.465	83.175	0.348	0.373
-69.451	-50.843	0.145	0.067
-68.436	150.154	-0.138	-0.184
-67.422	-24.557	-0.232	-0.136
-66.407	280.625	-0.188	0.330
-65.392	-200.000	-0.062	-0.594
-64.378	800.000	0.065	0.215
-63.363	64.048	-0.196	-0.194
-62.349	-182.305	0.171	0.003
-61.334	-3.128	-1.084	-0.743
-60.319	11.044	0.668	0.501
-59.305	800.000	-0.378	-1.295
-58.290	296.663	0.634	1.142
-57.276	589.202	0.595	1.440
-56.261	-200.000	104.554	577.524
-55.246	504.552	1474.162	3352.404
-54.232	178.437	2678.112	3841.581
-53.217	112.507	2171.862	2581.744
-52.203	41.495	1608.820	1430.399
-51.188	33.105	1342.148	1142.795
-50.173	29.955	1300.644	1088.922
-49.159	54.024	1353.368	1278.034
-48.144	54.347	1368.955	1294.634
-47.130	33.303	1324.747	1128.983
-46.115	29.890	1306.791	1093.512
-45.100	29.585	1302.511	1088.086
-44.086	29.581	1299.473	1085.485
-43.071	29.493	1297.230	1083.051
-42.057	29.481	1295.034	1081.105
-41.042	29.477	1293.649	1079.884
-40.027	29.552	1291.941	1078.850
-39.013	29.602	1289.957	1077.441
-37.998	29.544	1288.242	1075.633
-36.984	29.603	1286.416	1074.404
-35.969	29.670	1284.512	1073.163
-34.954	29.634	1282.903	1071.565
-33.940	29.712	1281.695	1070.968
-32.925	29.717	1280.297	1069.784
-31.911	29.802	1278.615	1068.831
-30.896	29.667	1277.574	1067.139
-29.881	29.737	1276.132	1066.294
-28.867	29.725	1275.020	1065.254
-27.852	29.779	1273.158	1063.966
-26.838	29.746	1271.886	1062.669
-25.823	29.818	1270.181	1061.617
-24.809	29.699	1269.535	1060.352
-23.794	29.659	1268.434	1059.162
-22.779	29.724	1266.974	1058.272
-21.765	29.802	1265.266	1057.252
-20.750	29.783	1263.665	1055.762
-19.736	29.684	1262.771	1054.408
-18.721	29.639	1261.251	1052.842
-17.706	29.654	1260.127	1051.949
-16.692	29.537	1259.289	1050.541
-15.677	29.600	1258.208	1049.957
-14.663	29.582	1257.237	1049.000
-13.648	29.661	1255.677	1048.103
-12.633	29.612	1254.636	1046.917
-11.619	29.708	1253.820	1046.736
-10.604	29.648	1253.011	1045.681
-9.590	29.654	1252.230	1045.024
-8.575	29.525	1251.420	1043.576
-7.560	29.563	1250.387	1042.886
-6.546	29.496	1249.689	1041.883
-5.531	29.554	1248.931	1041.538
-4.517	29.589	1247.435	1040.447
-3.502	29.603	1247.026	1040.145
-2.487	29.633	1245.849	1039.290
-1.473	29.607	1242.185	1036.046
-0.458	28.417	1227.031	1016.770
0.556	26.626	1209.378	978.192
1.571	22.789	1215.070	961.842
2.586	21.840	1228.238	966.953
3.600	20.956	1216.015	952.419
4.615	15.983	1144.666	870.816
5.629	8.198	1071.719	777.437
6.644	4.792	1052.645	747.206
7.659	4.378	1050.562	743.677
8.673	4.167	1049.055	741.538
9.688	4.345	1047.218	741.023
10.702	4.731	1046.271	742.129
11.717	9.798	1052.879	771.015
12.731	17.772	1063.360	816.963
13.746	21.558	1068.182	838.775
14.761	21.982	1068.330	840.847
15.775	21.211	1066.397	835.566
16.790	20.107	1065.114	829.207
17.804	19.468	1063.984	825.197
18.819	19.328	1061.926	822.861
19.834	19.191	1061.902	822.117
20.848	19.093	1061.383	821.174
21.863	18.935	1060.393	819.584
22.877	18.753	1059.810	818.191
23.892	18.687	1058.965	817.153
24.907	18.546	1058.415	815.984
25.921	18.832	1056.859	816.072
26.936	18.718	1055.804	814.647
27.950	18.668	1054.905	813.640
28.965	18.944	1052.871	813.308
29.980	18.983	1051.533	812.384
30.994	19.114	1050.861	812.414
32.009	19.212	1049.694	811.901
33.023	19.112	1048.535	810.461
34.038	18.893	1047.716	808.729
35.053	18.871	1046.588	807.679
36.067	18.801	1045.817	806.687
37.082	18.913	1044.878	806.414
38.096	18.972	1044.483	806.317
39.111	18.918	1044.044	805.651
40.126	18.911	1041.850	803.857
41.140	18.567	1040.773	801.347
42.155	18.326	1039.616	799.261
43.169	18.318	1038.093	797.979
44.184	18.325	1037.639	797.595
45.199	18.289	1036.819	796.725
46.213	18.605	1035.732	797.290
47.228	18.836	1035.268	797.935
48.242	18.836	1034.255	797.083
49.257	18.819	1033.342	796.228
50.271	18.911	1032.515	795.947
51.286	18.966	1031.752	795.542
52.301	18.799	1030.496	793.733
53.315	18.651	1029.448	792.173
54.330	18.723	1027.952	791.285
55.344	18.523	1027.738	790.128
56.359	18.425	1027.359	789.312
57.374	18.494	1025.911	788.450
58.388	18.480	1024.530	787.256
59.403	18.336	1023.742	785.918
60.417	18.428	1023.137	785.808
61.432	18.341	1022.747	785.037
62.447	18.238	1021.633	783.640
63.461	18.227	1020.953	783.002
64.476	18.055	1019.922	781.356
65.490	18.249	1018.882	781.373
66.505	18.212	1018.257	780.657
67.520	18.161	1017.914	780.091
68.534	18.245	1017.344	779.969
69.549	18.298	1016.003	779.113
70.563	18.100	1015.190	777.522
71.578	18.093	1014.603	776.972
72.593	17.987	1013.691	775.722
73.607	17.891	1013.263	774.890
74.622	18.025	1012.486	774.834
75.636	18.088	1011.799	774.528
76.651	18.073	1011.090	773.848
77.666	18.043	1011.103	773.655
78.680	18.073	1010.277	773.088
79.695	18.169	1009.574	772.916
80.709	18.274	1008.861	772.776
81.724	18.476	1007.908	772.888
82.739	18.547	1007.652	772.943
83.753	18.857	1007.104	773.852
84.768	19.007	1006.396	773.912
85.782	19.181	1006.087	774.389
86.797	19.159	1004.991	773.377
87.812	19.149	1003.290	771.956
88.826	19.106	1002.443	771.042
89.841	18.969	1002.161	770.146
90.855	19.231	1000.779	770.186
91.870	19.117	1000.875	769.684
92.884	19.121	999.514	768.586
93.899	19.016	998.846	767.535
94.914	19.263	997.877	767.824
95.928	19.074	997.310	766.477
96.943	18.978	995.995	764.972
97.957	18.937	995.116	764.046
98.972	19.000	994.775	763.996
99.987	19.080	993.766	763.513
101.001	19.075	992.457	762.415
102.016	18.938	992.070	761.443
103.030	19.061	991.033	761.125
104.045	18.925	990.554	760.090
105.060	18.919	989.269	759.007
106.074	18.568	988.063	756.467
107.089	18.336	986.921	754.503
108.103	18.238	985.668	753.048
109.118	18.269	984.297	752.070
110.133	18.229	983.594	751.291
111.147	18.357	982.917	751.269
112.162	18.304	982.307	750.507
113.176	18.510	981.542	750.757
114.191	18.553	980.733	750.261
115.206	18.483	980.134	749.430
116.220	18.511	979.066	748.669
117.235	18.346	978.251	747.259
118.249	18.459	977.140	746.836
119.264	18.306	976.307	745.466
120.279	18.160	976.347	744.797
121.293	18.184	974.983	743.793
122.308	18.143	974.078	742.862
123.322	18.033	972.980	741.479
124.337	17.976	971.888	740.333
125.352	18.012	970.778	739.580
126.366	18.061	970.243	739.319
127.381	18.083	969.102	738.476
128.395	18.085	968.364	737.858
129.410	18.195	967.387	737.525
130.424	18.300	966.750	737.426
131.439	18.257	966.513	736.993
132.454	18.531	965.155	737.070
133.468	18.514	964.658	736.553
134.483	18.501	964.014	735.941
135.497	18.393	963.329	734.889
136.512	18.495	962.421	734.570
137.527	18.550	961.479	734.021
138.541	18.570	960.895	733.594
139.556	18.593	960.364	733.224
140.570	18.714	959.782	733.229
141.585	18.864	959.156	733.328
142.600	18.881	958.221	732.621
143.614	19.063	957.376	732.686
144.629	19.226	956.569	732.695
145.643	19.010	955.723	731.063
146.658	18.850	954.350	729.272
147.673	18.660	953.450	727.711
148.687	18.646	952.472	726.842
149.702	18.532	951.573	725.611
150.716	18.416	951.144	724.728
151.731	18.619	950.045	724.684
152.746	18.555	949.459	723.903
153.760	18.582	949.338	723.861
154.775	18.761	948.418	723.848
155.789	18.813	947.678	723.442
156.804	18.798	947.207	722.954
157.819	18.872	946.417	722.596
158.833	18.939	945.970	722.472
159.848	19.239	944.660	722.668
160.862	19.104	943.435	721.101
161.877	18.669	942.485	718.489
162.892	18.456	941.570	716.840
163.906	18.374	940.411	715.550
164.921	18.525	939.532	715.447
165.935	18.623	939.018	715.404
166.950	18.680	938.554	715.225
167.964	18.812	937.400	714.830
168.979	18.664	936.384	713.379
169.994	18.667	934.800	712.120
171.008	18.709	935.254	712.574
172.023	18.983	934.286	712.913
173.037	18.998	933.808	712.546
174.052	18.864	933.124	711.406
175.067	18.660	931.997	709.642
176.081	18.460	931.344	708.254
177.096	18.517	930.801	708.015
178.110	18.672	930.392	708.280
179.125	18.741	930.154	708.322
180.140	18.669	929.150	707.199
181.154	18.925	929.509	708.462
182.169	19.026	928.798	708.275
183.183	19.113	928.063	708.009
184.198	19.031	927.192	706.944
185.213	19.112	926.612	706.773
186.227	19.069	926.002	706.070
187.242	19.199	925.449	706.119
188.256	19.315	924.459	705.774
189.271	19.356	923.712	705.308
190.286	18.857	922.690	702.426
191.300	18.462	921.749	700.036
192.315	18.353	920.833	698.831
193.329	18.469	920.892	699.290
194.344	18.686	920.296	699.658
195.359	18.813	919.873	699.794
196.373	19.064	919.040	700.119
197.388	19.233	918.843	700.593
198.402	19.398	918.370	700.843
199.417	19.413	918.051	700.599
200.432	19.480	917.698	700.539
201.446	19.572	917.104	700.397
202.461	19.668	916.579	700.321
203.475	19.596	915.577	699.204
204.490	19.293	914.983	697.463
205.504	19.157	913.852	695.989
206.519	19.171	912.890	695.252
207.534	19.082	912.635	694.636
208.548	19.105	912.015	694.195
209.563	19.162	910.794	693.434
210.577	19.222	910.826	693.637
211.592	19.470	909.946	693.906
212.607	19.468	909.453	693.459
213.621	19.406	908.562	692.469
214.636	19.248	908.235	691.526
215.650	19.630	907.059	692.098
216.665	19.438	906.990	691.215
217.680	19.652	906.116	691.345
218.694	19.719	905.476	691.064
219.709	19.678	904.653	690.209
220.723	19.557	904.557	689.595
221.738	19.566	903.292	688.602
222.753	19.639	902.449	688.189
223.767	19.522	902.342	687.581
224.782	19.815	901.754	688.238
225.796	19.765	901.664	687.912
226.811	19.723	900.586	686.860
227.826	19.584	899.764	685.620
228.840	19.516	899.111	684.793
229.855	19.527	898.127	684.027
230.869	19.513	897.232	683.230
231.884	19.325	897.123	682.343
232.899	19.276	896.313	681.470
233.913	19.225	895.809	680.826
234.928	19.082	895.101	679.665
235.942	19.134	894.435	679.302
236.957	19.174	893.788	678.911
237.972	19.175	892.978	678.236
238.986	19.223	892.579	678.064
240.001	19.296	891.914	677.785
241.015	19.341	891.391	677.503
242.030	19.350	891.258	677.381
243.045	19.479	890.390	677.167
244.059	19.428	889.911	676.541
245.074	19.591	889.332	676.681
246.088	19.619	888.678	676.233
247.103	19.726	888.322	676.320
248.117	19.970	887.990	676.961
249.132	20.216	887.713	677.652
250.147	20.396	886.896	677.672
251.161	20.379	886.623	677.337
252.176	20.562	885.436	677.082
253.190	20.447	885.144	676.353
254.205	20.620	884.439	676.425
255.220	20.455	883.882	675.297
256.234	20.417	883.426	674.744
257.249	20.456	882.449	674.089
258.263	20.483	881.832	673.662
259.278	20.483	880.999	672.965
260.293	20.550	880.747	672.972
261.307	20.550	880.292	672.567
262.322	20.554	879.905	672.225
263.336	20.718	878.948	672.067
264.351	20.668	878.223	671.263
265.366	20.715	877.545	670.867
266.380	20.607	877.345	670.239
267.395	20.450	876.256	668.740
268.409	20.272	875.664	667.546
269.424	20.365	874.661	667.081
270.439	20.450	873.764	666.662
271.453	20.297	873.288	665.656
272.468	20.236	872.821	665.004
273.482	20.277	871.992	664.471
274.497	20.166	871.445	663.571
275.512	20.266	870.735	663.355
276.526	20.338	870.509	663.400
277.541	20.458	869.910	663.340
278.555	20.626	869.500	663.611
279.570	20.862	869.066	664.121
280.585	20.709	868.220	662.833
281.599	20.549	867.073	661.289
282.614	20.307	866.785	660.093
283.628	20.437	865.902	659.857
284.643	20.478	865.551	659.685
285.657	20.418	864.903	658.905
286.672	20.335	864.464	658.196
287.687	20.458	863.611	657.956
288.701	20.427	863.392	657.613
289.716	20.539	862.385	657.212
290.730	20.577	861.945	656.960
291.745	20.595	861.422	656.574
292.760	20.623	860.964	656.273
293.774	20.868	860.495	656.780
294.789	20.774	859.624	655.701
295.803	20.618	859.040	654.612
296.818	20.508	858.261	653.548
297.833	20.487	857.513	652.840
298.847	20.562	857.027	652.694
299.862	20.689	856.497	652.707
300.876	20.580	856.488	652.237
301.891	20.917	855.794	652.913
302.906	20.876	855.337	652.351
303.920	21.227	854.648	653.081
304.935	21.226	854.130	652.624
305.949	21.000	853.478	651.226
306.964	20.890	853.082	650.456
307.979	20.834	851.796	649.209
308.993	20.909	851.985	649.572
310.008	20.962	851.643	649.452
311.022	20.930	850.683	648.544
312.037	20.753	849.828	647.179
313.052	20.638	849.071	646.115
314.066	20.560	848.364	645.230
315.081	20.628	847.964	645.123
316.095	20.632	847.035	644.375
317.110	20.540	846.778	643.779
318.125	20.607	846.101	643.456
319.139	20.575	845.608	642.906
320.154	20.689	845.248	642.999
321.168	20.596	844.741	642.212
322.183	20.844	844.319	642.749
323.197	20.731	843.908	641.963
324.212	20.820	843.270	641.749
325.227	20.647	842.980	640.834
326.241	20.709	841.961	640.230
327.256	20.620	841.716	639.659
328.270	20.576	841.029	638.921
329.285	20.595	840.588	638.596
330.300	20.553	839.963	637.913
331.314	20.590	839.825	637.887
332.329	21.083	838.700	638.780
333.343	20.981	838.552	638.239
334.358	21.049	838.103	638.087
335.373	20.895	838.029	637.414
336.387	21.013	837.620	637.477
337.402	21.106	837.376	637.574
338.416	21.291	836.914	637.843
339.431	21.332	836.987	637.991
340.446	21.434	836.617	638.025
341.460	21.390	836.181	637.473
342.475	21.614	835.597	637.788
343.489	21.496	835.131	636.947
344.504	21.853	834.855	637.980
345.519	21.838	834.380	637.505
346.533	21.644	833.901	636.378
347.548	21.277	833.326	634.552
348.562	21.294	832.282	633.762
349.577	21.012	831.757	632.283
350.592	20.927	830.937	631.294
351.606	21.058	830.393	631.300
352.621	21.061	829.280	630.409
353.635	21.031	828.984	630.019
354.650	21.142	828.555	630.040
355.665	21.201	827.773	629.602
356.679	21.352	827.197	629.652
357.694	21.299	826.841	629.135
358.708	21.320	826.270	628.719
359.723	21.385	825.191	628.078
360.738	21.555	824.638	628.210
361.752	21.399	824.526	627.511
362.767	21.544	824.326	627.824
363.781	21.747	823.652	627.980
364.796	21.844	823.185	627.916
365.810	22.001	822.900	628.204
366.825	21.946	822.790	627.871
367.840	21.792	822.091	626.730
368.854	21.796	821.457	626.204
369.869	21.636	820.942	625.187
370.883	21.607	820.771	624.896
371.898	21.896	820.259	625.483
372.913	21.967	819.942	625.439
373.927	21.840	819.162	624.335
374.942	21.629	819.231	623.583
375.956	21.953	818.459	624.091
376.971	22.182	818.030	624.522
377.986	22.088	817.672	623.860
379.000	22.219	817.146	623.869
380.015	21.988	816.687	622.644
381.029	22.077	816.054	622.421
382.044	22.055	815.395	621.786
383.059	22.175	814.835	621.728
384.073	22.178	813.779	620.879
385.088	21.710	813.623	619.050
386.102	21.710	812.776	618.353
387.117	21.603	812.569	617.764
388.132	21.608	811.944	617.249
389.146	21.816	811.506	617.596
390.161	21.986	811.089	617.823
391.175	22.062	810.742	617.768
392.190	21.929	809.855	616.572
393.205	21.803	809.132	615.525
394.219	21.727	809.106	615.185
395.234	21.678	808.530	614.520
396.248	21.599	807.902	613.711
397.263	21.506	807.672	613.157
398.278	21.537	807.085	612.764
399.292	21.503	806.666	612.274
400.307	21.822	806.009	612.835
401.321	21.590	805.863	611.858
402.336	21.794	805.140	611.970
403.350	22.052	804.652	612.443
404.365	21.955	804.591	612.005
405.380	22.148	804.079	612.234
406.394	22.200	803.671	612.050
407.409	22.350	803.392	612.306
408.423	22.354	803.205	612.124
409.438	22.350	802.839	611.777
410.453	22.533	802.415	612.033
411.467	22.514	801.889	611.513
412.482	22.552	801.672	611.426
413.496	22.747	801.064	611.585
414.511	22.599	800.629	610.683
415.526	22.616	800.304	610.440
416.540	22.705	799.638	610.185
417.555	22.471	799.049	608.874
418.569	22.463	798.938	608.708
419.584	22.558	798.348	608.534
420.599	22.423	798.393	608.049
421.613	163.697	1369.561	1794.957
422.628	142.174	1452.800	1795.045
