DTS Sentinel unit serial number:	SN413079Multiplexer serial number:	ORYXHardware model number:	OX4-SRSoftware version number:	ORYX F/W v4.00 Oryx Data Collector v3.7.2.0data status	okinstallation	princeton_trtdifferential loss correction	single-endedforward channel	channel 1reverse channel	N/Adate	2019/09/17time	18:18:35forward acquisition time	60.00reverse acquisition time	0.00gamma	496.2192k internal	0.2290k external	0.2290temperature offset calibration	0.9954default loss term (dB/km)	0.3790temperature slope calibration	1.0000multiplexer offset coefficient	1.0000multiplexer slope coefficient	1.0000fibre end	0.00T internal ref (°C)	43.34T ext. ref 1 (°C)	0.29T ext. ref 2 (°C)	37.24length (m)	temperature (°C)	Stokes	anti-Stokes-747.200	55.029	-0.280	0.277
-746.185	-200.000	-0.075	-0.393
-745.171	-120.575	0.152	0.026
-744.156	-58.715	0.291	0.129
-743.142	-153.666	-0.120	-0.008
-742.127	-32.422	-0.393	-0.225
-741.112	800.000	0.067	-0.265
-740.098	800.000	0.045	0.132
-739.083	800.000	0.054	-0.171
-738.069	-68.638	-0.272	0.108
-737.054	800.000	0.114	-0.423
-736.039	-200.000	0.003	0.291
-735.025	480.111	0.099	0.229
-734.010	-200.000	0.009	0.044
-732.996	-16.025	-0.334	-0.217
-731.981	-37.081	-0.092	-0.051
-730.966	-171.110	-0.163	0.006
-729.952	23.308	0.101	0.085
-728.937	353.251	-0.096	-0.194
-727.923	-200.000	-0.032	-0.355
-726.908	67.836	-0.084	0.088
-725.894	-200.000	0.025	-0.258
-724.879	-17.584	-0.126	0.081
-723.864	-200.000	-0.005	0.065
-722.850	-200.000	0.004	0.058
-721.835	351.233	-0.120	0.243
-720.821	-112.899	-0.274	0.056
-719.806	357.464	0.203	0.415
-718.791	-85.308	0.119	-0.038
-717.777	380.405	-0.067	-0.141
-716.762	247.671	0.132	-0.228
-715.748	65.071	0.099	-0.102
-714.733	-200.000	-0.005	-0.178
-713.718	-200.000	0.005	0.191
-712.704	169.890	-0.151	0.221
-711.689	32.199	-0.099	0.088
-710.675	800.000	-0.053	0.193
-709.660	701.549	0.033	-0.090
-708.645	64.414	0.296	-0.305
-707.631	-72.567	0.121	-0.046
-706.616	182.160	-0.125	0.189
-705.602	-4.068	0.125	-0.089
-704.587	-153.461	-0.257	-0.018
-703.572	122.314	0.076	0.097
-702.558	141.015	0.317	-0.429
-701.543	-158.227	-0.066	-0.004
-700.529	-4.078	0.414	0.293
-699.514	7.727	0.147	0.112
-698.499	800.000	-0.070	0.265
-697.485	800.000	-0.051	0.149
-696.470	-200.000	-0.113	-0.550
-695.456	-49.598	0.284	0.138
-694.441	-109.942	-0.365	-0.078
-693.426	90.097	0.071	-0.081
-692.412	-54.582	0.136	0.063
-691.397	-200.000	-0.019	-0.116
-690.383	32.805	0.161	0.142
-689.368	-200.000	0.053	0.318
-688.354	-200.000	0.025	0.207
-687.339	31.216	-0.246	-0.215
-686.324	-64.174	0.140	0.058
-685.310	-200.000	-0.041	-0.343
-684.295	48.077	-0.096	-0.092
-683.281	225.701	-0.015	-0.025
-682.266	-173.089	-0.188	-0.006
-681.251	-63.223	-0.132	-0.055
-680.237	-138.667	0.149	0.017
-679.222	47.528	-0.083	-0.079
-678.208	-200.000	-0.009	0.331
-677.193	-4.408	0.281	-0.199
-676.178	41.321	-0.096	-0.088
-675.164	87.721	0.160	-0.181
-674.149	334.613	-0.068	-0.134
-673.135	-118.728	0.338	-0.061
-672.120	20.380	-0.175	0.144
-671.105	50.603	-0.095	0.092
-670.091	-46.895	-0.115	-0.057
-669.076	-99.248	-0.033	-0.009
-668.062	-51.782	0.172	-0.082
-667.047	-200.000	0.002	-0.146
-666.032	57.778	-0.223	0.223
-665.018	-200.000	-0.030	-0.193
-664.003	-104.245	-0.112	0.027
-662.989	170.924	0.268	0.393
-661.974	-7.714	0.182	-0.126
-660.959	72.322	0.129	0.137
-659.945	16.654	0.256	0.207
-658.930	31.979	-0.168	-0.148
-657.916	13.769	-0.248	-0.197
-656.901	-67.084	-0.126	0.051
-655.886	-180.867	-0.209	0.004
-654.872	-5.231	0.094	-0.066
-653.857	-48.033	-0.227	-0.112
-652.843	113.292	0.140	0.174
-651.828	252.483	0.106	0.184
-650.814	4.020	0.224	-0.167
-649.799	-47.459	0.358	0.178
-648.784	-88.597	-0.076	0.023
-647.770	800.000	-0.032	0.100
-646.755	126.448	0.111	0.143
-645.741	-18.000	0.074	-0.047
-644.726	-200.000	-0.031	-0.142
-643.711	-200.000	-0.002	-0.276
-642.697	-89.457	-0.364	-0.109
-641.682	-121.394	-0.237	0.040
-640.668	81.001	0.180	-0.198
-639.653	-149.757	-0.293	0.023
-638.638	-69.303	-0.081	-0.032
-637.624	-200.000	0.022	-0.180
-636.609	73.640	-0.148	0.159
-635.595	-152.723	0.194	-0.014
-634.580	-190.882	-0.117	0.001
-633.565	-17.425	-0.146	0.094
-632.551	-200.000	0.024	-0.146
-631.536	98.184	-0.162	-0.190
-630.522	-200.000	0.024	-0.297
-629.507	-200.000	-0.044	0.407
-628.492	-9.137	0.185	0.126
-627.478	48.919	-0.137	0.131
-626.463	74.681	0.262	0.281
-625.449	-44.950	0.193	0.098
-624.434	52.338	-0.430	-0.418
-623.419	-200.000	-0.002	0.073
-622.405	-86.179	-0.251	0.079
-621.390	-91.133	-0.191	0.056
-620.376	-84.638	0.230	0.074
-619.361	318.380	0.107	-0.207
-618.346	-200.000	-0.024	0.265
-617.332	5.197	0.037	-0.027
-616.317	-23.390	-0.205	-0.126
-615.303	430.419	-0.127	-0.280
-614.288	-87.755	0.223	-0.068
-613.273	274.333	-0.186	0.335
-612.259	45.024	0.265	-0.249
-611.244	-200.000	-0.049	-0.258
-610.230	763.329	-0.050	0.138
-609.215	108.283	0.199	0.242
-608.201	-200.000	-0.053	-0.251
-607.186	-130.286	0.212	-0.029
-606.171	-5.565	-0.450	-0.314
-605.157	160.449	-0.092	-0.131
-604.142	-200.000	-0.075	0.436
-603.128	334.558	-0.059	-0.117
-602.113	-84.047	0.120	-0.039
-601.098	800.000	0.023	0.067
-600.084	-114.843	0.516	0.100
-599.069	-200.000	0.005	0.332
-598.055	174.549	0.184	-0.272
-597.040	220.193	0.026	0.042
-596.025	97.360	-0.072	-0.085
-595.011	-54.193	-0.309	0.143
-593.996	-87.206	0.218	-0.067
-592.982	266.634	0.018	0.031
-591.967	-200.000	-0.045	-0.204
-590.952	-123.249	0.253	-0.041
-589.938	-27.486	0.147	-0.087
-588.923	-70.716	-0.223	0.086
-587.909	-27.276	-0.125	-0.074
-586.894	21.404	0.372	0.308
-585.879	-41.820	-0.047	0.025
-584.865	-145.341	-0.026	0.002
-583.850	800.000	0.124	-0.449
-582.836	104.036	0.092	-0.110
-581.821	11.895	0.047	-0.037
-580.806	364.699	-0.176	0.361
-579.792	-66.701	0.208	-0.084
-578.777	-153.798	-0.204	-0.014
-577.763	-83.366	-0.173	-0.056
-576.748	-175.010	0.309	0.009
-575.733	-71.915	-0.157	0.059
-574.719	2.678	0.211	-0.155
-573.704	1.679	-0.194	-0.142
-572.690	202.858	0.222	0.349
-571.675	2.433	-0.215	0.159
-570.661	21.942	0.215	0.178
-569.646	147.180	0.269	-0.368
-568.631	-200.000	0.051	-0.228
-567.617	91.940	0.199	0.228
-566.602	-200.000	0.018	0.235
-565.588	22.923	-0.336	0.280
-564.573	-200.000	-0.048	0.329
-563.558	-6.086	-0.069	0.048
-562.544	-106.153	-0.233	-0.053
-561.529	144.918	-0.084	0.114
-560.515	211.985	-0.051	0.082
-559.500	-8.446	0.163	-0.111
-558.485	-125.772	-0.049	0.008
-557.471	-166.658	-0.241	-0.010
-556.456	-200.000	-0.065	-0.423
-555.442	65.033	0.085	0.087
-554.427	800.000	-0.028	0.098
-553.412	800.000	-0.098	0.342
-552.398	-6.833	-0.159	-0.110
-551.383	344.432	0.122	0.244
-550.369	12.991	0.111	-0.088
-549.354	-77.514	-0.192	0.068
-548.339	33.623	0.162	0.143
-547.325	-200.000	-0.020	-0.254
-546.310	-200.000	0.002	0.034
-545.296	467.712	0.059	0.135
-544.281	698.344	-0.051	0.137
-543.266	227.116	0.142	0.234
-542.252	-40.359	0.099	-0.052
-541.237	265.329	0.044	0.078
-540.223	-200.000	-0.003	0.150
-539.208	-200.000	-0.078	-0.476
-538.193	792.538	0.030	-0.084
-537.179	53.652	0.153	-0.149
-536.164	800.000	0.055	0.221
-535.150	-109.295	0.166	0.036
-534.135	427.234	0.118	-0.259
-533.121	2.486	0.044	0.032
-532.106	225.287	0.223	-0.366
-531.091	800.000	0.022	0.063
-530.077	-132.937	0.254	0.033
-529.062	-97.346	0.173	-0.046
-528.048	28.379	0.095	0.082
-527.033	-200.000	0.001	0.410
-526.018	60.385	-0.086	-0.087
-525.004	-84.788	0.366	0.117
-523.989	200.969	0.115	-0.179
-522.975	-200.000	0.035	-0.221
-521.960	-46.393	0.227	0.113
-520.945	93.420	0.181	0.208
-519.931	61.102	-0.091	-0.092
-518.916	138.957	-0.030	0.039
-517.902	355.934	-0.161	-0.325
-516.887	2.060	0.300	0.220
-515.872	-50.594	0.237	0.113
-514.858	14.358	0.078	0.062
-513.843	-146.505	0.180	0.016
-512.829	-182.026	-0.251	-0.005
-511.814	101.298	-0.081	0.096
-510.799	113.163	-0.025	-0.031
-509.785	800.000	-0.034	-0.146
-508.770	91.824	-0.157	-0.179
-507.756	-116.061	0.109	-0.021
-506.741	184.252	-0.144	-0.216
-505.726	41.726	-0.271	-0.250
-504.712	-26.062	-0.397	0.237
-503.697	-122.303	-0.049	0.008
-502.683	-200.000	-0.031	-0.144
-501.668	32.429	-0.130	-0.114
-500.653	547.192	-0.126	0.306
-499.639	-200.000	0.021	0.116
-498.624	136.121	0.253	-0.334
-497.610	140.362	0.092	0.123
-496.595	-200.000	-0.069	-0.343
-495.581	-200.000	0.019	-0.090
-494.566	-105.990	-0.290	0.066
-493.551	-165.592	-0.168	-0.007
-492.537	-200.000	0.014	-0.113
-491.522	800.000	-0.092	-0.400
-490.508	-146.475	-0.320	-0.028
-489.493	123.585	-0.151	-0.192
-488.478	-138.170	-0.461	-0.052
-487.464	380.764	-0.093	-0.193
-486.449	800.000	0.009	0.028
-485.435	37.636	-0.236	-0.212
-484.420	-127.890	0.164	-0.024
-483.405	800.000	-0.048	-0.137
-482.391	800.000	-0.034	0.133
-481.376	-96.369	-0.152	-0.041
-480.362	591.501	0.094	0.235
-479.347	-98.456	-0.240	0.062
-478.332	800.000	-0.109	0.369
-477.318	-117.696	-0.194	-0.035
-476.303	-68.718	0.304	-0.119
-475.289	287.339	-0.149	-0.272
-474.274	800.000	-0.056	0.190
-473.259	24.012	-0.070	-0.058
-472.245	-89.940	0.203	-0.060
-471.230	71.866	0.215	0.227
-470.216	-200.000	-0.013	0.307
-469.201	4.298	0.015	-0.011
-468.186	-17.708	-0.108	-0.069
-467.172	43.823	0.154	0.143
-466.157	-66.512	0.294	-0.118
-465.143	800.000	-0.107	0.304
-464.128	-200.000	0.036	-0.246
-463.113	-77.194	0.215	0.076
-462.099	-200.000	0.018	-0.222
-461.084	-115.010	-0.179	0.034
-460.070	-112.635	0.206	-0.041
-459.055	259.134	-0.011	-0.018
-458.040	800.000	0.024	-0.100
-457.026	62.771	-0.117	0.118
-456.011	-200.000	0.007	-0.042
-454.997	38.783	-0.141	0.127
-453.982	-124.990	0.646	-0.101
-452.968	181.523	0.152	0.227
-451.953	-200.000	0.009	0.058
-450.938	-200.000	0.002	0.279
-449.924	-82.937	-0.174	0.057
-448.909	-31.258	0.083	0.047
-447.895	90.949	0.132	0.150
-446.880	22.623	0.257	-0.213
-445.865	-13.714	0.203	-0.133
-444.851	116.588	0.072	-0.090
-443.836	67.019	0.163	0.168
-442.822	466.779	0.036	0.082
-441.807	186.045	-0.044	0.067
-440.792	16.777	-0.055	-0.044
-439.778	-74.750	-0.217	-0.079
-438.763	800.000	-0.152	0.523
-437.749	163.839	0.047	0.067
-436.734	620.525	0.051	-0.131
-435.719	194.342	-0.177	-0.272
-434.705	10.927	0.146	0.113
-433.690	93.376	-0.248	-0.284
-432.676	-21.993	0.181	-0.111
-431.661	124.035	0.151	0.192
-430.646	570.536	-0.182	0.447
-429.632	-81.026	-0.018	-0.006
-428.617	-200.000	0.033	0.152
-427.603	268.393	0.091	0.162
-426.588	-200.000	0.013	-0.277
-425.573	800.000	-0.027	-0.079
-424.559	-66.613	-0.229	0.092
-423.544	-62.915	-0.054	-0.023
-422.530	-200.000	-0.002	0.167
-421.515	117.477	-0.170	0.211
-420.500	298.068	-0.066	0.122
-419.486	800.000	0.037	0.118
-418.471	52.369	0.120	-0.115
-417.457	-200.000	0.024	-0.202
-416.442	800.000	0.065	-0.202
-415.428	-58.533	-0.214	0.094
-414.413	-91.802	0.159	-0.046
-413.398	146.022	0.090	-0.122
-412.384	57.776	0.179	-0.177
-411.369	475.188	0.046	-0.106
-410.355	318.137	-0.070	-0.135
-409.340	219.961	-0.050	0.082
-408.325	51.694	-0.197	-0.189
-407.311	800.000	0.025	-0.071
-406.296	-200.000	-0.039	0.312
-405.282	320.559	-0.136	0.262
-404.267	-200.000	-0.036	-0.182
-403.252	-66.044	0.127	0.051
-402.238	22.939	-0.205	-0.170
-401.223	-29.303	-0.262	-0.152
-400.209	49.332	-0.323	0.307
-399.194	203.974	-0.214	0.335
-398.179	36.839	-0.108	-0.097
-397.165	-48.333	-0.034	-0.017
-396.150	-170.584	0.245	-0.009
-395.136	-135.025	0.569	0.069
-394.121	-96.903	0.334	0.088
-393.106	-50.021	-0.144	-0.069
-392.092	-200.000	0.022	0.218
-391.077	443.588	0.056	0.123
-390.063	-169.344	-0.327	-0.012
-389.048	-95.682	-0.243	0.066
-388.033	237.972	-0.149	0.250
-387.019	-53.084	0.272	0.126
-386.004	-68.586	-0.090	-0.035
-384.990	66.008	0.160	0.164
-383.975	93.553	-0.034	0.039
-382.960	-83.567	-0.088	-0.028
-381.946	-200.000	0.000	-0.252
-380.931	-125.485	0.072	-0.011
-379.917	-85.942	-0.159	0.050
-378.902	-200.000	-0.029	0.354
-377.888	498.576	0.199	0.462
-376.873	-107.637	-0.166	0.037
-375.858	-29.789	0.251	-0.145
-374.844	800.000	-0.079	0.255
-373.829	-102.960	0.277	-0.066
-372.815	-46.199	-0.275	-0.137
-371.800	-93.004	-0.274	-0.077
-370.785	-72.171	0.219	0.082
-369.771	14.193	0.138	0.108
-368.756	800.000	0.091	-0.374
-367.742	-38.574	0.198	-0.105
-366.727	190.422	0.128	0.194
-365.712	160.558	-0.142	-0.200
-364.698	338.532	0.065	-0.128
-363.683	-144.559	-0.054	-0.005
-362.669	-2.414	-0.241	-0.170
-361.654	50.756	0.261	-0.249
-360.639	-95.951	0.162	0.044
-359.625	6.203	-0.151	0.113
-358.610	456.614	-0.174	-0.391
-357.596	-136.224	-0.176	-0.021
-356.581	68.998	-0.128	-0.133
-355.566	-200.000	-0.024	-0.394
-354.552	1.900	0.231	0.168
-353.537	-127.518	-0.186	0.027
-352.523	115.934	-0.158	-0.195
-351.508	191.516	0.095	-0.144
-350.493	-200.000	-0.024	0.134
-349.479	-133.097	0.234	-0.030
-348.464	-200.000	-0.059	0.395
-347.450	-18.119	0.166	-0.105
-346.435	-74.887	0.081	0.029
-345.420	-35.431	0.335	0.184
-344.406	514.479	-0.122	0.287
-343.391	-200.000	-0.069	-0.406
-342.377	-200.000	-0.009	-0.138
-341.362	-200.000	0.008	-0.242
-340.348	173.520	0.062	0.090
-339.333	213.421	-0.194	-0.310
-338.318	800.000	-0.068	0.207
-337.304	-200.000	-0.081	0.370
-336.289	-44.963	-0.339	-0.170
-335.275	-90.616	-0.259	-0.075
-334.260	-200.000	-0.005	-0.047
-333.245	-72.829	-0.201	0.075
-332.231	705.442	-0.057	-0.152
-331.216	-200.000	-0.018	-0.256
-330.202	150.846	0.313	0.429
-329.187	-178.752	0.033	0.001
-328.172	-114.974	-0.155	-0.030
-327.158	77.855	-0.113	0.121
-326.143	217.026	0.214	0.343
-325.129	-200.000	-0.017	0.380
-324.114	715.076	0.021	-0.055
-323.099	800.000	0.031	-0.087
-322.085	125.459	0.108	-0.137
-321.070	220.346	-0.310	-0.501
-320.056	-58.018	-0.279	-0.123
-319.041	-95.379	0.099	0.027
-318.026	216.753	-0.131	0.209
-317.012	-123.244	-0.259	0.042
-315.997	699.236	0.051	0.135
-314.983	-200.000	-0.003	0.185
-313.968	-79.810	0.394	0.134
-312.953	-88.350	-0.059	0.018
-311.939	90.514	0.117	0.132
-310.924	-1.309	0.347	0.247
-309.910	-35.370	-0.133	0.073
-308.895	34.633	-0.180	0.159
-307.880	-101.105	0.154	0.038
-306.866	800.000	-0.044	-0.191
-305.851	-5.351	-0.237	0.164
-304.837	800.000	0.064	0.182
-303.822	-59.140	-0.303	-0.131
-302.807	-19.650	-0.121	-0.076
-301.793	-8.222	0.296	-0.201
-300.778	800.000	0.067	-0.247
-299.764	-60.483	0.136	-0.058
-298.749	39.287	-0.070	0.063
-297.735	-200.000	0.022	-0.314
-296.720	800.000	-0.105	0.314
-295.705	-11.719	0.107	0.071
-294.691	-104.325	-0.052	0.012
-293.676	800.000	0.024	-0.071
-292.662	-24.931	0.071	0.042
-291.647	607.859	-0.052	-0.130
-290.632	-21.174	0.211	0.130
-289.618	1.739	0.107	0.078
-288.603	671.748	-0.058	-0.152
-287.589	-200.000	-0.003	-0.324
-286.574	-200.000	-0.039	0.180
-285.559	-200.000	-0.013	0.058
-284.545	-49.320	-0.100	0.048
-283.530	171.793	-0.027	0.039
-282.516	-152.056	-0.187	0.014
-281.501	-122.241	-0.271	-0.045
-280.486	529.649	-0.058	-0.138
-279.472	-200.000	-0.018	-0.185
-278.457	-200.000	0.048	0.424
-277.443	319.758	-0.095	0.180
-276.428	-108.267	0.331	-0.072
-275.413	-157.357	-0.146	-0.009
-274.399	-20.276	-0.143	-0.089
-273.384	112.991	-0.137	0.167
-272.370	-32.134	0.187	-0.105
-271.355	148.840	-0.194	0.263
-270.340	-45.589	-0.309	0.154
-269.326	60.092	-0.082	-0.081
-268.311	-200.000	0.013	-0.161
-267.297	-39.071	-0.132	0.070
-266.282	175.774	0.196	0.286
-265.267	-200.000	0.033	0.201
-264.253	-2.592	-0.342	0.241
-263.238	-97.893	0.132	0.034
-262.224	208.841	0.196	0.308
-261.209	-74.731	-0.129	0.047
-260.195	59.872	0.201	-0.200
-259.180	783.283	0.080	0.221
-258.165	146.091	-0.130	-0.175
-257.151	7.477	0.139	-0.104
-256.136	-109.787	-0.032	0.007
-255.122	33.096	0.170	0.148
-254.107	-33.424	-0.089	-0.050
-253.092	-148.189	-0.194	0.016
-252.078	-54.027	0.198	0.090
-251.063	-200.000	-0.024	0.119
-250.049	-143.930	0.211	0.020
-249.034	40.510	-0.199	-0.180
-248.019	224.464	0.167	-0.272
-247.005	77.356	-0.183	0.196
-245.990	-200.000	0.013	-0.074
-244.976	411.678	-0.022	-0.047
-243.961	-68.362	0.233	0.091
-242.946	-17.625	-0.211	0.133
-241.932	-60.713	-0.166	-0.071
-240.917	-67.431	0.135	-0.053
-239.903	658.393	-0.135	-0.349
-238.888	-48.325	0.205	0.099
-237.873	-200.000	0.002	-0.388
-236.859	-200.000	0.024	-0.297
-235.844	206.449	0.135	-0.211
-234.830	-145.212	0.118	-0.011
-233.815	266.436	-0.102	0.179
-232.800	-200.000	-0.004	0.028
-231.786	-23.285	0.253	-0.153
-230.771	-200.000	0.037	0.252
-229.757	102.339	0.281	0.330
-228.742	-180.661	0.335	0.007
-227.727	-47.122	0.131	-0.064
-226.713	-31.095	-0.306	-0.173
-225.698	-107.802	-0.189	-0.041
-224.684	-125.098	0.098	-0.015
-223.669	-200.000	0.012	-0.214
-222.655	-139.567	-0.217	-0.023
-221.640	433.465	0.034	0.074
-220.625	-200.000	-0.002	-0.223
-219.611	589.455	0.103	-0.255
-218.596	800.000	-0.055	0.155
-217.582	-146.489	-0.103	-0.009
-216.567	800.000	-0.128	-0.498
-215.552	-21.315	-0.323	0.198
-214.538	19.205	-0.204	-0.164
-213.523	-144.991	0.171	0.016
-212.509	-37.741	-0.340	0.182
-211.494	56.188	0.178	0.173
-210.479	-119.034	0.104	0.018
-209.465	-68.600	-0.022	-0.009
-208.450	-97.324	0.346	0.090
-207.436	800.000	0.100	-0.289
-206.421	404.487	0.043	0.090
-205.406	-200.000	-0.001	-0.086
-204.392	-200.000	-0.009	-0.307
-203.377	605.792	0.089	-0.223
-202.363	-200.000	-0.003	-0.093
-201.348	-91.750	-0.133	0.038
-200.333	-112.614	0.149	-0.030
-199.319	174.885	-0.078	0.114
-198.304	3.983	-0.265	0.194
-197.290	70.534	-0.101	-0.104
-196.275	-114.831	0.489	0.093
-195.260	396.587	0.151	-0.317
-194.246	146.502	-0.291	-0.392
-193.231	-100.628	-0.151	0.037
-192.217	800.000	0.033	0.132
-191.202	231.137	0.070	0.114
-190.187	210.811	0.176	-0.277
-189.173	22.476	0.204	-0.167
-188.158	-94.927	0.091	0.025
-187.144	-200.000	-0.013	0.351
-186.129	-19.137	0.383	-0.238
-185.114	48.879	-0.045	-0.042
-184.100	-200.000	0.043	-0.189
-183.085	52.987	0.033	-0.032
-182.071	-200.000	0.021	0.099
-181.056	148.331	-0.115	0.156
-180.042	-165.170	-0.166	-0.007
-179.027	800.000	0.020	0.088
-178.012	-130.829	0.328	0.044
-176.998	-8.612	0.128	-0.086
-175.983	-69.455	-0.176	0.068
-174.969	-162.850	-0.288	-0.014
-173.954	-200.000	0.014	0.067
-172.939	-200.000	0.021	0.165
-171.925	86.542	-0.181	0.200
-170.910	-143.708	0.160	0.015
-169.896	-49.996	-0.018	0.008
-168.881	800.000	0.127	0.386
-167.866	-71.089	0.216	-0.081
-166.852	-129.156	-0.146	0.020
-165.837	-103.808	0.249	0.058
-164.823	27.594	0.143	-0.120
-163.808	6.010	0.289	-0.215
-162.793	-200.000	0.009	-0.077
-161.779	-128.844	-0.353	-0.050
-160.764	132.803	0.111	0.144
-159.750	800.000	0.057	-0.161
-158.735	-112.298	-0.145	0.029
-157.720	-170.358	0.218	0.008
-156.706	173.307	0.057	-0.083
-155.691	-157.182	-0.133	-0.008
-154.677	-200.000	-0.002	-0.038
-153.662	-44.526	-0.157	0.078
-152.647	194.641	-0.140	-0.212
-151.633	-132.605	-0.130	0.017
-150.618	140.524	-0.210	0.277
-149.604	650.784	0.068	0.175
-148.589	-200.000	-0.018	-0.136
-147.574	800.000	-0.180	-0.536
-146.560	-33.047	-0.162	0.090
-145.545	-200.000	-0.021	0.113
-144.531	-200.000	0.027	-0.202
-143.516	800.000	-0.107	-0.420
-142.502	3.931	-0.155	-0.113
-141.487	187.990	0.015	-0.022
-140.472	800.000	0.053	-0.157
-139.458	-200.000	0.009	0.189
-138.443	143.829	-0.004	-0.005
-137.429	-52.742	0.351	-0.162
-136.414	-75.990	0.178	0.063
-135.399	651.336	0.080	0.205
-134.385	-200.000	0.046	0.390
-133.370	-200.000	0.020	-0.269
-132.356	-2.042	0.307	0.216
-131.341	-200.000	0.038	-0.256
-130.326	225.117	-0.147	-0.237
-129.312	-114.607	-0.149	-0.029
-128.297	-200.000	0.030	-0.254
-127.283	397.632	0.125	-0.262
-126.268	800.000	0.030	0.098
-125.253	-109.321	0.176	-0.037
-124.239	-105.452	0.116	0.026
-123.224	-200.000	-0.016	-0.115
-122.210	-200.000	-0.018	0.353
-121.195	650.821	0.274	0.701
-120.180	16.400	0.043	0.034
-119.166	-11.426	0.207	-0.136
-118.151	-135.126	-0.258	-0.031
-117.137	-200.000	-0.003	-0.161
-116.122	-144.045	0.209	0.020
-115.107	175.477	0.278	-0.403
-114.093	19.773	-0.204	0.164
-113.078	11.449	0.167	-0.128
-112.064	-11.182	-0.199	0.131
-111.049	-136.216	-0.118	-0.014
-110.034	-79.602	-0.111	0.038
-109.020	-75.502	-0.151	-0.054
-108.005	294.652	0.050	-0.091
-106.991	-19.048	0.053	0.033
-105.976	800.000	0.067	0.211
-104.962	208.071	0.034	0.053
-103.947	305.471	-0.098	-0.182
-102.932	153.503	0.263	-0.360
-101.918	-44.468	-0.058	-0.029
-100.903	-147.505	0.237	0.020
-99.889	140.083	0.079	0.104
-98.874	800.000	0.014	0.057
-97.859	340.765	-0.034	0.067
-96.845	-141.039	-0.079	-0.008
-95.830	800.000	0.101	-0.367
-94.816	800.000	0.058	0.249
-93.801	391.790	0.173	-0.358
-92.786	800.000	-0.028	0.115
-91.772	-200.000	0.049	0.378
-90.757	456.073	0.172	0.381
-89.743	-10.644	0.195	0.129
-88.728	-11.469	-0.225	0.148
-87.713	-138.347	0.211	-0.023
-86.699	78.134	0.015	0.016
-85.684	800.000	-0.054	-0.213
-84.670	-127.636	-0.162	0.023
-83.655	134.889	0.071	-0.091
-82.640	-30.430	0.187	0.106
-81.626	101.101	0.115	0.134
-80.611	-64.278	0.370	0.150
-79.597	-78.823	-0.119	0.041
-78.582	-112.593	-0.214	-0.043
-77.567	184.565	0.307	0.454
-76.553	448.964	-0.076	0.166
-75.538	-200.000	0.005	-0.146
-74.524	-48.139	-0.270	0.130
-73.509	-55.419	-0.210	0.094
-72.494	-85.179	0.136	0.042
-71.480	-97.033	0.515	-0.134
-70.465	-123.982	0.103	0.016
-69.451	-187.659	0.205	0.003
-68.436	800.000	-0.029	0.126
-67.422	-73.665	0.470	0.171
-66.407	257.205	0.215	0.368
-65.392	91.183	0.225	-0.251
-64.378	344.182	-0.171	-0.334
-63.363	-166.034	0.346	0.015
-62.349	118.174	0.097	0.119
-61.334	106.688	-0.527	-0.623
-60.319	160.634	0.382	0.532
-59.305	-200.000	-0.035	-0.476
-58.290	113.887	0.438	0.531
-57.276	800.000	0.534	1.627
-56.261	-200.000	74.749	567.144
-55.246	557.704	1323.833	3182.648
-54.232	138.170	2572.388	3362.919
-53.217	121.563	2250.701	2796.640
-52.203	56.495	1681.776	1630.423
-51.188	47.554	1398.484	1300.009
-50.173	43.698	1350.645	1232.071
-49.159	61.978	1384.525	1375.553
-48.144	70.587	1402.828	1446.333
-47.130	47.806	1365.405	1270.602
-46.115	43.436	1349.545	1229.273
-45.100	43.211	1344.678	1223.428
-44.086	43.286	1341.848	1221.258
-43.071	43.159	1339.869	1218.644
-42.057	43.138	1337.581	1216.388
-41.042	43.198	1335.393	1214.713
-40.027	43.284	1333.837	1213.765
-39.013	43.307	1332.449	1212.593
-37.998	43.347	1329.843	1210.411
-36.984	43.343	1328.587	1209.193
-35.969	43.348	1326.792	1207.542
-34.954	43.435	1325.046	1206.425
-33.940	43.514	1323.316	1205.274
-32.925	43.297	1322.174	1202.897
-31.911	43.405	1320.915	1202.342
-30.896	43.491	1319.139	1201.189
-29.881	43.470	1317.685	1199.694
-28.867	43.460	1316.273	1198.302
-27.852	43.420	1314.885	1196.755
-26.838	43.417	1313.397	1195.334
-25.823	43.369	1311.878	1193.621
-24.809	43.335	1310.912	1192.495
-23.794	43.375	1309.342	1191.251
-22.779	43.463	1307.334	1189.896
-21.765	43.485	1306.105	1188.864
-20.750	43.383	1305.132	1187.331
-19.736	43.347	1303.637	1185.709
-18.721	43.345	1302.379	1184.507
-17.706	43.347	1301.494	1183.665
-16.692	43.376	1300.303	1182.708
-15.677	43.285	1299.196	1181.124
-14.663	43.360	1298.260	1180.662
-13.648	43.194	1297.079	1178.570
-12.633	43.328	1296.009	1178.334
-11.619	43.218	1295.075	1176.798
-10.604	43.241	1294.462	1176.324
-9.590	43.294	1292.949	1175.211
-8.575	43.174	1291.999	1173.603
-7.560	43.324	1290.636	1173.190
-6.546	43.164	1290.364	1171.966
-5.531	43.274	1289.511	1171.790
-4.517	43.259	1288.368	1170.614
-3.502	43.165	1287.749	1169.458
-2.487	43.323	1286.788	1169.455
-1.473	43.377	1282.995	1166.277
-0.458	42.196	1267.170	1145.100
0.556	35.516	1245.145	1094.145
1.571	29.349	1245.838	1059.362
2.586	26.592	1258.208	1053.766
3.600	24.564	1246.758	1032.375
4.615	17.665	1170.680	931.714
5.629	6.503	1087.156	808.205
6.644	0.800	1062.498	761.159
7.659	0.288	1059.383	756.293
8.673	0.028	1059.005	754.649
9.688	0.057	1057.826	753.891
10.702	0.257	1055.907	753.455
11.717	5.717	1063.814	786.488
12.731	14.536	1075.272	839.451
13.746	17.875	1078.047	858.364
14.761	17.087	1076.646	853.212
15.775	16.122	1074.501	846.595
16.790	15.113	1072.658	840.008
17.804	14.263	1070.778	834.204
18.819	13.932	1069.834	831.737
19.834	13.590	1068.885	829.215
20.848	13.429	1067.496	827.261
21.863	13.250	1066.671	825.655
22.877	13.101	1066.075	824.377
23.892	12.972	1065.377	823.121
24.907	12.959	1064.896	822.611
25.921	13.075	1063.806	822.274
26.936	13.039	1063.461	821.755
27.950	13.048	1062.572	821.039
28.965	13.195	1060.998	820.482
29.980	13.302	1059.357	819.668
30.994	13.308	1058.313	818.821
32.009	13.217	1057.831	817.924
33.023	13.284	1056.106	816.851
34.038	13.194	1055.584	815.929
35.053	13.245	1054.427	815.211
36.067	13.240	1053.812	814.639
37.082	13.131	1052.953	813.366
38.096	13.155	1052.529	813.086
39.111	13.238	1051.525	812.645
40.126	13.188	1050.139	811.260
41.140	12.964	1049.490	809.586
42.155	12.925	1048.455	808.526
43.169	13.049	1046.686	807.697
44.184	12.972	1046.248	806.911
45.199	13.072	1044.998	806.364
46.213	13.090	1043.705	805.383
47.228	13.081	1043.287	804.943
48.242	13.136	1041.805	803.995
49.257	13.014	1041.235	802.892
50.271	13.151	1040.299	802.767
51.286	13.096	1039.501	801.811
52.301	12.998	1038.648	800.608
53.315	13.141	1037.746	800.534
54.330	13.070	1036.289	798.995
55.344	13.072	1035.659	798.451
56.359	13.147	1034.766	798.051
57.374	12.984	1033.886	796.516
58.388	12.937	1033.073	795.594
59.403	12.975	1032.321	795.129
60.417	12.961	1031.260	794.172
61.432	12.939	1030.577	793.472
62.447	12.906	1029.796	792.641
63.461	12.868	1028.969	791.749
64.476	13.036	1027.669	791.488
65.490	12.862	1027.123	790.161
66.505	12.891	1026.316	789.609
67.520	13.040	1025.665	789.751
68.534	12.892	1025.104	788.544
69.549	12.889	1024.252	787.805
70.563	12.909	1023.482	787.239
71.578	12.936	1022.777	786.754
72.593	12.979	1021.777	786.120
73.607	12.881	1021.612	785.457
74.622	12.756	1021.302	784.555
75.636	12.890	1020.073	784.177
76.651	12.920	1019.142	783.533
77.666	12.885	1018.851	783.075
78.680	12.940	1017.897	782.532
79.695	12.920	1017.602	782.144
80.709	12.915	1017.012	781.595
81.724	13.088	1016.016	781.578
82.739	13.052	1015.198	780.712
83.753	12.977	1014.713	779.913
84.768	13.235	1013.249	779.937
85.782	13.128	1012.621	778.882
86.797	13.145	1011.621	778.122
87.812	13.106	1010.945	777.352
88.826	13.223	1009.354	776.610
89.841	13.104	1008.696	775.475
90.855	13.171	1008.074	775.241
91.870	13.265	1006.998	774.789
92.884	13.185	1006.290	773.800
93.899	13.262	1005.286	773.321
94.914	13.409	1004.348	773.217
95.928	13.320	1003.831	772.333
96.943	13.291	1002.733	771.285
97.957	13.131	1002.395	770.212
98.972	13.241	1000.931	769.531
99.987	13.214	1000.117	768.711
101.001	13.303	998.872	768.099
102.016	13.336	997.898	767.435
103.030	13.265	997.665	766.859
104.045	13.294	996.603	766.111
105.060	13.271	995.707	765.249
106.074	13.204	994.566	763.993
107.089	13.172	993.829	763.209
108.103	13.027	993.355	762.111
109.118	13.147	992.099	761.633
110.133	13.100	990.909	760.434
111.147	13.109	990.395	760.013
112.162	13.097	989.508	759.212
113.176	13.200	989.146	759.339
114.191	13.170	987.938	758.208
115.206	13.227	987.400	757.987
116.220	13.218	986.608	757.274
117.235	13.258	985.201	756.311
118.249	13.215	984.750	755.698
119.264	13.162	984.155	754.933
120.279	13.167	983.430	754.334
121.293	13.120	982.510	753.344
122.308	13.061	981.982	752.606
123.322	13.188	980.664	752.107
124.337	13.167	979.312	750.909
125.352	13.056	978.830	749.966
126.366	13.039	977.750	748.995
127.381	13.111	976.738	748.483
128.395	13.264	975.640	748.267
129.410	13.166	974.787	747.105
130.424	13.205	973.966	746.583
131.439	13.296	973.173	746.322
132.454	13.316	972.591	745.898
133.468	13.307	971.510	744.965
134.483	13.403	970.549	744.594
135.497	13.338	969.784	743.648
136.512	13.327	969.145	743.041
137.527	13.259	968.308	742.029
138.541	13.331	967.754	741.862
139.556	13.313	967.073	741.195
140.570	13.269	966.596	740.566
141.585	13.374	965.431	740.077
142.600	13.314	964.483	739.018
143.614	13.568	963.040	738.981
144.629	13.525	962.651	738.423
145.643	13.641	961.531	738.016
146.658	13.425	960.606	736.278
147.673	13.308	959.792	735.072
148.687	13.239	959.297	734.319
149.702	13.324	958.291	733.861
150.716	13.285	957.605	733.101
151.731	13.182	957.145	732.225
152.746	13.486	956.110	732.713
153.760	13.383	955.598	731.803
154.775	13.350	954.807	730.985
155.789	13.459	954.291	731.006
156.804	13.438	953.817	730.487
157.819	13.455	952.634	729.591
158.833	13.596	952.111	729.746
159.848	13.597	951.352	729.104
160.862	13.517	950.374	727.938
161.877	13.417	949.464	726.738
162.892	13.473	948.579	726.244
163.906	13.366	947.973	725.244
164.921	13.382	946.850	724.392
165.935	13.458	945.955	723.977
166.950	13.502	945.431	723.705
167.964	13.410	944.467	722.498
168.979	13.550	943.197	722.075
169.994	13.586	942.443	721.589
171.008	13.560	942.350	721.340
172.023	13.589	941.263	720.573
173.037	13.661	940.070	719.907
174.052	13.570	939.937	719.345
175.067	13.478	939.159	718.291
176.081	13.478	938.684	717.863
177.096	13.474	938.345	717.521
178.110	13.503	937.839	717.199
179.125	13.436	937.124	716.295
180.140	13.546	936.405	716.161
181.154	13.596	936.092	716.071
182.169	13.608	935.655	715.727
183.183	13.669	934.731	715.221
184.198	13.729	933.768	714.677
185.213	13.726	933.015	714.027
186.227	13.756	932.566	713.748
187.242	13.826	931.645	713.281
188.256	13.758	931.427	712.761
189.271	13.825	930.503	712.275
190.286	13.696	929.970	711.252
191.300	13.514	929.137	709.773
192.315	13.631	928.116	709.432
193.329	13.630	927.852	709.162
194.344	13.593	927.570	708.726
195.359	13.705	926.792	708.546
196.373	13.742	926.040	708.068
197.388	13.929	925.494	708.385
198.402	13.923	925.110	708.001
199.417	13.930	924.605	707.582
200.432	14.097	923.486	707.374
201.446	14.019	923.140	706.715
202.461	14.012	922.720	706.300
203.475	13.967	922.401	705.801
204.490	14.089	921.516	705.580
205.504	14.053	920.795	704.815
206.519	13.924	919.838	703.473
207.534	13.997	919.318	703.323
208.548	14.096	918.608	703.133
209.563	14.009	918.326	702.491
210.577	14.078	917.173	701.835
211.592	14.132	916.640	701.595
212.607	14.131	915.654	700.772
213.621	14.070	915.266	700.156
214.636	14.233	914.212	699.976
215.650	14.197	913.560	699.262
216.665	14.270	912.999	699.078
217.680	14.181	912.258	698.076
218.694	14.314	911.564	698.042
219.709	14.292	910.808	697.308
220.723	14.381	910.314	697.240
221.738	14.313	909.402	696.196
222.753	14.196	909.086	695.404
223.767	14.331	908.265	695.278
224.782	14.381	907.771	695.046
225.796	14.319	907.214	694.297
226.811	14.524	906.577	694.603
227.826	14.395	906.038	693.594
228.840	14.388	904.992	692.701
229.855	14.450	904.454	692.484
230.869	14.259	903.906	691.212
231.884	14.253	903.108	690.516
232.899	14.260	902.038	689.664
233.913	14.349	901.483	689.549
234.928	14.297	900.838	688.778
235.942	14.248	900.616	688.345
236.957	14.372	899.715	688.109
237.972	14.316	899.375	687.558
238.986	14.305	898.652	686.898
240.001	14.246	898.192	686.242
241.015	14.455	897.285	686.348
242.030	14.382	896.744	685.576
243.045	14.373	896.165	685.036
244.059	14.465	895.428	684.786
245.074	14.494	894.887	684.434
246.088	14.550	893.950	683.885
247.103	14.592	893.351	683.540
248.117	14.590	893.006	683.206
249.132	14.656	892.466	683.003
250.147	14.701	891.544	682.418
251.161	14.680	891.459	682.210
252.176	14.788	890.700	682.010
253.190	14.791	889.586	681.106
254.205	14.742	889.206	680.556
255.220	14.965	887.987	680.471
256.234	14.906	887.860	680.071
257.249	14.884	886.984	679.253
258.263	14.918	886.584	679.022
259.278	14.852	885.728	678.042
260.293	14.936	884.953	677.729
261.307	15.057	884.336	677.685
262.322	15.041	883.524	676.939
263.336	15.021	883.216	676.563
264.351	14.938	882.601	675.697
265.366	15.148	881.650	675.754
266.380	14.938	881.206	674.509
267.395	15.173	880.390	674.768
268.409	14.938	879.890	673.383
269.424	15.070	878.908	673.102
270.439	15.117	877.940	672.491
271.453	14.937	877.662	671.494
272.468	14.935	877.581	671.364
273.482	15.041	876.958	671.253
274.497	15.045	875.942	670.433
275.512	15.262	875.061	670.567
276.526	15.111	875.020	669.872
277.541	15.068	874.707	669.402
278.555	15.028	874.154	668.758
279.570	15.238	873.449	668.997
280.585	15.261	872.696	668.455
281.599	15.125	872.105	667.402
282.614	15.217	871.148	666.974
283.628	15.204	870.627	666.466
284.643	15.233	869.852	665.930
285.657	15.482	869.221	666.374
286.672	15.358	868.683	665.410
287.687	15.341	868.118	664.852
288.701	15.246	867.497	663.942
289.716	15.392	866.597	663.775
290.730	15.371	866.509	663.561
291.745	15.368	865.911	663.034
292.760	15.544	864.902	662.900
293.774	15.588	864.409	662.637
294.789	15.429	864.054	661.679
295.803	15.407	862.945	660.681
296.818	15.424	862.548	660.387
297.833	15.468	861.878	659.989
298.847	15.435	861.253	659.321
299.862	15.637	860.236	659.278
300.876	15.456	860.077	658.388
301.891	15.608	859.268	658.307
302.906	15.531	858.882	657.650
303.920	15.556	858.754	657.594
304.935	15.665	857.989	657.375
305.949	15.801	857.139	657.195
306.964	15.736	856.648	656.509
307.979	15.597	856.164	655.539
308.993	15.780	855.678	655.819
310.008	15.747	854.935	655.065
311.022	15.840	854.034	654.678
312.037	15.794	853.721	654.203
313.052	15.619	853.340	653.171
314.066	15.651	852.559	652.639
315.081	15.710	852.166	652.510
316.095	15.656	851.531	651.756
317.110	15.763	850.845	651.590
318.125	15.814	850.394	651.381
319.139	15.727	849.856	650.578
320.154	15.639	849.671	650.037
321.168	15.782	848.849	649.903
322.183	15.862	848.159	649.627
323.197	15.940	847.568	649.416
324.212	15.767	847.286	648.478
325.227	15.761	846.935	648.126
326.241	15.848	846.097	647.762
327.256	15.836	845.421	647.142
328.270	15.806	845.165	646.775
329.285	15.702	844.619	645.898
330.300	15.859	843.489	645.582
331.314	15.916	843.103	645.448
332.329	15.876	842.871	645.059
333.343	15.893	842.281	644.613
334.358	15.947	841.942	644.505
335.373	16.037	841.477	644.437
336.387	16.038	841.247	644.206
337.402	16.061	841.001	644.049
338.416	16.097	840.510	643.753
339.431	16.097	840.292	643.529
340.446	16.098	839.884	643.165
341.460	16.198	839.487	643.185
342.475	16.121	839.159	642.584
343.489	16.370	838.439	642.923
344.504	16.358	838.006	642.490
345.519	16.251	837.773	641.844
346.533	16.275	837.171	641.417
347.548	16.281	836.264	640.689
348.562	16.165	835.815	639.849
349.577	16.202	835.505	639.696
350.592	16.167	834.708	638.897
351.606	16.202	834.183	638.568
352.621	16.305	833.542	638.412
353.635	16.350	832.624	637.824
354.650	16.357	832.068	637.366
355.665	16.428	831.281	636.976
356.679	16.379	830.537	636.166
357.694	16.347	830.054	635.618
358.708	16.461	829.407	635.493
359.723	16.442	828.852	634.943
360.738	16.275	828.739	634.172
361.752	16.479	828.024	634.335
362.767	16.453	827.570	633.833
363.781	16.606	826.771	633.738
364.796	16.608	826.457	633.447
365.810	16.629	826.039	633.151
366.825	16.537	825.827	632.587
367.840	16.596	825.399	632.426
368.854	16.550	824.979	631.876
369.869	16.486	824.186	630.973
370.883	16.571	824.188	631.234
371.898	16.518	823.669	630.584
372.913	16.609	823.221	630.525
373.927	16.844	822.529	630.813
374.942	16.644	822.448	629.952
375.956	16.907	821.427	630.090
376.971	16.802	821.190	629.464
377.986	16.692	820.912	628.786
379.000	16.692	820.589	628.484
380.015	16.960	819.774	628.795
381.029	16.988	819.487	628.626
382.044	16.849	818.915	627.615
383.059	16.954	818.041	627.279
384.073	16.892	817.553	626.620
385.088	16.790	817.183	625.903
386.102	16.775	816.676	625.406
387.117	16.864	816.057	625.206
388.132	16.778	815.449	624.364
389.146	16.728	814.795	623.627
390.161	17.059	814.395	624.481
391.175	16.972	813.832	623.674
392.190	16.993	813.178	623.198
393.205	17.100	812.614	623.100
394.219	17.004	812.630	622.706
395.234	16.926	812.509	622.274
396.248	16.787	811.862	621.212
397.263	16.882	811.421	621.168
398.278	16.943	810.486	620.623
399.292	17.066	810.135	620.746
400.307	16.903	810.298	620.222
401.321	16.913	809.620	619.683
402.336	16.937	809.097	619.315
403.350	17.124	808.547	619.522
404.365	17.000	808.032	618.623
405.380	17.195	807.610	618.955
406.394	17.180	806.803	618.227
407.409	17.194	806.869	618.273
408.423	17.261	806.225	617.967
409.438	17.329	806.088	618.054
410.453	17.323	805.513	617.539
411.467	17.343	804.979	617.148
412.482	17.346	804.729	616.911
413.496	17.245	804.484	616.302
414.511	17.395	804.011	616.429
415.526	17.356	803.536	615.868
416.540	17.353	803.204	615.549
417.555	17.359	802.634	615.081
418.569	17.464	802.074	614.975
419.584	17.333	801.554	614.050
420.599	17.426	800.843	613.787
421.613	83.794	1248.955	1314.846
422.628	71.208	1314.276	1314.954
