DTS Sentinel unit serial number:	SN413079Multiplexer serial number:	ORYXHardware model number:	OX4-SRSoftware version number:	ORYX F/W v4.00 Oryx Data Collector v3.7.2.0data status	okinstallation	princeton_trtdifferential loss correction	single-endedforward channel	channel 1reverse channel	N/Adate	2019/09/18time	00:50:35forward acquisition time	60.00reverse acquisition time	0.00gamma	496.2192k internal	0.2341k external	0.2341temperature offset calibration	0.9982default loss term (dB/km)	0.3790temperature slope calibration	1.0000multiplexer offset coefficient	1.0000multiplexer slope coefficient	1.0000fibre end	0.00T internal ref (°C)	23.37T ext. ref 1 (°C)	0.17T ext. ref 2 (°C)	17.07length (m)	temperature (°C)	Stokes	anti-Stokes-747.200	-200.000	-0.008	0.375
-746.185	-33.017	-0.284	0.158
-745.171	-200.000	0.038	-0.439
-744.156	-5.829	-0.393	-0.270
-743.142	-17.997	-0.340	-0.213
-742.127	-157.200	-0.106	-0.006
-741.112	-65.850	-0.073	-0.029
-740.098	-200.000	0.034	0.299
-739.083	-25.951	0.037	-0.022
-738.069	509.451	-0.074	-0.172
-737.054	-6.086	0.202	0.139
-736.039	-200.000	0.009	-0.506
-735.025	1.801	0.132	-0.095
-734.010	-200.000	0.057	-0.288
-732.996	800.000	-0.072	0.227
-731.981	47.321	-0.296	-0.276
-730.966	-200.000	0.006	0.156
-729.952	-90.158	-0.205	0.060
-728.937	-28.957	0.151	-0.087
-727.923	355.571	-0.028	-0.055
-726.908	-97.848	-0.188	0.049
-725.894	194.629	-0.078	-0.119
-724.879	-41.732	0.351	-0.180
-723.864	-71.835	-0.085	0.032
-722.850	-200.000	0.018	-0.214
-721.835	279.890	0.117	-0.209
-720.821	-42.085	-0.229	0.117
-719.806	800.000	0.086	-0.345
-718.791	-15.041	-0.076	0.049
-717.777	173.820	-0.273	-0.395
-716.762	-82.099	0.321	-0.105
-715.748	234.920	0.148	0.245
-714.733	221.830	-0.062	-0.100
-713.718	800.000	-0.121	-0.425
-712.704	53.180	-0.206	-0.197
-711.689	-130.014	0.137	-0.019
-710.675	37.676	-0.054	-0.048
-709.660	146.899	-0.132	0.178
-708.645	-46.893	0.236	-0.116
-707.631	-13.069	0.087	-0.057
-706.616	-54.884	-0.239	-0.108
-705.602	34.333	-0.222	-0.193
-704.587	69.418	0.060	0.062
-703.572	-25.296	-0.348	-0.206
-702.558	-129.804	-0.184	0.025
-701.543	586.250	0.124	0.305
-700.529	18.878	-0.118	-0.095
-699.514	-86.124	0.179	-0.055
-698.499	197.343	0.148	0.227
-697.485	-200.000	-0.009	-0.085
-696.470	362.903	-0.047	0.094
-695.456	751.986	0.052	0.140
-694.441	323.826	0.041	-0.077
-693.426	374.362	-0.084	-0.170
-692.412	800.000	-0.121	-0.336
-691.397	516.029	-0.033	-0.078
-690.383	193.109	-0.131	-0.198
-689.368	800.000	-0.026	0.106
-688.354	-194.484	0.264	-0.002
-687.339	-1.032	-0.066	-0.047
-686.324	-81.572	-0.128	0.042
-685.310	195.549	-0.116	-0.177
-684.295	31.901	0.143	0.123
-683.281	-88.662	0.411	-0.122
-682.266	-200.000	-0.012	-0.308
-681.251	4.690	0.104	-0.077
-680.237	-130.345	-0.374	-0.051
-679.222	-88.605	0.139	0.041
-678.208	-82.057	0.180	0.059
-677.193	-56.039	0.193	-0.086
-676.178	-57.997	-0.305	0.133
-675.164	-200.000	-0.023	0.162
-674.149	23.503	0.062	0.051
-673.135	39.719	-0.121	-0.109
-672.120	196.082	-0.074	-0.113
-671.105	227.291	-0.112	0.182
-670.091	-144.436	-0.393	0.036
-669.076	175.982	-0.110	-0.160
-668.062	141.970	0.094	0.124
-667.047	-106.319	0.119	-0.027
-666.032	-18.436	0.226	-0.141
-665.018	261.376	-0.102	-0.176
-664.003	217.441	0.181	0.288
-662.989	-86.574	-0.329	-0.101
-661.974	-31.886	0.454	-0.254
-660.959	-200.000	0.057	-0.297
-659.945	800.000	-0.091	0.269
-658.930	654.568	-0.129	-0.330
-657.916	253.145	-0.022	0.038
-656.901	-200.000	-0.051	0.357
-655.886	107.042	0.200	-0.237
-654.872	643.391	0.174	-0.444
-653.857	107.534	-0.038	0.045
-652.843	6.471	-0.079	0.059
-651.828	800.000	-0.080	-0.262
-650.814	800.000	0.056	0.212
-649.799	-200.000	0.033	0.258
-648.784	800.000	0.072	-0.288
-647.770	158.881	0.131	0.182
-646.755	-200.000	-0.034	0.382
-645.741	231.701	-0.102	-0.166
-644.726	-152.688	0.099	0.007
-643.711	-134.111	0.294	-0.036
-642.697	-95.441	0.214	0.057
-641.682	-51.734	0.196	0.091
-640.668	-42.762	-0.092	0.047
-639.653	-169.761	0.236	-0.008
-638.638	-200.000	-0.001	0.121
-637.624	219.285	0.187	-0.299
-636.609	351.914	-0.117	0.232
-635.595	75.530	-0.259	-0.273
-634.580	-8.350	0.189	-0.127
-633.565	27.770	-0.144	0.121
-632.551	425.899	-0.072	-0.155
-631.536	-62.293	0.447	-0.186
-630.522	-141.742	-0.550	-0.055
-629.507	241.314	0.038	-0.063
-628.492	-200.000	0.122	0.000
-627.478	-200.000	-0.027	0.158
-626.463	-32.539	0.171	0.095
-625.449	800.000	-0.029	-0.113
-624.434	-200.000	0.002	0.067
-623.419	-83.031	0.258	0.083
-622.405	-66.862	0.055	0.022
-621.390	302.250	-0.143	-0.265
-620.376	13.067	0.317	0.245
-619.361	800.000	0.042	0.157
-618.346	-150.330	-0.375	0.029
-617.332	-2.997	-0.298	0.208
-616.317	-34.396	0.172	-0.094
-615.303	800.000	-0.013	-0.048
-614.288	-200.000	0.015	-0.148
-613.273	-13.173	-0.083	0.054
-612.259	577.458	-0.059	0.143
-611.244	-99.716	0.181	0.045
-610.230	276.718	-0.024	-0.042
-609.215	235.727	-0.077	0.128
-608.201	-94.856	-0.157	0.043
-607.186	-5.286	-0.152	-0.104
-606.171	-28.444	-0.088	-0.051
-605.157	-57.103	-0.054	0.024
-604.142	744.751	0.105	-0.282
-603.128	437.933	-0.143	0.310
-602.113	515.603	-0.090	-0.209
-601.098	-56.087	0.303	0.135
-600.084	-27.444	-0.203	0.117
-599.069	-200.000	0.001	0.104
-598.055	-200.000	-0.026	-0.134
-597.040	68.248	-0.225	0.229
-596.025	-82.018	-0.172	0.056
-595.011	800.000	0.043	0.151
-593.996	-104.883	0.261	-0.060
-592.982	-21.593	0.189	0.115
-591.967	-47.764	-0.239	-0.115
-590.952	-67.086	0.116	-0.046
-589.938	678.759	-0.139	-0.359
-588.923	-200.000	0.018	0.288
-587.909	-123.651	0.138	0.022
-586.894	14.130	-0.161	-0.125
-585.879	-52.386	-0.286	-0.132
-584.865	-86.223	0.255	0.078
-583.850	-74.280	-0.017	-0.006
-582.836	55.472	0.187	-0.181
-581.821	248.603	-0.098	-0.165
-580.806	10.773	0.187	0.142
-579.792	-200.000	-0.005	0.032
-578.777	800.000	-0.058	-0.194
-577.763	224.219	0.135	0.218
-576.748	-200.000	-0.026	-0.118
-575.733	-109.678	0.415	-0.087
-574.719	89.843	0.151	-0.167
-573.704	800.000	-0.053	-0.187
-572.690	-5.782	0.154	0.105
-571.675	-200.000	-0.009	0.174
-570.661	573.630	-0.099	-0.241
-569.646	450.838	0.113	-0.249
-568.631	134.832	-0.328	-0.425
-567.617	315.472	0.140	0.263
-566.602	15.303	-0.149	0.117
-565.588	-36.668	-0.163	-0.087
-564.573	137.904	0.064	0.083
-563.558	-94.987	-0.191	-0.052
-562.544	216.406	0.182	-0.288
-561.529	-8.914	-0.087	0.058
-560.515	26.903	0.189	0.157
-559.500	86.886	-0.091	0.100
-558.485	31.110	0.138	-0.118
-557.471	151.032	0.056	-0.075
-556.456	-200.000	0.063	-0.323
-555.442	36.862	0.062	0.055
-554.427	652.842	-0.072	-0.183
-553.412	800.000	-0.025	-0.072
-552.398	-23.605	-0.195	0.116
-551.383	-200.000	-0.059	0.278
-550.369	-113.082	0.232	0.046
-549.354	-200.000	-0.004	0.296
-548.339	69.422	0.182	0.186
-547.325	-148.499	-0.181	-0.015
-546.310	-82.469	-0.213	-0.069
-545.296	106.100	-0.283	-0.333
-544.281	286.512	0.059	-0.105
-543.266	-80.556	-0.237	-0.079
-542.252	744.797	0.111	-0.297
-541.237	-200.000	-0.020	-0.387
-540.223	-32.645	-0.493	-0.273
-539.208	-97.147	0.230	0.060
-538.193	-200.000	0.022	-0.129
-537.179	590.575	0.097	-0.238
-536.164	-3.100	-0.166	0.115
-535.150	20.552	-0.084	-0.068
-534.135	350.211	-0.033	-0.064
-533.121	-32.829	0.081	-0.045
-532.106	262.742	-0.151	0.260
-531.091	45.253	-0.275	-0.252
-530.077	60.816	-0.219	-0.216
-529.062	37.269	-0.265	0.233
-528.048	91.910	-0.364	-0.407
-527.033	-15.672	0.428	0.272
-526.018	230.197	-0.113	0.184
-525.004	800.000	-0.016	-0.062
-523.989	-29.733	-0.201	-0.114
-522.975	122.470	0.068	0.085
-521.960	65.442	0.152	-0.153
-520.945	93.465	-0.090	0.101
-519.931	-200.000	0.067	0.321
-518.916	-200.000	0.035	-0.224
-517.902	0.533	0.213	0.151
-516.887	-86.822	-0.242	0.074
-515.872	-36.766	0.250	-0.134
-514.858	154.838	-0.077	-0.106
-513.843	800.000	0.121	-0.383
-512.829	-39.681	0.086	-0.045
-511.814	-2.195	0.010	0.007
-510.799	-69.881	-0.169	0.064
-509.785	-111.064	-0.155	-0.032
-508.770	800.000	-0.061	-0.252
-507.756	127.043	-0.076	0.095
-506.741	-200.000	-0.013	0.106
-505.726	201.780	0.116	-0.178
-504.712	56.878	-0.129	-0.125
-503.697	-175.450	0.185	0.005
-502.683	-200.000	-0.266	0.000
-501.668	50.501	0.033	0.031
-500.653	-200.000	-0.000	0.021
-499.639	-128.455	0.315	-0.044
-498.624	31.095	-0.073	0.062
-497.610	800.000	-0.030	0.124
-496.595	-200.000	0.001	0.239
-495.581	-47.314	0.195	0.094
-494.566	-48.882	0.114	0.054
-493.551	-200.000	0.008	0.126
-492.537	-200.000	-0.022	-0.159
-491.522	-141.919	0.126	-0.012
-490.508	-8.718	0.241	-0.160
-489.493	474.467	0.013	0.029
-488.478	-126.600	0.142	-0.021
-487.464	-200.000	0.041	-0.180
-486.449	535.024	0.073	-0.172
-485.435	-63.255	-0.037	0.015
-484.420	800.000	0.073	-0.284
-483.405	-44.332	0.229	-0.114
-482.391	113.787	0.108	0.131
-481.376	-143.031	0.217	-0.021
-480.362	193.758	0.096	-0.144
-479.347	-126.400	0.327	0.048
-478.332	-200.000	-0.008	0.106
-477.318	455.580	-0.116	-0.255
-476.303	-200.000	-0.017	-0.292
-475.289	-3.962	-0.534	-0.367
-474.274	181.081	-0.102	0.148
-473.259	-200.000	0.002	-0.086
-472.245	-200.000	-0.014	0.179
-471.230	-50.082	-0.176	0.083
-470.216	466.551	0.030	0.067
-469.201	339.808	-0.083	0.160
-468.186	-61.096	0.102	-0.043
-467.172	-200.000	-0.015	-0.217
-466.157	-76.326	0.177	0.062
-465.143	478.299	-0.099	0.223
-464.128	-17.227	0.224	0.140
-463.113	111.557	-0.191	-0.229
-462.099	133.335	-0.153	0.196
-461.084	-76.601	-0.272	0.095
-460.070	-69.724	-0.239	0.091
-459.055	438.637	0.227	-0.491
-458.040	800.000	0.049	-0.137
-457.026	-30.118	-0.211	0.119
-456.011	39.631	0.091	0.081
-454.997	-200.000	-0.005	0.066
-453.982	-122.575	0.413	0.066
-452.968	-15.446	-0.093	-0.059
-451.953	800.000	-0.089	0.358
-450.938	131.945	-0.098	-0.126
-449.924	268.398	-0.188	-0.327
-448.909	-200.000	-0.004	0.106
-447.895	-139.111	0.158	-0.017
-446.880	-106.256	-0.138	-0.031
-445.865	179.123	0.199	-0.288
-444.851	133.784	0.143	0.183
-443.836	73.342	-0.112	-0.116
-442.822	800.000	-0.041	-0.167
-441.807	800.000	0.016	-0.054
-440.792	-46.525	-0.136	0.066
-439.778	-127.504	-0.249	0.036
-438.763	-200.000	-0.040	-0.300
-437.749	-65.763	0.227	0.090
-436.734	30.598	-0.266	-0.225
-435.719	-9.907	-0.128	-0.084
-434.705	-147.787	0.183	-0.015
-433.690	23.340	0.197	-0.160
-432.676	-68.240	-0.212	0.082
-431.661	-20.932	-0.174	0.105
-430.646	-184.078	-0.420	0.007
-429.632	-38.704	-0.100	0.052
-428.617	-93.589	0.345	0.094
-427.603	-200.000	-0.055	-0.245
-426.588	431.380	0.108	-0.231
-425.573	9.552	0.183	0.137
-424.559	-6.623	0.252	0.170
-423.544	-139.229	-0.087	0.009
-422.530	-106.275	-0.180	0.040
-421.515	-200.000	0.012	-0.120
-420.500	571.472	-0.131	0.317
-419.486	187.258	-0.087	0.128
-418.471	0.585	0.244	0.173
-417.457	13.038	-0.193	0.148
-416.442	364.405	-0.100	0.198
-415.428	-15.975	0.368	0.232
-414.413	12.646	-0.090	-0.069
-413.398	61.355	0.140	0.138
-412.384	-15.666	0.187	0.118
-411.369	800.000	0.215	-0.588
-410.355	800.000	0.138	0.457
-409.340	-89.698	0.400	0.116
-408.325	179.903	-0.057	-0.083
-407.311	-44.261	-0.325	-0.161
-406.296	-200.000	-0.001	-0.160
-405.282	-107.011	-0.172	0.038
-404.267	800.000	0.110	-0.391
-403.252	-155.958	0.195	0.012
-402.238	446.029	-0.030	-0.066
-401.223	-32.884	0.081	-0.044
-400.209	-46.712	0.127	0.062
-399.194	67.252	-0.222	0.224
-398.179	-9.111	-0.293	-0.194
-397.165	731.276	0.115	0.304
-396.150	110.785	0.047	-0.056
-395.136	318.380	-0.056	-0.105
-394.121	301.503	-0.010	-0.018
-393.106	800.000	-0.086	0.266
-392.092	115.965	0.122	0.148
-391.077	475.377	-0.040	0.088
-390.063	556.332	-0.080	-0.190
-389.048	297.116	-0.062	0.112
-388.033	-200.000	0.009	0.271
-387.019	37.650	-0.216	-0.189
-386.004	-98.671	0.178	0.045
-384.990	-77.650	0.129	-0.044
-383.975	30.639	-0.168	-0.142
-382.960	684.170	0.028	-0.073
-381.946	258.195	-0.105	-0.178
-380.931	800.000	0.036	0.105
-379.917	-1.305	-0.126	0.088
-378.902	566.424	-0.067	-0.160
-377.888	29.933	0.158	0.133
-376.873	-200.000	0.028	0.148
-375.858	800.000	-0.127	-0.365
-374.844	30.552	0.201	0.170
-373.829	56.886	-0.086	0.082
-372.815	-200.000	0.017	-0.107
-371.800	58.261	0.006	-0.006
-370.785	-198.412	0.173	0.001
-369.771	214.607	-0.005	-0.007
-368.756	-200.000	-0.108	0.538
-367.742	-64.963	0.137	0.055
-366.727	-53.626	-0.346	-0.156
-365.712	-82.679	-0.211	0.067
-364.698	-144.291	-0.144	0.013
-363.683	203.652	0.089	0.136
-362.669	66.671	0.137	-0.138
-361.654	-150.257	-0.290	-0.022
-360.639	800.000	0.029	-0.088
-359.625	320.926	-0.107	0.201
-358.610	176.755	0.160	0.229
-357.596	265.785	-0.132	-0.227
-356.581	-71.951	0.628	0.231
-355.566	21.798	-0.169	0.136
-354.552	-200.000	0.005	0.055
-353.537	247.314	-0.165	0.276
-352.523	800.000	0.053	0.172
-351.508	-200.000	0.044	-0.209
-350.493	758.368	0.051	-0.137
-349.479	156.830	0.052	0.071
-348.464	-2.104	0.117	-0.081
-347.450	-76.661	0.112	0.039
-346.435	800.000	0.103	-0.331
-345.420	-72.427	-0.072	0.026
-344.406	305.576	0.221	0.405
-343.391	-48.013	-0.149	0.071
-342.377	377.747	0.131	-0.264
-341.362	-200.000	-0.001	0.187
-340.348	-0.336	0.243	0.170
-339.333	-48.391	0.054	-0.026
-338.318	412.782	-0.052	-0.108
-337.304	608.682	0.099	0.243
-336.289	570.216	-0.138	0.332
-335.275	-136.325	-0.300	-0.034
-334.260	-200.000	0.022	0.239
-333.245	283.565	-0.095	0.168
-332.231	-44.543	0.036	-0.018
-331.216	800.000	-0.059	0.168
-330.202	-147.861	-0.244	-0.020
-329.187	-39.443	0.235	-0.122
-328.172	-200.000	-0.028	0.247
-327.158	-20.820	0.412	-0.249
-326.143	-80.282	-0.297	-0.098
-325.129	-163.511	-0.098	0.005
-324.114	800.000	0.074	0.230
-323.099	107.096	-0.299	-0.350
-322.085	50.192	0.279	-0.260
-321.070	94.759	-0.110	-0.123
-320.056	800.000	-0.076	-0.250
-319.041	624.341	-0.081	0.202
-318.026	800.000	-0.090	0.276
-317.012	-86.258	-0.160	0.048
-315.997	-137.922	-0.265	0.029
-314.983	31.889	0.247	-0.209
-313.968	-200.000	-0.004	-0.125
-312.953	800.000	0.062	-0.183
-311.939	-49.155	-0.282	0.133
-310.924	408.568	0.193	0.402
-309.910	93.901	-0.050	-0.056
-308.895	69.771	0.284	0.289
-307.880	184.155	0.163	-0.238
-306.866	6.779	0.123	-0.090
-305.851	-8.757	0.256	-0.169
-304.837	-18.703	-0.115	0.071
-303.822	-126.264	0.154	-0.023
-302.807	24.195	-0.104	-0.084
-301.793	-108.382	0.095	-0.020
-300.778	177.107	0.208	0.299
-299.764	-59.448	0.034	0.014
-298.749	-200.000	-0.002	0.233
-297.735	-200.000	0.013	-0.136
-296.720	-200.000	0.006	0.233
-295.705	232.726	0.153	0.247
-294.691	28.130	-0.179	0.149
-293.676	-200.000	-0.000	-0.021
-292.662	115.351	0.097	-0.117
-291.647	-105.372	0.254	-0.057
-290.632	-143.838	-0.204	0.019
-289.618	83.021	0.097	0.104
-288.603	477.349	-0.070	-0.156
-287.589	-180.867	0.397	-0.008
-286.574	-145.908	-0.192	0.017
-285.559	35.766	-0.115	-0.100
-284.545	-27.832	0.285	-0.163
-283.530	-166.155	0.222	0.009
-282.516	558.070	-0.131	0.310
-281.501	-44.344	-0.135	0.067
-280.486	152.931	-0.062	0.083
-279.472	-149.732	-0.215	-0.017
-278.457	-200.000	-0.015	-0.163
-277.443	182.187	0.106	0.154
-276.428	265.078	-0.184	0.315
-275.413	-35.546	0.186	-0.099
-274.399	-75.404	0.169	-0.059
-273.384	800.000	-0.139	0.436
-272.370	-84.180	-0.276	-0.086
-271.355	494.801	0.130	0.294
-270.340	-23.104	-0.332	0.197
-269.326	-159.750	-0.100	0.005
-268.311	27.688	0.163	0.135
-267.297	800.000	-0.139	0.384
-266.282	31.848	0.409	0.347
-265.267	-78.044	-0.194	-0.066
-264.253	-136.371	-0.158	0.018
-263.238	-200.000	0.043	0.196
-262.224	-14.388	0.069	-0.044
-261.209	391.340	-0.140	-0.285
-260.195	-200.000	0.009	0.439
-259.180	-118.900	0.293	0.051
-258.165	-200.000	-0.030	0.250
-257.151	-124.784	0.303	-0.046
-256.136	235.543	-0.070	-0.113
-255.122	97.335	0.091	0.103
-254.107	-84.023	0.088	0.028
-253.092	91.338	0.274	-0.302
-252.078	294.874	-0.074	0.134
-251.063	-200.000	-0.035	0.235
-250.049	303.932	0.107	0.195
-249.034	-108.415	0.197	0.042
-248.019	800.000	0.135	-0.376
-247.005	50.880	-0.424	-0.395
-245.990	-98.919	0.233	0.058
-244.976	-54.981	0.123	-0.054
-243.961	-200.000	-0.005	-0.031
-242.946	-64.883	-0.332	0.132
-241.932	66.207	0.024	-0.024
-240.917	266.212	-0.076	0.130
-239.903	23.090	0.209	0.169
-238.888	266.106	-0.129	-0.222
-237.873	800.000	-0.085	0.236
-236.859	800.000	-0.059	-0.220
-235.844	148.807	0.221	0.294
-234.830	-153.359	-0.155	0.011
-233.815	-200.000	0.001	0.209
-232.800	178.452	-0.177	-0.253
-231.786	-50.508	0.225	-0.104
-230.771	565.522	0.028	-0.068
-229.757	-65.441	0.126	-0.050
-228.742	-154.686	-0.163	0.011
-227.727	-145.376	-0.102	0.009
-226.713	-102.500	-0.323	-0.076
-225.698	800.000	0.083	-0.241
-224.684	26.879	-0.107	-0.088
-223.669	800.000	0.109	0.376
-222.655	101.610	-0.160	0.183
-221.640	-200.000	-0.000	-0.047
-220.625	56.860	-0.343	-0.328
-219.611	800.000	0.164	-0.498
-218.596	15.273	-0.325	0.250
-217.582	-200.000	0.024	-0.199
-216.567	-25.637	0.213	-0.123
-215.552	-131.615	-0.188	0.024
-214.538	-14.029	0.200	0.126
-213.523	-200.000	-0.008	0.235
-212.509	-200.000	-0.010	-0.368
-211.494	800.000	-0.059	-0.204
-210.479	-9.221	0.112	0.073
-209.465	482.092	0.123	0.273
-208.450	-49.303	0.388	-0.182
-207.436	800.000	0.049	-0.175
-206.421	-97.248	-0.091	-0.023
-205.406	103.661	0.243	0.280
-204.392	-108.714	-0.239	0.050
-203.377	-41.166	0.117	0.059
-202.363	-167.258	0.136	-0.005
-201.348	129.101	-0.180	-0.226
-200.333	-13.961	0.192	0.122
-199.319	-46.048	-0.198	0.096
-198.304	290.336	-0.142	-0.254
-197.290	800.000	-0.032	0.097
-196.275	213.811	0.043	0.066
-195.260	487.342	-0.131	-0.294
-194.246	-200.000	0.014	0.207
-193.231	-34.546	0.194	0.104
-192.217	800.000	-0.109	0.308
-191.202	800.000	-0.045	0.149
-190.187	155.950	-0.148	-0.200
-189.173	-36.010	-0.094	0.050
-188.158	-63.306	-0.288	0.116
-187.144	-17.511	0.180	0.111
-186.129	71.191	0.275	0.279
-185.114	-200.000	-0.004	-0.110
-184.100	-200.000	-0.001	-0.130
-183.085	35.663	-0.135	-0.116
-182.071	-200.000	-0.008	-0.222
-181.056	-200.000	-0.006	0.049
-180.042	201.929	-0.034	-0.052
-179.027	63.879	0.136	-0.134
-178.012	-200.000	0.070	-0.326
-176.998	260.765	-0.125	-0.211
-175.983	530.499	-0.038	0.088
-174.969	-129.101	-0.128	-0.018
-173.954	-6.987	0.081	0.054
-172.939	-108.461	0.222	-0.047
-171.925	410.481	0.161	-0.335
-170.910	-77.205	-0.181	0.062
-169.896	384.150	-0.008	0.016
-168.881	-126.265	-0.325	0.048
-167.866	-66.555	-0.113	-0.044
-166.852	-137.850	0.107	0.012
-165.837	147.139	-0.174	0.230
-164.823	-200.000	0.041	-0.201
-163.808	800.000	0.135	0.367
-162.793	-200.000	0.020	0.109
-161.779	-100.241	-0.545	0.133
-160.764	170.271	0.096	-0.135
-159.750	-119.218	0.260	0.044
-158.735	-34.995	-0.236	0.126
-157.720	-200.000	0.023	-0.118
-156.706	81.348	-0.313	-0.332
-155.691	-200.000	0.033	-0.202
-154.677	202.150	0.238	-0.360
-153.662	96.326	0.177	0.198
-152.647	-49.247	-0.057	0.027
-151.633	-200.000	-0.020	0.114
-150.618	-200.000	-0.056	0.248
-149.604	-58.705	0.198	-0.084
-148.589	134.955	0.203	-0.259
-147.574	-69.677	-0.264	-0.099
-146.560	139.493	0.228	-0.294
-145.545	84.360	0.139	0.149
-144.531	-200.000	0.014	-0.095
-143.516	-27.097	0.079	-0.045
-142.502	24.325	0.111	0.090
-141.487	-200.000	-0.020	0.140
-140.472	-200.000	0.037	-0.203
-139.458	-109.597	-0.186	-0.038
-138.443	-110.041	0.154	0.032
-137.429	-135.547	0.364	0.042
-136.414	63.608	0.066	0.065
-135.399	13.237	-0.078	-0.059
-134.385	-200.000	-0.017	0.203
-133.370	-11.760	0.135	-0.087
-132.356	267.089	-0.185	0.317
-131.341	800.000	0.128	0.396
-130.326	-6.198	0.143	-0.095
-129.312	-1.247	0.394	0.272
-128.297	553.845	-0.080	-0.188
-127.283	-200.000	0.003	-0.112
-126.268	-55.446	-0.462	-0.202
-125.253	383.457	-0.042	-0.085
-124.239	800.000	0.038	0.122
-123.224	7.715	0.091	-0.067
-122.210	436.950	-0.136	-0.290
-121.195	70.673	0.112	-0.114
-120.180	-200.000	0.027	0.151
-119.166	95.671	-0.225	0.251
-118.151	-200.000	-0.036	0.229
-117.137	-57.649	-0.473	0.203
-116.122	-120.630	-0.231	-0.038
-115.107	146.422	-0.116	0.153
-114.093	-116.496	0.199	-0.036
-113.078	8.629	-0.291	-0.214
-112.064	-200.000	-0.015	0.070
-111.049	-162.695	-0.330	0.016
-110.034	582.953	0.115	0.277
-109.020	-200.000	-0.061	-0.338
-108.005	-8.959	0.048	-0.031
-106.991	800.000	-0.067	0.274
-105.976	165.360	0.170	0.234
-104.962	712.126	0.063	0.163
-103.947	800.000	-0.142	-0.399
-102.932	-37.224	0.225	0.118
-101.918	-83.175	-0.166	-0.052
-100.903	-0.534	0.069	-0.048
-99.889	-200.000	-0.056	0.295
-98.874	232.151	0.118	-0.189
-97.859	112.933	-0.164	-0.194
-96.845	-200.000	0.128	-0.630
-95.830	800.000	-0.072	0.228
-94.816	-86.540	0.505	-0.151
-93.801	32.025	-0.145	-0.122
-92.786	-11.840	0.082	0.053
-91.772	800.000	0.086	0.298
-90.757	-200.000	0.022	0.158
-89.743	26.282	0.296	0.242
-88.728	-144.791	-0.229	-0.021
-87.713	30.494	-0.035	0.029
-86.699	-6.132	0.095	0.063
-85.684	40.980	0.217	0.191
-84.670	-200.000	0.097	0.469
-83.655	-200.000	-0.040	-0.206
-82.640	-47.222	0.037	0.018
-81.626	-200.000	-0.006	-0.220
-80.611	221.232	-0.259	-0.405
-79.597	-85.939	0.279	0.084
-78.582	427.573	0.047	0.099
-77.567	220.310	0.050	0.078
-76.553	-200.000	0.027	-0.342
-75.538	-200.000	0.028	-0.130
-74.524	-154.031	0.332	0.022
-73.509	-95.496	-0.129	-0.034
-72.494	138.758	-0.100	-0.128
-71.480	-109.902	0.281	0.058
-70.465	151.099	-0.047	-0.063
-69.451	800.000	0.062	0.215
-68.436	-163.725	-0.050	-0.002
-67.422	-26.507	-0.029	0.017
-66.407	4.730	-0.113	0.081
-65.392	13.259	-0.187	-0.141
-64.378	-92.486	0.376	-0.103
-63.363	-125.262	0.236	-0.035
-62.349	800.000	0.032	0.090
-61.334	107.499	-1.049	-1.218
-60.319	14.485	0.611	0.465
-59.305	269.566	-0.595	-1.020
-58.290	201.653	0.802	1.205
-57.276	577.822	0.693	1.653
-56.261	-200.000	125.174	676.112
-55.246	436.374	1563.081	3320.315
-54.232	144.668	2712.151	3535.410
-53.217	97.736	2144.191	2404.939
-52.203	34.985	1581.632	1350.823
-51.188	26.621	1327.492	1083.910
-50.173	24.240	1289.700	1039.150
-49.159	52.714	1359.656	1267.423
-48.144	49.259	1370.426	1256.734
-47.130	26.809	1318.477	1077.496
-46.115	23.614	1299.894	1043.515
-45.100	23.281	1294.987	1037.583
-44.086	23.230	1292.597	1035.329
-43.071	23.320	1289.601	1033.417
-42.057	23.113	1288.192	1031.037
-41.042	23.276	1286.366	1030.487
-40.027	23.348	1284.867	1029.659
-39.013	23.225	1283.265	1027.624
-37.998	23.387	1281.218	1026.880
-36.984	23.276	1279.567	1024.876
-35.969	23.284	1278.173	1023.764
-34.954	23.392	1275.908	1022.530
-33.940	23.249	1275.605	1021.424
-32.925	23.351	1274.092	1020.762
-31.911	23.422	1272.071	1019.509
-30.896	23.379	1270.947	1018.323
-29.881	23.451	1269.811	1017.784
-28.867	23.600	1268.175	1017.284
-27.852	23.524	1267.129	1015.973
-26.838	23.521	1265.657	1014.730
-25.823	23.490	1264.332	1013.454
-24.809	23.569	1262.577	1012.458
-23.794	23.473	1261.761	1011.217
-22.779	23.487	1260.189	1009.995
-21.765	23.520	1258.746	1008.986
-20.750	23.468	1257.848	1007.931
-19.736	23.387	1256.289	1006.181
-18.721	23.368	1255.491	1005.393
-17.706	23.339	1254.305	1004.241
-16.692	23.277	1252.875	1002.702
-15.677	23.300	1251.851	1001.978
-14.663	23.340	1250.776	1001.299
-13.648	23.318	1250.104	1000.601
-12.633	23.414	1248.910	1000.146
-11.619	23.287	1248.456	999.024
-10.604	23.355	1247.024	998.224
-9.590	23.300	1246.195	997.212
-8.575	23.254	1245.256	996.160
-7.560	23.244	1244.736	995.649
-6.546	23.379	1243.699	995.536
-5.531	23.348	1242.506	994.372
-4.517	23.312	1242.594	994.199
-3.502	23.273	1241.382	992.970
-2.487	23.372	1240.258	992.589
-1.473	23.213	1235.925	988.193
-0.458	21.589	1221.447	967.610
0.556	16.723	1205.924	931.773
1.571	13.133	1214.230	918.183
2.586	12.482	1229.183	925.744
3.600	12.591	1217.115	917.181
4.615	9.095	1146.584	845.573
5.629	3.028	1076.185	763.517
6.644	0.369	1059.335	738.484
7.659	0.025	1057.965	735.783
8.673	0.144	1056.690	735.411
9.688	0.143	1055.463	734.488
10.702	0.322	1052.731	733.395
11.717	3.934	1057.105	753.998
12.731	10.924	1066.281	794.741
13.746	15.597	1072.342	822.101
14.761	16.794	1072.963	828.359
15.775	16.110	1071.325	823.685
16.790	15.036	1069.075	816.644
17.804	14.330	1067.812	812.164
18.819	13.950	1067.302	809.849
19.834	13.844	1066.223	808.444
20.848	13.738	1064.659	806.672
21.863	13.286	1064.643	804.390
22.877	13.185	1063.314	802.824
23.892	13.209	1062.815	802.491
24.907	13.266	1061.877	801.991
25.921	13.279	1060.962	801.291
26.936	13.312	1060.091	800.722
27.950	13.300	1059.484	800.132
28.965	13.240	1058.675	799.165
29.980	13.420	1056.453	798.281
30.994	13.481	1055.894	798.083
32.009	13.308	1055.710	797.039
33.023	13.404	1054.038	796.169
34.038	13.253	1053.328	794.836
35.053	13.314	1052.125	794.152
36.067	13.317	1050.954	793.212
37.082	13.398	1050.408	793.117
38.096	13.394	1049.772	792.548
39.111	13.358	1049.012	791.733
40.126	13.157	1047.878	789.846
41.140	13.146	1046.695	788.829
42.155	13.171	1045.450	787.945
43.169	13.173	1044.295	787.012
44.184	13.170	1043.488	786.320
45.199	13.087	1042.496	785.107
46.213	13.225	1041.560	784.991
47.228	13.334	1040.243	784.445
48.242	13.307	1038.885	783.225
49.257	13.336	1037.752	782.436
50.271	13.243	1037.468	781.714
51.286	13.313	1036.438	781.200
52.301	13.256	1035.435	780.105
53.315	13.300	1034.256	779.355
54.330	13.313	1033.534	778.801
55.344	13.260	1032.533	777.733
56.359	13.233	1032.063	777.181
57.374	13.280	1031.118	776.621
58.388	13.141	1030.233	775.232
59.403	13.029	1029.490	774.078
60.417	13.154	1028.355	773.747
61.432	13.091	1027.755	772.932
62.447	13.091	1026.963	772.266
63.461	13.095	1026.042	771.525
64.476	13.072	1025.284	770.777
65.490	12.995	1024.665	769.887
66.505	13.217	1023.780	770.185
67.520	13.152	1023.367	769.506
68.534	13.103	1022.356	768.450
69.549	13.150	1021.824	768.198
70.563	13.168	1020.798	767.441
71.578	13.134	1019.952	766.583
72.593	13.082	1019.505	765.937
73.607	13.016	1018.883	765.094
74.622	13.147	1017.871	764.876
75.636	13.082	1017.029	763.872
76.651	13.021	1016.686	763.268
77.666	13.140	1016.131	763.330
78.680	13.105	1015.650	762.740
79.695	13.059	1014.992	761.966
80.709	13.087	1014.304	761.515
81.724	13.266	1013.348	761.551
82.739	13.135	1012.746	760.431
83.753	13.317	1011.782	760.476
84.768	13.377	1010.798	759.943
85.782	13.291	1010.347	759.141
86.797	13.351	1008.879	758.249
87.812	13.309	1008.336	757.582
88.826	13.226	1007.468	756.479
89.841	13.351	1006.421	756.198
90.855	13.434	1005.596	755.891
91.870	13.421	1004.780	755.153
92.884	13.403	1004.113	754.502
93.899	13.284	1003.669	753.562
94.914	13.344	1002.864	753.161
95.928	13.434	1001.398	752.405
96.943	13.380	1000.885	751.705
97.957	13.323	1000.044	750.749
98.972	13.405	998.827	750.142
99.987	13.404	998.181	749.587
101.001	13.395	997.374	748.870
102.016	13.363	996.563	748.052
103.030	13.387	995.757	747.491
104.045	13.318	994.815	746.404
105.060	13.347	994.310	746.091
106.074	13.169	992.947	744.201
107.089	13.254	992.051	743.846
108.103	13.264	990.805	742.891
109.118	13.240	990.537	742.516
110.133	13.135	989.768	741.400
111.147	13.193	988.126	740.368
112.162	13.189	987.871	740.092
113.176	13.359	986.993	740.129
114.191	13.318	986.073	739.191
115.206	13.419	985.176	738.902
116.220	13.298	984.809	738.024
117.235	13.213	983.988	736.964
118.249	13.239	983.047	736.308
119.264	13.352	982.360	736.233
120.279	13.083	981.899	734.626
121.293	13.266	981.094	734.772
122.308	13.209	979.988	733.625
123.322	13.248	978.769	732.818
124.337	13.319	977.616	732.208
125.352	13.212	976.936	731.161
126.366	13.266	975.882	730.546
127.381	13.327	974.631	729.812
128.395	13.277	973.553	728.720
129.410	13.311	972.893	728.311
130.424	13.261	971.948	727.321
131.439	13.328	971.358	727.109
132.454	13.333	970.328	726.294
133.468	13.518	969.389	726.342
134.483	13.369	968.845	725.216
135.497	13.327	968.077	724.390
136.512	13.386	967.102	723.856
137.527	13.362	966.368	723.136
138.541	13.514	965.010	722.722
139.556	13.421	964.627	721.965
140.570	13.382	964.229	721.431
141.585	13.390	963.056	720.528
142.600	13.491	962.440	720.439
143.614	13.535	961.710	720.021
144.629	13.618	960.592	719.483
145.643	13.511	959.877	718.417
146.658	13.484	958.635	717.307
147.673	13.383	958.278	716.538
148.687	13.416	957.363	715.934
149.702	13.422	956.235	715.053
150.716	13.398	955.784	714.548
151.731	13.346	955.027	713.698
152.746	13.423	954.179	713.332
153.760	13.432	953.731	712.972
154.775	13.476	953.069	712.602
155.789	13.568	952.677	712.645
156.804	13.626	951.618	712.038
157.819	13.619	951.149	711.594
158.833	13.624	950.784	711.280
159.848	13.684	949.613	710.597
160.862	13.610	948.690	709.528
161.877	13.589	947.573	708.539
162.892	13.519	946.821	707.617
163.906	13.405	946.444	706.784
164.921	13.532	945.263	706.380
165.935	13.684	944.259	706.216
166.950	13.653	943.479	705.439
167.964	13.761	942.371	705.004
168.979	13.864	941.083	704.417
169.994	13.818	940.205	703.501
171.008	13.739	939.645	702.689
172.023	13.828	939.160	702.641
173.037	13.898	938.623	702.473
174.052	13.748	937.795	701.157
175.067	13.640	937.309	700.272
176.081	13.705	936.793	700.101
177.096	13.763	935.852	699.579
178.110	13.727	935.400	699.027
179.125	13.648	934.991	698.327
180.140	13.656	934.584	697.995
181.154	13.815	933.869	698.069
182.169	13.928	933.185	697.970
183.183	13.857	932.836	697.348
184.198	13.815	932.055	696.526
185.213	13.844	931.417	696.113
186.227	13.987	930.263	695.785
187.242	13.890	930.158	695.240
188.256	14.070	929.058	695.109
189.271	14.016	928.505	694.408
190.286	13.779	927.727	692.775
191.300	13.640	927.293	691.809
192.315	13.736	926.817	691.794
193.329	13.825	925.885	691.409
194.344	13.821	925.130	690.766
195.359	13.748	924.624	690.024
196.373	13.931	924.155	690.374
197.388	14.009	923.535	690.175
198.402	13.983	923.418	689.918
199.417	14.058	922.447	689.442
200.432	14.159	921.620	689.180
201.446	14.179	921.455	689.080
202.461	14.126	921.174	688.587
203.475	14.329	919.925	688.432
204.490	14.112	919.389	687.072
205.504	14.155	918.894	686.821
206.519	14.090	918.465	686.171
207.534	14.232	916.784	685.442
208.548	14.166	916.668	685.022
209.563	14.149	916.590	684.834
210.577	14.273	915.104	684.169
211.592	14.236	914.683	683.643
212.607	14.323	913.866	683.328
213.621	14.420	912.571	682.696
214.636	14.367	912.616	682.453
215.650	14.262	912.004	681.507
216.665	14.445	911.049	681.481
217.680	14.363	910.669	680.799
218.694	14.429	909.627	680.232
219.709	14.477	908.983	679.886
220.723	14.379	908.347	678.950
221.738	14.489	907.420	678.645
222.753	14.421	907.110	678.078
223.767	14.482	906.558	677.851
224.782	14.454	906.082	677.322
225.796	14.473	905.502	676.903
226.811	14.501	905.078	676.643
227.826	14.431	904.122	675.585
228.840	14.416	903.742	675.181
229.855	14.459	902.005	673.995
230.869	14.440	901.618	673.571
231.884	14.573	900.897	673.508
232.899	14.532	900.229	672.784
233.913	14.531	899.603	672.254
234.928	14.421	899.175	671.429
235.942	14.403	898.697	670.944
236.957	14.467	897.903	670.547
237.972	14.429	897.404	669.964
238.986	14.555	896.500	669.733
240.001	14.513	895.793	668.980
241.015	14.636	895.445	669.152
242.030	14.678	894.690	668.698
243.045	14.753	894.317	668.658
244.059	14.610	893.682	667.553
245.074	14.566	892.739	666.613
246.088	14.796	892.059	666.965
247.103	14.651	891.691	666.052
248.117	14.818	890.835	666.020
249.132	14.733	890.281	665.207
250.147	14.910	889.658	665.389
251.161	14.839	889.144	664.662
252.176	14.933	888.688	664.639
253.190	15.059	887.671	664.318
254.205	14.915	887.297	663.408
255.220	14.969	886.585	663.031
256.234	14.920	886.367	662.615
257.249	14.930	885.334	661.824
258.263	15.004	884.725	661.604
259.278	15.064	883.474	660.844
260.293	15.159	883.169	660.935
261.307	15.200	882.699	660.684
262.322	15.157	882.176	660.065
263.336	15.196	881.243	659.463
264.351	15.155	880.638	658.791
265.366	15.264	879.933	658.633
266.380	15.298	879.498	658.382
267.395	15.195	879.017	657.560
268.409	15.066	878.286	656.450
269.424	15.235	877.316	656.328
270.439	15.269	876.433	655.742
271.453	15.102	876.221	654.875
272.468	15.182	875.658	654.709
273.482	15.208	874.998	654.257
274.497	15.253	874.269	653.831
275.512	15.277	873.797	653.513
276.526	15.324	873.116	653.129
277.541	15.288	873.169	652.969
278.555	15.417	872.212	652.697
279.570	15.327	871.681	651.893
280.585	15.632	870.283	651.972
281.599	15.562	869.938	651.385
282.614	15.342	869.540	650.177
283.628	15.433	869.070	650.119
284.643	15.457	867.786	649.194
285.657	15.449	867.581	648.952
286.672	15.634	866.607	648.881
287.687	15.497	866.239	648.021
288.701	15.488	865.771	647.579
289.716	15.459	865.188	646.973
290.730	15.602	864.627	647.045
291.745	15.424	864.160	645.953
292.760	15.682	863.182	646.157
293.774	15.543	863.022	645.447
294.789	15.673	861.677	644.884
295.803	15.593	860.939	643.969
296.818	15.557	860.689	643.584
297.833	15.623	860.202	643.418
298.847	15.611	859.163	642.539
299.862	15.669	859.005	642.583
300.876	15.601	858.613	641.972
301.891	15.778	857.830	642.007
302.906	15.829	856.889	641.441
303.920	15.831	856.923	641.416
304.935	15.873	856.216	640.992
305.949	15.939	855.195	640.421
306.964	15.799	855.148	639.799
307.979	15.951	854.391	639.752
308.993	15.936	854.127	639.441
310.008	15.928	853.088	638.576
311.022	15.858	852.690	637.956
312.037	15.919	852.245	637.799
313.052	15.956	851.383	637.234
314.066	15.890	850.710	636.427
315.081	16.037	850.268	636.595
316.095	15.776	849.902	635.277
317.110	15.818	849.365	634.979
318.125	15.797	848.850	634.459
319.139	15.746	848.557	633.991
320.154	15.880	847.919	633.962
321.168	15.860	847.381	633.429
322.183	16.166	846.235	633.666
323.197	15.859	846.496	632.650
324.212	16.004	845.411	632.329
325.227	16.021	845.094	632.101
326.241	16.021	844.520	631.616
327.256	15.959	843.961	630.909
328.270	16.025	843.463	630.727
329.285	15.894	842.983	629.823
330.300	15.890	842.375	629.299
331.314	16.078	841.482	629.276
332.329	16.116	841.091	629.071
333.343	16.122	840.820	628.837
334.358	15.988	840.591	628.109
335.373	16.161	839.887	628.172
336.387	16.025	839.885	627.607
337.402	16.268	839.221	627.959
338.416	16.295	838.891	627.759
339.431	16.231	838.318	627.038
340.446	16.288	838.201	627.106
341.460	16.357	837.598	626.852
342.475	16.324	837.290	626.447
343.489	16.417	836.856	626.411
344.504	16.387	836.406	625.907
345.519	16.437	835.884	625.645
346.533	16.431	835.466	625.254
347.548	16.344	834.934	624.482
348.562	16.267	834.383	623.727
349.577	16.337	833.918	623.585
350.592	16.235	833.490	622.831
351.606	16.379	832.475	622.551
352.621	16.361	831.599	621.774
353.635	16.468	830.896	621.587
354.650	16.424	830.184	620.837
355.665	16.525	829.864	620.914
356.679	16.557	829.336	620.582
357.694	16.638	828.504	620.200
358.708	16.713	828.112	620.128
359.723	16.605	827.101	618.921
360.738	16.558	826.839	618.497
361.752	16.580	826.552	618.307
362.767	16.618	825.731	617.777
363.781	16.552	825.470	617.288
364.796	16.744	824.885	617.496
365.810	16.714	824.508	617.051
366.825	16.703	824.643	617.055
367.840	16.592	824.030	616.137
368.854	16.832	822.876	616.094
369.869	16.818	822.762	615.904
370.883	16.795	822.556	615.610
371.898	16.717	822.328	615.101
372.913	16.889	821.732	615.226
373.927	16.918	820.927	614.672
374.942	16.785	820.533	613.844
375.956	16.828	820.183	613.683
376.971	17.043	819.739	614.075
377.986	16.879	819.432	613.196
379.000	17.183	818.549	613.578
380.015	17.056	818.100	612.728
381.029	17.024	817.999	612.485
382.044	17.117	816.994	612.013
383.059	17.078	816.683	611.585
384.073	17.122	815.973	611.157
385.088	17.052	815.408	610.429
386.102	16.975	815.018	609.807
387.117	17.102	814.298	609.668
388.132	17.037	813.680	608.919
389.146	17.113	813.388	608.920
390.161	17.116	812.843	608.467
391.175	17.156	812.340	608.180
392.190	17.254	811.618	607.936
393.205	17.159	811.118	607.168
394.219	17.197	810.782	607.001
395.234	17.167	810.453	606.592
396.248	16.992	810.186	605.716
397.263	17.029	809.945	605.612
398.278	17.086	809.788	605.644
399.292	17.186	808.954	605.323
400.307	17.250	807.940	604.740
401.321	17.171	808.130	604.548
402.336	17.177	807.425	603.986
403.350	17.303	806.737	603.868
404.365	17.224	806.836	603.609
405.380	17.177	806.602	603.214
406.394	17.406	805.648	603.259
407.409	17.383	804.928	602.583
408.423	17.364	805.079	602.575
409.438	17.488	804.666	602.653
410.453	17.401	804.025	601.810
411.467	17.423	803.636	601.544
412.482	17.457	803.327	601.380
413.496	17.531	802.769	601.170
414.511	17.664	802.275	601.217
415.526	17.633	802.019	600.862
416.540	17.631	801.441	600.368
417.555	17.580	801.253	599.996
418.569	17.663	800.627	599.767
419.584	17.627	800.186	599.255
420.599	17.731	799.741	599.235
421.613	114.298	1298.330	1488.153
422.628	98.545	1370.933	1488.220
