DTS Sentinel unit serial number:	SN413079Multiplexer serial number:	ORYXHardware model number:	OX4-SRSoftware version number:	ORYX F/W v4.00 Oryx Data Collector v3.7.2.0data status	okinstallation	princeton_trtdifferential loss correction	single-endedforward channel	channel 1reverse channel	N/Adate	2019/09/16time	21:02:35forward acquisition time	60.00reverse acquisition time	0.00gamma	496.2192k internal	0.2325k external	0.2325temperature offset calibration	0.9949default loss term (dB/km)	0.3790temperature slope calibration	1.0000multiplexer offset coefficient	1.0000multiplexer slope coefficient	1.0000fibre end	0.00T internal ref (°C)	31.98T ext. ref 1 (°C)	0.05T ext. ref 2 (°C)	25.37length (m)	temperature (°C)	Stokes	anti-Stokes-747.200	-64.681	0.357	-0.146
-746.185	-200.000	0.022	0.430
-745.171	-200.000	0.040	0.430
-744.156	-200.000	-0.014	0.371
-743.142	27.658	-0.113	-0.096
-742.127	-183.499	-0.465	-0.008
-741.112	34.631	0.150	0.132
-740.098	1.205	-0.146	0.106
-739.083	-64.995	0.279	0.114
-738.069	200.715	-0.090	0.139
-737.054	389.473	-0.045	0.095
-736.039	25.571	-0.129	-0.109
-735.025	-200.000	0.052	0.450
-734.010	42.325	-0.130	-0.119
-732.996	87.598	-0.074	0.082
-731.981	800.000	0.062	0.172
-730.966	464.505	-0.058	-0.131
-729.952	-161.300	-0.232	-0.012
-728.937	-163.286	-0.263	-0.013
-727.923	-58.925	-0.192	-0.084
-726.908	-200.000	0.020	-0.125
-725.894	445.555	-0.021	-0.047
-724.879	72.998	0.160	-0.169
-723.864	90.276	-0.163	-0.183
-722.850	-166.065	0.372	-0.016
-721.835	-183.305	-0.519	-0.009
-720.821	-200.000	-0.049	0.372
-719.806	-12.188	-0.064	-0.042
-718.791	172.109	0.084	0.122
-717.777	89.012	0.112	-0.125
-716.762	-17.451	0.143	-0.091
-715.748	285.843	0.088	-0.161
-714.733	-96.000	-0.073	-0.020
-713.718	253.245	-0.082	-0.141
-712.704	53.077	-0.291	-0.280
-711.689	-200.000	-0.012	-0.128
-710.675	-22.950	-0.073	0.044
-709.660	-200.000	-0.011	-0.326
-708.645	800.000	0.123	0.353
-707.631	315.672	-0.087	0.165
-706.616	800.000	-0.016	-0.047
-705.602	93.611	-0.130	0.148
-704.587	732.821	-0.104	0.280
-703.572	-24.737	0.524	-0.314
-702.558	800.000	-0.084	-0.282
-701.543	-200.000	0.065	0.528
-700.529	57.433	0.186	-0.183
-699.514	20.461	0.193	-0.158
-698.499	83.426	-0.161	-0.177
-697.485	67.230	-0.118	0.122
-696.470	-44.040	-0.238	0.121
-695.456	102.143	-0.270	-0.318
-694.441	800.000	0.052	-0.208
-693.426	-200.000	-0.052	-0.432
-692.412	315.686	-0.122	-0.231
-691.397	-200.000	0.027	-0.130
-690.383	174.703	-0.363	0.528
-689.368	157.812	-0.099	-0.138
-688.354	0.948	0.061	-0.044
-687.339	135.414	-0.163	-0.214
-686.324	-200.000	0.012	0.103
-685.310	189.015	-0.181	-0.272
-684.295	800.000	-0.004	0.014
-683.281	121.184	0.112	-0.140
-682.266	-104.136	0.117	0.028
-681.251	6.600	0.144	-0.108
-680.237	609.925	-0.114	-0.286
-679.222	-12.972	-0.215	-0.141
-678.208	157.796	0.087	0.121
-677.193	-124.936	0.227	0.035
-676.178	-40.840	0.200	-0.104
-675.164	-38.739	-0.292	0.155
-674.149	16.820	0.043	0.034
-673.135	95.444	-0.200	-0.230
-672.120	-129.450	0.372	0.052
-671.105	-17.029	0.202	0.128
-670.091	-113.061	-0.487	-0.097
-669.076	-200.000	-0.049	-0.304
-668.062	-200.000	0.008	0.180
-667.047	-94.819	-0.189	-0.052
-666.032	-200.000	0.004	-0.087
-665.018	-70.348	0.254	0.097
-664.003	-200.000	0.014	0.410
-662.989	481.758	0.130	0.297
-661.974	-200.000	0.013	-0.086
-660.959	-45.804	-0.172	-0.085
-659.945	52.947	-0.200	-0.192
-658.930	-51.157	0.366	-0.173
-657.916	41.247	0.061	-0.055
-656.901	392.423	0.143	-0.299
-655.886	800.000	-0.069	0.207
-654.872	-154.000	0.160	-0.011
-653.857	93.572	-0.041	0.046
-652.843	149.535	0.218	-0.297
-651.828	-147.407	-0.334	-0.028
-650.814	800.000	0.036	0.121
-649.799	409.163	0.093	-0.199
-648.784	202.349	0.188	-0.292
-647.770	-200.000	0.007	-0.069
-646.755	63.294	0.127	0.128
-645.741	800.000	0.047	0.159
-644.726	-172.907	-0.154	0.005
-643.711	-121.354	-0.310	-0.052
-642.697	-200.000	-0.008	0.226
-641.682	-44.549	0.294	0.148
-640.668	800.000	-0.112	-0.355
-639.653	162.177	-0.133	0.187
-638.638	61.676	-0.259	0.259
-637.624	349.090	0.146	0.289
-636.609	504.725	0.185	-0.430
-635.595	-110.844	0.458	-0.095
-634.580	-200.000	-0.010	0.117
-633.565	-12.477	-0.280	0.184
-632.551	270.551	-0.203	0.358
-631.536	800.000	0.133	0.400
-630.522	18.510	0.201	-0.162
-629.507	800.000	-0.089	-0.250
-628.492	138.789	-0.128	-0.169
-627.478	57.441	-0.229	0.224
-626.463	-83.105	0.141	0.046
-625.449	-54.180	-0.307	-0.140
-624.434	18.112	0.254	-0.203
-623.419	-140.572	-0.243	0.025
-622.405	-16.605	0.099	-0.063
-621.390	555.556	-0.028	-0.069
-620.376	-8.412	-0.132	-0.089
-619.361	-101.812	-0.154	0.037
-618.346	88.034	0.203	0.226
-617.332	279.543	0.188	-0.338
-616.317	452.368	0.038	0.084
-615.303	800.000	0.034	-0.109
-614.288	-136.522	0.223	0.026
-613.273	43.835	0.303	0.278
-612.259	800.000	0.111	0.345
-611.244	-122.018	0.079	0.013
-610.230	-134.919	0.063	0.008
-609.215	-102.812	-0.139	0.033
-608.201	-200.000	0.003	-0.018
-607.186	50.875	0.106	-0.101
-606.171	-200.000	-0.033	-0.373
-605.157	800.000	0.033	0.094
-604.142	37.309	-0.155	0.137
-603.128	570.817	-0.081	-0.197
-602.113	800.000	-0.074	-0.212
-601.098	800.000	-0.100	-0.355
-600.084	-32.664	0.092	-0.052
-599.069	-47.905	-0.281	-0.137
-598.055	718.293	0.040	-0.107
-597.040	542.159	0.185	0.443
-596.025	-101.278	0.148	-0.036
-595.011	41.046	0.097	-0.087
-593.996	-63.347	-0.256	0.106
-592.982	256.972	-0.057	0.098
-591.967	800.000	-0.043	-0.158
-590.952	-187.048	-0.039	-0.001
-589.938	-200.000	-0.047	-0.235
-588.923	330.737	0.066	0.128
-587.909	209.494	-0.084	-0.133
-586.894	-42.262	-0.171	0.087
-585.879	-9.069	0.096	0.065
-584.865	134.472	0.125	-0.162
-583.850	-187.676	0.071	0.001
-582.836	-200.000	0.033	-0.218
-581.821	75.364	0.200	-0.211
-580.806	-126.821	-0.247	0.037
-579.792	261.988	-0.139	-0.241
-578.777	68.563	-0.225	0.232
-577.763	-200.000	-0.016	0.144
-576.748	564.784	-0.207	0.504
-575.733	525.943	-0.121	0.286
-574.719	-148.793	0.267	0.022
-573.704	187.338	-0.125	0.187
-572.690	-51.056	0.243	-0.114
-571.675	-200.000	0.032	-0.218
-570.661	-200.000	0.042	-0.555
-569.646	-200.000	0.018	-0.420
-568.631	233.913	-0.081	0.134
-567.617	-200.000	-0.042	0.270
-566.602	-97.388	0.394	0.103
-565.588	-77.226	0.094	0.033
-564.573	-103.281	-0.085	0.020
-563.558	43.061	0.121	-0.110
-562.544	532.805	0.080	-0.190
-561.529	64.949	0.102	-0.104
-560.515	26.622	0.243	0.204
-559.500	306.170	0.223	-0.416
-558.485	-158.727	0.151	0.009
-557.471	-9.510	0.055	0.037
-556.456	-123.195	0.051	-0.008
-555.442	-35.145	-0.239	0.130
-554.427	11.340	-0.254	-0.195
-553.412	55.893	-0.228	-0.221
-552.398	800.000	0.034	0.128
-551.383	-89.992	-0.422	-0.123
-550.369	-9.788	-0.119	0.080
-549.354	-98.057	0.097	0.025
-548.339	-200.000	-0.029	0.253
-547.325	640.465	-0.020	0.050
-546.310	-200.000	-0.008	-0.341
-545.296	-59.861	-0.212	-0.091
-544.281	251.713	-0.075	0.128
-543.266	482.448	0.068	-0.155
-542.252	-62.525	-0.034	0.014
-541.237	103.740	0.062	0.073
-540.223	800.000	-0.093	0.336
-539.208	-128.799	-0.247	-0.035
-538.193	-200.000	0.040	0.251
-537.179	-200.000	0.112	0.000
-536.164	-76.168	0.013	-0.005
-535.150	-200.000	-0.010	-0.089
-534.135	800.000	0.036	-0.120
-533.121	800.000	0.029	0.100
-532.106	-200.000	0.023	0.117
-531.091	-130.046	-0.113	0.015
-530.077	-80.064	0.175	-0.059
-529.062	-140.360	-0.445	0.046
-528.048	-114.241	-0.169	-0.033
-527.033	391.593	0.084	0.174
-526.018	-98.344	-0.087	-0.022
-525.004	483.578	-0.019	-0.044
-523.989	586.693	0.043	-0.106
-522.975	46.563	-0.160	0.149
-521.960	800.000	-0.123	0.426
-520.945	-18.552	0.313	0.195
-519.931	-101.602	0.377	-0.091
-518.916	-200.000	-0.032	0.144
-517.902	47.221	-0.179	-0.166
-516.887	-200.000	-0.005	-0.161
-515.872	-190.380	-0.155	0.002
-514.858	334.535	0.154	0.299
-513.843	800.000	-0.059	-0.254
-512.829	-200.000	0.014	-0.069
-511.814	306.928	0.171	0.318
-510.799	800.000	-0.113	0.316
-509.785	-200.000	-0.036	-0.237
-508.770	-200.000	-0.078	0.351
-507.756	0.055	-0.123	-0.088
-506.741	135.871	0.183	-0.239
-505.726	517.476	0.045	-0.106
-504.712	415.012	-0.135	-0.288
-503.697	-200.000	-0.032	-0.146
-502.683	-163.320	0.086	-0.004
-501.668	203.308	-0.077	0.119
-500.653	-200.000	0.016	0.077
-499.639	44.803	-0.335	0.308
-498.624	103.745	-0.228	0.267
-497.610	800.000	-0.088	0.282
-496.595	208.085	-0.243	0.379
-495.581	-9.583	0.316	-0.211
-494.566	82.094	-0.031	-0.033
-493.551	-93.035	-0.035	0.010
-492.537	-26.566	-0.232	0.136
-491.522	-200.000	0.019	-0.123
-490.508	-23.041	0.268	0.161
-489.493	168.649	0.091	-0.129
-488.478	135.545	0.185	-0.240
-487.464	-200.000	0.018	-0.495
-486.449	-142.974	0.131	0.013
-485.435	-131.988	-0.281	-0.037
-484.420	137.386	0.175	-0.228
-483.405	-61.491	0.199	0.083
-482.391	362.145	-0.024	-0.049
-481.376	75.584	0.099	0.105
-480.362	155.288	0.149	0.205
-479.347	-20.397	0.094	0.058
-478.332	-159.279	-0.417	-0.023
-477.318	800.000	0.093	0.269
-476.303	38.518	-0.128	-0.114
-475.289	-200.000	-0.046	0.368
-474.274	-200.000	-0.001	-0.095
-473.259	236.966	0.119	0.197
-472.245	200.939	0.115	-0.176
-471.230	68.554	-0.212	-0.217
-470.216	-131.687	0.183	0.024
-469.201	152.986	0.062	0.085
-468.186	-75.820	-0.122	-0.043
-467.172	-200.000	0.039	0.180
-466.157	-181.697	-0.244	-0.005
-465.143	42.171	0.033	-0.030
-464.128	-192.199	-0.260	-0.002
-463.113	-116.401	0.139	0.026
-462.099	67.207	-0.177	-0.180
-461.084	-127.062	-0.026	0.004
-460.070	-156.175	0.282	0.018
-459.055	-200.000	0.055	0.341
-458.040	-112.354	-0.130	-0.026
-457.026	-200.000	-0.010	0.104
-456.011	260.021	-0.089	-0.154
-454.997	175.445	0.046	-0.066
-453.982	104.311	-0.201	-0.236
-452.968	156.500	0.047	0.065
-451.953	-76.511	0.079	0.028
-450.938	-163.641	-0.144	-0.007
-449.924	556.427	-0.097	-0.233
-448.909	-5.411	0.166	0.114
-447.895	57.041	-0.369	0.359
-446.880	-162.466	-0.308	0.015
-445.865	-200.000	-0.045	-0.200
-444.851	-127.755	-0.362	0.052
-443.836	-200.000	0.008	0.074
-442.822	280.260	-0.158	-0.281
-441.807	140.527	0.078	-0.102
-440.792	-180.495	0.132	0.003
-439.778	22.599	-0.240	-0.196
-438.763	783.123	-0.109	-0.296
-437.749	-200.000	0.006	0.045
-436.734	-8.994	-0.205	-0.137
-435.719	103.040	0.186	-0.218
-434.705	130.468	0.090	-0.115
-433.690	-118.476	-0.316	0.056
-432.676	-200.000	-0.012	-0.086
-431.661	800.000	0.022	0.065
-430.646	-200.000	0.031	0.256
-429.632	176.021	0.188	0.272
-428.617	-36.575	0.100	-0.053
-427.603	-106.470	0.257	-0.057
-426.588	64.452	0.160	0.160
-425.573	107.449	0.228	-0.270
-424.559	-22.164	-0.120	-0.073
-423.544	152.252	0.170	-0.231
-422.530	43.331	-0.243	0.221
-421.515	-82.012	0.188	-0.061
-420.500	800.000	0.023	0.079
-419.486	800.000	-0.069	0.258
-418.471	246.147	-0.149	0.249
-417.457	-196.903	-0.189	0.001
-416.442	-151.591	0.152	-0.011
-415.428	66.727	0.034	-0.035
-414.413	-200.000	0.010	0.187
-413.398	-0.290	0.309	-0.219
-412.384	111.241	0.112	0.135
-411.369	-200.000	0.004	0.072
-410.355	-8.254	-0.106	-0.071
-409.340	544.608	0.059	0.140
-408.325	-121.717	-0.168	0.028
-407.311	363.811	-0.042	-0.084
-406.296	-99.881	-0.313	-0.078
-405.282	-135.956	-0.279	-0.033
-404.267	76.990	0.054	-0.057
-403.252	293.357	0.112	-0.203
-402.238	-200.000	-0.083	-0.476
-401.223	-83.798	-0.192	0.061
-400.209	-25.256	0.107	-0.063
-399.194	-200.000	-0.022	-0.309
-398.179	-112.071	0.324	0.065
-397.165	-156.496	0.085	0.005
-396.150	180.875	0.107	0.157
-395.136	-200.000	-0.012	0.206
-394.121	-133.442	0.083	-0.010
-393.106	-200.000	0.011	-0.280
-392.092	328.329	-0.109	0.209
-391.077	116.362	0.131	0.160
-390.063	197.340	-0.056	-0.085
-389.048	221.078	-0.105	0.167
-388.033	244.360	-0.115	0.192
-387.019	609.922	-0.074	0.184
-386.004	275.975	0.108	-0.190
-384.990	800.000	-0.005	0.020
-383.975	-200.000	-0.009	-0.183
-382.960	-200.000	-0.027	0.384
-381.946	800.000	0.112	0.389
-380.931	27.704	0.214	-0.179
-379.917	-150.347	0.334	0.026
-378.902	-57.905	0.202	0.088
-377.888	20.670	0.053	-0.042
-376.873	-25.677	-0.177	-0.104
-375.858	-66.462	-0.324	-0.128
-374.844	224.054	0.208	0.334
-373.829	44.762	-0.061	0.056
-372.815	-71.717	-0.198	0.074
-371.800	-37.983	0.159	-0.084
-370.785	800.000	-0.066	-0.251
-369.771	800.000	0.058	0.195
-368.756	800.000	0.191	0.529
-367.742	800.000	0.016	-0.049
-366.727	-139.644	-0.362	0.038
-365.712	-66.081	-0.365	0.145
-364.698	-135.204	0.056	0.007
-363.683	58.734	-0.107	-0.104
-362.669	11.323	-0.287	0.218
-361.654	154.922	0.067	-0.091
-360.639	-21.309	-0.196	0.119
-359.625	335.275	0.175	0.337
-358.610	-141.339	-0.227	0.023
-357.596	-55.273	-0.245	-0.109
-356.581	800.000	-0.052	0.171
-355.566	174.923	-0.141	0.203
-354.552	25.011	-0.112	0.092
-353.537	292.053	-0.142	-0.257
-352.523	-101.485	0.058	-0.014
-351.508	39.217	-0.128	-0.114
-350.493	465.137	0.067	-0.149
-349.479	800.000	-0.042	0.140
-348.464	49.513	-0.288	0.269
-347.450	800.000	-0.067	-0.202
-346.435	-115.195	0.246	0.046
-345.420	-121.547	-0.144	0.024
-344.406	181.492	0.112	0.163
-343.391	800.000	0.113	-0.364
-342.377	-11.375	-0.385	-0.252
-341.362	-11.173	0.128	-0.084
-340.348	-200.000	0.012	-0.090
-339.333	-154.367	-0.348	-0.023
-338.318	800.000	0.124	0.434
-337.304	287.646	-0.116	-0.208
-336.289	-200.000	-0.016	-0.407
-335.275	282.076	-0.033	0.059
-334.260	783.753	0.057	0.155
-333.245	-106.508	-0.142	-0.031
-332.231	-200.000	0.029	0.186
-331.216	21.296	-0.252	-0.204
-330.202	800.000	-0.061	0.177
-329.187	-90.284	-0.293	0.085
-328.172	-135.319	0.356	0.042
-327.158	73.393	-0.133	0.138
-326.143	23.559	-0.157	0.128
-325.129	-70.287	0.129	0.049
-324.114	-180.633	-0.041	-0.001
-323.099	464.603	0.198	-0.439
-322.085	-104.811	0.196	0.045
-321.070	607.608	-0.208	-0.516
-320.056	332.460	0.088	-0.169
-319.041	-51.923	0.342	0.158
-318.026	-71.987	0.312	0.115
-317.012	81.382	-0.056	-0.060
-315.997	-113.800	0.070	-0.013
-314.983	800.000	-0.024	-0.072
-313.968	99.186	0.104	-0.120
-312.953	-200.000	-0.008	-0.132
-311.939	137.311	0.103	0.134
-310.924	-75.785	0.276	0.097
-309.910	372.747	0.069	-0.140
-308.895	-200.000	-0.001	-0.088
-307.880	23.743	0.073	0.060
-306.866	60.464	0.118	-0.116
-305.851	-175.712	-0.124	0.003
-304.837	110.896	0.101	0.120
-303.822	-130.523	-0.181	0.024
-302.807	-200.000	-0.020	-0.206
-301.793	92.833	-0.160	-0.179
-300.778	-152.339	0.096	0.007
-299.764	800.000	0.038	-0.151
-298.749	-54.134	0.125	-0.056
-297.735	239.976	0.162	0.268
-296.720	15.951	0.184	-0.144
-295.705	-200.000	-0.268	0.000
-294.691	-200.000	0.428	0.001
-293.676	-100.349	-0.217	-0.053
-292.662	-200.000	-0.017	-0.403
-291.647	227.566	0.090	-0.145
-290.632	-200.000	-0.015	-0.407
-289.618	794.361	0.062	-0.169
-288.603	-200.000	-0.018	-0.152
-287.589	-96.658	-0.056	0.015
-286.574	114.501	-0.118	-0.143
-285.559	-33.765	0.202	-0.111
-284.545	258.192	-0.108	-0.185
-283.530	136.832	-0.054	0.070
-282.516	308.847	0.204	-0.378
-281.501	-77.734	-0.360	0.123
-280.486	220.761	0.070	-0.112
-279.472	-51.817	-0.354	-0.163
-278.457	-57.357	0.319	-0.139
-277.443	-0.603	0.095	0.067
-276.428	-70.678	0.179	0.067
-275.413	-92.762	-0.271	-0.075
-274.399	-108.981	0.366	-0.077
-273.384	134.360	-0.012	-0.016
-272.370	-200.000	-0.069	-0.371
-271.355	601.841	-0.137	0.336
-270.340	432.164	0.133	-0.285
-269.326	328.871	0.111	-0.212
-268.311	56.000	-0.106	-0.102
-267.297	229.196	0.043	-0.069
-266.282	38.705	-0.193	0.171
-265.267	-87.667	-0.065	-0.020
-264.253	-170.357	-0.071	-0.002
-263.238	99.895	0.082	0.094
-262.224	800.000	0.102	0.442
-261.209	-46.263	0.372	0.181
-260.195	302.975	-0.020	-0.036
-259.180	800.000	0.149	0.441
-258.165	327.982	-0.040	-0.077
-257.151	43.408	0.348	0.315
-256.136	-113.756	0.274	-0.053
-255.122	-200.000	-0.039	-0.251
-254.107	-200.000	-0.008	0.101
-253.092	218.744	-0.151	-0.239
-252.078	-183.109	0.285	-0.005
-251.063	-130.931	0.093	-0.012
-250.049	-76.035	-0.173	0.060
-249.034	-94.481	0.254	0.069
-248.019	-200.000	-0.004	0.020
-247.005	-200.000	0.029	0.139
-245.990	-200.000	0.002	0.338
-244.976	512.172	0.091	0.210
-243.961	220.093	-0.141	-0.224
-242.946	800.000	0.086	-0.318
-241.932	-127.907	-0.163	-0.023
-240.917	89.738	-0.044	0.048
-239.903	48.795	0.127	0.118
-238.888	800.000	0.116	-0.366
-237.873	-200.000	0.002	0.044
-236.859	27.347	0.308	-0.256
-235.844	197.990	0.105	-0.159
-234.830	116.856	0.150	-0.182
-233.815	101.472	-0.252	0.290
-232.800	-158.016	0.305	-0.018
-231.786	11.886	0.035	-0.026
-230.771	220.643	-0.212	0.336
-229.757	-128.489	-0.140	0.020
-228.742	-200.000	0.045	-0.229
-227.727	-112.016	0.192	0.038
-226.713	-52.540	-0.130	-0.059
-225.698	-115.231	0.154	0.029
-224.684	-168.145	0.501	-0.019
-223.669	-200.000	0.020	0.293
-222.655	-9.775	0.042	-0.027
-221.640	-36.246	0.346	0.185
-220.625	-61.011	-0.179	-0.075
-219.611	-57.630	-0.280	-0.121
-218.596	185.719	0.137	0.201
-217.582	136.434	0.189	0.244
-216.567	-200.000	0.024	-0.166
-215.552	-0.449	0.240	-0.168
-214.538	800.000	-0.059	0.214
-213.523	138.230	-0.041	-0.053
-212.509	274.610	-0.132	0.231
-211.494	800.000	0.063	0.237
-210.479	37.529	0.062	-0.055
-209.465	497.217	0.155	0.352
-208.450	-129.720	0.258	-0.035
-207.436	256.746	0.175	-0.298
-206.421	-18.406	-0.176	-0.109
-205.406	388.720	0.058	0.119
-204.392	247.481	-0.165	-0.275
-203.377	-46.389	-0.343	0.166
-202.363	125.523	0.317	-0.395
-201.348	-28.124	0.081	-0.046
-200.333	-125.068	0.178	0.027
-199.319	-42.103	-0.144	0.073
-198.304	1.805	-0.339	0.242
-197.290	-99.717	-0.105	-0.026
-196.275	89.998	-0.116	-0.128
-195.260	413.230	-0.068	0.142
-194.246	14.410	0.258	0.199
-193.231	-43.612	0.182	-0.091
-192.217	151.871	-0.203	0.273
-191.202	-82.587	-0.260	-0.083
-190.187	29.274	0.187	-0.157
-189.173	-91.297	-0.311	0.088
-188.158	-151.536	0.107	-0.008
-187.144	-200.000	0.025	-0.236
-186.129	-200.000	0.086	-0.419
-185.114	-5.466	-0.163	0.111
-184.100	250.148	-0.071	0.119
-183.085	227.622	0.076	0.122
-182.071	27.667	-0.195	-0.162
-181.056	-165.395	0.385	0.017
-180.042	164.827	-0.099	-0.138
-179.027	-200.000	0.029	0.280
-178.012	800.000	-0.073	0.210
-176.998	-200.000	-0.009	-0.120
-175.983	-23.723	0.413	0.244
-174.969	-77.980	-0.372	0.127
-173.954	-11.737	0.177	-0.115
-172.939	-20.620	-0.058	0.035
-171.925	-200.000	-0.006	0.035
-170.910	318.579	-0.045	0.083
-169.896	552.245	-0.022	-0.053
-168.881	-24.337	-0.059	-0.035
-167.866	169.544	0.111	-0.156
-166.852	-64.704	0.360	-0.144
-165.837	-86.081	-0.232	0.071
-164.823	-107.164	-0.049	-0.011
-163.808	334.846	-0.183	0.350
-162.793	-30.117	-0.296	0.166
-161.779	800.000	-0.131	0.412
-160.764	-200.000	0.012	0.088
-159.750	800.000	-0.056	0.218
-158.735	309.116	0.067	0.124
-157.720	-43.784	0.160	-0.079
-156.706	-77.290	-0.191	-0.066
-155.691	27.810	-0.099	0.083
-154.677	-104.420	0.582	-0.133
-153.662	40.362	0.171	-0.152
-152.647	-117.587	-0.099	0.018
-151.633	-73.508	-0.133	0.048
-150.618	-101.037	0.154	0.037
-149.604	-153.769	0.388	-0.026
-148.589	545.774	-0.025	-0.058
-147.574	-200.000	-0.029	-0.144
-146.560	-71.563	-0.119	0.044
-145.545	800.000	-0.072	-0.236
-144.531	353.359	0.123	0.240
-143.516	-200.000	-0.011	0.263
-142.502	101.030	-0.103	-0.119
-141.487	46.184	0.321	-0.293
-140.472	9.014	-0.096	0.072
-139.458	121.517	-0.111	-0.136
-138.443	68.421	0.155	0.157
-137.429	114.230	0.088	0.106
-136.414	-200.000	0.073	-0.491
-135.399	10.601	0.155	-0.116
-134.385	-162.394	0.339	-0.017
-133.370	-200.000	0.010	0.083
-132.356	704.007	0.152	-0.396
-131.341	-200.000	0.029	0.297
-130.326	-160.040	-0.107	-0.006
-129.312	-30.461	0.278	0.155
-128.297	-89.689	-0.127	0.037
-127.283	-17.448	0.329	-0.204
-126.268	38.417	-0.249	-0.218
-125.253	359.216	-0.156	-0.308
-124.239	-200.000	0.007	0.298
-123.224	-16.574	-0.156	-0.097
-122.210	-63.048	-0.146	0.059
-121.195	-200.000	0.019	-0.262
-120.180	109.883	-0.214	0.252
-119.166	-200.000	-0.061	0.320
-118.151	21.919	0.150	-0.120
-117.137	-53.004	-0.432	0.196
-116.122	-88.241	0.122	-0.036
-115.107	-200.000	-0.032	0.292
-114.093	-200.000	-0.045	-0.229
-113.078	15.382	0.036	-0.028
-112.064	38.926	-0.178	0.156
-111.049	800.000	-0.024	-0.084
-110.034	-200.000	0.009	-0.250
-109.020	-48.297	0.068	-0.032
-108.005	-200.000	0.071	0.324
-106.991	-83.448	-0.205	-0.065
-105.976	-200.000	0.047	0.344
-104.962	409.049	-0.055	0.115
-103.947	-165.753	0.285	-0.012
-102.932	109.780	-0.050	0.059
-101.918	-64.627	-0.067	0.027
-100.903	-132.886	0.098	-0.012
-99.889	800.000	-0.032	0.097
-98.874	292.348	0.139	-0.250
-97.859	-37.482	0.048	0.025
-96.845	-67.299	-0.307	-0.119
-95.830	207.845	-0.118	-0.182
-94.816	-200.000	0.021	-0.250
-93.801	-52.792	0.096	0.043
-92.786	790.193	-0.030	-0.081
-91.772	128.170	0.163	0.204
-90.757	-200.000	0.018	-0.115
-89.743	44.988	-0.238	-0.215
-88.728	-7.781	-0.104	-0.069
-87.713	-69.611	0.155	-0.058
-86.699	-123.072	0.114	-0.018
-85.684	-27.544	-0.065	-0.037
-84.670	-49.280	-0.142	-0.067
-83.655	-200.000	-0.004	0.159
-82.640	-108.534	-0.272	0.057
-81.626	63.200	0.082	-0.081
-80.611	291.118	0.040	0.072
-79.597	10.151	-0.309	-0.231
-78.582	52.524	0.218	-0.205
-77.567	-200.000	0.032	0.300
-76.553	784.917	0.086	0.233
-75.538	-7.314	-0.151	0.101
-74.524	-200.000	0.015	-0.227
-73.509	-58.893	-0.299	0.127
-72.494	615.108	0.051	-0.127
-71.480	38.681	-0.075	0.066
-70.465	800.000	0.044	-0.165
-69.451	-98.879	-0.130	0.033
-68.436	-200.000	-0.002	-0.116
-67.422	-150.158	0.279	0.021
-66.407	83.192	-0.121	-0.130
-65.392	-128.203	0.182	-0.026
-64.378	-107.605	0.137	-0.029
-63.363	800.000	-0.007	-0.024
-62.349	166.123	0.292	0.407
-61.334	0.169	-1.008	-0.707
-60.319	-7.481	0.836	0.556
-59.305	744.878	-0.385	-1.017
-58.290	730.440	0.464	1.219
-57.276	394.640	0.724	1.482
-56.261	-200.000	96.507	587.148
-55.246	544.262	1376.479	3228.815
-54.232	163.399	2540.827	3509.283
-53.217	113.595	2132.927	2544.661
-52.203	43.855	1596.668	1436.360
-51.188	35.631	1334.483	1151.434
-50.173	32.279	1293.399	1096.430
-49.159	54.801	1339.910	1269.881
-48.144	56.828	1357.068	1298.096
-47.130	35.778	1315.968	1136.142
-46.115	32.174	1298.398	1099.880
-45.100	31.962	1293.697	1094.618
-44.086	31.921	1290.561	1091.678
-43.071	31.833	1288.836	1089.668
-42.057	31.876	1286.283	1087.713
-41.042	31.856	1284.841	1086.335
-40.027	31.956	1283.194	1085.478
-39.013	31.944	1281.186	1083.668
-37.998	31.786	1280.186	1081.864
-36.984	31.964	1278.188	1081.163
-35.969	32.031	1276.074	1079.718
-34.954	32.015	1274.588	1078.321
-33.940	32.032	1273.165	1077.175
-32.925	32.107	1272.093	1076.656
-31.911	32.034	1271.033	1075.297
-30.896	32.106	1269.279	1074.184
-29.881	32.193	1267.518	1073.148
-28.867	32.194	1266.560	1072.299
-27.852	32.136	1264.892	1070.515
-26.838	32.007	1263.878	1068.880
-25.823	32.086	1262.468	1068.094
-24.809	32.105	1260.760	1066.710
-23.794	32.031	1259.944	1065.558
-22.779	32.055	1257.953	1063.970
-21.765	31.966	1257.351	1062.911
-20.750	32.045	1255.875	1062.071
-19.736	32.090	1254.195	1060.861
-18.721	32.045	1253.004	1059.558
-17.706	31.825	1252.461	1057.817
-16.692	31.909	1251.125	1057.121
-15.677	31.867	1250.329	1056.165
-14.663	31.926	1248.850	1055.208
-13.648	31.890	1247.976	1054.228
-12.633	32.009	1246.443	1053.560
-11.619	31.880	1246.222	1052.605
-10.604	31.883	1245.286	1051.790
-9.590	31.879	1243.879	1050.535
-8.575	31.973	1242.951	1050.236
-7.560	31.881	1242.558	1049.350
-6.546	31.882	1241.802	1048.674
-5.531	31.925	1240.873	1048.087
-4.517	31.946	1239.713	1047.185
-3.502	31.994	1238.778	1046.618
-2.487	32.006	1237.635	1045.682
-1.473	31.878	1233.598	1041.517
-0.458	30.258	1218.676	1019.978
0.556	24.515	1200.968	980.364
1.571	20.580	1206.682	963.186
2.586	19.600	1221.271	969.246
3.600	19.192	1210.598	958.425
4.615	14.108	1138.494	874.586
5.629	4.920	1061.572	770.184
6.644	0.383	1041.888	733.793
7.659	-0.037	1039.284	729.852
8.673	-0.004	1038.093	729.112
9.688	-0.130	1036.772	727.508
10.702	0.129	1035.417	727.748
11.717	5.581	1042.764	759.344
12.731	14.368	1053.467	809.961
13.746	17.799	1056.732	829.101
14.761	17.039	1055.615	824.464
15.775	15.896	1053.312	817.045
16.790	14.906	1051.234	810.565
17.804	14.241	1049.743	806.123
18.819	13.908	1048.672	803.620
19.834	13.647	1047.748	801.581
20.848	13.422	1046.872	799.752
21.863	13.134	1046.039	797.655
22.877	12.953	1045.418	796.236
23.892	12.968	1044.670	795.666
24.907	12.889	1043.886	794.620
25.921	12.959	1043.165	794.337
26.936	13.077	1041.959	793.916
27.950	13.158	1040.782	793.336
28.965	13.094	1040.576	792.804
29.980	13.214	1038.834	791.983
30.994	13.228	1038.005	791.344
32.009	13.314	1036.785	790.757
33.023	13.219	1036.274	789.845
34.038	13.114	1035.259	788.497
35.053	13.185	1034.337	788.064
36.067	13.084	1033.552	786.917
37.082	13.061	1033.011	786.327
38.096	13.210	1031.943	786.152
39.111	13.187	1030.916	785.192
40.126	13.100	1030.097	784.084
41.140	12.967	1028.858	782.441
42.155	12.985	1027.748	781.612
43.169	12.946	1026.685	780.548
44.184	12.907	1025.704	779.552
45.199	12.950	1024.304	778.624
46.213	12.946	1023.805	778.154
47.228	13.110	1022.506	777.869
48.242	13.061	1021.539	776.837
49.257	13.104	1020.458	776.145
50.271	13.175	1019.675	775.818
51.286	13.082	1018.876	774.704
52.301	13.158	1017.936	774.277
53.315	13.095	1016.930	773.150
54.330	12.940	1016.559	772.074
55.344	13.093	1015.131	771.632
56.359	12.997	1014.763	770.836
57.374	13.045	1013.480	770.016
58.388	12.990	1012.408	768.881
59.403	12.850	1012.048	767.884
60.417	12.953	1010.984	767.490
61.432	12.794	1010.326	766.181
62.447	12.898	1009.608	766.053
63.461	13.058	1008.420	765.828
64.476	12.842	1007.756	764.255
65.490	12.824	1007.140	763.635
66.505	13.094	1006.026	763.974
67.520	12.892	1005.545	762.604
68.534	12.994	1004.670	762.347
69.549	12.918	1004.062	761.467
70.563	12.860	1003.360	760.597
71.578	13.008	1002.338	760.441
72.593	12.827	1002.070	759.334
73.607	12.909	1001.408	759.144
74.622	12.850	1000.932	758.442
75.636	12.793	1000.223	757.579
76.651	12.927	999.518	757.591
77.666	12.731	998.991	756.224
78.680	12.903	998.169	756.324
79.695	12.890	997.505	755.696
80.709	12.861	996.871	755.017
81.724	12.912	996.378	754.809
82.739	13.070	995.293	754.642
83.753	13.077	995.142	754.496
84.768	13.222	993.924	754.165
85.782	13.148	992.955	753.024
86.797	13.167	992.133	752.424
87.812	13.162	990.963	751.444
88.826	13.252	990.011	751.067
89.841	13.221	989.256	750.284
90.855	13.173	988.367	749.326
91.870	13.337	987.619	749.439
92.884	13.236	987.073	748.502
93.899	13.218	985.902	747.465
94.914	13.354	985.205	747.486
95.928	13.328	984.479	746.750
96.943	13.171	983.704	745.386
97.957	13.303	982.538	745.033
98.972	13.190	982.021	744.068
99.987	13.210	981.009	743.325
101.001	13.245	980.083	742.712
102.016	13.122	979.717	741.818
103.030	13.178	979.043	741.495
104.045	13.261	978.043	741.042
105.060	13.260	977.266	740.384
106.074	13.094	976.420	738.935
107.089	13.143	975.423	738.332
108.103	12.970	974.365	736.696
109.118	12.952	973.524	735.912
110.133	13.074	972.398	735.540
111.147	13.044	971.752	734.855
112.162	13.035	970.732	733.975
113.176	13.127	970.345	734.027
114.191	13.172	969.560	733.570
115.206	13.084	968.867	732.591
116.220	13.125	967.831	731.923
117.235	13.111	966.823	731.035
118.249	13.152	966.012	730.537
119.264	13.179	965.139	729.933
120.279	13.100	964.373	728.940
121.293	13.023	963.588	727.943
122.308	13.053	962.923	727.509
123.322	13.182	961.523	726.953
124.337	13.104	960.852	726.037
125.352	13.005	959.652	724.631
126.366	12.945	958.736	723.613
127.381	12.982	957.680	722.917
128.395	13.043	956.709	722.386
129.410	13.117	955.840	721.987
130.424	13.167	954.995	721.507
131.439	13.138	954.525	720.962
132.454	13.071	953.984	720.196
133.468	13.120	953.128	719.697
134.483	13.229	951.965	719.233
135.497	13.145	951.409	718.381
136.512	13.133	950.393	717.498
137.527	13.127	949.630	716.833
138.541	13.148	948.769	716.213
139.556	13.254	948.187	716.169
140.570	13.273	947.382	715.580
141.585	13.304	946.469	714.958
142.600	13.384	945.404	714.438
143.614	13.250	945.115	713.578
144.629	13.397	943.947	713.265
145.643	13.353	943.246	712.482
146.658	13.304	942.106	711.347
147.673	13.241	941.254	710.372
148.687	13.119	940.969	709.568
149.702	13.115	940.271	708.965
150.716	13.274	938.663	708.370
151.731	13.328	938.300	708.265
152.746	13.143	937.991	707.176
153.760	13.266	936.918	706.832
154.775	13.306	936.536	706.649
155.789	13.517	935.602	706.784
156.804	13.393	935.043	705.769
157.819	13.371	934.540	705.235
158.833	13.414	933.978	704.931
159.848	13.406	933.164	704.220
160.862	13.440	931.965	703.397
161.877	13.315	931.249	702.264
162.892	13.348	930.191	701.546
163.906	13.332	929.365	700.793
164.921	13.412	928.270	700.243
165.935	13.520	927.671	700.185
166.950	13.459	926.356	698.873
167.964	13.508	925.641	698.478
168.979	13.500	925.010	697.906
169.994	13.342	924.186	696.560
171.008	13.404	923.701	696.392
172.023	13.495	923.000	696.185
173.037	13.480	922.160	695.426
174.052	13.505	921.671	695.101
175.067	13.640	920.410	694.655
176.081	13.507	920.312	693.962
177.096	13.561	919.893	693.811
178.110	13.499	919.253	693.006
179.125	13.537	918.841	692.793
180.140	13.527	918.305	692.288
181.154	13.447	917.756	691.479
182.169	13.719	916.883	691.893
183.183	13.635	916.572	691.248
184.198	13.617	915.950	690.644
185.213	13.533	915.443	689.851
186.227	13.520	915.182	689.539
187.242	13.690	913.967	689.266
188.256	13.735	913.573	689.095
189.271	13.728	912.732	688.372
190.286	13.612	911.579	686.960
191.300	13.502	911.392	686.304
192.315	13.494	910.474	685.517
193.329	13.546	910.404	685.618
194.344	13.501	909.853	684.958
195.359	13.652	908.817	684.739
196.373	13.742	908.092	684.506
197.388	13.734	908.006	684.349
198.402	13.872	907.112	684.181
199.417	13.933	906.544	683.944
200.432	13.955	906.033	683.589
201.446	14.087	905.551	683.707
202.461	14.028	905.140	683.096
203.475	13.960	904.776	682.478
204.490	13.907	903.869	681.518
205.504	13.947	903.250	681.153
206.519	13.933	902.222	680.259
207.534	14.064	901.550	680.231
208.548	13.912	900.983	679.123
209.563	13.868	900.576	678.575
210.577	13.823	899.850	677.784
211.592	14.044	899.479	678.347
212.607	14.127	898.283	677.723
213.621	14.124	897.556	677.103
214.636	14.083	897.182	676.594
215.650	13.984	896.127	675.336
216.665	14.143	895.604	675.527
217.680	14.093	895.248	674.996
218.694	14.255	894.098	674.726
219.709	14.120	893.763	673.865
220.723	14.046	893.369	673.209
221.738	14.062	892.490	672.553
222.753	14.144	891.939	672.411
223.767	14.164	890.819	671.585
224.782	14.246	890.589	671.686
225.796	14.382	889.669	671.480
226.811	14.249	889.171	670.510
227.826	14.281	888.409	670.005
228.840	14.235	888.078	669.507
229.855	14.248	887.069	668.740
230.869	14.251	886.554	668.307
231.884	14.131	885.965	667.322
232.899	14.219	885.103	666.966
233.913	14.299	884.130	666.495
234.928	14.238	883.855	665.983
235.942	14.321	882.918	665.550
236.957	14.343	882.340	665.143
237.972	14.187	881.875	664.111
238.986	14.236	881.378	663.872
240.001	14.310	880.484	663.437
241.015	14.344	880.196	663.296
242.030	14.286	879.797	662.707
243.045	14.392	879.169	662.595
244.059	14.361	878.467	661.886
245.074	14.419	877.700	661.480
246.088	14.457	876.918	660.982
247.103	14.590	876.524	661.153
248.117	14.491	876.316	660.547
249.132	14.540	875.797	660.291
250.147	14.690	874.644	659.956
251.161	14.676	874.004	659.358
252.176	14.762	873.407	659.191
253.190	14.822	872.864	658.957
254.205	14.752	872.498	658.345
255.220	14.848	871.499	657.912
256.234	14.816	870.944	657.309
257.249	14.789	870.268	656.638
258.263	14.764	869.983	656.263
259.278	14.762	869.029	655.479
260.293	14.986	868.112	655.608
261.307	14.820	867.803	654.666
262.322	14.866	867.504	654.561
263.336	14.945	866.735	654.235
264.351	14.918	865.829	653.388
265.366	14.908	865.524	653.058
266.380	15.004	864.891	652.899
267.395	14.994	863.714	651.912
268.409	15.064	863.096	651.662
269.424	15.040	862.300	650.911
270.439	15.079	861.504	650.404
271.453	15.026	860.926	649.704
272.468	14.884	860.863	649.046
273.482	15.026	860.404	649.193
274.497	15.001	859.739	648.536
275.512	14.999	859.047	647.949
276.526	14.962	859.037	647.741
277.541	14.902	858.069	646.724
278.555	15.094	857.528	646.999
279.570	15.217	856.726	646.811
280.585	15.289	855.960	646.455
281.599	15.225	854.970	645.404
282.614	15.119	854.787	644.801
283.628	15.209	853.902	644.422
284.643	15.145	853.794	644.038
285.657	15.277	852.917	643.825
286.672	15.093	852.358	642.639
287.687	15.143	851.594	642.200
288.701	15.170	851.381	642.085
289.716	15.277	851.004	642.154
290.730	15.258	850.507	641.647
291.745	15.270	849.518	640.893
292.760	15.249	848.815	640.224
293.774	15.371	848.586	640.460
294.789	15.344	847.894	639.780
295.803	15.238	846.923	638.586
296.818	15.422	846.265	638.734
297.833	15.289	845.742	637.776
298.847	15.322	845.253	637.476
299.862	15.458	844.360	637.262
300.876	15.433	844.060	636.885
301.891	15.491	843.098	636.323
302.906	15.543	842.775	636.219
303.920	15.572	842.586	636.132
304.935	15.633	841.787	635.702
305.949	15.600	840.956	634.894
306.964	15.682	840.459	634.774
307.979	15.734	839.550	634.227
308.993	15.678	839.664	634.045
310.008	15.649	839.322	633.622
311.022	15.642	838.486	632.907
312.037	15.540	837.773	631.930
313.052	15.595	837.041	631.527
314.066	15.613	836.598	631.204
315.081	15.730	835.768	630.963
316.095	15.589	835.538	630.206
317.110	15.523	835.092	629.565
318.125	15.696	834.585	629.774
319.139	15.570	834.436	629.134
320.154	15.796	833.482	629.205
321.168	15.696	832.871	628.313
322.183	15.718	832.379	627.971
323.197	15.661	832.054	627.455
324.212	15.815	831.367	627.456
325.227	15.797	830.664	626.804
326.241	15.713	830.166	626.061
327.256	15.743	829.781	625.825
328.270	15.766	829.307	625.499
329.285	15.835	828.491	625.085
330.300	15.870	827.906	624.716
331.314	15.848	827.648	624.384
332.329	15.861	827.329	624.138
333.343	15.915	826.861	623.932
334.358	15.750	826.573	623.047
335.373	15.862	826.342	623.231
336.387	15.869	825.736	622.743
337.402	15.739	825.587	622.098
338.416	16.008	825.061	622.639
339.431	16.088	824.302	622.307
340.446	16.051	824.369	622.165
341.460	16.131	823.764	621.950
342.475	16.193	823.492	621.918
343.489	16.202	822.797	621.372
344.504	16.228	822.336	621.063
345.519	16.109	822.088	620.382
346.533	16.288	821.052	620.205
347.548	16.062	821.232	619.454
348.562	16.170	820.184	619.007
349.577	16.161	819.451	618.363
350.592	16.091	819.052	617.751
351.606	16.126	818.478	617.392
352.621	16.118	817.672	616.703
353.635	15.980	817.354	615.901
354.650	16.145	816.375	615.714
355.665	16.159	815.587	615.113
356.679	16.263	815.448	615.333
357.694	16.343	814.643	614.963
358.708	16.183	814.211	614.003
359.723	16.291	813.674	613.935
360.738	16.363	813.203	613.785
361.752	16.339	812.265	612.936
362.767	16.468	811.688	612.915
363.781	16.403	811.671	612.611
364.796	16.502	811.082	612.473
365.810	16.581	810.435	612.216
366.825	16.544	810.148	611.811
367.840	16.459	809.786	611.176
368.854	16.450	809.370	610.776
369.869	16.428	809.306	610.595
370.883	16.578	808.454	610.438
371.898	16.693	807.951	610.420
372.913	16.681	807.705	610.134
373.927	16.626	807.170	609.480
374.942	16.581	806.662	608.882
375.956	16.699	806.147	608.861
376.971	16.661	805.936	608.512
377.986	16.824	805.362	608.609
379.000	16.823	805.099	608.354
380.015	16.672	804.701	607.457
381.029	16.895	803.827	607.542
382.044	16.752	803.605	606.811
383.059	16.826	802.500	606.186
384.073	16.744	802.233	605.639
385.088	16.806	801.881	605.540
386.102	16.890	801.073	605.175
387.117	16.705	800.796	604.252
388.132	16.854	799.946	604.088
389.146	16.801	799.595	603.583
390.161	16.872	799.285	603.547
391.175	16.911	798.917	603.355
392.190	16.997	798.003	602.918
393.205	16.837	797.827	602.162
394.219	16.800	797.725	601.899
395.234	16.825	796.741	601.195
396.248	16.839	796.519	601.022
397.263	16.782	796.334	600.628
398.278	16.797	795.873	600.278
399.292	16.863	795.416	600.116
400.307	16.900	794.760	599.698
401.321	16.906	794.472	599.450
402.336	17.051	793.876	599.458
403.350	16.994	793.456	598.887
404.365	16.820	793.653	598.367
405.380	17.140	792.691	598.719
406.394	17.218	791.700	598.191
407.409	17.156	791.662	597.891
408.423	17.130	791.574	597.683
409.438	17.235	791.155	597.679
410.453	17.290	790.441	597.284
411.467	17.298	789.995	596.920
412.482	17.386	789.610	596.887
413.496	17.300	789.554	596.490
414.511	17.218	788.778	595.561
415.526	17.219	788.604	595.380
416.540	17.239	788.182	595.078
417.555	17.426	787.273	594.997
418.569	17.278	787.006	594.223
419.584	17.340	786.793	594.226
420.599	17.407	786.241	593.990
421.613	108.151	1288.374	1461.306
422.628	92.668	1361.533	1461.397
