DTS Sentinel unit serial number:	SN413079Multiplexer serial number:	ORYXHardware model number:	OX4-SRSoftware version number:	ORYX F/W v4.00 Oryx Data Collector v3.7.2.0data status	okinstallation	princeton_trtdifferential loss correction	single-endedforward channel	channel 1reverse channel	N/Adate	2019/09/16time	00:06:35forward acquisition time	60.00reverse acquisition time	0.00gamma	496.2192k internal	0.2333k external	0.2333temperature offset calibration	0.9969default loss term (dB/km)	0.3790temperature slope calibration	1.0000multiplexer offset coefficient	1.0000multiplexer slope coefficient	1.0000fibre end	0.00T internal ref (°C)	27.81T ext. ref 1 (°C)	9.41T ext. ref 2 (°C)	21.75length (m)	temperature (°C)	Stokes	anti-Stokes-747.200	800.000	-0.010	0.035
-746.185	68.678	-0.298	0.307
-745.171	-110.179	0.069	0.015
-744.156	-200.000	-0.006	-0.066
-743.142	-2.993	0.158	0.111
-742.127	71.401	-0.265	0.277
-741.112	6.090	0.218	-0.163
-740.098	-200.000	-0.076	0.416
-739.083	143.403	0.121	0.161
-738.069	-84.085	0.263	0.084
-737.054	-183.873	-0.195	-0.003
-736.039	-136.709	-0.054	0.006
-735.025	-150.607	0.285	-0.022
-734.010	-134.110	-0.243	0.030
-732.996	-155.068	-0.354	-0.023
-731.981	800.000	-0.015	0.053
-730.966	54.990	-0.292	-0.283
-729.952	-200.000	-0.019	0.189
-728.937	219.211	-0.043	-0.068
-727.923	-96.622	-0.250	-0.066
-726.908	-50.057	0.182	0.087
-725.894	719.673	0.024	-0.064
-724.879	-16.652	-0.279	-0.177
-723.864	-200.000	-0.004	-0.161
-722.850	-175.559	-0.200	0.005
-721.835	-65.822	0.156	0.063
-720.821	-1.916	0.351	0.248
-719.806	416.975	-0.094	-0.201
-718.791	800.000	-0.108	-0.334
-717.777	-5.259	-0.195	-0.134
-716.762	626.022	-0.154	-0.391
-715.748	-25.033	0.203	0.121
-714.733	-200.000	0.011	0.119
-713.718	-126.195	0.156	-0.023
-712.704	784.958	-0.098	-0.271
-711.689	-200.000	0.037	0.308
-710.675	3.767	0.192	-0.141
-709.660	-8.901	0.101	0.068
-708.645	144.545	-0.046	0.061
-707.631	142.903	0.115	-0.153
-706.616	32.382	-0.388	-0.337
-705.602	238.370	0.032	0.053
-704.587	-113.623	0.480	0.094
-703.572	-200.000	-0.106	-0.000
-702.558	546.105	0.176	-0.422
-701.543	-128.048	0.334	0.048
-700.529	181.953	-0.213	0.315
-699.514	225.283	0.115	0.187
-698.499	-200.000	-0.059	0.301
-697.485	199.728	-0.195	0.301
-696.470	-200.000	0.014	-0.063
-695.456	800.000	0.023	0.095
-694.441	-200.000	-0.021	-0.272
-693.426	800.000	0.094	-0.291
-692.412	166.063	-0.259	-0.367
-691.397	-156.293	0.254	-0.016
-690.383	-153.119	0.108	-0.008
-689.368	209.231	0.058	-0.092
-688.354	70.962	-0.093	0.097
-687.339	-200.000	0.011	0.093
-686.324	-91.994	0.311	-0.088
-685.310	-200.000	0.032	0.235
-684.295	168.271	0.115	-0.165
-683.281	260.836	-0.062	-0.107
-682.266	489.955	-0.129	0.295
-681.251	-97.273	-0.300	-0.078
-680.237	190.829	0.195	0.294
-679.222	60.576	0.222	-0.220
-678.208	33.691	-0.120	-0.105
-677.193	95.796	0.035	-0.040
-676.178	282.302	0.209	-0.376
-675.164	21.421	-0.150	0.122
-674.149	-182.869	0.159	-0.003
-673.135	-33.035	-0.100	0.056
-672.120	83.678	0.077	-0.084
-671.105	-200.000	0.045	-0.359
-670.091	48.366	-0.232	-0.217
-669.076	-200.000	-0.004	-0.465
-668.062	-88.107	-0.522	-0.157
-667.047	349.124	0.098	-0.195
-666.032	-62.309	0.081	0.034
-665.018	-68.408	-0.239	-0.093
-664.003	-153.586	0.419	-0.029
-662.989	54.142	-0.121	-0.116
-661.974	-117.369	-0.168	-0.030
-660.959	9.902	-0.224	0.170
-659.945	323.665	-0.027	0.053
-658.930	-105.321	-0.370	-0.084
-657.916	800.000	-0.058	-0.195
-656.901	-200.000	0.035	-0.361
-655.886	-116.810	-0.283	0.052
-654.872	-200.000	0.003	-0.014
-653.857	800.000	0.089	0.358
-652.843	4.026	-0.245	-0.179
-651.828	176.937	0.169	-0.246
-650.814	800.000	-0.124	-0.382
-649.799	-200.000	0.068	0.370
-648.784	-99.073	0.201	0.051
-647.770	12.375	-0.093	-0.072
-646.755	305.935	-0.060	-0.113
-645.741	359.177	0.114	0.228
-644.726	800.000	0.080	0.264
-643.711	-200.000	0.062	-0.334
-642.697	77.400	-0.109	-0.116
-641.682	128.630	-0.222	-0.283
-640.668	-200.000	-0.078	0.378
-639.653	4.896	0.085	-0.063
-638.638	800.000	-0.061	0.255
-637.624	236.973	-0.189	0.314
-636.609	800.000	0.023	-0.094
-635.595	800.000	0.140	0.438
-634.580	211.872	0.130	0.205
-633.565	-200.000	0.028	-0.323
-632.551	-200.000	-0.094	-0.415
-631.536	-51.377	-0.197	0.092
-630.522	522.079	0.091	0.214
-629.507	800.000	-0.086	-0.312
-628.492	-64.636	-0.355	-0.144
-627.478	-156.857	-0.412	0.025
-626.463	-89.720	-0.340	-0.100
-625.449	-11.805	-0.031	-0.020
-624.434	103.850	0.095	0.111
-623.419	-200.000	-0.004	-0.126
-622.405	-85.131	-0.287	-0.090
-621.390	-92.472	0.259	0.073
-620.376	224.750	-0.030	-0.049
-619.361	800.000	0.095	-0.308
-618.346	-200.000	0.034	-0.516
-617.332	1.391	0.141	0.102
-616.317	-200.000	0.012	0.196
-615.303	271.080	-0.023	0.040
-614.288	800.000	-0.032	0.141
-613.273	12.724	-0.281	-0.217
-612.259	-50.866	0.233	0.110
-611.244	-39.172	-0.155	-0.081
-610.230	426.815	-0.144	0.310
-609.215	800.000	-0.067	0.201
-608.201	-166.624	-0.202	-0.008
-607.186	56.184	0.182	0.177
-606.171	22.655	-0.223	0.183
-605.157	51.499	0.144	0.137
-604.142	278.028	-0.070	0.124
-603.128	-111.749	0.163	0.033
-602.113	-74.794	0.193	-0.069
-601.098	383.891	0.068	0.139
-600.084	150.934	0.273	0.372
-599.069	8.879	-0.046	-0.034
-598.055	-24.533	-0.326	0.194
-597.040	-200.000	-0.031	-0.137
-596.025	17.214	-0.340	0.270
-595.011	130.405	0.118	0.152
-593.996	250.772	-0.157	-0.266
-592.982	794.647	-0.038	0.104
-591.967	-200.000	0.111	0.561
-590.952	1.072	-0.288	0.207
-589.938	22.517	-0.305	-0.250
-588.923	800.000	-0.043	0.130
-587.909	9.637	0.196	0.148
-586.894	-44.685	0.323	0.161
-585.879	-200.000	0.017	-0.264
-584.865	-200.000	-0.045	-0.316
-583.850	8.098	-0.312	0.234
-582.836	227.715	0.198	0.322
-581.821	-32.142	0.077	0.043
-580.806	-107.637	-0.297	0.065
-579.792	-137.277	0.023	0.003
-578.777	133.799	0.212	-0.274
-577.763	45.647	0.195	0.180
-576.748	-16.685	-0.095	0.060
-575.733	535.947	-0.040	0.094
-574.719	800.000	0.076	0.321
-573.704	90.336	-0.332	-0.371
-572.690	3.935	-0.333	-0.243
-571.675	-120.929	0.353	-0.059
-570.661	594.042	-0.117	0.289
-569.646	800.000	-0.088	0.284
-568.631	-153.038	-0.077	-0.005
-567.617	-200.000	-0.019	-0.433
-566.602	-200.000	-0.015	0.270
-565.588	219.713	0.037	-0.059
-564.573	-130.006	0.082	-0.011
-563.558	800.000	0.057	0.176
-562.544	-200.000	0.015	0.090
-561.529	48.414	0.255	0.238
-560.515	-129.680	-0.156	-0.021
-559.500	17.623	-0.041	0.033
-558.485	800.000	-0.046	-0.138
-557.471	774.383	-0.116	-0.315
-556.456	26.629	-0.349	0.291
-555.442	-92.898	-0.136	0.038
-554.427	170.434	-0.008	0.011
-553.412	28.613	-0.098	0.082
-552.398	59.421	0.087	-0.086
-551.383	469.502	0.094	0.212
-550.369	-200.000	0.029	0.163
-549.354	-43.182	0.118	0.059
-548.339	167.342	-0.122	0.172
-547.325	193.770	-0.070	0.105
-546.310	-142.221	0.191	0.019
-545.296	-200.000	0.009	0.113
-544.281	-200.000	0.046	0.204
-543.266	221.846	-0.028	0.044
-542.252	-200.000	-0.017	-0.120
-541.237	-200.000	-0.042	-0.190
-540.223	-200.000	0.002	-0.226
-539.208	800.000	-0.032	-0.137
-538.193	-142.705	-0.247	0.024
-537.179	-200.000	-0.060	-0.268
-536.164	-2.011	0.383	0.269
-535.150	-54.082	0.034	-0.015
-534.135	-124.366	0.095	0.015
-533.121	-200.000	0.045	0.253
-532.106	69.476	-0.099	0.101
-531.091	-152.100	-0.382	0.028
-530.077	800.000	0.094	-0.293
-529.062	241.084	-0.124	-0.206
-528.048	129.375	-0.125	0.160
-527.033	800.000	-0.054	-0.208
-526.018	-152.938	0.183	0.013
-525.004	-13.627	-0.186	-0.120
-523.989	-200.000	-0.001	-0.005
-522.975	131.369	0.215	-0.275
-521.960	-76.371	-0.162	0.057
-520.945	800.000	0.009	0.028
-519.931	-200.000	0.023	0.306
-518.916	800.000	-0.100	0.280
-517.902	356.837	-0.151	-0.300
-516.887	797.101	-0.138	-0.380
-515.872	495.118	0.107	-0.245
-514.858	-49.273	0.121	-0.057
-513.843	-200.000	0.024	0.209
-512.829	79.338	0.022	0.023
-511.814	-149.883	-0.051	0.004
-510.799	-200.000	0.015	0.074
-509.785	267.184	0.160	0.279
-508.770	-48.787	0.241	-0.115
-507.756	-92.420	-0.226	0.063
-506.741	-94.901	-0.107	-0.029
-505.726	622.950	-0.071	0.178
-504.712	10.872	0.252	-0.192
-503.697	-34.540	0.177	-0.097
-502.683	157.529	-0.334	-0.460
-501.668	553.585	-0.143	0.343
-500.653	-123.282	0.198	0.032
-499.639	-106.831	0.080	-0.018
-498.624	-57.208	-0.290	-0.127
-497.610	-80.612	-0.144	-0.048
-496.595	290.930	0.011	-0.020
-495.581	-105.302	0.040	-0.009
-494.566	278.797	0.123	0.218
-493.551	62.778	-0.319	-0.318
-492.537	-200.000	-0.055	0.302
-491.522	-200.000	0.015	-0.157
-490.508	313.592	0.040	-0.074
-489.493	54.191	-0.008	0.008
-488.478	-77.783	-0.271	0.093
-487.464	800.000	-0.114	0.334
-486.449	-114.619	0.131	0.025
-485.435	7.210	0.178	-0.132
-484.420	800.000	-0.074	-0.208
-483.405	-22.944	-0.240	-0.144
-482.391	719.842	0.041	0.109
-481.376	-200.000	0.038	0.210
-480.362	-159.752	-0.418	0.023
-479.347	800.000	-0.041	-0.175
-478.332	-43.649	0.292	-0.146
-477.318	-200.000	0.038	-0.184
-476.303	-200.000	-0.056	-0.281
-475.289	-25.821	-0.348	-0.204
-474.274	585.845	0.073	0.180
-473.259	196.960	-0.094	0.142
-472.245	-88.290	-0.221	0.066
-471.230	56.982	0.204	-0.198
-470.216	-63.631	0.181	0.074
-469.201	318.008	0.130	-0.245
-468.186	197.598	0.158	-0.240
-467.172	33.087	-0.160	-0.138
-466.157	127.747	0.154	0.195
-465.143	-200.000	0.010	-0.062
-464.128	-145.324	0.244	0.022
-463.113	120.595	0.187	-0.231
-462.099	-200.000	0.046	0.221
-461.084	164.028	-0.046	0.064
-460.070	-144.297	-0.181	-0.017
-459.055	-97.095	0.104	-0.027
-458.040	211.045	0.113	0.177
-457.026	6.730	0.065	-0.048
-456.011	-200.000	-0.019	0.103
-454.997	97.900	0.111	0.127
-453.982	-26.609	-0.121	-0.070
-452.968	146.372	-0.066	-0.088
-451.953	300.056	-0.099	0.182
-450.938	-81.273	0.212	0.069
-449.924	-192.176	-0.306	-0.003
-448.909	-8.825	0.114	0.076
-447.895	-48.830	0.081	0.039
-446.880	3.005	0.090	0.065
-445.865	72.967	-0.229	-0.238
-444.851	-86.184	-0.189	0.058
-443.836	452.933	0.087	0.190
-442.822	-33.367	0.120	-0.066
-441.807	800.000	-0.044	-0.133
-440.792	-26.090	-0.127	-0.074
-439.778	-28.313	-0.091	-0.052
-438.763	10.851	-0.242	0.184
-437.749	-200.000	0.002	0.126
-436.734	-172.913	0.264	0.008
-435.719	-116.379	0.263	-0.048
-434.705	649.009	0.152	-0.386
-433.690	-115.840	0.208	-0.039
-432.676	-200.000	0.026	0.134
-431.661	-179.546	0.018	-0.000
-430.646	-10.561	0.166	-0.109
-429.632	93.325	-0.128	0.144
-428.617	-141.963	0.517	0.051
-427.603	432.079	-0.051	-0.109
-426.588	334.678	0.107	0.206
-425.573	-72.694	0.333	0.122
-424.559	-80.687	0.206	0.068
-423.544	55.594	-0.190	-0.183
-422.530	127.341	-0.255	-0.321
-421.515	170.293	0.092	0.131
-420.500	-40.240	-0.118	-0.061
-419.486	211.444	0.013	-0.021
-418.471	800.000	0.020	0.071
-417.457	13.792	0.217	0.168
-416.442	146.580	0.206	-0.274
-415.428	453.756	0.136	-0.299
-414.413	-136.423	-0.263	0.030
-413.398	62.378	0.099	0.098
-412.384	-200.000	0.006	0.317
-411.369	-151.550	-0.222	-0.016
-410.355	180.433	-0.448	-0.653
-409.340	-200.000	-0.019	-0.174
-408.325	-6.443	-0.071	0.048
-407.311	-63.497	0.139	-0.057
-406.296	-158.885	-0.253	-0.014
-405.282	-70.833	-0.406	-0.152
-404.267	207.287	-0.066	-0.103
-403.252	-128.443	0.210	-0.030
-402.238	800.000	-0.126	0.384
-401.223	682.256	-0.117	0.303
-400.209	314.959	-0.145	-0.272
-399.194	-200.000	0.009	-0.224
-398.179	-16.422	0.106	-0.066
-397.165	-88.818	0.305	-0.090
-396.150	-200.000	-0.000	-0.215
-395.136	-50.370	-0.158	0.074
-394.121	-200.000	-0.003	-0.140
-393.106	-91.037	-0.186	-0.053
-392.092	-90.504	0.204	-0.059
-391.077	601.707	0.092	-0.228
-390.063	-200.000	-0.023	0.148
-389.048	-68.301	-0.084	0.032
-388.033	-0.697	-0.311	-0.219
-387.019	-200.000	-0.022	-0.158
-386.004	-120.370	0.121	0.020
-384.990	-58.929	-0.159	-0.068
-383.975	-42.209	0.150	0.076
-382.960	-37.980	0.125	-0.066
-381.946	141.010	-0.054	0.071
-380.931	322.171	-0.097	0.184
-379.917	212.697	0.110	-0.171
-378.902	-148.162	-0.429	-0.035
-377.888	298.408	0.097	0.178
-376.873	6.110	0.148	0.109
-375.858	-48.384	0.074	0.035
-374.844	-125.623	0.230	0.035
-373.829	234.122	0.114	0.187
-372.815	215.703	-0.165	-0.260
-371.800	-27.747	0.152	0.088
-370.785	-156.621	0.154	-0.009
-369.771	216.228	-0.064	-0.101
-368.756	1.612	-0.339	-0.242
-367.742	-156.528	0.345	-0.021
-366.727	-130.090	-0.376	-0.051
-365.712	-53.632	0.098	-0.044
-364.698	-145.606	0.378	-0.033
-363.683	-108.867	0.151	0.032
-362.669	-123.354	0.161	0.025
-361.654	800.000	-0.009	-0.033
-360.639	519.572	0.017	0.038
-359.625	-76.734	0.142	0.049
-358.610	-16.062	0.197	-0.124
-357.596	184.224	0.074	0.109
-356.581	-18.094	0.273	0.169
-355.566	-61.378	0.176	0.073
-354.552	152.803	-0.306	0.414
-353.537	-200.000	-0.026	-0.121
-352.523	800.000	-0.060	0.236
-351.508	-200.000	-0.001	0.080
-350.493	344.025	-0.116	-0.225
-349.479	-137.756	-0.171	0.019
-348.464	113.877	0.075	0.090
-347.450	226.322	0.035	-0.057
-346.435	44.777	0.186	-0.169
-345.420	-22.469	-0.170	-0.102
-344.406	16.183	0.098	0.077
-343.391	-120.079	-0.476	-0.081
-342.377	-160.501	0.256	0.014
-341.362	-99.142	0.265	-0.066
-340.348	103.865	0.111	-0.129
-339.333	448.776	-0.107	0.234
-338.318	452.124	-0.099	-0.217
-337.304	800.000	-0.063	0.268
-336.289	-184.444	0.216	0.003
-335.275	492.822	0.083	-0.189
-334.260	275.136	0.154	-0.270
-333.245	47.168	0.115	0.106
-332.231	800.000	0.052	-0.176
-331.216	-200.000	0.045	0.213
-330.202	120.179	-0.114	0.140
-329.187	-50.279	-0.201	-0.094
-328.172	236.816	0.184	-0.301
-327.158	12.460	0.073	-0.056
-326.143	-10.876	0.296	-0.193
-325.129	-124.978	-0.290	0.044
-324.114	-34.413	-0.081	0.044
-323.099	-200.000	-0.014	0.121
-322.085	800.000	-0.050	0.140
-321.070	-142.503	0.156	-0.015
-320.056	-200.000	0.033	0.332
-319.041	-98.697	0.202	-0.051
-318.026	356.493	0.155	-0.305
-317.012	-82.594	0.354	0.113
-315.997	-128.647	0.147	0.021
-314.983	-200.000	0.015	0.277
-313.968	-46.016	-0.188	0.092
-312.953	800.000	0.135	0.515
-311.939	159.306	0.266	0.366
-310.924	800.000	-0.091	0.248
-309.910	-103.864	-0.219	0.051
-308.895	800.000	0.008	-0.024
-307.880	800.000	0.037	-0.138
-306.866	-180.972	-0.510	-0.010
-305.851	-114.649	-0.117	-0.022
-304.837	222.140	-0.153	-0.243
-303.822	-91.931	0.346	-0.097
-302.807	-183.226	-0.327	-0.006
-301.793	79.917	-0.290	-0.308
-300.778	800.000	-0.082	-0.327
-299.764	-130.179	-0.334	-0.045
-298.749	23.026	0.205	-0.166
-297.735	400.556	0.100	-0.207
-296.720	-26.533	0.069	0.040
-295.705	31.335	-0.336	0.285
-294.691	-200.000	-0.055	-0.618
-293.676	800.000	0.063	-0.174
-292.662	-6.218	0.304	0.205
-291.647	-52.960	-0.158	0.072
-290.632	44.954	0.262	0.238
-289.618	422.618	-0.107	0.227
-288.603	-55.176	-0.319	0.142
-287.589	800.000	-0.104	-0.333
-286.574	40.731	0.115	-0.102
-285.559	57.535	0.046	0.045
-284.545	800.000	-0.019	0.057
-283.530	147.581	-0.222	0.295
-282.516	412.168	0.080	0.169
-281.501	-89.718	0.282	0.082
-280.486	123.435	-0.254	0.315
-279.472	-200.000	-0.003	0.262
-278.457	172.032	-0.213	0.302
-277.443	-200.000	-0.011	-0.090
-276.428	290.150	0.071	-0.127
-275.413	19.680	0.019	-0.015
-274.399	90.594	0.102	-0.112
-273.384	127.073	0.201	0.252
-272.370	-11.226	0.303	-0.197
-271.355	383.929	-0.124	0.253
-270.340	79.922	-0.265	-0.281
-269.326	800.000	-0.042	-0.117
-268.311	-106.614	-0.359	0.079
-267.297	-200.000	0.064	0.374
-266.282	800.000	0.026	-0.095
-265.267	446.788	0.107	0.232
-264.253	-59.858	-0.261	0.110
-263.238	202.303	0.083	-0.126
-262.224	-200.000	-0.005	-0.405
-261.209	-87.946	0.158	-0.047
-260.195	15.863	0.260	-0.202
-259.180	-200.000	-0.012	-0.074
-258.165	-59.876	0.347	0.146
-257.151	163.553	0.187	0.259
-256.136	-76.022	-0.408	-0.142
-255.122	-68.463	0.214	-0.082
-254.107	142.304	0.231	-0.302
-253.092	-159.172	-0.263	0.015
-252.078	-200.000	0.038	-0.336
-251.063	83.013	0.102	-0.110
-250.049	-26.737	-0.056	0.032
-249.034	-69.513	0.276	0.104
-248.019	-193.984	0.440	-0.004
-247.005	-200.000	-0.016	-0.188
-245.990	-4.222	0.343	-0.234
-244.976	-200.000	0.010	-0.156
-243.961	-200.000	-0.091	0.444
-242.946	-99.234	-0.176	-0.044
-241.932	-200.000	0.006	-0.216
-240.917	-200.000	0.012	0.290
-239.903	-57.472	0.136	-0.059
-238.888	-4.034	-0.264	0.180
-237.873	86.745	0.099	0.108
-236.859	154.680	0.115	-0.156
-235.844	70.041	-0.247	0.252
-234.830	359.679	0.048	0.096
-233.815	-76.273	0.100	0.035
-232.800	-86.682	0.397	-0.120
-231.786	-200.000	0.000	0.174
-230.771	800.000	0.052	-0.203
-229.757	-134.654	-0.175	0.021
-228.742	-200.000	-0.021	0.196
-227.727	208.587	-0.220	0.339
-226.713	96.119	0.040	-0.045
-225.698	103.703	0.143	0.165
-224.684	-53.124	-0.418	-0.189
-223.669	57.534	0.351	0.338
-222.655	70.562	0.306	0.312
-221.640	16.347	0.171	-0.133
-220.625	156.275	0.128	0.174
-219.611	-200.000	0.015	0.136
-218.596	-200.000	-0.009	-0.055
-217.582	424.299	0.164	-0.348
-216.567	800.000	0.056	0.208
-215.552	69.212	0.147	0.149
-214.538	-56.835	0.095	-0.042
-213.523	91.261	-0.185	0.205
-212.509	158.752	-0.114	-0.156
-211.494	84.358	-0.114	-0.123
-210.479	-200.000	0.063	0.309
-209.465	-200.000	0.017	0.083
-208.450	101.923	0.292	0.336
-207.436	-1.835	0.336	0.233
-206.421	-200.000	0.009	0.120
-205.406	-200.000	-0.027	-0.150
-204.392	-77.357	0.194	-0.066
-203.377	-124.467	-0.123	0.019
-202.363	-128.747	0.149	0.021
-201.348	-98.032	0.164	0.042
-200.333	-105.873	0.228	-0.051
-199.319	800.000	-0.187	0.545
-198.304	-87.060	-0.182	0.054
-197.290	11.695	0.327	-0.247
-196.275	-54.267	0.194	-0.087
-195.260	800.000	-0.040	-0.126
-194.246	672.931	-0.137	-0.350
-193.231	-200.000	-0.011	-0.113
-192.217	62.416	0.137	0.134
-191.202	-200.000	0.003	-0.060
-190.187	800.000	-0.041	-0.142
-189.173	-200.000	0.068	-0.375
-188.158	-200.000	-0.015	-0.079
-187.144	156.650	-0.144	-0.195
-186.129	-200.000	0.015	-0.069
-185.114	800.000	-0.034	-0.093
-184.100	-115.498	-0.515	-0.095
-183.085	47.434	-0.178	-0.163
-182.071	-55.079	0.314	-0.139
-181.056	-200.000	0.000	-0.055
-180.042	74.890	-0.070	0.072
-179.027	-59.369	-0.361	0.153
-178.012	-71.054	0.308	-0.114
-176.998	-121.785	0.061	-0.010
-175.983	-52.281	-0.197	-0.090
-174.969	-33.390	0.229	0.125
-173.954	-200.000	-0.018	-0.169
-172.939	48.041	-0.099	-0.091
-171.925	-178.312	0.461	0.011
-170.910	9.796	-0.282	-0.210
-169.896	143.827	-0.191	0.251
-168.881	-200.000	-0.018	-0.129
-167.866	-200.000	0.007	-0.064
-166.852	-26.211	-0.318	-0.184
-165.837	40.924	-0.155	-0.138
-164.823	218.239	0.203	-0.319
-163.808	-139.587	-0.199	-0.021
-162.793	385.107	-0.083	0.167
-161.779	-120.349	0.173	0.029
-160.764	-200.000	0.060	-0.335
-159.750	-137.001	0.352	-0.040
-158.735	301.346	-0.108	-0.195
-157.720	42.291	-0.144	-0.129
-156.706	731.648	0.119	-0.313
-155.691	-66.985	-0.337	-0.131
-154.677	-200.000	0.126	0.599
-153.662	362.438	0.064	-0.127
-152.647	62.451	0.022	-0.021
-151.633	3.920	-0.141	-0.101
-150.618	87.968	-0.244	0.266
-149.604	800.000	-0.093	0.274
-148.589	-85.617	0.055	-0.017
-147.574	-135.432	0.350	-0.041
-146.560	800.000	-0.060	-0.201
-145.545	-71.665	0.314	-0.115
-144.531	154.694	0.182	-0.246
-143.516	627.700	-0.056	0.138
-142.502	790.005	0.094	-0.253
-141.487	-200.000	-0.018	-0.239
-140.472	73.177	0.256	-0.263
-139.458	-200.000	0.004	0.285
-138.443	-142.022	-0.263	-0.026
-137.429	279.065	-0.276	0.483
-136.414	359.720	0.135	-0.266
-135.399	-200.000	-0.017	-0.127
-134.385	-200.000	-0.069	0.307
-133.370	800.000	-0.053	0.162
-132.356	-41.249	0.102	0.051
-131.341	800.000	-0.030	0.115
-130.326	-200.000	-0.046	-0.379
-129.312	139.596	-0.116	-0.150
-128.297	800.000	0.067	0.254
-127.283	278.669	-0.175	0.306
-126.268	-96.730	-0.213	-0.055
-125.253	-114.057	-0.310	0.059
-124.239	-189.168	0.334	-0.004
-123.224	-184.176	0.124	-0.002
-122.210	308.268	-0.111	0.204
-121.195	276.166	0.195	0.340
-120.180	-199.240	0.463	-0.002
-119.166	-51.885	0.145	-0.066
-118.151	-132.808	0.228	-0.029
-117.137	-200.000	0.043	-0.284
-116.122	-186.443	0.135	0.002
-115.107	-33.045	0.453	0.246
-114.093	800.000	0.037	0.153
-113.078	-200.000	-0.006	0.081
-112.064	-172.072	0.106	0.003
-111.049	-148.545	0.371	0.030
-110.034	26.385	0.274	-0.224
-109.020	130.132	-0.121	-0.152
-108.005	800.000	0.138	-0.410
-106.991	423.756	-0.085	-0.180
-105.976	-42.926	-0.154	-0.077
-104.962	-137.467	-0.167	-0.019
-103.947	-92.711	-0.126	0.035
-102.932	-65.327	-0.172	-0.068
-101.918	257.847	-0.104	-0.175
-100.903	-37.604	-0.051	-0.027
-99.889	-145.477	-0.203	0.018
-98.874	23.462	0.178	-0.143
-97.859	-200.000	-0.008	0.355
-96.845	-200.000	0.018	-0.124
-95.830	385.804	0.021	-0.043
-94.816	-200.000	-0.030	0.245
-93.801	-99.649	0.267	0.066
-92.786	-29.784	0.172	0.096
-91.772	11.814	0.053	0.040
-90.757	-200.000	0.061	-0.327
-89.743	800.000	0.061	0.170
-88.728	435.152	-0.176	0.374
-87.713	-31.507	-0.131	0.072
-86.699	8.862	-0.175	-0.129
-85.684	-105.743	-0.167	-0.037
-84.670	318.451	-0.072	0.134
-83.655	8.570	-0.215	-0.159
-82.640	267.045	-0.078	-0.134
-81.626	-82.070	0.290	-0.093
-80.611	-70.650	0.269	0.100
-79.597	126.633	0.051	-0.064
-78.582	55.401	0.099	-0.094
-77.567	-177.022	0.104	-0.003
-76.553	704.537	-0.094	0.242
-75.538	-200.000	0.017	-0.291
-74.524	-200.000	-0.003	0.089
-73.509	800.000	-0.032	0.121
-72.494	-200.000	0.062	0.478
-71.480	-101.667	-0.402	0.095
-70.465	19.101	-0.026	0.020
-69.451	-107.454	0.328	0.070
-68.436	-200.000	-0.016	0.117
-67.422	800.000	-0.097	-0.288
-66.407	10.542	-0.295	0.220
-65.392	69.721	-0.158	0.160
-64.378	-173.248	0.177	-0.005
-63.363	-18.633	-0.063	-0.038
-62.349	177.643	0.163	0.232
-61.334	77.534	-0.831	-0.866
-60.319	105.054	0.515	0.594
-59.305	-200.000	-0.215	-0.981
-58.290	201.763	0.784	1.183
-57.276	405.928	0.750	1.548
-56.261	-200.000	111.992	649.308
-55.246	488.682	1487.140	3324.871
-54.232	151.139	2648.114	3526.140
-53.217	105.065	2138.413	2469.233
-52.203	38.980	1594.230	1394.327
-51.188	31.088	1342.343	1126.548
-50.173	28.229	1305.135	1078.463
-49.159	56.169	1360.187	1292.407
-48.144	54.713	1375.734	1298.406
-47.130	31.433	1331.440	1119.287
-46.115	27.958	1313.686	1083.748
-45.100	27.666	1309.135	1078.229
-44.086	27.604	1306.705	1075.819
-43.071	27.649	1304.046	1073.847
-42.057	27.610	1302.029	1071.916
-41.042	27.646	1300.275	1070.639
-40.027	27.703	1298.917	1069.818
-39.013	27.686	1297.121	1068.197
-37.998	27.781	1295.067	1067.017
-36.984	27.754	1293.471	1065.502
-35.969	27.753	1292.049	1064.282
-34.954	27.819	1290.016	1062.947
-33.940	27.832	1288.704	1061.899
-32.925	27.909	1287.319	1061.168
-31.911	27.846	1286.065	1059.722
-30.896	27.844	1284.877	1058.693
-29.881	27.882	1283.849	1058.020
-28.867	27.916	1281.785	1056.478
-27.852	27.862	1280.694	1055.224
-26.838	27.887	1279.337	1054.210
-25.823	27.935	1278.041	1053.372
-24.809	27.926	1276.753	1052.218
-23.794	27.965	1275.098	1051.039
-22.779	27.849	1273.864	1049.310
-21.765	27.801	1272.385	1047.779
-20.750	27.929	1271.372	1047.634
-19.736	27.951	1269.282	1045.997
-18.721	27.795	1268.577	1044.480
-17.706	27.842	1267.668	1043.964
-16.692	27.868	1266.191	1042.850
-15.677	27.756	1265.475	1041.582
-14.663	27.690	1264.429	1040.301
-13.648	27.775	1263.373	1039.877
-12.633	27.840	1262.057	1039.120
-11.619	27.649	1261.838	1037.816
-10.604	27.750	1260.501	1037.249
-9.590	27.853	1259.479	1036.952
-8.575	27.745	1258.408	1035.415
-7.560	27.713	1258.023	1034.873
-6.546	27.775	1256.992	1034.340
-5.531	27.666	1256.436	1033.220
-4.517	27.830	1255.051	1032.968
-3.502	27.799	1254.202	1032.054
-2.487	27.815	1253.129	1031.222
-1.473	27.693	1249.121	1027.197
-0.458	26.105	1234.223	1006.060
0.556	20.992	1217.480	968.672
1.571	17.358	1223.224	952.835
2.586	16.415	1238.398	959.218
3.600	16.449	1227.358	950.773
4.615	14.678	1161.220	890.025
5.629	11.240	1093.906	821.065
6.644	9.533	1077.037	799.860
7.659	9.473	1074.808	797.840
8.673	9.289	1073.843	796.143
9.688	9.345	1072.134	795.080
10.702	9.410	1070.660	794.240
11.717	11.545	1072.685	806.216
12.731	15.282	1077.486	828.247
13.746	17.341	1079.897	840.211
14.761	17.385	1079.189	839.804
15.775	16.492	1077.172	833.757
16.790	15.447	1075.066	826.907
17.804	14.733	1073.096	821.809
18.819	14.302	1072.102	818.853
19.834	14.011	1071.288	816.733
20.848	13.820	1070.540	815.152
21.863	13.587	1069.306	812.997
22.877	13.457	1068.693	811.820
23.892	13.464	1067.931	811.204
24.907	13.354	1067.121	809.979
25.921	13.481	1065.849	809.561
26.936	13.445	1065.114	808.757
27.950	13.568	1063.692	808.203
28.965	13.559	1062.337	807.061
29.980	13.456	1060.939	805.426
30.994	13.608	1059.589	805.069
32.009	13.655	1058.412	804.331
33.023	13.596	1057.112	802.985
34.038	13.587	1056.274	802.237
35.053	13.560	1055.423	801.388
36.067	13.618	1054.738	801.076
37.082	13.503	1054.038	799.916
38.096	13.697	1053.149	800.109
39.111	13.611	1052.494	799.126
40.126	13.649	1050.897	798.023
41.140	13.413	1049.479	795.742
42.155	13.435	1048.301	794.887
43.169	13.278	1047.600	793.530
44.184	13.373	1046.648	793.195
45.199	13.365	1045.040	791.868
46.213	13.253	1044.836	791.109
47.228	13.491	1043.291	791.006
48.242	13.480	1042.131	790.002
49.257	13.319	1041.226	788.480
50.271	13.499	1040.535	788.741
51.286	13.558	1039.335	788.042
52.301	13.552	1038.488	787.305
53.315	13.398	1037.827	786.003
54.330	13.453	1036.206	784.967
55.344	13.483	1035.622	784.594
56.359	13.463	1034.471	783.561
57.374	13.434	1033.884	782.908
58.388	13.332	1032.994	781.682
59.403	13.254	1032.356	780.761
60.417	13.276	1031.580	780.211
61.432	13.360	1030.424	779.664
62.447	13.278	1030.121	778.976
63.461	13.302	1028.451	777.758
64.476	13.235	1027.896	776.957
65.490	13.166	1027.471	776.241
66.505	13.220	1026.478	775.676
67.520	13.267	1025.720	775.258
68.534	13.271	1025.427	774.984
69.549	13.323	1024.088	774.148
70.563	13.250	1023.708	773.448
71.578	13.278	1022.252	772.410
72.593	13.230	1021.600	771.628
73.607	13.224	1021.411	771.389
74.622	13.209	1020.770	770.766
75.636	13.317	1019.605	770.322
76.651	13.182	1019.645	769.654
77.666	13.136	1019.101	768.963
78.680	13.305	1017.924	768.789
79.695	13.293	1017.061	768.018
80.709	13.315	1016.620	767.714
81.724	13.420	1016.123	767.761
82.739	13.340	1015.317	766.714
83.753	13.461	1014.569	766.642
84.768	13.626	1013.144	766.260
85.782	13.624	1012.382	765.605
86.797	13.592	1011.585	764.787
87.812	13.444	1010.669	763.346
88.826	13.564	1009.796	763.171
89.841	13.589	1008.863	762.514
90.855	13.608	1007.996	761.879
91.870	13.648	1006.926	761.186
92.884	13.700	1006.280	760.868
93.899	13.659	1005.713	760.183
94.914	13.774	1004.459	759.694
95.928	13.701	1004.076	759.004
96.943	13.733	1002.729	758.065
97.957	13.620	1002.443	757.265
98.972	13.642	1001.369	756.488
99.987	13.692	1000.375	755.900
101.001	13.580	999.233	754.460
102.016	13.642	998.476	754.104
103.030	13.613	997.709	753.323
104.045	13.577	996.969	752.536
105.060	13.539	996.278	751.777
106.074	13.462	994.861	750.289
107.089	13.528	993.549	749.533
108.103	13.524	992.676	748.792
109.118	13.370	992.249	747.705
110.133	13.285	991.429	746.637
111.147	13.403	990.555	746.445
112.162	13.508	989.350	745.946
113.176	13.513	988.638	745.363
114.191	13.484	988.333	744.937
115.206	13.423	987.293	743.815
116.220	13.458	986.842	743.567
117.235	13.389	985.588	742.244
118.249	13.461	984.771	741.886
119.264	13.368	984.446	741.161
120.279	13.477	983.339	740.747
121.293	13.297	982.453	739.211
122.308	13.401	981.541	738.924
123.322	13.334	980.280	737.610
124.337	13.408	979.258	737.106
125.352	13.401	978.068	736.114
126.366	13.388	977.161	735.306
127.381	13.402	976.451	734.771
128.395	13.239	975.473	733.249
129.410	13.417	974.148	732.977
130.424	13.497	973.808	733.008
131.439	13.459	972.623	731.884
132.454	13.609	971.796	731.859
133.468	13.459	971.389	730.825
134.483	13.533	969.949	730.006
135.497	13.571	969.253	729.583
136.512	13.487	968.601	728.659
137.527	13.475	967.728	727.884
138.541	13.375	967.541	727.240
139.556	13.532	966.788	727.296
140.570	13.655	966.351	727.445
141.585	13.765	965.320	727.087
142.600	13.782	964.348	726.363
143.614	13.670	963.914	725.485
144.629	13.730	963.079	725.051
145.643	13.753	961.813	724.136
146.658	13.649	960.668	722.758
147.673	13.723	959.281	721.970
148.687	13.462	959.174	720.692
149.702	13.573	957.820	720.093
150.716	13.503	957.494	719.481
151.731	13.586	956.917	719.341
152.746	13.621	955.916	718.678
153.760	13.628	955.211	718.114
154.775	13.739	954.633	718.099
155.789	13.765	954.169	717.795
156.804	13.701	953.649	717.068
157.819	13.745	952.372	716.233
158.833	13.822	952.029	716.244
159.848	14.061	951.055	716.476
160.862	13.719	950.307	714.378
161.877	13.826	949.272	713.998
162.892	13.761	948.091	712.765
163.906	13.644	947.371	711.661
164.921	13.706	946.635	711.309
165.935	13.766	945.940	710.980
166.950	13.775	945.144	710.360
167.964	13.830	943.977	709.656
168.979	13.860	942.896	708.905
169.994	13.831	942.128	708.143
171.008	13.818	941.631	707.653
172.023	13.790	941.376	707.279
173.037	13.853	940.188	706.590
174.052	13.963	939.245	706.287
175.067	13.834	938.743	705.301
176.081	13.816	938.324	704.846
177.096	13.702	937.610	703.764
178.110	13.801	937.314	703.900
179.125	13.811	936.375	703.172
180.140	13.905	935.770	703.057
181.154	13.922	935.425	702.805
182.169	13.883	935.251	702.446
183.183	14.007	934.203	702.121
184.198	13.942	933.525	701.275
185.213	13.825	933.178	700.461
186.227	14.071	932.224	700.720
187.242	14.108	931.235	700.071
188.256	14.154	930.903	699.950
189.271	14.075	930.314	699.113
190.286	13.917	929.423	697.718
191.300	13.800	928.567	696.524
192.315	13.692	928.159	695.702
193.329	13.844	927.856	696.049
194.344	13.996	926.838	695.861
195.359	14.021	926.036	695.301
196.373	14.108	925.553	695.243
197.388	14.186	925.226	695.260
198.402	14.263	924.663	695.099
199.417	14.321	923.895	694.703
200.432	14.350	923.454	694.429
201.446	14.394	923.022	694.225
202.461	14.442	922.906	694.278
203.475	14.351	921.805	693.011
204.490	14.414	921.083	692.668
205.504	14.276	920.460	691.564
206.519	14.385	919.148	690.969
207.534	14.220	919.160	690.233
208.548	14.279	918.443	689.880
209.563	14.321	917.777	689.492
210.577	14.376	917.080	689.134
211.592	14.373	916.558	688.670
212.607	14.482	915.384	688.174
213.621	14.446	914.682	687.437
214.636	14.454	913.819	686.760
215.650	14.445	913.645	686.535
216.665	14.482	912.648	685.877
217.680	14.571	912.086	685.756
218.694	14.567	911.701	685.390
219.709	14.438	911.235	684.453
220.723	14.652	910.446	684.676
221.738	14.621	909.575	683.832
222.753	14.589	908.581	682.893
223.767	14.512	908.676	682.591
224.782	14.666	908.014	682.663
225.796	14.778	907.178	682.429
226.811	14.759	906.454	681.748
227.826	14.688	905.433	680.629
228.840	14.543	905.111	679.739
229.855	14.518	904.433	679.067
230.869	14.498	903.293	678.068
231.884	14.572	902.939	678.045
232.899	14.700	901.594	677.492
233.913	14.482	901.392	676.399
234.928	14.597	900.419	676.074
235.942	14.678	899.973	676.007
236.957	14.624	899.418	675.310
237.972	14.604	899.039	674.887
238.986	14.619	898.307	674.337
240.001	14.601	897.814	673.835
241.015	14.591	897.041	673.157
242.030	14.703	896.464	673.114
243.045	14.623	896.086	672.449
244.059	14.642	895.332	671.901
245.074	14.746	894.460	671.605
246.088	14.875	894.183	671.854
247.103	14.805	893.705	671.157
248.117	14.868	893.005	670.822
249.132	15.027	892.342	670.903
250.147	14.963	892.128	670.426
251.161	15.192	890.993	670.430
252.176	15.045	890.723	669.578
253.190	15.137	889.693	669.114
254.205	15.218	889.191	668.999
255.220	15.154	888.572	668.220
256.234	15.121	887.820	667.465
257.249	15.200	887.160	667.225
258.263	15.209	886.206	666.484
259.278	15.054	886.035	665.677
260.293	15.213	885.503	665.852
261.307	15.350	884.738	665.763
262.322	15.381	883.833	665.145
263.336	15.268	883.432	664.335
264.351	15.238	882.604	663.537
265.366	15.427	881.860	663.664
266.380	15.371	881.209	662.894
267.395	15.341	880.627	662.281
268.409	15.303	879.899	661.525
269.424	15.436	879.003	661.317
270.439	15.315	878.396	660.326
271.453	15.175	878.003	659.421
272.468	15.323	877.342	659.448
273.482	15.347	876.672	658.981
274.497	15.432	875.963	658.723
275.512	15.323	875.391	657.805
276.526	15.448	875.259	658.139
277.541	15.224	874.832	656.883
278.555	15.521	873.903	657.290
279.570	15.590	873.277	657.030
280.585	15.620	872.073	656.181
281.599	15.596	871.572	655.655
282.614	15.456	871.010	654.629
283.628	15.536	870.103	654.200
284.643	15.590	869.853	654.164
285.657	15.528	869.110	653.305
286.672	15.526	868.634	652.881
287.687	15.582	867.959	652.537
288.701	15.558	867.411	651.973
289.716	15.672	866.967	652.024
290.730	15.499	866.483	650.930
291.745	15.554	865.787	650.564
292.760	15.695	865.081	650.519
293.774	15.939	863.804	650.445
294.789	15.849	863.556	649.854
295.803	15.674	863.070	648.753
296.818	15.598	862.896	648.275
297.833	15.775	861.625	647.944
298.847	15.677	861.182	647.176
299.862	15.931	860.397	647.506
300.876	15.957	859.909	647.178
301.891	15.865	859.803	646.688
302.906	15.866	858.671	645.785
303.920	15.910	858.398	645.692
304.935	15.992	857.924	645.594
305.949	15.917	857.401	644.855
306.964	15.933	856.719	644.343
307.979	16.054	856.039	644.238
308.993	15.988	855.764	643.724
310.008	16.028	854.903	643.170
311.022	16.063	853.934	642.519
312.037	16.016	853.545	641.990
313.052	15.910	853.076	641.176
314.066	15.976	852.549	640.976
315.081	15.939	851.926	640.311
316.095	15.827	851.612	639.591
317.110	15.956	850.931	639.511
318.125	15.921	850.510	639.008
319.139	15.960	850.280	638.924
320.154	16.057	849.541	638.680
321.168	16.048	848.958	638.152
322.183	16.065	848.343	637.699
323.197	16.158	847.724	637.527
324.212	16.161	847.005	636.944
325.227	16.043	846.966	636.411
326.241	16.034	846.221	635.759
327.256	16.025	845.593	635.197
328.270	16.031	845.284	634.934
329.285	15.972	844.752	634.257
330.300	16.122	843.590	633.889
331.314	16.031	843.518	633.439
332.329	16.256	842.858	633.733
333.343	16.239	842.514	633.354
334.358	16.171	842.094	632.727
335.373	16.256	842.230	633.091
336.387	16.327	841.494	632.750
337.402	16.363	841.205	632.609
338.416	16.349	840.800	632.198
339.431	16.430	840.608	632.299
340.446	16.460	839.859	631.793
341.460	16.532	839.572	631.790
342.475	16.545	838.720	631.140
343.489	16.514	838.720	630.968
344.504	16.737	837.916	631.141
345.519	16.546	838.058	630.478
346.533	16.588	837.512	630.169
347.548	16.555	836.530	629.252
348.562	16.466	836.274	628.674
349.577	16.613	835.407	628.511
350.592	16.494	834.777	627.540
351.606	16.525	834.037	627.040
352.621	16.358	833.782	626.175
353.635	16.416	832.995	625.744
354.650	16.615	832.285	625.892
355.665	16.684	831.481	625.486
356.679	16.581	831.228	624.860
357.694	16.541	830.838	624.363
358.708	16.472	830.329	623.674
359.723	16.737	829.377	623.880
360.738	16.680	828.684	623.092
361.752	16.717	828.177	622.791
362.767	16.833	827.383	622.567
363.781	16.810	827.025	622.156
364.796	16.840	826.498	621.816
365.810	16.865	826.342	621.733
366.825	16.803	825.816	621.057
367.840	16.741	825.737	620.715
368.854	16.816	825.201	620.532
369.869	16.805	824.586	619.974
370.883	16.959	824.084	620.106
371.898	16.890	823.746	619.545
372.913	17.020	823.217	619.564
373.927	16.839	823.267	618.887
374.942	16.956	822.470	618.660
375.956	17.028	822.137	618.617
376.971	17.138	821.652	618.598
377.986	17.127	821.095	618.087
379.000	17.166	820.865	618.000
380.015	17.085	820.143	617.105
381.029	17.036	819.762	616.586
382.044	17.083	818.935	616.081
383.059	17.107	818.472	615.767
384.073	17.085	817.836	615.153
385.088	17.207	816.788	614.750
386.102	17.142	816.632	614.345
387.117	17.049	816.423	613.797
388.132	17.039	815.415	612.949
389.146	17.262	814.629	613.107
390.161	17.310	814.398	613.052
391.175	17.324	813.822	612.617
392.190	17.046	813.951	611.658
393.205	17.157	813.092	611.356
394.219	17.140	812.460	610.765
395.234	17.210	812.544	611.028
396.248	17.070	812.176	610.194
397.263	17.101	811.543	609.774
398.278	17.148	811.271	609.684
399.292	17.099	810.965	609.224
400.307	17.156	810.228	608.822
401.321	17.312	809.407	608.708
402.336	17.303	809.001	608.320
403.350	17.270	808.704	607.923
404.365	17.392	807.923	607.718
405.380	17.420	807.874	607.727
406.394	17.472	807.393	607.496
407.409	17.659	807.110	607.897
408.423	17.489	807.018	607.167
409.438	17.624	806.137	606.933
410.453	17.701	805.792	606.894
411.467	17.559	805.410	606.046
412.482	17.668	805.128	606.169
413.496	17.746	804.561	605.965
414.511	17.773	804.013	605.594
415.526	17.619	803.893	604.903
416.540	17.666	803.443	604.678
417.555	17.530	803.068	603.860
418.569	17.729	802.198	603.858
419.584	17.630	801.994	603.301
420.599	17.635	801.788	603.110
421.613	111.726	1295.180	1478.460
422.628	96.294	1367.038	1478.541
