DTS Sentinel unit serial number:	SN413079Multiplexer serial number:	ORYXHardware model number:	OX4-SRSoftware version number:	ORYX F/W v4.00 Oryx Data Collector v3.7.2.0data status	okinstallation	princeton_trtdifferential loss correction	single-endedforward channel	channel 1reverse channel	N/Adate	2019/09/15time	21:22:35forward acquisition time	60.00reverse acquisition time	0.00gamma	496.2192k internal	0.2329k external	0.2329temperature offset calibration	0.9958default loss term (dB/km)	0.3790temperature slope calibration	1.0000multiplexer offset coefficient	1.0000multiplexer slope coefficient	1.0000fibre end	0.00T internal ref (°C)	31.00T ext. ref 1 (°C)	8.23T ext. ref 2 (°C)	24.01length (m)	temperature (°C)	Stokes	anti-Stokes-747.200	-200.000	0.127	0.000
-746.185	-192.474	0.059	0.001
-745.171	68.272	0.036	0.038
-744.156	263.379	0.146	0.256
-743.142	31.872	0.118	-0.103
-742.127	111.514	0.255	0.310
-741.112	-200.000	-0.034	0.277
-740.098	5.063	0.186	0.138
-739.083	-200.000	-0.020	0.213
-738.069	-200.000	-0.021	0.324
-737.054	-200.000	0.004	0.243
-736.039	-63.768	-0.394	-0.163
-735.025	-71.165	0.191	0.072
-734.010	55.645	-0.174	0.169
-732.996	36.053	0.284	-0.252
-731.981	-134.243	-0.370	-0.046
-730.966	138.864	-0.069	-0.091
-729.952	-200.000	0.014	-0.091
-728.937	-200.000	-0.008	0.127
-727.923	-97.024	0.200	-0.053
-726.908	119.960	-0.092	0.114
-725.894	155.140	-0.183	0.253
-724.879	44.222	0.152	0.140
-723.864	-21.361	0.147	0.091
-722.850	53.149	0.129	-0.125
-721.835	800.000	0.051	-0.144
-720.821	26.318	-0.316	-0.265
-719.806	285.696	0.078	-0.141
-718.791	407.237	0.083	0.176
-717.777	-200.000	-0.053	-0.235
-716.762	-86.258	-0.132	0.041
-715.748	114.503	0.142	-0.174
-714.733	55.724	-0.220	-0.215
-713.718	-67.522	0.101	-0.040
-712.704	79.176	-0.029	0.032
-711.689	674.797	0.097	-0.253
-710.675	276.595	0.014	0.026
-709.660	647.144	-0.064	0.166
-708.645	25.769	-0.255	0.214
-707.631	-73.086	0.146	0.054
-706.616	-200.000	-0.029	0.168
-705.602	314.706	0.069	-0.131
-704.587	-113.417	-0.275	-0.054
-703.572	800.000	-0.069	-0.221
-702.558	-43.295	-0.260	-0.133
-701.543	104.438	-0.056	-0.066
-700.529	-104.812	-0.379	-0.088
-699.514	-200.000	0.009	-0.137
-698.499	-200.000	0.038	-0.247
-697.485	800.000	-0.056	-0.184
-696.470	-200.000	-0.027	-0.174
-695.456	132.245	-0.184	-0.238
-694.441	49.938	-0.270	-0.256
-693.426	20.438	-0.107	-0.087
-692.412	-109.435	-0.289	0.061
-691.397	-69.381	0.100	-0.039
-690.383	-39.031	0.188	-0.099
-689.368	-114.669	-0.003	0.001
-688.354	70.160	0.155	-0.161
-687.339	-200.000	0.005	0.272
-686.324	-144.287	-0.073	0.007
-685.310	800.000	-0.032	-0.092
-684.295	154.573	-0.198	-0.273
-683.281	-12.961	0.043	0.028
-682.266	-110.124	0.143	0.030
-681.251	117.368	0.076	-0.094
-680.237	-93.268	-0.487	0.136
-679.222	60.719	0.163	-0.163
-678.208	175.284	0.063	0.092
-677.193	99.830	0.260	-0.302
-676.178	90.468	-0.086	-0.097
-675.164	-90.586	-0.185	-0.054
-674.149	107.336	0.136	0.162
-673.135	-170.293	-0.326	0.012
-672.120	-56.966	0.275	0.122
-671.105	-148.180	0.594	-0.049
-670.091	-162.025	0.155	-0.008
-669.076	92.427	-0.128	0.145
-668.062	-200.000	0.046	0.396
-667.047	-200.000	-0.008	-0.258
-666.032	80.085	0.102	0.110
-665.018	-53.843	0.267	-0.122
-664.003	-69.717	-0.260	0.100
-662.989	-200.000	0.006	-0.027
-661.974	-200.000	0.010	0.245
-660.959	-126.886	-0.170	0.025
-659.945	24.044	0.249	0.206
-658.930	-34.278	0.239	0.132
-657.916	357.500	0.128	0.257
-656.901	-115.082	-0.235	-0.045
-655.886	-130.254	0.366	-0.050
-654.872	-200.000	0.010	-0.456
-653.857	11.067	-0.283	-0.217
-652.843	-15.430	-0.279	-0.179
-651.828	-122.968	-0.254	-0.041
-650.814	-80.546	-0.078	0.026
-649.799	-82.695	0.186	0.061
-648.784	-93.182	-0.330	-0.092
-647.770	800.000	-0.071	-0.216
-646.755	-129.488	-0.207	-0.029
-645.741	-200.000	0.035	-0.165
-644.726	50.523	-0.250	0.237
-643.711	800.000	0.074	-0.242
-642.697	-30.708	0.164	-0.093
-641.682	-6.498	-0.101	0.069
-640.668	-200.000	-0.048	0.246
-639.653	237.759	-0.021	-0.035
-638.638	24.565	0.222	0.184
-637.624	-56.945	-0.032	-0.014
-636.609	-11.897	0.064	-0.042
-635.595	-200.000	-0.000	-0.176
-634.580	-2.900	0.243	-0.170
-633.565	85.467	0.256	-0.282
-632.551	-90.822	-0.281	0.081
-631.536	-185.260	-0.307	0.005
-630.522	225.059	-0.095	-0.155
-629.507	13.077	-0.230	0.178
-628.492	-33.843	0.107	-0.059
-627.478	-200.000	-0.010	0.080
-626.463	-78.375	-0.194	-0.067
-625.449	-200.000	-0.005	-0.234
-624.434	-101.284	0.214	0.053
-623.419	697.144	0.058	0.154
-622.405	13.254	0.123	0.096
-621.390	-156.318	0.166	0.010
-620.376	-54.354	-0.193	0.088
-619.361	-82.139	-0.125	-0.041
-618.346	-200.000	-0.031	-0.175
-617.332	226.767	-0.161	-0.261
-616.317	291.574	-0.220	-0.401
-615.303	-77.140	0.131	0.046
-614.288	-114.588	-0.398	-0.076
-613.273	-200.000	0.030	0.145
-612.259	59.689	-0.248	0.246
-611.244	576.513	0.155	-0.379
-610.230	-86.627	-0.155	-0.048
-609.215	-200.000	0.004	-0.139
-608.201	-200.000	-0.009	-0.109
-607.186	195.331	0.066	-0.100
-606.171	-200.000	-0.011	-0.260
-605.157	-86.046	0.116	0.036
-604.142	-186.225	0.044	-0.001
-603.128	-133.117	0.426	0.054
-602.113	800.000	0.090	0.283
-601.098	549.239	0.057	-0.136
-600.084	7.874	-0.133	-0.100
-599.069	-200.000	-0.026	-0.229
-598.055	-85.838	0.102	0.032
-597.040	-174.720	-0.208	-0.006
-596.025	-200.000	-0.045	-0.295
-595.011	800.000	-0.034	-0.123
-593.996	-24.983	0.181	-0.108
-592.982	-112.804	0.236	-0.047
-591.967	753.513	-0.052	0.140
-590.952	800.000	-0.032	0.101
-589.938	-200.000	-0.002	0.074
-588.923	686.572	0.040	0.105
-587.909	800.000	0.051	-0.202
-586.894	205.709	0.020	0.031
-585.879	108.303	0.056	0.067
-584.865	22.935	0.246	-0.202
-583.850	-200.000	0.012	-0.122
-582.836	-3.508	-0.106	0.074
-581.821	800.000	0.030	0.112
-580.806	151.859	0.083	0.113
-579.792	115.653	0.125	0.153
-578.777	322.721	-0.152	0.290
-577.763	-59.265	-0.211	-0.091
-576.748	-200.000	0.001	-0.153
-575.733	800.000	0.010	0.031
-574.719	109.062	-0.088	0.105
-573.704	-51.075	0.216	-0.101
-572.690	-134.795	0.157	0.019
-571.675	-127.340	0.440	-0.064
-570.661	26.955	-0.132	-0.111
-569.646	42.775	0.207	-0.189
-568.631	210.155	-0.177	0.277
-567.617	-108.556	0.388	-0.083
-566.602	-200.000	-0.017	-0.101
-565.588	-79.233	-0.334	0.113
-564.573	-200.000	-0.016	-0.112
-563.558	-200.000	0.021	-0.344
-562.544	32.993	-0.221	0.191
-561.529	-153.699	0.200	0.014
-560.515	-200.000	0.027	-0.155
-559.500	-123.023	-0.133	-0.021
-558.485	-200.000	-0.020	0.167
-557.471	-63.951	-0.080	-0.033
-556.456	-200.000	0.052	0.239
-555.442	207.588	0.265	-0.414
-554.427	800.000	0.036	0.142
-553.412	-108.497	-0.206	0.044
-552.398	800.000	-0.011	-0.046
-551.383	-48.541	-0.308	0.148
-550.369	-101.094	-0.191	0.047
-549.354	-200.000	-0.021	0.093
-548.339	-118.945	-0.327	-0.057
-547.325	-147.451	-0.086	0.007
-546.310	-19.496	-0.209	0.129
-545.296	-200.000	-0.054	-0.392
-544.281	68.260	-0.071	0.073
-543.266	261.614	0.043	-0.075
-542.252	104.478	-0.112	-0.131
-541.237	800.000	-0.023	0.073
-540.223	-168.195	-0.160	-0.006
-539.208	-139.766	0.079	0.008
-538.193	-82.862	-0.117	-0.038
-537.179	-128.857	-0.452	0.063
-536.164	257.373	0.196	-0.337
-535.150	-200.000	0.008	0.127
-534.135	447.944	0.057	-0.125
-533.121	-34.552	0.093	-0.051
-532.106	-200.000	0.045	-0.377
-531.091	-57.475	-0.123	-0.054
-530.077	800.000	0.084	0.282
-529.062	756.383	0.025	-0.068
-528.048	235.674	0.126	-0.208
-527.033	-200.000	-0.034	-0.154
-526.018	-88.540	-0.029	-0.009
-525.004	81.939	-0.156	0.169
-523.989	800.000	-0.036	-0.122
-522.975	-59.542	-0.209	-0.090
-521.960	397.438	0.171	0.358
-520.945	-55.086	-0.132	-0.059
-519.931	800.000	-0.058	-0.170
-518.916	-85.371	0.085	-0.027
-517.902	523.432	-0.142	-0.334
-516.887	-73.431	0.182	-0.066
-515.872	-177.433	0.328	0.008
-514.858	-35.018	-0.235	0.128
-513.843	121.956	0.175	-0.218
-512.829	-74.626	0.217	0.078
-511.814	1.089	0.070	-0.050
-510.799	2.319	0.207	0.150
-509.785	644.450	-0.100	-0.255
-508.770	-95.566	0.015	0.004
-507.756	-4.307	0.064	-0.044
-506.741	-105.307	0.425	-0.097
-505.726	-200.000	-0.011	0.273
-504.712	800.000	-0.038	0.113
-503.697	800.000	0.094	-0.322
-502.683	-38.889	0.106	-0.056
-501.668	36.238	-0.153	0.135
-500.653	-200.000	0.009	-0.074
-499.639	800.000	0.024	-0.068
-498.624	-200.000	0.031	-0.241
-497.610	111.460	-0.047	-0.056
-496.595	-200.000	0.013	-0.151
-495.581	-200.000	0.010	0.054
-494.566	304.502	-0.086	-0.160
-493.551	-42.100	0.189	-0.097
-492.537	-131.374	-0.159	-0.021
-491.522	688.613	-0.043	-0.112
-490.508	232.796	-0.182	0.299
-489.493	225.636	-0.244	0.394
-488.478	-190.583	-0.336	-0.004
-487.464	636.035	-0.157	0.398
-486.449	800.000	0.129	0.369
-485.435	800.000	-0.089	-0.255
-484.420	-56.117	0.291	-0.129
-483.405	800.000	0.044	-0.123
-482.391	85.770	0.182	0.199
-481.376	-167.815	0.317	-0.012
-480.362	30.941	0.250	0.213
-479.347	407.568	0.082	-0.172
-478.332	800.000	-0.072	-0.267
-477.318	-200.000	0.042	0.343
-476.303	328.738	-0.085	-0.163
-475.289	6.880	-0.152	-0.113
-474.274	162.881	-0.078	0.109
-473.259	800.000	0.058	0.197
-472.245	529.558	0.050	0.118
-471.230	-85.994	0.231	-0.071
-470.216	2.467	-0.128	-0.092
-469.201	27.495	-0.193	0.162
-468.186	-200.000	0.008	-0.509
-467.172	96.049	-0.102	-0.116
-466.157	-161.915	0.338	0.017
-465.143	-200.000	-0.023	0.142
-464.128	-74.181	0.169	-0.061
-463.113	-200.000	-0.020	0.296
-462.099	296.453	-0.113	-0.206
-461.084	-60.124	-0.191	0.081
-460.070	646.355	0.125	0.317
-459.055	-106.181	0.339	0.076
-458.040	800.000	-0.022	0.075
-457.026	143.694	0.262	0.348
-456.011	2.171	0.260	-0.187
-454.997	102.226	-0.050	0.058
-453.982	-200.000	-0.032	0.321
-452.968	-200.000	-0.017	-0.129
-451.953	-66.916	-0.137	0.054
-450.938	-200.000	-0.020	0.102
-449.924	-27.925	-0.132	-0.076
-448.909	360.790	-0.100	-0.200
-447.895	800.000	0.043	0.150
-446.880	343.300	-0.221	0.431
-445.865	-21.372	0.104	0.063
-444.851	-127.096	0.189	-0.028
-443.836	236.227	0.144	-0.237
-442.822	800.000	0.036	0.114
-441.807	-158.129	-0.087	-0.005
-440.792	-200.000	0.016	-0.232
-439.778	-200.000	0.043	0.429
-438.763	397.149	0.042	0.087
-437.749	-200.000	-0.095	0.000
-436.734	-122.270	0.281	0.046
-435.719	133.145	-0.118	0.152
-434.705	-200.000	0.001	0.135
-433.690	-200.000	-0.064	-0.393
-432.676	-200.000	0.020	-0.188
-431.661	-200.000	-0.005	-0.030
-430.646	800.000	-0.084	-0.238
-429.632	800.000	0.062	0.270
-428.617	-200.000	-0.042	0.344
-427.603	132.790	0.178	0.229
-426.588	-200.000	0.008	0.089
-425.573	73.974	-0.125	-0.131
-424.559	800.000	-0.048	-0.198
-423.544	238.635	0.122	-0.202
-422.530	20.068	0.091	0.073
-421.515	428.393	0.059	0.127
-420.500	149.679	0.099	0.133
-419.486	137.071	-0.199	-0.259
-418.471	-47.513	-0.069	0.033
-417.457	497.664	0.108	-0.247
-416.442	541.275	-0.121	0.286
-415.428	191.608	0.227	0.341
-414.413	4.852	-0.098	-0.072
-413.398	800.000	0.097	-0.350
-412.384	-100.626	0.080	0.020
-411.369	800.000	0.080	-0.294
-410.355	305.139	0.192	-0.355
-409.340	211.049	0.130	0.204
-408.325	319.571	0.133	0.252
-407.311	10.801	0.192	0.146
-406.296	-80.941	0.309	-0.102
-405.282	-120.293	-0.253	-0.043
-404.267	-15.402	0.246	-0.156
-403.252	-150.216	0.165	-0.013
-402.238	278.928	0.116	-0.205
-401.223	-82.827	0.344	-0.111
-400.209	-46.514	-0.204	-0.100
-399.194	-200.000	0.014	-0.202
-398.179	-200.000	-0.040	0.230
-397.165	800.000	-0.028	0.111
-396.150	182.760	-0.046	0.067
-395.136	-11.196	0.382	0.250
-394.121	573.343	-0.095	0.231
-393.106	1.107	-0.012	0.009
-392.092	-200.000	-0.007	-0.077
-391.077	67.748	-0.118	0.120
-390.063	204.167	0.028	-0.043
-389.048	142.725	-0.095	0.125
-388.033	169.010	-0.128	0.181
-387.019	346.483	-0.060	-0.117
-386.004	728.566	-0.069	-0.184
-384.990	-41.659	0.230	0.117
-383.975	-29.619	-0.061	-0.034
-382.960	-45.898	-0.493	0.242
-381.946	313.722	-0.035	0.066
-380.931	-53.103	0.146	-0.067
-379.917	-200.000	0.030	0.411
-378.902	751.370	-0.143	0.382
-377.888	209.046	0.174	0.270
-376.873	-200.000	-0.008	-0.056
-375.858	-200.000	-0.011	0.058
-374.844	219.543	-0.135	0.215
-373.829	-110.591	-0.253	0.052
-372.815	-22.718	0.082	-0.049
-371.800	299.431	-0.026	0.048
-370.785	42.155	-0.073	0.066
-369.771	-150.088	-0.127	-0.010
-368.756	-22.196	-0.062	0.037
-367.742	105.950	0.210	0.247
-366.727	-200.000	-0.019	-0.097
-365.712	394.257	-0.224	-0.463
-364.698	-200.000	-0.065	-0.334
-363.683	-129.503	0.099	-0.014
-362.669	-200.000	-0.007	0.375
-361.654	56.513	0.287	0.277
-360.639	-200.000	-0.004	-0.569
-359.625	-100.255	0.202	-0.050
-358.610	800.000	-0.035	-0.121
-357.596	-200.000	-0.008	-0.148
-356.581	-103.211	-0.161	-0.038
-355.566	60.515	0.121	0.119
-354.552	-24.928	0.158	0.093
-353.537	145.509	0.074	0.098
-352.523	-115.603	0.309	-0.058
-351.508	800.000	-0.076	-0.305
-350.493	23.367	0.106	-0.086
-349.479	800.000	-0.038	-0.120
-348.464	716.847	-0.061	0.161
-347.450	-5.972	0.189	-0.128
-346.435	-71.407	-0.098	-0.036
-345.420	-76.544	0.053	0.019
-344.406	-157.928	-0.198	-0.012
-343.391	-91.905	-0.256	0.072
-342.377	800.000	-0.093	-0.271
-341.362	-93.959	0.132	0.036
-340.348	800.000	0.123	-0.380
-339.333	662.085	0.188	-0.479
-338.318	-95.609	-0.317	-0.084
-337.304	-200.000	0.016	-0.155
-336.289	-72.899	-0.112	0.041
-335.275	-50.628	-0.240	0.112
-334.260	131.891	-0.126	0.161
-333.245	-200.000	-0.039	-0.179
-332.231	-107.705	-0.165	0.036
-331.216	-81.367	-0.144	0.047
-330.202	128.823	0.160	0.202
-329.187	257.091	-0.031	0.052
-328.172	21.386	-0.144	-0.116
-327.158	-39.809	-0.121	-0.062
-326.143	-44.070	0.069	-0.034
-325.129	800.000	0.044	-0.123
-324.114	-200.000	-0.009	0.159
-323.099	182.566	-0.099	-0.145
-322.085	-181.444	0.051	0.001
-321.070	417.419	-0.067	-0.142
-320.056	72.339	-0.118	-0.122
-319.041	46.161	-0.115	0.105
-318.026	46.385	0.202	-0.185
-317.012	-200.000	0.007	-0.160
-315.997	-17.095	0.219	-0.137
-314.983	-181.812	-0.234	-0.004
-313.968	-200.000	-0.028	0.197
-312.953	-117.990	0.095	0.017
-311.939	100.881	-0.207	0.238
-310.924	18.606	-0.103	0.082
-309.910	353.138	0.093	-0.184
-308.895	-143.436	-0.028	0.003
-307.880	257.170	0.048	-0.082
-306.866	-200.000	0.196	-0.001
-305.851	46.387	-0.018	-0.017
-304.837	-200.000	0.010	0.087
-303.822	800.000	0.095	-0.311
-302.807	-88.557	-0.310	-0.092
-301.793	-58.094	-0.039	-0.017
-300.778	102.313	-0.152	0.175
-299.764	702.612	-0.071	0.184
-298.749	41.455	0.030	0.027
-297.735	-118.116	0.190	-0.034
-296.720	136.952	0.094	-0.121
-295.705	-74.454	0.266	-0.095
-294.691	284.115	-0.140	-0.250
-293.676	-165.660	-0.326	-0.014
-292.662	-57.945	0.342	0.148
-291.647	800.000	0.089	0.382
-290.632	151.398	0.165	0.222
-289.618	-200.000	0.058	0.284
-288.603	-182.598	0.294	-0.005
-287.589	-142.084	-0.350	-0.034
-286.574	227.723	0.131	-0.211
-285.559	800.000	-0.100	0.359
-284.545	425.630	-0.160	0.342
-283.530	800.000	0.061	0.170
-282.516	-161.755	0.198	0.010
-281.501	-156.208	-0.072	-0.004
-280.486	19.206	0.062	0.049
-279.472	302.648	-0.027	0.050
-278.457	512.644	-0.022	-0.050
-277.443	115.193	-0.096	-0.116
-276.428	-44.188	-0.244	0.121
-275.413	-18.428	0.148	0.091
-274.399	-27.590	-0.113	0.065
-273.384	-7.958	0.058	-0.038
-272.370	106.588	-0.204	0.240
-271.355	212.730	-0.054	0.085
-270.340	646.291	-0.037	0.092
-269.326	-78.848	0.217	-0.073
-268.311	473.964	0.060	0.133
-267.297	-116.505	0.349	0.064
-266.282	674.732	0.177	0.453
-265.267	-134.902	0.382	-0.046
-264.253	-200.000	-0.014	-0.086
-263.238	371.055	0.201	-0.403
-262.224	-48.989	-0.168	-0.079
-261.209	217.938	-0.128	0.201
-260.195	-200.000	-0.029	-0.211
-259.180	796.538	-0.128	-0.348
-258.165	226.966	-0.191	0.307
-257.151	32.247	0.130	0.111
-256.136	-88.824	-0.265	-0.078
-255.122	-15.350	-0.139	0.088
-254.107	420.057	-0.142	-0.300
-253.092	-116.354	-0.148	0.027
-252.078	-62.346	-0.146	-0.060
-251.063	726.158	-0.040	0.107
-250.049	132.571	0.145	0.185
-249.034	-54.646	0.116	0.052
-248.019	29.266	0.188	-0.157
-247.005	-99.497	0.216	-0.054
-245.990	-142.001	-0.125	-0.012
-244.976	-200.000	0.007	-0.242
-243.961	-200.000	-0.009	0.073
-242.946	-115.096	-0.090	-0.017
-241.932	-200.000	-0.022	0.174
-240.917	-17.891	-0.255	-0.158
-239.903	552.514	0.030	0.072
-238.888	-200.000	-0.011	-0.135
-237.873	-200.000	-0.027	0.449
-236.859	402.566	-0.086	0.178
-235.844	-200.000	-0.014	0.327
-234.830	-34.060	0.353	0.192
-233.815	-140.055	-0.602	-0.063
-232.800	96.136	-0.219	-0.247
-231.786	-106.896	-0.093	-0.020
-230.771	-21.869	0.166	0.100
-229.757	146.686	0.044	0.058
-228.742	-59.260	-0.249	-0.106
-227.727	-56.563	-0.035	0.015
-226.713	66.664	-0.066	-0.066
-225.698	-179.841	0.162	0.003
-224.684	-200.000	0.009	0.141
-223.669	147.022	-0.074	0.098
-222.655	-135.750	-0.096	-0.011
-221.640	-68.987	-0.313	-0.119
-220.625	-54.729	-0.055	-0.024
-219.611	-101.735	-0.179	0.043
-218.596	-70.408	-0.207	0.078
-217.582	800.000	-0.017	0.049
-216.567	322.036	0.067	-0.126
-215.552	46.733	0.262	-0.240
-214.538	-200.000	-0.064	0.325
-213.523	-66.881	-0.207	0.081
-212.509	-60.677	0.162	-0.068
-211.494	-0.367	0.113	0.079
-210.479	-200.000	0.011	0.291
-209.465	187.397	-0.044	0.065
-208.450	800.000	-0.067	0.227
-207.436	-75.009	0.209	0.074
-206.421	100.823	-0.194	0.222
-205.406	-200.000	-0.045	0.264
-204.392	800.000	0.177	0.511
-203.377	-200.000	0.016	0.208
-202.363	342.630	0.059	0.114
-201.348	-200.000	-0.000	-0.097
-200.333	-108.874	-0.243	-0.051
-199.319	424.440	0.121	-0.257
-198.304	-12.881	0.243	0.156
-197.290	-37.844	-0.102	0.053
-196.275	-200.000	-0.234	0.000
-195.260	365.707	0.202	-0.402
-194.246	10.165	0.287	-0.215
-193.231	273.627	0.140	-0.245
-192.217	-39.426	-0.290	-0.150
-191.202	108.449	0.090	-0.106
-190.187	800.000	0.088	-0.366
-189.173	142.723	-0.047	0.062
-188.158	62.049	-0.075	0.073
-187.144	-192.869	0.202	0.002
-186.129	-35.371	0.201	-0.107
-185.114	-117.396	0.227	-0.040
-184.100	800.000	0.011	-0.037
-183.085	-139.929	0.126	0.013
-182.071	800.000	-0.047	0.177
-181.056	-30.452	-0.055	-0.031
-180.042	800.000	-0.067	-0.219
-179.027	-6.514	-0.145	0.098
-178.012	18.759	-0.165	-0.130
-176.998	45.033	-0.210	-0.191
-175.983	-32.652	0.069	0.038
-174.969	41.512	-0.222	-0.198
-173.954	-127.581	0.209	0.030
-172.939	142.195	-0.140	0.183
-171.925	141.490	0.178	0.232
-170.910	-133.347	0.087	-0.011
-169.896	200.813	-0.200	0.303
-168.881	-161.527	-0.310	-0.016
-167.866	-116.248	-0.123	-0.022
-166.852	31.872	0.316	0.268
-165.837	358.022	0.138	0.271
-164.823	-159.115	0.299	-0.017
-163.808	575.805	-0.123	0.296
-162.793	-200.000	0.002	-0.343
-161.779	-69.359	-0.104	0.039
-160.764	70.810	-0.239	0.244
-159.750	-67.087	0.158	0.061
-158.735	-80.534	0.380	0.125
-157.720	5.055	0.152	-0.110
-156.706	452.765	0.084	-0.182
-155.691	-200.000	-0.007	0.121
-154.677	-72.530	-0.143	0.052
-153.662	329.149	-0.054	0.102
-152.647	236.902	0.159	-0.260
-151.633	-26.550	-0.162	-0.093
-150.618	3.397	0.179	0.128
-149.604	474.659	-0.039	-0.086
-148.589	-200.000	-0.022	0.249
-147.574	-200.000	0.057	0.293
-146.560	624.452	0.061	-0.152
-145.545	100.581	0.265	-0.303
-144.531	300.872	-0.067	0.122
-143.516	206.103	-0.123	-0.189
-142.502	-37.817	-0.174	-0.091
-141.487	70.867	-0.222	0.226
-140.472	-200.000	-0.014	0.278
-139.458	800.000	0.071	0.239
-138.443	-81.891	-0.283	-0.091
-137.429	-108.656	0.046	0.010
-136.414	800.000	-0.092	-0.294
-135.399	591.918	-0.106	0.256
-134.385	-75.036	0.177	0.062
-133.370	67.861	-0.228	-0.230
-132.356	-200.000	0.018	0.143
-131.341	-200.000	-0.022	-0.219
-130.326	800.000	0.104	-0.368
-129.312	89.253	-0.054	-0.059
-128.297	-52.321	0.240	0.109
-127.283	-15.288	-0.295	0.185
-126.268	-200.000	-0.045	0.262
-125.253	-102.099	0.168	0.040
-124.239	5.860	-0.177	0.129
-123.224	103.596	0.153	0.177
-122.210	800.000	-0.019	0.074
-121.195	183.880	-0.422	0.614
-120.180	319.793	0.089	-0.166
-119.166	-200.000	-0.007	0.110
-118.151	90.514	-0.152	-0.168
-117.137	128.424	-0.088	-0.110
-116.122	-200.000	0.034	0.222
-115.107	800.000	-0.043	-0.134
-114.093	-200.000	0.034	-0.236
-113.078	622.304	-0.082	0.203
-112.064	-22.806	-0.152	0.090
-111.049	-149.965	-0.446	-0.034
-110.034	-65.289	0.308	-0.122
-109.020	-200.000	0.066	0.419
-108.005	130.783	-0.167	0.211
-106.991	-200.000	-0.003	0.243
-105.976	-19.562	-0.222	0.135
-104.962	-96.425	0.237	0.062
-103.947	788.180	0.083	-0.224
-102.932	119.713	-0.055	-0.067
-101.918	-4.751	0.125	0.085
-100.903	-181.624	0.267	-0.005
-99.889	800.000	0.050	-0.201
-98.874	702.494	-0.154	0.398
-97.859	-57.372	0.318	-0.137
-96.845	23.638	0.331	-0.268
-95.830	-23.613	-0.278	-0.164
-94.816	51.245	0.177	0.165
-93.801	526.141	-0.113	0.262
-92.786	267.589	-0.096	0.165
-91.772	-200.000	0.015	-0.114
-90.757	682.807	-0.028	-0.072
-89.743	-200.000	-0.002	-0.022
-88.728	-56.852	0.152	-0.066
-87.713	193.483	0.164	-0.244
-86.699	16.890	0.094	-0.073
-85.684	-200.000	0.009	-0.065
-84.670	-200.000	-0.023	-0.482
-83.655	-30.646	-0.066	-0.037
-82.640	800.000	-0.050	0.205
-81.626	-200.000	-0.045	-0.335
-80.611	176.647	0.324	0.463
-79.597	306.465	0.103	-0.188
-78.582	-200.000	-0.046	-0.256
-77.567	425.765	0.056	-0.119
-76.553	-80.995	0.123	0.040
-75.538	121.888	0.094	0.116
-74.524	-143.700	0.211	-0.020
-73.509	50.536	0.164	-0.153
-72.494	22.787	-0.067	-0.054
-71.480	66.068	0.211	0.210
-70.465	3.755	-0.216	0.155
-69.451	-49.326	-0.210	0.098
-68.436	-122.360	0.109	0.017
-67.422	-51.271	-0.285	0.131
-66.407	-9.430	-0.134	-0.088
-65.392	800.000	-0.097	0.366
-64.378	800.000	0.075	-0.216
-63.363	-79.906	0.253	-0.083
-62.349	748.986	0.155	0.410
-61.334	108.623	-0.624	-0.731
-60.319	-63.448	0.766	0.309
-59.305	800.000	-0.428	-1.386
-58.290	228.020	0.664	1.061
-57.276	283.908	0.813	1.434
-56.261	-200.000	102.654	574.732
-55.246	482.052	1431.037	3187.371
-54.232	155.493	2602.370	3513.450
-53.217	109.625	2133.197	2506.871
-52.203	42.446	1590.797	1418.584
-51.188	34.690	1330.205	1140.082
-50.173	31.347	1288.848	1085.217
-49.159	54.045	1340.711	1263.951
-48.144	55.626	1357.174	1288.785
-47.130	34.515	1313.626	1124.664
-46.115	31.107	1296.292	1089.909
-45.100	30.994	1291.141	1084.881
-44.086	30.861	1288.797	1082.095
-43.071	30.829	1286.429	1079.877
-42.057	30.868	1284.428	1078.381
-41.042	30.987	1282.537	1077.435
-40.027	30.886	1281.310	1075.782
-39.013	30.997	1279.349	1074.731
-37.998	30.913	1277.653	1072.780
-36.984	31.034	1276.029	1072.073
-35.969	30.989	1274.416	1070.415
-34.954	31.102	1272.231	1069.185
-33.940	30.974	1271.420	1067.726
-32.925	31.099	1270.034	1067.237
-31.911	31.035	1268.656	1065.666
-30.896	31.092	1266.852	1064.435
-29.881	30.995	1265.993	1063.121
-28.867	31.033	1264.529	1062.062
-27.852	31.278	1262.528	1061.737
-26.838	31.199	1261.444	1060.334
-25.823	31.061	1260.202	1058.465
-24.809	31.091	1258.694	1057.324
-23.794	31.036	1257.854	1056.264
-22.779	31.054	1256.139	1054.884
-21.765	31.002	1255.213	1053.770
-20.750	31.071	1253.580	1052.748
-19.736	30.987	1252.698	1051.493
-18.721	30.976	1251.424	1050.321
-17.706	30.938	1250.506	1049.291
-16.692	30.947	1249.285	1048.277
-15.677	31.046	1247.779	1047.527
-14.663	30.906	1247.252	1046.258
-13.648	30.999	1245.530	1045.292
-12.633	31.024	1244.590	1044.605
-11.619	30.881	1244.146	1043.391
-10.604	30.910	1243.085	1042.618
-9.590	30.911	1242.054	1041.721
-8.575	30.915	1241.191	1040.976
-7.560	30.910	1240.011	1039.919
-6.546	30.934	1239.280	1039.398
-5.531	30.897	1238.721	1038.683
-4.517	30.929	1237.746	1037.999
-3.502	30.957	1236.846	1037.362
-2.487	30.932	1236.133	1036.582
-1.473	30.855	1231.680	1032.382
-0.458	29.176	1215.960	1009.968
0.556	23.263	1198.434	968.877
1.571	19.154	1203.370	950.159
2.586	18.134	1217.805	955.773
3.600	18.016	1207.367	946.841
4.615	15.466	1141.509	881.737
5.629	10.856	1072.808	805.797
6.644	8.391	1055.200	780.467
7.659	8.298	1052.235	777.751
8.673	8.125	1051.376	776.205
9.688	8.117	1050.035	775.110
10.702	8.519	1048.284	775.700
11.717	11.378	1051.766	792.106
12.731	15.736	1058.091	818.041
13.746	17.627	1060.004	828.651
14.761	17.297	1058.789	826.024
15.775	16.296	1056.738	819.494
16.790	15.192	1054.729	812.512
17.804	14.615	1052.833	808.187
18.819	14.102	1051.730	804.786
19.834	13.864	1050.951	802.967
20.848	13.634	1050.264	801.260
21.863	13.406	1048.979	799.111
22.877	13.274	1048.686	798.178
23.892	13.341	1047.901	797.832
24.907	13.225	1047.305	796.748
25.921	13.252	1046.417	796.133
26.936	13.429	1044.125	795.171
27.950	13.338	1043.589	794.254
28.965	13.504	1041.557	793.432
29.980	13.501	1040.573	792.597
30.994	13.523	1039.317	791.675
32.009	13.531	1038.628	791.119
33.023	13.563	1037.480	790.328
34.038	13.361	1036.136	788.272
35.053	13.361	1035.553	787.760
36.067	13.425	1034.426	787.135
37.082	13.446	1033.860	786.735
38.096	13.510	1032.934	786.265
39.111	13.461	1032.617	785.723
40.126	13.424	1030.769	784.074
41.140	13.224	1029.635	782.192
42.155	13.078	1028.927	780.898
43.169	13.139	1027.389	779.947
44.184	13.229	1026.508	779.636
45.199	13.178	1025.802	778.790
46.213	13.195	1024.766	778.012
47.228	13.253	1023.597	777.329
48.242	13.303	1022.504	776.665
49.257	13.326	1021.370	775.844
50.271	13.485	1020.684	776.001
51.286	13.427	1019.675	774.892
52.301	13.368	1018.932	773.981
53.315	13.347	1018.487	773.480
54.330	13.270	1016.825	771.790
55.344	13.294	1016.247	771.393
56.359	13.260	1015.214	770.381
57.374	13.293	1014.370	769.825
58.388	13.221	1013.631	768.862
59.403	13.231	1012.639	768.091
60.417	13.221	1011.894	767.407
61.432	13.152	1011.393	766.642
62.447	13.006	1010.723	765.388
63.461	13.064	1009.794	764.887
64.476	13.132	1008.608	764.234
65.490	13.110	1007.947	763.566
66.505	13.141	1006.907	762.852
67.520	13.186	1006.299	762.530
68.534	13.196	1005.644	762.014
69.549	13.253	1005.082	761.782
70.563	13.088	1004.199	760.287
71.578	13.105	1003.372	759.674
72.593	12.993	1002.510	758.436
73.607	13.062	1001.916	758.239
74.622	13.030	1001.163	757.454
75.636	12.942	1000.393	756.400
76.651	13.097	999.479	756.355
77.666	13.147	999.034	756.177
78.680	13.063	998.636	755.425
79.695	13.074	997.826	754.798
80.709	13.167	997.291	754.751
81.724	13.295	995.991	754.281
82.739	13.182	996.299	753.932
83.753	13.351	994.912	753.588
84.768	13.504	993.737	753.326
85.782	13.555	993.134	753.037
86.797	13.483	992.197	751.931
87.812	13.418	991.359	750.935
88.826	13.500	990.519	750.604
89.841	13.386	989.895	749.550
90.855	13.487	988.880	749.171
91.870	13.484	987.968	748.399
92.884	13.556	987.314	748.165
93.899	13.599	986.344	747.555
94.914	13.702	985.558	747.358
95.928	13.596	984.965	746.366
96.943	13.488	983.896	745.002
97.957	13.499	983.117	744.397
98.972	13.535	982.317	743.885
99.987	13.419	981.310	742.540
101.001	13.305	980.884	741.638
102.016	13.337	979.993	741.044
103.030	13.516	978.703	740.802
104.045	13.520	978.208	740.381
105.060	13.500	977.141	739.418
106.074	13.298	976.447	737.925
107.089	13.265	974.990	736.614
108.103	13.133	974.368	735.491
109.118	13.171	973.565	734.989
110.133	13.220	972.473	734.317
111.147	13.307	971.899	734.205
112.162	13.344	971.074	733.682
113.176	13.296	970.538	732.996
114.191	13.414	969.758	732.866
115.206	13.401	968.642	731.901
116.220	13.299	968.156	731.016
117.235	13.340	966.906	730.189
118.249	13.187	966.586	729.208
119.264	13.260	965.442	728.602
120.279	13.247	964.575	727.825
121.293	13.299	963.964	727.531
122.308	13.266	962.789	726.434
123.322	13.331	961.654	725.797
124.337	13.233	960.882	724.723
125.352	13.236	960.130	724.105
126.366	13.257	958.572	722.957
127.381	13.329	957.517	722.411
128.395	13.188	957.174	721.475
129.410	13.225	956.219	720.851
130.424	13.310	955.579	720.673
131.439	13.468	954.450	720.449
132.454	13.388	954.121	719.787
133.468	13.412	953.309	719.217
134.483	13.404	952.509	718.513
135.497	13.402	951.860	717.951
136.512	13.341	950.937	716.926
137.527	13.328	950.337	716.354
138.541	13.465	949.224	716.046
139.556	13.424	948.506	715.263
140.570	13.446	947.938	714.868
141.585	13.531	946.896	714.385
142.600	13.621	946.092	714.101
143.614	13.547	945.283	713.112
144.629	13.521	944.818	712.584
145.643	13.729	943.458	712.388
146.658	13.593	942.709	711.178
147.673	13.467	942.076	710.096
148.687	13.508	941.377	709.684
149.702	13.397	940.400	708.410
150.716	13.439	939.531	707.871
151.731	13.511	938.793	707.561
152.746	13.453	938.289	706.867
153.760	13.540	937.380	706.494
154.775	13.498	936.984	705.954
155.789	13.593	936.332	705.802
156.804	13.576	935.635	705.142
157.819	13.589	935.287	704.875
158.833	13.591	934.919	704.545
159.848	13.774	933.404	704.116
160.862	13.671	932.656	703.053
161.877	13.647	931.397	701.941
162.892	13.472	930.871	700.741
163.906	13.588	929.443	700.092
164.921	13.562	928.808	699.442
165.935	13.618	928.553	699.424
166.950	13.604	927.797	698.736
167.964	13.662	926.671	698.072
168.979	13.768	925.711	697.732
169.994	13.652	925.202	696.797
171.008	13.632	924.493	696.118
172.023	13.852	923.515	696.242
173.037	13.866	922.948	695.812
174.052	13.724	922.325	694.685
175.067	13.702	921.631	694.010
176.081	13.700	920.867	693.367
177.096	13.562	920.824	692.693
178.110	13.667	919.959	692.423
179.125	13.842	919.064	692.414
180.140	13.814	918.670	691.942
181.154	13.799	918.243	691.494
182.169	13.875	917.750	691.381
183.183	13.934	916.803	690.850
184.198	14.002	916.096	690.541
185.213	13.993	915.866	690.266
186.227	14.001	915.179	689.723
187.242	13.972	914.461	688.999
188.256	14.032	913.927	688.787
189.271	13.998	913.167	688.010
190.286	13.862	912.324	686.753
191.300	13.674	911.576	685.351
192.315	13.702	910.728	684.769
193.329	13.648	910.687	684.455
194.344	13.750	910.057	684.341
195.359	13.761	909.444	683.865
196.373	13.967	908.365	683.843
197.388	13.856	908.545	683.457
198.402	14.160	908.109	684.322
199.417	14.077	907.411	683.392
200.432	14.260	906.531	683.420
201.446	14.215	906.215	682.940
202.461	14.313	905.116	682.451
203.475	14.204	905.277	682.067
204.490	14.047	904.461	680.746
205.504	14.073	903.703	680.225
206.519	14.066	902.872	679.510
207.534	14.000	902.114	678.610
208.548	14.186	901.245	678.656
209.563	14.116	901.035	678.148
210.577	14.280	900.220	678.143
211.592	14.273	899.565	677.561
212.607	14.423	898.612	677.396
213.621	14.427	897.721	676.678
214.636	14.374	896.761	675.680
215.650	14.366	896.711	675.550
216.665	14.401	895.882	675.008
217.680	14.378	895.643	674.678
218.694	14.446	894.544	674.062
219.709	14.512	894.008	673.867
220.723	14.444	893.039	672.802
221.738	14.408	892.989	672.560
222.753	14.493	892.073	672.154
223.767	14.499	891.449	671.646
224.782	14.550	890.982	671.439
225.796	14.483	890.789	670.969
226.811	14.602	889.756	670.607
227.826	14.387	889.114	669.200
228.840	14.404	888.485	668.738
229.855	14.475	887.905	668.527
230.869	14.424	887.221	667.746
231.884	14.395	886.581	667.089
232.899	14.408	885.737	666.446
233.913	14.359	885.005	665.641
234.928	14.295	884.831	665.198
235.942	14.296	884.074	664.574
236.957	14.494	883.087	664.560
237.972	14.368	882.920	663.877
238.986	14.372	882.237	663.320
240.001	14.515	881.462	663.248
241.015	14.606	880.694	662.970
242.030	14.642	880.486	662.897
243.045	14.521	879.722	661.786
244.059	14.547	879.020	661.303
245.074	14.532	878.349	660.677
246.088	14.489	877.973	660.168
247.103	14.694	877.301	660.415
248.117	14.724	876.864	660.147
249.132	14.877	876.469	660.393
250.147	14.906	875.923	660.038
251.161	14.998	874.825	659.514
252.176	14.898	874.602	658.895
253.190	15.050	873.159	658.347
254.205	15.194	873.090	658.804
255.220	15.157	872.512	658.163
256.234	15.000	872.184	657.243
257.249	15.106	871.516	657.098
258.263	14.986	870.624	655.893
259.278	15.014	870.034	655.500
260.293	15.083	869.480	655.298
261.307	15.232	868.656	655.201
262.322	15.094	868.368	654.387
263.336	15.239	867.484	654.227
264.351	15.249	866.653	653.584
265.366	15.246	866.273	653.225
266.380	15.242	865.739	652.751
267.395	15.255	864.480	651.792
268.409	15.235	864.031	651.321
269.424	15.329	863.279	651.060
270.439	15.187	862.656	649.981
271.453	15.137	862.335	649.487
272.468	15.246	861.551	649.263
273.482	15.249	861.153	648.916
274.497	15.312	860.240	648.416
275.512	15.334	859.659	648.004
276.526	15.282	859.401	647.554
277.541	15.259	859.060	647.149
278.555	15.378	858.138	646.857
279.570	15.327	858.245	646.682
280.585	15.362	857.363	646.097
281.599	15.294	856.430	645.073
282.614	15.326	855.656	644.557
283.628	15.360	854.886	644.051
284.643	15.389	854.138	643.540
285.657	15.325	854.003	643.137
286.672	15.434	853.446	643.079
287.687	15.423	852.252	642.078
288.701	15.323	852.412	641.761
289.716	15.577	851.101	641.689
290.730	15.640	850.544	641.450
291.745	15.505	850.576	640.904
292.760	15.565	850.113	640.726
293.774	15.489	849.453	639.881
294.789	15.585	848.491	639.467
295.803	15.591	847.941	639.019
296.818	15.677	847.158	638.698
297.833	15.662	846.253	637.905
298.847	15.634	845.901	637.476
299.862	15.637	845.348	637.013
300.876	15.623	844.915	636.579
301.891	15.691	844.358	636.360
302.906	15.693	843.597	635.738
303.920	15.709	843.296	635.516
304.935	15.861	842.681	635.569
305.949	15.943	841.948	635.269
306.964	15.896	841.182	634.456
307.979	15.812	840.803	633.799
308.993	15.905	840.390	633.780
310.008	15.889	839.737	633.172
311.022	15.842	839.060	632.430
312.037	15.824	838.366	631.782
313.052	15.746	837.958	631.127
314.066	15.807	837.174	630.709
315.081	15.748	836.881	630.211
316.095	15.700	836.383	629.603
317.110	15.747	835.498	629.056
318.125	15.916	835.388	629.549
319.139	15.775	835.104	628.751
320.154	15.750	834.907	628.453
321.168	15.905	833.803	628.146
322.183	15.882	833.131	627.498
323.197	15.732	833.244	626.970
324.212	16.006	832.139	627.102
325.227	15.890	831.728	626.306
326.241	15.892	830.970	625.685
327.256	15.822	830.642	625.123
328.270	16.035	829.830	625.249
329.285	15.822	829.632	624.255
330.300	15.813	828.982	623.677
331.314	15.997	828.365	623.839
332.329	15.952	828.206	623.496
333.343	16.040	827.788	623.453
334.358	16.000	827.020	622.670
335.373	16.072	826.824	622.733
336.387	16.261	826.646	623.241
337.402	16.061	826.688	622.480
338.416	16.071	826.084	622.007
339.431	16.304	825.623	622.464
340.446	16.353	825.264	622.319
341.460	16.365	824.947	622.070
342.475	16.396	824.506	621.796
343.489	16.429	823.732	621.279
344.504	16.473	823.401	621.135
345.519	16.570	823.006	621.139
346.533	16.475	822.329	620.225
347.548	16.462	821.722	619.663
348.562	16.281	821.497	618.775
349.577	16.238	821.016	618.200
350.592	16.359	820.218	617.990
351.606	16.369	819.233	617.227
352.621	16.384	818.982	617.041
353.635	16.284	818.381	616.167
354.650	16.262	817.843	615.627
355.665	16.394	817.094	615.491
356.679	16.394	816.679	615.125
357.694	16.222	816.262	614.130
358.708	16.549	814.978	614.297
359.723	16.264	815.256	613.417
360.738	16.459	814.254	613.314
361.752	16.556	813.489	613.037
362.767	16.586	812.954	612.689
363.781	16.666	812.742	612.763
364.796	16.821	811.769	612.538
365.810	16.836	811.677	612.467
366.825	16.763	811.332	611.887
367.840	16.820	810.840	611.669
368.854	16.772	810.341	611.067
369.869	16.758	810.086	610.769
370.883	16.794	809.290	610.244
371.898	16.822	809.343	610.330
372.913	16.936	808.648	610.164
373.927	16.867	808.572	609.802
374.942	16.850	807.918	609.195
375.956	16.916	807.370	608.964
376.971	16.871	806.869	608.372
377.986	17.010	806.365	608.435
379.000	16.986	806.113	608.106
380.015	16.976	805.601	607.629
381.029	16.919	805.386	607.212
382.044	16.977	804.369	606.596
383.059	17.060	803.582	606.245
384.073	16.880	803.380	605.397
385.088	16.982	802.446	605.003
386.102	17.005	802.120	604.787
387.117	16.981	801.321	604.047
388.132	17.020	800.876	603.797
389.146	17.090	800.254	603.520
390.161	16.966	800.172	602.966
391.175	17.029	799.806	602.859
392.190	16.850	799.424	601.883
393.205	17.001	798.545	601.705
394.219	16.962	798.683	601.617
395.234	16.927	798.148	601.035
396.248	16.844	797.663	600.322
397.263	17.111	796.867	600.616
398.278	16.823	797.221	599.812
399.292	16.885	796.558	599.476
400.307	16.871	795.743	598.762
401.321	17.078	795.090	598.948
402.336	17.086	794.866	598.756
403.350	17.188	794.352	598.673
404.365	17.229	793.822	598.365
405.380	17.325	793.129	598.128
406.394	17.303	793.077	597.958
407.409	17.323	792.686	597.682
408.423	17.395	792.303	597.593
409.438	17.370	791.817	597.085
410.453	17.313	791.496	596.590
411.467	17.351	790.994	596.293
412.482	17.617	790.317	596.662
413.496	17.608	789.998	596.334
414.511	17.505	789.870	595.825
415.526	17.517	789.372	595.441
416.540	17.419	789.041	594.797
417.555	17.575	788.551	594.916
418.569	17.391	788.260	594.004
419.584	17.625	787.384	594.105
420.599	17.647	787.194	593.987
421.613	109.301	1290.461	1465.554
422.628	93.715	1363.787	1465.637
