DTS Sentinel unit serial number:	SN413079Multiplexer serial number:	ORYXHardware model number:	OX4-SRSoftware version number:	ORYX F/W v4.00 Oryx Data Collector v3.7.2.0data status	okinstallation	princeton_trtdifferential loss correction	single-endedforward channel	channel 1reverse channel	N/Adate	2019/09/13time	11:46:35forward acquisition time	60.00reverse acquisition time	0.00gamma	496.2192k internal	0.2313k external	0.2313temperature offset calibration	1.0163default loss term (dB/km)	0.3790temperature slope calibration	1.0000multiplexer offset coefficient	1.0000multiplexer slope coefficient	1.0000fibre end	0.00T internal ref (°C)	33.20T ext. ref 1 (°C)	4.53T ext. ref 2 (°C)	30.19length (m)	temperature (°C)	Stokes	anti-Stokes-747.200	-60.542	0.008	-0.004
-746.185	-200.000	-0.015	-0.142
-745.171	109.214	0.176	0.214
-744.156	800.000	0.070	-0.244
-743.142	-78.299	0.258	-0.090
-742.127	280.041	-0.164	0.296
-741.112	25.776	-0.248	-0.210
-740.098	6.463	-0.048	-0.036
-739.083	35.709	0.162	-0.144
-738.069	511.818	-0.137	0.323
-737.054	99.995	-0.154	-0.181
-736.039	123.774	-0.156	0.198
-735.025	-200.000	0.023	0.261
-734.010	-6.634	-0.087	0.060
-732.996	-149.581	0.114	0.009
-731.981	-200.000	-0.049	0.308
-730.966	10.808	-0.067	0.052
-729.952	-200.000	0.047	-0.413
-728.937	-121.109	-0.279	0.047
-727.923	-103.629	-0.207	0.049
-726.908	-63.187	0.167	0.070
-725.894	385.283	0.152	-0.317
-724.879	-129.033	0.120	0.017
-723.864	473.410	-0.044	-0.100
-722.850	142.950	-0.042	0.056
-721.835	-165.758	-0.172	0.008
-720.821	793.554	-0.021	-0.059
-719.806	-153.250	-0.024	-0.002
-718.791	-42.634	-0.378	0.195
-717.777	448.149	-0.116	-0.258
-716.762	-50.158	-0.283	0.136
-715.748	-200.000	-0.014	0.276
-714.733	-1.876	-0.223	0.159
-713.718	-12.131	-0.108	0.072
-712.704	-124.802	-0.062	-0.010
-711.689	286.685	-0.170	-0.311
-710.675	-121.197	0.448	-0.076
-709.660	-120.059	-0.019	-0.003
-708.645	-183.567	0.165	-0.003
-707.631	-13.603	-0.109	0.071
-706.616	-28.587	0.341	0.199
-705.602	-41.365	0.206	0.107
-704.587	800.000	-0.033	-0.101
-703.572	124.996	0.062	-0.079
-702.558	56.260	0.140	-0.138
-701.543	-40.499	-0.161	0.085
-700.529	36.628	0.122	0.109
-699.514	-81.577	0.297	0.099
-698.499	-200.000	-0.010	0.078
-697.485	-116.223	0.041	-0.008
-696.470	-92.890	-0.305	0.086
-695.456	-137.660	0.299	0.034
-694.441	-33.603	0.228	0.127
-693.426	-26.892	-0.471	-0.279
-692.412	469.834	-0.054	0.124
-691.397	37.757	-0.023	0.020
-690.383	-16.379	0.352	-0.226
-689.368	-200.000	-0.052	-0.286
-688.354	-173.601	0.189	0.006
-687.339	-187.973	-0.154	0.002
-686.324	-61.466	0.320	-0.136
-685.310	-200.000	0.027	-0.222
-684.295	202.713	-0.139	-0.218
-683.281	-128.637	0.173	-0.025
-682.266	-165.235	0.157	-0.007
-681.251	693.773	-0.075	-0.200
-680.237	-35.979	0.060	-0.033
-679.222	136.466	0.144	0.190
-678.208	-106.974	0.125	-0.028
-677.193	3.215	-0.162	-0.119
-676.178	-87.541	-0.285	0.087
-675.164	-200.000	-0.014	0.068
-674.149	-115.825	-0.455	-0.086
-673.135	-200.000	-0.041	-0.273
-672.120	13.121	-0.266	-0.209
-671.105	-200.000	0.020	-0.379
-670.091	366.059	-0.202	-0.412
-669.076	-96.176	-0.220	-0.059
-668.062	-200.000	-0.003	-0.380
-667.047	-87.549	-0.184	0.056
-666.032	-12.984	-0.130	-0.086
-665.018	-152.943	0.313	0.022
-664.003	-2.619	0.226	0.160
-662.989	131.303	0.135	0.175
-661.974	-200.000	0.045	0.224
-660.959	800.000	-0.029	0.115
-659.945	47.622	-0.105	-0.099
-658.930	550.778	0.099	-0.241
-657.916	-139.761	0.117	0.013
-656.901	-78.310	0.336	0.117
-655.886	800.000	-0.053	0.179
-654.872	-200.000	0.048	0.231
-653.857	-2.510	-0.074	0.053
-652.843	781.679	0.095	0.263
-651.828	164.839	0.059	-0.085
-650.814	406.965	-0.121	0.259
-649.799	-106.433	-0.366	-0.083
-648.784	-131.649	0.173	0.023
-647.770	-55.837	0.119	-0.054
-646.755	633.218	-0.095	-0.244
-645.741	1.686	0.250	0.182
-644.726	800.000	-0.100	0.359
-643.711	-92.655	-0.160	0.045
-642.697	-152.296	0.178	0.013
-641.682	141.330	0.102	-0.137
-640.668	-113.512	-0.054	0.011
-639.653	-23.881	-0.030	0.018
-638.638	311.917	-0.106	0.201
-637.624	124.296	-0.100	0.127
-636.609	800.000	-0.099	-0.319
-635.595	-89.803	-0.180	0.053
-634.580	-105.552	0.234	-0.054
-633.565	-200.000	0.023	0.120
-632.551	800.000	0.053	0.158
-631.536	543.509	0.034	0.083
-630.522	-98.040	-0.253	0.066
-629.507	-63.624	-0.187	0.077
-628.492	800.000	0.071	0.280
-627.478	-14.056	0.254	0.165
-626.463	800.000	0.060	0.248
-625.449	800.000	-0.067	-0.290
-624.434	-200.000	0.038	-0.255
-623.419	71.978	0.261	-0.274
-622.405	-200.000	0.013	-0.154
-621.390	-168.256	-0.222	-0.009
-620.376	356.291	0.063	0.128
-619.361	-152.919	-0.061	-0.004
-618.346	-83.040	0.339	-0.110
-617.332	-200.000	-0.020	-0.135
-616.317	44.953	0.060	-0.056
-615.303	-15.527	0.036	0.023
-614.288	-89.495	0.084	0.025
-613.273	190.052	0.174	-0.264
-612.259	283.952	0.173	0.313
-611.244	466.275	-0.120	0.272
-610.230	-200.000	-0.026	-0.195
-609.215	-44.664	0.228	-0.115
-608.201	-150.968	0.087	-0.007
-607.186	146.314	-0.101	-0.137
-606.171	663.000	0.133	0.345
-605.157	-200.000	0.040	-0.273
-604.142	-200.000	-0.008	-0.080
-603.128	-200.000	-0.005	-0.158
-602.113	207.481	0.138	0.218
-601.098	-83.733	-0.033	0.010
-600.084	234.860	0.134	-0.223
-599.069	-68.254	0.123	0.048
-598.055	-25.299	-0.240	0.143
-597.040	-101.581	-0.083	-0.020
-596.025	-58.436	-0.057	0.025
-595.011	238.881	-0.077	-0.130
-593.996	49.763	0.212	-0.201
-592.982	-1.793	-0.452	-0.321
-591.967	494.350	0.036	-0.084
-590.952	-153.517	0.252	-0.018
-589.938	-200.000	-0.008	0.106
-588.923	189.216	-0.156	-0.236
-587.909	800.000	-0.039	-0.130
-586.894	800.000	-0.106	0.415
-585.879	113.731	-0.124	-0.152
-584.865	48.091	0.316	-0.298
-583.850	-39.362	0.226	-0.119
-582.836	19.759	0.083	-0.067
-581.821	214.819	-0.066	-0.105
-580.806	97.623	0.189	0.218
-579.792	-29.672	-0.187	0.108
-578.777	-100.526	-0.044	0.011
-577.763	171.076	-0.022	0.031
-576.748	-178.209	-0.146	-0.003
-575.733	45.057	0.088	-0.082
-574.719	-8.446	-0.175	-0.119
-573.704	112.236	-0.093	-0.114
-572.690	-200.000	-0.011	0.163
-571.675	-130.305	0.261	0.036
-570.661	-24.206	0.150	0.090
-569.646	70.335	-0.208	0.216
-568.631	800.000	-0.148	0.418
-567.617	-200.000	-0.005	0.116
-566.602	17.286	-0.112	0.089
-565.588	800.000	0.045	0.160
-564.573	-200.000	-0.014	-0.328
-563.558	60.412	-0.236	-0.235
-562.544	-24.222	-0.138	0.083
-561.529	-144.065	-0.317	0.030
-560.515	0.789	0.239	0.172
-559.500	-120.899	-0.100	0.017
-558.485	-28.512	-0.018	-0.010
-557.471	-200.000	-0.032	0.209
-556.456	-88.166	-0.227	-0.068
-555.442	258.868	0.208	0.361
-554.427	-65.363	-0.125	0.051
-553.412	99.055	-0.217	-0.252
-552.398	-200.000	-0.021	-0.262
-551.383	800.000	0.019	-0.069
-550.369	188.877	0.039	0.058
-549.354	800.000	0.022	0.095
-548.339	800.000	-0.019	0.053
-547.325	319.728	0.119	0.228
-546.310	-200.000	-0.014	-0.114
-545.296	7.554	-0.158	-0.119
-544.281	-64.132	0.150	-0.062
-543.266	203.341	-0.157	-0.244
-542.252	-195.056	0.084	-0.001
-541.237	182.136	0.184	0.273
-540.223	-28.435	0.292	0.170
-539.208	-200.000	-0.005	0.303
-538.193	-163.928	0.179	0.008
-537.179	99.482	0.361	0.421
-536.164	-83.600	-0.108	0.035
-535.150	80.203	0.188	0.204
-534.135	492.759	-0.136	-0.315
-533.121	-200.000	-0.073	-0.397
-532.106	734.655	-0.065	0.175
-531.091	708.787	0.072	-0.191
-530.077	-82.912	0.192	0.062
-529.062	-135.704	-0.337	0.040
-528.048	-115.865	0.077	0.015
-527.033	-115.593	-0.116	-0.022
-526.018	514.899	-0.049	0.116
-525.004	-159.928	0.118	0.006
-523.989	-133.939	0.184	0.023
-522.975	-150.393	-0.235	-0.018
-521.960	12.156	0.263	0.203
-520.945	77.380	-0.310	0.332
-519.931	-200.000	-0.025	-0.145
-518.916	-200.000	-0.041	0.217
-517.902	-159.172	-0.268	-0.015
-516.887	-68.842	0.112	-0.043
-515.872	-63.094	0.249	-0.103
-514.858	-34.772	-0.072	-0.039
-513.843	404.784	0.122	-0.258
-512.829	95.290	0.058	0.066
-511.814	-48.394	0.037	-0.018
-510.799	35.877	0.246	-0.217
-509.785	-200.000	-0.005	-0.022
-508.770	800.000	-0.094	-0.327
-507.756	72.289	0.088	-0.092
-506.741	-177.002	-0.397	0.010
-505.726	313.419	0.138	0.261
-504.712	-77.528	0.246	-0.086
-503.697	-60.704	0.107	-0.046
-502.683	800.000	-0.060	-0.237
-501.668	107.125	0.123	-0.147
-500.653	51.144	-0.049	0.047
-499.639	-133.725	0.017	-0.002
-498.624	-70.358	0.400	0.152
-497.610	-70.692	0.142	0.054
-496.595	-86.590	-0.229	0.070
-495.581	-70.299	0.166	-0.063
-494.566	34.176	-0.371	-0.325
-493.551	-83.404	-0.212	0.068
-492.537	-116.625	-0.431	-0.080
-491.522	-144.125	-0.132	0.012
-490.508	119.574	-0.073	0.091
-489.493	-200.000	-0.014	-0.090
-488.478	800.000	-0.016	0.056
-487.464	92.328	-0.097	-0.109
-486.449	130.656	-0.107	0.137
-485.435	-145.696	0.246	-0.022
-484.420	-81.190	-0.288	0.095
-483.405	19.770	0.179	-0.144
-482.391	191.778	0.108	0.164
-481.376	-49.978	-0.368	0.175
-480.362	-200.000	-0.023	-0.105
-479.347	98.170	-0.088	0.101
-478.332	-173.875	-0.042	-0.001
-477.318	-122.315	-0.093	-0.015
-476.303	-200.000	0.055	0.262
-475.289	-65.265	-0.562	0.227
-474.274	52.467	-0.186	0.178
-473.259	308.771	-0.255	0.478
-472.245	-87.200	-0.201	0.061
-471.230	-200.000	-0.022	-0.169
-470.216	-92.293	-0.044	0.013
-469.201	-3.605	0.126	0.088
-468.186	371.705	0.054	-0.110
-467.172	545.932	0.127	-0.306
-466.157	-160.607	-0.351	-0.019
-465.143	-23.631	0.285	-0.171
-464.128	531.840	-0.135	-0.321
-463.113	-200.000	0.034	0.319
-462.099	339.286	0.094	0.184
-461.084	-57.743	0.215	-0.094
-460.070	-122.913	0.304	0.049
-459.055	1.869	0.228	0.165
-458.040	-127.580	-0.143	0.021
-457.026	-6.652	-0.238	0.163
-456.011	-60.834	0.117	-0.050
-454.997	104.470	-0.070	0.083
-453.982	54.436	-0.297	-0.287
-452.968	-89.273	-0.073	0.022
-451.953	-106.662	0.165	-0.037
-450.938	-200.000	-0.138	0.001
-449.924	26.115	-0.202	0.169
-448.909	16.067	0.093	0.074
-447.895	176.328	0.055	-0.080
-446.880	-200.000	0.013	0.268
-445.865	96.734	-0.213	0.245
-444.851	-186.729	0.267	-0.004
-443.836	470.461	-0.038	0.085
-442.822	56.260	0.087	-0.084
-441.807	-170.611	0.331	-0.011
-440.792	-200.000	-0.020	0.226
-439.778	-78.706	-0.137	0.047
-438.763	-200.000	0.022	0.200
-437.749	-78.242	-0.154	-0.053
-436.734	-8.886	0.069	-0.047
-435.719	99.841	-0.057	-0.066
-434.705	121.690	-0.100	0.125
-433.690	60.637	-0.162	-0.161
-432.676	12.815	0.179	-0.139
-431.661	103.267	-0.101	-0.119
-430.646	-200.000	0.002	0.027
-429.632	106.686	0.147	-0.175
-428.617	-200.000	-0.015	-0.220
-427.603	720.821	-0.125	0.334
-426.588	-82.825	-0.332	-0.107
-425.573	-121.050	0.317	-0.053
-424.559	800.000	-0.077	0.231
-423.544	-107.616	0.002	-0.000
-422.530	268.093	0.097	-0.171
-421.515	800.000	-0.051	0.201
-420.500	-12.431	0.177	0.116
-419.486	91.695	0.191	0.215
-418.471	273.476	-0.178	0.315
-417.457	210.181	0.021	0.033
-416.442	762.257	-0.076	-0.207
-415.428	147.187	-0.061	0.082
-414.413	-200.000	-0.018	0.174
-413.398	408.837	0.049	-0.104
-412.384	79.242	-0.160	-0.172
-411.369	354.169	0.173	-0.344
-410.355	96.237	0.074	0.085
-409.340	192.596	0.166	0.252
-408.325	145.450	-0.161	0.216
-407.311	-130.568	-0.194	0.026
-406.296	800.000	-0.065	0.191
-405.282	187.819	-0.115	0.172
-404.267	800.000	-0.035	-0.113
-403.252	-18.302	-0.336	-0.210
-402.238	-200.000	-0.044	-0.340
-401.223	800.000	0.094	-0.291
-400.209	411.976	0.121	-0.257
-399.194	-89.220	-0.071	0.021
-398.179	307.035	-0.074	0.137
-397.165	691.279	0.094	0.246
-396.150	52.364	-0.102	-0.098
-395.136	-200.000	0.004	0.058
-394.121	-24.182	-0.232	-0.139
-393.106	-200.000	0.061	-0.552
-392.092	-16.601	0.330	0.209
-391.077	351.665	0.060	-0.119
-390.063	-42.272	0.113	0.058
-389.048	-200.000	-0.039	0.193
-388.033	113.459	0.105	0.127
-387.019	-118.116	0.118	-0.021
-386.004	77.237	-0.309	0.329
-384.990	592.692	-0.038	0.095
-383.975	-68.307	-0.050	0.019
-382.960	-200.000	-0.077	-0.481
-381.946	-162.908	0.414	0.020
-380.931	-200.000	0.058	0.285
-379.917	-64.580	0.144	-0.059
-378.902	800.000	-0.072	-0.265
-377.888	-200.000	-0.033	0.204
-376.873	55.917	0.027	-0.027
-375.858	800.000	0.035	0.140
-374.844	-200.000	-0.029	0.212
-373.829	800.000	-0.091	-0.271
-372.815	-179.755	-0.094	0.002
-371.800	-112.741	0.247	0.049
-370.785	139.951	-0.108	-0.142
-369.771	-200.000	-0.012	0.130
-368.756	-141.577	0.163	-0.016
-367.742	-46.645	0.174	-0.085
-366.727	800.000	-0.028	0.106
-365.712	-200.000	-0.039	0.404
-364.698	81.328	0.142	-0.153
-363.683	-200.000	-0.091	-0.450
-362.669	-200.000	-0.013	-0.237
-361.654	-200.000	0.061	-0.301
-360.639	-91.611	0.446	-0.127
-359.625	-123.787	0.107	0.017
-358.610	-200.000	0.031	0.188
-357.596	65.052	0.112	0.113
-356.581	-200.000	-0.018	-0.341
-355.566	474.372	0.188	0.424
-354.552	-5.209	0.113	-0.077
-353.537	-200.000	0.048	0.289
-352.523	-200.000	-0.017	-0.115
-351.508	-117.907	-0.083	0.015
-350.493	-128.549	-0.243	-0.034
-349.479	159.050	-0.234	-0.324
-348.464	-153.476	0.050	-0.003
-347.450	800.000	-0.035	0.101
-346.435	281.278	-0.033	-0.060
-345.420	3.755	0.234	0.170
-344.406	-49.937	0.236	-0.112
-343.391	-108.684	0.291	0.062
-342.377	800.000	-0.065	0.281
-341.362	36.127	-0.268	-0.235
-340.348	-85.322	0.176	0.055
-339.333	101.759	0.019	-0.022
-338.318	9.658	-0.201	-0.152
-337.304	-200.000	-0.007	0.183
-336.289	800.000	0.063	-0.192
-335.275	-51.379	-0.238	0.111
-334.260	270.524	0.036	-0.064
-333.245	486.992	0.074	0.168
-332.231	-103.673	-0.111	0.026
-331.216	-15.201	-0.210	-0.134
-330.202	-86.888	0.315	0.096
-329.187	-200.000	0.006	0.061
-328.172	800.000	-0.108	0.312
-327.158	350.149	-0.160	-0.316
-326.143	-183.911	-0.242	-0.004
-325.129	151.528	-0.212	-0.289
-324.114	-129.372	0.387	-0.054
-323.099	211.461	-0.057	0.089
-322.085	800.000	0.019	-0.079
-321.070	-68.512	0.121	-0.047
-320.056	26.662	-0.176	-0.147
-319.041	383.657	-0.134	-0.275
-318.026	35.018	0.115	-0.100
-317.012	800.000	-0.030	-0.096
-315.997	46.681	-0.062	-0.057
-314.983	32.644	0.271	-0.233
-313.968	513.408	-0.158	-0.368
-312.953	95.260	-0.038	-0.043
-311.939	503.923	0.022	-0.052
-310.924	133.900	0.140	0.180
-309.910	-70.970	0.228	0.085
-308.895	391.684	-0.090	-0.186
-307.880	422.616	-0.115	0.246
-306.866	-200.000	0.054	0.286
-305.851	610.444	0.046	-0.115
-304.837	-200.000	0.013	-0.084
-303.822	-116.511	-0.107	0.020
-302.807	240.227	-0.117	0.195
-301.793	192.852	0.165	-0.249
-300.778	88.418	-0.129	0.143
-299.764	671.378	-0.079	0.203
-298.749	-80.036	-0.069	-0.023
-297.735	-95.711	-0.156	-0.042
-296.720	292.013	0.082	0.149
-295.705	303.091	-0.029	0.054
-294.691	-93.369	-0.135	0.037
-293.676	-175.513	-0.205	-0.006
-292.662	-27.876	0.346	-0.200
-291.647	800.000	0.066	-0.215
-290.632	193.537	0.010	-0.016
-289.618	800.000	-0.016	-0.057
-288.603	-91.734	-0.379	0.107
-287.589	-84.127	-0.217	-0.069
-286.574	26.489	0.266	0.221
-285.559	-26.722	0.234	-0.136
-284.545	-0.307	0.064	0.045
-283.530	331.850	0.104	0.200
-282.516	-200.000	0.020	0.114
-281.501	-90.620	0.303	0.087
-280.486	-51.779	0.270	-0.125
-279.472	-200.000	-0.023	0.108
-278.457	522.370	-0.040	-0.095
-277.443	38.162	-0.172	-0.153
-276.428	-200.000	0.007	0.103
-275.413	35.790	0.220	0.193
-274.399	478.626	-0.043	0.098
-273.384	-200.000	-0.009	-0.205
-272.370	-96.621	-0.411	-0.108
-271.355	-77.754	0.212	0.073
-270.340	-200.000	0.072	-0.385
-269.326	-58.555	0.483	-0.209
-268.311	-94.244	-0.264	0.072
-267.297	3.890	-0.050	-0.037
-266.282	115.021	-0.166	-0.202
-265.267	800.000	-0.031	0.123
-264.253	-75.778	0.220	-0.078
-263.238	258.215	0.065	0.112
-262.224	-26.454	-0.322	-0.188
-261.209	287.675	0.129	-0.233
-260.195	-95.588	-0.257	0.068
-259.180	-126.116	-0.211	-0.032
-258.165	-198.827	0.072	0.000
-257.151	50.245	-0.038	0.036
-256.136	-135.537	-0.271	-0.032
-255.122	-51.410	0.145	0.067
-254.107	-134.231	0.449	-0.055
-253.092	386.101	-0.067	0.138
-252.078	-28.521	-0.127	0.073
-251.063	-200.000	-0.076	-0.334
-250.049	-141.701	-0.231	-0.023
-249.034	155.548	0.044	-0.060
-248.019	-95.689	-0.305	0.081
-247.005	-200.000	0.056	0.343
-245.990	800.000	-0.032	0.111
-244.976	800.000	-0.028	-0.103
-243.961	281.394	0.123	-0.219
-242.946	38.466	-0.073	-0.065
-241.932	73.809	-0.228	-0.238
-240.917	-67.257	0.397	-0.156
-239.903	-59.554	-0.245	0.105
-238.888	258.245	0.179	0.306
-237.873	40.054	-0.056	-0.050
-236.859	-16.648	-0.376	0.237
-235.844	-60.041	0.134	0.057
-234.830	-148.181	-0.248	-0.020
-233.815	-108.756	0.252	0.054
-232.800	114.693	-0.164	0.199
-231.786	103.895	-0.181	-0.211
-230.771	-12.514	0.298	-0.193
-229.757	309.943	0.140	-0.260
-228.742	434.773	0.163	0.352
-227.727	225.221	0.039	-0.063
-226.713	-48.444	0.255	-0.122
-225.698	-200.000	-0.007	-0.269
-224.684	101.900	0.137	0.159
-223.669	-114.524	-0.203	0.039
-222.655	4.335	-0.087	0.064
-221.640	800.000	0.054	0.187
-220.625	123.850	0.175	0.219
-219.611	337.887	0.122	-0.235
-218.596	-105.832	-0.118	0.027
-217.582	257.111	-0.172	-0.293
-216.567	-83.195	-0.324	-0.103
-215.552	355.511	-0.186	0.367
-214.538	-11.816	0.275	-0.180
-213.523	-200.000	0.017	0.209
-212.509	77.662	-0.170	-0.179
-211.494	-174.190	-0.373	0.011
-210.479	-128.659	0.101	0.014
-209.465	-200.000	0.024	0.266
-208.450	692.863	-0.011	-0.029
-207.436	656.260	0.023	-0.059
-206.421	63.166	-0.298	0.296
-205.406	-23.650	0.158	0.094
-204.392	478.166	-0.060	-0.135
-203.377	234.788	0.057	-0.093
-202.363	86.462	0.405	0.443
-201.348	-200.000	-0.046	0.373
-200.333	-147.639	-0.559	-0.047
-199.319	-31.179	0.237	0.133
-198.304	166.684	0.085	0.120
-197.290	800.000	0.060	0.223
-196.275	-158.224	-0.273	0.016
-195.260	-58.237	0.290	0.125
-194.246	800.000	-0.011	0.046
-193.231	-51.226	-0.129	-0.060
-192.217	-174.525	0.359	0.010
-191.202	81.409	-0.061	0.066
-190.187	-129.765	-0.187	-0.026
-189.173	-89.865	0.388	-0.113
-188.158	-122.898	0.076	0.012
-187.144	106.426	0.333	-0.392
-186.129	-48.264	0.329	-0.157
-185.114	42.024	-0.360	0.325
-184.100	298.918	-0.120	0.220
-183.085	-200.000	0.004	-0.211
-182.071	0.101	0.224	-0.159
-181.056	-200.000	0.022	-0.308
-180.042	-186.343	-0.336	-0.005
-179.027	800.000	0.114	-0.332
-178.012	-200.000	-0.060	0.269
-176.998	28.023	-0.102	-0.085
-175.983	111.711	-0.189	0.227
-174.969	-64.290	-0.269	0.109
-173.954	296.637	0.051	-0.092
-172.939	-91.041	0.324	-0.092
-171.925	800.000	0.015	-0.061
-170.910	63.981	-0.007	-0.007
-169.896	-35.830	-0.140	-0.075
-168.881	-47.306	0.347	-0.168
-167.866	-132.259	0.252	0.032
-166.852	-154.566	-0.167	-0.011
-165.837	165.475	0.050	0.070
-164.823	-157.347	-0.132	-0.008
-163.808	-41.377	0.251	0.128
-162.793	-96.142	-0.131	0.035
-161.779	182.210	0.193	0.282
-160.764	178.208	0.137	0.198
-159.750	800.000	0.055	-0.167
-158.735	-71.839	0.306	0.113
-157.720	-200.000	0.001	-0.447
-156.706	-41.953	0.130	0.066
-155.691	800.000	-0.097	-0.341
-154.677	-32.746	0.050	0.028
-153.662	-200.000	0.025	-0.268
-152.647	-200.000	0.000	-0.029
-151.633	-64.160	-0.063	0.025
-150.618	-200.000	-0.043	-0.203
-149.604	-103.523	-0.045	0.010
-148.589	-140.798	-0.135	0.014
-147.574	336.985	0.123	-0.236
-146.560	-60.698	-0.363	0.152
-145.545	-200.000	0.005	0.249
-144.531	-185.599	-0.194	0.003
-143.516	-200.000	-0.015	-0.401
-142.502	-90.033	-0.196	-0.056
-141.487	534.663	-0.041	-0.097
-140.472	-200.000	0.017	-0.278
-139.458	-94.375	0.122	0.033
-138.443	-73.406	-0.243	-0.088
-137.429	-60.368	-0.382	0.161
-136.414	218.461	-0.053	0.084
-135.399	232.264	-0.121	-0.196
-134.385	-200.000	0.005	-0.125
-133.370	49.689	-0.272	0.254
-132.356	-86.871	0.111	-0.034
-131.341	108.302	-0.182	-0.215
-130.326	100.738	-0.160	0.184
-129.312	-35.506	-0.201	0.108
-128.297	800.000	0.029	-0.111
-127.283	800.000	-0.072	-0.197
-126.268	-200.000	-0.011	0.116
-125.253	-200.000	0.017	0.174
-124.239	222.487	-0.155	0.248
-123.224	-200.000	-0.000	0.037
-122.210	800.000	-0.057	-0.236
-121.195	179.352	0.179	-0.259
-120.180	-83.082	0.127	0.041
-119.166	-60.582	0.128	0.054
-118.151	636.945	0.034	0.086
-117.137	-63.541	0.146	0.059
-116.122	800.000	0.091	-0.294
-115.107	167.424	-0.134	-0.188
-114.093	136.647	-0.205	-0.265
-113.078	66.559	0.108	0.108
-112.064	-35.780	0.253	0.135
-111.049	-6.326	0.202	0.136
-110.034	-53.293	0.070	-0.032
-109.020	-94.451	0.269	-0.073
-108.005	-170.866	0.115	-0.004
-106.991	800.000	-0.050	0.201
-105.976	800.000	-0.054	-0.159
-104.962	-137.131	0.108	-0.012
-103.947	-158.768	0.053	-0.003
-102.932	458.322	0.057	0.125
-101.918	700.768	0.041	-0.108
-100.903	-1.534	0.110	-0.077
-99.889	-200.000	-0.029	0.384
-98.874	166.541	0.074	-0.104
-97.859	-92.337	0.253	0.070
-96.845	-119.429	-0.346	-0.059
-95.830	-2.052	0.105	-0.073
-94.816	185.696	0.104	0.153
-93.801	-119.543	-0.246	0.042
-92.786	125.828	0.063	-0.078
-91.772	212.915	-0.016	0.024
-90.757	102.594	-0.198	-0.230
-89.743	800.000	-0.030	-0.125
-88.728	-189.458	-0.201	0.002
-87.713	-200.000	-0.006	0.173
-86.699	-43.996	-0.125	-0.062
-85.684	589.362	-0.037	-0.091
-84.670	800.000	-0.065	0.241
-83.655	46.328	0.149	0.137
-82.640	-200.000	-0.027	0.478
-81.626	-105.438	-0.107	-0.024
-80.611	-32.971	0.546	0.300
-79.597	120.547	-0.217	0.267
-78.582	-80.217	-0.036	-0.012
-77.567	-46.985	0.270	-0.130
-76.553	178.059	0.020	0.029
-75.538	35.557	0.056	-0.049
-74.524	2.158	-0.079	0.057
-73.509	234.866	0.085	0.139
-72.494	-200.000	-0.007	-0.174
-71.480	17.476	0.252	-0.198
-70.465	-150.436	-0.126	0.010
-69.451	-50.320	0.193	-0.090
-68.436	-200.000	-0.073	0.546
-67.422	-90.351	-0.160	-0.046
-66.407	261.845	0.126	-0.215
-65.392	800.000	0.078	0.256
-64.378	133.358	0.133	-0.170
-63.363	-92.984	0.059	-0.016
-62.349	80.886	0.262	0.279
-61.334	53.404	-0.958	-0.907
-60.319	-31.426	0.496	0.276
-59.305	-200.000	-0.046	-1.020
-58.290	198.202	0.428	0.647
-57.276	800.000	0.364	1.453
-56.261	-200.000	98.298	594.374
-55.246	608.140	1435.211	3536.268
-54.232	181.687	2642.189	3839.747
-53.217	119.365	2194.080	2681.292
-52.203	45.028	1637.603	1489.394
-51.188	36.663	1370.703	1195.201
-50.173	33.375	1328.390	1138.529
-49.159	56.591	1376.498	1322.138
-48.144	59.374	1393.948	1355.813
-47.130	36.910	1350.092	1178.544
-46.115	33.405	1332.553	1142.092
-45.100	33.217	1327.160	1136.298
-44.086	33.101	1324.853	1133.580
-43.071	33.003	1322.457	1130.899
-42.057	32.947	1320.525	1128.871
-41.042	33.046	1318.758	1127.904
-40.027	33.039	1317.447	1126.697
-39.013	33.100	1315.920	1125.711
-37.998	33.094	1313.745	1123.770
-36.984	33.248	1311.405	1122.637
-35.969	33.152	1310.236	1121.020
-34.954	33.215	1308.456	1119.830
-33.940	33.320	1307.113	1119.254
-32.925	33.355	1305.380	1117.935
-31.911	33.346	1303.945	1116.608
-30.896	33.350	1302.409	1115.269
-29.881	33.357	1301.233	1114.259
-28.867	33.333	1300.053	1113.066
-27.852	33.258	1298.365	1111.134
-26.838	33.315	1296.898	1110.167
-25.823	33.366	1295.531	1109.255
-24.809	33.302	1293.971	1107.497
-23.794	33.312	1292.538	1106.291
-22.779	33.314	1291.206	1105.113
-21.765	33.217	1290.790	1104.150
-20.750	33.409	1288.544	1103.303
-19.736	33.201	1287.842	1101.445
-18.721	33.091	1286.717	1099.802
-17.706	33.154	1285.408	1099.006
-16.692	33.164	1284.277	1098.051
-15.677	33.071	1283.419	1096.738
-14.663	33.252	1282.058	1096.581
-13.648	33.193	1281.068	1095.346
-12.633	33.056	1280.039	1093.631
-11.619	33.007	1279.361	1092.726
-10.604	33.012	1278.689	1092.136
-9.590	33.041	1277.355	1091.119
-8.575	33.183	1276.249	1090.951
-7.560	33.151	1275.433	1090.027
-6.546	33.186	1274.346	1089.254
-5.531	33.004	1273.715	1087.627
-4.517	33.089	1273.353	1087.760
-3.502	33.156	1271.816	1086.791
-2.487	33.212	1270.947	1086.328
-1.473	33.092	1267.735	1082.853
-0.458	32.033	1253.066	1064.279
0.556	30.525	1233.950	1024.446
1.571	26.419	1239.313	1006.022
2.586	24.943	1254.291	1009.772
3.600	23.408	1241.427	990.757
4.615	17.504	1168.111	901.012
5.629	8.925	1091.740	799.423
6.644	4.867	1071.697	764.785
7.659	4.466	1069.228	760.989
8.673	4.400	1067.686	759.504
9.688	4.378	1066.353	758.379
10.702	4.929	1065.363	760.297
11.717	10.620	1073.330	793.819
12.731	18.843	1085.076	842.945
13.746	22.234	1088.351	862.066
14.761	22.059	1087.850	860.736
15.775	21.266	1085.756	855.125
16.790	20.142	1083.944	848.124
17.804	19.467	1082.569	843.677
18.819	19.273	1081.504	841.822
19.834	19.238	1080.357	840.684
20.848	19.040	1080.023	839.383
21.863	18.942	1079.021	838.054
22.877	18.780	1078.425	836.726
23.892	18.747	1077.652	835.894
24.907	18.567	1077.212	834.603
25.921	18.750	1075.251	833.897
26.936	18.608	1074.582	832.615
27.950	18.780	1072.778	831.976
28.965	18.834	1071.468	831.151
29.980	18.967	1070.207	830.739
30.994	19.003	1069.210	830.065
32.009	19.067	1068.329	829.619
33.023	19.012	1067.279	828.465
34.038	18.944	1066.061	827.119
35.053	18.715	1065.187	825.266
36.067	18.700	1064.316	824.447
37.082	18.767	1063.361	823.955
38.096	18.907	1062.726	824.063
39.111	18.986	1062.022	823.819
40.126	18.766	1060.547	821.551
41.140	18.416	1059.297	818.840
42.155	18.408	1058.058	817.768
43.169	18.324	1056.837	816.355
44.184	18.358	1055.731	815.587
45.199	18.422	1054.535	814.896
46.213	18.551	1054.044	815.059
47.228	18.667	1053.552	815.158
48.242	18.743	1052.134	814.348
49.257	18.699	1051.150	813.309
50.271	18.887	1050.271	813.442
51.286	18.878	1050.177	813.257
52.301	18.851	1048.771	811.967
53.315	18.678	1047.867	810.379
54.330	18.592	1045.864	808.353
55.344	18.622	1045.371	808.045
56.359	18.582	1044.659	807.231
57.374	18.563	1043.577	806.235
58.388	18.412	1042.523	804.642
59.403	18.240	1042.048	803.394
60.417	18.384	1040.952	803.155
61.432	18.233	1040.510	802.033
62.447	18.115	1040.160	801.142
63.461	18.287	1038.563	800.644
64.476	18.049	1037.900	798.949
65.490	18.042	1037.227	798.327
66.505	18.161	1036.785	798.475
67.520	18.184	1035.665	797.646
68.534	18.319	1034.994	797.691
69.549	18.174	1034.515	796.575
70.563	17.983	1033.663	794.961
71.578	17.962	1032.701	794.053
72.593	18.033	1031.424	793.328
73.607	17.917	1031.088	792.461
74.622	18.122	1030.220	792.674
75.636	18.040	1029.825	791.919
76.651	18.040	1029.248	791.408
77.666	18.109	1028.528	791.103
78.680	18.178	1027.649	790.674
79.695	18.212	1026.863	790.157
80.709	18.310	1026.538	790.290
81.724	18.401	1025.864	790.120
82.739	18.565	1025.363	790.422
83.753	18.847	1024.935	791.319
84.768	18.996	1023.819	791.073
85.782	19.073	1023.559	791.158
86.797	19.031	1022.328	789.943
87.812	18.852	1021.334	788.285
88.826	18.898	1020.084	787.462
89.841	18.961	1019.416	787.166
90.855	19.045	1018.108	786.469
91.870	19.059	1017.838	786.252
92.884	19.045	1016.879	785.381
93.899	18.983	1016.192	784.497
94.914	19.260	1014.799	784.613
95.928	19.149	1014.142	783.533
96.943	18.987	1013.127	781.942
97.957	18.891	1012.495	780.948
98.972	18.985	1011.270	780.360
99.987	19.043	1010.445	779.920
101.001	18.917	1009.626	778.646
102.016	18.879	1008.672	777.669
103.030	19.040	1008.149	777.927
104.045	18.883	1007.296	776.490
105.060	18.786	1006.580	775.430
106.074	18.549	1004.940	773.030
107.089	18.316	1003.633	770.908
108.103	18.277	1003.253	770.370
109.118	18.176	1002.010	768.896
110.133	18.134	1001.318	768.108
111.147	18.163	1000.175	767.294
112.162	18.314	999.371	767.284
113.176	18.387	998.990	767.250
114.191	18.630	998.099	767.585
115.206	18.406	997.380	765.963
116.220	18.443	996.189	765.146
117.235	18.321	995.410	763.938
118.249	18.290	995.079	763.478
119.264	18.289	993.905	762.503
120.279	18.227	993.089	761.533
121.293	18.163	991.858	760.239
122.308	18.128	990.970	759.335
123.322	18.051	989.975	758.164
124.337	17.988	988.861	756.965
125.352	18.022	987.665	756.134
126.366	18.139	986.832	755.946
127.381	18.180	986.081	755.485
128.395	18.177	985.083	754.641
129.410	18.142	984.297	753.815
130.424	18.308	983.383	753.782
131.439	18.358	983.036	753.668
132.454	18.573	982.121	753.846
133.468	18.473	981.284	752.697
134.483	18.333	980.550	751.455
135.497	18.523	979.513	751.424
136.512	18.510	978.707	750.683
137.527	18.576	977.923	750.304
138.541	18.571	977.021	749.524
139.556	18.559	976.853	749.275
140.570	18.753	976.003	749.404
141.585	18.833	975.375	749.207
142.600	19.005	974.349	749.098
143.614	19.050	973.915	748.898
144.629	19.078	973.202	748.402
145.643	18.961	971.963	746.874
146.658	18.749	970.865	745.047
147.673	18.664	969.750	743.757
148.687	18.637	968.510	742.624
149.702	18.454	968.021	741.390
150.716	18.441	967.269	740.693
151.731	18.613	966.202	740.551
152.746	18.605	965.572	739.970
153.760	18.642	965.049	739.663
154.775	18.716	964.493	739.488
155.789	18.893	963.491	739.416
156.804	18.808	962.820	738.474
157.819	18.852	962.664	738.478
158.833	18.983	962.214	738.627
159.848	19.138	960.951	738.260
160.862	19.060	959.902	737.053
161.877	18.703	958.710	734.543
162.892	18.464	957.457	732.498
163.906	18.378	957.007	731.720
164.921	18.460	956.049	731.276
165.935	18.637	955.078	731.223
166.950	18.886	954.084	731.457
167.964	18.670	953.892	730.327
168.979	18.520	952.667	728.686
169.994	18.605	951.761	728.290
171.008	18.747	951.254	728.440
172.023	19.020	950.640	729.063
173.037	19.020	950.109	728.591
174.052	18.983	948.830	727.387
175.067	18.545	948.490	725.212
176.081	18.415	947.710	724.000
177.096	18.581	947.059	724.142
178.110	18.499	946.609	723.387
179.125	18.652	945.646	723.233
180.140	18.722	945.520	723.366
181.154	18.815	945.096	723.368
182.169	19.012	944.344	723.560
183.183	19.003	944.348	723.457
184.198	19.096	943.098	722.827
185.213	19.056	942.694	722.287
186.227	19.019	942.106	721.616
187.242	19.306	941.336	722.168
188.256	19.408	940.604	721.968
189.271	19.340	939.725	720.946
190.286	19.064	938.410	718.719
191.300	18.478	938.075	715.951
192.315	18.381	937.379	714.954
193.329	18.541	936.881	715.178
194.344	18.727	936.095	715.289
195.359	18.881	935.599	715.488
196.373	18.890	935.169	715.134
197.388	19.188	934.889	716.096
198.402	19.256	934.716	716.184
199.417	19.383	933.555	715.754
200.432	19.486	933.335	715.950
201.446	19.679	932.658	716.168
202.461	19.627	932.500	715.769
203.475	19.511	931.640	714.566
204.490	19.243	930.944	712.860
205.504	19.208	929.659	711.669
206.519	19.182	928.807	710.845
207.534	19.037	928.785	710.165
208.548	19.067	927.876	709.531
209.563	19.266	927.052	709.658
210.577	19.269	926.196	708.954
211.592	19.549	925.589	709.576
212.607	19.569	925.149	709.260
213.621	19.485	924.404	708.280
214.636	19.390	923.403	707.061
215.650	19.483	922.851	706.956
216.665	19.657	922.199	707.106
217.680	19.606	921.812	706.540
218.694	19.741	921.003	706.407
219.709	19.568	920.457	705.220
220.723	19.581	919.628	704.578
221.738	19.436	918.986	703.432
222.753	19.541	918.436	703.377
223.767	19.646	917.887	703.322
224.782	19.719	917.449	703.218
225.796	19.870	916.798	703.273
226.811	19.637	916.313	701.890
227.826	19.476	915.398	700.474
228.840	19.481	914.647	699.859
229.855	19.469	913.737	699.049
230.869	19.449	912.679	698.098
231.884	19.458	912.184	697.695
232.899	19.289	911.609	696.511
233.913	19.112	910.979	695.253
234.928	19.190	910.417	695.078
235.942	19.231	909.512	694.491
236.957	19.154	908.985	693.717
237.972	19.363	908.204	693.899
238.986	19.313	907.377	693.006
240.001	19.398	906.918	692.935
241.015	19.241	906.531	691.948
242.030	19.499	905.983	692.504
243.045	19.518	905.383	692.060
244.059	19.470	904.964	691.486
245.074	19.575	904.212	691.269
246.088	19.810	903.579	691.667
247.103	19.745	903.179	691.036
248.117	19.946	902.914	691.578
249.132	20.251	902.751	692.607
250.147	20.381	901.886	692.402
251.161	20.466	902.003	692.768
252.176	20.479	900.585	691.671
253.190	20.461	900.045	691.123
254.205	20.610	899.410	691.168
255.220	20.491	898.733	690.114
256.234	20.448	898.275	689.530
257.249	20.497	897.584	689.132
258.263	20.330	896.992	687.957
259.278	20.425	896.238	687.694
260.293	20.476	896.251	687.845
261.307	20.661	895.038	687.582
262.322	20.657	894.423	687.033
263.336	20.609	893.893	686.376
264.351	20.614	893.172	685.782
265.366	20.633	892.765	685.486
266.380	20.541	892.102	684.551
267.395	20.532	891.354	683.881
268.409	20.265	890.663	682.240
269.424	20.470	889.793	682.319
270.439	20.353	888.755	681.003
271.453	20.316	888.140	680.330
272.468	20.238	887.724	679.642
273.482	20.377	887.057	679.619
274.497	20.298	886.730	678.998
275.512	20.373	885.750	678.479
276.526	20.368	885.601	678.288
277.541	20.464	885.063	678.189
278.555	20.646	884.472	678.385
279.570	20.621	884.005	677.869
280.585	20.663	883.384	677.497
281.599	20.512	882.429	676.117
282.614	20.501	881.478	675.286
283.628	20.440	881.117	674.712
284.643	20.382	880.573	674.010
285.657	20.453	879.724	673.577
286.672	20.486	879.268	673.298
287.687	20.453	878.509	672.528
288.701	20.484	878.406	672.509
289.716	20.596	877.284	672.025
290.730	20.573	876.718	671.442
291.745	20.433	876.717	670.842
292.760	20.599	875.676	670.625
293.774	20.879	874.836	671.004
294.789	20.821	874.132	670.180
295.803	20.627	873.206	668.663
296.818	20.543	872.940	668.077
297.833	20.610	872.124	667.652
298.847	20.532	872.143	667.308
299.862	20.602	871.785	667.243
300.876	20.691	870.913	666.857
301.891	20.979	869.997	667.200
302.906	21.002	870.094	667.305
303.920	21.150	869.314	667.212
304.935	21.149	869.000	666.910
305.949	21.046	868.236	665.872
306.964	20.969	867.399	664.877
307.979	21.011	866.777	664.498
308.993	20.970	866.219	663.859
310.008	21.158	865.755	664.160
311.022	20.979	865.345	663.104
312.037	20.947	864.179	662.030
313.052	20.677	863.635	660.532
314.066	20.635	863.052	659.867
315.081	20.685	862.639	659.684
316.095	20.689	862.055	659.192
317.110	20.651	861.599	658.641
318.125	20.621	861.072	658.067
319.139	20.613	860.569	657.595
320.154	20.476	860.370	656.867
321.168	20.605	859.675	656.762
322.183	20.780	858.749	656.657
323.197	20.770	858.484	656.359
324.212	20.925	857.791	656.357
325.227	20.681	857.400	655.082
326.241	20.703	856.851	654.688
327.256	20.790	856.121	654.396
328.270	20.832	855.411	653.954
329.285	20.587	855.139	652.767
330.300	20.737	854.103	652.483
331.314	20.731	853.629	652.039
332.329	20.934	853.414	652.580
333.343	20.952	853.433	652.602
334.358	20.994	852.924	652.313
335.373	21.020	852.581	652.088
336.387	20.994	852.028	651.511
337.402	21.224	851.707	652.069
338.416	21.353	851.538	652.363
339.431	21.524	850.986	652.520
340.446	21.535	850.512	652.139
341.460	21.459	850.741	651.975
342.475	21.610	850.035	651.937
343.489	21.697	849.441	651.747
344.504	21.648	849.386	651.464
345.519	21.723	848.812	651.248
346.533	21.639	848.201	650.409
347.548	21.387	847.579	648.938
348.562	21.309	846.565	647.816
349.577	21.287	845.730	647.040
350.592	21.159	845.007	645.955
351.606	21.200	844.601	645.737
352.621	21.066	843.846	644.609
353.635	21.195	843.223	644.553
354.650	21.322	842.820	644.655
355.665	21.375	842.389	644.464
356.679	21.428	841.487	643.910
357.694	21.446	841.327	643.800
358.708	21.421	840.389	642.932
359.723	21.363	839.953	642.330
360.738	21.546	839.145	642.326
361.752	21.467	838.810	641.721
362.767	21.630	838.175	641.779
363.781	21.844	837.962	642.340
364.796	21.879	837.584	642.123
365.810	21.932	837.343	642.076
366.825	22.220	836.623	642.519
367.840	21.916	836.260	641.071
368.854	21.802	835.543	640.050
369.869	21.721	835.242	639.467
370.883	21.904	834.525	639.530
371.898	21.966	834.320	639.539
372.913	21.967	834.128	639.341
373.927	21.904	833.250	638.383
374.942	21.882	832.929	638.001
375.956	22.089	832.159	638.107
376.971	22.128	831.815	637.926
377.986	22.222	831.868	638.253
379.000	22.324	831.250	638.091
380.015	22.094	831.057	637.051
381.029	22.090	830.278	636.384
382.044	22.276	829.382	636.316
383.059	22.176	829.021	635.622
384.073	22.111	828.175	634.681
385.088	21.896	827.539	633.362
386.102	21.798	826.836	632.412
387.117	21.706	826.082	631.448
388.132	21.840	825.566	631.480
389.146	21.880	825.372	631.422
390.161	22.017	825.045	631.607
391.175	22.182	824.405	631.655
392.190	22.093	823.336	630.461
393.205	21.777	823.499	629.394
394.219	21.859	822.885	629.165
395.234	21.890	822.087	628.608
396.248	21.729	821.861	627.804
397.263	21.530	821.478	626.743
398.278	21.541	820.923	626.305
399.292	21.541	820.665	626.051
400.307	21.705	820.227	626.249
401.321	21.641	819.724	625.581
402.336	21.961	818.794	625.955
403.350	22.010	819.021	626.249
404.365	22.111	818.435	626.108
405.380	22.283	817.842	626.211
406.394	22.395	817.513	626.301
407.409	22.392	817.330	626.093
408.423	22.567	816.890	626.323
409.438	22.344	816.828	625.428
410.453	22.449	816.492	625.488
411.467	22.540	816.157	625.502
412.482	22.529	815.500	624.902
413.496	22.707	815.038	625.123
414.511	22.774	814.466	624.868
415.526	22.491	813.921	623.394
416.540	22.485	813.640	623.102
417.555	22.642	812.824	622.976
418.569	22.548	812.559	622.385
419.584	22.613	812.495	622.510
420.599	22.421	811.934	621.348
421.613	161.133	1370.247	1792.493
422.628	140.315	1451.617	1792.613
