DTS Sentinel unit serial number:	SN413079Multiplexer serial number:	ORYXHardware model number:	OX4-SRSoftware version number:	ORYX F/W v4.00 Oryx Data Collector v3.7.2.0data status	okinstallation	princeton_trtdifferential loss correction	single-endedforward channel	channel 1reverse channel	N/Adate	2019/09/14time	07:38:35forward acquisition time	60.00reverse acquisition time	0.00gamma	496.2192k internal	0.2336k external	0.2336temperature offset calibration	1.0077default loss term (dB/km)	0.3790temperature slope calibration	1.0000multiplexer offset coefficient	1.0000multiplexer slope coefficient	1.0000fibre end	0.00T internal ref (°C)	26.25T ext. ref 1 (°C)	3.47T ext. ref 2 (°C)	21.69length (m)	temperature (°C)	Stokes	anti-Stokes-747.200	-104.872	0.250	-0.058
-746.185	-178.510	-0.133	0.003
-745.171	464.633	-0.014	-0.032
-744.156	397.476	-0.232	0.487
-743.142	-85.265	0.347	0.109
-742.127	-45.969	-0.224	-0.111
-741.112	47.667	0.110	-0.103
-740.098	-41.573	-0.361	0.187
-739.083	372.034	0.058	0.118
-738.069	-200.000	-0.012	0.142
-737.054	71.151	-0.071	-0.074
-736.039	-50.012	-0.177	-0.084
-735.025	-10.823	0.233	0.155
-734.010	800.000	0.039	0.160
-732.996	-104.457	-0.078	0.018
-731.981	-110.135	-0.389	-0.082
-730.966	-128.523	-0.307	0.044
-729.952	-200.000	-0.010	-0.382
-728.937	64.346	0.208	0.210
-727.923	-61.782	-0.186	0.078
-726.908	-115.185	-0.087	0.017
-725.894	-6.306	-0.135	0.092
-724.879	140.865	0.175	-0.232
-723.864	-61.667	-0.051	0.022
-722.850	147.667	-0.106	0.143
-721.835	-152.639	0.122	0.009
-720.821	435.503	0.114	-0.250
-719.806	-200.000	0.031	-0.215
-718.791	-3.632	0.162	-0.113
-717.777	-83.941	-0.172	-0.055
-716.762	-200.000	0.036	-0.229
-715.748	184.079	0.223	0.331
-714.733	272.171	-0.119	0.211
-713.718	-40.238	0.117	-0.061
-712.704	172.556	-0.128	0.185
-711.689	298.265	-0.225	-0.415
-710.675	-171.953	-0.216	-0.007
-709.660	124.205	-0.068	-0.085
-708.645	-146.643	-0.175	-0.015
-707.631	-200.000	-0.021	-0.184
-706.616	173.747	-0.059	0.085
-705.602	35.338	0.196	0.172
-704.587	-12.634	-0.092	-0.060
-703.572	-200.000	-0.034	0.185
-702.558	-99.818	-0.301	0.075
-701.543	157.925	-0.104	-0.144
-700.529	278.127	0.116	0.208
-699.514	-200.000	-0.033	-0.385
-698.499	19.117	-0.229	-0.184
-697.485	-200.000	-0.052	-0.393
-696.470	-147.806	0.153	-0.013
-695.456	147.591	-0.157	-0.213
-694.441	348.683	-0.213	-0.421
-693.426	-114.936	0.102	-0.019
-692.412	-188.727	-0.235	-0.003
-691.397	-200.000	-0.021	-0.124
-690.383	-107.476	0.048	-0.011
-689.368	24.912	-0.337	-0.280
-688.354	-200.000	0.005	0.075
-687.339	6.925	-0.306	-0.228
-686.324	-85.421	0.460	0.144
-685.310	-200.000	0.003	0.085
-684.295	-200.000	-0.034	-0.152
-683.281	469.266	0.062	0.138
-682.266	481.499	-0.111	-0.252
-681.251	336.893	-0.103	0.199
-680.237	-62.617	0.086	0.036
-679.222	-49.431	-0.093	0.044
-678.208	108.241	0.109	0.130
-677.193	800.000	0.026	-0.089
-676.178	-177.429	-0.269	0.007
-675.164	-88.318	-0.230	-0.069
-674.149	-200.000	0.030	0.475
-673.135	548.610	0.142	0.341
-672.120	-200.000	-0.009	-0.252
-671.105	140.222	0.129	-0.170
-670.091	-200.000	-0.008	-0.201
-669.076	-67.244	0.158	-0.062
-668.062	-4.285	-0.255	-0.177
-667.047	58.293	-0.258	0.253
-666.032	800.000	-0.157	-0.498
-665.018	-12.257	0.364	0.238
-664.003	-127.324	0.168	-0.025
-662.989	487.033	0.090	0.206
-661.974	253.705	-0.141	0.241
-660.959	382.483	0.095	-0.196
-659.945	-107.781	0.316	-0.069
-658.930	513.529	-0.070	0.163
-657.916	800.000	0.041	0.161
-656.901	34.087	-0.131	0.114
-655.886	-109.567	0.130	-0.028
-654.872	-43.275	0.136	-0.069
-653.857	-72.801	0.169	-0.062
-652.843	800.000	-0.114	-0.375
-651.828	-200.000	0.020	0.314
-650.814	92.338	0.139	-0.156
-649.799	800.000	-0.057	-0.233
-648.784	201.383	-0.050	0.076
-647.770	-117.909	-0.173	-0.031
-646.755	191.242	-0.235	-0.354
-645.741	21.452	-0.173	0.141
-644.726	-117.328	-0.233	0.042
-643.711	-34.856	-0.123	-0.067
-642.697	-75.233	-0.276	-0.098
-641.682	-200.000	-0.002	-0.126
-640.668	82.154	0.225	0.244
-639.653	-91.322	0.300	-0.086
-638.638	-137.683	0.210	0.024
-637.624	249.851	0.072	-0.123
-636.609	-20.745	-0.125	-0.077
-635.595	214.564	-0.298	-0.472
-634.580	-200.000	0.050	-0.288
-633.565	251.755	0.118	0.201
-632.551	800.000	-0.046	-0.137
-631.536	722.400	-0.166	0.442
-630.522	128.732	0.075	-0.096
-629.507	-168.515	0.247	-0.009
-628.492	800.000	-0.053	0.215
-627.478	-95.090	0.114	0.031
-626.463	-200.000	-0.034	0.190
-625.449	-149.632	-0.133	0.010
-624.434	105.224	-0.155	-0.184
-623.419	800.000	-0.023	-0.098
-622.405	354.290	-0.129	0.256
-621.390	-10.003	-0.281	-0.187
-620.376	-200.000	0.004	-0.113
-619.361	163.679	0.160	-0.225
-618.346	294.220	0.169	0.308
-617.332	800.000	-0.040	-0.123
-616.317	-200.000	0.015	-0.244
-615.303	800.000	-0.069	0.216
-614.288	-173.737	-0.274	0.008
-613.273	64.059	0.126	0.126
-612.259	-107.411	-0.223	0.049
-611.244	44.583	0.301	0.277
-610.230	-135.333	0.266	0.032
-609.215	-7.625	0.190	-0.128
-608.201	155.137	0.105	-0.144
-607.186	-82.792	0.166	-0.054
-606.171	-154.244	-0.384	-0.026
-605.157	25.668	-0.082	-0.069
-604.142	-52.667	-0.160	0.074
-603.128	-200.000	0.003	0.108
-602.113	-152.403	-0.079	-0.006
-601.098	193.834	-0.106	-0.160
-600.084	168.154	-0.121	-0.172
-599.069	-45.033	-0.146	-0.073
-598.055	242.188	0.224	-0.375
-597.040	-108.314	0.163	0.035
-596.025	447.660	-0.079	-0.173
-595.011	-200.000	0.004	0.036
-593.996	464.022	0.147	-0.328
-592.982	-200.000	-0.002	0.217
-591.967	-143.097	-0.264	-0.025
-590.952	2.182	-0.204	-0.147
-589.938	104.843	0.206	0.242
-588.923	-200.000	0.054	-0.259
-587.909	-195.032	-0.237	-0.002
-586.894	-92.559	-0.137	-0.039
-585.879	800.000	-0.048	-0.146
-584.865	-87.546	-0.280	-0.085
-583.850	114.926	-0.189	-0.231
-582.836	268.881	0.155	0.272
-581.821	703.971	-0.081	-0.212
-580.806	229.506	0.135	0.219
-579.792	-50.179	-0.032	-0.015
-578.777	12.104	0.270	-0.207
-577.763	-44.565	-0.174	0.087
-576.748	-80.230	-0.220	-0.073
-575.733	-200.000	-0.350	-0.001
-574.719	4.838	-0.163	0.119
-573.704	-123.205	0.084	-0.013
-572.690	-111.642	0.165	0.033
-571.675	244.596	-0.083	0.138
-570.661	142.330	0.166	0.219
-569.646	800.000	-0.065	-0.262
-568.631	-200.000	-0.028	0.165
-567.617	415.952	0.097	0.205
-566.602	-55.448	-0.246	0.110
-565.588	-40.760	0.290	-0.150
-564.573	-139.576	0.326	-0.035
-563.558	-111.783	-0.059	0.012
-562.544	437.289	-0.063	0.138
-561.529	-107.183	0.099	0.022
-560.515	800.000	0.078	-0.278
-559.500	163.250	0.130	0.183
-558.485	226.563	-0.083	-0.134
-557.471	-200.000	-0.051	-0.301
-556.456	235.285	0.236	-0.389
-555.442	-123.633	0.416	0.066
-554.427	-114.017	0.079	-0.015
-553.412	53.702	0.167	-0.160
-552.398	-18.722	-0.117	0.072
-551.383	-75.765	-0.289	-0.102
-550.369	-177.239	-0.195	-0.005
-549.354	1.039	0.271	0.194
-548.339	32.428	-0.091	-0.078
-547.325	-107.175	-0.189	-0.042
-546.310	60.062	-0.230	0.226
-545.296	800.000	0.076	0.251
-544.281	-140.766	-0.475	-0.049
-543.266	-200.000	-0.003	-0.027
-542.252	-200.000	0.035	0.240
-541.237	-125.120	0.250	-0.038
-540.223	-13.560	0.301	0.194
-539.208	289.420	-0.045	-0.082
-538.193	488.520	-0.065	-0.147
-537.179	75.432	0.087	0.092
-536.164	123.575	-0.241	-0.301
-535.150	-200.000	0.015	0.230
-534.135	-72.882	-0.259	0.095
-533.121	132.337	0.168	-0.216
-532.106	-73.840	0.194	-0.070
-531.091	-38.049	-0.191	-0.101
-530.077	-55.120	0.110	0.050
-529.062	800.000	0.112	0.322
-528.048	622.385	-0.109	-0.274
-527.033	-51.629	0.067	0.031
-526.018	800.000	-0.028	0.081
-525.004	-200.000	-0.028	0.258
-523.989	62.881	-0.179	0.179
-522.975	303.427	0.015	0.027
-521.960	554.751	0.125	0.300
-520.945	10.327	0.197	-0.149
-519.931	-158.039	0.118	-0.007
-518.916	398.411	-0.041	-0.086
-517.902	-200.000	0.017	-0.377
-516.887	-43.326	-0.068	0.034
-515.872	-200.000	-0.061	-0.317
-514.858	34.351	-0.126	0.110
-513.843	139.496	-0.066	-0.087
-512.829	75.805	0.139	-0.146
-511.814	-200.000	-0.073	-0.366
-510.799	12.173	0.051	-0.039
-509.785	-117.703	0.042	0.008
-508.770	-59.135	-0.290	0.124
-507.756	-70.256	-0.219	0.083
-506.741	-47.011	0.185	-0.090
-505.726	800.000	0.083	0.232
-504.712	-139.951	0.110	0.012
-503.697	50.647	0.096	0.090
-502.683	-61.043	-0.105	0.044
-501.668	800.000	0.058	0.181
-500.653	-107.787	-0.050	-0.011
-499.639	-137.507	-0.227	0.025
-498.624	-6.680	0.298	-0.201
-497.610	-200.000	0.023	-0.199
-496.595	-35.110	0.321	-0.174
-495.581	24.789	0.205	-0.169
-494.566	800.000	-0.053	-0.218
-493.551	402.460	0.120	-0.250
-492.537	-51.346	-0.239	0.111
-491.522	-52.661	0.283	0.130
-490.508	-44.116	-0.105	-0.052
-489.493	-165.984	-0.271	-0.011
-488.478	-32.373	0.209	0.116
-487.464	178.925	-0.138	0.201
-486.449	253.547	-0.124	-0.211
-485.435	21.529	0.163	0.132
-484.420	-200.000	0.007	0.142
-483.405	495.820	0.125	0.286
-482.391	-0.384	0.297	-0.210
-481.376	-200.000	-0.002	0.145
-480.362	-200.000	-0.009	0.097
-479.347	71.525	-0.044	-0.046
-478.332	800.000	0.091	0.259
-477.318	-74.097	0.063	-0.023
-476.303	-195.675	0.429	0.003
-475.289	447.044	0.118	-0.258
-474.274	-56.895	-0.281	0.123
-473.259	344.369	-0.156	0.305
-472.245	-143.279	-0.149	0.014
-471.230	800.000	0.044	-0.164
-470.216	-78.911	-0.138	-0.047
-469.201	244.836	0.195	0.326
-468.186	-110.850	-0.183	0.037
-467.172	800.000	0.037	0.115
-466.157	55.751	-0.093	-0.090
-465.143	800.000	-0.123	-0.363
-464.128	20.027	-0.106	-0.085
-463.113	183.617	-0.099	-0.145
-462.099	-200.000	-0.010	-0.230
-461.084	30.075	-0.332	-0.281
-460.070	618.824	-0.014	-0.035
-459.055	-41.463	0.213	0.109
-458.040	800.000	0.027	0.096
-457.026	47.216	-0.111	-0.103
-456.011	56.505	-0.114	-0.110
-454.997	-200.000	0.033	-0.165
-453.982	240.635	0.145	-0.240
-452.968	-7.696	0.263	0.176
-451.953	171.198	0.125	0.179
-450.938	202.367	0.100	0.153
-449.924	5.821	0.173	-0.127
-448.909	-200.000	0.051	0.368
-447.895	-200.000	0.011	0.194
-446.880	-200.000	0.010	0.105
-445.865	800.000	0.063	0.239
-444.851	-32.909	0.250	-0.138
-443.836	50.245	-0.058	-0.054
-442.822	-79.385	0.407	-0.137
-441.807	-77.617	-0.166	0.057
-440.792	-0.149	-0.247	0.175
-439.778	800.000	-0.054	-0.222
-438.763	-166.268	-0.296	0.012
-437.749	75.044	0.262	-0.274
-436.734	-59.118	0.134	0.057
-435.719	-200.000	-0.055	0.361
-434.705	67.034	-0.076	-0.077
-433.690	-44.312	0.190	-0.094
-432.676	-88.286	-0.270	-0.080
-431.661	48.117	0.212	-0.197
-430.646	-68.968	0.149	-0.057
-429.632	-200.000	0.028	-0.165
-428.617	154.903	0.241	0.329
-427.603	-115.231	-0.238	-0.045
-426.588	547.882	0.078	-0.186
-425.573	-89.967	0.288	0.083
-424.559	800.000	0.011	0.033
-423.544	-71.475	-0.329	0.122
-422.530	92.507	-0.172	-0.193
-421.515	-21.502	0.088	0.053
-420.500	800.000	-0.099	0.301
-419.486	-185.622	-0.216	0.003
-418.471	-54.645	0.337	-0.151
-417.457	-5.000	0.166	0.114
-416.442	446.068	-0.057	-0.124
-415.428	343.713	-0.133	-0.259
-414.413	-137.806	0.101	-0.011
-413.398	72.902	0.135	0.140
-412.384	-8.258	0.095	0.064
-411.369	-68.637	-0.095	0.036
-410.355	-200.000	0.007	-0.238
-409.340	800.000	-0.077	-0.244
-408.325	-200.000	0.078	0.353
-407.311	-6.168	-0.284	-0.192
-406.296	-200.000	-0.034	-0.160
-405.282	-15.366	-0.193	-0.123
-404.267	-73.683	0.321	0.116
-403.252	216.566	-0.157	-0.248
-402.238	-200.000	0.036	-0.164
-401.223	92.742	0.120	-0.134
-400.209	10.291	0.136	0.102
-399.194	490.741	0.124	-0.282
-398.179	800.000	0.065	-0.178
-397.165	800.000	0.035	-0.107
-396.150	-200.000	0.010	0.187
-395.136	759.253	0.022	0.060
-394.121	252.758	-0.175	-0.295
-393.106	223.607	-0.119	0.190
-392.092	-96.440	0.231	-0.060
-391.077	800.000	-0.029	0.123
-390.063	-34.573	-0.458	-0.249
-389.048	197.866	-0.055	-0.083
-388.033	-200.000	0.042	0.275
-387.019	-53.022	-0.243	0.111
-386.004	-149.904	0.196	-0.015
-384.990	-124.287	0.207	-0.032
-383.975	-48.428	0.116	0.055
-382.960	41.518	0.133	0.119
-381.946	-1.392	0.202	0.141
-380.931	-200.000	-0.004	0.108
-379.917	-33.564	0.195	0.107
-378.902	800.000	0.039	0.151
-377.888	16.365	-0.121	-0.094
-376.873	378.772	0.156	0.316
-375.858	180.333	0.108	0.157
-374.844	-200.000	-0.054	0.286
-373.829	23.529	0.228	0.186
-372.815	-200.000	0.053	0.376
-371.800	100.294	-0.186	0.213
-370.785	-74.995	-0.096	0.034
-369.771	-28.569	0.118	-0.067
-368.756	800.000	0.029	-0.092
-367.742	-140.937	-0.399	-0.041
-366.727	137.891	-0.072	-0.093
-365.712	133.681	-0.176	-0.225
-364.698	82.839	-0.374	-0.402
-363.683	-189.033	-0.144	0.002
-362.669	182.451	0.047	0.069
-361.654	-108.262	-0.039	0.008
-360.639	-200.000	0.009	0.054
-359.625	-21.364	0.110	0.067
-358.610	-75.677	-0.311	0.109
-357.596	45.914	-0.221	-0.203
-356.581	198.636	-0.105	-0.159
-355.566	-62.177	-0.184	-0.076
-354.552	-200.000	-0.048	-0.226
-353.537	31.350	-0.130	-0.110
-352.523	-149.900	-0.286	0.022
-351.508	-200.000	0.041	0.290
-350.493	-200.000	-0.036	-0.283
-349.479	-194.246	-0.414	-0.003
-348.464	191.664	0.066	0.099
-347.450	-200.000	0.017	0.202
-346.435	-2.803	-0.245	-0.169
-345.420	68.371	-0.230	-0.233
-344.406	186.973	0.138	0.203
-343.391	-160.740	0.182	-0.010
-342.377	-113.350	-0.363	-0.070
-341.362	101.121	-0.212	0.244
-340.348	-78.633	-0.054	0.018
-339.333	-182.083	-0.107	-0.002
-338.318	48.573	-0.070	0.065
-337.304	237.975	0.073	0.119
-336.289	141.192	0.215	-0.281
-335.275	800.000	0.056	0.203
-334.260	274.539	-0.202	0.353
-333.245	-200.000	-0.021	0.186
-332.231	-185.763	0.159	0.002
-331.216	178.617	0.083	-0.119
-330.202	-200.000	-0.019	0.096
-329.187	800.000	0.166	0.506
-328.172	120.770	-0.143	-0.175
-327.158	30.506	-0.159	-0.134
-326.143	-86.478	-0.167	0.051
-325.129	-72.703	-0.226	-0.082
-324.114	-38.575	-0.219	-0.114
-323.099	182.918	0.158	0.230
-322.085	-78.121	0.263	-0.089
-321.070	369.090	0.128	-0.256
-320.056	-36.827	-0.308	0.163
-319.041	-45.736	-0.087	0.042
-318.026	800.000	-0.095	-0.310
-317.012	46.914	0.285	-0.261
-315.997	262.322	0.053	0.091
-314.983	-200.000	-0.040	0.241
-313.968	-41.980	-0.539	0.273
-312.953	-6.373	0.016	0.011
-311.939	-136.497	-0.123	0.014
-310.924	1.553	0.263	-0.187
-309.910	60.245	0.259	0.253
-308.895	-116.362	-0.246	-0.045
-307.880	42.926	-0.079	-0.071
-306.866	-163.229	-0.180	0.009
-305.851	-128.720	0.166	0.023
-304.837	-102.502	0.279	0.066
-303.822	-30.279	0.127	0.071
-302.807	205.856	-0.128	0.197
-301.793	-200.000	-0.008	-0.305
-300.778	-181.115	0.351	0.007
-299.764	14.103	0.387	-0.298
-298.749	-200.000	0.025	-0.134
-297.735	800.000	-0.134	-0.422
-296.720	-75.744	-0.126	0.044
-295.705	-154.772	-0.259	-0.017
-294.691	94.002	0.182	0.204
-293.676	-108.977	0.432	0.091
-292.662	5.552	0.099	-0.073
-291.647	108.784	0.073	0.086
-290.632	70.115	0.170	0.173
-289.618	49.136	0.251	-0.233
-288.603	-60.402	-0.322	-0.135
-287.589	-200.000	0.002	-0.015
-286.574	800.000	-0.038	-0.126
-285.559	-200.000	-0.010	0.173
-284.545	-147.367	-0.115	0.010
-283.530	228.330	-0.058	-0.093
-282.516	498.679	-0.115	-0.262
-281.501	-75.009	0.152	0.054
-280.486	210.441	0.093	0.145
-279.472	-6.643	-0.140	0.094
-278.457	-171.143	0.167	-0.006
-277.443	-200.000	-0.026	0.117
-276.428	445.104	-0.083	0.181
-275.413	158.518	-0.174	0.238
-274.399	142.874	0.117	0.153
-273.384	-127.183	-0.331	-0.048
-272.370	-29.594	-0.163	-0.092
-271.355	-10.521	-0.190	0.124
-270.340	-21.003	0.139	0.084
-269.326	88.969	0.135	-0.148
-268.311	-200.000	0.027	-0.145
-267.297	-200.000	0.007	0.066
-266.282	-150.860	-0.095	0.007
-265.267	-8.661	-0.111	-0.074
-264.253	99.604	0.370	0.422
-263.238	-30.724	-0.207	0.116
-262.224	-24.667	0.214	-0.126
-261.209	7.610	0.271	0.200
-260.195	11.350	-0.150	-0.113
-259.180	-200.000	0.063	-0.299
-258.165	280.883	-0.113	-0.199
-257.151	-83.255	0.206	-0.065
-256.136	8.370	-0.234	-0.173
-255.122	800.000	0.101	0.280
-254.107	-102.157	-0.213	-0.050
-253.092	395.994	0.049	0.101
-252.078	-200.000	0.015	-0.117
-251.063	-164.335	0.167	0.008
-250.049	-200.000	-0.001	0.095
-249.034	-169.887	0.118	-0.004
-248.019	14.370	0.055	-0.042
-247.005	-120.270	0.259	-0.044
-245.990	800.000	-0.106	-0.336
-244.976	-165.511	0.370	-0.016
-243.961	159.125	0.129	0.177
-242.946	102.435	-0.315	0.363
-241.932	800.000	0.044	-0.142
-240.917	-67.083	-0.106	0.041
-239.903	-11.413	-0.195	-0.126
-238.888	-200.000	-0.012	0.078
-237.873	18.970	-0.208	0.164
-236.859	-200.000	0.005	-0.047
-235.844	786.676	-0.072	0.194
-234.830	-21.561	-0.246	0.148
-233.815	45.374	0.320	0.291
-232.800	-72.278	0.131	-0.048
-231.786	-33.743	0.166	-0.090
-230.771	712.197	0.106	0.275
-229.757	800.000	-0.085	0.235
-228.742	800.000	0.035	-0.107
-227.727	129.300	0.083	0.104
-226.713	-102.984	-0.185	0.043
-225.698	69.304	-0.103	0.105
-224.684	-200.000	0.021	-0.167
-223.669	-22.027	0.243	-0.145
-222.655	-9.801	0.058	-0.038
-221.640	-82.213	0.132	-0.042
-220.625	-200.000	-0.004	-0.184
-219.611	151.142	0.124	-0.166
-218.596	46.073	-0.217	-0.198
-217.582	-200.000	0.015	0.083
-216.567	196.386	0.172	0.258
-215.552	195.890	0.122	-0.183
-214.538	-40.066	0.215	0.110
-213.523	393.497	0.078	-0.160
-212.509	-91.062	0.271	0.076
-211.494	19.346	-0.372	0.294
-210.479	-19.212	-0.110	-0.067
-209.465	17.685	0.052	-0.040
-208.450	-200.000	-0.015	-0.201
-207.436	-144.647	0.268	0.024
-206.421	248.600	0.137	0.228
-205.406	-112.484	-0.192	-0.038
-204.392	253.121	0.161	0.270
-203.377	800.000	0.042	-0.168
-202.363	9.446	0.301	0.224
-201.348	276.373	-0.050	-0.087
-200.333	-200.000	-0.007	0.088
-199.319	-133.822	-0.099	-0.012
-198.304	-200.000	0.009	0.132
-197.290	2.999	-0.074	0.053
-196.275	800.000	-0.032	0.114
-195.260	-162.036	0.170	0.008
-194.246	-57.554	0.179	-0.077
-193.231	715.529	-0.072	-0.187
-192.217	-60.814	0.198	-0.083
-191.202	-127.159	-0.257	-0.037
-190.187	-66.942	-0.133	0.051
-189.173	-60.175	0.161	-0.067
-188.158	226.692	0.085	-0.136
-187.144	-37.149	0.260	-0.137
-186.129	800.000	-0.085	0.273
-185.114	110.320	0.054	0.063
-184.100	249.562	0.141	0.235
-183.085	-75.651	-0.087	-0.030
-182.071	-200.000	-0.052	0.330
-181.056	-148.466	-0.255	-0.021
-180.042	305.445	0.157	-0.286
-179.027	800.000	0.136	0.512
-178.012	633.280	-0.070	0.174
-176.998	-200.000	-0.066	-0.414
-175.983	-200.000	-0.090	-0.462
-174.969	-47.132	0.075	-0.036
-173.954	-200.000	0.039	0.299
-172.939	373.317	-0.061	0.121
-171.925	319.220	0.139	0.259
-170.910	411.989	-0.071	0.148
-169.896	76.672	0.076	0.079
-168.881	249.325	0.015	-0.024
-167.866	61.841	-0.263	0.257
-166.852	-12.540	-0.052	0.033
-165.837	-200.000	-0.004	-0.066
-164.823	-124.555	-0.258	0.039
-163.808	56.130	0.504	0.480
-162.793	-200.000	-0.013	0.317
-161.779	-31.433	0.142	-0.078
-160.764	331.782	-0.066	0.125
-159.750	308.087	-0.042	-0.077
-158.735	-48.909	0.162	-0.076
-157.720	-139.875	0.169	-0.018
-156.706	56.360	-0.304	-0.290
-155.691	-200.000	-0.004	0.105
-154.677	39.217	0.087	-0.077
-153.662	-200.000	0.027	-0.286
-152.647	28.816	0.068	-0.056
-151.633	-96.502	0.255	0.066
-150.618	-200.000	-0.021	0.208
-149.604	-16.629	0.067	-0.042
-148.589	234.383	-0.049	0.078
-147.574	-83.959	-0.273	-0.085
-146.560	-67.059	0.292	-0.113
-145.545	-34.713	0.177	0.095
-144.531	-160.754	-0.127	-0.007
-143.516	201.738	0.154	-0.233
-142.502	-31.853	0.149	-0.082
-141.487	735.376	-0.058	0.152
-140.472	-6.154	-0.562	-0.376
-139.458	-86.404	-0.315	-0.095
-138.443	800.000	0.103	-0.323
-137.429	-115.685	-0.424	-0.078
-136.414	-94.240	-0.057	-0.015
-135.399	800.000	-0.029	-0.101
-134.385	-200.000	-0.038	0.196
-133.370	199.462	-0.120	-0.180
-132.356	-124.634	-0.109	-0.017
-131.341	637.233	-0.050	-0.124
-130.326	-92.938	0.299	-0.082
-129.312	-12.344	0.233	-0.150
-128.297	-200.000	-0.047	0.355
-127.283	-44.735	0.228	0.112
-126.268	549.071	-0.109	0.256
-125.253	-92.486	-0.114	-0.031
-124.239	800.000	0.045	0.141
-123.224	-81.156	0.259	-0.084
-122.210	-34.555	0.099	0.053
-121.195	-85.782	-0.172	-0.052
-120.180	53.311	0.134	0.126
-119.166	800.000	-0.119	0.379
-118.151	17.176	-0.099	0.077
-117.137	97.273	0.170	0.192
-116.122	800.000	-0.022	0.088
-115.107	12.870	0.087	0.066
-114.093	196.302	0.006	-0.010
-113.078	161.189	-0.133	-0.182
-112.064	-200.000	0.004	0.027
-111.049	19.125	-0.051	-0.040
-110.034	33.818	0.116	0.099
-109.020	800.000	-0.095	-0.370
-108.005	-200.000	0.013	-0.088
-106.991	-110.830	0.133	-0.027
-105.976	179.790	-0.109	0.157
-104.962	-200.000	-0.008	0.254
-103.947	171.528	-0.054	0.076
-102.932	-184.307	0.140	-0.002
-101.918	472.800	-0.103	0.228
-100.903	-100.576	0.157	-0.038
-99.889	358.769	0.096	-0.188
-98.874	28.983	-0.231	0.192
-97.859	47.868	-0.223	0.204
-96.845	22.550	0.272	0.218
-95.830	-121.910	0.104	-0.017
-94.816	-124.712	-0.336	0.051
-93.801	800.000	-0.046	-0.156
-92.786	-48.274	0.197	0.093
-91.772	233.623	0.075	-0.121
-90.757	-200.000	0.036	0.193
-89.743	-69.540	0.083	0.031
-88.728	-74.690	0.138	0.049
-87.713	-200.000	0.013	0.156
-86.699	-200.000	-0.012	0.124
-85.684	-200.000	-0.113	-0.572
-84.670	585.788	-0.130	-0.312
-83.655	4.735	-0.189	0.136
-82.640	221.010	0.068	0.107
-81.626	-133.611	-0.232	-0.028
-80.611	236.198	-0.060	0.096
-79.597	-200.000	-0.003	-0.243
-78.582	41.569	0.129	0.114
-77.567	6.921	0.213	0.155
-76.553	-12.664	0.357	-0.228
-75.538	-200.000	-0.036	-0.249
-74.524	-139.174	0.391	-0.041
-73.509	148.013	0.247	-0.326
-72.494	186.174	-0.070	-0.101
-71.480	800.000	-0.021	0.085
-70.465	-96.711	-0.306	-0.079
-69.451	-81.696	0.371	-0.119
-68.436	-89.854	0.298	0.085
-67.422	20.033	0.161	-0.127
-66.407	-125.373	-0.251	-0.037
-65.392	-57.186	0.230	-0.099
-64.378	76.008	-0.076	-0.079
-63.363	188.916	-0.235	-0.344
-62.349	800.000	-0.112	0.403
-61.334	54.403	-0.987	-0.930
-60.319	89.628	0.553	0.603
-59.305	148.566	-0.808	-1.068
-58.290	131.424	0.860	1.081
-57.276	800.000	0.660	1.824
-56.261	-200.000	116.867	644.650
-55.246	495.072	1548.857	3477.862
-54.232	173.883	2721.131	3841.308
-53.217	105.746	2160.107	2497.440
-52.203	38.019	1590.831	1383.028
-51.188	29.530	1332.160	1107.446
-50.173	26.788	1293.590	1059.345
-49.159	53.188	1352.209	1265.877
-48.144	51.313	1365.917	1267.475
-47.130	29.793	1319.721	1098.493
-46.115	26.286	1301.764	1062.915
-45.100	26.155	1296.234	1057.590
-44.086	26.087	1293.972	1055.307
-43.071	25.962	1291.656	1052.648
-42.057	26.035	1289.331	1051.132
-41.042	26.103	1287.614	1050.087
-40.027	25.995	1286.260	1048.315
-39.013	26.177	1284.178	1047.636
-37.998	26.171	1282.501	1046.189
-36.984	26.245	1280.407	1044.865
-35.969	26.200	1278.901	1043.338
-34.954	26.305	1277.209	1042.519
-33.940	26.263	1275.877	1041.152
-32.925	26.352	1274.065	1040.141
-31.911	26.270	1273.001	1038.760
-30.896	26.371	1271.447	1038.033
-29.881	26.386	1270.016	1036.906
-28.867	26.488	1268.514	1036.226
-27.852	26.409	1267.240	1034.693
-26.838	26.285	1266.035	1032.959
-25.823	26.296	1264.704	1031.892
-24.809	26.295	1263.115	1030.552
-23.794	26.323	1262.178	1029.904
-22.779	26.385	1260.664	1028.981
-21.765	26.367	1259.301	1027.727
-20.750	26.239	1258.593	1026.379
-19.736	26.287	1257.143	1025.427
-18.721	26.172	1256.072	1023.865
-17.706	26.170	1255.235	1023.130
-16.692	26.141	1253.583	1021.578
-15.677	26.191	1252.602	1021.021
-14.663	26.317	1251.450	1020.750
-13.648	26.062	1250.611	1018.587
-12.633	26.232	1249.189	1018.347
-11.619	26.206	1248.331	1017.463
-10.604	26.232	1247.621	1016.987
-9.590	26.240	1246.582	1016.144
-8.575	26.093	1245.892	1014.718
-7.560	26.200	1244.529	1014.169
-6.546	26.143	1244.070	1013.432
-5.531	26.216	1243.091	1013.005
-4.517	26.305	1241.867	1012.468
-3.502	26.321	1240.930	1011.752
-2.487	26.209	1240.349	1010.611
-1.473	26.083	1236.916	1007.069
-0.458	24.865	1221.667	987.895
0.556	21.824	1205.825	952.617
1.571	18.473	1212.515	939.481
2.586	17.727	1227.357	946.754
3.600	17.297	1215.431	935.106
4.615	12.979	1143.933	857.622
5.629	6.211	1073.457	771.607
6.644	3.608	1055.453	746.029
7.659	3.317	1053.487	743.171
8.673	3.402	1052.531	742.839
9.688	3.563	1051.171	742.588
10.702	3.692	1049.113	741.688
11.717	7.416	1054.210	763.171
12.731	14.570	1064.075	804.869
13.746	18.887	1069.512	829.797
14.761	19.606	1069.271	833.009
15.775	18.700	1068.119	827.668
16.790	17.602	1066.232	820.847
17.804	16.920	1064.632	816.259
18.819	16.717	1063.538	814.372
19.834	16.540	1062.406	812.581
20.848	16.317	1061.963	811.102
21.863	16.100	1060.959	809.224
22.877	16.002	1060.145	808.061
23.892	16.010	1059.479	807.521
24.907	15.991	1058.183	806.369
25.921	15.983	1057.514	805.748
26.936	15.805	1057.008	804.440
27.950	16.080	1054.788	803.994
28.965	16.170	1053.025	803.008
29.980	16.256	1052.252	802.755
30.994	16.306	1051.173	802.098
32.009	16.351	1049.947	801.302
33.023	16.227	1048.607	799.623
34.038	16.181	1048.188	799.017
35.053	16.200	1047.148	798.243
36.067	16.307	1045.951	797.763
37.082	16.185	1045.445	796.734
38.096	16.257	1044.623	796.377
39.111	16.215	1044.226	795.803
40.126	16.011	1043.035	793.865
41.140	15.843	1041.291	791.676
42.155	15.900	1039.944	790.850
43.169	15.752	1039.333	789.619
44.184	15.759	1038.303	788.802
45.199	15.879	1037.096	788.377
46.213	15.879	1036.165	787.601
47.228	16.032	1035.404	787.666
48.242	15.932	1034.572	786.495
49.257	15.982	1033.638	785.951
50.271	16.024	1032.350	785.099
51.286	16.126	1031.636	784.958
52.301	16.144	1030.883	784.401
53.315	16.087	1029.228	782.809
54.330	15.964	1028.419	781.554
55.344	15.843	1027.819	780.466
56.359	15.862	1027.228	780.038
57.374	15.856	1026.296	779.231
58.388	15.736	1025.044	777.657
59.403	15.767	1024.437	777.273
60.417	15.791	1023.690	776.748
61.432	15.787	1023.113	776.224
62.447	15.678	1022.353	775.074
63.461	15.656	1021.223	774.049
64.476	15.701	1020.207	773.417
65.490	15.705	1019.645	772.940
66.505	15.703	1018.682	772.133
67.520	15.763	1017.839	771.699
68.534	15.668	1017.556	770.984
69.549	15.695	1016.413	770.170
70.563	15.841	1015.628	770.178
71.578	15.671	1014.816	768.715
72.593	15.561	1014.440	767.860
73.607	15.693	1013.494	767.679
74.622	15.509	1013.618	766.865
75.636	15.503	1012.265	765.745
76.651	15.591	1011.860	765.771
77.666	15.579	1011.469	765.352
78.680	15.577	1010.866	764.819
79.695	15.666	1009.601	764.202
80.709	15.746	1009.375	764.325
81.724	15.865	1008.258	763.950
82.739	15.972	1007.429	763.742
83.753	16.020	1006.613	763.271
84.768	16.215	1006.362	763.898
85.782	16.376	1005.091	763.595
86.797	16.220	1004.215	762.158
87.812	16.065	1003.411	760.781
88.826	15.989	1002.287	759.514
89.841	16.184	1001.489	759.721
90.855	16.296	1000.397	759.332
91.870	16.256	999.609	758.486
92.884	16.120	999.239	757.528
93.899	16.203	998.180	757.032
94.914	16.297	997.614	756.956
95.928	16.185	996.880	755.828
96.943	16.211	995.608	754.915
97.957	16.081	995.014	753.815
98.972	16.175	993.838	753.279
99.987	16.212	993.099	752.818
101.001	16.191	991.977	751.804
102.016	16.154	990.978	750.816
103.030	16.260	990.272	750.687
104.045	16.181	989.816	749.924
105.060	15.976	989.057	748.370
106.074	16.063	987.478	747.499
107.089	15.745	986.740	745.465
108.103	15.890	985.480	745.089
109.118	15.758	984.961	744.044
110.133	15.721	984.113	743.173
111.147	15.759	983.074	742.492
112.162	15.732	982.630	741.971
113.176	15.847	981.320	741.422
114.191	16.064	980.995	742.067
115.206	15.863	980.759	740.938
116.220	15.937	979.215	740.033
117.235	15.946	977.544	738.743
118.249	15.846	977.922	738.524
119.264	15.641	977.141	736.972
120.279	15.817	976.109	736.901
121.293	15.804	975.331	736.190
122.308	15.811	973.927	735.096
123.322	15.663	973.140	733.788
124.337	15.713	972.040	733.112
125.352	15.801	971.046	732.682
126.366	15.669	970.352	731.519
127.381	15.718	969.460	730.995
128.395	15.748	968.462	730.306
129.410	15.698	967.466	729.277
130.424	15.823	966.646	729.136
131.439	15.784	966.576	728.851
132.454	15.869	964.944	727.923
133.468	15.951	964.308	727.731
134.483	15.871	963.613	726.797
135.497	15.900	962.986	726.385
136.512	15.937	962.063	725.782
137.527	15.916	961.215	724.991
138.541	15.887	960.760	724.456
139.556	15.881	959.788	723.636
140.570	15.991	959.338	723.703
141.585	16.298	958.111	724.029
142.600	16.266	957.592	723.440
143.614	16.336	956.817	723.088
144.629	16.361	955.887	722.426
145.643	16.273	955.018	721.332
146.658	16.112	953.890	719.729
147.673	16.152	953.094	719.233
148.687	16.103	952.306	718.365
149.702	15.954	951.414	716.997
150.716	16.006	950.727	716.636
151.731	15.992	950.105	716.046
152.746	16.022	949.087	715.341
153.760	16.067	948.632	715.126
154.775	16.223	948.062	715.294
155.789	16.094	947.434	714.212
156.804	16.272	946.542	714.231
157.819	16.329	945.707	713.775
158.833	16.429	945.186	713.743
159.848	16.376	944.790	713.155
160.862	16.335	943.606	712.029
161.877	16.292	942.159	710.692
162.892	16.212	941.257	709.609
163.906	16.109	940.443	708.503
164.921	16.181	939.956	708.376
165.935	16.138	939.206	707.568
166.950	16.187	937.645	706.535
167.964	16.305	937.372	706.760
168.979	16.230	936.299	705.573
169.994	16.301	935.253	705.018
171.008	16.355	935.253	705.184
172.023	16.434	934.143	704.613
173.037	16.393	933.810	704.127
174.052	16.369	933.070	703.408
175.067	16.143	932.580	702.037
176.081	16.196	931.517	701.395
177.096	16.149	931.567	701.173
178.110	16.118	930.824	700.423
179.125	16.237	929.855	700.128
180.140	16.338	929.363	700.115
181.154	16.334	929.216	699.925
182.169	16.403	928.631	699.708
183.183	16.548	928.278	699.980
184.198	16.432	927.139	698.578
185.213	16.510	926.392	698.279
186.227	16.637	925.397	697.989
187.242	16.746	925.314	698.315
188.256	16.671	924.904	697.631
189.271	16.814	923.650	697.214
190.286	16.359	922.785	694.627
191.300	16.147	922.320	693.344
192.315	16.099	921.386	692.386
193.329	16.154	920.951	692.222
194.344	16.339	920.033	692.231
195.359	16.410	919.485	692.047
196.373	16.512	918.988	692.028
197.388	16.543	918.961	692.075
198.402	16.838	918.004	692.500
199.417	16.782	917.676	691.961
200.432	16.907	916.819	691.763
201.446	17.016	916.651	692.019
202.461	17.016	916.526	691.863
203.475	16.876	915.740	690.641
204.490	16.798	914.851	689.592
205.504	16.606	914.286	688.321
206.519	16.705	912.900	687.621
207.534	16.760	912.240	687.286
208.548	16.771	911.702	686.863
209.563	16.639	911.429	686.064
210.577	16.689	910.812	685.739
211.592	16.974	909.842	686.101
212.607	16.861	909.004	684.951
213.621	16.917	908.158	684.480
214.636	16.761	907.744	683.480
215.650	16.894	907.075	683.450
216.665	17.103	906.354	683.691
217.680	17.066	906.170	683.341
218.694	17.078	905.330	682.695
219.709	17.034	904.640	681.936
220.723	16.969	903.953	681.096
221.738	16.830	903.352	680.026
222.753	16.947	902.544	679.826
223.767	17.061	902.004	679.819
224.782	17.096	901.830	679.765
225.796	17.294	901.127	679.967
226.811	17.150	900.542	678.893
227.826	17.059	899.421	677.623
228.840	16.999	898.702	676.782
229.855	17.093	898.243	676.751
230.869	17.101	897.107	675.866
231.884	17.020	896.253	674.843
232.899	16.903	896.118	674.213
233.913	16.896	895.249	673.474
234.928	16.874	894.576	672.822
235.942	16.912	894.057	672.521
236.957	16.897	893.774	672.191
237.972	16.888	892.885	671.426
238.986	17.003	892.275	671.361
240.001	16.866	891.884	670.466
241.015	17.065	891.026	670.549
242.030	17.071	890.568	670.171
243.045	17.065	890.004	669.661
244.059	17.124	889.260	669.274
245.074	17.246	889.116	669.588
246.088	17.247	888.248	668.878
247.103	17.428	887.314	668.829
248.117	17.437	887.256	668.762
249.132	17.670	886.641	669.153
250.147	17.502	886.446	668.288
251.161	17.672	885.418	668.118
252.176	17.650	885.008	667.666
253.190	17.832	884.223	667.726
254.205	17.819	883.826	667.317
255.220	17.790	882.770	666.346
256.234	17.925	882.097	666.308
257.249	17.774	881.620	665.300
258.263	17.735	880.852	664.509
259.278	17.649	880.408	663.780
260.293	17.858	879.723	664.018
261.307	17.932	879.114	663.788
262.322	17.995	878.354	663.399
263.336	17.914	877.563	662.428
264.351	17.939	877.222	662.208
265.366	17.945	876.404	661.557
266.380	17.925	875.768	660.940
267.395	17.807	875.314	660.082
268.409	17.770	874.415	659.204
269.424	17.908	873.708	659.145
270.439	17.827	872.705	658.018
271.453	17.883	871.798	657.492
272.468	17.638	872.346	656.901
273.482	17.725	871.494	656.538
274.497	17.871	870.234	656.093
275.512	17.808	869.975	655.597
276.526	17.774	869.755	655.242
277.541	17.861	869.461	655.294
278.555	17.963	868.605	654.983
279.570	18.142	867.739	654.958
280.585	18.122	866.788	654.106
281.599	17.963	866.126	652.941
282.614	17.932	865.764	652.492
283.628	17.981	865.026	652.066
284.643	17.985	864.630	651.724
285.657	18.053	863.523	651.091
286.672	18.003	862.975	650.430
287.687	18.037	862.837	650.397
288.701	18.090	862.224	650.081
289.716	18.246	861.243	649.876
290.730	18.002	861.095	648.779
291.745	18.070	860.412	648.465
292.760	18.097	859.794	648.045
293.774	18.290	859.092	648.189
294.789	18.257	857.966	647.158
295.803	18.207	857.574	646.615
296.818	17.973	856.865	645.141
297.833	18.145	856.434	645.408
298.847	18.151	855.736	644.847
299.862	18.131	855.192	644.306
300.876	18.347	854.436	644.490
301.891	18.437	854.211	644.602
302.906	18.363	854.074	644.165
303.920	18.472	853.353	643.972
304.935	18.489	853.110	643.796
305.949	18.496	851.988	642.921
306.964	18.457	851.210	642.128
307.979	18.339	850.760	641.290
308.993	18.434	850.767	641.595
310.008	18.480	849.507	640.761
311.022	18.562	849.100	640.703
312.037	18.433	848.255	639.525
313.052	18.268	847.970	638.642
314.066	18.156	847.582	637.875
315.081	18.233	846.557	637.334
316.095	18.128	846.661	636.964
317.110	18.220	845.825	636.623
318.125	18.098	845.339	635.745
319.139	18.417	844.491	636.234
320.154	18.247	844.332	635.428
321.168	18.423	843.579	635.456
322.183	18.449	843.105	635.141
323.197	18.499	842.827	635.061
324.212	18.398	842.381	634.294
325.227	18.319	841.887	633.574
326.241	18.463	840.926	633.327
327.256	18.232	840.833	632.346
328.270	18.371	839.903	632.106
329.285	18.287	839.109	631.141
330.300	18.204	838.858	630.591
331.314	18.431	838.420	631.042
332.329	18.569	837.885	631.093
333.343	18.611	837.370	630.801
334.358	18.485	837.231	630.178
335.373	18.536	836.766	629.959
336.387	18.673	836.478	630.192
337.402	18.591	836.676	629.982
338.416	18.634	836.191	629.720
339.431	18.711	835.634	629.529
340.446	18.856	835.190	629.667
341.460	18.910	834.596	629.364
342.475	19.051	834.009	629.379
343.489	19.003	833.713	628.925
344.504	19.090	833.486	629.018
345.519	19.173	832.778	628.731
346.533	19.098	832.282	628.028
347.548	18.881	831.478	626.574
348.562	18.763	831.205	625.880
349.577	18.732	830.719	625.347
350.592	18.758	829.569	624.520
351.606	18.706	829.140	623.952
352.621	18.752	828.440	623.540
353.635	18.746	827.817	622.992
354.650	18.999	826.773	623.068
355.665	18.780	826.809	622.248
356.679	18.982	826.102	622.391
357.694	18.930	825.400	621.618
358.708	18.875	825.046	621.098
359.723	18.850	824.582	620.604
360.738	19.026	823.352	620.257
361.752	19.052	823.191	620.177
362.767	19.115	822.647	619.936
363.781	19.193	822.232	619.851
364.796	19.128	822.412	619.698
365.810	19.460	821.796	620.371
366.825	19.457	821.242	619.889
367.840	19.244	820.942	618.842
368.854	19.224	819.941	617.962
369.869	19.295	819.547	617.865
370.883	19.347	819.129	617.679
371.898	19.399	818.663	617.459
372.913	19.466	818.599	617.600
373.927	19.459	817.953	617.030
374.942	19.288	817.858	616.293
375.956	19.467	817.324	616.476
376.971	19.423	817.061	616.065
377.986	19.651	816.447	616.360
379.000	19.702	815.739	615.954
380.015	19.638	815.411	615.426
381.029	19.457	814.802	614.268
382.044	19.733	813.898	614.511
383.059	19.650	813.437	613.814
384.073	19.566	812.983	613.119
385.088	19.489	811.970	612.028
386.102	19.301	811.785	611.168
387.117	19.359	811.466	611.077
388.132	19.472	810.246	610.506
389.146	19.570	809.930	610.560
390.161	19.539	809.392	609.991
391.175	19.578	808.979	609.762
392.190	19.586	808.645	609.485
393.205	19.667	807.964	609.204
394.219	19.547	807.721	608.545
395.234	19.519	807.507	608.231
396.248	19.446	806.693	607.308
397.263	19.288	806.320	606.418
398.278	19.427	806.315	606.846
399.292	19.302	805.500	605.741
400.307	19.400	805.079	605.716
401.321	19.504	804.499	605.591
402.336	19.645	803.860	605.551
403.350	19.494	803.863	604.969
404.365	19.563	803.656	605.002
405.380	19.809	803.073	605.371
406.394	19.912	802.396	605.168
407.409	19.931	801.718	604.670
408.423	19.910	801.589	604.446
409.438	20.092	801.588	605.025
410.453	20.088	800.947	604.474
411.467	20.173	800.284	604.217
412.482	20.152	800.033	603.902
413.496	20.009	799.883	603.236
414.511	20.071	799.550	603.147
415.526	20.073	798.702	602.463
416.540	20.091	798.506	602.321
417.555	20.086	797.943	601.828
418.569	20.101	797.448	601.452
419.584	20.134	797.026	601.195
420.599	20.190	796.706	601.093
421.613	162.094	1371.595	1796.204
422.628	140.638	1455.325	1796.297
