DTS Sentinel unit serial number:	SN413079Multiplexer serial number:	ORYXHardware model number:	OX4-SRSoftware version number:	ORYX F/W v4.00 Oryx Data Collector v3.7.2.0data status	okinstallation	princeton_trtdifferential loss correction	single-endedforward channel	channel 1reverse channel	N/Adate	2019/09/17time	02:50:36forward acquisition time	60.00reverse acquisition time	0.00gamma	496.2192k internal	0.2323k external	0.2323temperature offset calibration	0.9956default loss term (dB/km)	0.3790temperature slope calibration	1.0000multiplexer offset coefficient	1.0000multiplexer slope coefficient	1.0000fibre end	0.00T internal ref (°C)	29.87T ext. ref 1 (°C)	0.12T ext. ref 2 (°C)	24.87length (m)	temperature (°C)	Stokes	anti-Stokes-747.200	-73.983	-0.151	0.055
-746.185	-120.294	0.176	-0.030
-745.171	-200.000	0.046	0.232
-744.156	-141.374	0.224	-0.023
-743.142	-200.000	0.025	0.112
-742.127	345.200	0.145	0.288
-741.112	-70.176	0.215	-0.083
-740.098	-200.000	0.075	0.421
-739.083	100.779	-0.318	0.373
-738.069	53.304	-0.101	0.097
-737.054	-144.219	0.133	-0.013
-736.039	-200.000	-0.039	0.377
-735.025	22.455	0.034	0.028
-734.010	-14.096	-0.118	-0.077
-732.996	186.869	-0.165	0.249
-731.981	37.836	0.076	0.068
-730.966	92.092	-0.233	-0.264
-729.952	454.814	-0.071	-0.160
-728.937	-200.000	0.001	0.136
-727.923	-183.095	-0.111	-0.002
-726.908	-89.546	-0.250	-0.074
-725.894	317.815	0.055	-0.105
-724.879	-133.734	0.104	0.013
-723.864	-132.486	-0.260	0.034
-722.850	-14.301	-0.228	-0.148
-721.835	-200.000	-0.021	-0.102
-720.821	800.000	-0.125	-0.430
-719.806	-133.109	0.225	-0.029
-718.791	-105.222	-0.258	-0.059
-717.777	-200.000	0.040	0.249
-716.762	-184.581	0.277	0.005
-715.748	800.000	-0.049	-0.163
-714.733	-200.000	0.007	0.128
-713.718	-200.000	-0.029	0.395
-712.704	-126.978	0.076	0.011
-711.689	131.072	-0.246	0.319
-710.675	36.745	-0.124	-0.110
-709.660	-86.129	-0.191	-0.060
-708.645	-200.000	0.200	0.000
-707.631	-144.264	-0.257	0.024
-706.616	24.699	-0.295	-0.247
-705.602	108.076	0.054	-0.065
-704.587	57.965	-0.171	-0.169
-703.572	60.485	-0.320	-0.320
-702.558	-200.000	-0.025	-0.198
-701.543	-76.184	0.302	-0.107
-700.529	800.000	0.060	-0.214
-699.514	-31.704	0.121	-0.068
-698.499	-67.750	-0.137	-0.054
-697.485	-200.000	0.010	0.286
-696.470	-84.225	-0.189	0.060
-695.456	-30.276	0.329	0.188
-694.441	-4.066	0.198	-0.138
-693.426	216.061	-0.139	-0.222
-692.412	-200.000	-0.041	0.336
-691.397	800.000	0.084	0.304
-690.383	307.764	0.047	-0.088
-689.368	-3.777	-0.183	0.128
-688.354	-200.000	-0.055	-0.251
-687.339	-122.001	-0.208	-0.034
-686.324	-200.000	0.017	-0.332
-685.310	593.560	-0.085	0.211
-684.295	-145.214	0.178	0.016
-683.281	158.881	0.179	-0.251
-682.266	-93.489	-0.078	0.022
-681.251	-200.000	-0.050	-0.374
-680.237	-87.965	-0.207	0.063
-679.222	474.636	0.066	-0.150
-678.208	-78.738	0.125	0.043
-677.193	-9.839	-0.128	-0.086
-676.178	-44.364	-0.114	-0.058
-675.164	208.541	0.094	-0.148
-674.149	-69.871	0.008	0.003
-673.135	245.921	-0.099	0.168
-672.120	-61.807	-0.284	0.120
-671.105	153.300	-0.295	-0.407
-670.091	296.819	-0.069	0.128
-669.076	238.366	0.032	0.053
-668.062	68.820	-0.203	0.209
-667.047	12.388	0.027	-0.021
-666.032	800.000	0.022	0.082
-665.018	-200.000	-0.021	-0.167
-664.003	800.000	0.040	-0.122
-662.989	46.803	-0.203	-0.190
-661.974	293.232	-0.114	-0.210
-660.959	-156.750	-0.515	-0.032
-659.945	-162.973	-0.138	0.007
-658.930	-45.591	0.206	-0.103
-657.916	-34.765	0.141	0.077
-656.901	133.180	-0.086	-0.112
-655.886	-7.414	-0.113	0.077
-654.872	-200.000	-0.002	-0.045
-653.857	-36.547	0.229	-0.124
-652.843	174.983	-0.165	-0.240
-651.828	-43.793	-0.085	0.043
-650.814	195.336	-0.157	-0.239
-649.799	762.059	0.120	-0.327
-648.784	271.794	0.023	-0.040
-647.770	-200.000	-0.006	0.163
-646.755	-57.695	-0.202	0.089
-645.741	501.808	-0.041	0.095
-644.726	-128.117	0.297	0.043
-643.711	64.455	0.223	0.226
-642.697	-200.000	0.065	0.404
-641.682	590.797	-0.143	-0.354
-640.668	-200.000	0.022	0.143
-639.653	44.637	-0.066	-0.061
-638.638	-122.455	0.080	0.013
-637.624	-135.792	0.087	-0.010
-636.609	-21.436	-0.191	0.117
-635.595	-76.048	-0.113	-0.040
-634.580	-37.116	0.338	0.182
-633.565	7.957	-0.140	-0.105
-632.551	-67.223	-0.122	0.048
-631.536	-106.209	-0.396	0.089
-630.522	629.237	0.046	0.117
-629.507	-30.396	0.167	0.096
-628.492	800.000	-0.052	-0.147
-627.478	-134.520	0.170	-0.021
-626.463	-98.233	-0.131	0.034
-625.449	99.701	-0.079	0.092
-624.434	-200.000	0.034	-0.248
-623.419	-200.000	0.005	0.313
-622.405	-105.648	0.469	0.107
-621.390	800.000	0.113	-0.317
-620.376	-200.000	0.029	0.269
-619.361	-200.000	0.007	0.118
-618.346	-200.000	0.014	0.164
-617.332	-25.151	-0.119	0.071
-616.317	-200.000	-0.018	-0.109
-615.303	-126.049	-0.037	0.006
-614.288	-145.523	0.200	-0.018
-613.273	-152.214	-0.068	-0.005
-612.259	737.609	0.054	0.145
-611.244	800.000	-0.097	0.344
-610.230	452.560	0.112	0.248
-609.215	171.811	-0.116	0.167
-608.201	800.000	0.146	0.450
-607.186	-26.053	-0.038	-0.023
-606.171	-125.602	0.229	0.035
-605.157	-200.000	0.027	0.123
-604.142	49.541	0.093	-0.088
-603.128	161.140	-0.234	0.328
-602.113	-200.000	-0.002	0.042
-601.098	-62.073	0.257	-0.108
-600.084	800.000	-0.019	-0.081
-599.069	-51.676	-0.169	0.079
-598.055	89.278	-0.048	-0.054
-597.040	-142.843	-0.288	-0.028
-596.025	506.304	-0.038	0.088
-595.011	468.244	0.194	-0.436
-593.996	-200.000	-0.032	-0.186
-592.982	-58.809	-0.371	-0.161
-591.967	-16.534	0.243	-0.155
-590.952	249.597	-0.067	0.114
-589.938	800.000	0.045	-0.198
-588.923	-132.694	-0.417	0.054
-587.909	570.014	0.110	-0.270
-586.894	800.000	0.073	0.276
-585.879	-154.140	0.134	-0.009
-584.865	591.975	-0.075	-0.185
-583.850	-27.321	-0.138	-0.080
-582.836	59.283	0.147	0.145
-581.821	-61.053	0.070	-0.030
-580.806	-47.633	0.143	0.070
-579.792	-26.083	-0.211	0.125
-578.777	-126.381	0.058	0.009
-577.763	-79.336	0.210	0.072
-576.748	722.405	0.008	0.022
-575.733	271.230	0.093	-0.164
-574.719	231.480	-0.152	-0.251
-573.704	-55.993	-0.162	-0.072
-572.690	203.764	-0.121	-0.188
-571.675	-27.256	0.217	0.127
-570.661	-39.055	0.244	-0.129
-569.646	-114.293	0.236	-0.046
-568.631	-39.914	-0.081	0.042
-567.617	71.279	-0.197	-0.205
-566.602	77.014	-0.101	0.107
-565.588	-181.985	-0.028	0.001
-564.573	329.003	0.083	0.159
-563.558	-200.000	-0.035	0.160
-562.544	-118.381	0.109	0.019
-561.529	37.871	0.113	-0.101
-560.515	800.000	0.089	-0.263
-559.500	-200.000	0.003	-0.045
-558.485	177.442	-0.078	-0.114
-557.471	-52.099	-0.384	-0.179
-556.456	-200.000	0.083	-0.519
-555.442	16.021	-0.100	-0.079
-554.427	435.913	0.173	0.377
-553.412	-200.000	0.005	0.101
-552.398	70.011	-0.045	-0.046
-551.383	-103.662	0.029	0.007
-550.369	-200.000	0.002	-0.132
-549.354	11.581	-0.154	0.118
-548.339	18.110	-0.248	0.198
-547.325	-103.434	-0.246	0.058
-546.310	4.048	-0.175	0.128
-545.296	-96.152	-0.046	0.012
-544.281	800.000	-0.092	-0.389
-543.266	492.366	-0.040	0.093
-542.252	455.186	0.110	0.245
-541.237	-12.470	-0.061	-0.040
-540.223	-32.966	0.169	0.094
-539.208	0.037	-0.075	0.054
-538.193	-113.785	0.154	0.030
-537.179	113.923	0.046	-0.056
-536.164	-92.471	-0.110	0.031
-535.150	-200.000	-0.025	-0.206
-534.135	-71.823	0.127	-0.048
-533.121	126.720	0.089	0.113
-532.106	800.000	-0.089	-0.248
-531.091	121.779	0.090	-0.113
-530.077	88.278	-0.148	-0.164
-529.062	144.108	-0.193	-0.258
-528.048	-200.000	-0.007	0.168
-527.033	-200.000	-0.023	-0.153
-526.018	-77.577	-0.277	-0.096
-525.004	122.839	-0.168	-0.210
-523.989	-112.893	-0.381	0.076
-522.975	31.239	-0.230	0.198
-521.960	-200.000	0.040	-0.416
-520.945	-133.701	-0.351	-0.044
-519.931	-163.097	0.161	-0.008
-518.916	800.000	-0.072	-0.270
-517.902	800.000	-0.067	0.271
-516.887	-175.930	0.309	-0.008
-515.872	-200.000	0.023	0.276
-514.858	-66.484	0.271	-0.108
-513.843	-200.000	0.055	0.412
-512.829	227.384	0.127	-0.207
-511.814	160.177	0.033	-0.046
-510.799	502.453	0.077	-0.178
-509.785	59.301	0.056	0.055
-508.770	-22.501	0.138	0.083
-507.756	800.000	-0.101	-0.422
-506.741	46.054	0.268	0.248
-505.726	-63.300	-0.243	0.100
-504.712	-59.356	0.163	-0.070
-503.697	346.511	-0.074	-0.146
-502.683	-200.000	0.032	-0.210
-501.668	-81.149	0.272	0.090
-500.653	-200.000	0.009	0.327
-499.639	116.280	0.082	0.100
-498.624	65.746	0.217	-0.219
-497.610	-12.000	0.201	0.131
-496.595	-3.745	-0.217	-0.150
-495.581	264.617	-0.150	-0.261
-494.566	-200.000	0.034	-0.156
-493.551	228.882	-0.033	0.053
-492.537	-108.410	0.199	-0.043
-491.522	-38.028	0.094	0.050
-490.508	-109.216	0.332	-0.071
-489.493	-200.000	-0.002	-0.034
-488.478	800.000	-0.092	0.354
-487.464	10.293	-0.115	-0.088
-486.449	-72.477	-0.150	-0.055
-485.435	89.438	0.135	0.151
-484.420	-109.609	-0.186	0.039
-483.405	170.577	-0.147	-0.211
-482.391	-40.356	0.174	-0.090
-481.376	-200.000	-0.005	-0.114
-480.362	-200.000	-0.009	-0.094
-479.347	-1.321	-0.162	-0.115
-478.332	-200.000	-0.022	-0.175
-477.318	30.082	-0.080	-0.068
-476.303	-45.365	-0.247	-0.122
-475.289	-63.306	0.166	0.068
-474.274	20.262	0.232	-0.187
-473.259	-64.241	-0.438	0.178
-472.245	-5.400	-0.255	-0.175
-471.230	-200.000	-0.012	-0.124
-470.216	-83.925	0.117	-0.037
-469.201	-169.874	-0.222	-0.008
-468.186	144.563	-0.250	0.334
-467.172	-200.000	-0.038	0.367
-466.157	39.727	0.211	-0.189
-465.143	-29.237	0.076	-0.044
-464.128	3.236	-0.060	0.043
-463.113	-85.379	-0.224	0.070
-462.099	800.000	-0.021	0.077
-461.084	-200.000	0.010	0.149
-460.070	109.738	0.041	0.049
-459.055	-117.626	-0.127	0.023
-458.040	-124.370	0.136	0.021
-457.026	395.653	0.134	0.280
-456.011	10.393	0.187	0.142
-454.997	-200.000	0.004	-0.065
-453.982	671.835	-0.032	-0.082
-452.968	800.000	0.059	-0.226
-451.953	25.630	0.133	0.110
-450.938	157.957	-0.158	0.219
-449.924	393.754	0.101	-0.209
-448.909	37.298	-0.154	-0.136
-447.895	-136.423	-0.324	-0.038
-446.880	-121.814	-0.150	0.025
-445.865	315.292	0.171	-0.321
-444.851	-200.000	0.015	0.068
-443.836	256.401	-0.075	-0.129
-442.822	-94.050	0.087	0.024
-441.807	800.000	-0.020	-0.086
-440.792	551.538	0.119	0.285
-439.778	-103.276	0.203	0.048
-438.763	189.866	0.075	0.112
-437.749	-200.000	-0.066	-0.342
-436.734	49.559	0.171	0.160
-435.719	-29.786	-0.219	0.125
-434.705	158.782	-0.056	-0.078
-433.690	-27.156	-0.161	0.093
-432.676	44.588	-0.177	0.162
-431.661	-95.237	-0.118	-0.032
-430.646	-145.530	0.205	0.018
-429.632	-169.801	-0.237	-0.009
-428.617	87.861	-0.128	0.142
-427.603	-137.237	0.307	0.035
-426.588	-92.661	0.148	0.041
-425.573	416.318	-0.062	0.132
-424.559	-200.000	0.038	0.279
-423.544	-106.008	0.252	-0.056
-422.530	106.347	0.126	-0.149
-421.515	-200.000	-0.050	-0.237
-420.500	-90.495	0.284	0.082
-419.486	-140.074	-0.077	0.008
-418.471	54.979	-0.188	-0.181
-417.457	51.904	0.211	-0.201
-416.442	-45.472	-0.029	0.014
-415.428	-200.000	-0.039	0.365
-414.413	800.000	0.041	-0.137
-413.398	-200.000	0.035	-0.299
-412.384	-11.669	0.081	0.053
-411.369	189.977	0.215	0.321
-410.355	-200.000	0.056	0.281
-409.340	-200.000	-0.033	0.348
-408.325	631.321	-0.070	-0.178
-407.311	314.431	0.034	0.064
-406.296	457.289	0.064	-0.143
-405.282	27.211	0.241	0.202
-404.267	-16.379	-0.060	-0.038
-403.252	-8.897	-0.387	-0.259
-402.238	-41.427	0.462	0.237
-401.223	800.000	-0.137	-0.377
-400.209	-200.000	0.030	-0.261
-399.194	284.325	-0.025	0.044
-398.179	-179.455	0.214	-0.005
-397.165	415.210	-0.128	-0.272
-396.150	761.630	0.044	-0.119
-395.136	-48.391	-0.153	0.073
-394.121	-25.901	0.105	0.062
-393.106	-143.105	0.268	-0.026
-392.092	-17.027	-0.379	-0.239
-391.077	-61.955	0.138	0.057
-390.063	-142.467	-0.140	0.014
-389.048	-143.744	-0.236	0.022
-388.033	800.000	0.123	-0.372
-387.019	-89.480	0.008	0.002
-386.004	19.262	-0.278	0.223
-384.990	-32.042	0.084	0.047
-383.975	-200.000	-0.058	0.291
-382.960	800.000	0.029	0.087
-381.946	-74.608	0.272	-0.097
-380.931	-10.989	0.100	0.066
-379.917	-37.974	-0.112	0.059
-378.902	-200.000	0.058	0.306
-377.888	318.364	0.170	-0.320
-376.873	-64.967	-0.155	0.062
-375.858	16.322	-0.096	0.075
-374.844	46.615	0.203	0.188
-373.829	262.349	0.135	-0.234
-372.815	50.135	0.207	0.194
-371.800	32.848	0.163	0.140
-370.785	738.605	-0.116	-0.310
-369.771	-200.000	0.046	-0.251
-368.756	138.534	-0.182	0.237
-367.742	196.250	0.163	0.247
-366.727	172.402	-0.051	-0.073
-365.712	323.550	0.266	-0.505
-364.698	466.625	0.088	-0.195
-363.683	-113.290	-0.284	0.056
-362.669	-19.269	-0.009	0.006
-361.654	-69.534	-0.085	0.032
-360.639	-200.000	0.006	0.169
-359.625	800.000	0.068	-0.220
-358.610	107.358	0.083	-0.098
-357.596	800.000	0.043	0.155
-356.581	-133.023	0.151	0.019
-355.566	800.000	-0.040	0.143
-354.552	149.263	-0.143	-0.193
-353.537	-200.000	-0.002	-0.012
-352.523	800.000	-0.110	0.405
-351.508	-88.631	-0.241	-0.071
-350.493	-80.777	0.109	0.036
-349.479	-71.509	0.276	-0.103
-348.464	-2.792	-0.117	0.082
-347.450	-23.303	0.135	0.081
-346.435	606.771	0.151	-0.374
-345.420	800.000	-0.221	0.620
-344.406	-62.820	-0.386	0.159
-343.391	-38.613	0.245	0.129
-342.377	-200.000	-0.026	0.116
-341.362	137.049	-0.073	-0.095
-340.348	-200.000	0.026	0.161
-339.333	258.906	0.030	-0.051
-338.318	-57.350	-0.176	-0.077
-337.304	-200.000	-0.008	-0.150
-336.289	-111.927	-0.274	0.055
-335.275	-68.594	0.021	0.008
-334.260	-29.660	-0.090	0.051
-333.245	689.562	0.027	-0.071
-332.231	-34.147	0.112	0.061
-331.216	-107.883	0.209	0.045
-330.202	-50.157	0.219	0.103
-329.187	-200.000	0.069	0.310
-328.172	-112.451	0.187	0.037
-327.158	-89.603	0.146	0.043
-326.143	-60.760	0.249	0.105
-325.129	-116.128	0.191	0.035
-324.114	-98.887	0.093	0.024
-323.099	371.188	0.133	0.268
-322.085	-186.268	-0.285	0.004
-321.070	-130.921	-0.218	-0.029
-320.056	-130.183	0.262	0.035
-319.041	-5.185	0.134	0.092
-318.026	-113.884	-0.250	-0.048
-317.012	-200.000	-0.024	0.161
-315.997	-200.000	0.032	0.324
-314.983	359.985	-0.058	0.115
-313.968	415.723	0.077	0.163
-312.953	-139.748	-0.082	0.009
-311.939	4.210	-0.075	0.055
-310.924	-136.389	-0.518	0.060
-309.910	800.000	0.070	-0.276
-308.895	-200.000	0.031	-0.156
-307.880	638.316	-0.115	0.290
-306.866	-200.000	0.092	0.441
-305.851	399.516	-0.161	-0.335
-304.837	-200.000	0.006	-0.249
-303.822	-200.000	-0.002	0.054
-302.807	-122.819	0.517	0.083
-301.793	-56.386	-0.230	0.101
-300.778	249.325	-0.017	0.029
-299.764	26.665	-0.162	0.135
-298.749	-200.000	-0.032	0.189
-297.735	61.344	0.243	-0.240
-296.720	-183.989	-0.308	-0.005
-295.705	74.414	0.210	-0.219
-294.691	-128.364	-0.341	-0.048
-293.676	-27.578	-0.141	0.081
-292.662	-200.000	-0.029	-0.224
-291.647	800.000	-0.081	-0.296
-290.632	800.000	0.068	-0.186
-289.618	-200.000	-0.009	-0.099
-288.603	292.337	0.118	0.214
-287.589	-83.345	-0.531	-0.169
-286.574	-62.607	0.238	-0.098
-285.559	-111.346	0.193	0.039
-284.545	33.115	0.117	-0.101
-283.530	-200.000	-0.023	0.144
-282.516	800.000	0.043	-0.139
-281.501	65.110	-0.114	-0.114
-280.486	21.619	-0.259	-0.209
-279.472	-200.000	-0.017	-0.331
-278.457	-200.000	-0.020	0.245
-277.443	-25.075	-0.375	0.221
-276.428	-65.994	0.167	0.066
-275.413	800.000	-0.010	0.028
-274.399	-200.000	0.053	0.232
-273.384	-11.390	-0.124	0.081
-272.370	-61.969	0.289	0.120
-271.355	-121.192	0.378	-0.063
-270.340	1.771	0.233	0.167
-269.326	303.829	-0.211	0.387
-268.311	-200.000	-0.024	-0.188
-267.297	94.048	-0.165	0.185
-266.282	-200.000	0.015	-0.239
-265.267	-98.578	-0.272	0.069
-264.253	63.220	0.232	-0.231
-263.238	135.698	-0.075	0.097
-262.224	-127.724	-0.196	0.028
-261.209	-61.912	-0.309	0.128
-260.195	-200.000	-0.040	0.265
-259.180	97.915	0.186	0.212
-258.165	232.414	0.049	0.079
-257.151	800.000	-0.060	-0.239
-256.136	410.248	0.136	0.285
-255.122	-168.208	-0.200	0.008
-254.107	-164.208	-0.333	-0.015
-253.092	-200.000	-0.000	-0.031
-252.078	81.413	0.210	-0.225
-251.063	27.928	0.117	-0.098
-250.049	800.000	0.056	0.209
-249.034	-200.000	0.057	-0.319
-248.019	-117.770	0.366	-0.065
-247.005	-67.104	0.100	-0.039
-245.990	-105.081	-0.259	0.059
-244.976	103.401	-0.156	-0.181
-243.961	466.250	0.090	-0.200
-242.946	-171.406	-0.217	-0.007
-241.932	72.716	-0.276	-0.285
-240.917	800.000	0.038	-0.157
-239.903	241.625	0.079	0.130
-238.888	800.000	0.061	-0.184
-237.873	800.000	-0.034	0.101
-236.859	455.309	-0.085	0.186
-235.844	-52.739	-0.059	0.027
-234.830	132.735	-0.056	-0.072
-233.815	-95.713	-0.014	0.004
-232.800	-170.299	-0.177	0.006
-231.786	228.121	-0.262	-0.423
-230.771	3.847	-0.052	-0.037
-229.757	-200.000	-0.015	-0.129
-228.742	162.692	0.264	-0.366
-227.727	46.603	0.147	0.135
-226.713	-77.573	0.142	-0.049
-225.698	-200.000	-0.018	0.247
-224.684	-10.093	-0.115	0.076
-223.669	800.000	0.037	-0.112
-222.655	57.152	0.056	-0.054
-221.640	-200.000	-0.001	-0.106
-220.625	-200.000	0.036	0.633
-219.611	466.741	-0.098	0.217
-218.596	-108.513	0.223	-0.047
-217.582	-109.070	-0.358	-0.075
-216.567	-148.025	0.340	-0.028
-215.552	267.563	-0.085	0.147
-214.538	-200.000	0.039	-0.184
-213.523	45.330	-0.343	-0.313
-212.509	-59.887	0.165	0.070
-211.494	-13.561	0.115	0.074
-210.479	293.109	-0.113	-0.204
-209.465	422.410	0.019	0.040
-208.450	126.097	-0.268	0.336
-207.436	-93.120	0.134	-0.037
-206.421	-70.553	0.168	0.063
-205.406	591.283	0.033	-0.080
-204.392	-129.129	-0.431	-0.060
-203.377	-58.212	-0.094	-0.041
-202.363	-200.000	0.016	-0.170
-201.348	457.115	-0.068	-0.150
-200.333	-94.237	0.320	-0.087
-199.319	-46.901	-0.205	0.099
-198.304	470.024	-0.122	0.271
-197.290	37.715	-0.098	-0.086
-196.275	45.309	0.297	-0.271
-195.260	-40.951	-0.205	0.105
-194.246	-200.000	-0.044	-0.411
-193.231	-200.000	-0.010	-0.196
-192.217	-101.958	-0.190	0.045
-191.202	3.314	-0.209	-0.150
-190.187	-177.434	-0.126	0.003
-189.173	166.378	-0.010	0.014
-188.158	1.363	-0.482	0.343
-187.144	-78.197	0.162	-0.055
-186.129	-27.212	-0.266	0.153
-185.114	-200.000	0.018	-0.196
-184.100	202.365	-0.146	-0.222
-183.085	-92.499	0.391	0.108
-182.071	-101.839	-0.179	0.043
-181.056	-49.206	0.149	-0.070
-180.042	-104.990	0.311	-0.070
-179.027	-71.325	-0.497	-0.184
-178.012	-200.000	-0.010	0.166
-176.998	83.985	0.137	-0.148
-175.983	680.108	0.047	-0.121
-174.969	82.764	0.056	0.060
-173.954	-39.855	0.174	-0.090
-172.939	644.748	-0.102	-0.258
-171.925	800.000	-0.101	0.286
-170.910	-200.000	-0.014	0.093
-169.896	-200.000	0.032	0.273
-168.881	708.456	0.125	0.327
-167.866	-200.000	-0.011	-0.055
-166.852	367.288	0.121	-0.241
-165.837	-22.003	0.109	-0.066
-164.823	14.993	0.401	0.310
-163.808	-130.597	-0.138	0.018
-162.793	103.129	0.182	-0.211
-161.779	91.801	0.205	-0.228
-160.764	800.000	-0.047	-0.195
-159.750	357.134	0.104	0.206
-158.735	161.575	-0.014	0.020
-157.720	-200.000	-0.000	0.215
-156.706	-78.558	0.271	-0.091
-155.691	352.762	0.126	0.247
-154.677	-132.177	0.589	-0.075
-153.662	-200.000	-0.015	-0.119
-152.647	-200.000	0.046	-0.246
-151.633	33.418	0.288	0.247
-150.618	-127.221	0.107	-0.015
-149.604	222.602	-0.119	0.189
-148.589	422.468	-0.068	-0.144
-147.574	-147.510	0.185	0.015
-146.560	-176.388	0.240	0.006
-145.545	618.608	-0.097	0.241
-144.531	43.091	0.188	0.169
-143.516	-92.120	-0.202	-0.056
-142.502	-90.566	0.229	0.065
-141.487	-166.904	0.320	-0.013
-140.472	136.075	0.237	-0.305
-139.458	-21.887	0.156	0.094
-138.443	190.171	-0.174	0.257
-137.429	-105.631	0.066	0.015
-136.414	-143.150	-0.284	-0.027
-135.399	98.686	0.200	0.227
-134.385	-166.377	0.227	0.009
-133.370	153.936	0.117	0.158
-132.356	-119.618	0.360	0.061
-131.341	-32.227	-0.175	-0.097
-130.326	-200.000	0.053	-0.283
-129.312	146.085	0.022	-0.029
-128.297	-78.883	0.113	-0.038
-127.283	-200.000	0.000	-0.071
-126.268	-70.673	0.120	-0.045
-125.253	-147.306	-0.154	0.013
-124.239	-103.305	-0.359	0.083
-123.224	23.441	-0.011	0.009
-122.210	237.715	-0.022	-0.036
-121.195	800.000	-0.034	-0.095
-120.180	-141.457	-0.044	-0.004
-119.166	25.878	-0.172	-0.142
-118.151	124.165	0.027	0.034
-117.137	88.182	-0.054	0.059
-116.122	800.000	-0.039	-0.141
-115.107	567.228	0.043	0.102
-114.093	-56.194	0.413	0.181
-113.078	271.601	-0.097	0.168
-112.064	-92.254	-0.311	-0.086
-111.049	-83.488	-0.281	-0.089
-110.034	-200.000	0.030	0.166
-109.020	-57.684	-0.157	-0.068
-108.005	800.000	0.160	0.513
-106.991	-64.223	0.059	-0.024
-105.976	238.745	0.272	-0.446
-104.962	150.646	0.138	0.185
-103.947	-200.000	-0.013	0.478
-102.932	-200.000	0.039	0.368
-101.918	-200.000	0.026	0.127
-100.903	563.249	0.095	0.226
-99.889	77.216	-0.023	0.024
-98.874	-200.000	-0.015	-0.114
-97.859	800.000	0.027	-0.089
-96.845	40.753	0.101	-0.090
-95.830	800.000	0.089	0.254
-94.816	-200.000	0.025	0.495
-93.801	-200.000	-0.006	-0.293
-92.786	-141.060	-0.300	0.030
-91.772	-136.634	0.268	0.031
-90.757	-48.980	-0.114	-0.054
-89.743	-160.409	-0.290	0.015
-88.728	800.000	0.042	-0.176
-87.713	-91.861	0.098	0.027
-86.699	216.213	-0.172	0.269
-85.684	-200.000	-0.078	-0.422
-84.670	612.760	-0.069	-0.170
-83.655	191.726	-0.252	-0.374
-82.640	-36.435	-0.173	-0.092
-81.626	-142.036	0.054	-0.005
-80.611	800.000	-0.078	-0.305
-79.597	-125.777	0.032	-0.005
-78.582	-111.622	-0.163	0.033
-77.567	189.766	-0.086	0.126
-76.553	365.966	-0.104	0.205
-75.538	184.598	-0.120	0.175
-74.524	-80.630	-0.114	-0.037
-73.509	-200.000	0.008	0.281
-72.494	-200.000	0.009	-0.112
-71.480	516.757	-0.081	-0.186
-70.465	43.588	0.209	-0.188
-69.451	-200.000	0.047	-0.441
-68.436	100.794	0.173	0.198
-67.422	-200.000	-0.003	-0.221
-66.407	-53.706	0.324	-0.145
-65.392	119.918	-0.155	-0.189
-64.378	800.000	-0.081	-0.243
-63.363	67.925	0.093	-0.094
-62.349	82.059	0.037	0.039
-61.334	174.200	-0.787	-1.118
-60.319	-52.634	0.895	0.406
-59.305	529.794	-0.432	-1.004
-58.290	700.657	0.409	1.058
-57.276	215.233	0.843	1.314
-56.261	-200.000	106.333	578.069
-55.246	456.934	1458.841	3184.868
-54.232	149.241	2642.404	3515.935
-53.217	106.958	2157.086	2518.472
-52.203	41.476	1604.644	1427.688
-51.188	33.254	1342.775	1145.144
-50.173	30.243	1301.395	1092.114
-49.159	53.515	1353.543	1276.196
-48.144	54.207	1369.249	1295.104
-47.130	33.491	1325.215	1131.403
-46.115	30.047	1307.531	1095.930
-45.100	29.790	1302.808	1090.411
-44.086	29.700	1300.509	1087.915
-43.071	29.710	1297.673	1085.557
-42.057	29.784	1295.585	1084.201
-41.042	29.707	1293.993	1082.375
-40.027	29.634	1293.004	1081.078
-39.013	29.749	1290.597	1079.695
-37.998	29.858	1288.579	1078.601
-36.984	29.816	1287.211	1077.166
-35.969	29.877	1285.385	1075.953
-34.954	29.906	1283.854	1074.793
-33.940	29.910	1282.391	1073.549
-32.925	29.924	1281.082	1072.495
-31.911	29.955	1279.573	1071.370
-30.896	29.948	1278.433	1070.328
-29.881	29.903	1277.230	1069.021
-28.867	29.983	1275.305	1067.828
-27.852	30.004	1273.933	1066.755
-26.838	30.055	1272.527	1065.834
-25.823	29.836	1271.972	1064.063
-24.809	29.983	1269.977	1063.196
-23.794	29.995	1268.400	1061.906
-22.779	29.966	1267.546	1060.981
-21.765	30.029	1265.876	1059.904
-20.750	29.914	1264.828	1058.324
-19.736	29.879	1263.703	1057.141
-18.721	29.837	1262.274	1055.666
-17.706	29.886	1260.798	1054.665
-16.692	29.972	1260.062	1054.501
-15.677	29.821	1259.126	1052.813
-14.663	29.802	1258.003	1051.728
-13.648	29.828	1256.824	1050.845
-12.633	29.859	1255.987	1050.284
-11.619	29.747	1255.311	1049.037
-10.604	29.880	1253.907	1048.577
-9.590	29.842	1253.046	1047.599
-8.575	29.812	1252.107	1046.604
-7.560	29.769	1250.948	1045.350
-6.546	29.755	1250.604	1044.943
-5.531	29.688	1249.779	1043.833
-4.517	29.795	1248.750	1043.536
-3.502	29.795	1248.189	1043.027
-2.487	29.840	1247.278	1042.479
-1.473	29.936	1242.583	1039.050
-0.458	28.466	1228.012	1018.665
0.556	23.279	1212.054	982.697
1.571	19.874	1218.096	968.482
2.586	19.049	1233.122	975.664
3.600	18.741	1221.961	965.018
4.615	13.845	1149.140	881.489
5.629	4.790	1072.594	777.638
6.644	0.522	1052.347	741.946
7.659	0.061	1050.300	738.172
8.673	-0.017	1049.101	736.882
9.688	-0.064	1047.780	735.660
10.702	0.220	1046.367	735.992
11.717	5.504	1053.124	766.619
12.731	14.121	1064.248	817.151
13.746	17.483	1067.883	836.414
14.761	17.009	1066.692	833.081
15.775	16.021	1064.483	826.442
16.790	14.882	1062.672	819.383
17.804	14.160	1060.958	814.454
18.819	13.876	1060.156	812.377
19.834	13.632	1058.888	810.139
20.848	13.347	1058.179	808.136
21.863	13.113	1057.148	806.135
22.877	12.976	1056.307	804.750
23.892	13.021	1055.812	804.523
24.907	12.938	1055.075	803.488
25.921	12.924	1054.327	802.776
26.936	13.007	1053.438	802.433
27.950	13.182	1052.305	802.349
28.965	13.194	1051.200	801.496
29.980	13.180	1050.163	800.567
30.994	13.297	1048.909	800.104
32.009	13.225	1048.023	799.010
33.023	13.259	1046.531	797.965
34.038	13.286	1045.502	797.240
35.053	13.241	1045.113	796.657
36.067	13.170	1044.134	795.499
37.082	13.249	1043.405	795.253
38.096	13.220	1042.488	794.343
39.111	13.210	1042.053	793.894
40.126	13.060	1040.853	792.188
41.140	12.994	1039.376	790.681
42.155	12.995	1037.934	789.516
43.169	13.027	1037.344	789.152
44.184	12.962	1036.575	788.185
45.199	12.930	1035.507	787.150
46.213	13.008	1034.437	786.639
47.228	12.998	1033.649	785.923
48.242	13.004	1032.459	784.979
49.257	13.053	1031.400	784.338
50.271	13.129	1030.612	784.030
51.286	13.196	1029.606	783.512
52.301	13.158	1028.676	782.555
53.315	13.081	1027.509	781.234
54.330	13.009	1026.549	780.096
55.344	13.086	1025.459	779.559
56.359	12.972	1025.144	778.713
57.374	13.079	1024.017	778.292
58.388	12.867	1023.268	776.658
59.403	12.866	1022.744	776.185
60.417	12.969	1021.604	775.737
61.432	12.928	1020.653	774.750
62.447	12.877	1020.263	774.146
63.461	12.997	1018.762	773.502
64.476	12.801	1018.750	772.507
65.490	12.899	1017.501	771.951
66.505	12.910	1016.776	771.383
67.520	12.855	1016.326	770.718
68.534	12.869	1015.476	770.070
69.549	12.914	1014.532	769.496
70.563	12.899	1014.043	768.986
71.578	12.799	1013.237	767.842
72.593	12.827	1012.592	767.413
73.607	12.815	1012.182	766.980
74.622	12.914	1010.751	766.289
75.636	12.760	1010.861	765.588
76.651	12.885	1009.653	765.184
77.666	12.843	1009.362	764.701
78.680	12.784	1008.455	763.674
79.695	12.889	1007.630	763.468
80.709	12.916	1007.162	763.172
81.724	12.931	1006.832	762.920
82.739	12.948	1005.785	762.140
83.753	13.032	1005.187	762.008
84.768	13.231	1004.299	762.185
85.782	13.278	1002.868	761.246
86.797	13.159	1002.189	760.120
87.812	13.191	1001.601	759.751
88.826	13.054	1000.515	758.230
89.841	13.106	999.505	757.639
90.855	13.153	998.827	757.270
91.870	13.206	998.095	756.895
92.884	13.154	997.241	755.940
93.899	13.240	996.392	755.623
94.914	13.353	995.303	755.246
95.928	13.296	995.170	754.820
96.943	13.302	993.878	753.800
97.957	13.102	993.291	752.373
98.972	13.267	991.881	751.990
99.987	13.090	991.456	750.799
101.001	13.287	990.017	750.539
102.016	13.147	989.600	749.520
103.030	13.242	988.682	749.185
104.045	13.159	988.207	748.387
105.060	13.228	986.887	747.634
106.074	13.096	986.368	746.575
107.089	13.107	984.887	745.437
108.103	12.975	984.636	744.586
109.118	13.137	983.236	744.191
110.133	13.054	982.401	743.119
111.147	12.995	981.570	742.163
112.162	13.032	981.066	741.880
113.176	13.086	980.468	741.603
114.191	13.006	979.434	740.398
115.206	12.988	979.040	739.954
116.220	13.039	978.077	739.390
117.235	13.067	977.107	738.716
118.249	13.124	976.105	738.148
119.264	13.116	975.029	737.234
120.279	13.130	974.379	736.739
121.293	13.028	973.856	735.824
122.308	12.948	973.157	734.876
123.322	13.206	971.456	734.673
124.337	13.036	970.715	733.290
125.352	13.066	969.854	732.709
126.366	13.132	968.252	731.726
127.381	13.010	967.649	730.665
128.395	13.038	967.012	730.245
129.410	12.944	966.069	729.054
130.424	13.022	965.077	728.584
131.439	13.110	964.321	728.336
132.454	13.217	963.857	728.394
133.468	13.100	963.034	727.192
134.483	13.075	962.234	726.412
135.497	13.178	961.289	726.091
136.512	13.212	959.873	725.103
137.527	13.065	959.386	724.027
138.541	13.265	958.722	724.340
139.556	13.239	957.965	723.588
140.570	13.256	957.450	723.209
141.585	13.220	956.537	722.297
142.600	13.274	955.744	721.873
143.614	13.275	954.697	721.021
144.629	13.368	953.746	720.643
145.643	13.392	952.945	720.079
146.658	13.223	951.879	718.477
147.673	13.135	951.462	717.716
148.687	13.379	949.815	717.466
149.702	13.247	949.416	716.532
150.716	13.183	948.850	715.765
151.731	13.297	948.307	715.783
152.746	13.334	947.829	715.518
153.760	13.217	947.318	714.565
154.775	13.281	946.333	714.035
155.789	13.310	945.502	713.470
156.804	13.388	944.921	713.304
157.819	13.387	944.043	712.573
158.833	13.481	943.533	712.529
159.848	13.499	942.895	712.061
160.862	13.498	941.822	711.186
161.877	13.288	941.237	709.780
162.892	13.421	939.876	709.262
163.906	13.380	939.022	708.379
164.921	13.269	938.647	707.557
165.935	13.295	937.700	706.894
166.950	13.484	936.503	706.734
167.964	13.413	935.603	705.690
168.979	13.487	934.924	705.431
169.994	13.478	933.848	704.520
171.008	13.450	933.349	703.960
172.023	13.499	932.800	703.693
173.037	13.581	931.650	703.111
174.052	13.549	930.988	702.413
175.067	13.484	930.735	701.883
176.081	13.380	930.148	700.939
177.096	13.327	930.127	700.636
178.110	13.405	929.122	700.147
179.125	13.550	928.248	700.038
180.140	13.597	927.708	699.770
181.154	13.671	927.179	699.621
182.169	13.575	927.043	699.048
183.183	13.506	926.517	698.301
184.198	13.617	925.396	697.860
185.213	13.704	924.084	697.174
186.227	13.678	924.154	697.059
187.242	13.754	923.269	696.649
188.256	13.775	922.866	696.372
189.271	13.686	921.799	695.129
190.286	13.527	921.228	693.971
191.300	13.535	920.979	693.759
192.315	13.532	920.428	693.267
193.329	13.425	919.554	692.099
194.344	13.568	918.626	691.937
195.359	13.720	917.350	691.552
196.373	13.678	917.569	691.479
197.388	13.807	917.076	691.583
198.402	13.835	916.664	691.328
199.417	13.835	915.880	690.678
200.432	13.843	915.379	690.270
201.446	13.977	914.552	690.144
202.461	14.064	914.269	690.229
203.475	14.086	913.519	689.692
204.490	13.893	912.802	688.289
205.504	13.985	911.968	687.982
206.519	13.995	911.180	687.370
207.534	13.942	910.656	686.692
208.548	13.940	909.915	686.064
209.563	13.906	909.435	685.503
210.577	13.899	908.946	685.044
211.592	13.945	908.334	684.712
212.607	14.020	907.642	684.437
213.621	13.926	906.850	683.393
214.636	14.025	905.956	683.066
215.650	14.112	905.173	682.774
216.665	14.174	904.224	682.251
217.680	14.129	903.961	681.808
218.694	14.094	903.376	681.161
219.709	14.184	902.362	680.707
220.723	14.121	901.919	680.055
221.738	14.270	900.845	679.792
222.753	14.199	900.402	679.111
223.767	14.411	899.521	679.249
224.782	14.286	899.442	678.620
225.796	14.341	898.912	678.383
226.811	14.225	898.580	677.600
227.826	14.338	897.404	677.114
228.840	14.201	896.830	676.064
229.855	14.211	896.087	675.483
230.869	14.190	895.269	674.723
231.884	14.201	894.585	674.189
232.899	14.373	893.218	673.797
233.913	14.262	892.813	672.985
234.928	14.136	892.515	672.188
235.942	14.231	891.959	672.094
236.957	14.216	891.341	671.510
237.972	14.238	890.496	670.904
238.986	14.397	890.030	671.133
240.001	14.388	889.598	670.712
241.015	14.181	889.076	669.427
242.030	14.393	888.131	669.508
243.045	14.415	887.522	669.079
244.059	14.357	886.940	668.348
245.074	14.351	886.531	667.954
246.088	14.453	885.790	667.747
247.103	14.444	884.858	666.949
248.117	14.575	884.875	667.424
249.132	14.602	883.860	666.712
250.147	14.452	883.860	666.051
251.161	14.631	882.929	666.006
252.176	14.751	882.039	665.753
253.190	14.863	881.145	665.465
254.205	14.767	880.740	664.719
255.220	14.708	880.136	663.969
256.234	14.916	879.254	664.070
257.249	14.649	878.817	662.623
258.263	14.969	877.982	663.203
259.278	14.839	877.298	662.114
260.293	14.844	877.099	661.925
261.307	14.924	876.532	661.755
262.322	14.946	875.699	661.155
263.336	15.052	874.675	660.739
264.351	14.999	874.302	660.193
265.366	14.901	873.549	659.179
266.380	15.043	873.080	659.326
267.395	14.964	872.393	658.436
268.409	14.970	871.713	657.890
269.424	14.922	870.784	656.941
270.439	14.971	870.238	656.662
271.453	14.887	869.717	655.882
272.468	14.996	869.088	655.778
273.482	14.873	868.559	654.838
274.497	14.957	868.147	654.799
275.512	15.026	867.509	654.531
276.526	15.080	867.119	654.389
277.541	15.043	866.438	653.674
278.555	15.178	865.741	653.618
279.570	15.209	864.769	652.946
280.585	15.213	864.162	652.445
281.599	15.214	863.575	651.945
282.614	15.128	863.225	651.291
283.628	15.209	862.405	650.930
284.643	15.083	862.368	650.355
285.657	15.038	861.615	649.553
286.672	15.178	860.674	649.328
287.687	15.217	859.987	648.904
288.701	15.279	859.511	648.729
289.716	15.268	858.975	648.226
290.730	15.230	858.565	647.708
291.745	15.407	857.560	647.578
292.760	15.334	857.252	647.005
293.774	15.409	856.820	646.913
294.789	15.281	856.363	646.017
295.803	15.278	855.509	645.304
296.818	15.342	854.651	644.845
297.833	15.408	853.836	644.427
298.847	15.305	853.271	643.550
299.862	15.362	852.964	643.479
300.876	15.523	852.199	643.464
301.891	15.513	851.750	643.026
302.906	15.463	851.449	642.553
303.920	15.621	850.758	642.577
304.935	15.635	849.960	641.973
305.949	15.477	849.866	641.240
306.964	15.497	849.080	640.668
307.979	15.528	848.589	640.359
308.993	15.573	847.862	639.922
310.008	15.676	847.083	639.673
311.022	15.668	846.850	639.409
312.037	15.721	845.754	638.727
313.052	15.494	845.529	637.638
314.066	15.471	845.101	637.172
315.081	15.601	844.523	637.170
316.095	15.549	843.952	636.488
317.110	15.711	843.228	636.497
318.125	15.594	843.126	635.922
319.139	15.587	842.497	635.364
320.154	15.569	842.402	635.167
321.168	15.717	841.707	635.149
322.183	15.696	840.653	634.219
323.197	15.667	840.426	633.878
324.212	15.707	839.728	633.447
325.227	15.718	839.353	633.150
326.241	15.630	838.720	632.286
327.256	15.773	838.338	632.481
328.270	15.728	837.767	631.824
329.285	15.709	837.182	631.254
330.300	15.777	836.302	630.791
331.314	15.736	835.775	630.186
332.329	15.832	835.284	630.117
333.343	15.881	834.829	629.902
334.358	15.851	834.652	629.601
335.373	15.946	833.710	629.189
336.387	15.880	833.975	629.087
337.402	15.879	833.935	628.997
338.416	15.992	833.012	628.666
339.431	16.046	833.073	628.861
340.446	16.096	832.293	628.401
341.460	16.092	832.321	628.350
342.475	16.177	831.542	628.024
343.489	16.139	830.897	627.341
344.504	16.081	830.567	626.820
345.519	16.287	830.055	627.144
346.533	16.154	829.784	626.389
347.548	16.191	829.277	626.087
348.562	16.279	828.090	625.464
349.577	16.067	828.406	624.861
350.592	16.034	827.848	624.261
351.606	16.223	826.704	624.044
352.621	16.035	826.447	623.100
353.635	16.216	825.410	622.931
354.650	16.233	824.838	622.506
355.665	16.287	823.739	621.819
356.679	16.306	823.717	621.820
357.694	16.226	822.995	620.927
358.708	16.356	822.450	620.937
359.723	16.273	821.777	620.068
360.738	16.349	820.907	619.636
361.752	16.311	820.641	619.239
362.767	16.484	819.813	619.196
363.781	16.336	819.510	618.370
364.796	16.547	818.780	618.538
365.810	16.390	818.805	617.928
366.825	16.593	818.307	618.236
367.840	16.556	817.832	617.687
368.854	16.459	817.368	616.929
369.869	16.563	816.837	616.855
370.883	16.637	816.278	616.647
371.898	16.472	816.253	615.972
372.913	16.596	815.642	615.907
373.927	16.610	815.141	615.527
374.942	16.574	814.523	614.874
375.956	16.699	814.184	615.017
376.971	16.833	813.580	614.993
377.986	16.775	813.407	614.599
379.000	16.614	813.326	613.897
380.015	16.698	812.737	613.702
381.029	16.779	811.940	613.339
382.044	16.886	811.154	613.079
383.059	16.776	810.707	612.292
384.073	16.727	810.351	611.791
385.088	16.699	809.922	611.311
386.102	16.659	809.134	610.519
387.117	16.750	808.667	610.440
388.132	16.748	807.899	609.800
389.146	16.903	807.313	609.858
390.161	16.869	807.174	609.578
391.175	16.926	806.659	609.339
392.190	16.800	806.411	608.646
393.205	16.702	805.726	607.723
394.219	16.638	805.521	607.286
395.234	16.682	805.326	607.243
396.248	16.888	804.458	607.273
397.263	16.833	803.909	606.609
398.278	16.906	803.530	606.530
399.292	16.854	802.923	605.832
400.307	16.767	802.896	605.446
401.321	16.897	802.128	605.280
402.336	16.926	801.697	605.005
403.350	16.975	801.120	604.688
404.365	17.097	800.692	604.745
405.380	17.078	800.396	604.402
406.394	16.956	799.976	603.597
407.409	17.286	799.234	604.159
408.423	16.972	799.442	603.144
409.438	17.210	798.828	603.471
410.453	17.366	798.724	603.896
411.467	17.217	797.736	602.567
412.482	17.211	797.621	602.405
413.496	17.339	797.160	602.456
414.511	17.192	796.632	601.485
415.526	17.297	796.547	601.739
416.540	17.248	795.918	601.035
417.555	17.331	795.294	600.805
418.569	17.282	794.831	600.230
419.584	17.193	794.830	599.859
420.599	17.300	794.302	599.789
421.613	108.934	1290.677	1468.033
422.628	93.591	1362.987	1468.161
