DTS Sentinel unit serial number:	SN413079Multiplexer serial number:	ORYXHardware model number:	OX4-SRSoftware version number:	ORYX F/W v4.00 Oryx Data Collector v3.7.2.0data status	okinstallation	princeton_trtdifferential loss correction	single-endedforward channel	channel 1reverse channel	N/Adate	2019/09/12time	02:44:11forward acquisition time	60.00reverse acquisition time	0.00gamma	496.2192k internal	0.2322k external	0.2322temperature offset calibration	1.0081default loss term (dB/km)	0.3790temperature slope calibration	1.0000multiplexer offset coefficient	1.0000multiplexer slope coefficient	1.0000fibre end	0.00T internal ref (°C)	32.37T ext. ref 1 (°C)	2.09T ext. ref 2 (°C)	26.97length (m)	temperature (°C)	Stokes	anti-Stokes-747.200	54.486	-0.344	0.335
-746.185	754.201	0.045	0.124
-745.171	-25.726	0.116	-0.069
-744.156	76.248	0.134	0.143
-743.142	-84.282	0.221	-0.071
-742.127	-1.682	0.209	-0.149
-741.112	-81.099	-0.114	0.038
-740.098	247.696	-0.088	-0.150
-739.083	-105.919	-0.435	-0.099
-738.069	65.486	-0.166	-0.170
-737.054	118.768	-0.104	-0.130
-736.039	-200.000	-0.018	-0.251
-735.025	29.879	-0.231	0.199
-734.010	237.863	-0.195	-0.327
-732.996	-139.715	-0.290	0.031
-731.981	-200.000	-0.012	-0.164
-730.966	-69.929	-0.382	0.147
-729.952	-2.794	-0.235	-0.166
-728.937	-139.609	-0.224	-0.024
-727.923	-200.000	0.005	-0.080
-726.908	800.000	-0.040	0.166
-725.894	-200.000	-0.022	0.146
-724.879	800.000	0.055	0.207
-723.864	57.537	-0.089	0.088
-722.850	800.000	0.069	0.287
-721.835	-200.000	-0.026	0.342
-720.821	248.897	0.024	-0.041
-719.806	-83.505	-0.224	0.072
-718.791	-43.753	0.070	-0.036
-717.777	-128.221	0.330	-0.048
-716.762	-150.603	-0.163	0.013
-715.748	-81.795	0.061	0.020
-714.733	-52.775	-0.241	-0.112
-713.718	-200.000	0.002	-0.220
-712.704	268.483	-0.101	-0.178
-711.689	800.000	-0.045	0.160
-710.675	-148.321	0.145	0.012
-709.660	339.163	-0.194	-0.382
-708.645	-200.000	-0.018	0.165
-707.631	800.000	0.096	-0.344
-706.616	-40.768	0.180	0.094
-705.602	-47.575	-0.248	0.121
-704.587	283.584	0.111	-0.202
-703.572	-88.936	0.199	0.059
-702.558	346.248	-0.235	0.465
-701.543	800.000	-0.050	0.155
-700.529	76.114	-0.185	0.198
-699.514	-84.887	-0.220	-0.070
-698.499	194.654	-0.138	0.211
-697.485	-103.431	0.272	-0.065
-696.470	79.857	-0.054	-0.059
-695.456	-152.825	-0.099	-0.007
-694.441	-93.583	0.165	0.046
-693.426	602.728	-0.143	0.359
-692.412	-20.383	-0.168	-0.104
-691.397	-28.353	-0.050	0.029
-690.383	800.000	0.033	0.124
-689.368	-136.445	-0.324	-0.038
-688.354	-122.783	-0.248	0.040
-687.339	-129.253	0.286	-0.040
-686.324	-200.000	0.026	-0.138
-685.310	-94.900	0.008	0.002
-684.295	611.383	0.054	-0.137
-683.281	243.233	0.191	-0.324
-682.266	800.000	0.021	-0.064
-681.251	800.000	0.028	-0.102
-680.237	-68.225	-0.076	0.030
-679.222	68.522	-0.284	-0.294
-678.208	17.418	0.038	-0.030
-677.193	-99.931	-0.390	-0.098
-676.178	191.061	-0.106	-0.161
-675.164	14.298	0.310	0.244
-674.149	-128.756	0.169	-0.024
-673.135	410.767	0.078	-0.166
-672.120	-41.757	-0.189	-0.098
-671.105	-71.599	-0.081	-0.030
-670.091	-200.000	-0.047	-0.222
-669.076	-72.419	0.123	-0.046
-668.062	-59.146	0.196	-0.085
-667.047	-96.809	-0.161	-0.043
-666.032	-15.147	0.160	-0.103
-665.018	-4.343	-0.262	0.183
-664.003	-8.426	0.216	-0.146
-662.989	13.416	0.105	0.082
-661.974	330.876	-0.079	0.154
-660.959	-17.704	-0.190	-0.120
-659.945	-20.589	-0.034	-0.021
-658.930	-164.795	-0.209	-0.009
-657.916	-200.000	0.043	0.231
-656.901	54.766	0.162	0.157
-655.886	88.514	0.241	-0.270
-654.872	120.646	0.112	-0.140
-653.857	800.000	0.076	-0.308
-652.843	-200.000	-0.029	-0.159
-651.828	-105.735	-0.220	-0.050
-650.814	131.090	-0.148	-0.192
-649.799	-144.739	-0.263	-0.024
-648.784	-200.000	0.003	-0.622
-647.770	105.732	-0.120	-0.143
-646.755	738.436	0.025	-0.067
-645.741	-200.000	-0.028	-0.145
-644.726	61.382	-0.288	-0.288
-643.711	-200.000	-0.031	0.357
-642.697	-200.000	-0.036	0.231
-641.682	-200.000	0.024	-0.342
-640.668	17.457	-0.064	-0.051
-639.653	-20.521	-0.271	-0.168
-638.638	23.195	0.210	-0.174
-637.624	121.303	-0.178	-0.223
-636.609	800.000	0.130	0.375
-635.595	-126.226	0.194	0.029
-634.580	27.866	-0.078	-0.066
-633.565	62.547	-0.208	-0.209
-632.551	-200.000	0.004	0.125
-631.536	781.275	-0.027	0.075
-630.522	-72.321	0.201	0.075
-629.507	-200.000	0.018	-0.216
-628.492	127.673	-0.198	-0.253
-627.478	146.192	-0.086	-0.116
-626.463	-200.000	0.067	0.399
-625.449	651.320	0.050	0.129
-624.434	-129.960	0.102	0.014
-623.419	-200.000	0.048	0.424
-622.405	800.000	-0.151	0.623
-621.390	800.000	0.082	0.237
-620.376	-200.000	-0.035	-0.421
-619.361	113.064	-0.136	0.165
-618.346	-115.641	0.222	-0.042
-617.332	-45.821	-0.325	0.161
-616.317	-135.765	0.269	-0.032
-615.303	-200.000	0.039	0.235
-614.288	-79.174	0.220	0.075
-613.273	-51.977	-0.239	-0.112
-612.259	45.730	-0.147	-0.136
-611.244	381.504	0.092	-0.190
-610.230	-3.818	-0.105	-0.073
-609.215	282.484	-0.037	0.067
-608.201	-115.568	-0.636	0.120
-607.186	-0.937	-0.213	-0.152
-606.171	722.476	-0.119	0.318
-605.157	-55.798	-0.123	-0.055
-604.142	800.000	0.091	-0.346
-603.128	203.493	-0.231	-0.360
-602.113	-66.690	-0.047	-0.019
-601.098	-22.835	0.221	0.134
-600.084	-93.781	0.122	-0.034
-599.069	154.181	0.190	-0.261
-598.055	-108.778	0.293	0.063
-597.040	800.000	-0.061	0.235
-596.025	-128.021	0.228	0.033
-595.011	-200.000	-0.016	-0.417
-593.996	33.074	0.123	0.107
-592.982	-182.849	0.437	-0.008
-591.967	-129.800	-0.185	0.026
-590.952	-82.154	-0.170	0.056
-589.938	-64.252	0.228	0.093
-588.923	-140.798	0.033	-0.003
-587.909	-200.000	0.012	0.630
-586.894	206.148	-0.108	-0.169
-585.879	11.331	-0.025	-0.019
-584.865	-120.596	-0.408	-0.069
-583.850	434.690	0.041	0.090
-582.836	45.549	-0.247	0.229
-581.821	307.679	-0.131	-0.245
-580.806	-90.940	-0.276	-0.080
-579.792	800.000	0.089	0.297
-578.777	-200.000	-0.051	0.270
-577.763	-138.596	0.464	-0.051
-576.748	26.361	0.221	-0.185
-575.733	-81.573	-0.385	-0.127
-574.719	-200.000	0.006	0.056
-573.704	-34.350	-0.472	0.260
-572.690	189.847	0.077	0.116
-571.675	-200.000	0.029	0.173
-570.661	800.000	0.020	-0.080
-569.646	800.000	-0.062	0.243
-568.631	80.224	0.202	0.219
-567.617	18.995	0.211	0.170
-566.602	-111.506	-0.035	-0.007
-565.588	-100.790	-0.354	-0.087
-564.573	-156.825	0.086	0.005
-563.558	-200.000	0.006	0.044
-562.544	103.648	0.148	-0.174
-561.529	67.221	-0.064	0.065
-560.515	-3.150	-0.249	-0.175
-559.500	-172.565	-0.331	-0.010
-558.485	-1.354	-0.283	-0.201
-557.471	413.191	0.175	0.373
-556.456	-42.479	-0.420	0.215
-555.442	-131.651	-0.331	-0.044
-554.427	-200.000	-0.002	-0.329
-553.412	-99.861	0.300	0.075
-552.398	-174.088	-0.283	0.008
-551.383	-79.171	-0.331	0.113
-550.369	92.126	-0.052	0.058
-549.354	-149.210	0.155	0.012
-548.339	-14.317	-0.167	0.108
-547.325	-200.000	0.004	0.046
-546.310	206.828	-0.038	-0.060
-545.296	-200.000	-0.041	-0.254
-544.281	80.914	-0.051	0.055
-543.266	33.230	0.119	-0.104
-542.252	-163.366	0.307	0.015
-541.237	-107.467	-0.258	0.057
-540.223	-49.846	0.235	-0.112
-539.208	470.429	0.212	-0.478
-538.193	-200.000	0.243	-0.000
-537.179	14.338	0.079	0.062
-536.164	462.056	-0.046	0.102
-535.150	315.161	0.132	-0.249
-534.135	-43.712	0.297	-0.150
-533.121	-66.241	0.209	0.083
-532.106	-179.215	-0.241	-0.005
-531.091	-37.280	-0.312	-0.167
-530.077	-67.933	0.142	0.055
-529.062	100.979	-0.058	-0.068
-528.048	195.326	-0.195	-0.297
-527.033	-200.000	0.011	-0.092
-526.018	230.059	-0.038	-0.062
-525.004	-16.860	-0.119	0.076
-523.989	-200.000	0.037	0.268
-522.975	2.326	0.274	0.198
-521.960	-16.325	0.062	0.039
-520.945	-200.000	-0.011	-0.259
-519.931	-85.597	0.176	-0.055
-518.916	-138.704	0.288	-0.032
-517.902	-72.020	-0.021	0.008
-516.887	174.376	-0.090	-0.131
-515.872	-81.280	-0.091	-0.030
-514.858	-117.680	0.121	0.022
-513.843	71.326	-0.066	-0.069
-512.829	-138.712	-0.221	-0.024
-511.814	-145.614	-0.043	0.004
-510.799	153.804	-0.059	-0.082
-509.785	-200.000	0.009	-0.252
-508.770	-107.296	-0.320	-0.070
-507.756	800.000	0.096	0.344
-506.741	48.188	-0.082	0.077
-505.726	-72.894	-0.263	-0.097
-504.712	222.357	0.067	-0.107
-503.697	-113.988	0.054	-0.010
-502.683	316.880	0.192	-0.363
-501.668	-79.627	-0.146	-0.049
-500.653	-7.369	0.103	0.070
-499.639	-178.013	-0.492	0.012
-498.624	-136.109	-0.113	-0.013
-497.610	-85.141	-0.113	0.035
-496.595	-12.893	-0.159	0.103
-495.581	-158.806	-0.109	-0.006
-494.566	105.198	-0.079	0.093
-493.551	-92.544	0.287	0.081
-492.537	98.015	-0.203	-0.234
-491.522	-100.390	0.124	-0.031
-490.508	-80.804	-0.099	0.033
-489.493	162.206	0.123	-0.172
-488.478	429.678	-0.049	-0.105
-487.464	-200.000	0.053	0.235
-486.449	23.752	0.105	-0.087
-485.435	255.067	-0.049	-0.084
-484.420	-35.778	0.233	0.126
-483.405	706.916	0.202	-0.533
-482.391	763.408	-0.061	0.164
-481.376	-168.869	-0.537	0.020
-480.362	-189.534	-0.353	-0.004
-479.347	80.315	0.206	0.221
-478.332	32.720	-0.185	-0.160
-477.318	-200.000	-0.018	0.162
-476.303	-51.702	0.475	-0.221
-475.289	3.816	-0.129	-0.094
-474.274	334.408	-0.145	0.280
-473.259	100.861	-0.039	0.046
-472.245	-200.000	0.010	0.048
-471.230	-59.653	0.030	-0.013
-470.216	63.751	-0.145	-0.146
-469.201	-51.076	-0.035	-0.016
-468.186	-39.895	0.253	0.132
-467.172	222.355	0.090	-0.144
-466.157	387.798	-0.061	0.125
-465.143	800.000	0.035	-0.135
-464.128	-42.857	0.210	-0.107
-463.113	472.581	-0.187	-0.420
-462.099	-27.625	0.265	0.154
-461.084	800.000	-0.035	0.126
-460.070	14.164	-0.200	0.156
-459.055	-101.025	0.118	-0.029
-458.040	800.000	0.115	-0.452
-457.026	-106.325	0.140	-0.031
-456.011	484.827	0.193	0.440
-454.997	20.999	0.212	-0.172
-453.982	21.152	-0.131	-0.106
-452.968	-6.830	-0.221	-0.150
-451.953	-46.866	-0.143	-0.070
-450.938	-1.746	0.398	0.280
-449.924	800.000	0.044	0.140
-448.909	-9.729	-0.291	-0.194
-447.895	-95.534	0.257	-0.069
-446.880	59.801	-0.188	0.185
-445.865	-74.315	-0.163	-0.059
-444.851	-57.209	-0.136	-0.060
-443.836	-200.000	-0.006	-0.049
-442.822	-200.000	0.008	0.211
-441.807	-200.000	0.010	0.303
-440.792	-96.404	0.318	-0.084
-439.778	-9.223	-0.077	0.051
-438.763	-9.612	-0.265	0.177
-437.749	800.000	-0.095	-0.271
-436.734	-200.000	-0.018	-0.143
-435.719	601.613	-0.075	0.186
-434.705	105.563	-0.159	-0.187
-433.690	-200.000	-0.002	-0.053
-432.676	-37.083	-0.076	-0.041
-431.661	-17.747	-0.157	-0.099
-430.646	-59.329	-0.063	-0.027
-429.632	-44.568	-0.353	-0.176
-428.617	-200.000	-0.038	0.174
-427.603	-98.843	-0.226	-0.057
-426.588	190.303	-0.148	0.222
-425.573	800.000	0.063	0.183
-424.559	-98.845	0.123	0.031
-423.544	-200.000	-0.024	-0.112
-422.530	26.289	0.087	0.072
-421.515	-94.856	0.171	-0.046
-420.500	-95.348	0.301	-0.081
-419.486	-200.000	-0.001	-0.044
-418.471	-70.916	-0.133	0.050
-417.457	-200.000	0.067	0.568
-416.442	208.762	-0.101	0.157
-415.428	-60.059	0.173	0.074
-414.413	800.000	0.005	0.014
-413.398	-76.247	-0.200	0.070
-412.384	-200.000	0.029	-0.131
-411.369	228.243	0.067	-0.109
-410.355	219.407	0.146	-0.232
-409.340	-117.995	-0.198	-0.035
-408.325	-27.186	-0.248	0.144
-407.311	-18.164	-0.186	0.116
-406.296	-74.895	0.229	-0.082
-405.282	-120.161	-0.284	-0.048
-404.267	21.322	0.294	-0.238
-403.252	72.463	0.324	-0.337
-402.238	-170.210	0.300	-0.011
-401.223	114.363	0.107	-0.130
-400.209	-57.970	-0.147	-0.064
-399.194	714.391	0.055	0.145
-398.179	-53.376	0.396	0.181
-397.165	74.769	-0.176	-0.184
-396.150	2.934	0.030	-0.022
-395.136	410.476	0.175	-0.370
-394.121	139.611	-0.176	0.231
-393.106	-33.747	-0.094	-0.052
-392.092	-105.254	-0.239	0.054
-391.077	-171.614	-0.413	-0.014
-390.063	-176.142	-0.175	0.005
-389.048	-26.829	-0.047	-0.027
-388.033	-88.032	-0.080	0.024
-387.019	-126.847	0.165	-0.024
-386.004	-8.283	0.269	-0.180
-384.990	-200.000	0.000	0.020
-383.975	-200.000	-0.018	-0.314
-382.960	-77.230	-0.137	-0.048
-381.946	-200.000	0.001	-0.393
-380.931	-200.000	0.023	-0.123
-379.917	229.365	0.144	0.234
-378.902	-76.837	0.390	-0.136
-377.888	-200.000	-0.023	-0.121
-376.873	-132.573	-0.229	0.029
-375.858	-162.682	0.142	0.007
-374.844	-80.570	0.101	0.033
-373.829	4.624	0.127	-0.093
-372.815	800.000	-0.044	0.192
-371.800	-92.374	0.109	-0.031
-370.785	548.207	-0.242	0.578
-369.771	321.200	-0.173	0.328
-368.756	-17.548	0.126	-0.079
-367.742	800.000	0.100	0.339
-366.727	187.182	0.184	0.273
-365.712	190.134	-0.110	-0.164
-364.698	19.968	0.141	-0.113
-363.683	-200.000	0.025	0.149
-362.669	-200.000	0.001	-0.095
-361.654	227.610	-0.049	-0.080
-360.639	800.000	0.026	0.090
-359.625	-37.908	0.314	-0.166
-358.610	-200.000	-0.001	0.171
-357.596	-35.321	-0.041	0.022
-356.581	-131.436	0.379	-0.050
-355.566	608.033	-0.141	-0.350
-354.552	-13.515	0.262	-0.169
-353.537	-2.202	0.300	0.209
-352.523	136.972	-0.089	-0.115
-351.508	-117.665	0.430	-0.077
-350.493	61.274	-0.132	0.130
-349.479	224.869	0.148	0.238
-348.464	-152.322	0.144	0.010
-347.450	800.000	-0.047	0.129
-346.435	380.427	-0.031	0.063
-345.420	91.389	0.213	0.238
-344.406	115.425	0.154	0.188
-343.391	-153.312	-0.216	0.015
-342.377	-200.000	-0.004	0.064
-341.362	-65.487	-0.184	0.073
-340.348	-26.864	0.250	0.145
-339.333	-200.000	0.031	0.196
-338.318	-15.486	0.363	0.231
-337.304	-200.000	0.007	-0.416
-336.289	11.562	-0.097	-0.074
-335.275	36.497	0.186	-0.163
-334.260	1.779	0.213	-0.152
-333.245	-200.000	0.006	0.096
-332.231	132.707	0.117	0.150
-331.216	244.640	-0.218	0.364
-330.202	-115.173	0.320	-0.060
-329.187	-131.800	0.388	-0.051
-328.172	76.357	0.112	-0.118
-327.158	-200.000	0.047	0.375
-326.143	-30.461	-0.181	0.102
-325.129	-65.673	-0.293	-0.117
-324.114	-200.000	0.004	-0.084
-323.099	-35.155	-0.049	0.026
-322.085	47.304	0.114	-0.105
-321.070	54.716	0.163	0.156
-320.056	-154.524	0.202	0.013
-319.041	-75.218	-0.105	-0.037
-318.026	118.268	0.080	-0.099
-317.012	800.000	-0.064	0.221
-315.997	-98.634	-0.140	0.035
-314.983	-119.852	0.270	-0.046
-313.968	-131.285	0.035	0.005
-312.953	323.318	-0.119	-0.225
-311.939	98.232	-0.139	0.159
-310.924	40.064	-0.124	0.111
-309.910	-6.799	-0.398	0.269
-308.895	59.466	0.109	0.107
-307.880	-68.549	0.166	0.064
-306.866	29.969	0.155	0.132
-305.851	-52.141	0.280	-0.129
-304.837	-88.583	0.259	0.077
-303.822	-94.693	-0.296	-0.080
-302.807	-8.917	0.107	0.071
-301.793	800.000	0.082	0.342
-300.778	14.894	-0.028	0.022
-299.764	107.518	-0.105	0.124
-298.749	329.283	0.142	0.270
-297.735	-140.696	-0.173	-0.018
-296.720	-57.602	-0.480	-0.209
-295.705	284.262	0.026	0.047
-294.691	148.035	0.148	-0.198
-293.676	245.767	-0.177	-0.295
-292.662	30.322	0.072	-0.061
-291.647	251.025	-0.227	0.383
-290.632	313.252	0.076	0.142
-289.618	-71.276	-0.280	-0.104
-288.603	14.429	-0.091	0.071
-287.589	800.000	-0.085	-0.240
-286.574	36.430	-0.076	0.067
-285.559	-61.400	-0.150	-0.062
-284.545	358.128	-0.225	-0.445
-283.530	-200.000	-0.057	-0.277
-282.516	780.804	0.073	0.198
-281.501	502.852	0.200	0.460
-280.486	12.686	-0.187	-0.143
-279.472	800.000	0.051	-0.141
-278.457	-86.895	-0.214	0.065
-277.443	-81.025	-0.166	0.054
-276.428	-125.324	-0.087	0.013
-275.413	-200.000	0.002	0.204
-274.399	-77.373	0.311	-0.107
-273.384	-200.000	0.004	0.096
-272.370	-200.000	-0.006	-0.190
-271.355	171.290	-0.134	0.190
-270.340	-200.000	-0.027	0.448
-269.326	358.574	0.154	0.305
-268.311	326.555	0.108	0.204
-267.297	-200.000	0.017	-0.356
-266.282	90.386	-0.157	0.174
-265.267	50.089	0.072	0.067
-264.253	715.886	-0.017	-0.046
-263.238	800.000	0.057	-0.166
-262.224	26.162	-0.103	-0.085
-261.209	-111.362	0.230	-0.046
-260.195	-16.880	0.197	0.124
-259.180	800.000	-0.172	0.509
-258.165	800.000	-0.096	0.400
-257.151	-16.223	0.126	-0.079
-256.136	124.943	0.116	-0.145
-255.122	205.578	0.175	0.270
-254.107	139.826	-0.030	0.039
-253.092	-92.872	-0.089	-0.025
-252.078	800.000	0.139	-0.409
-251.063	65.710	0.112	-0.113
-250.049	-109.068	0.184	0.039
-249.034	-200.000	0.068	-0.348
-248.019	100.662	0.078	0.090
-247.005	-200.000	-0.004	-0.062
-245.990	267.884	0.008	0.014
-244.976	-200.000	-0.044	0.219
-243.961	145.133	0.311	-0.413
-242.946	-200.000	-0.019	-0.413
-241.932	-186.820	0.192	0.003
-240.917	192.520	0.021	-0.032
-239.903	98.085	0.147	-0.168
-238.888	-200.000	0.020	0.161
-237.873	36.739	0.024	0.021
-236.859	66.732	0.129	0.130
-235.844	-62.111	-0.252	-0.104
-234.830	-200.000	0.013	-0.211
-233.815	800.000	0.136	-0.391
-232.800	-11.583	-0.111	-0.072
-231.786	-200.000	0.002	0.247
-230.771	-143.942	0.158	0.015
-229.757	-14.264	0.161	0.103
-228.742	-200.000	-0.032	0.213
-227.727	-159.860	-0.169	0.009
-226.713	-200.000	0.007	-0.119
-225.698	-85.875	0.216	0.066
-224.684	493.369	0.062	0.140
-223.669	54.041	-0.076	-0.072
-222.655	203.262	-0.086	-0.132
-221.640	-43.613	0.272	0.136
-220.625	166.996	0.202	-0.284
-219.611	493.446	-0.158	0.360
-218.596	-200.000	0.048	-0.351
-217.582	93.281	0.203	-0.228
-216.567	39.825	0.082	-0.073
-215.552	800.000	-0.071	0.226
-214.538	-147.101	-0.334	0.028
-213.523	100.619	0.127	0.146
-212.509	800.000	0.076	-0.254
-211.494	-200.000	0.002	0.198
-210.479	27.732	-0.130	0.108
-209.465	-200.000	-0.047	0.265
-208.450	-200.000	0.293	0.000
-207.436	800.000	0.025	0.091
-206.421	47.810	-0.179	-0.165
-205.406	587.928	-0.100	0.243
-204.392	93.981	-0.122	0.137
-203.377	800.000	-0.111	-0.416
-202.363	-82.793	0.148	-0.047
-201.348	33.754	-0.093	-0.080
-200.333	-28.345	0.124	0.071
-199.319	-200.000	0.014	0.141
-198.304	800.000	0.085	-0.283
-197.290	-42.077	-0.141	-0.071
-196.275	73.061	-0.265	0.274
-195.260	67.496	0.195	0.197
-194.246	200.913	0.104	-0.158
-193.231	22.036	-0.100	0.080
-192.217	-150.685	0.375	0.028
-191.202	251.597	-0.156	0.262
-190.187	335.905	-0.137	-0.262
-189.173	293.564	0.137	0.248
-188.158	-127.548	0.176	-0.025
-187.144	-200.000	-0.001	0.123
-186.129	88.430	-0.182	0.199
-185.114	13.204	0.277	0.212
-184.100	63.456	0.052	-0.051
-183.085	13.846	-0.106	0.082
-182.071	-200.000	0.016	-0.184
-181.056	-200.000	-0.004	-0.165
-180.042	-112.528	0.101	-0.020
-179.027	76.032	-0.223	-0.233
-178.012	800.000	0.048	-0.175
-176.998	373.366	-0.021	0.042
-175.983	-11.303	-0.341	-0.222
-174.969	57.276	0.084	-0.081
-173.954	-200.000	-0.009	0.151
-172.939	299.349	-0.023	-0.041
-171.925	-169.103	-0.228	0.008
-170.910	-44.264	-0.110	0.054
-169.896	800.000	-0.084	0.238
-168.881	-200.000	0.015	-0.077
-167.866	800.000	0.041	-0.139
-166.852	800.000	-0.065	-0.262
-165.837	-158.508	0.384	-0.022
-164.823	297.854	0.146	-0.264
-163.808	-71.467	-0.142	0.052
-162.793	-113.412	0.229	-0.044
-161.779	-117.786	-0.291	-0.052
-160.764	-162.287	0.028	-0.001
-159.750	-168.690	0.196	0.007
-158.735	-97.314	0.328	0.084
-157.720	765.921	-0.028	-0.074
-156.706	-70.511	0.137	-0.051
-155.691	-200.000	-0.007	-0.102
-154.677	201.578	-0.097	0.147
-153.662	518.760	-0.011	-0.026
-152.647	-161.823	-0.088	0.004
-151.633	-115.624	-0.090	0.017
-150.618	-200.000	0.007	0.034
-149.604	31.374	-0.353	-0.300
-148.589	-23.469	0.051	0.030
-147.574	800.000	0.032	-0.130
-146.560	-2.472	-0.233	-0.161
-145.545	-14.915	0.093	-0.059
-144.531	-44.930	-0.027	0.013
-143.516	-44.097	-0.094	0.047
-142.502	-200.000	0.005	0.346
-141.487	6.957	0.053	0.039
-140.472	-87.347	-0.221	0.066
-139.458	800.000	-0.141	-0.607
-138.443	-74.663	-0.101	0.036
-137.429	800.000	0.043	0.122
-136.414	41.868	0.113	-0.101
-135.399	344.840	-0.008	-0.016
-134.385	-134.861	0.613	-0.073
-133.370	-200.000	-0.011	-0.073
-132.356	566.960	0.024	-0.057
-131.341	-200.000	-0.024	0.177
-130.326	-31.977	0.325	0.179
-129.312	100.583	0.123	-0.141
-128.297	-108.284	0.512	-0.109
-127.283	-136.487	-0.099	0.011
-126.268	54.998	0.364	0.347
-125.253	221.768	-0.126	-0.199
-124.239	361.990	0.018	0.036
-123.224	16.170	-0.114	0.088
-122.210	-135.291	-0.140	-0.017
-121.195	28.561	-0.201	-0.168
-120.180	230.041	0.163	-0.263
-119.166	-200.000	-0.003	-0.080
-118.151	-97.322	0.269	-0.069
-117.137	36.950	0.153	-0.133
-116.122	320.338	-0.033	0.062
-115.107	-54.008	-0.267	-0.120
-114.093	552.262	0.125	-0.295
-113.078	115.447	-0.057	-0.069
-112.064	-47.251	0.204	0.098
-111.049	-137.675	-0.187	-0.021
-110.034	272.732	0.177	-0.308
-109.020	25.245	-0.289	-0.237
-108.005	-144.021	0.208	0.019
-106.991	-118.939	-0.067	0.012
-105.976	559.072	0.108	-0.256
-104.962	-134.813	0.370	0.044
-103.947	156.637	-0.071	0.097
-102.932	-18.082	0.147	-0.091
-101.918	-70.994	0.168	0.062
-100.903	-116.122	0.177	-0.032
-99.889	-8.657	-0.155	0.103
-98.874	-200.000	0.005	0.179
-97.859	-191.570	-0.209	0.002
-96.845	-200.000	0.053	0.237
-95.830	-93.041	0.044	0.012
-94.816	-72.406	0.067	0.024
-93.801	304.962	0.032	-0.058
-92.786	800.000	-0.042	0.124
-91.772	-200.000	0.046	-0.228
-90.757	-178.994	-0.404	0.009
-89.743	-124.121	-0.414	0.064
-88.728	-200.000	0.008	-0.186
-87.713	340.606	0.135	0.260
-86.699	-2.210	0.250	0.172
-85.684	-103.501	-0.298	0.069
-84.670	58.661	-0.355	-0.344
-83.655	162.158	-0.072	-0.099
-82.640	-174.468	-0.118	0.003
-81.626	19.406	-0.112	0.089
-80.611	-200.000	-0.029	-0.224
-79.597	177.942	-0.169	-0.242
-78.582	34.150	0.049	-0.042
-77.567	-117.525	-0.190	-0.034
-76.553	800.000	-0.025	0.085
-75.538	-136.887	-0.181	0.020
-74.524	132.036	0.056	-0.070
-73.509	-95.205	0.222	0.059
-72.494	662.486	-0.016	0.042
-71.480	800.000	-0.011	0.033
-70.465	-46.098	0.031	-0.015
-69.451	-169.603	0.145	0.005
-68.436	80.673	-0.120	0.127
-67.422	-145.729	0.193	-0.017
-66.407	-11.722	0.082	-0.053
-65.392	-86.002	-0.133	-0.040
-64.378	-200.000	0.029	-0.148
-63.363	-200.000	0.008	-0.153
-62.349	-200.000	0.048	-0.274
-61.334	55.816	-0.946	-0.902
-60.319	24.877	0.394	0.322
-59.305	-200.000	-0.161	-1.123
-58.290	234.171	0.820	1.329
-57.276	446.092	0.600	1.298
-56.261	-200.000	95.716	585.728
-55.246	560.301	1368.996	3252.746
-54.232	162.862	2539.683	3506.841
-53.217	113.499	2134.922	2549.169
-52.203	44.243	1600.053	1443.829
-51.188	35.971	1338.682	1158.433
-50.173	32.736	1297.518	1103.869
-49.159	54.504	1345.371	1274.776
-48.144	56.670	1361.611	1303.011
-47.130	36.029	1320.425	1142.796
-46.115	32.580	1302.996	1107.434
-45.100	32.395	1297.968	1102.036
-44.086	32.271	1295.940	1099.542
-43.071	32.244	1293.665	1097.411
-42.057	32.191	1291.153	1094.927
-41.042	32.317	1289.725	1094.406
-40.027	32.364	1288.102	1093.262
-39.013	32.345	1285.817	1091.166
-37.998	32.230	1284.309	1089.175
-36.984	32.346	1282.797	1088.524
-35.969	32.434	1280.675	1087.190
-34.954	32.500	1278.738	1085.881
-33.940	32.381	1278.638	1085.068
-32.925	32.447	1276.417	1083.520
-31.911	32.525	1274.803	1082.558
-30.896	32.395	1273.645	1080.779
-29.881	32.492	1272.006	1079.902
-28.867	32.521	1270.811	1079.016
-27.852	32.493	1269.513	1077.710
-26.838	32.553	1267.818	1076.572
-25.823	32.450	1266.935	1075.190
-24.809	32.414	1265.376	1073.617
-23.794	32.553	1263.875	1073.094
-22.779	32.522	1262.246	1071.488
-21.765	32.397	1261.699	1070.272
-20.750	32.423	1260.369	1069.253
-19.736	32.428	1258.499	1067.652
-18.721	32.299	1257.759	1066.245
-17.706	32.258	1257.012	1065.340
-16.692	32.440	1255.169	1064.765
-15.677	32.387	1254.034	1063.462
-14.663	32.346	1253.467	1062.705
-13.648	32.272	1252.245	1061.213
-12.633	32.245	1251.327	1060.238
-11.619	32.238	1250.542	1059.492
-10.604	32.293	1249.476	1058.858
-9.590	32.257	1248.641	1057.902
-8.575	32.272	1247.528	1057.001
-7.560	32.291	1246.524	1056.216
-6.546	32.328	1246.162	1056.077
-5.531	32.211	1244.914	1054.322
-4.517	32.324	1243.839	1054.000
-3.502	32.284	1242.996	1053.019
-2.487	32.233	1242.632	1052.387
-1.473	32.163	1238.316	1048.296
-0.458	30.859	1223.728	1028.709
0.556	27.962	1206.615	991.946
1.571	24.427	1211.576	976.630
2.586	23.576	1226.467	983.829
3.600	23.104	1215.821	972.609
4.615	17.038	1142.790	882.653
5.629	6.946	1066.253	774.260
6.644	2.351	1046.365	737.634
7.659	1.972	1043.506	733.732
8.673	1.997	1041.975	732.707
9.688	2.050	1040.668	731.981
10.702	2.334	1039.664	732.567
11.717	8.826	1048.667	770.132
12.731	18.896	1063.118	829.512
13.746	24.136	1068.917	859.320
14.761	25.222	1070.541	865.791
15.775	25.256	1070.051	865.483
16.790	25.004	1069.263	863.555
17.804	25.007	1068.659	863.005
18.819	25.145	1068.275	863.280
19.834	25.321	1067.593	863.501
20.848	25.314	1067.185	863.060
21.863	25.185	1067.241	862.410
22.877	25.144	1066.344	861.410
23.892	25.250	1065.054	860.803
24.907	25.239	1064.991	860.621
25.921	25.303	1063.498	859.646
26.936	25.212	1062.240	858.116
27.950	25.310	1060.186	856.849
28.965	25.132	1059.130	855.072
29.980	25.127	1057.561	853.704
30.994	25.409	1056.469	854.089
32.009	25.313	1055.709	852.944
33.023	25.074	1054.515	850.767
34.038	25.287	1053.600	850.966
35.053	25.344	1052.918	850.612
36.067	25.296	1052.350	849.847
37.082	25.442	1051.319	849.633
38.096	25.589	1051.090	850.068
39.111	25.660	1050.293	849.682
40.126	25.465	1048.939	847.592
41.140	25.172	1046.816	844.423
42.155	24.852	1045.932	842.128
43.169	25.078	1045.098	842.445
44.184	24.932	1044.214	840.972
45.199	24.847	1043.313	839.774
46.213	24.877	1042.240	838.978
47.228	25.119	1041.431	839.381
48.242	25.038	1041.349	838.861
49.257	25.313	1040.218	839.165
50.271	25.357	1039.628	838.819
51.286	25.475	1038.416	838.318
52.301	25.241	1037.942	836.770
53.315	25.204	1037.217	835.940
54.330	25.218	1035.937	834.899
55.344	25.305	1034.997	834.470
56.359	25.181	1034.005	833.023
57.374	24.988	1033.490	831.638
58.388	24.975	1033.094	831.183
59.403	25.022	1031.508	830.055
60.417	24.889	1030.620	828.651
61.432	24.945	1030.008	828.341
62.447	24.996	1029.786	828.325
63.461	25.039	1029.159	827.949
64.476	24.971	1028.337	826.897
65.490	25.040	1026.734	825.854
66.505	25.096	1026.332	825.717
67.520	24.967	1025.856	824.669
68.534	24.886	1024.488	823.121
69.549	24.448	1023.710	820.410
70.563	24.603	1023.254	820.687
71.578	24.636	1022.120	819.853
72.593	24.381	1020.972	817.691
73.607	24.416	1021.157	817.928
74.622	24.878	1020.559	819.494
75.636	24.930	1019.233	818.594
76.651	24.822	1018.811	817.690
77.666	24.670	1017.911	816.200
78.680	24.722	1017.088	815.706
79.695	24.861	1016.296	815.632
80.709	24.785	1016.507	815.385
81.724	24.762	1015.086	814.065
82.739	24.999	1014.427	814.545
83.753	25.430	1013.728	815.869
84.768	25.520	1013.333	815.886
85.782	25.743	1012.181	815.895
86.797	25.606	1011.306	814.499
87.812	25.294	1010.703	812.529
88.826	25.504	1009.933	812.789
89.841	25.648	1008.696	812.369
90.855	25.644	1008.030	811.743
91.870	25.565	1007.277	810.708
92.884	25.352	1006.343	808.926
93.899	25.417	1005.234	808.256
94.914	25.563	1004.122	807.946
95.928	25.314	1003.037	805.883
96.943	25.162	1002.551	804.743
97.957	25.038	1000.681	802.612
98.972	24.822	999.958	800.998
99.987	25.071	999.506	801.675
101.001	25.323	998.366	801.815
102.016	25.345	997.771	801.369
103.030	25.199	997.065	800.076
104.045	24.913	996.239	798.070
105.060	24.906	995.047	797.013
106.074	25.008	994.506	796.961
107.089	25.370	994.283	798.322
108.103	25.173	993.010	796.354
109.118	25.066	991.970	794.974
110.133	25.085	990.647	793.929
111.147	24.873	989.556	792.046
112.162	24.788	988.750	790.955
113.176	24.976	988.368	791.412
114.191	24.826	987.640	790.096
115.206	24.591	986.093	787.755
116.220	24.583	985.537	787.204
117.235	24.688	985.284	787.393
118.249	24.710	984.251	786.596
119.264	24.629	983.278	785.394
120.279	24.737	982.695	785.332
121.293	24.708	982.126	784.681
122.308	24.646	981.327	783.700
123.322	24.687	980.191	782.905
124.337	24.519	978.587	780.820
125.352	24.076	976.892	777.464
126.366	23.998	976.084	776.413
127.381	24.583	976.740	779.415
128.395	25.161	975.845	781.155
129.410	25.328	974.918	781.069
130.424	25.304	973.811	780.008
131.439	25.148	972.954	778.576
132.454	25.159	972.185	777.938
133.468	25.057	971.538	776.911
134.483	25.199	970.305	776.469
135.497	25.526	969.890	777.483
136.512	25.508	968.830	776.488
137.527	25.544	967.973	775.887
138.541	25.477	967.325	775.010
139.556	25.586	966.447	774.706
140.570	25.561	965.819	774.028
141.585	25.478	965.166	773.082
142.600	25.512	964.022	772.241
143.614	25.670	963.645	772.551
144.629	25.853	962.466	772.321
145.643	25.697	961.672	770.946
146.658	25.403	960.121	768.379
147.673	25.414	958.797	767.299
148.687	25.368	957.536	766.024
149.702	25.207	957.334	765.107
150.716	25.342	955.879	764.450
151.731	25.435	955.511	764.484
152.746	25.613	955.283	764.992
153.760	25.694	954.667	764.774
154.775	25.622	954.293	764.102
155.789	25.659	953.357	763.443
156.804	25.584	952.309	762.217
157.819	25.587	951.601	761.598
158.833	25.776	950.695	761.604
159.848	25.811	949.754	760.932
160.862	25.599	948.789	759.194
161.877	25.597	947.966	758.462
162.892	25.630	946.853	757.643
163.906	25.615	945.761	756.637
164.921	25.632	944.546	755.670
165.935	25.758	943.749	755.494
166.950	25.705	942.922	754.547
167.964	25.605	942.319	753.577
168.979	25.521	941.086	752.173
169.994	25.453	940.376	751.252
171.008	25.671	939.806	751.642
172.023	25.697	938.909	750.968
173.037	25.432	938.051	749.108
174.052	25.253	937.023	747.477
175.067	25.363	936.405	747.374
176.081	25.524	935.812	747.508
177.096	25.527	934.754	746.605
178.110	25.184	933.909	744.445
179.125	25.021	933.450	743.334
180.140	25.082	932.841	743.037
181.154	25.292	932.603	743.653
182.169	25.425	932.459	744.020
183.183	25.758	932.000	744.969
184.198	25.553	931.021	743.272
185.213	25.708	930.212	743.199
186.227	25.715	929.907	742.919
187.242	25.670	929.151	742.062
188.256	25.776	928.487	741.905
189.271	25.714	928.052	741.238
190.286	25.252	926.800	738.273
191.300	24.768	925.197	734.941
192.315	23.940	923.605	730.211
193.329	24.035	923.210	730.227
194.344	24.882	923.682	734.011
195.359	25.533	923.656	736.594
196.373	25.597	923.312	736.514
197.388	25.550	922.533	735.635
198.402	25.457	922.279	734.989
199.417	25.556	921.171	734.444
200.432	25.358	919.976	732.619
201.446	25.062	919.794	731.204
202.461	25.172	919.208	731.121
203.475	24.304	917.362	726.056
204.490	23.588	915.962	721.972
205.504	24.538	916.052	725.842
206.519	25.144	916.114	728.286
207.534	25.179	915.881	728.179
208.548	25.552	916.040	729.757
209.563	25.240	914.712	727.369
210.577	25.459	913.923	727.564
211.592	25.850	913.847	729.023
212.607	25.806	912.790	727.935
213.621	25.754	912.295	727.268
214.636	25.674	911.922	726.583
215.650	25.727	910.876	725.899
216.665	25.897	910.232	726.004
217.680	25.790	909.094	724.603
218.694	25.297	908.298	721.922
219.709	25.058	907.831	720.527
220.723	25.421	907.257	721.464
221.738	25.637	906.522	721.682
222.753	25.431	906.360	720.665
223.767	25.629	905.902	721.030
224.782	25.790	905.507	721.295
225.796	25.740	904.918	720.565
226.811	25.074	903.825	716.965
227.826	24.434	902.149	713.019
228.840	24.673	902.194	713.944
229.855	24.721	901.059	713.176
230.869	24.482	899.954	711.285
231.884	24.840	899.961	712.652
232.899	25.563	899.958	715.466
233.913	25.423	899.405	714.405
234.928	25.336	898.940	713.626
235.942	25.447	897.871	713.156
236.957	25.092	897.142	711.107
237.972	25.111	896.286	710.442
238.986	25.206	896.181	710.671
240.001	25.238	895.516	710.207
241.015	25.276	895.276	710.105
242.030	25.544	894.388	710.397
243.045	25.465	894.308	709.958
244.059	25.698	893.823	710.430
245.074	25.514	892.909	708.914
246.088	25.204	891.696	706.667
247.103	25.502	891.343	707.499
248.117	25.921	891.619	709.306
249.132	26.303	891.140	710.364
250.147	26.184	890.965	709.695
251.161	26.483	890.274	710.254
252.176	26.455	889.393	709.379
253.190	26.540	888.822	709.194
254.205	26.656	888.944	709.681
255.220	26.595	888.744	709.223
256.234	26.514	887.600	707.927
257.249	26.454	886.560	706.803
258.263	26.398	885.671	705.812
259.278	26.388	885.259	705.382
260.293	26.522	884.738	705.427
261.307	26.394	883.912	704.207
262.322	26.246	882.852	702.723
263.336	25.548	881.115	698.570
264.351	24.411	879.408	692.743
265.366	24.739	879.199	693.790
266.380	25.787	879.682	698.176
267.395	25.966	879.707	698.828
268.409	25.996	879.482	698.701
269.424	26.282	878.830	699.230
270.439	26.342	877.997	698.738
271.453	26.372	877.254	698.199
272.468	26.431	877.287	698.390
273.482	26.562	876.796	698.444
274.497	26.089	875.506	695.533
275.512	25.766	874.754	693.630
276.526	26.139	875.111	695.287
277.541	26.300	874.386	695.272
278.555	26.120	873.995	694.204
279.570	25.906	872.853	692.417
280.585	26.259	872.011	693.042
281.599	26.139	871.082	691.780
282.614	25.532	870.211	688.704
283.628	25.423	869.908	687.986
284.643	25.732	869.300	688.627
285.657	25.507	867.480	686.266
286.672	25.155	867.382	684.780
287.687	25.673	867.441	686.746
288.701	25.746	866.909	686.542
289.716	25.539	865.854	684.856
290.730	25.508	865.046	684.039
291.745	25.047	864.536	681.823
292.760	25.581	864.162	683.495
293.774	26.603	864.526	687.607
294.789	26.917	864.481	688.705
295.803	26.829	863.829	687.787
296.818	26.784	863.256	687.100
297.833	26.333	861.917	684.269
298.847	26.291	861.461	683.687
299.862	26.549	861.501	684.635
300.876	26.755	860.972	684.930
301.891	26.653	860.116	683.805
302.906	26.242	859.495	681.701
303.920	26.375	858.963	681.719
304.935	26.814	858.843	683.217
305.949	26.789	857.842	682.267
306.964	26.560	857.026	680.697
307.979	26.531	857.000	680.506
308.993	26.913	856.967	681.854
310.008	26.808	856.523	681.049
311.022	26.551	855.261	679.020
312.037	26.485	854.523	678.128
313.052	26.211	853.763	676.438
314.066	25.397	852.073	671.994
315.081	24.887	851.325	669.440
316.095	25.991	851.702	673.803
317.110	26.447	851.460	675.254
318.125	25.569	850.275	670.980
319.139	24.470	848.599	665.507
320.154	24.638	848.260	665.806
321.168	25.332	848.657	668.644
322.183	26.170	849.108	672.060
323.197	26.297	848.613	672.083
324.212	26.370	848.015	671.819
325.227	26.444	847.827	671.885
326.241	26.378	846.887	670.839
327.256	26.155	846.358	669.534
328.270	26.145	845.468	668.731
329.285	26.168	844.220	667.773
330.300	25.790	844.366	666.428
331.314	26.064	843.846	666.974
332.329	26.522	843.609	668.418
333.343	26.696	843.093	668.591
334.358	26.578	842.777	667.846
335.373	26.726	842.467	668.086
336.387	27.135	842.264	669.376
337.402	27.123	842.146	669.178
338.416	27.098	842.120	669.006
339.431	27.111	841.659	668.628
340.446	27.335	841.339	669.138
341.460	27.226	840.673	668.149
342.475	26.913	840.154	666.529
343.489	26.925	839.829	666.254
344.504	27.223	839.897	667.343
345.519	27.489	839.269	667.761
346.533	27.655	838.690	667.851
347.548	27.623	838.052	667.165
348.562	27.452	837.719	666.215
349.577	27.326	837.198	665.284
350.592	27.400	836.396	664.856
351.606	27.472	835.489	664.339
352.621	27.355	834.602	663.148
353.635	27.195	834.286	662.258
354.650	26.482	832.629	658.290
355.665	25.622	831.040	653.849
356.679	25.977	830.844	654.929
357.694	26.467	830.132	656.086
358.708	26.417	829.852	655.625
359.723	26.827	829.993	657.166
360.738	26.969	829.819	657.483
361.752	27.123	829.605	657.815
362.767	27.431	828.765	658.204
363.781	27.895	828.081	659.275
364.796	27.900	827.817	659.028
365.810	27.873	827.529	658.640
366.825	27.748	827.322	657.966
367.840	27.563	826.301	656.429
368.854	27.128	825.605	654.254
369.869	27.063	825.162	653.610
370.883	27.180	824.990	653.837
371.898	27.096	824.353	652.975
372.913	27.175	824.258	653.125
373.927	27.396	823.539	653.290
374.942	27.498	823.161	653.298
375.956	27.649	822.573	653.314
376.971	27.602	822.783	653.253
377.986	27.871	822.283	653.763
379.000	27.682	821.350	652.289
380.015	27.562	821.195	651.678
381.029	27.619	820.338	651.145
382.044	27.799	819.921	651.396
383.059	27.800	819.425	650.949
384.073	27.779	818.651	650.204
385.088	27.784	818.039	649.676
386.102	27.516	817.437	648.187
387.117	27.437	817.015	647.516
388.132	27.125	815.567	645.202
389.146	26.649	814.833	642.876
390.161	27.010	814.661	643.962
391.175	27.554	814.629	645.809
392.190	27.079	813.551	643.217
393.205	25.747	811.568	636.885
394.219	24.317	809.358	630.046
395.234	24.080	809.858	629.538
396.248	25.870	810.810	636.555
397.263	27.357	811.819	642.545
398.278	27.157	811.256	641.336
399.292	27.025	810.974	640.593
400.307	27.126	810.225	640.298
401.321	27.101	809.788	639.809
402.336	27.621	809.917	641.685
403.350	27.961	809.537	642.524
404.365	28.214	809.527	643.347
405.380	28.480	809.059	643.852
406.394	28.655	808.493	643.959
407.409	28.562	807.626	642.886
408.423	28.606	807.271	642.699
409.438	28.439	807.522	642.260
410.453	28.412	807.130	641.794
411.467	28.438	806.298	641.168
412.482	28.409	806.230	640.957
413.496	28.584	805.885	641.235
414.511	28.462	805.422	640.386
415.526	28.467	805.044	640.045
416.540	28.325	804.186	638.811
417.555	28.084	803.639	637.481
418.569	28.176	803.221	637.415
419.584	28.189	802.572	636.889
420.599	28.066	801.832	635.815
421.613	111.851	1285.650	1458.918
422.628	96.586	1356.116	1459.001
