DTS Sentinel unit serial number:	SN413079Multiplexer serial number:	ORYXHardware model number:	OX4-SRSoftware version number:	ORYX F/W v4.00 Oryx Data Collector v3.7.2.0data status	okinstallation	princeton_trtdifferential loss correction	single-endedforward channel	channel 1reverse channel	N/Adate	2019/09/15time	05:54:35forward acquisition time	60.00reverse acquisition time	0.00gamma	496.2192k internal	0.2325k external	0.2325temperature offset calibration	1.0000default loss term (dB/km)	0.3790temperature slope calibration	1.0000multiplexer offset coefficient	1.0000multiplexer slope coefficient	1.0000fibre end	0.00T internal ref (°C)	30.62T ext. ref 1 (°C)	4.86T ext. ref 2 (°C)	25.41length (m)	temperature (°C)	Stokes	anti-Stokes-747.200	-3.636	0.315	0.221
-746.185	65.120	-0.214	0.218
-745.171	83.886	0.045	-0.050
-744.156	-137.523	-0.356	-0.041
-743.142	800.000	0.039	-0.149
-742.127	800.000	-0.053	0.233
-741.112	95.497	0.241	-0.278
-740.098	280.676	0.157	0.283
-739.083	510.921	0.133	0.312
-738.069	54.865	-0.275	0.267
-737.054	65.112	-0.281	0.286
-736.039	-27.519	-0.417	0.244
-735.025	800.000	-0.024	-0.078
-734.010	37.945	0.149	-0.134
-732.996	198.483	-0.275	0.424
-731.981	-87.263	0.335	0.103
-730.966	-129.186	-0.312	0.044
-729.952	-200.000	0.033	-0.351
-728.937	-57.718	-0.181	-0.080
-727.923	60.080	0.319	-0.318
-726.908	1.456	-0.197	0.143
-725.894	363.155	-0.142	-0.288
-724.879	800.000	-0.090	0.266
-723.864	504.456	-0.085	-0.199
-722.850	190.488	0.162	0.246
-721.835	689.917	-0.061	-0.160
-720.821	-169.741	-0.363	-0.013
-719.806	-200.000	-0.004	-0.384
-718.791	-112.476	-0.178	0.036
-717.777	21.258	-0.352	-0.288
-716.762	-59.844	0.212	-0.091
-715.748	711.521	0.067	0.178
-714.733	-74.405	-0.137	0.050
-713.718	-53.311	0.251	-0.116
-712.704	-200.000	-0.053	-0.282
-711.689	328.403	0.156	-0.302
-710.675	-75.837	0.199	0.071
-709.660	85.643	0.046	-0.051
-708.645	319.179	-0.048	0.092
-707.631	506.965	-0.018	-0.042
-706.616	-200.000	0.050	-0.242
-705.602	7.480	-0.370	0.279
-704.587	800.000	-0.176	-0.597
-703.572	800.000	0.036	0.141
-702.558	-96.850	0.046	0.012
-701.543	-200.000	-0.003	-0.217
-700.529	800.000	0.027	0.096
-699.514	-83.254	0.348	-0.113
-698.499	-116.417	-0.281	0.052
-697.485	-200.000	0.014	0.248
-696.470	800.000	-0.047	0.164
-695.456	144.835	0.090	0.122
-694.441	-81.289	-0.196	-0.065
-693.426	-200.000	-0.003	0.291
-692.412	-200.000	0.088	0.450
-691.397	-200.000	0.029	0.364
-690.383	-52.296	-0.036	-0.017
-689.368	-200.000	0.029	0.136
-688.354	-200.000	-0.007	0.129
-687.339	-0.798	-0.040	0.028
-686.324	119.828	0.098	-0.122
-685.310	-103.880	0.322	0.076
-684.295	-200.000	-0.002	-0.162
-683.281	1.213	-0.079	0.057
-682.266	800.000	-0.068	-0.207
-681.251	221.011	0.038	-0.062
-680.237	800.000	-0.053	0.222
-679.222	247.740	-0.040	0.068
-678.208	35.233	-0.274	-0.242
-677.193	-200.000	-0.006	-0.465
-676.178	-0.918	0.277	-0.197
-675.164	-200.000	-0.076	0.508
-674.149	-200.000	-0.007	0.179
-673.135	50.162	-0.054	-0.051
-672.120	-41.831	-0.221	-0.114
-671.105	547.649	0.087	-0.208
-670.091	-127.007	0.072	-0.011
-669.076	263.753	-0.044	0.077
-668.062	-81.264	0.198	-0.066
-667.047	800.000	-0.055	-0.205
-666.032	800.000	-0.032	-0.113
-665.018	84.467	0.034	-0.038
-664.003	-42.687	0.150	-0.077
-662.989	106.710	-0.277	-0.330
-661.974	-200.000	0.050	-0.251
-660.959	27.033	-0.049	-0.042
-659.945	230.760	-0.105	0.173
-658.930	131.626	-0.182	-0.235
-657.916	-200.000	-0.037	-0.203
-656.901	-87.884	0.147	0.045
-655.886	-79.629	-0.234	-0.079
-654.872	-82.083	-0.044	0.014
-653.857	-200.000	-0.010	-0.162
-652.843	-200.000	0.033	0.170
-651.828	82.731	-0.315	0.345
-650.814	800.000	0.043	-0.164
-649.799	800.000	0.068	0.285
-648.784	-11.305	-0.073	0.048
-647.770	800.000	-0.071	-0.286
-646.755	-141.330	-0.375	0.038
-645.741	-200.000	-0.043	0.283
-644.726	76.667	-0.085	-0.091
-643.711	-117.158	0.429	-0.079
-642.697	-200.000	0.027	-0.135
-641.682	-108.766	0.066	-0.014
-640.668	76.718	-0.060	0.064
-639.653	-200.000	0.008	0.043
-638.638	-110.325	-0.187	0.039
-637.624	68.045	0.177	-0.182
-636.609	-4.515	-0.222	-0.154
-635.595	-29.670	-0.263	0.151
-634.580	-200.000	-0.022	0.324
-633.565	121.388	-0.146	0.183
-632.551	8.713	-0.178	-0.135
-631.536	-158.395	0.303	0.018
-630.522	-74.927	0.280	0.101
-629.507	180.581	0.120	-0.178
-628.492	-200.000	0.054	-0.483
-627.478	-97.911	0.386	0.100
-626.463	-89.893	0.082	0.024
-625.449	164.009	0.144	-0.204
-624.434	245.384	-0.115	0.194
-623.419	252.248	-0.142	0.243
-622.405	34.176	0.224	0.197
-621.390	-40.313	0.252	0.132
-620.376	140.545	0.178	0.237
-619.361	-200.000	0.188	0.000
-618.346	-200.000	-0.043	-0.212
-617.332	-76.028	-0.103	0.037
-616.317	-192.624	-0.146	-0.001
-615.303	-31.828	0.081	0.046
-614.288	800.000	0.108	-0.464
-613.273	160.505	0.062	0.087
-612.259	-82.543	0.197	-0.064
-611.244	7.762	0.300	-0.226
-610.230	-103.300	0.024	0.006
-609.215	10.360	-0.235	0.180
-608.201	139.884	-0.300	0.397
-607.186	543.835	-0.118	-0.283
-606.171	-12.554	0.167	0.110
-605.157	18.086	0.088	0.071
-604.142	571.424	0.094	-0.230
-603.128	-200.000	0.014	-0.286
-602.113	14.946	0.061	-0.048
-601.098	-163.140	-0.319	0.015
-600.084	-26.484	0.267	0.157
-599.069	59.861	-0.114	-0.113
-598.055	-166.243	0.197	-0.008
-597.040	348.312	0.132	-0.260
-596.025	800.000	0.084	0.338
-595.011	328.034	-0.154	-0.297
-593.996	-13.895	0.209	-0.136
-592.982	331.819	0.088	0.170
-591.967	-77.428	-0.107	-0.037
-590.952	-57.423	-0.344	0.151
-589.938	800.000	-0.058	0.207
-588.923	53.555	-0.292	0.281
-587.909	215.818	-0.247	0.393
-586.894	-3.296	-0.025	0.017
-585.879	89.627	0.095	-0.106
-584.865	35.909	-0.103	-0.091
-583.850	3.316	-0.224	-0.163
-582.836	-200.000	-0.004	0.048
-581.821	-107.967	-0.437	-0.095
-580.806	189.152	0.144	-0.216
-579.792	-51.002	-0.101	-0.048
-578.777	-81.380	0.117	0.039
-577.763	200.978	-0.041	0.063
-576.748	-76.572	-0.127	-0.045
-575.733	-200.000	-0.046	-0.312
-574.719	-103.101	0.114	0.027
-573.704	17.230	-0.244	-0.194
-572.690	-141.372	0.193	0.020
-571.675	-21.103	0.112	-0.068
-570.661	-124.775	0.284	-0.044
-569.646	-160.770	0.179	-0.010
-568.631	-200.000	-0.001	-0.264
-567.617	722.510	-0.130	-0.346
-566.602	-122.491	-0.203	-0.033
-565.588	579.658	-0.026	-0.065
-564.573	135.963	-0.153	0.200
-563.558	-63.429	-0.227	0.093
-562.544	-51.363	0.180	0.084
-561.529	-14.806	0.153	-0.098
-560.515	-200.000	-0.032	0.212
-559.500	-49.657	-0.160	0.076
-558.485	-124.883	0.338	-0.052
-557.471	-44.544	0.234	0.117
-556.456	-149.377	0.041	-0.003
-555.442	34.531	0.163	0.142
-554.427	102.420	0.152	0.178
-553.412	800.000	-0.091	-0.300
-552.398	-169.787	-0.107	-0.004
-551.383	-33.914	0.168	-0.092
-550.369	27.758	0.224	0.189
-549.354	-84.721	0.220	-0.069
-548.339	221.040	0.131	0.210
-547.325	800.000	-0.033	-0.128
-546.310	542.958	-0.070	-0.168
-545.296	-57.075	-0.167	-0.074
-544.281	800.000	0.019	-0.070
-543.266	-200.000	0.049	0.220
-542.252	113.395	0.132	0.161
-541.237	229.509	-0.081	-0.132
-540.223	-134.809	0.067	0.008
-539.208	-105.575	-0.221	0.050
-538.193	-177.684	0.349	-0.008
-537.179	-74.720	0.147	0.053
-536.164	800.000	0.083	0.347
-535.150	-200.000	-0.141	-0.000
-534.135	-23.788	-0.066	0.039
-533.121	113.148	0.224	-0.272
-532.106	-200.000	-0.077	0.360
-531.091	-114.206	0.107	-0.021
-530.077	-108.943	-0.304	0.065
-529.062	56.734	0.230	-0.224
-528.048	-53.777	0.173	-0.079
-527.033	217.661	-0.104	-0.166
-526.018	-200.000	-0.084	-0.410
-525.004	-200.000	-0.008	0.114
-523.989	-200.000	-0.023	0.176
-522.975	-200.000	-0.036	-0.158
-521.960	-144.391	0.086	-0.008
-520.945	800.000	-0.041	-0.174
-519.931	-92.481	-0.211	0.059
-518.916	-142.633	-0.020	-0.002
-517.902	587.272	0.137	-0.338
-516.887	-90.829	0.112	0.032
-515.872	-200.000	-0.006	0.035
-514.858	29.626	-0.129	-0.109
-513.843	-44.837	-0.277	0.138
-512.829	43.345	0.070	0.064
-511.814	88.437	0.157	-0.174
-510.799	100.466	-0.280	0.325
-509.785	-6.515	-0.191	0.130
-508.770	-21.179	-0.206	-0.126
-507.756	-48.497	0.126	0.061
-506.741	-48.887	0.141	0.067
-505.726	-3.475	0.153	-0.107
-504.712	-200.000	0.042	-0.239
-503.697	-7.696	-0.199	-0.134
-502.683	-137.432	-0.089	-0.010
-501.668	-200.000	0.029	0.373
-500.653	149.181	-0.120	0.163
-499.639	78.186	-0.147	0.156
-498.624	146.595	0.172	0.231
-497.610	-200.000	-0.007	0.195
-496.595	-101.215	-0.188	-0.046
-495.581	45.173	-0.277	-0.255
-494.566	-180.547	-0.244	0.005
-493.551	-29.817	-0.104	0.059
-492.537	380.350	-0.111	-0.228
-491.522	800.000	0.043	0.168
-490.508	106.059	0.161	-0.190
-489.493	174.811	0.109	0.157
-488.478	-200.000	-0.018	-0.329
-487.464	-29.087	0.541	-0.310
-486.449	64.584	0.122	0.123
-485.435	-153.571	-0.600	0.041
-484.420	127.013	0.176	-0.223
-483.405	-200.000	-0.044	-0.276
-482.391	3.931	0.045	0.033
-481.376	318.819	-0.083	0.157
-480.362	29.295	-0.164	-0.140
-479.347	-102.173	0.130	-0.031
-478.332	78.628	0.086	-0.092
-477.318	62.373	0.160	-0.160
-476.303	800.000	-0.078	-0.288
-475.289	133.828	0.078	-0.101
-474.274	-105.961	0.104	0.023
-473.259	89.224	-0.069	0.076
-472.245	42.526	0.164	0.149
-471.230	800.000	0.079	0.317
-470.216	-41.819	0.125	-0.064
-469.201	-35.015	-0.239	-0.130
-468.186	-128.802	0.157	0.022
-467.172	179.651	-0.037	0.054
-466.157	-8.157	-0.115	0.077
-465.143	-163.816	0.165	-0.008
-464.128	-19.747	0.084	0.052
-463.113	800.000	0.061	0.178
-462.099	-78.702	-0.102	0.035
-461.084	-22.209	-0.381	0.231
-460.070	30.873	0.373	0.319
-459.055	-0.290	-0.202	-0.143
-458.040	-118.388	-0.209	0.037
-457.026	149.744	-0.077	-0.104
-456.011	109.666	0.214	0.256
-454.997	-52.866	-0.197	0.090
-453.982	28.154	-0.258	-0.217
-452.968	145.175	0.059	0.079
-451.953	579.632	-0.058	-0.141
-450.938	274.605	-0.134	-0.236
-449.924	-112.106	-0.159	-0.032
-448.909	-93.266	-0.184	0.051
-447.895	-82.052	-0.173	0.056
-446.880	-113.212	0.149	-0.029
-445.865	-81.532	0.114	0.037
-444.851	363.598	0.183	-0.366
-443.836	-200.000	0.029	-0.138
-442.822	-200.000	0.017	-0.130
-441.807	-48.735	-0.289	0.138
-440.792	800.000	-0.018	0.066
-439.778	234.441	-0.048	-0.080
-438.763	-31.799	-0.110	0.062
-437.749	-200.000	0.048	-0.274
-436.734	-126.984	0.177	-0.026
-435.719	107.615	-0.181	-0.215
-434.705	-200.000	-0.015	0.263
-433.690	-67.209	-0.266	-0.104
-432.676	-55.710	-0.237	-0.106
-431.661	-200.000	0.033	0.208
-430.646	8.031	-0.344	-0.257
-429.632	313.028	-0.080	-0.150
-428.617	-43.863	0.275	-0.138
-427.603	-25.657	-0.145	0.085
-426.588	-151.077	0.438	-0.033
-425.573	96.623	-0.232	0.265
-424.559	53.156	0.166	0.159
-423.544	-200.000	-0.032	0.161
-422.530	22.705	-0.177	-0.144
-421.515	-200.000	-0.034	0.269
-420.500	529.952	-0.067	-0.158
-419.486	1.704	-0.287	-0.206
-418.471	-200.000	-0.004	0.185
-417.457	-6.801	-0.101	0.069
-416.442	12.026	-0.100	-0.077
-415.428	-200.000	-0.016	-0.263
-414.413	-26.518	-0.237	0.139
-413.398	8.501	-0.194	0.145
-412.384	60.011	-0.133	0.130
-411.369	-167.848	0.181	0.007
-410.355	-71.296	-0.128	-0.048
-409.340	205.303	-0.202	-0.312
-408.325	34.825	0.084	0.073
-407.311	-57.609	-0.150	0.066
-406.296	-36.866	0.136	-0.073
-405.282	156.718	-0.142	-0.196
-404.267	-200.000	-0.011	-0.132
-403.252	23.609	0.152	0.125
-402.238	-26.069	0.103	-0.060
-401.223	-28.194	0.077	0.044
-400.209	-31.472	-0.145	-0.081
-399.194	-200.000	-0.015	-0.088
-398.179	5.299	0.229	0.168
-397.165	800.000	0.070	0.302
-396.150	-148.072	0.288	-0.024
-395.136	800.000	0.049	0.161
-394.121	42.386	-0.105	0.095
-393.106	800.000	0.110	0.372
-392.092	-200.000	0.008	0.210
-391.077	94.995	-0.129	0.146
-390.063	-200.000	0.130	-0.001
-389.048	11.364	0.367	-0.280
-388.033	-178.423	0.276	0.006
-387.019	-200.000	0.008	-0.372
-386.004	13.157	0.133	-0.103
-384.990	185.482	-0.113	0.167
-383.975	81.917	0.078	0.084
-382.960	251.685	0.068	0.115
-381.946	-139.495	-0.279	-0.030
-380.931	82.269	0.234	0.253
-379.917	-97.696	-0.168	0.043
-378.902	117.228	0.221	-0.271
-377.888	-135.218	-0.450	0.054
-376.873	-84.436	0.048	-0.015
-375.858	-194.969	-0.253	0.002
-374.844	17.691	-0.189	-0.149
-373.829	10.365	0.062	0.047
-372.815	-96.741	0.031	-0.008
-371.800	134.033	-0.295	-0.380
-370.785	9.761	-0.027	-0.021
-369.771	94.978	-0.301	0.341
-368.756	-42.756	-0.139	0.070
-367.742	-3.774	-0.252	-0.174
-366.727	-83.307	0.197	0.063
-365.712	305.279	0.080	0.148
-364.698	68.760	0.137	0.139
-363.683	-52.345	-0.126	-0.058
-362.669	800.000	0.088	0.248
-361.654	-200.000	-0.006	0.310
-360.639	-26.171	-0.231	0.135
-359.625	-168.919	-0.163	0.006
-358.610	-128.654	0.034	0.005
-357.596	218.193	0.017	0.027
-356.581	-155.911	-0.205	-0.013
-355.566	-106.562	-0.277	-0.061
-354.552	32.398	-0.220	-0.189
-353.537	800.000	-0.056	-0.164
-352.523	-48.686	-0.213	-0.102
-351.508	147.610	0.202	-0.271
-350.493	-64.631	0.132	-0.053
-349.479	288.854	-0.108	-0.195
-348.464	-66.800	0.316	-0.124
-347.450	-200.000	0.023	0.340
-346.435	800.000	0.018	-0.057
-345.420	-200.000	-0.036	-0.205
-344.406	154.032	-0.076	0.104
-343.391	-115.465	-0.145	0.027
-342.377	5.551	0.083	0.061
-341.362	800.000	0.023	0.075
-340.348	-116.346	-0.223	-0.041
-339.333	-57.513	0.160	-0.070
-338.318	-7.370	0.320	-0.215
-337.304	-200.000	0.027	-0.499
-336.289	194.347	0.068	0.102
-335.275	50.476	0.208	0.195
-334.260	-90.327	0.149	0.043
-333.245	107.406	-0.132	-0.156
-332.231	-171.177	0.266	-0.009
-331.216	435.273	-0.119	-0.257
-330.202	91.883	0.225	0.251
-329.187	-23.875	0.152	0.090
-328.172	-76.510	-0.193	0.067
-327.158	328.146	-0.228	0.434
-326.143	51.344	0.056	-0.053
-325.129	-1.639	-0.086	0.060
-324.114	298.359	-0.314	0.572
-323.099	75.585	-0.193	0.203
-322.085	800.000	0.104	0.294
-321.070	-134.587	0.134	-0.016
-320.056	27.779	0.104	0.087
-319.041	-200.000	0.045	0.254
-318.026	139.330	-0.164	-0.215
-317.012	619.609	-0.081	0.201
-315.997	-10.875	-0.043	0.028
-314.983	751.694	-0.038	-0.102
-313.968	-114.242	0.357	-0.068
-312.953	-200.000	-0.114	0.000
-311.939	-119.300	-0.158	0.027
-310.924	800.000	-0.021	0.075
-309.910	-63.616	0.440	-0.179
-308.895	0.654	0.227	0.161
-307.880	800.000	0.047	0.142
-306.866	-57.990	0.155	0.067
-305.851	538.130	-0.118	0.278
-304.837	6.823	0.235	0.173
-303.822	-86.175	0.264	-0.081
-302.807	412.430	-0.058	-0.122
-301.793	-101.021	-0.246	0.060
-300.778	121.729	-0.326	-0.404
-299.764	-59.110	-0.201	-0.086
-298.749	1.945	-0.097	0.069
-297.735	-63.197	-0.135	-0.055
-296.720	13.693	-0.124	-0.095
-295.705	83.176	0.060	-0.065
-294.691	-200.000	0.008	-0.186
-293.676	-154.123	-0.179	-0.012
-292.662	208.112	0.262	-0.405
-291.647	-109.236	0.152	-0.032
-290.632	-7.702	-0.327	-0.219
-289.618	338.808	0.163	0.314
-288.603	-139.076	0.284	0.030
-287.589	-0.505	0.128	0.090
-286.574	101.055	0.203	0.235
-285.559	-200.000	-0.060	-0.276
-284.545	-153.072	0.411	0.029
-283.530	-4.233	0.073	-0.050
-282.516	-54.013	-0.293	-0.132
-281.501	47.726	0.273	-0.252
-280.486	-10.030	0.056	0.037
-279.472	-8.838	0.151	0.100
-278.457	-45.130	0.030	0.015
-277.443	16.290	-0.287	0.224
-276.428	-63.404	0.110	0.045
-275.413	-200.000	0.009	-0.047
-274.399	800.000	0.064	0.246
-273.384	-126.485	0.219	-0.032
-272.370	-200.000	-0.051	-0.232
-271.355	-200.000	0.013	-0.261
-270.340	140.467	-0.085	0.112
-269.326	208.642	-0.248	0.385
-268.311	587.217	0.072	0.175
-267.297	-102.555	0.040	-0.010
-266.282	4.000	-0.059	0.043
-265.267	72.892	-0.059	0.061
-264.253	-200.000	-0.070	0.429
-263.238	-200.000	0.011	0.295
-262.224	-200.000	-0.038	-0.278
-261.209	-2.016	0.121	-0.084
-260.195	-200.000	-0.001	0.117
-259.180	7.583	-0.113	0.084
-258.165	4.443	0.202	0.147
-257.151	-83.231	-0.015	-0.005
-256.136	30.657	0.254	-0.215
-255.122	55.463	0.060	-0.057
-254.107	-200.000	0.002	-0.462
-253.092	-200.000	0.063	-0.287
-252.078	47.192	-0.068	0.063
-251.063	14.291	0.260	0.201
-250.049	31.733	0.008	-0.007
-249.034	-93.405	0.118	0.032
-248.019	-97.301	-0.125	0.032
-247.005	21.079	0.087	0.070
-245.990	-84.352	0.293	0.092
-244.976	-132.830	0.263	-0.033
-243.961	800.000	0.032	-0.103
-242.946	-68.011	-0.334	-0.129
-241.932	344.469	0.152	-0.296
-240.917	-71.429	-0.467	0.173
-239.903	800.000	0.130	-0.543
-238.888	-160.774	-0.252	0.013
-237.873	-129.965	0.173	-0.023
-236.859	-200.000	0.057	0.262
-235.844	79.139	0.042	-0.045
-234.830	-19.883	-0.170	0.104
-233.815	-200.000	-0.016	-0.119
-232.800	-46.046	-0.231	-0.113
-231.786	44.140	-0.232	-0.210
-230.771	347.289	0.047	-0.092
-229.757	123.187	0.072	-0.089
-228.742	229.109	0.254	0.410
-227.727	-177.831	-0.125	-0.003
-226.713	292.343	-0.050	0.091
-225.698	-33.083	-0.135	-0.074
-224.684	14.833	0.225	0.174
-223.669	246.100	0.110	0.184
-222.655	-69.850	-0.379	-0.143
-221.640	-48.542	0.058	0.027
-220.625	-200.000	0.051	-0.326
-219.611	391.406	-0.017	-0.034
-218.596	-121.572	0.067	-0.011
-217.582	401.298	-0.098	0.204
-216.567	-48.146	0.233	0.111
-215.552	17.776	0.221	0.174
-214.538	800.000	0.109	0.360
-213.523	-77.422	0.466	-0.160
-212.509	-93.622	-0.197	0.054
-211.494	-200.000	0.009	-0.049
-210.479	-164.393	-0.200	0.009
-209.465	105.123	-0.248	-0.289
-208.450	215.634	-0.030	-0.047
-207.436	-200.000	0.001	0.182
-206.421	265.561	-0.055	-0.095
-205.406	44.745	-0.158	-0.144
-204.392	98.485	-0.142	-0.162
-203.377	43.524	-0.321	-0.290
-202.363	-57.416	-0.100	-0.043
-201.348	-7.267	-0.066	0.044
-200.333	-138.961	-0.107	-0.011
-199.319	-200.000	-0.050	0.279
-198.304	800.000	0.101	0.317
-197.290	-55.639	-0.028	0.012
-196.275	558.438	0.184	-0.438
-195.260	-200.000	-0.012	0.148
-194.246	418.481	-0.054	-0.114
-193.231	-200.000	0.053	0.286
-192.217	-200.000	-0.007	0.157
-191.202	692.782	0.032	-0.082
-190.187	217.706	-0.153	0.240
-189.173	-154.408	0.177	-0.012
-188.158	276.899	-0.128	0.224
-187.144	-83.259	-0.339	0.108
-186.129	576.094	-0.151	-0.365
-185.114	-145.882	-0.254	-0.022
-184.100	53.641	0.045	-0.042
-183.085	-54.420	0.341	-0.153
-182.071	-136.494	-0.061	0.007
-181.056	-131.921	-0.188	0.024
-180.042	20.422	0.230	0.183
-179.027	-200.000	-0.031	0.358
-178.012	-63.286	0.342	0.139
-176.998	58.803	0.114	-0.110
-175.983	-63.749	0.134	-0.054
-174.969	189.395	0.078	0.116
-173.954	339.234	-0.064	-0.123
-172.939	380.652	-0.049	0.098
-171.925	112.803	0.149	0.178
-170.910	97.082	-0.051	-0.057
-169.896	-200.000	0.034	0.150
-168.881	-104.840	0.317	-0.072
-167.866	-200.000	-0.016	0.107
-166.852	556.649	-0.074	-0.176
-165.837	-125.309	-0.278	-0.042
-164.823	-97.246	-0.205	-0.053
-163.808	-92.254	0.292	-0.081
-162.793	-200.000	-0.015	0.238
-161.779	208.084	0.177	-0.273
-160.764	79.115	-0.126	0.133
-159.750	-69.495	0.434	0.164
-158.735	-79.757	0.336	-0.111
-157.720	-19.070	0.287	-0.176
-156.706	67.217	-0.077	-0.077
-155.691	-60.071	0.292	-0.123
-154.677	18.714	0.119	-0.094
-153.662	-177.095	-0.090	0.002
-152.647	77.278	0.110	0.115
-151.633	-200.000	-0.002	-0.095
-150.618	144.167	-0.118	-0.155
-149.604	469.848	-0.048	0.106
-148.589	-200.000	-0.006	0.047
-147.574	102.133	0.027	0.032
-146.560	62.507	-0.267	-0.263
-145.545	32.761	0.157	0.134
-144.531	-76.390	-0.194	0.067
-143.516	-69.426	-0.136	-0.052
-142.502	-200.000	-0.002	0.084
-141.487	-105.106	-0.149	0.034
-140.472	-82.809	0.475	-0.151
-139.458	-2.618	-0.118	-0.081
-138.443	-200.000	-0.019	-0.283
-137.429	-200.000	0.026	0.159
-136.414	148.271	0.188	0.250
-135.399	60.834	-0.091	-0.089
-134.385	-65.083	-0.114	0.045
-133.370	-25.704	0.148	-0.086
-132.356	-168.203	-0.292	0.011
-131.341	30.973	-0.179	0.151
-130.326	-28.132	-0.134	0.076
-129.312	-57.546	0.347	0.150
-128.297	800.000	-0.029	-0.115
-127.283	-200.000	0.048	0.262
-126.268	244.754	-0.069	0.114
-125.253	-200.000	-0.004	0.142
-124.239	-5.788	-0.231	0.156
-123.224	-135.327	-0.250	0.030
-122.210	9.384	-0.164	-0.122
-121.195	364.770	-0.088	0.174
-120.180	-101.050	-0.104	0.025
-119.166	65.120	-0.248	-0.247
-118.151	206.946	0.189	0.290
-117.137	33.924	-0.231	0.198
-116.122	-200.000	0.038	0.276
-115.107	800.000	0.045	-0.172
-114.093	-134.884	-0.125	0.015
-113.078	4.405	0.278	-0.201
-112.064	-134.278	0.275	-0.033
-111.049	-41.431	-0.291	0.147
-110.034	-143.529	0.195	-0.018
-109.020	-200.000	0.032	-0.244
-108.005	-200.000	0.044	-0.194
-106.991	-149.401	0.233	0.018
-105.976	-153.065	-0.326	-0.023
-104.962	-200.000	-0.003	0.111
-103.947	-200.000	0.024	-0.168
-102.932	-143.344	0.146	0.014
-101.918	138.954	-0.108	-0.140
-100.903	800.000	0.009	-0.025
-99.889	125.617	-0.185	-0.230
-98.874	441.086	-0.022	-0.048
-97.859	-174.103	-0.031	0.001
-96.845	130.581	0.089	0.112
-95.830	-200.000	-0.037	0.277
-94.816	-17.471	0.337	-0.209
-93.801	-200.000	0.001	0.050
-92.786	45.886	-0.076	0.069
-91.772	800.000	0.055	-0.230
-90.757	-133.418	-0.141	-0.017
-89.743	-200.000	-0.032	0.182
-88.728	-200.000	-0.427	0.002
-87.713	800.000	0.084	-0.229
-86.699	-200.000	0.016	-0.086
-85.684	238.130	-0.140	0.229
-84.670	548.571	-0.078	-0.184
-83.655	-64.833	0.105	-0.042
-82.640	800.000	0.038	0.154
-81.626	-200.000	0.119	-0.536
-80.611	-73.002	0.354	0.128
-79.597	800.000	0.023	0.062
-78.582	106.026	0.069	-0.080
-77.567	-6.044	-0.135	0.091
-76.553	-137.239	0.140	-0.016
-75.538	167.348	-0.085	-0.119
-74.524	37.192	0.204	-0.178
-73.509	-93.266	0.222	-0.061
-72.494	-91.452	0.287	0.080
-71.480	-200.000	-0.004	0.031
-70.465	-59.339	0.081	-0.034
-69.451	41.508	0.211	-0.188
-68.436	724.635	0.036	-0.094
-67.422	-200.000	-0.035	-0.198
-66.407	-200.000	0.028	0.319
-65.392	800.000	0.104	0.288
-64.378	-90.109	-0.068	-0.019
-63.363	11.501	-0.146	0.110
-62.349	566.843	0.073	0.175
-61.334	34.506	-1.114	-0.956
-60.319	137.873	0.478	0.616
-59.305	800.000	-0.338	-1.018
-58.290	486.657	0.503	1.126
-57.276	560.310	0.597	1.417
-56.261	-200.000	102.344	589.454
-55.246	552.202	1434.544	3384.707
-54.232	187.461	2621.794	3842.616
-53.217	116.472	2146.657	2585.402
-52.203	42.510	1593.623	1424.080
-51.188	34.208	1327.991	1137.328
-50.173	31.001	1286.459	1083.119
-49.159	54.532	1338.173	1266.650
-48.144	55.965	1354.301	1290.344
-47.130	34.332	1310.292	1122.726
-46.115	30.713	1292.979	1086.759
-45.100	30.595	1287.934	1081.786
-44.086	30.576	1285.638	1079.705
-43.071	30.504	1283.462	1077.415
-42.057	30.420	1281.180	1074.972
-41.042	30.559	1279.584	1074.393
-40.027	30.517	1278.294	1073.025
-39.013	30.584	1275.894	1071.353
-37.998	30.477	1274.996	1069.943
-36.984	30.520	1272.826	1068.323
-35.969	30.511	1271.249	1066.907
-34.954	30.641	1269.236	1065.920
-33.940	30.645	1268.570	1065.341
-32.925	30.728	1266.920	1064.389
-31.911	30.745	1265.182	1062.981
-30.896	30.590	1264.233	1061.262
-29.881	30.710	1262.620	1060.551
-28.867	30.849	1261.049	1059.974
-27.852	30.846	1259.583	1058.687
-26.838	30.755	1258.462	1057.186
-25.823	30.705	1257.143	1055.749
-24.809	30.679	1255.446	1054.139
-23.794	30.711	1254.724	1053.671
-22.779	30.697	1253.214	1052.283
-21.765	30.601	1252.247	1050.885
-20.750	30.759	1250.303	1050.106
-19.736	30.701	1248.978	1048.622
-18.721	30.590	1248.113	1047.230
-17.706	30.697	1246.601	1046.521
-16.692	30.573	1245.981	1045.261
-15.677	30.594	1245.063	1044.565
-14.663	30.674	1243.432	1043.609
-13.648	30.567	1242.513	1042.194
-12.633	30.632	1241.512	1041.679
-11.619	30.469	1241.160	1040.426
-10.604	30.648	1240.131	1040.527
-9.590	30.535	1239.074	1038.964
-8.575	30.462	1237.965	1037.586
-7.560	30.471	1237.103	1036.875
-6.546	30.562	1235.985	1036.403
-5.531	30.561	1235.322	1035.800
-4.517	30.585	1234.587	1035.278
-3.502	30.481	1234.329	1034.441
-2.487	30.600	1232.691	1033.687
-1.473	30.479	1228.831	1029.738
-0.458	29.145	1213.679	1009.695
0.556	24.739	1196.848	973.240
1.571	21.085	1202.229	957.518
2.586	20.181	1217.546	964.606
3.600	19.825	1206.150	953.527
4.615	15.341	1136.675	875.182
5.629	8.146	1065.319	784.866
6.644	5.048	1046.880	756.209
7.659	4.882	1044.421	753.562
8.673	4.802	1043.384	752.361
9.688	4.709	1042.170	750.974
10.702	4.921	1040.234	750.533
11.717	9.008	1045.185	773.780
12.731	15.787	1055.393	814.182
13.746	18.581	1058.230	829.836
14.761	18.087	1056.965	826.381
15.775	17.071	1054.514	819.488
16.790	15.994	1052.802	812.893
17.804	15.409	1050.757	808.425
18.819	15.016	1050.024	805.896
19.834	14.896	1048.851	804.347
20.848	14.504	1048.155	801.858
21.863	14.303	1047.427	800.265
22.877	14.240	1046.694	799.332
23.892	14.256	1045.577	798.485
24.907	14.093	1045.516	797.586
25.921	14.248	1044.047	797.138
26.936	14.328	1043.180	796.785
27.950	14.298	1041.413	795.224
28.965	14.398	1039.590	794.239
29.980	14.458	1038.753	793.812
30.994	14.428	1037.540	792.673
32.009	14.539	1036.380	792.243
33.023	14.512	1035.075	791.050
34.038	14.319	1034.327	789.494
35.053	14.288	1033.267	788.465
36.067	14.251	1032.865	787.914
37.082	14.392	1031.566	787.521
38.096	14.524	1031.093	787.712
39.111	14.489	1030.165	786.768
40.126	14.259	1029.113	784.814
41.140	14.135	1027.862	783.204
42.155	14.035	1026.988	781.999
43.169	14.140	1025.840	781.549
44.184	14.058	1024.819	780.318
45.199	14.135	1023.771	779.813
46.213	14.195	1022.287	778.894
47.228	14.284	1021.549	778.678
48.242	14.197	1020.882	777.696
49.257	14.272	1019.731	777.101
50.271	14.287	1019.150	776.656
51.286	14.260	1018.231	775.763
52.301	14.234	1016.953	774.597
53.315	14.101	1016.124	773.282
54.330	14.171	1015.125	772.776
55.344	14.108	1014.573	771.998
56.359	14.197	1013.441	771.477
57.374	14.111	1012.769	770.503
58.388	14.094	1011.610	769.472
59.403	13.974	1011.352	768.653
60.417	14.079	1009.764	767.863
61.432	14.108	1009.335	767.603
62.447	14.056	1008.466	766.636
63.461	13.923	1007.494	765.215
64.476	14.008	1006.742	764.966
65.490	13.909	1006.216	764.044
66.505	14.024	1005.292	763.802
67.520	14.067	1004.810	763.569
68.534	14.033	1004.295	762.953
69.549	14.020	1003.537	762.248
70.563	13.917	1002.875	761.209
71.578	13.873	1001.809	760.127
72.593	13.970	1000.832	759.766
73.607	13.856	1000.565	758.971
74.622	13.962	999.703	758.735
75.636	13.966	999.019	758.170
76.651	14.052	998.190	757.865
77.666	13.918	998.078	757.100
78.680	13.938	997.116	756.396
79.695	14.049	996.516	756.377
80.709	14.059	996.029	755.986
81.724	14.207	995.108	755.893
82.739	14.179	994.440	755.191
83.753	14.305	994.245	755.547
84.768	14.424	993.086	755.140
85.782	14.388	992.265	754.285
86.797	14.408	991.228	753.525
87.812	14.238	990.549	752.173
88.826	14.320	989.495	751.672
89.841	14.462	988.492	751.485
90.855	14.361	987.886	750.504
91.870	14.473	986.848	750.152
92.884	14.312	986.571	749.152
93.899	14.445	985.226	748.661
94.914	14.600	984.035	748.387
95.928	14.568	983.590	747.838
96.943	14.314	983.142	746.292
97.957	14.414	982.193	745.952
98.972	14.403	981.146	745.044
99.987	14.525	980.254	744.843
101.001	14.390	979.711	743.762
102.016	14.443	978.641	743.121
103.030	14.460	977.547	742.302
104.045	14.463	976.723	741.626
105.060	14.350	976.323	740.750
106.074	14.290	975.316	739.657
107.089	14.172	974.192	738.214
108.103	14.248	973.038	737.613
109.118	14.091	972.593	736.512
110.133	14.061	971.642	735.595
111.147	14.203	970.548	735.330
112.162	14.123	970.132	734.594
113.176	14.296	969.054	734.478
114.191	14.299	968.458	733.974
115.206	14.235	967.610	732.985
116.220	14.141	967.171	732.172
117.235	14.192	965.853	731.334
118.249	14.206	965.023	730.703
119.264	14.267	964.301	730.360
120.279	14.194	963.504	729.373
121.293	14.150	962.760	728.552
122.308	14.061	962.105	727.602
123.322	14.055	961.050	726.711
124.337	14.088	959.976	725.982
125.352	14.104	959.153	725.366
126.366	14.053	957.956	724.173
127.381	14.096	957.216	723.737
128.395	14.060	956.333	722.847
129.410	14.110	955.093	722.066
130.424	14.263	954.324	722.082
131.439	14.009	954.176	720.805
132.454	14.267	953.202	721.121
133.468	14.397	952.256	720.906
134.483	14.178	951.762	719.522
135.497	14.271	950.717	719.071
136.512	14.243	950.175	718.476
137.527	14.315	949.024	717.852
138.541	14.268	948.232	716.985
139.556	14.364	947.630	716.881
140.570	14.388	947.384	716.736
141.585	14.431	946.558	716.232
142.600	14.480	945.628	715.674
143.614	14.526	944.633	715.058
144.629	14.638	943.820	714.856
145.643	14.559	942.753	713.646
146.658	14.504	941.682	712.540
147.673	14.430	940.967	711.619
148.687	14.320	940.174	710.484
149.702	14.197	939.565	709.439
150.716	14.336	938.589	709.232
151.731	14.304	937.862	708.483
152.746	14.311	937.421	708.118
153.760	14.335	936.855	707.729
154.775	14.483	936.291	707.869
155.789	14.537	935.725	707.608
156.804	14.477	934.661	706.485
157.819	14.639	934.083	706.672
158.833	14.587	933.340	705.826
159.848	14.602	932.904	705.500
160.862	14.534	932.095	704.539
161.877	14.475	931.012	703.406
162.892	14.393	929.866	702.133
163.906	14.370	929.478	701.682
164.921	14.265	928.425	700.383
165.935	14.398	927.724	700.352
166.950	14.493	926.769	699.967
167.964	14.536	925.805	699.358
168.979	14.494	924.937	698.464
169.994	14.581	923.784	697.897
171.008	14.389	923.623	696.910
172.023	14.712	922.375	697.256
173.037	14.727	921.825	696.838
174.052	14.693	921.342	696.270
175.067	14.431	921.026	694.877
176.081	14.596	919.968	694.704
177.096	14.446	919.509	693.672
178.110	14.364	919.214	693.049
179.125	14.416	918.583	692.729
180.140	14.634	917.910	693.063
181.154	14.534	917.874	692.560
182.169	14.716	917.155	692.711
183.183	14.746	916.425	692.223
184.198	14.916	915.242	691.971
185.213	14.699	914.962	690.799
186.227	14.813	914.309	690.719
187.242	14.923	913.293	690.345
188.256	14.984	912.830	690.186
189.271	14.887	912.052	689.134
190.286	14.738	911.174	687.799
191.300	14.522	910.366	686.239
192.315	14.451	910.031	685.631
193.329	14.566	909.252	685.459
194.344	14.573	908.904	685.163
195.359	14.693	908.461	685.262
196.373	14.664	907.609	684.441
197.388	14.787	907.460	684.771
198.402	14.811	906.996	684.460
199.417	14.980	906.479	684.698
200.432	15.036	905.698	684.277
201.446	15.194	904.953	684.298
202.461	15.085	904.868	683.729
203.475	15.054	904.418	683.201
204.490	14.976	902.917	681.691
205.504	14.923	902.745	681.284
206.519	14.899	901.660	680.306
207.534	14.964	901.234	680.189
208.548	14.969	900.735	679.772
209.563	14.922	899.828	678.836
210.577	15.079	898.854	678.678
211.592	15.101	898.540	678.472
212.607	15.131	897.970	678.105
213.621	15.110	897.193	677.370
214.636	15.195	896.511	677.140
215.650	15.225	895.804	676.667
216.665	15.313	894.885	676.266
217.680	15.253	894.477	675.658
218.694	15.328	893.768	675.365
219.709	15.244	893.161	674.510
220.723	15.165	892.551	673.669
221.738	15.262	891.843	673.465
222.753	15.208	891.613	673.016
223.767	15.366	890.891	673.045
224.782	15.356	890.268	672.473
225.796	15.492	889.395	672.303
226.811	15.522	888.894	671.984
227.826	15.367	888.082	670.689
228.840	15.250	887.545	669.758
229.855	15.451	886.560	669.758
230.869	15.368	885.941	668.900
231.884	15.246	885.380	667.928
232.899	15.232	884.324	667.020
233.913	15.224	883.926	666.629
234.928	15.192	883.498	666.119
235.942	15.139	882.894	665.393
236.957	15.266	882.515	665.552
237.972	15.125	882.021	664.561
238.986	15.360	881.097	664.738
240.001	15.177	880.603	663.582
241.015	15.346	879.679	663.496
242.030	15.477	879.387	663.736
243.045	15.510	878.460	663.106
244.059	15.329	878.153	662.101
245.074	15.498	877.356	662.109
246.088	15.617	876.631	661.974
247.103	15.452	876.296	661.011
248.117	15.612	875.920	661.298
249.132	15.801	874.970	661.266
250.147	15.832	874.840	661.232
251.161	15.841	874.015	660.583
252.176	15.878	873.231	660.078
253.190	15.958	872.649	659.892
254.205	16.024	872.003	659.606
255.220	16.063	871.348	659.205
256.234	15.880	870.966	658.139
257.249	16.046	869.988	657.993
258.263	15.794	869.818	656.819
259.278	15.884	868.706	656.273
260.293	15.896	868.290	655.946
261.307	16.116	867.717	656.314
262.322	16.138	866.948	655.758
263.336	16.119	866.147	655.022
264.351	15.953	865.677	653.963
265.366	16.087	864.916	653.853
266.380	16.197	864.416	653.841
267.395	16.053	864.092	652.980
268.409	16.011	863.211	652.095
269.424	16.148	861.977	651.634
270.439	16.131	861.517	651.165
271.453	16.003	860.805	650.076
272.468	15.935	860.804	649.755
273.482	16.081	859.797	649.497
274.497	16.089	859.216	649.034
275.512	16.186	858.502	648.809
276.526	16.064	858.305	648.134
277.541	16.197	857.982	648.342
278.555	16.234	856.912	647.620
279.570	16.262	856.707	647.515
280.585	16.382	855.951	647.346
281.599	16.336	854.679	646.150
282.614	16.218	854.193	645.276
283.628	16.169	853.887	644.800
284.643	16.174	853.561	644.514
285.657	16.262	852.273	643.822
286.672	16.304	851.916	643.656
287.687	16.309	851.247	643.111
288.701	16.326	850.868	642.834
289.716	16.346	850.296	642.422
290.730	16.402	849.925	642.296
291.745	16.346	848.981	641.312
292.760	16.472	848.621	641.461
293.774	16.482	847.869	640.874
294.789	16.509	847.126	640.360
295.803	16.353	846.427	639.182
296.818	16.408	845.553	638.674
297.833	16.393	845.235	638.321
298.847	16.472	844.559	638.052
299.862	16.424	844.195	637.539
300.876	16.547	843.920	637.739
301.891	16.495	843.266	636.995
302.906	16.530	842.838	636.745
303.920	16.607	842.273	636.553
304.935	16.799	841.721	636.801
305.949	16.603	840.878	635.371
306.964	16.626	840.372	635.019
307.979	16.667	839.801	634.683
308.993	16.755	839.240	634.533
310.008	16.659	838.828	633.807
311.022	16.755	837.967	633.460
312.037	16.716	837.503	632.907
313.052	16.618	836.866	632.002
314.066	16.543	836.498	631.390
315.081	16.557	835.831	630.881
316.095	16.630	835.226	630.641
317.110	16.651	834.574	630.170
318.125	16.435	834.193	629.025
319.139	16.649	833.920	629.557
320.154	16.578	833.288	628.763
321.168	16.518	832.864	628.162
322.183	16.625	832.207	628.010
323.197	16.772	831.717	628.128
324.212	16.644	831.242	627.240
325.227	16.672	830.389	626.645
326.241	16.790	829.770	626.560
327.256	16.842	829.264	626.313
328.270	16.773	828.778	625.638
329.285	16.696	828.413	625.021
330.300	16.660	827.610	624.229
331.314	16.671	827.204	623.906
332.329	16.829	826.603	623.981
333.343	16.861	826.117	623.676
334.358	17.001	825.379	623.579
335.373	16.790	825.683	622.975
336.387	16.940	825.291	623.177
337.402	16.930	825.260	623.062
338.416	16.911	824.756	622.556
339.431	17.015	824.282	622.525
340.446	17.214	823.883	622.897
341.460	17.160	823.443	622.313
342.475	17.132	823.261	622.016
343.489	17.174	822.596	621.614
344.504	17.266	821.831	621.316
345.519	17.328	821.233	621.038
346.533	17.283	820.881	620.550
347.548	17.191	820.594	619.942
348.562	17.133	819.992	619.221
349.577	17.073	819.068	618.251
350.592	17.039	818.928	617.967
351.606	17.147	817.964	617.579
352.621	17.141	817.350	617.036
353.635	17.124	816.955	616.624
354.650	17.095	816.321	615.986
355.665	17.076	815.804	615.473
356.679	17.342	814.709	615.553
357.694	17.417	814.109	615.315
358.708	17.278	813.864	614.575
359.723	17.367	813.350	614.454
360.738	17.399	812.782	614.085
361.752	17.281	812.302	613.243
362.767	17.468	811.501	613.259
363.781	17.409	811.392	612.908
364.796	17.490	810.810	612.705
365.810	17.475	810.358	612.256
366.825	17.517	810.753	612.652
367.840	17.688	809.732	612.442
368.854	17.461	809.090	611.086
369.869	17.519	808.535	610.821
370.883	17.642	807.794	610.650
371.898	17.619	807.958	610.634
372.913	17.658	807.613	610.460
373.927	17.671	806.719	609.777
374.942	17.669	806.311	609.409
375.956	17.768	805.872	609.376
376.971	17.769	805.517	609.057
377.986	17.859	805.014	608.943
379.000	17.804	804.944	608.640
380.015	17.848	804.537	608.437
381.029	17.877	803.587	607.768
382.044	17.871	802.996	607.246
383.059	17.819	802.473	606.611
384.073	17.879	801.983	606.399
385.088	17.776	801.438	605.568
386.102	17.697	800.820	604.767
387.117	17.812	800.014	604.515
388.132	17.869	799.265	604.096
389.146	17.826	798.988	603.679
390.161	17.928	798.579	603.678
391.175	17.967	798.447	603.663
392.190	17.881	797.854	602.857
393.205	17.788	797.736	602.387
394.219	17.782	796.834	601.631
395.234	17.820	796.752	601.649
396.248	17.741	796.341	601.007
397.263	17.788	795.520	600.501
398.278	17.653	795.465	599.931
399.292	17.771	794.868	599.842
400.307	17.911	794.307	599.857
401.321	17.837	793.579	598.995
402.336	17.840	793.481	598.878
403.350	17.900	792.939	598.628
404.365	17.862	792.787	598.328
405.380	18.069	792.211	598.564
406.394	17.984	791.879	597.964
407.409	18.195	791.289	598.202
408.423	18.243	791.112	598.182
409.438	18.228	790.655	597.733
410.453	18.230	790.209	597.350
411.467	18.178	789.700	596.731
412.482	18.303	789.285	596.799
413.496	18.319	788.924	596.530
414.511	18.448	788.616	596.695
415.526	18.430	788.066	596.162
416.540	18.239	787.712	595.175
417.555	18.315	787.237	595.029
418.569	18.345	786.929	594.846
419.584	18.382	786.525	594.617
420.599	18.436	785.959	594.323
421.613	157.653	1370.223	1795.624
422.628	136.272	1455.376	1795.715
