DTS Sentinel unit serial number:	SN413079Multiplexer serial number:	ORYXHardware model number:	OX4-SRSoftware version number:	ORYX F/W v4.00 Oryx Data Collector v3.7.2.0data status	okinstallation	princeton_trtdifferential loss correction	single-endedforward channel	channel 1reverse channel	N/Adate	2019/09/14time	15:38:35forward acquisition time	60.00reverse acquisition time	0.00gamma	496.2192k internal	0.2295k external	0.2295temperature offset calibration	1.0075default loss term (dB/km)	0.3790temperature slope calibration	1.0000multiplexer offset coefficient	1.0000multiplexer slope coefficient	1.0000fibre end	0.00T internal ref (°C)	38.81T ext. ref 1 (°C)	5.16T ext. ref 2 (°C)	34.16length (m)	temperature (°C)	Stokes	anti-Stokes-747.200	67.353	-0.177	0.185
-746.185	-200.000	-0.017	0.120
-745.171	-14.863	-0.133	0.087
-744.156	-21.345	-0.063	0.039
-743.142	800.000	0.077	0.226
-742.127	33.225	0.052	-0.046
-741.112	75.604	0.127	0.137
-740.098	-200.000	-0.005	0.036
-739.083	-55.908	0.162	-0.074
-738.069	111.003	0.174	0.215
-737.054	-200.000	0.007	0.136
-736.039	276.243	0.050	0.090
-735.025	-200.000	-0.011	0.269
-734.010	114.885	0.143	-0.178
-732.996	-119.869	-0.254	0.045
-731.981	-63.840	-0.290	-0.121
-730.966	76.456	-0.198	0.215
-729.952	-37.960	0.176	0.096
-728.937	800.000	-0.106	-0.410
-727.923	516.477	-0.135	-0.322
-726.908	-136.191	0.224	-0.027
-725.894	-122.201	-0.379	-0.063
-724.879	800.000	-0.042	-0.140
-723.864	-85.491	0.118	-0.037
-722.850	486.199	-0.030	0.069
-721.835	-135.269	-0.134	-0.016
-720.821	-200.000	0.013	-0.158
-719.806	800.000	0.051	0.162
-718.791	-8.857	-0.368	-0.252
-717.777	425.952	0.035	-0.077
-716.762	191.452	0.286	0.439
-715.748	800.000	0.084	0.332
-714.733	-77.969	-0.172	-0.061
-713.718	-200.000	-0.056	0.341
-712.704	149.755	-0.082	0.114
-711.689	-16.411	-0.229	0.148
-710.675	-87.821	0.356	0.109
-709.660	-144.451	-0.105	0.010
-708.645	-200.000	-0.015	-0.122
-707.631	-200.000	0.009	0.090
-706.616	234.386	0.266	-0.448
-705.602	-200.000	0.030	0.401
-704.587	396.537	0.102	0.217
-703.572	225.949	-0.069	0.114
-702.558	208.082	-0.097	0.154
-701.543	-25.738	0.139	0.084
-700.529	217.380	0.094	0.153
-699.514	221.489	-0.162	-0.266
-698.499	-200.000	-0.041	0.192
-697.485	-108.284	0.041	0.009
-696.470	685.471	0.126	-0.336
-695.456	800.000	0.071	0.252
-694.441	-200.000	0.012	-0.087
-693.426	-200.000	-0.004	-0.250
-692.412	-134.197	0.489	-0.061
-691.397	2.443	-0.224	0.166
-690.383	-2.181	-0.275	-0.197
-689.368	-200.000	-0.057	-0.422
-688.354	9.760	0.202	0.156
-687.339	-114.088	0.113	0.022
-686.324	-87.453	0.121	0.037
-685.310	149.590	0.134	0.185
-684.295	572.545	-0.141	-0.350
-683.281	-75.947	0.213	0.077
-682.266	-17.893	-0.109	0.070
-681.251	800.000	0.115	0.330
-680.237	-37.133	-0.450	0.246
-679.222	-148.036	-0.065	0.005
-678.208	-63.179	0.177	-0.074
-677.193	59.347	0.075	-0.075
-676.178	-11.778	0.251	0.168
-675.164	-0.456	0.139	-0.100
-674.149	-4.455	-0.015	-0.011
-673.135	-195.337	-0.316	-0.002
-672.120	165.516	-0.127	-0.184
-671.105	387.386	-0.063	-0.132
-670.091	-200.000	0.011	-0.306
-669.076	36.374	-0.248	0.223
-668.062	650.076	0.188	-0.491
-667.047	-87.974	-0.107	0.033
-666.032	46.200	-0.090	-0.085
-665.018	53.527	0.200	0.195
-664.003	-164.483	-0.121	-0.006
-662.989	-200.000	-0.000	-0.218
-661.974	-2.784	0.139	-0.099
-660.959	-52.558	0.055	-0.026
-659.945	-200.000	0.004	0.215
-658.930	91.512	-0.229	-0.262
-657.916	420.950	0.051	-0.111
-656.901	167.645	-0.050	-0.072
-655.886	61.401	-0.238	0.241
-654.872	-200.000	0.267	0.001
-653.857	-200.000	-0.001	-0.180
-652.843	150.465	0.072	0.100
-651.828	-15.296	0.191	-0.125
-650.814	175.925	-0.210	-0.310
-649.799	-8.843	-0.174	-0.119
-648.784	-60.225	-0.105	0.046
-647.770	209.149	0.250	-0.399
-646.755	2.406	0.109	-0.080
-645.741	25.205	0.174	-0.147
-644.726	23.222	-0.200	-0.168
-643.711	163.052	-0.086	-0.124
-642.697	-105.940	-0.379	-0.087
-641.682	142.867	0.098	0.133
-640.668	650.862	0.055	0.144
-639.653	-53.153	-0.137	-0.064
-638.638	-89.788	-0.266	-0.079
-637.624	800.000	-0.064	0.207
-636.609	-132.211	-0.226	-0.030
-635.595	214.927	0.149	-0.241
-634.580	-200.000	-0.017	-0.302
-633.565	98.197	0.050	0.058
-632.551	147.673	0.132	-0.181
-631.536	-97.573	-0.063	-0.017
-630.522	-43.632	-0.211	0.108
-629.507	56.477	0.047	0.046
-628.492	41.317	0.056	0.052
-627.478	-32.590	0.243	-0.138
-626.463	78.939	0.106	0.116
-625.449	-200.000	-0.039	-0.322
-624.434	800.000	-0.072	-0.243
-623.419	800.000	-0.214	-0.638
-622.405	-116.159	-0.234	0.044
-621.390	346.684	-0.071	0.141
-620.376	52.792	-0.190	0.185
-619.361	41.207	0.023	0.021
-618.346	800.000	-0.043	0.137
-617.332	-26.707	0.088	0.052
-616.317	-200.000	0.004	0.168
-615.303	-29.396	0.049	0.028
-614.288	46.002	0.109	0.103
-613.273	-114.990	-0.153	-0.030
-612.259	-162.928	0.031	-0.002
-611.244	-41.925	-0.117	-0.061
-610.230	360.921	-0.120	-0.245
-609.215	534.834	0.093	0.224
-608.201	146.308	-0.088	-0.121
-607.186	-90.048	0.083	0.025
-606.171	52.647	-0.144	-0.140
-605.157	404.382	-0.012	0.027
-604.142	456.662	-0.002	-0.004
-603.128	6.167	-0.105	-0.079
-602.113	5.238	-0.200	0.150
-601.098	42.116	0.288	-0.266
-600.084	-107.617	-0.176	0.039
-599.069	86.371	0.062	-0.070
-598.055	81.861	-0.147	0.162
-597.040	-110.562	-0.065	-0.014
-596.025	-9.511	-0.102	0.069
-595.011	800.000	-0.057	0.176
-593.996	-199.717	0.148	-0.001
-592.982	-200.000	0.015	0.137
-591.967	-200.000	-0.006	0.030
-590.952	-130.261	-0.128	-0.018
-589.938	-200.000	0.054	-0.328
-588.923	512.642	0.067	-0.158
-587.909	640.279	-0.094	-0.242
-586.894	123.812	-0.264	-0.337
-585.879	-143.651	0.467	-0.045
-584.865	-200.000	0.019	-0.106
-583.850	-200.000	0.027	-0.283
-582.836	-146.928	0.099	0.009
-581.821	-71.853	-0.109	0.041
-580.806	372.903	0.115	-0.238
-579.792	-200.000	-0.019	0.088
-578.777	-2.271	-0.209	0.149
-577.763	800.000	-0.081	-0.323
-576.748	742.813	-0.084	-0.229
-575.733	-101.589	-0.504	0.124
-574.719	800.000	-0.057	0.227
-573.704	800.000	-0.068	0.288
-572.690	57.672	-0.298	0.296
-571.675	-7.600	-0.205	-0.141
-570.661	130.771	-0.058	0.075
-569.646	130.562	0.131	-0.170
-568.631	-111.158	-0.278	-0.058
-567.617	65.329	-0.062	-0.063
-566.602	280.133	-0.151	-0.274
-565.588	-200.000	0.001	-0.115
-564.573	800.000	-0.059	0.202
-563.558	72.822	0.070	-0.074
-562.544	-30.894	0.043	0.025
-561.529	-200.000	0.013	-0.251
-560.515	25.853	-0.184	-0.155
-559.500	-200.000	0.003	0.042
-558.485	-146.499	-0.359	-0.032
-557.471	-200.000	0.004	0.030
-556.456	-44.849	0.069	-0.035
-555.442	-65.481	-0.539	0.220
-554.427	-200.000	0.036	-0.386
-553.412	60.192	0.039	0.039
-552.398	313.611	-0.086	0.164
-551.383	142.645	-0.025	0.034
-550.369	-121.383	-0.314	-0.053
-549.354	-17.770	-0.054	0.034
-548.339	-101.590	-0.253	0.062
-547.325	-200.000	-0.062	0.333
-546.310	-200.000	-0.066	-0.313
-545.296	-34.909	0.201	-0.111
-544.281	111.584	0.307	-0.376
-543.266	45.140	-0.341	-0.319
-542.252	-16.873	0.136	0.087
-541.237	-200.000	-0.010	-0.073
-540.223	-78.867	0.081	0.028
-539.208	-47.973	0.284	0.139
-538.193	-147.285	-0.217	-0.019
-537.179	23.437	-0.104	-0.086
-536.164	-200.000	-0.047	0.261
-535.150	136.609	0.177	0.234
-534.135	-200.000	0.029	-0.245
-533.121	-102.976	-0.332	-0.080
-532.106	-114.720	0.277	-0.054
-531.091	35.071	-0.134	0.119
-530.077	60.670	0.115	-0.116
-529.062	-84.514	-0.091	0.029
-528.048	-86.421	0.494	0.154
-527.033	800.000	-0.116	-0.450
-526.018	23.791	0.334	-0.279
-525.004	56.885	0.280	-0.276
-523.989	800.000	0.027	0.101
-522.975	605.597	0.081	0.205
-521.960	45.676	0.311	0.292
-520.945	-113.049	-0.176	-0.035
-519.931	151.901	-0.191	-0.264
-518.916	-200.000	-0.027	-0.123
-517.902	-109.190	-0.183	-0.039
-516.887	-192.138	-0.135	0.001
-515.872	117.380	0.176	0.219
-514.858	-74.257	0.234	-0.086
-513.843	-70.079	-0.071	-0.027
-512.829	800.000	-0.043	-0.184
-511.814	-200.000	0.123	-0.001
-510.799	-200.000	0.012	-0.356
-509.785	-127.211	-0.081	0.012
-508.770	800.000	-0.074	0.226
-507.756	52.247	-0.176	0.170
-506.741	-70.188	0.118	0.045
-505.726	253.823	0.033	0.057
-504.712	-127.460	0.158	-0.023
-503.697	-200.000	0.057	0.267
-502.683	-1.859	-0.260	0.185
-501.668	-200.000	0.012	-0.053
-500.653	-55.306	-0.233	-0.106
-499.639	195.001	0.114	-0.174
-498.624	130.711	-0.062	-0.080
-497.610	-111.045	-0.347	0.072
-496.595	-159.752	-0.242	0.013
-495.581	-200.000	0.002	0.164
-494.566	-200.000	-0.014	-0.307
-493.551	-80.905	0.196	-0.066
-492.537	-7.473	0.289	-0.198
-491.522	188.229	-0.238	0.361
-490.508	800.000	0.034	-0.098
-489.493	76.862	-0.029	0.031
-488.478	-200.000	0.038	0.182
-487.464	-67.991	-0.153	-0.060
-486.449	141.278	0.240	-0.321
-485.435	-200.000	0.005	-0.342
-484.420	-200.000	-0.011	-0.094
-483.405	180.154	-0.073	-0.109
-482.391	215.126	0.123	-0.198
-481.376	8.654	-0.051	0.039
-480.362	314.156	0.056	-0.106
-479.347	-97.910	0.144	-0.038
-478.332	71.780	0.090	-0.094
-477.318	-133.808	-0.105	0.013
-476.303	800.000	-0.102	0.317
-475.289	800.000	0.108	0.405
-474.274	-84.272	-0.189	-0.060
-473.259	-88.092	0.268	0.081
-472.245	-108.027	-0.119	-0.026
-471.230	37.150	0.086	-0.077
-470.216	297.569	0.081	0.151
-469.201	121.387	0.306	0.386
-468.186	-38.224	0.234	-0.125
-467.172	798.226	0.088	0.244
-466.157	-140.144	-0.190	-0.020
-465.143	161.387	-0.241	-0.341
-464.128	72.548	-0.068	0.071
-463.113	-200.000	-0.008	-0.120
-462.099	800.000	0.078	-0.246
-461.084	-99.464	0.134	0.034
-460.070	-82.017	-0.138	0.045
-459.055	-112.053	-0.024	0.005
-458.040	-149.087	0.163	-0.013
-457.026	-200.000	-0.016	-0.270
-456.011	30.719	0.102	-0.088
-454.997	-120.897	0.029	-0.005
-453.982	548.855	0.118	0.287
-452.968	-7.542	0.263	0.180
-451.953	231.917	-0.115	-0.191
-450.938	800.000	-0.079	-0.290
-449.924	-63.042	-0.198	-0.083
-448.909	-200.000	0.037	-0.332
-447.895	6.426	-0.298	-0.224
-446.880	-200.000	0.027	0.155
-445.865	800.000	-0.053	-0.154
-444.851	-108.402	-0.382	-0.083
-443.836	204.339	0.108	-0.169
-442.822	182.568	0.110	0.164
-441.807	-200.000	-0.236	0.001
-440.792	-20.222	-0.282	0.176
-439.778	464.439	0.115	0.261
-438.763	555.154	-0.025	0.060
-437.749	-109.485	0.359	0.077
-436.734	-57.383	-0.411	-0.182
-435.719	571.942	-0.104	-0.255
-434.705	-24.549	-0.254	-0.153
-433.690	-80.497	0.197	0.066
-432.676	235.097	-0.085	0.142
-431.661	-13.922	0.287	-0.187
-430.646	295.882	0.080	-0.148
-429.632	83.633	0.044	-0.049
-428.617	63.185	0.209	-0.211
-427.603	-200.000	0.062	0.278
-426.588	335.626	-0.113	0.222
-425.573	-60.290	0.324	0.139
-424.559	382.231	0.094	-0.195
-423.544	-70.334	0.230	0.088
-422.530	149.812	-0.210	0.288
-421.515	645.993	-0.056	-0.143
-420.500	800.000	0.034	0.127
-419.486	-200.000	0.012	0.388
-418.471	-112.020	0.046	-0.009
-417.457	163.446	-0.051	0.072
-416.442	800.000	-0.027	0.097
-415.428	178.420	0.083	-0.122
-414.413	-65.915	-0.198	-0.080
-413.398	71.154	0.261	-0.273
-412.384	-26.898	-0.175	-0.103
-411.369	495.052	0.081	0.189
-410.355	-200.000	-0.015	0.444
-409.340	97.495	-0.238	0.276
-408.325	-70.382	-0.166	-0.064
-407.311	-95.325	-0.179	0.049
-406.296	-148.954	-0.221	-0.018
-405.282	661.303	0.075	-0.196
-404.267	-64.354	-0.040	-0.017
-403.252	330.667	0.062	-0.120
-402.238	800.000	-0.015	-0.059
-401.223	-200.000	-0.012	-0.112
-400.209	-200.000	-0.009	0.057
-399.194	800.000	0.073	-0.210
-398.179	-200.000	-0.021	-0.242
-397.165	-200.000	0.021	-0.238
-396.150	-200.000	0.003	0.247
-395.136	240.558	-0.113	0.190
-394.121	537.068	-0.118	0.282
-393.106	264.994	-0.107	0.188
-392.092	-127.269	0.157	0.023
-391.077	-19.067	0.134	0.084
-390.063	-200.000	0.017	-0.336
-389.048	50.076	0.212	0.201
-388.033	-90.780	0.369	-0.107
-387.019	92.378	0.128	0.146
-386.004	246.552	-0.102	-0.174
-384.990	193.184	0.148	0.226
-383.975	195.377	0.115	-0.176
-382.960	800.000	0.053	0.193
-381.946	-200.000	0.047	0.244
-380.931	-6.986	0.241	0.165
-379.917	91.655	0.101	-0.114
-378.902	-62.743	-0.333	0.139
-377.888	-200.000	-0.054	-0.305
-376.873	800.000	0.085	0.244
-375.858	-200.000	-0.022	0.212
-374.844	119.790	0.263	-0.328
-373.829	-84.376	-0.132	0.042
-372.815	229.742	-0.176	-0.290
-371.800	-101.765	0.228	-0.056
-370.785	800.000	0.046	-0.133
-369.771	-200.000	-0.020	-0.269
-368.756	417.653	-0.104	-0.223
-367.742	158.521	-0.174	-0.243
-366.727	-26.493	0.112	0.066
-365.712	593.497	0.098	-0.244
-364.698	-12.023	0.148	0.098
-363.683	-68.688	0.205	-0.080
-362.669	-200.000	0.016	0.407
-361.654	39.838	0.164	0.149
-360.639	79.685	-0.116	-0.125
-359.625	-137.602	-0.110	-0.012
-358.610	-93.147	0.268	0.075
-357.596	707.992	-0.051	-0.135
-356.581	149.045	-0.139	0.189
-355.566	86.433	0.112	-0.124
-354.552	-144.824	-0.175	0.016
-353.537	-26.979	0.208	0.122
-352.523	141.461	-0.144	0.193
-351.508	261.011	0.183	0.320
-350.493	-200.000	-0.001	-0.084
-349.479	100.677	0.113	-0.132
-348.464	439.783	0.088	-0.194
-347.450	-200.000	-0.015	-0.413
-346.435	778.287	0.052	-0.144
-345.420	-76.158	-0.120	-0.043
-344.406	70.847	-0.142	-0.147
-343.391	549.864	-0.125	0.302
-342.377	-96.191	-0.156	-0.042
-341.362	330.622	-0.152	-0.295
-340.348	236.895	0.082	0.137
-339.333	-200.000	-0.029	-0.271
-338.318	-200.000	-0.008	0.312
-337.304	-40.521	-0.516	0.269
-336.289	37.742	-0.323	-0.289
-335.275	115.068	-0.039	-0.048
-334.260	800.000	0.031	-0.101
-333.245	9.203	0.131	0.100
-332.231	350.677	-0.088	0.175
-331.216	800.000	0.123	0.472
-330.202	-38.845	-0.262	-0.139
-329.187	800.000	-0.071	-0.204
-328.172	490.134	0.072	0.166
-327.158	800.000	0.093	-0.291
-326.143	-115.573	0.256	0.048
-325.129	721.245	0.131	0.350
-324.114	220.584	-0.186	0.300
-323.099	129.678	0.122	0.157
-322.085	379.157	-0.173	0.357
-321.070	52.319	0.216	-0.207
-320.056	87.328	-0.286	-0.318
-319.041	-36.347	-0.278	0.150
-318.026	800.000	0.065	0.227
-317.012	218.918	-0.159	-0.256
-315.997	-200.000	0.103	0.000
-314.983	677.302	0.145	0.378
-313.968	-124.656	-0.399	0.062
-312.953	-134.180	0.301	0.037
-311.939	52.369	0.105	0.101
-310.924	-59.260	0.329	-0.142
-309.910	535.496	-0.045	0.108
-308.895	-200.000	-0.057	-0.294
-307.880	12.146	0.305	-0.236
-306.866	445.459	-0.080	-0.177
-305.851	24.049	0.057	-0.047
-304.837	-92.174	0.270	0.076
-303.822	167.599	0.076	0.108
-302.807	296.874	-0.024	0.044
-301.793	-188.789	0.184	-0.002
-300.778	-200.000	0.051	0.335
-299.764	452.535	-0.061	0.137
-298.749	800.000	-0.040	-0.130
-297.735	266.279	-0.039	-0.068
-296.720	123.922	-0.027	0.034
-295.705	664.097	0.094	0.242
-294.691	53.073	-0.192	-0.184
-293.676	21.343	0.172	0.140
-292.662	-93.112	0.258	-0.072
-291.647	147.294	0.143	0.194
-290.632	-57.809	-0.414	-0.182
-289.618	-200.000	0.004	0.020
-288.603	-112.682	-0.129	0.026
-287.589	-28.694	0.270	-0.156
-286.574	-119.524	0.303	-0.053
-285.559	-22.632	-0.076	-0.046
-284.545	508.567	0.061	-0.143
-283.530	-200.000	0.008	-0.062
-282.516	-14.426	-0.254	0.164
-281.501	-200.000	-0.013	0.065
-280.486	-85.133	0.204	0.064
-279.472	-200.000	-0.013	-0.084
-278.457	-36.249	0.371	-0.201
-277.443	12.075	0.433	-0.334
-276.428	44.925	-0.285	0.263
-275.413	526.538	-0.183	0.433
-274.399	687.303	-0.103	0.271
-273.384	378.583	0.066	0.136
-272.370	-127.529	0.420	-0.061
-271.355	215.846	-0.097	0.155
-270.340	-200.000	-0.064	-0.294
-269.326	685.972	0.002	0.006
-268.311	-200.000	0.014	0.312
-267.297	120.733	0.042	-0.052
-266.282	-73.681	0.374	0.137
-265.267	-124.582	-0.223	0.035
-264.253	-200.000	-0.001	0.249
-263.238	57.209	0.117	-0.115
-262.224	-20.995	0.257	0.158
-261.209	-200.000	0.014	-0.401
-260.195	-200.000	0.042	0.186
-259.180	-136.917	0.226	0.026
-258.165	23.570	0.128	0.105
-257.151	11.060	0.157	-0.120
-256.136	9.344	0.058	-0.044
-255.122	-55.892	-0.176	0.079
-254.107	3.337	0.024	0.017
-253.092	800.000	-0.081	0.286
-252.078	797.234	0.077	-0.214
-251.063	66.356	0.158	0.161
-250.049	-127.393	-0.144	0.021
-249.034	52.892	-0.070	0.067
-248.019	-50.882	-0.200	-0.094
-247.005	79.363	-0.078	-0.083
-245.990	220.896	-0.213	-0.343
-244.976	-143.054	0.136	0.013
-243.961	-97.197	-0.135	0.035
-242.946	-160.973	0.079	-0.004
-241.932	17.749	0.165	-0.132
-240.917	-116.558	0.411	-0.076
-239.903	52.750	-0.221	0.212
-238.888	-22.620	0.257	-0.156
-237.873	137.453	-0.129	0.169
-236.859	-55.207	0.239	0.108
-235.844	342.213	0.085	0.166
-234.830	106.525	0.141	0.168
-233.815	-43.052	-0.351	-0.178
-232.800	146.049	-0.029	0.039
-231.786	96.180	-0.118	-0.135
-230.771	-7.089	-0.110	0.075
-229.757	626.155	0.220	0.555
-228.742	125.428	0.079	-0.100
-227.727	640.337	0.157	0.401
-226.713	213.879	0.061	-0.097
-225.698	-88.918	0.438	0.130
-224.684	-114.272	0.191	0.037
-223.669	-117.703	0.273	-0.049
-222.655	-200.000	-0.037	0.333
-221.640	-200.000	-0.026	-0.126
-220.625	-12.253	-0.105	-0.068
-219.611	17.855	-0.223	-0.178
-218.596	-200.000	-0.007	-0.053
-217.582	-72.470	-0.090	-0.033
-216.567	800.000	-0.044	0.169
-215.552	-200.000	0.025	0.174
-214.538	494.910	-0.058	0.133
-213.523	-99.649	-0.174	0.044
-212.509	295.545	-0.057	-0.104
-211.494	-200.000	0.024	0.146
-210.479	-200.000	0.324	-0.002
-209.465	800.000	-0.041	-0.129
-208.450	800.000	0.032	0.097
-207.436	18.336	-0.089	-0.071
-206.421	-200.000	-0.023	-0.154
-205.406	-131.195	-0.396	0.053
-204.392	756.914	0.193	-0.523
-203.377	-86.091	0.230	0.071
-202.363	-108.443	-0.271	0.058
-201.348	-46.638	0.066	-0.033
-200.333	-161.109	-0.134	-0.007
-199.319	-125.961	-0.179	0.027
-198.304	-200.000	-0.062	0.280
-197.290	-0.930	-0.179	0.127
-196.275	-22.722	0.128	-0.078
-195.260	-93.572	0.190	0.053
-194.246	-10.792	0.153	0.101
-193.231	-28.808	-0.158	0.091
-192.217	-81.721	-0.433	0.142
-191.202	8.569	0.125	0.094
-190.187	-200.000	0.010	-0.115
-189.173	-99.275	0.366	0.093
-188.158	-111.966	0.160	0.032
-187.144	92.404	0.110	-0.124
-186.129	88.658	-0.067	-0.074
-185.114	228.964	-0.191	-0.312
-184.100	93.877	0.115	-0.130
-183.085	272.351	0.098	-0.173
-182.071	-200.000	0.005	0.265
-181.056	-62.527	-0.031	-0.013
-180.042	-146.659	0.248	0.022
-179.027	800.000	-0.106	0.433
-178.012	-200.000	0.033	-0.214
-176.998	-200.000	0.012	-0.061
-175.983	291.896	-0.158	0.288
-174.969	73.269	-0.096	0.100
-173.954	-200.000	-0.056	0.480
-172.939	-200.000	0.030	0.266
-171.925	670.498	0.088	-0.229
-170.910	28.244	0.155	-0.131
-169.896	-33.962	0.155	-0.085
-168.881	-6.969	0.136	0.092
-167.866	475.817	0.073	-0.166
-166.852	298.146	-0.192	0.352
-165.837	800.000	0.039	-0.124
-164.823	-200.000	0.001	0.140
-163.808	126.546	0.065	0.082
-162.793	20.898	0.286	0.232
-161.779	349.202	-0.075	-0.148
-160.764	800.000	0.064	0.206
-159.750	338.891	-0.141	0.274
-158.735	-200.000	-0.089	0.391
-157.720	229.022	0.070	0.114
-156.706	-200.000	-0.003	0.191
-155.691	73.205	0.319	0.333
-154.677	258.896	0.014	0.024
-153.662	-26.804	-0.061	-0.036
-152.647	294.948	-0.026	-0.048
-151.633	135.036	-0.172	0.223
-150.618	504.659	-0.052	0.120
-149.604	407.301	0.039	-0.083
-148.589	54.261	-0.224	0.216
-147.574	363.315	-0.062	0.125
-146.560	-200.000	-0.021	-0.125
-145.545	-200.000	0.023	0.207
-144.531	679.041	0.022	0.058
-143.516	151.421	0.169	-0.230
-142.502	800.000	0.032	0.132
-141.487	-200.000	-0.017	0.094
-140.472	-142.939	-0.198	-0.019
-139.458	461.956	-0.050	-0.111
-138.443	-200.000	-0.054	-0.440
-137.429	608.211	0.018	0.044
-136.414	-8.225	-0.295	0.198
-135.399	240.466	0.093	0.155
-134.385	-200.000	-0.022	0.318
-133.370	-200.000	-0.000	-0.118
-132.356	-7.344	0.228	0.154
-131.341	199.045	-0.085	-0.131
-130.326	132.003	-0.172	-0.221
-129.312	114.879	-0.033	0.040
-128.297	62.320	-0.097	0.097
-127.283	354.571	-0.064	0.128
-126.268	280.215	0.214	-0.381
-125.253	-200.000	-0.020	-0.118
-124.239	223.362	-0.266	-0.429
-123.224	-200.000	0.017	0.113
-122.210	48.912	0.155	0.145
-121.195	-0.812	-0.300	0.212
-120.180	224.187	0.065	0.105
-119.166	101.766	-0.080	0.093
-118.151	216.668	0.136	0.215
-117.137	-116.527	-0.083	-0.015
-116.122	-105.925	0.193	0.043
-115.107	-138.461	-0.190	-0.021
-114.093	-160.132	-0.279	-0.015
-113.078	53.685	-0.135	-0.130
-112.064	471.685	0.107	0.239
-111.049	3.215	-0.207	0.150
-110.034	-58.884	-0.136	-0.058
-109.020	-48.209	0.266	0.128
-108.005	800.000	0.024	-0.099
-106.991	-5.748	0.171	-0.117
-105.976	-200.000	-0.034	0.310
-104.962	-53.027	-0.480	0.220
-103.947	339.495	0.096	0.187
-102.932	453.699	0.054	0.119
-101.918	12.120	-0.291	-0.223
-100.903	32.024	0.141	-0.121
-99.889	-101.199	-0.261	-0.064
-98.874	800.000	0.017	-0.052
-97.859	-200.000	0.012	-0.382
-96.845	-67.366	-0.129	-0.051
-95.830	160.152	0.081	0.113
-94.816	168.850	0.043	-0.061
-93.801	-200.000	-0.063	-0.463
-92.786	33.948	0.076	0.066
-91.772	-132.312	0.116	-0.015
-90.757	201.862	-0.187	0.287
-89.743	15.795	-0.018	-0.014
-88.728	-200.000	-0.025	0.124
-87.713	-26.789	0.193	0.112
-86.699	-189.607	0.179	0.002
-85.684	705.851	-0.141	0.370
-84.670	-59.741	0.162	0.069
-83.655	-200.000	-0.009	0.089
-82.640	-162.058	-0.146	-0.007
-81.626	-85.191	-0.310	0.097
-80.611	-30.916	0.183	-0.103
-79.597	52.009	0.293	0.278
-78.582	-200.000	-0.052	0.416
-77.567	114.456	-0.050	-0.060
-76.553	-200.000	0.019	0.285
-75.538	187.594	0.248	0.368
-74.524	-151.357	-0.259	-0.019
-73.509	-200.000	-0.035	-0.187
-72.494	281.583	-0.280	0.500
-71.480	-129.687	-0.277	0.038
-70.465	-67.229	-0.272	-0.107
-69.451	-200.000	0.075	-0.481
-68.436	-130.684	0.177	0.024
-67.422	800.000	-0.027	-0.109
-66.407	206.597	-0.103	-0.160
-65.392	33.519	-0.242	-0.210
-64.378	397.683	0.155	-0.323
-63.363	610.495	0.016	0.039
-62.349	-127.349	0.182	0.026
-61.334	60.763	-1.013	-0.999
-60.319	-200.000	0.069	0.450
-59.305	-200.000	-0.015	-0.812
-58.290	247.357	0.439	0.738
-57.276	417.884	0.594	1.262
-56.261	-200.000	82.882	503.143
-55.246	564.723	1364.427	3290.176
-54.232	184.868	2586.809	3816.842
-53.217	121.839	2232.407	2770.863
-52.203	49.917	1685.025	1581.132
-51.188	42.192	1417.122	1280.587
-50.173	38.913	1373.010	1220.333
-49.159	56.983	1413.388	1370.402
-48.144	62.256	1431.711	1421.303
-47.130	42.612	1391.840	1260.178
-46.115	38.915	1374.827	1221.765
-45.100	38.762	1369.874	1216.365
-44.086	38.670	1367.299	1213.461
-43.071	38.633	1365.631	1211.707
-42.057	38.578	1363.329	1209.278
-41.042	38.760	1361.038	1208.316
-40.027	38.691	1359.982	1206.907
-39.013	38.687	1358.371	1205.408
-37.998	38.728	1356.364	1203.830
-36.984	38.770	1354.878	1202.721
-35.969	38.875	1352.435	1201.147
-34.954	38.921	1350.414	1199.586
-33.940	38.905	1349.218	1198.375
-32.925	38.867	1348.410	1197.380
-31.911	38.873	1346.766	1195.911
-30.896	38.846	1345.198	1194.306
-29.881	38.882	1343.905	1193.330
-28.867	38.867	1342.305	1191.771
-27.852	38.885	1340.687	1190.396
-26.838	38.890	1339.174	1189.032
-25.823	38.898	1337.761	1187.783
-24.809	38.934	1336.150	1186.519
-23.794	38.869	1334.871	1184.945
-22.779	38.863	1333.710	1183.831
-21.765	39.018	1331.719	1182.954
-20.750	38.985	1330.606	1181.716
-19.736	38.955	1329.235	1180.273
-18.721	38.857	1327.971	1178.514
-17.706	38.806	1327.079	1177.370
-16.692	38.781	1325.922	1176.148
-15.677	38.850	1324.526	1175.273
-14.663	38.711	1324.285	1174.180
-13.648	38.680	1323.049	1172.857
-12.633	38.728	1321.727	1171.921
-11.619	38.807	1320.992	1171.693
-10.604	38.620	1320.236	1169.863
-9.590	38.744	1318.846	1169.321
-8.575	38.659	1318.115	1168.125
-7.560	38.681	1317.477	1167.641
-6.546	38.701	1315.879	1166.301
-5.531	38.712	1315.390	1165.883
-4.517	38.775	1314.604	1165.513
-3.502	38.800	1313.325	1164.484
-2.487	38.767	1312.441	1163.458
-1.473	38.796	1308.825	1160.378
-0.458	37.464	1292.874	1138.399
0.556	34.048	1273.148	1094.731
1.571	29.660	1276.609	1072.220
2.586	28.259	1291.193	1076.143
3.600	26.520	1278.950	1055.710
4.615	19.783	1202.400	955.352
5.629	9.899	1121.695	839.965
6.644	5.384	1098.410	799.411
7.659	5.005	1096.230	795.818
8.673	5.157	1095.049	795.665
9.688	5.095	1094.261	794.707
10.702	5.352	1092.054	794.338
11.717	10.839	1100.675	828.579
12.731	19.265	1112.474	880.626
13.746	21.399	1114.163	892.799
14.761	19.812	1111.362	882.386
15.775	18.809	1109.039	875.352
16.790	17.670	1106.953	867.833
17.804	16.934	1105.180	862.626
18.819	16.576	1104.578	860.259
19.834	16.240	1103.769	857.845
20.848	16.048	1102.460	855.776
21.863	15.897	1101.678	854.325
22.877	15.814	1100.953	853.266
23.892	15.746	1100.180	852.248
24.907	15.833	1099.079	851.761
25.921	15.771	1098.010	850.546
26.936	15.724	1097.234	849.631
27.950	15.842	1095.353	848.692
28.965	15.910	1093.892	847.827
29.980	16.022	1092.356	847.125
30.994	16.120	1091.058	846.539
32.009	16.056	1090.275	845.534
33.023	15.943	1089.383	844.201
34.038	15.921	1088.197	843.096
35.053	15.932	1087.239	842.337
36.067	15.889	1086.549	841.511
37.082	15.833	1085.116	840.046
38.096	15.953	1084.678	840.233
39.111	15.907	1084.405	839.717
40.126	15.858	1082.527	837.947
41.140	15.712	1080.971	835.942
42.155	15.673	1079.958	834.890
43.169	15.499	1078.994	833.208
44.184	15.662	1077.489	832.781
45.199	15.590	1077.121	832.062
46.213	15.623	1075.989	831.280
47.228	15.719	1075.397	831.223
48.242	15.823	1073.912	830.512
49.257	15.870	1072.914	829.900
50.271	15.851	1072.455	829.380
51.286	15.874	1071.443	828.638
52.301	15.819	1070.826	827.814
53.315	15.777	1069.312	826.365
54.330	15.790	1068.075	825.399
55.344	15.673	1067.311	824.161
56.359	15.768	1066.361	823.823
57.374	15.630	1065.422	822.346
58.388	15.660	1064.443	821.664
59.403	15.520	1063.865	820.465
60.417	15.558	1062.779	819.739
61.432	15.561	1062.181	819.222
62.447	15.608	1061.477	818.832
63.461	15.574	1060.450	817.803
64.476	15.487	1059.612	816.664
65.490	15.516	1058.687	816.015
66.505	15.603	1058.123	815.933
67.520	15.534	1057.597	815.120
68.534	15.521	1056.638	814.248
69.549	15.625	1055.483	813.790
70.563	15.506	1055.237	812.949
71.578	15.345	1054.485	811.520
72.593	15.259	1053.839	810.533
73.607	15.389	1052.950	810.409
74.622	15.408	1052.377	809.985
75.636	15.447	1051.380	809.334
76.651	15.460	1050.586	808.714
77.666	15.489	1049.856	808.223
78.680	15.426	1049.792	807.800
79.695	15.485	1048.742	807.199
80.709	15.638	1048.251	807.485
81.724	15.647	1047.884	807.177
82.739	15.703	1046.589	806.376
83.753	15.747	1046.108	806.143
84.768	15.996	1045.083	806.478
85.782	16.095	1044.276	806.256
86.797	15.978	1043.491	805.021
87.812	15.853	1042.669	803.714
88.826	15.940	1041.351	803.043
89.841	15.894	1040.797	802.328
90.855	15.919	1039.903	801.686
91.870	16.046	1039.137	801.627
92.884	15.987	1038.411	800.717
93.899	15.931	1037.289	799.513
94.914	16.159	1036.105	799.615
95.928	16.116	1035.342	798.751
96.943	15.962	1034.638	797.409
97.957	15.916	1034.112	796.714
98.972	16.221	1032.277	796.670
99.987	16.018	1031.801	795.275
101.001	16.049	1030.914	794.665
102.016	15.981	1030.065	793.621
103.030	15.984	1029.220	792.912
104.045	15.934	1028.971	792.417
105.060	15.993	1027.550	791.531
106.074	15.852	1026.638	790.095
107.089	15.616	1025.356	787.930
108.103	15.566	1024.895	787.274
109.118	15.683	1023.386	786.591
110.133	15.593	1022.829	785.675
111.147	15.599	1022.004	784.997
112.162	15.613	1021.165	784.352
113.176	15.733	1020.351	784.214
114.191	15.704	1019.829	783.608
115.206	15.789	1018.721	783.083
116.220	15.797	1017.653	782.232
117.235	15.664	1017.081	781.103
118.249	15.747	1015.840	780.465
119.264	15.560	1015.434	779.219
120.279	15.651	1014.595	778.929
121.293	15.586	1013.704	777.876
122.308	15.498	1012.909	776.790
123.322	15.541	1011.353	775.724
124.337	15.582	1010.735	775.370
125.352	15.499	1009.977	774.337
126.366	15.587	1008.266	773.365
127.381	15.678	1007.371	773.025
128.395	15.646	1006.670	772.273
129.410	15.526	1005.772	770.965
130.424	15.674	1005.123	771.079
131.439	15.749	1004.248	770.682
132.454	15.720	1003.712	770.070
133.468	15.874	1002.513	769.787
134.483	15.884	1002.120	769.462
135.497	15.885	1001.049	768.575
136.512	15.869	1000.144	767.740
137.527	15.964	999.078	767.288
138.541	15.945	998.078	766.363
139.556	15.793	997.852	765.431
140.570	15.940	997.400	765.686
141.585	16.105	996.247	765.483
142.600	16.086	995.344	764.636
143.614	16.273	994.133	764.483
144.629	16.178	993.718	763.666
145.643	16.193	992.542	762.763
146.658	16.095	991.217	761.234
147.673	16.003	990.401	760.127
148.687	15.881	989.435	758.766
149.702	15.769	988.648	757.591
150.716	15.750	988.092	757.015
151.731	15.854	987.239	756.759
152.746	15.968	986.641	756.746
153.760	15.800	985.841	755.311
154.775	16.012	985.218	755.719
155.789	16.048	984.601	755.342
156.804	16.028	983.938	754.675
157.819	16.000	983.039	753.795
158.833	16.283	982.274	754.407
159.848	16.198	981.364	753.261
160.862	16.252	980.295	752.615
161.877	16.030	979.281	750.782
162.892	16.006	977.938	749.579
163.906	15.941	977.516	748.899
164.921	15.968	976.423	748.114
165.935	15.970	975.708	747.512
166.950	16.040	975.112	747.298
167.964	16.019	974.173	746.421
168.979	15.894	973.469	745.260
169.994	15.926	972.386	744.506
171.008	16.110	971.604	744.656
172.023	16.157	971.513	744.729
173.037	16.174	970.291	743.801
174.052	16.169	969.554	743.148
175.067	16.028	968.903	741.962
176.081	16.078	968.123	741.517
177.096	15.962	967.651	740.580
178.110	15.961	967.285	740.232
179.125	15.989	966.588	739.756
180.140	16.022	966.053	739.425
181.154	16.112	965.754	739.524
182.169	16.242	965.062	739.501
183.183	16.288	964.262	739.024
184.198	16.403	963.274	738.704
185.213	16.346	962.850	738.065
186.227	16.428	961.894	737.623
187.242	16.379	961.402	736.967
188.256	16.494	960.714	736.873
189.271	16.371	960.005	735.733
190.286	16.256	958.983	734.382
191.300	16.002	958.301	732.692
192.315	15.993	957.381	731.884
193.329	15.950	957.185	731.482
194.344	16.221	955.922	731.628
195.359	16.283	955.441	731.461
196.373	16.325	955.150	731.355
197.388	16.380	954.852	731.302
198.402	16.510	954.058	731.192
199.417	16.607	953.405	731.048
200.432	16.647	953.217	731.008
201.446	16.604	952.567	730.262
202.461	16.792	952.176	730.706
203.475	16.702	951.378	729.642
204.490	16.555	950.461	728.244
205.504	16.459	949.800	727.259
206.519	16.540	948.626	726.643
207.534	16.549	947.851	726.023
208.548	16.503	947.488	725.486
209.563	16.467	947.078	724.953
210.577	16.603	946.474	725.008
211.592	16.676	945.661	724.634
212.607	16.754	944.794	724.238
213.621	16.561	944.267	722.945
214.636	16.819	942.951	722.976
215.650	16.870	942.638	722.890
216.665	16.844	941.856	722.116
217.680	16.813	941.033	721.285
218.694	16.941	940.406	721.289
219.709	16.756	940.037	720.154
220.723	16.965	938.782	720.017
221.738	16.767	938.256	718.707
222.753	16.947	937.302	718.678
223.767	16.847	937.041	717.991
224.782	16.913	937.049	718.214
225.796	16.995	936.119	717.784
226.811	17.020	935.234	717.146
227.826	16.868	934.713	716.040
228.840	16.863	933.913	715.344
229.855	16.850	932.986	714.515
230.869	16.716	932.044	713.168
231.884	16.729	931.661	712.868
232.899	16.878	930.552	712.582
233.913	16.859	929.902	711.938
234.928	16.678	929.723	710.979
235.942	16.749	929.045	710.694
236.957	16.751	928.275	710.052
237.972	16.553	927.914	708.884
238.986	16.796	927.168	709.269
240.001	16.736	926.628	708.543
241.015	16.697	926.348	708.103
242.030	17.006	924.957	708.268
243.045	16.955	924.196	707.410
244.059	16.943	923.610	706.847
245.074	16.968	923.569	706.856
246.088	16.908	923.214	706.274
247.103	16.974	922.334	705.812
248.117	17.213	921.284	705.941
249.132	17.398	920.837	706.302
250.147	17.543	920.041	706.229
251.161	17.561	919.555	705.868
252.176	17.348	919.190	704.644
253.190	17.484	918.421	704.555
254.205	17.476	917.607	703.836
255.220	17.466	917.508	703.658
256.234	17.621	916.200	703.228
257.249	17.658	915.235	702.580
258.263	17.594	914.827	701.942
259.278	17.590	913.787	701.066
260.293	17.722	913.404	701.251
261.307	17.658	912.985	700.606
262.322	17.689	912.773	700.506
263.336	17.786	911.381	699.774
264.351	17.714	910.721	698.912
265.366	17.871	909.856	698.828
266.380	17.667	909.655	697.779
267.395	17.676	909.022	697.267
268.409	17.576	908.109	696.095
269.424	17.664	907.555	695.969
270.439	17.637	906.494	694.983
271.453	17.573	906.205	694.440
272.468	17.573	905.434	693.789
273.482	17.628	904.840	693.496
274.497	17.557	904.613	692.970
275.512	17.569	903.590	692.177
276.526	17.689	902.911	692.079
277.541	17.754	902.718	692.133
278.555	17.790	902.043	691.701
279.570	17.997	900.848	691.565
280.585	17.918	900.594	690.986
281.599	17.764	899.748	689.655
282.614	17.686	899.092	688.773
283.628	17.798	898.351	688.598
284.643	17.862	897.671	688.274
285.657	17.811	897.161	687.617
286.672	17.827	896.457	687.082
287.687	17.841	896.125	686.824
288.701	18.011	894.888	686.497
289.716	17.775	894.648	685.302
290.730	17.897	894.512	685.628
291.745	17.951	893.313	684.867
292.760	18.080	892.698	684.852
293.774	18.004	892.597	684.406
294.789	17.978	892.031	683.808
295.803	17.736	891.022	682.006
296.818	17.979	890.324	682.385
297.833	17.942	889.574	681.601
298.847	17.958	888.911	681.098
299.862	18.015	887.972	680.544
300.876	17.970	887.974	680.304
301.891	18.073	887.161	680.032
302.906	18.176	886.464	679.847
303.920	18.234	886.342	679.924
304.935	18.454	885.538	680.121
305.949	18.250	884.933	678.786
306.964	18.168	884.374	677.975
307.979	18.225	883.802	677.699
308.993	18.309	883.209	677.518
310.008	18.172	883.036	676.784
311.022	18.322	881.827	676.391
312.037	18.226	881.282	675.531
313.052	17.988	881.169	674.446
314.066	18.004	880.178	673.690
315.081	18.124	878.966	673.175
316.095	18.061	878.752	672.704
317.110	18.108	878.172	672.388
318.125	18.194	877.801	672.381
319.139	18.107	877.312	671.606
320.154	18.129	876.936	671.345
321.168	18.134	875.972	670.567
322.183	18.152	875.959	670.570
323.197	18.219	875.166	670.162
324.212	18.217	874.884	669.881
325.227	18.282	873.608	669.097
326.241	18.232	873.187	668.522
327.256	18.096	872.916	667.722
328.270	18.242	872.174	667.668
329.285	18.275	871.406	667.148
330.300	18.209	870.699	666.290
331.314	18.241	870.599	666.278
332.329	18.490	869.627	666.447
333.343	18.400	869.475	665.920
334.358	18.530	868.666	665.745
335.373	18.502	868.449	665.414
336.387	18.544	868.284	665.391
337.402	18.593	867.874	665.206
338.416	18.580	867.908	665.124
339.431	18.655	867.656	665.163
340.446	18.710	867.210	664.975
341.460	18.819	866.428	664.736
342.475	18.731	866.399	664.316
343.489	18.777	865.615	663.837
344.504	18.884	865.247	663.909
345.519	18.944	864.493	663.503
346.533	18.833	863.860	662.527
347.548	18.767	862.984	661.543
348.562	18.637	862.667	660.744
349.577	18.574	862.301	660.160
350.592	18.607	861.785	659.836
351.606	18.619	860.881	659.131
352.621	18.627	860.492	658.803
353.635	18.560	859.518	657.743
354.650	18.685	858.955	657.733
355.665	18.830	858.385	657.794
356.679	18.819	857.770	657.224
357.694	18.934	856.961	656.986
358.708	18.717	856.875	656.032
359.723	18.826	855.967	655.692
360.738	18.830	855.400	655.216
361.752	18.876	854.599	654.719
362.767	18.923	854.322	654.627
363.781	18.973	853.915	654.449
364.796	19.034	853.305	654.157
365.810	19.077	853.175	654.160
366.825	19.167	852.501	653.928
367.840	19.208	851.773	653.468
368.854	19.112	851.234	652.632
369.869	19.109	850.947	652.343
370.883	19.173	850.115	651.892
371.898	19.270	850.074	652.170
372.913	19.166	849.882	651.569
373.927	19.147	849.190	650.909
374.942	19.321	848.475	650.962
375.956	19.261	848.015	650.323
376.971	19.444	847.496	650.558
377.986	19.499	847.208	650.487
379.000	19.467	846.711	649.927
380.015	19.328	846.504	649.187
381.029	19.337	845.978	648.763
382.044	19.428	844.941	648.252
383.059	19.473	844.373	647.927
384.073	19.357	844.065	647.197
385.088	19.390	842.847	646.328
386.102	19.387	842.463	645.965
387.117	19.236	842.309	645.225
388.132	19.356	841.359	644.889
389.146	19.278	841.174	644.400
390.161	19.353	840.882	644.400
391.175	19.459	840.102	644.140
392.190	19.458	839.613	643.707
393.205	19.184	838.972	642.134
394.219	19.316	838.684	642.349
395.234	19.257	838.228	641.723
396.248	19.273	837.702	641.323
397.263	19.132	837.510	640.597
398.278	19.300	836.925	640.717
399.292	19.156	836.620	639.892
400.307	19.266	835.825	639.635
401.321	19.262	835.282	639.148
402.336	19.376	834.676	639.049
403.350	19.374	834.410	638.783
404.365	19.481	834.030	638.830
405.380	19.464	833.830	638.558
406.394	19.559	833.174	638.349
407.409	19.649	832.419	638.047
408.423	19.824	832.483	638.688
409.438	19.677	832.188	637.862
410.453	19.713	831.699	637.562
411.467	19.818	831.136	637.463
412.482	19.957	830.722	637.599
413.496	19.897	830.294	636.994
414.511	19.840	829.980	636.486
415.526	19.809	829.554	635.991
416.540	20.004	828.865	636.123
417.555	19.844	828.508	635.202
418.569	19.799	828.174	634.727
419.584	19.937	827.961	635.013
420.599	20.000	827.081	634.512
421.613	151.069	1367.129	1769.274
422.628	131.744	1445.850	1769.394
