DTS Sentinel unit serial number:	SN413079Multiplexer serial number:	ORYXHardware model number:	OX4-SRSoftware version number:	ORYX F/W v4.00 Oryx Data Collector v3.7.2.0data status	okinstallation	princeton_trtdifferential loss correction	single-endedforward channel	channel 1reverse channel	N/Adate	2019/09/13time	09:54:35forward acquisition time	60.00reverse acquisition time	0.00gamma	496.2192k internal	0.2325k external	0.2325temperature offset calibration	1.0157default loss term (dB/km)	0.3790temperature slope calibration	1.0000multiplexer offset coefficient	1.0000multiplexer slope coefficient	1.0000fibre end	0.00T internal ref (°C)	30.06T ext. ref 1 (°C)	4.45T ext. ref 2 (°C)	26.94length (m)	temperature (°C)	Stokes	anti-Stokes-747.200	114.903	-0.098	0.121
-746.185	-88.289	-0.095	-0.029
-745.171	-154.536	-0.204	0.014
-744.156	-200.000	-0.069	0.375
-743.142	800.000	-0.085	-0.319
-742.127	122.218	-0.102	0.128
-741.112	-60.747	-0.145	-0.062
-740.098	-200.000	0.004	0.270
-739.083	800.000	-0.057	-0.192
-738.069	800.000	0.071	0.270
-737.054	56.193	-0.017	-0.017
-736.039	-54.459	-0.326	0.149
-735.025	-152.679	0.305	0.022
-734.010	-17.718	0.105	-0.066
-732.996	-113.650	-0.300	0.059
-731.981	543.746	-0.054	-0.130
-730.966	107.081	-0.096	0.115
-729.952	-71.012	0.238	-0.090
-728.937	-88.910	-0.264	-0.079
-727.923	-37.564	-0.131	0.070
-726.908	143.236	-0.131	-0.175
-725.894	3.434	-0.176	0.129
-724.879	-120.520	-0.220	-0.038
-723.864	800.000	0.030	-0.126
-722.850	-64.308	-0.361	0.148
-721.835	-200.000	-0.006	-0.117
-720.821	-92.537	-0.488	0.138
-719.806	-91.911	0.070	0.020
-718.791	92.249	-0.117	0.132
-717.777	-200.000	0.014	-0.163
-716.762	800.000	0.018	-0.070
-715.748	44.014	0.228	-0.211
-714.733	114.699	0.238	-0.293
-713.718	-132.407	-0.021	-0.003
-712.704	179.000	0.154	-0.228
-711.689	-26.196	0.261	-0.154
-710.675	24.889	-0.096	-0.080
-709.660	-54.799	0.189	0.086
-708.645	-128.677	-0.412	0.059
-707.631	-31.839	-0.266	-0.150
-706.616	30.969	0.253	-0.218
-705.602	-104.527	-0.165	-0.038
-704.587	-200.000	0.057	0.288
-703.572	-25.030	0.238	0.142
-702.558	8.276	-0.240	-0.181
-701.543	-200.000	0.016	-0.307
-700.529	691.093	-0.069	0.181
-699.514	104.875	-0.122	0.145
-698.499	177.095	0.035	-0.052
-697.485	-93.349	-0.220	-0.062
-696.470	185.022	-0.093	-0.140
-695.456	-117.795	-0.115	-0.021
-694.441	800.000	0.049	-0.172
-693.426	-72.131	-0.318	-0.119
-692.412	303.207	0.088	0.164
-691.397	-200.000	-0.013	-0.311
-690.383	-37.431	0.301	-0.162
-689.368	-144.482	0.167	-0.016
-688.354	-111.581	0.024	-0.005
-687.339	-134.786	0.562	-0.069
-686.324	89.818	0.100	0.112
-685.310	-97.951	0.300	-0.078
-684.295	-70.620	-0.431	0.164
-683.281	-93.279	-0.245	0.069
-682.266	-144.480	0.272	-0.025
-681.251	-96.752	0.213	-0.056
-680.237	-54.564	-0.297	-0.135
-679.222	297.536	0.159	-0.294
-678.208	800.000	-0.054	0.201
-677.193	-194.710	-0.073	0.001
-676.178	-7.478	-0.219	0.149
-675.164	-29.216	0.186	0.108
-674.149	-200.000	0.032	0.161
-673.135	-200.000	0.027	-0.201
-672.120	60.436	0.242	-0.241
-671.105	-200.000	0.024	-0.352
-670.091	35.382	0.137	0.121
-669.076	-200.000	-0.008	0.343
-668.062	800.000	0.070	-0.212
-667.047	-25.261	0.110	0.065
-666.032	-34.941	-0.321	-0.176
-665.018	68.116	-0.209	-0.215
-664.003	800.000	-0.032	-0.135
-662.989	26.377	0.127	-0.107
-661.974	378.869	0.054	-0.111
-660.959	-90.462	-0.224	-0.065
-659.945	-200.000	-0.001	0.078
-658.930	-144.353	0.110	-0.010
-657.916	110.546	-0.054	-0.066
-656.901	-200.000	0.020	-0.124
-655.886	127.632	0.145	0.185
-654.872	-90.175	-0.242	-0.071
-653.857	73.607	-0.066	-0.070
-652.843	328.207	0.053	0.102
-651.828	101.671	-0.145	-0.170
-650.814	800.000	-0.050	-0.189
-649.799	800.000	0.033	-0.141
-648.784	-9.187	-0.175	-0.117
-647.770	-200.000	0.006	0.051
-646.755	487.738	-0.080	-0.184
-645.741	-200.000	0.002	-0.215
-644.726	159.022	0.091	0.127
-643.711	144.982	0.186	0.250
-642.697	-166.811	0.118	0.005
-641.682	565.965	-0.090	-0.218
-640.668	335.118	0.124	0.242
-639.653	-59.296	0.134	0.058
-638.638	-104.263	0.033	0.008
-637.624	96.024	0.081	0.093
-636.609	31.350	0.188	-0.162
-635.595	800.000	-0.048	-0.170
-634.580	13.175	-0.055	0.043
-633.565	-200.000	-0.072	0.000
-632.551	89.074	-0.092	-0.103
-631.536	-4.781	-0.184	-0.127
-630.522	17.430	-0.194	0.155
-629.507	800.000	0.054	0.164
-628.492	-112.635	0.088	0.018
-627.478	-172.837	0.202	-0.006
-626.463	65.315	-0.232	-0.235
-625.449	10.698	0.183	-0.140
-624.434	146.929	0.078	0.106
-623.419	447.810	0.084	0.186
-622.405	-83.709	-0.127	0.041
-621.390	-200.000	0.009	0.169
-620.376	-82.509	0.269	0.088
-619.361	-165.488	-0.083	-0.004
-618.346	-88.136	-0.193	0.058
-617.332	-200.000	0.011	-0.219
-616.317	-161.040	-0.067	0.004
-615.303	-200.000	-0.026	-0.335
-614.288	300.467	0.042	-0.077
-613.273	265.639	-0.164	0.288
-612.259	800.000	-0.091	0.339
-611.244	-23.119	-0.227	0.137
-610.230	37.967	0.166	-0.148
-609.215	631.963	0.065	-0.166
-608.201	-200.000	-0.001	-0.033
-607.186	164.000	-0.095	0.134
-606.171	-105.361	0.231	0.053
-605.157	173.307	-0.050	0.072
-604.142	-112.226	-0.325	0.065
-603.128	-115.087	-0.299	0.057
-602.113	-200.000	-0.013	-0.088
-601.098	-98.511	-0.196	-0.050
-600.084	800.000	-0.042	0.182
-599.069	-200.000	-0.058	0.441
-598.055	-88.897	-0.077	-0.023
-597.040	-200.000	-0.005	0.095
-596.025	498.982	-0.148	0.341
-595.011	-112.974	0.125	0.025
-593.996	-89.728	0.203	-0.060
-592.982	-76.744	-0.253	-0.089
-591.967	-88.945	0.108	0.032
-590.952	-11.981	0.152	0.100
-589.938	-200.000	0.005	-0.228
-588.923	108.092	-0.194	-0.232
-587.909	104.075	-0.099	-0.117
-586.894	-200.000	0.045	-0.322
-585.879	51.499	-0.304	0.290
-584.865	-124.516	0.253	-0.039
-583.850	-84.893	0.110	-0.034
-582.836	-9.845	-0.151	-0.101
-581.821	67.716	0.166	0.170
-580.806	567.406	0.055	-0.133
-579.792	753.453	0.035	-0.096
-578.777	239.096	0.113	-0.189
-577.763	-128.574	0.125	-0.018
-576.748	-200.000	0.003	0.059
-575.733	456.853	0.070	-0.156
-574.719	-93.686	-0.354	0.098
-573.704	-24.823	-0.109	-0.065
-572.690	284.179	0.145	-0.261
-571.675	800.000	0.047	-0.149
-570.661	244.370	-0.096	-0.162
-569.646	800.000	0.103	-0.323
-568.631	-157.551	0.167	0.010
-567.617	-152.782	0.055	-0.004
-566.602	-144.420	0.202	0.019
-565.588	-121.878	-0.206	-0.034
-564.573	-111.159	0.153	-0.031
-563.558	29.253	0.229	0.195
-562.544	178.431	0.093	0.135
-561.529	-200.000	0.009	0.123
-560.515	-68.170	-0.084	0.033
-559.500	58.513	0.040	0.039
-558.485	800.000	0.056	0.162
-557.471	11.712	0.161	-0.124
-556.456	-164.281	-0.273	0.013
-555.442	-200.000	0.031	-0.184
-554.427	-79.908	0.189	0.063
-553.412	16.943	-0.248	0.197
-552.398	-64.238	0.312	0.127
-551.383	-123.011	0.399	0.064
-550.369	217.473	0.077	-0.122
-549.354	-197.827	0.348	-0.002
-548.339	131.928	-0.244	-0.315
-547.325	-101.231	-0.196	-0.048
-546.310	176.481	0.086	-0.125
-545.296	-96.957	-0.122	0.032
-544.281	123.676	-0.144	-0.180
-543.266	143.232	0.118	0.158
-542.252	-165.003	-0.418	0.019
-541.237	-15.203	0.206	-0.132
-540.223	-49.434	-0.300	-0.143
-539.208	800.000	0.075	-0.229
-538.193	-19.531	-0.238	-0.148
-537.179	-155.758	-0.285	0.018
-536.164	48.510	0.066	-0.061
-535.150	800.000	0.176	0.558
-534.135	-200.000	0.026	-0.144
-533.121	-99.701	-0.385	-0.097
-532.106	-60.468	0.247	0.105
-531.091	-110.201	0.079	0.016
-530.077	-137.744	0.236	-0.027
-529.062	-82.242	-0.271	0.088
-528.048	-61.952	-0.337	-0.141
-527.033	20.139	-0.087	-0.071
-526.018	118.662	-0.133	0.164
-525.004	710.426	0.095	0.252
-523.989	-138.912	0.370	-0.040
-522.975	40.924	0.106	0.096
-521.960	-200.000	0.007	0.159
-520.945	-115.062	-0.256	0.049
-519.931	-28.996	-0.321	-0.184
-518.916	178.523	-0.136	0.198
-517.902	-142.486	-0.311	-0.031
-516.887	137.390	-0.231	-0.302
-515.872	-24.009	0.084	0.050
-514.858	-76.797	0.250	-0.087
-513.843	139.980	-0.097	-0.128
-512.829	595.763	-0.084	-0.209
-511.814	-108.026	-0.207	0.045
-510.799	181.222	-0.224	-0.330
-509.785	-136.797	0.140	-0.016
-508.770	-10.765	0.054	0.036
-507.756	-42.514	-0.433	0.221
-506.741	800.000	-0.049	0.188
-505.726	-53.361	0.193	-0.088
-504.712	32.810	-0.111	-0.096
-503.697	-200.000	-0.025	0.292
-502.683	705.046	-0.050	0.131
-501.668	366.217	0.072	-0.145
-500.653	-123.628	0.245	-0.039
-499.639	-113.237	0.083	-0.016
-498.624	-42.777	-0.090	-0.046
-497.610	78.373	0.235	-0.251
-496.595	174.844	0.052	-0.076
-495.581	-200.000	0.000	0.200
-494.566	-119.853	-0.241	0.041
-493.551	-60.343	0.312	0.133
-492.537	-37.334	0.221	0.118
-491.522	-64.546	-0.211	-0.085
-490.508	-111.000	-0.511	-0.105
-489.493	-81.267	0.252	0.083
-488.478	-39.748	0.168	0.088
-487.464	298.499	-0.096	0.177
-486.449	-163.767	0.231	0.011
-485.435	-200.000	-0.002	0.102
-484.420	181.939	0.160	-0.235
-483.405	31.210	0.068	0.058
-482.391	106.605	-0.132	-0.157
-481.376	-200.000	-0.005	-0.104
-480.362	800.000	0.032	0.099
-479.347	-200.000	-0.009	0.181
-478.332	20.791	-0.361	-0.292
-477.318	-180.498	0.255	0.005
-476.303	-27.508	-0.179	-0.104
-475.289	106.117	0.243	0.287
-474.274	-159.300	0.451	0.025
-473.259	100.770	0.137	-0.159
-472.245	365.476	0.085	-0.170
-471.230	-117.721	-0.048	-0.009
-470.216	-200.000	0.050	0.371
-469.201	-92.732	-0.145	0.040
-468.186	-86.820	-0.098	-0.030
-467.172	-174.397	-0.395	-0.011
-466.157	-151.174	0.096	-0.007
-465.143	-134.398	0.289	0.035
-464.128	-145.468	0.204	-0.018
-463.113	-200.000	-0.005	0.080
-462.099	-65.508	0.160	-0.064
-461.084	-200.000	-0.008	0.417
-460.070	192.204	0.175	-0.263
-459.055	-200.000	-0.028	0.339
-458.040	-47.755	0.307	0.148
-457.026	-51.769	-0.231	-0.107
-456.011	-106.623	0.064	-0.014
-454.997	-54.182	-0.092	0.042
-453.982	-43.950	0.185	-0.093
-452.968	800.000	0.056	-0.183
-451.953	-71.527	-0.546	-0.203
-450.938	800.000	-0.024	-0.088
-449.924	-200.000	-0.006	0.137
-448.909	-36.650	-0.278	0.149
-447.895	-40.235	0.257	-0.133
-446.880	-200.000	0.114	-0.001
-445.865	-113.302	0.312	0.061
-444.851	-92.636	-0.183	0.051
-443.836	-170.973	0.280	-0.010
-442.822	42.001	0.208	-0.189
-441.807	73.677	0.105	-0.110
-440.792	-78.643	-0.104	0.035
-439.778	267.161	-0.092	0.160
-438.763	269.465	-0.069	-0.121
-437.749	-152.609	-0.075	-0.005
-436.734	67.527	0.178	-0.181
-435.719	364.541	-0.075	-0.151
-434.705	-103.268	-0.121	-0.028
-433.690	2.941	-0.175	-0.127
-432.676	-200.000	-0.033	-0.219
-431.661	-200.000	-0.008	0.074
-430.646	325.596	0.079	-0.150
-429.632	164.174	0.243	-0.341
-428.617	-64.447	-0.214	0.087
-427.603	-75.751	-0.358	-0.127
-426.588	143.842	0.174	-0.231
-425.573	800.000	-0.137	-0.398
-424.559	800.000	0.053	0.196
-423.544	384.309	-0.096	-0.198
-422.530	-100.172	0.309	-0.077
-421.515	94.968	-0.085	0.096
-420.500	184.263	-0.086	-0.127
-419.486	-128.910	-0.453	-0.063
-418.471	-35.271	0.033	0.018
-417.457	110.618	0.039	-0.047
-416.442	800.000	-0.083	-0.229
-415.428	163.141	-0.074	-0.104
-414.413	-62.831	-0.373	0.154
-413.398	-200.000	-0.036	0.176
-412.384	800.000	0.057	0.167
-411.369	158.821	-0.044	-0.060
-410.355	-4.401	-0.199	-0.137
-409.340	-72.400	-0.308	-0.113
-408.325	31.750	-0.255	-0.218
-407.311	146.105	-0.025	0.034
-406.296	-21.471	-0.349	-0.212
-405.282	-26.769	0.348	0.203
-404.267	-200.000	0.044	-0.192
-403.252	-200.000	-0.002	-0.008
-402.238	-25.662	-0.184	0.108
-401.223	336.700	0.031	-0.059
-400.209	57.222	-0.028	-0.027
-399.194	-200.000	-0.021	-0.255
-398.179	-139.467	-0.239	-0.025
-397.165	-200.000	-0.003	0.120
-396.150	42.453	-0.098	-0.088
-395.136	5.023	-0.224	0.164
-394.121	75.517	0.221	-0.232
-393.106	-104.844	-0.148	-0.034
-392.092	-190.309	0.088	0.001
-391.077	792.850	0.100	-0.274
-390.063	8.766	0.186	-0.140
-389.048	317.159	-0.097	-0.183
-388.033	800.000	-0.012	0.043
-387.019	20.841	-0.204	0.165
-386.004	-200.000	0.003	0.199
-384.990	209.714	0.203	0.316
-383.975	121.696	0.274	0.340
-382.960	-200.000	0.001	0.122
-381.946	-200.000	-0.007	-0.143
-380.931	523.373	0.077	0.181
-379.917	235.577	0.011	0.018
-378.902	-15.133	0.226	0.144
-377.888	-74.756	-0.142	0.051
-376.873	-51.451	-0.057	0.026
-375.858	-50.831	-0.101	0.047
-374.844	-97.872	0.293	-0.075
-373.829	-124.884	0.166	0.025
-372.815	-115.633	-0.110	0.020
-371.800	148.233	0.276	-0.371
-370.785	252.880	-0.199	-0.337
-369.771	100.055	-0.062	-0.071
-368.756	-28.911	-0.263	0.150
-367.742	122.035	0.212	-0.263
-366.727	193.337	0.085	-0.128
-365.712	178.972	-0.059	-0.085
-364.698	-200.000	-0.011	-0.072
-363.683	-26.534	0.203	-0.118
-362.669	169.627	0.075	-0.107
-361.654	8.945	0.244	-0.183
-360.639	-123.102	0.118	0.019
-359.625	226.632	-0.102	0.164
-358.610	-200.000	-0.004	0.097
-357.596	62.278	0.030	0.029
-356.581	166.461	-0.149	-0.210
-355.566	111.286	-0.014	0.017
-354.552	-200.000	0.013	0.358
-353.537	800.000	-0.050	-0.138
-352.523	-200.000	0.004	-0.279
-351.508	213.289	-0.161	0.253
-350.493	175.655	0.244	0.352
-349.479	-126.098	-0.161	-0.024
-348.464	-114.119	0.326	0.063
-347.450	-99.563	-0.101	0.025
-346.435	-16.977	-0.138	-0.087
-345.420	-55.418	0.283	0.126
-344.406	-123.135	0.148	0.024
-343.391	90.169	-0.221	0.246
-342.377	101.775	0.132	0.153
-341.362	21.034	-0.166	-0.134
-340.348	-200.000	-0.096	-0.000
-339.333	-200.000	0.030	-0.201
-338.318	-65.269	0.123	0.049
-337.304	-200.000	0.033	0.170
-336.289	171.913	-0.056	-0.080
-335.275	-58.592	0.051	0.022
-334.260	800.000	0.067	0.238
-333.245	800.000	-0.050	0.198
-332.231	-200.000	0.001	0.091
-331.216	-146.305	0.177	-0.015
-330.202	636.078	0.074	-0.187
-329.187	-116.344	0.236	0.043
-328.172	-200.000	0.021	-0.222
-327.158	800.000	-0.136	0.378
-326.143	-200.000	0.023	-0.122
-325.129	800.000	0.092	-0.304
-324.114	65.893	0.034	0.034
-323.099	-174.460	-0.498	0.014
-322.085	226.852	-0.175	0.283
-321.070	16.280	0.143	0.112
-320.056	33.819	-0.274	0.236
-319.041	-48.475	-0.189	-0.090
-318.026	-200.000	-0.012	-0.168
-317.012	-96.692	-0.160	-0.042
-315.997	47.759	0.128	0.118
-314.983	-113.027	-0.234	-0.046
-313.968	-131.139	-0.266	-0.035
-312.953	156.665	0.167	0.228
-311.939	-42.525	-0.205	0.104
-310.924	-139.979	-0.116	-0.012
-309.910	311.665	0.087	-0.162
-308.895	-67.443	-0.178	-0.069
-307.880	-111.543	0.216	0.043
-306.866	-200.000	-0.006	-0.042
-305.851	-87.210	0.272	0.082
-304.837	150.302	0.158	0.213
-303.822	-200.000	-0.057	-0.319
-302.807	-200.000	0.045	-0.225
-301.793	-28.258	0.132	-0.075
-300.778	-200.000	0.052	0.278
-299.764	50.322	-0.345	-0.323
-298.749	-124.692	-0.279	-0.043
-297.735	28.641	0.223	0.187
-296.720	-149.908	0.279	-0.022
-295.705	-31.901	0.078	-0.043
-294.691	-200.000	-0.007	0.067
-293.676	215.454	0.150	-0.236
-292.662	-118.007	0.213	0.038
-291.647	50.294	-0.081	-0.075
-290.632	-200.000	-0.056	-0.388
-289.618	211.561	0.129	0.201
-288.603	-200.000	-0.040	0.413
-287.589	-84.347	0.245	0.077
-286.574	800.000	0.049	0.181
-285.559	-194.681	0.093	0.001
-284.545	-200.000	0.004	0.245
-283.530	92.715	0.283	0.316
-282.516	15.862	-0.064	0.050
-281.501	7.612	-0.182	-0.135
-280.486	-200.000	0.023	-0.170
-279.472	-200.000	-0.018	0.154
-278.457	-200.000	-0.016	-0.170
-277.443	65.842	-0.185	0.186
-276.428	-78.014	0.282	-0.096
-275.413	-85.161	-0.367	-0.114
-274.399	-172.727	-0.132	-0.004
-273.384	-9.908	0.105	-0.069
-272.370	42.572	-0.213	0.192
-271.355	-136.977	-0.340	-0.039
-270.340	-49.632	-0.132	0.062
-269.326	337.620	-0.028	-0.054
-268.311	105.619	-0.177	-0.207
-267.297	-180.474	0.397	0.008
-266.282	-200.000	0.010	0.051
-265.267	-49.922	-0.190	-0.089
-264.253	35.833	0.021	0.019
-263.238	-44.180	-0.303	-0.150
-262.224	105.577	-0.079	0.092
-261.209	800.000	0.107	0.351
-260.195	-159.797	0.184	-0.010
-259.180	565.809	0.167	0.400
-258.165	791.825	-0.089	0.242
-257.151	-200.000	-0.023	0.165
-256.136	-15.756	0.410	-0.259
-255.122	481.467	0.126	-0.284
-254.107	-200.000	-0.040	0.233
-253.092	84.126	-0.129	-0.139
-252.078	-200.000	-0.054	-0.251
-251.063	209.188	-0.224	-0.347
-250.049	-200.000	0.027	0.233
-249.034	-99.234	0.234	0.058
-248.019	-80.996	0.084	-0.028
-247.005	-200.000	-0.013	0.096
-245.990	35.276	0.382	0.331
-244.976	-11.422	-0.160	0.104
-243.961	-200.000	0.029	0.190
-242.946	185.994	0.255	0.375
-241.932	75.613	0.021	0.022
-240.917	9.524	0.159	-0.119
-239.903	-105.889	0.069	-0.015
-238.888	-200.000	-0.013	-0.184
-237.873	205.257	-0.196	-0.301
-236.859	202.457	0.240	0.367
-235.844	106.205	-0.155	-0.182
-234.830	-114.504	-0.269	-0.051
-233.815	23.202	0.122	0.099
-232.800	28.220	0.025	-0.021
-231.786	-160.802	-0.115	-0.006
-230.771	-108.113	0.166	0.036
-229.757	-200.000	0.022	0.180
-228.742	-200.000	0.012	0.121
-227.727	388.374	-0.150	0.307
-226.713	-111.159	-0.141	0.029
-225.698	-42.145	0.171	0.087
-224.684	-81.460	0.118	0.038
-223.669	-80.883	0.327	0.107
-222.655	331.477	-0.102	0.194
-221.640	286.380	-0.119	0.212
-220.625	506.273	-0.148	0.339
-219.611	231.810	0.189	-0.306
-218.596	52.007	-0.072	-0.068
-217.582	101.585	0.046	-0.053
-216.567	-105.174	-0.278	-0.063
-215.552	80.961	0.265	0.282
-214.538	167.839	-0.188	0.264
-213.523	-79.583	0.318	0.106
-212.509	-59.783	0.230	0.097
-211.494	800.000	-0.068	0.213
-210.479	-78.664	-0.326	-0.110
-209.465	42.248	0.072	0.065
-208.450	533.169	0.094	0.219
-207.436	-97.524	0.161	0.041
-206.421	-89.417	0.295	-0.086
-205.406	-81.118	0.280	0.091
-204.392	-79.537	-0.146	-0.049
-203.377	-200.000	0.003	0.038
-202.363	-200.000	0.069	-0.498
-201.348	426.377	-0.038	0.080
-200.333	-101.877	-0.116	0.028
-199.319	205.340	-0.107	0.164
-198.304	-91.249	0.377	0.107
-197.290	290.968	-0.187	-0.335
-196.275	-33.958	-0.278	0.151
-195.260	371.490	0.014	-0.027
-194.246	-77.722	-0.301	-0.103
-193.231	800.000	0.037	-0.125
-192.217	-105.088	-0.199	0.045
-191.202	244.911	0.075	0.125
-190.187	137.464	-0.078	-0.100
-189.173	800.000	-0.062	0.208
-188.158	-188.994	0.423	0.005
-187.144	800.000	-0.039	0.153
-186.129	-200.000	0.024	-0.224
-185.114	412.367	0.059	0.123
-184.100	-200.000	0.008	-0.109
-183.085	24.191	-0.272	0.222
-182.071	-200.000	-0.007	-0.124
-181.056	-200.000	-0.018	-0.307
-180.042	-67.315	0.241	0.093
-179.027	-200.000	-0.012	0.362
-178.012	21.303	0.047	0.038
-176.998	-12.726	0.086	-0.055
-175.983	-51.878	-0.073	-0.034
-174.969	-23.496	0.160	0.095
-173.954	45.640	-0.248	0.226
-172.939	800.000	0.132	-0.418
-171.925	338.240	-0.104	-0.199
-170.910	-56.914	0.145	-0.063
-169.896	459.193	-0.129	0.283
-168.881	800.000	0.023	0.066
-167.866	-96.531	0.262	0.068
-166.852	-177.373	-0.278	-0.007
-165.837	800.000	-0.089	0.351
-164.823	-200.000	0.004	0.049
-163.808	-18.264	0.402	-0.248
-162.793	-200.000	0.044	-0.268
-161.779	-200.000	-0.003	-0.018
-160.764	-148.496	0.249	0.020
-159.750	-110.836	-0.339	-0.069
-158.735	800.000	-0.064	-0.234
-157.720	69.155	0.155	0.157
-156.706	-200.000	0.087	-0.386
-155.691	247.696	0.189	-0.315
-154.677	-80.799	0.148	0.048
-153.662	315.211	-0.068	0.125
-152.647	-200.000	-0.016	-0.141
-151.633	-200.000	-0.031	0.172
-150.618	220.114	-0.069	0.110
-149.604	303.465	0.103	-0.187
-148.589	172.919	-0.151	0.214
-147.574	-200.000	0.005	0.171
-146.560	-200.000	0.056	0.452
-145.545	-132.978	-0.167	-0.021
-144.531	-119.307	0.242	-0.042
-143.516	-49.343	-0.223	-0.105
-142.502	61.822	0.109	-0.107
-141.487	-200.000	-0.026	-0.343
-140.472	180.804	-0.243	0.351
-139.458	-156.653	0.361	-0.022
-138.443	-21.937	-0.267	-0.160
-137.429	-74.943	0.266	0.094
-136.414	-169.909	0.436	-0.015
-135.399	-45.373	-0.133	-0.065
-134.385	-123.588	0.152	-0.024
-133.370	-95.409	0.272	0.072
-132.356	58.022	-0.039	-0.038
-131.341	-82.862	-0.156	-0.050
-130.326	211.612	0.114	0.177
-129.312	-7.975	-0.098	-0.065
-128.297	713.638	0.115	-0.299
-127.283	168.086	0.203	0.285
-126.268	6.019	0.164	0.120
-125.253	-137.704	0.145	-0.016
-124.239	311.491	-0.110	-0.202
-123.224	177.729	-0.084	-0.121
-122.210	-200.000	0.022	0.250
-121.195	0.300	0.127	0.089
-120.180	-148.120	0.099	0.008
-119.166	393.217	-0.091	0.186
-118.151	800.000	-0.070	0.295
-117.137	-107.612	0.039	-0.008
-116.122	-200.000	0.041	-0.250
-115.107	399.950	0.128	0.265
-114.093	800.000	0.044	0.122
-113.078	-26.644	0.182	0.105
-112.064	800.000	0.092	0.315
-111.049	575.276	0.023	0.056
-110.034	57.808	-0.466	0.448
-109.020	55.090	0.204	-0.194
-108.005	-102.584	-0.351	0.082
-106.991	-26.541	-0.040	-0.023
-105.976	215.704	-0.019	-0.030
-104.962	129.777	-0.227	-0.285
-103.947	-139.097	-0.071	-0.008
-102.932	800.000	-0.091	0.334
-101.918	-82.010	-0.326	-0.105
-100.903	393.339	0.060	-0.124
-99.889	-26.163	-0.026	-0.015
-98.874	800.000	-0.062	0.170
-97.859	-200.000	-0.094	0.479
-96.845	-83.239	-0.172	-0.054
-95.830	427.284	-0.069	-0.146
-94.816	99.825	-0.119	-0.135
-93.801	282.628	-0.138	-0.243
-92.786	26.398	-0.158	-0.130
-91.772	-44.223	0.078	0.039
-90.757	800.000	-0.071	-0.240
-89.743	-133.298	0.063	0.008
-88.728	312.450	-0.202	-0.373
-87.713	-119.486	0.191	-0.033
-86.699	-176.332	-0.127	0.003
-85.684	-200.000	0.008	0.186
-84.670	-117.647	-0.069	-0.012
-83.655	374.790	0.166	0.332
-82.640	-139.781	0.121	0.013
-81.626	-3.258	-0.075	-0.051
-80.611	800.000	-0.052	0.179
-79.597	309.150	-0.073	0.134
-78.582	4.853	-0.248	0.180
-77.567	188.372	-0.139	-0.204
-76.553	-62.476	0.354	0.144
-75.538	-80.282	0.262	0.086
-74.524	-200.000	-0.048	-0.358
-73.509	-200.000	-0.028	0.271
-72.494	52.164	-0.147	0.138
-71.480	-200.000	0.009	0.221
-70.465	-81.105	0.296	0.096
-69.451	-121.106	-0.151	0.025
-68.436	45.469	0.145	0.131
-67.422	72.348	-0.035	0.035
-66.407	-21.703	-0.112	0.067
-65.392	766.143	0.123	0.328
-64.378	-111.226	-0.344	0.069
-63.363	-78.371	0.212	0.071
-62.349	94.159	-0.099	0.110
-61.334	92.580	-1.177	-1.304
-60.319	800.000	0.239	0.870
-59.305	800.000	-0.371	-1.083
-58.290	164.793	0.674	0.935
-57.276	730.500	0.620	1.628
-56.261	-200.000	103.261	577.360
-55.246	516.380	1459.229	3349.307
-54.232	181.118	2663.039	3843.657
-53.217	114.564	2168.911	2595.118
-52.203	42.044	1605.368	1430.822
-51.188	33.496	1337.934	1141.222
-50.173	30.513	1296.081	1088.044
-49.159	53.425	1347.778	1268.834
-48.144	54.782	1364.318	1292.455
-47.130	33.722	1320.368	1127.401
-46.115	30.204	1302.391	1091.345
-45.100	30.034	1297.574	1086.270
-44.086	29.978	1295.203	1083.914
-43.071	29.900	1293.137	1081.685
-42.057	29.896	1290.552	1079.460
-41.042	29.986	1289.208	1078.816
-40.027	29.958	1287.898	1077.513
-39.013	30.019	1285.748	1076.030
-37.998	29.967	1284.285	1074.456
-36.984	30.076	1282.620	1073.654
-35.969	30.033	1280.861	1071.890
-34.954	30.146	1279.031	1070.972
-33.940	30.085	1277.632	1069.406
-32.925	30.104	1276.005	1068.108
-31.911	30.147	1274.772	1067.283
-30.896	30.235	1272.807	1066.098
-29.881	30.201	1272.152	1065.317
-28.867	30.188	1270.452	1063.773
-27.852	30.195	1268.943	1062.506
-26.838	30.262	1267.482	1061.628
-25.823	30.208	1266.475	1060.432
-24.809	30.159	1265.173	1059.020
-23.794	30.110	1264.268	1057.940
-22.779	30.161	1262.746	1056.918
-21.765	30.144	1261.472	1055.712
-20.750	30.164	1259.881	1054.452
-19.736	30.041	1259.093	1053.050
-18.721	30.063	1257.472	1051.778
-17.706	30.063	1256.247	1050.714
-16.692	30.044	1255.415	1049.863
-15.677	29.883	1254.295	1047.977
-14.663	29.961	1253.060	1047.343
-13.648	29.922	1252.172	1046.338
-12.633	29.969	1250.929	1045.523
-11.619	29.993	1250.363	1045.146
-10.604	29.948	1249.384	1044.034
-9.590	29.931	1248.498	1043.153
-8.575	30.016	1247.081	1042.407
-7.560	30.069	1246.271	1041.985
-6.546	29.914	1245.730	1040.623
-5.531	29.919	1245.125	1040.103
-4.517	29.991	1243.966	1039.496
-3.502	30.038	1243.100	1038.999
-2.487	29.977	1242.277	1037.925
-1.473	29.981	1238.427	1034.691
-0.458	28.868	1223.824	1016.299
0.556	27.306	1206.023	979.153
1.571	23.414	1211.272	962.241
2.586	22.369	1225.695	967.872
3.600	21.289	1213.215	952.049
4.615	16.089	1142.504	869.728
5.629	8.359	1069.427	776.568
6.644	4.844	1050.047	745.619
7.659	4.412	1047.853	741.933
8.673	4.250	1046.168	739.901
9.688	4.296	1044.970	739.206
10.702	4.814	1043.496	740.564
11.717	10.100	1050.225	770.519
12.731	17.884	1061.814	816.319
13.746	21.673	1066.063	837.671
14.761	22.041	1065.549	838.951
15.775	21.199	1064.007	833.645
16.790	20.100	1062.277	826.973
17.804	19.561	1060.830	823.204
18.819	19.176	1060.031	820.680
19.834	19.119	1059.335	819.794
20.848	19.172	1058.078	819.003
21.863	18.831	1057.543	816.895
22.877	18.772	1056.890	816.039
23.892	18.698	1056.418	815.248
24.907	18.635	1055.520	814.183
25.921	18.762	1054.119	813.636
26.936	18.641	1052.919	812.066
27.950	18.711	1051.619	811.320
28.965	18.856	1050.313	810.928
29.980	18.980	1048.856	810.313
30.994	19.019	1048.288	809.987
32.009	19.099	1047.151	809.414
33.023	19.090	1045.826	808.274
34.038	18.885	1045.355	806.877
35.053	18.659	1044.388	805.000
36.067	18.709	1043.422	804.415
37.082	18.835	1042.400	804.146
38.096	18.981	1041.675	804.199
39.111	19.059	1040.491	803.579
40.126	18.732	1039.638	801.321
41.140	18.381	1038.536	798.765
42.155	18.382	1036.850	797.405
43.169	18.309	1035.730	796.132
44.184	18.273	1035.012	795.343
45.199	18.371	1034.341	795.212
46.213	18.489	1033.328	794.910
47.228	18.713	1033.060	795.671
48.242	18.825	1031.716	795.083
49.257	18.756	1030.660	793.879
50.271	18.863	1030.085	793.863
51.286	18.864	1028.961	792.931
52.301	18.844	1027.831	791.898
53.315	18.532	1027.319	789.998
54.330	18.602	1025.996	789.231
55.344	18.514	1025.180	788.129
56.359	18.567	1024.245	787.582
57.374	18.451	1023.396	786.328
58.388	18.186	1022.700	784.507
59.403	18.364	1022.092	784.789
60.417	18.345	1020.677	783.544
61.432	18.166	1020.652	782.639
62.447	18.227	1019.332	781.837
63.461	18.061	1018.560	780.418
64.476	18.119	1017.423	779.741
65.490	18.070	1016.964	779.099
66.505	17.990	1016.620	778.401
67.520	18.147	1016.174	778.705
68.534	18.285	1014.666	778.108
69.549	18.181	1013.687	776.818
70.563	18.131	1013.171	776.124
71.578	17.967	1012.121	774.509
72.593	17.808	1011.374	773.146
73.607	17.967	1010.699	773.281
74.622	18.042	1010.289	773.239
75.636	17.987	1009.927	772.646
76.651	17.972	1009.113	771.887
77.666	17.964	1008.409	771.242
78.680	18.063	1007.399	770.848
79.695	18.154	1007.444	771.227
80.709	18.312	1007.087	771.597
81.724	18.364	1005.921	770.871
82.739	18.560	1005.308	771.212
83.753	18.757	1004.880	771.701
84.768	19.016	1004.263	772.325
85.782	19.227	1003.566	772.665
86.797	19.022	1002.474	770.839
87.812	18.805	1001.850	769.317
88.826	18.998	1000.446	769.033
89.841	18.981	999.776	768.373
90.855	19.007	998.952	767.792
91.870	19.086	998.144	767.456
92.884	19.075	997.005	766.462
93.899	19.038	996.128	765.555
94.914	18.986	995.862	765.051
95.928	19.100	995.047	764.865
96.943	18.953	993.893	763.256
97.957	18.864	992.780	761.937
98.972	18.936	992.303	761.826
99.987	18.975	990.980	760.915
101.001	19.143	989.796	760.682
102.016	18.894	989.181	759.042
103.030	18.985	988.911	759.167
104.045	18.993	988.049	758.476
105.060	18.716	987.059	756.427
106.074	18.608	985.795	754.918
107.089	18.208	984.952	752.444
108.103	18.113	983.880	751.141
109.118	18.290	982.660	750.921
110.133	18.163	981.670	749.540
111.147	18.278	980.822	749.333
112.162	18.265	980.291	748.804
113.176	18.418	979.354	748.690
114.191	18.393	979.275	748.453
115.206	18.458	978.172	747.828
116.220	18.348	977.295	746.610
117.235	18.358	976.554	746.025
118.249	18.214	975.495	744.521
119.264	18.200	974.540	743.666
120.279	18.152	973.845	742.861
121.293	18.193	972.660	742.070
122.308	18.047	972.216	741.030
123.322	18.023	971.132	740.036
124.337	17.857	970.215	738.554
125.352	18.096	969.439	738.931
126.366	17.918	968.878	737.667
127.381	17.982	967.605	736.911
128.395	18.035	966.766	736.434
129.410	18.189	965.822	736.313
130.424	18.183	965.028	735.616
131.439	18.317	964.127	735.440
132.454	18.453	963.557	735.525
133.468	18.394	962.942	734.739
134.483	18.309	962.218	733.756
135.497	18.508	961.103	733.692
136.512	18.337	960.425	732.380
137.527	18.504	959.524	732.340
138.541	18.520	959.050	731.983
139.556	18.631	958.057	731.630
140.570	18.787	957.566	731.856
141.585	18.873	956.916	731.661
142.600	18.937	956.164	731.294
143.614	18.990	955.647	731.059
144.629	18.997	955.159	730.650
145.643	18.987	953.515	729.286
146.658	18.705	952.818	727.495
147.673	18.637	951.168	725.885
148.687	18.547	950.098	724.622
149.702	18.510	949.510	723.951
150.716	18.518	948.898	723.454
151.731	18.671	948.152	723.470
152.746	18.548	947.341	722.267
153.760	18.579	946.825	721.939
154.775	18.908	946.124	722.725
155.789	18.788	945.676	721.814
156.804	18.741	945.123	721.131
157.819	18.839	944.670	721.133
158.833	18.841	944.489	720.941
159.848	19.041	943.557	721.003
160.862	18.836	942.385	719.187
161.877	18.726	940.732	717.401
162.892	18.478	939.661	715.485
163.906	18.448	938.795	714.637
164.921	18.504	938.055	714.246
165.935	18.648	937.233	714.153
166.950	18.724	936.231	713.643
167.964	18.671	935.747	712.990
168.979	18.510	934.786	711.530
169.994	18.600	933.681	710.997
171.008	18.691	933.115	710.879
172.023	19.030	932.257	711.567
173.037	18.986	932.036	711.152
174.052	18.928	931.049	710.097
175.067	18.451	930.616	707.734
176.081	18.561	929.583	707.339
177.096	18.404	929.402	706.491
178.110	18.649	928.344	706.635
179.125	18.555	928.063	705.970
180.140	18.601	927.890	705.964
181.154	18.695	928.014	706.384
182.169	18.977	926.752	706.519
183.183	19.053	926.283	706.414
184.198	18.972	925.680	705.557
185.213	18.903	925.410	705.006
186.227	19.092	924.325	704.894
187.242	19.244	923.912	705.136
188.256	19.339	923.411	705.081
189.271	19.213	922.700	703.961
190.286	18.835	921.517	701.454
191.300	18.501	920.557	699.297
192.315	18.251	919.873	697.696
193.329	18.506	918.935	697.962
194.344	18.642	918.752	698.316
195.359	18.684	918.634	698.335
196.373	18.788	917.767	698.037
197.388	19.018	917.688	698.847
198.402	19.185	917.022	698.960
199.417	19.247	916.698	698.899
200.432	19.536	916.225	699.650
201.446	19.459	915.863	698.999
202.461	19.641	915.363	699.291
203.475	19.424	914.744	697.881
204.490	19.170	913.783	696.058
205.504	19.034	912.704	694.625
206.519	19.031	912.183	694.155
207.534	19.014	911.442	693.464
208.548	19.157	910.669	693.389
209.563	19.138	909.710	692.521
210.577	19.114	909.526	692.223
211.592	19.469	908.866	693.085
212.607	19.459	908.082	692.387
213.621	19.431	907.087	691.455
214.636	19.352	906.569	690.679
215.650	19.358	906.201	690.362
216.665	19.487	905.547	690.321
217.680	19.494	905.369	690.149
218.694	19.593	904.645	689.933
219.709	19.461	903.517	688.485
220.723	19.442	903.321	688.200
221.738	19.438	902.021	687.132
222.753	19.484	901.125	686.574
223.767	19.541	901.185	686.782
224.782	19.800	900.645	687.342
225.796	19.687	900.448	686.680
226.811	19.679	899.454	685.831
227.826	19.568	898.261	684.419
228.840	19.383	898.068	683.480
229.855	19.381	897.460	682.950
230.869	19.447	896.141	682.144
231.884	19.262	895.693	681.011
232.899	19.326	894.706	680.455
233.913	19.197	893.996	679.346
234.928	19.186	893.479	678.850
235.942	19.199	892.899	678.402
236.957	19.142	892.461	677.781
237.972	19.204	891.889	677.533
238.986	19.376	890.706	677.248
240.001	19.207	890.523	676.389
241.015	19.397	890.093	676.746
242.030	19.370	889.823	676.377
243.045	19.490	889.173	676.292
244.059	19.500	888.324	675.625
245.074	19.642	887.418	675.431
246.088	19.522	887.716	675.128
247.103	19.680	887.088	675.208
248.117	19.905	886.778	675.793
249.132	20.225	886.318	676.632
250.147	20.409	885.729	676.839
251.161	20.291	885.250	675.951
252.176	20.302	884.860	675.639
253.190	20.537	883.920	675.773
254.205	20.418	883.472	674.907
255.220	20.305	882.735	673.849
256.234	20.440	882.019	673.765
257.249	20.440	881.102	673.003
258.263	20.361	880.160	671.921
259.278	20.314	880.224	671.729
260.293	20.334	880.065	671.623
261.307	20.462	879.212	671.407
262.322	20.398	878.804	670.789
263.336	20.501	878.010	670.523
264.351	20.560	877.096	669.991
265.366	20.650	876.595	669.896
266.380	20.449	876.090	668.680
267.395	20.421	874.911	667.611
268.409	20.378	874.017	666.707
269.424	20.504	873.344	666.617
270.439	20.311	872.865	665.453
271.453	20.116	872.205	664.142
272.468	20.295	871.599	664.307
273.482	20.365	870.634	663.780
274.497	20.111	870.425	662.591
275.512	20.185	870.078	662.551
276.526	20.045	869.975	661.880
277.541	20.233	869.014	661.809
278.555	20.563	868.712	662.779
279.570	20.687	868.249	662.837
280.585	20.623	867.466	661.937
281.599	20.536	866.208	660.588
282.614	20.343	865.481	659.241
283.628	20.378	864.763	658.772
284.643	20.408	864.428	658.570
285.657	20.401	863.989	658.150
286.672	20.311	863.531	657.404
287.687	20.404	862.733	657.092
288.701	20.326	861.917	656.116
289.716	20.379	861.682	656.080
290.730	20.498	860.749	655.760
291.745	20.574	860.157	655.537
292.760	20.622	860.051	655.579
293.774	20.763	859.332	655.504
294.789	20.708	858.406	654.533
295.803	20.561	857.621	653.323
296.818	20.512	856.973	652.587
297.833	20.469	856.620	652.100
298.847	20.482	856.206	651.777
299.862	20.535	855.491	651.374
300.876	20.496	855.421	651.117
301.891	20.743	854.798	651.510
302.906	20.874	854.188	651.477
303.920	21.060	853.827	651.837
304.935	21.099	853.239	651.477
305.949	20.992	852.673	650.588
306.964	20.713	852.023	648.994
307.979	20.901	851.093	648.928
308.993	21.016	851.072	649.283
310.008	21.092	849.821	648.554
311.022	20.904	849.310	647.409
312.037	20.748	848.972	646.516
313.052	20.534	848.625	645.399
314.066	20.427	847.691	644.234
315.081	20.460	846.863	643.669
316.095	20.507	846.222	643.301
317.110	20.457	846.030	642.910
318.125	20.589	845.054	642.602
319.139	20.610	844.894	642.499
320.154	20.463	844.788	641.821
321.168	20.621	844.049	641.784
322.183	20.714	843.265	641.473
323.197	20.651	843.174	641.117
324.212	20.571	842.529	640.276
325.227	20.573	841.755	639.639
326.241	20.417	841.352	638.699
327.256	20.590	840.931	638.961
328.270	20.614	839.685	638.045
329.285	20.452	839.619	637.344
330.300	20.531	838.799	636.955
331.314	20.668	838.577	637.230
332.329	20.898	838.172	637.708
333.343	20.781	837.999	637.094
334.358	20.826	837.501	636.823
335.373	20.976	837.231	637.110
336.387	20.966	836.554	636.502
337.402	21.026	836.565	636.673
338.416	21.116	836.633	636.996
339.431	21.421	836.113	637.656
340.446	21.343	835.742	637.034
341.460	21.554	834.908	637.107
342.475	21.616	834.803	637.196
343.489	21.546	834.692	636.804
344.504	21.612	834.066	636.509
345.519	21.709	833.780	636.587
346.533	21.496	833.000	635.160
347.548	21.305	832.325	633.897
348.562	21.074	831.912	632.689
349.577	21.093	830.901	631.931
350.592	20.970	830.058	630.791
351.606	20.872	829.654	630.074
352.621	21.126	828.678	630.193
353.635	21.096	828.421	629.837
354.650	21.157	827.624	629.392
355.665	21.324	826.753	629.278
356.679	21.199	826.441	628.531
357.694	21.232	825.911	628.195
358.708	21.368	825.313	628.173
359.723	21.240	824.818	627.278
360.738	21.354	824.299	627.240
361.752	21.361	823.515	626.612
362.767	21.523	823.085	626.808
363.781	21.673	822.901	627.149
364.796	21.740	822.699	627.183
365.810	21.832	822.138	627.025
366.825	21.865	821.393	626.521
367.840	21.755	821.265	625.975
368.854	21.818	820.244	625.365
369.869	21.642	819.909	624.429
370.883	21.801	819.494	624.623
371.898	21.802	819.525	624.597
372.913	21.874	819.047	624.430
373.927	21.795	818.057	623.342
374.942	21.787	817.656	622.953
375.956	21.911	817.720	623.385
376.971	22.095	817.232	623.613
377.986	22.211	816.856	623.682
379.000	22.075	816.355	622.763
380.015	21.856	816.372	621.944
381.029	21.973	815.198	621.408
382.044	22.154	814.412	621.393
383.059	22.202	813.829	621.063
384.073	21.955	812.999	619.504
385.088	21.700	812.609	618.253
386.102	21.612	811.843	617.302
387.117	21.692	811.527	617.289
388.132	21.550	811.091	616.406
389.146	22.110	810.054	617.531
390.161	21.819	810.176	616.546
391.175	22.067	809.493	616.843
392.190	21.846	808.843	615.516
393.205	21.940	808.147	615.263
394.219	21.686	807.955	614.173
395.234	21.639	807.391	613.524
396.248	21.400	807.060	612.381
397.263	21.372	806.686	611.947
398.278	21.568	805.909	611.989
399.292	21.695	805.116	611.775
400.307	21.457	805.160	610.923
401.321	21.630	804.623	611.064
402.336	21.530	804.676	610.702
403.350	21.794	804.289	611.275
404.365	21.915	803.781	611.256
405.380	22.139	803.353	611.656
406.394	22.133	802.757	611.129
407.409	22.352	802.228	611.430
408.423	22.414	802.067	611.469
409.438	22.442	801.769	611.287
410.453	22.452	801.550	611.098
411.467	22.555	800.754	610.795
412.482	22.584	800.572	610.705
413.496	22.700	800.179	610.751
414.511	22.650	800.007	610.394
415.526	22.406	799.483	609.097
416.540	22.388	799.073	608.665
417.555	22.460	798.468	608.401
418.569	22.513	797.939	608.127
419.584	22.463	797.672	607.697
420.599	22.437	797.340	607.299
421.613	164.353	1368.575	1796.742
422.628	142.750	1451.828	1796.836
