DTS Sentinel unit serial number:	SN413079Multiplexer serial number:	ORYXHardware model number:	OX4-SRSoftware version number:	ORYX F/W v4.00 Oryx Data Collector v3.7.2.0data status	okinstallation	princeton_trtdifferential loss correction	single-endedforward channel	channel 1reverse channel	N/Adate	2019/09/16time	03:46:35forward acquisition time	60.00reverse acquisition time	0.00gamma	496.2192k internal	0.2331k external	0.2331temperature offset calibration	0.9981default loss term (dB/km)	0.3790temperature slope calibration	1.0000multiplexer offset coefficient	1.0000multiplexer slope coefficient	1.0000fibre end	0.00T internal ref (°C)	27.56T ext. ref 1 (°C)	10.65T ext. ref 2 (°C)	21.66length (m)	temperature (°C)	Stokes	anti-Stokes-747.200	-200.000	0.051	0.437
-746.185	148.149	-0.193	0.262
-745.171	105.213	0.069	0.082
-744.156	40.779	-0.123	0.111
-743.142	-6.022	0.261	-0.180
-742.127	-132.037	0.007	0.001
-741.112	505.402	0.067	0.156
-740.098	45.100	0.173	0.161
-739.083	75.758	-0.041	0.044
-738.069	800.000	-0.048	-0.153
-737.054	800.000	-0.038	0.143
-736.039	41.080	-0.155	0.141
-735.025	0.945	0.410	0.295
-734.010	-32.170	-0.435	-0.244
-732.996	44.508	0.042	0.039
-731.981	303.800	0.023	-0.043
-730.966	418.398	-0.124	-0.268
-729.952	-124.574	-0.257	0.040
-728.937	-200.000	-0.036	-0.255
-727.923	66.897	-0.029	0.029
-726.908	-200.000	-0.075	-0.342
-725.894	350.449	0.081	0.161
-724.879	22.531	-0.073	0.060
-723.864	27.186	-0.134	-0.113
-722.850	-69.655	-0.273	-0.105
-721.835	-103.603	0.244	0.058
-720.821	-31.450	-0.372	-0.210
-719.806	-70.328	0.188	-0.072
-718.791	128.162	0.104	0.133
-717.777	-104.981	-0.173	0.040
-716.762	-111.482	-0.388	0.079
-715.748	-200.000	-0.004	-0.204
-714.733	-138.924	0.265	0.029
-713.718	800.000	-0.033	-0.126
-712.704	-200.000	0.001	0.244
-711.689	-86.278	0.218	0.068
-710.675	177.654	-0.136	0.199
-709.660	-11.338	0.337	0.223
-708.645	132.252	0.148	-0.191
-707.631	-200.000	-0.004	-0.144
-706.616	453.128	-0.092	-0.204
-705.602	323.304	-0.153	-0.294
-704.587	124.495	0.128	-0.162
-703.572	-200.000	0.082	-0.418
-702.558	-184.252	0.241	0.004
-701.543	-113.205	0.256	0.051
-700.529	171.236	0.184	0.265
-699.514	170.265	-0.322	0.464
-698.499	109.529	0.327	0.393
-697.485	70.433	0.027	0.028
-696.470	19.402	0.021	-0.017
-695.456	-200.000	0.077	0.423
-694.441	440.410	0.162	0.356
-693.426	-116.727	0.186	0.034
-692.412	-132.706	0.319	0.041
-691.397	-123.340	0.262	0.042
-690.383	-200.000	0.034	-0.298
-689.368	67.519	-0.027	0.028
-688.354	-62.925	-0.141	0.059
-687.339	-139.060	0.359	-0.039
-686.324	-200.000	0.048	-0.266
-685.310	-200.000	0.003	-0.317
-684.295	-28.269	0.362	-0.210
-683.281	135.086	0.202	0.263
-682.266	-200.000	0.007	-0.386
-681.251	198.181	0.118	0.181
-680.237	-59.565	0.120	0.052
-679.222	52.434	0.120	0.115
-678.208	-200.000	-0.041	-0.250
-677.193	-145.737	-0.301	-0.027
-676.178	70.541	-0.033	0.034
-675.164	51.024	-0.116	-0.111
-674.149	-122.735	0.334	-0.054
-673.135	-200.000	-0.035	0.165
-672.120	-200.000	0.036	-0.344
-671.105	-153.090	-0.425	-0.030
-670.091	800.000	0.129	-0.398
-669.076	-161.328	-0.290	-0.015
-668.062	266.312	0.044	0.077
-667.047	49.227	-0.081	-0.076
-666.032	427.874	-0.150	-0.324
-665.018	31.181	-0.168	0.144
-664.003	-136.851	0.136	0.016
-662.989	104.549	0.253	0.298
-661.974	-104.393	0.194	0.045
-660.959	119.574	-0.261	0.325
-659.945	-56.001	-0.331	-0.148
-658.930	399.493	0.143	-0.301
-657.916	-200.000	-0.015	-0.073
-656.901	363.787	-0.045	0.091
-655.886	-87.838	0.254	0.077
-654.872	214.089	-0.280	0.445
-653.857	-148.099	-0.229	-0.019
-652.843	800.000	0.086	0.316
-651.828	38.948	0.113	-0.102
-650.814	18.541	0.214	-0.172
-649.799	-200.000	-0.051	-0.320
-648.784	357.391	-0.019	0.037
-647.770	-47.052	-0.093	-0.045
-646.755	-200.000	-0.001	0.045
-645.741	-28.801	-0.113	0.065
-644.726	173.774	-0.075	0.108
-643.711	800.000	-0.066	0.276
-642.697	-69.212	0.113	-0.043
-641.682	-105.386	-0.247	0.056
-640.668	-101.316	0.377	-0.092
-639.653	800.000	0.082	0.306
-638.638	229.007	-0.104	-0.170
-637.624	456.859	0.073	-0.163
-636.609	-47.058	-0.129	0.063
-635.595	-14.931	0.150	-0.096
-634.580	-61.013	-0.405	0.172
-633.565	23.202	0.052	0.043
-632.551	-121.617	0.355	0.059
-631.536	-200.000	0.007	-0.356
-630.522	-200.000	-0.021	-0.332
-629.507	-200.000	0.009	-0.414
-628.492	234.196	0.110	0.182
-627.478	715.457	0.085	-0.226
-626.463	800.000	-0.024	-0.075
-625.449	422.574	-0.055	-0.119
-624.434	15.556	0.208	-0.164
-623.419	-71.559	0.008	0.003
-622.405	-91.068	0.064	0.018
-621.390	-200.000	-0.026	0.187
-620.376	-77.915	0.263	0.091
-619.361	-200.000	-0.013	-0.170
-618.346	-94.148	0.332	-0.091
-617.332	12.762	0.236	-0.182
-616.317	-74.052	-0.228	0.083
-615.303	-200.000	0.061	-0.302
-614.288	-26.885	-0.253	0.148
-613.273	-96.844	-0.288	0.076
-612.259	-110.500	0.317	-0.066
-611.244	800.000	-0.050	-0.179
-610.230	-200.000	-0.027	0.316
-609.215	81.159	-0.162	0.175
-608.201	-75.729	-0.141	0.050
-607.186	-11.704	-0.260	0.171
-606.171	729.553	0.065	0.175
-605.157	-157.829	-0.373	-0.022
-604.142	-200.000	0.055	-0.263
-603.128	-108.132	0.069	0.015
-602.113	640.323	-0.066	-0.168
-601.098	43.222	-0.099	-0.090
-600.084	-200.000	-0.036	-0.209
-599.069	-1.281	-0.330	0.233
-598.055	-53.772	0.162	0.074
-597.040	211.752	-0.109	-0.171
-596.025	-145.330	-0.237	0.021
-595.011	800.000	0.064	0.217
-593.996	124.799	0.163	-0.205
-592.982	-200.000	0.020	0.113
-591.967	800.000	-0.048	-0.133
-590.952	-98.891	-0.137	0.035
-589.938	110.806	-0.046	0.055
-588.923	-12.893	0.158	0.103
-587.909	401.770	-0.188	0.395
-586.894	-200.000	-0.032	-0.175
-585.879	44.021	0.068	0.062
-584.865	38.957	0.061	0.054
-583.850	-120.466	-0.208	0.035
-582.836	-200.000	0.007	-0.297
-581.821	252.236	-0.077	-0.130
-580.806	-184.471	-0.165	-0.003
-579.792	196.833	0.054	0.082
-578.777	-131.410	0.121	0.016
-577.763	-126.905	0.413	0.061
-576.748	-12.308	-0.518	0.338
-575.733	-200.000	0.024	-0.323
-574.719	-132.912	0.113	-0.014
-573.704	-1.536	0.134	-0.094
-572.690	-200.000	0.048	-0.302
-571.675	47.965	-0.247	-0.231
-570.661	800.000	-0.044	0.190
-569.646	150.762	-0.124	0.169
-568.631	90.226	0.089	0.099
-567.617	681.273	0.096	-0.251
-566.602	-126.275	0.177	-0.026
-565.588	800.000	0.066	-0.250
-564.573	158.860	-0.184	0.256
-563.558	-200.000	0.050	0.237
-562.544	480.809	0.039	-0.089
-561.529	473.817	0.140	-0.316
-560.515	81.350	-0.055	0.059
-559.500	800.000	-0.043	0.151
-558.485	-108.899	-0.122	0.026
-557.471	19.681	0.281	0.226
-556.456	187.284	-0.179	0.267
-555.442	88.775	0.109	-0.121
-554.427	-165.042	0.107	0.005
-553.412	0.491	-0.244	0.174
-552.398	78.194	0.165	-0.176
-551.383	32.723	0.239	0.207
-550.369	-117.113	-0.361	-0.066
-549.354	-200.000	0.000	0.385
-548.339	800.000	0.041	0.115
-547.325	502.956	0.039	0.090
-546.310	391.150	0.048	0.100
-545.296	394.227	-0.039	0.081
-544.281	-200.000	0.002	-0.076
-543.266	75.362	0.068	-0.071
-542.252	333.724	-0.082	0.158
-541.237	-3.447	0.276	-0.192
-540.223	-175.199	0.113	-0.003
-539.208	6.732	-0.265	0.197
-538.193	402.178	0.074	0.155
-537.179	-64.140	0.164	-0.067
-536.164	-200.000	-0.026	0.243
-535.150	433.862	0.162	0.350
-534.135	-200.000	-0.034	0.211
-533.121	-104.271	0.122	-0.028
-532.106	-200.000	-0.021	0.300
-531.091	-70.085	-0.435	0.165
-530.077	-200.000	0.075	0.339
-529.062	-200.000	0.024	-0.157
-528.048	-186.151	-0.254	0.004
-527.033	-84.524	-0.201	-0.063
-526.018	-4.569	-0.173	-0.119
-525.004	-200.000	-0.044	0.240
-523.989	106.950	0.177	-0.210
-522.975	158.792	0.092	-0.128
-521.960	800.000	0.095	-0.315
-520.945	419.194	0.197	-0.421
-519.931	-147.034	-0.253	0.022
-518.916	-126.331	-0.043	-0.006
-517.902	5.769	-0.274	0.202
-516.887	-200.000	-0.027	0.254
-515.872	-76.462	0.219	-0.077
-514.858	292.020	-0.085	0.154
-513.843	10.556	0.092	0.070
-512.829	9.916	-0.282	-0.213
-511.814	-199.433	-0.254	0.001
-510.799	139.743	-0.115	-0.151
-509.785	535.075	-0.104	0.245
-508.770	16.384	-0.204	0.160
-507.756	800.000	-0.057	0.172
-506.741	108.750	-0.205	0.244
-505.726	305.999	0.186	-0.344
-504.712	-127.914	-0.324	-0.046
-503.697	-200.000	0.022	0.240
-502.683	235.206	0.091	-0.150
-501.668	-200.000	-0.062	0.309
-500.653	-106.918	0.359	0.079
-499.639	-74.513	-0.114	0.041
-498.624	-176.858	0.174	-0.004
-497.610	251.988	0.218	-0.371
-496.595	747.262	-0.010	-0.026
-495.581	-200.000	-0.016	0.170
-494.566	224.283	-0.143	-0.231
-493.551	536.131	0.176	0.416
-492.537	800.000	-0.022	0.074
-491.522	217.019	0.165	0.261
-490.508	348.721	0.217	-0.426
-489.493	-47.102	0.231	-0.113
-488.478	-76.104	0.416	-0.146
-487.464	321.786	-0.098	-0.186
-486.449	-109.412	0.320	0.067
-485.435	58.134	-0.109	0.106
-484.420	-77.634	-0.078	-0.027
-483.405	-96.332	0.271	0.071
-482.391	367.670	-0.221	0.444
-481.376	-1.601	0.169	0.119
-480.362	61.357	-0.050	0.049
-479.347	329.738	-0.159	-0.305
-478.332	581.285	-0.167	0.408
-477.318	-200.000	0.010	-0.137
-476.303	-200.000	0.002	-0.091
-475.289	-31.384	-0.128	0.072
-474.274	-54.889	0.086	0.038
-473.259	-118.350	-0.308	-0.054
-472.245	-147.453	0.253	0.021
-471.230	584.864	-0.186	0.454
-470.216	-3.370	-0.176	0.122
-469.201	-66.881	-0.234	0.092
-468.186	800.000	-0.008	-0.032
-467.172	93.567	-0.038	-0.043
-466.157	61.072	-0.169	0.167
-465.143	97.729	0.135	-0.155
-464.128	-90.571	0.426	0.123
-463.113	103.444	-0.077	0.090
-462.099	-20.442	0.173	-0.106
-461.084	800.000	-0.053	0.190
-460.070	57.260	-0.079	0.077
-459.055	29.136	0.158	0.134
-458.040	-78.391	-0.203	0.069
-457.026	-200.000	-0.029	0.163
-456.011	800.000	0.021	0.059
-454.997	-200.000	-0.078	0.433
-453.982	-200.000	0.152	0.000
-452.968	800.000	-0.034	-0.129
-451.953	-49.278	0.021	-0.010
-450.938	7.396	-0.125	-0.093
-449.924	510.805	0.051	0.119
-448.909	-200.000	-0.006	0.136
-447.895	316.540	-0.083	0.157
-446.880	-93.856	0.118	-0.032
-445.865	161.077	0.107	-0.149
-444.851	-24.560	-0.146	-0.087
-443.836	25.621	-0.052	-0.043
-442.822	-200.000	0.002	-0.400
-441.807	159.877	0.062	0.086
-440.792	800.000	-0.065	-0.233
-439.778	800.000	-0.071	0.256
-438.763	-1.588	0.146	0.102
-437.749	-113.568	-0.527	0.102
-436.734	-100.184	-0.065	0.016
-435.719	-200.000	0.064	0.296
-434.705	-83.145	0.207	-0.066
-433.690	-200.000	-0.005	0.291
-432.676	-22.463	0.210	-0.127
-431.661	680.802	0.121	-0.314
-430.646	127.823	-0.182	0.229
-429.632	-69.994	0.064	0.024
-428.617	25.663	-0.305	0.253
-427.603	122.206	-0.026	0.033
-426.588	-156.130	-0.071	-0.004
-425.573	382.373	0.158	0.324
-424.559	100.855	0.231	-0.266
-423.544	385.998	0.026	-0.054
-422.530	-114.830	0.603	-0.114
-421.515	97.299	-0.056	-0.064
-420.500	133.327	-0.206	0.265
-419.486	77.340	-0.034	-0.036
-418.471	-35.601	-0.185	0.100
-417.457	-101.330	-0.392	-0.095
-416.442	800.000	0.087	0.323
-415.428	-0.419	0.228	0.161
-414.413	140.709	-0.098	-0.129
-413.398	-200.000	0.028	0.187
-412.384	-52.615	-0.132	0.061
-411.369	226.551	-0.125	0.202
-410.355	-128.051	-0.226	-0.032
-409.340	-145.162	0.332	-0.030
-408.325	-71.588	-0.028	0.010
-407.311	-65.075	-0.261	0.105
-406.296	-49.312	0.048	0.023
-405.282	5.143	-0.265	0.194
-404.267	-106.465	0.168	-0.037
-403.252	-65.468	0.228	0.091
-402.238	-36.617	-0.108	0.058
-401.223	-108.713	-0.111	0.024
-400.209	-197.321	0.144	-0.001
-399.194	800.000	-0.023	0.069
-398.179	146.883	0.157	-0.210
-397.165	-133.718	-0.421	0.052
-396.150	287.228	0.060	0.108
-395.136	349.000	0.109	-0.214
-394.121	800.000	0.043	0.160
-393.106	109.762	0.181	-0.215
-392.092	-164.283	-0.352	-0.016
-391.077	-200.000	-0.023	-0.348
-390.063	-136.418	-0.288	-0.033
-389.048	12.359	0.129	0.098
-388.033	-200.000	-0.039	0.228
-387.019	-141.733	-0.310	0.031
-386.004	53.620	-0.138	-0.132
-384.990	-97.389	-0.310	0.080
-383.975	-200.000	0.005	0.063
-382.960	90.310	0.258	-0.287
-381.946	-72.165	-0.045	-0.017
-380.931	34.675	0.229	-0.198
-379.917	45.683	0.078	0.071
-378.902	-93.127	0.241	-0.066
-377.888	-68.150	0.082	-0.032
-376.873	-105.525	-0.244	0.055
-375.858	-200.000	0.009	-0.190
-374.844	556.289	-0.061	-0.146
-373.829	32.598	0.168	0.144
-372.815	-94.980	0.085	0.023
-371.800	-200.000	-0.006	-0.166
-370.785	648.708	-0.033	0.083
-369.771	-200.000	-0.008	0.051
-368.756	567.999	0.069	-0.165
-367.742	-150.078	-0.252	-0.019
-366.727	-86.219	-0.350	-0.107
-365.712	-130.064	0.069	-0.009
-364.698	385.399	0.038	0.079
-363.683	-83.978	-0.453	-0.143
-362.669	-78.143	0.101	-0.034
-361.654	-35.995	0.219	0.117
-360.639	-96.093	-0.175	0.046
-359.625	20.898	0.201	0.161
-358.610	-103.645	0.324	-0.075
-357.596	800.000	0.065	0.179
-356.581	-98.127	-0.474	0.121
-355.566	800.000	0.134	-0.464
-354.552	-75.781	-0.110	-0.039
-353.537	-65.264	0.218	0.087
-352.523	-186.913	-0.230	0.003
-351.508	800.000	-0.085	0.357
-350.493	538.955	-0.034	-0.081
-349.479	-200.000	0.017	-0.322
-348.464	-128.781	0.137	0.019
-347.450	-95.849	0.312	-0.083
-346.435	109.789	-0.129	-0.154
-345.420	-102.975	0.222	-0.052
-344.406	100.467	-0.152	0.175
-343.391	360.985	0.169	0.336
-342.377	162.210	-0.019	-0.027
-341.362	-200.000	-0.036	0.220
-340.348	-72.525	0.294	0.108
-339.333	-200.000	-0.002	-0.196
-338.318	5.548	0.135	-0.099
-337.304	-200.000	0.006	-0.212
-336.289	398.853	-0.125	0.258
-335.275	-26.223	0.232	0.135
-334.260	26.239	0.123	-0.102
-333.245	-99.139	-0.181	-0.045
-332.231	22.041	-0.113	0.091
-331.216	511.845	-0.096	0.222
-330.202	249.792	0.182	0.306
-329.187	800.000	-0.159	-0.611
-328.172	800.000	0.096	-0.288
-327.158	200.424	0.122	0.185
-326.143	248.890	0.105	-0.176
-325.129	259.430	0.274	-0.469
-324.114	-200.000	0.007	-0.203
-323.099	-6.349	0.189	-0.128
-322.085	800.000	0.171	0.507
-321.070	-50.439	-0.300	0.140
-320.056	-200.000	-0.028	-0.267
-319.041	148.906	0.248	-0.331
-318.026	-33.390	0.163	0.089
-317.012	108.328	-0.123	0.145
-315.997	-200.000	0.036	-0.173
-314.983	-9.765	0.305	0.201
-313.968	786.592	-0.073	0.197
-312.953	1.157	-0.236	-0.168
-311.939	-162.212	0.241	0.012
-310.924	7.779	0.178	-0.132
-309.910	-200.000	0.267	-0.000
-308.895	-78.883	-0.152	0.051
-307.880	53.908	0.186	-0.177
-306.866	-154.352	-0.096	0.006
-305.851	800.000	0.054	-0.204
-304.837	-99.891	0.118	0.029
-303.822	-200.000	-0.004	0.088
-302.807	-156.856	0.371	0.023
-301.793	-165.642	-0.134	-0.006
-300.778	-56.004	0.155	-0.068
-299.764	207.215	0.095	-0.147
-298.749	179.462	-0.095	-0.138
-297.735	-200.000	0.045	-0.328
-296.720	800.000	0.073	0.201
-295.705	91.750	-0.171	-0.190
-294.691	800.000	0.092	-0.305
-293.676	-200.000	-0.001	0.082
-292.662	2.786	-0.239	-0.171
-291.647	-138.351	-0.274	0.030
-290.632	266.201	-0.071	0.123
-289.618	-87.033	-0.121	0.036
-288.603	-1.493	0.191	-0.133
-287.589	286.530	-0.140	-0.249
-286.574	-115.786	0.132	0.024
-285.559	-40.557	0.203	0.104
-284.545	190.370	-0.104	0.155
-283.530	26.273	0.567	-0.468
-282.516	-76.838	0.260	0.090
-281.501	-73.621	0.223	-0.080
-280.486	800.000	0.082	0.356
-279.472	800.000	-0.036	0.139
-278.457	-123.258	0.057	0.009
-277.443	-200.000	-0.022	0.285
-276.428	-200.000	-0.018	0.081
-275.413	-200.000	0.014	-0.083
-274.399	57.500	-0.164	0.159
-273.384	-141.151	-0.045	0.005
-272.370	-123.930	0.106	-0.016
-271.355	-162.417	-0.135	-0.007
-270.340	-112.728	-0.073	-0.014
-269.326	-200.000	-0.048	-0.315
-268.311	-105.245	0.070	0.016
-267.297	-52.893	0.169	-0.077
-266.282	181.221	-0.208	0.302
-265.267	35.350	0.068	-0.059
-264.253	465.456	-0.074	0.164
-263.238	781.953	-0.059	0.161
-262.224	-119.313	-0.179	-0.031
-261.209	16.413	-0.181	-0.141
-260.195	-62.400	0.274	0.113
-259.180	-200.000	-0.038	-0.396
-258.165	170.246	0.132	-0.187
-257.151	42.291	0.154	-0.138
-256.136	-57.581	0.317	-0.137
-255.122	32.905	-0.201	0.172
-254.107	-61.802	0.149	-0.061
-253.092	-167.024	-0.204	0.008
-252.078	-123.025	-0.083	0.013
-251.063	800.000	-0.050	-0.137
-250.049	341.930	0.207	0.399
-249.034	-200.000	-0.005	0.116
-248.019	243.277	-0.101	-0.168
-247.005	142.437	0.104	-0.136
-245.990	-115.930	0.047	0.009
-244.976	155.410	-0.142	0.193
-243.961	-17.585	0.109	0.068
-242.946	-130.854	-0.141	0.019
-241.932	121.263	0.129	0.159
-240.917	-183.583	-0.291	0.005
-239.903	199.093	0.249	-0.377
-238.888	-127.711	0.152	0.022
-237.873	-161.615	-0.320	0.016
-236.859	0.067	0.263	-0.185
-235.844	-19.745	0.284	-0.173
-234.830	85.236	-0.169	0.182
-233.815	61.278	0.155	0.152
-232.800	43.221	0.122	-0.110
-231.786	188.942	0.107	-0.158
-230.771	-54.639	0.147	0.065
-229.757	800.000	-0.121	-0.419
-228.742	-142.572	-0.297	-0.029
-227.727	800.000	0.110	-0.300
-226.713	-200.000	0.040	-0.227
-225.698	-116.500	-0.125	-0.023
-224.684	800.000	0.160	0.445
-223.669	-89.211	0.141	0.041
-222.655	-162.591	0.036	-0.002
-221.640	-1.184	-0.216	-0.150
-220.625	33.444	0.062	0.053
-219.611	-84.633	0.136	-0.042
-218.596	-200.000	-0.012	0.375
-217.582	490.367	-0.077	0.173
-216.567	30.948	-0.094	0.079
-215.552	139.881	0.159	-0.207
-214.538	139.794	-0.128	-0.166
-213.523	202.792	0.123	-0.187
-212.509	-139.260	-0.200	0.021
-211.494	-95.993	0.197	-0.052
-210.479	456.360	0.154	0.337
-209.465	-200.000	0.005	-0.236
-208.450	800.000	-0.018	0.072
-207.436	800.000	-0.128	0.348
-206.421	158.529	0.067	0.092
-205.406	-106.160	-0.299	-0.066
-204.392	-7.915	0.071	-0.047
-203.377	359.524	0.056	0.111
-202.363	531.311	0.004	0.009
-201.348	415.186	-0.102	-0.214
-200.333	192.840	-0.181	-0.270
-199.319	-84.280	0.309	-0.096
-198.304	-170.587	-0.301	0.010
-197.290	65.873	-0.171	0.170
-196.275	71.467	-0.262	-0.268
-195.260	800.000	-0.040	0.123
-194.246	100.155	0.181	0.206
-193.231	462.365	-0.081	-0.178
-192.217	272.087	0.044	-0.076
-191.202	-200.000	-0.018	0.167
-190.187	9.226	0.051	0.038
-189.173	75.024	0.215	0.223
-188.158	-62.703	0.237	-0.097
-187.144	-85.135	-0.254	0.078
-186.129	-143.904	-0.206	-0.019
-185.114	244.154	-0.125	0.207
-184.100	-200.000	0.062	0.450
-183.085	-104.502	0.129	-0.029
-182.071	-148.383	-0.221	0.018
-181.056	-0.552	0.117	0.082
-180.042	-31.234	0.200	0.111
-179.027	134.871	-0.092	-0.118
-178.012	-75.975	0.199	0.069
-176.998	129.154	-0.164	0.206
-175.983	181.954	-0.057	-0.082
-174.969	742.725	0.127	-0.337
-173.954	413.979	-0.068	-0.143
-172.939	-200.000	-0.004	-0.529
-171.925	618.440	0.144	-0.356
-170.910	-200.000	-0.009	-0.108
-169.896	10.328	0.109	-0.082
-168.881	-95.162	0.190	-0.050
-167.866	284.323	-0.108	-0.192
-166.852	-106.982	0.023	-0.005
-165.837	28.416	-0.093	-0.078
-164.823	-200.000	0.085	-0.375
-163.808	-200.000	-0.009	0.107
-162.793	128.453	0.181	0.227
-161.779	-155.655	-0.260	-0.016
-160.764	420.821	0.083	-0.176
-159.750	93.649	0.180	-0.200
-158.735	38.540	-0.121	-0.106
-157.720	-75.951	-0.180	0.063
-156.706	132.478	0.217	-0.276
-155.691	146.841	-0.113	-0.150
-154.677	-110.351	-0.560	0.114
-153.662	54.579	-0.103	-0.097
-152.647	99.954	-0.084	-0.095
-151.633	-131.249	-0.316	-0.041
-150.618	-93.851	-0.408	-0.110
-149.604	-0.742	0.187	0.130
-148.589	800.000	-0.013	0.052
-147.574	10.683	0.185	0.139
-146.560	-99.142	-0.064	-0.016
-145.545	-200.000	-0.004	0.240
-144.531	-200.000	0.000	0.089
-143.516	-124.129	-0.132	0.020
-142.502	97.769	0.008	0.009
-141.487	-200.000	0.042	0.207
-140.472	-200.000	-0.017	0.377
-139.458	-187.139	-0.390	0.005
-138.443	-200.000	0.047	-0.276
-137.429	-154.845	0.447	-0.029
-136.414	-27.310	-0.123	0.070
-135.399	74.415	-0.199	-0.206
-134.385	-80.329	0.168	0.055
-133.370	103.353	-0.188	0.216
-132.356	786.590	-0.092	-0.249
-131.341	-17.399	0.171	0.106
-130.326	252.684	-0.071	0.119
-129.312	87.053	0.132	0.143
-128.297	314.652	-0.260	0.481
-127.283	78.620	-0.120	0.126
-126.268	-77.956	0.328	-0.111
-125.253	84.104	0.053	-0.057
-124.239	800.000	0.052	0.224
-123.224	59.285	0.100	0.097
-122.210	-190.587	0.041	0.000
-121.195	-67.876	0.144	-0.055
-120.180	-65.433	0.218	-0.086
-119.166	-200.000	0.042	0.285
-118.151	-142.005	0.259	-0.025
-117.137	800.000	-0.048	0.169
-116.122	201.653	0.115	0.174
-115.107	-27.152	0.046	0.027
-114.093	-62.632	-0.273	0.111
-113.078	800.000	0.072	0.196
-112.064	800.000	0.054	-0.177
-111.049	344.937	-0.087	-0.168
-110.034	8.964	0.295	0.219
-109.020	-123.392	-0.155	-0.024
-108.005	424.446	0.134	0.283
-106.991	-200.000	-0.027	0.136
-105.976	-200.000	-0.008	0.097
-104.962	-169.969	-0.331	0.012
-103.947	131.439	0.071	0.090
-102.932	138.437	0.270	0.347
-101.918	-25.792	0.158	0.092
-100.903	446.805	-0.074	0.160
-99.889	-200.000	0.006	-0.083
-98.874	319.093	0.135	0.251
-97.859	-149.687	-0.407	0.031
-96.845	151.538	0.107	0.143
-95.830	-82.367	-0.277	-0.088
-94.816	93.564	-0.068	-0.076
-93.801	671.803	0.131	0.332
-92.786	-200.000	0.005	0.414
-91.772	-1.423	-0.143	0.099
-90.757	92.605	-0.145	0.161
-89.743	378.451	-0.026	-0.051
-88.728	-44.328	0.023	0.011
-87.713	337.238	-0.044	-0.084
-86.699	131.172	-0.210	0.264
-85.684	226.308	-0.006	0.010
-84.670	-103.645	-0.341	0.078
-83.655	-127.846	-0.332	0.047
-82.640	-200.000	-0.023	0.267
-81.626	122.275	-0.116	0.143
-80.611	-71.167	0.257	0.095
-79.597	25.122	-0.368	-0.299
-78.582	-75.172	0.405	-0.142
-77.567	800.000	0.085	0.283
-76.553	-200.000	-0.006	0.073
-75.538	115.488	0.028	0.034
-74.524	-163.960	0.180	0.008
-73.509	-200.000	-0.014	0.235
-72.494	-41.612	0.224	0.113
-71.480	-200.000	-0.012	0.106
-70.465	-30.347	-0.272	0.152
-69.451	-143.283	0.394	0.037
-68.436	210.497	0.057	-0.088
-67.422	2.158	0.118	-0.084
-66.407	-200.000	-0.037	-0.265
-65.392	-200.000	-0.022	0.101
-64.378	-76.375	-0.229	0.079
-63.363	800.000	0.085	-0.285
-62.349	92.088	-0.168	-0.185
-61.334	75.873	-1.175	-1.218
-60.319	253.474	0.404	0.676
-59.305	800.000	-0.276	-0.899
-58.290	303.411	0.702	1.274
-57.276	282.111	0.798	1.401
-56.261	-200.000	113.014	649.154
-55.246	475.552	1504.406	3328.201
-54.232	147.462	2670.367	3522.702
-53.217	104.686	2153.191	2485.216
-52.203	39.097	1602.804	1403.897
-51.188	30.830	1348.871	1131.461
-50.173	27.977	1311.281	1083.006
-49.159	56.134	1366.683	1299.513
-48.144	54.515	1381.657	1303.957
-47.130	31.223	1337.359	1123.988
-46.115	27.720	1319.569	1088.141
-45.100	27.583	1314.708	1083.280
-44.086	27.445	1312.425	1080.533
-43.071	27.258	1310.126	1077.490
-42.057	27.368	1307.843	1076.220
-41.042	27.467	1306.205	1075.414
-40.027	27.486	1304.829	1074.350
-39.013	27.443	1302.887	1072.457
-37.998	27.462	1301.316	1071.235
-36.984	27.534	1299.174	1069.847
-35.969	27.553	1297.271	1068.349
-34.954	27.678	1295.614	1067.680
-33.940	27.543	1294.593	1066.001
-32.925	27.616	1293.337	1065.351
-31.911	27.690	1291.504	1064.232
-30.896	27.569	1290.635	1062.767
-29.881	27.669	1288.993	1061.957
-28.867	27.685	1287.548	1060.817
-27.852	27.648	1286.159	1059.418
-26.838	27.646	1284.805	1058.247
-25.823	27.562	1283.768	1056.866
-24.809	27.618	1282.212	1055.869
-23.794	27.735	1280.541	1055.127
-22.779	27.610	1279.551	1053.542
-21.765	27.696	1277.745	1052.515
-20.750	27.659	1276.636	1051.341
-19.736	27.651	1275.317	1050.169
-18.721	27.506	1274.487	1048.611
-17.706	27.630	1273.043	1048.092
-16.692	27.487	1272.059	1046.421
-15.677	27.572	1270.875	1045.892
-14.663	27.498	1269.814	1044.550
-13.648	27.507	1268.658	1043.614
-12.633	27.563	1267.621	1043.036
-11.619	27.541	1267.162	1042.491
-10.604	27.509	1266.078	1041.378
-9.590	27.542	1265.161	1040.769
-8.575	27.413	1264.275	1039.264
-7.560	27.418	1263.333	1038.476
-6.546	27.477	1262.277	1037.902
-5.531	27.414	1261.995	1037.270
-4.517	27.527	1260.624	1036.747
-3.502	27.569	1259.837	1036.294
-2.487	27.562	1258.886	1035.435
-1.473	27.556	1254.463	1031.718
-0.458	25.996	1239.700	1010.804
0.556	21.026	1222.803	972.824
1.571	17.361	1229.916	957.793
2.586	16.727	1244.802	965.689
3.600	16.835	1234.032	957.860
4.615	15.442	1167.663	898.810
5.629	12.403	1100.537	831.703
6.644	10.757	1084.290	811.141
7.659	10.612	1081.811	808.492
8.673	10.688	1080.496	807.813
9.688	10.563	1079.000	806.001
10.702	10.833	1076.904	805.706
11.717	12.784	1078.464	816.479
12.731	15.694	1083.158	834.422
13.746	17.642	1084.654	845.171
14.761	17.637	1084.279	844.779
15.775	16.697	1082.301	838.510
16.790	15.682	1080.067	831.685
17.804	14.785	1078.626	826.067
18.819	14.401	1077.277	823.067
19.834	14.238	1076.272	821.421
20.848	13.861	1075.799	819.128
21.863	13.756	1074.692	817.694
22.877	13.625	1074.030	816.474
23.892	13.669	1072.946	815.793
24.907	13.549	1072.198	814.561
25.921	13.532	1071.549	813.912
26.936	13.659	1070.263	813.487
27.950	13.634	1068.774	812.162
28.965	13.679	1067.262	811.161
29.980	13.754	1065.547	810.151
30.994	13.924	1064.335	809.988
32.009	13.848	1063.466	808.888
33.023	13.826	1062.321	807.836
34.038	13.707	1061.575	806.620
35.053	13.783	1060.134	805.820
36.067	13.723	1059.447	804.938
37.082	13.763	1058.888	804.636
38.096	13.813	1058.177	804.265
39.111	13.799	1057.073	803.289
40.126	13.760	1055.813	802.070
41.140	13.652	1054.633	800.584
42.155	13.443	1053.817	798.885
43.169	13.398	1052.784	797.811
44.184	13.547	1051.010	797.112
45.199	13.514	1050.541	796.528
46.213	13.632	1049.099	795.930
47.228	13.557	1048.523	795.067
48.242	13.631	1047.041	794.224
49.257	13.618	1046.065	793.352
50.271	13.536	1045.696	792.609
51.286	13.664	1044.685	792.386
52.301	13.682	1043.794	791.725
53.315	13.612	1043.074	790.777
54.330	13.547	1041.920	789.520
55.344	13.473	1041.004	788.405
56.359	13.701	1039.858	788.550
57.374	13.512	1039.046	786.969
58.388	13.427	1038.457	786.050
59.403	13.434	1037.533	785.311
60.417	13.441	1036.932	784.824
61.432	13.451	1035.788	783.933
62.447	13.347	1035.349	783.042
63.461	13.446	1034.394	782.718
64.476	13.440	1033.368	781.840
65.490	13.325	1032.523	780.590
66.505	13.520	1031.285	780.506
67.520	13.498	1030.916	780.053
68.534	13.465	1030.267	779.336
69.549	13.440	1029.504	778.575
70.563	13.473	1028.606	777.981
71.578	13.409	1027.842	777.032
72.593	13.339	1027.145	776.110
73.607	13.371	1026.794	775.926
74.622	13.487	1025.559	775.467
75.636	13.400	1024.781	774.405
76.651	13.361	1024.453	773.903
77.666	13.472	1023.281	773.472
78.680	13.326	1023.620	772.977
79.695	13.528	1022.768	773.206
80.709	13.469	1022.170	772.411
81.724	13.648	1021.157	772.412
82.739	13.609	1020.687	771.804
83.753	13.723	1019.770	771.573
84.768	13.725	1019.057	770.977
85.782	13.938	1017.808	770.954
86.797	13.706	1017.301	769.422
87.812	13.638	1016.021	768.072
88.826	13.758	1015.022	767.803
89.841	13.789	1013.793	766.949
90.855	13.700	1013.045	765.904
91.870	13.767	1012.658	765.855
92.884	13.783	1011.873	765.267
93.899	13.826	1011.018	764.751
94.914	13.897	1010.170	764.366
95.928	13.762	1009.512	763.182
96.943	13.804	1008.123	762.258
97.957	13.730	1007.529	761.402
98.972	13.822	1006.253	760.790
99.987	13.820	1005.592	760.213
101.001	13.732	1005.051	759.333
102.016	13.667	1003.985	758.164
103.030	13.726	1003.382	757.912
104.045	13.817	1002.321	757.459
105.060	13.748	1001.283	756.292
106.074	13.555	1000.842	755.016
107.089	13.568	999.361	753.888
108.103	13.590	998.292	753.117
109.118	13.504	997.803	752.287
110.133	13.564	996.674	751.645
111.147	13.619	995.665	751.067
112.162	13.621	994.733	750.307
113.176	13.651	993.944	749.778
114.191	13.670	993.560	749.510
115.206	13.709	992.430	748.766
116.220	13.637	991.675	747.806
117.235	13.752	990.542	747.404
118.249	13.667	989.798	746.391
119.264	13.574	989.445	745.643
120.279	13.650	988.366	745.107
121.293	13.609	987.117	743.914
122.308	13.510	986.644	743.049
123.322	13.490	985.529	742.052
124.337	13.508	984.439	741.245
125.352	13.555	983.630	740.784
126.366	13.673	982.165	740.140
127.381	13.661	981.585	739.584
128.395	13.620	980.584	738.580
129.410	13.484	979.836	737.349
130.424	13.644	978.934	737.313
131.439	13.647	977.894	736.479
132.454	13.625	977.501	736.020
133.468	13.623	976.699	735.342
134.483	13.831	975.653	735.410
135.497	13.596	975.400	734.115
136.512	13.565	974.323	733.104
137.527	13.633	973.145	732.451
138.541	13.602	972.638	731.870
139.556	13.777	972.090	732.165
140.570	13.887	971.156	731.879
141.585	13.873	970.384	731.173
142.600	13.893	969.378	730.438
143.614	13.817	968.963	729.725
144.629	13.803	968.193	729.019
145.643	13.862	967.281	728.526
146.658	13.794	966.140	727.308
147.673	13.822	965.060	726.551
148.687	13.840	964.069	725.821
149.702	13.758	963.220	724.758
150.716	13.682	962.594	723.892
151.731	13.798	961.813	723.747
152.746	13.697	961.182	722.765
153.760	13.815	960.559	722.747
154.775	13.851	960.263	722.620
155.789	13.903	959.671	722.334
156.804	13.901	958.617	721.470
157.819	13.864	957.965	720.754
158.833	13.968	957.539	720.822
159.848	14.040	956.155	720.027
160.862	13.999	955.634	719.395
161.877	13.911	954.412	718.029
162.892	13.771	953.693	716.820
163.906	13.952	952.528	716.663
164.921	13.755	951.733	715.153
165.935	13.991	950.716	715.339
166.950	13.955	949.888	714.499
167.964	13.990	949.248	714.104
168.979	13.925	948.160	712.945
169.994	13.939	947.263	712.268
171.008	13.995	946.653	711.987
172.023	14.015	946.083	711.579
173.037	14.054	945.594	711.316
174.052	14.010	944.497	710.238
175.067	13.990	943.725	709.510
176.081	13.980	943.482	709.222
177.096	13.935	942.940	708.558
178.110	13.970	942.203	708.094
179.125	13.940	941.604	707.453
180.140	14.072	941.266	707.696
181.154	14.059	940.620	707.095
182.169	14.011	940.503	706.737
183.183	14.135	939.589	706.518
184.198	14.100	938.843	705.744
185.213	14.134	937.887	705.107
186.227	14.319	937.015	705.172
187.242	14.318	936.671	704.847
188.256	14.328	936.048	704.359
189.271	14.300	935.108	703.471
190.286	14.144	934.328	702.162
191.300	14.098	933.387	701.198
192.315	14.000	933.063	700.480
193.329	14.110	932.254	700.277
194.344	14.116	931.861	699.944
195.359	14.292	931.371	700.255
196.373	14.301	930.662	699.698
197.388	14.302	930.759	699.710
198.402	14.408	929.910	699.455
199.417	14.559	929.050	699.382
200.432	14.404	929.109	698.715
201.446	14.478	928.534	698.530
202.461	14.611	927.365	698.145
203.475	14.575	926.725	697.449
204.490	14.485	926.034	696.495
205.504	14.445	925.764	696.062
206.519	14.352	924.815	694.899
207.534	14.343	924.421	694.500
208.548	14.517	923.207	694.252
209.563	14.419	922.383	693.164
210.577	14.534	921.946	693.252
211.592	14.464	921.580	692.626
212.607	14.681	920.488	692.643
213.621	14.635	919.844	691.909
214.636	14.543	919.011	690.839
215.650	14.654	918.305	690.707
216.665	14.766	917.615	690.588
217.680	14.674	917.071	689.737
218.694	14.763	916.128	689.336
219.709	14.566	916.279	688.576
220.723	14.698	914.912	688.032
221.738	14.669	914.375	687.446
222.753	14.609	914.050	686.893
223.767	14.795	913.023	686.827
224.782	14.801	912.645	686.507
225.796	14.916	912.041	686.464
226.811	14.799	911.240	685.318
227.826	14.719	910.824	684.618
228.840	14.903	909.695	684.463
229.855	14.849	909.338	683.913
230.869	14.670	908.551	682.530
231.884	14.759	908.125	682.512
232.899	14.766	906.984	681.624
233.913	14.742	906.298	680.950
234.928	14.772	905.644	680.521
235.942	14.728	905.430	680.119
236.957	14.812	904.551	679.739
237.972	14.852	903.794	679.273
238.986	14.859	903.482	679.006
240.001	14.781	902.934	678.220
241.015	14.983	902.089	678.344
242.030	14.943	901.707	677.835
243.045	14.877	901.227	677.144
244.059	14.928	900.400	676.670
245.074	14.905	899.330	675.713
246.088	15.074	898.903	676.016
247.103	15.058	898.433	675.537
248.117	15.050	897.885	675.034
249.132	15.184	897.302	675.076
250.147	15.164	896.697	674.482
251.161	15.192	896.257	674.201
252.176	15.412	895.461	674.430
253.190	15.379	894.707	673.669
254.205	15.339	893.925	672.861
255.220	15.262	893.495	672.169
256.234	15.376	892.777	672.026
257.249	15.303	892.277	671.297
258.263	15.415	891.382	671.012
259.278	15.293	890.801	670.029
260.293	15.447	889.962	669.951
261.307	15.627	889.283	670.100
262.322	15.616	889.056	669.826
263.336	15.525	888.152	668.721
264.351	15.494	887.760	668.246
265.366	15.572	887.249	668.110
266.380	15.605	886.340	667.498
267.395	15.574	885.698	666.832
268.409	15.604	884.551	666.027
269.424	15.634	884.062	665.720
270.439	15.538	883.665	664.985
271.453	15.588	882.831	664.493
272.468	15.486	882.061	663.453
273.482	15.497	881.651	663.130
274.497	15.631	880.881	663.020
275.512	15.683	880.499	662.880
276.526	15.693	880.209	662.641
277.541	15.581	879.375	661.515
278.555	15.658	878.889	661.395
279.570	15.749	878.159	661.143
280.585	15.752	877.431	660.547
281.599	15.656	876.874	659.692
282.614	15.747	875.907	659.264
283.628	15.669	875.259	658.414
284.643	15.718	874.905	658.282
285.657	15.734	874.400	657.903
286.672	15.694	873.243	656.819
287.687	15.798	872.879	656.896
288.701	15.795	872.197	656.309
289.716	15.756	872.042	655.982
290.730	15.861	871.156	655.666
291.745	15.796	870.495	654.861
292.760	15.896	869.993	654.815
293.774	15.938	869.601	654.624
294.789	15.866	868.603	653.533
295.803	15.851	868.055	653.005
296.818	15.901	867.498	652.723
297.833	15.776	866.960	651.776
298.847	15.983	866.164	651.922
299.862	16.074	865.656	651.834
300.876	16.007	864.817	650.886
301.891	16.148	864.142	650.863
302.906	16.039	864.333	650.531
303.920	16.041	863.854	650.119
304.935	16.113	863.314	649.932
305.949	16.012	862.613	648.957
306.964	16.152	861.665	648.727
307.979	16.182	861.436	648.614
308.993	16.274	860.599	648.276
310.008	16.168	859.867	647.261
311.022	16.189	859.315	646.870
312.037	16.206	858.685	646.403
313.052	16.089	857.944	645.341
314.066	16.157	857.275	645.041
315.081	16.137	857.081	644.762
316.095	16.144	856.439	644.247
317.110	16.065	856.004	643.560
318.125	16.185	855.529	643.607
319.139	16.221	854.975	643.271
320.154	16.178	854.655	642.807
321.168	16.299	853.987	642.707
322.183	16.198	853.420	641.841
323.197	16.335	852.754	641.805
324.212	16.337	852.175	641.320
325.227	16.257	851.873	640.732
326.241	16.322	851.159	640.383
327.256	16.368	850.387	639.920
328.270	16.179	850.293	639.077
329.285	16.218	849.672	638.703
330.300	16.246	848.723	638.037
331.314	16.245	848.378	637.717
332.329	16.383	847.990	637.891
333.343	16.400	847.640	637.636
334.358	16.365	847.313	637.201
335.373	16.467	846.600	636.994
336.387	16.409	846.457	636.612
337.402	16.611	846.125	637.065
338.416	16.603	845.784	636.724
339.431	16.543	845.607	636.306
340.446	16.645	844.633	635.899
341.460	16.558	844.877	635.702
342.475	16.557	844.412	635.291
343.489	16.768	843.399	635.265
344.504	16.662	843.221	634.678
345.519	16.773	842.677	634.627
346.533	16.623	842.319	633.739
347.548	16.693	841.608	633.410
348.562	16.635	841.003	632.682
349.577	16.571	840.671	632.138
350.592	16.614	839.887	631.652
351.606	16.757	838.961	631.432
352.621	16.710	838.571	630.911
353.635	16.658	838.158	630.350
354.650	16.786	837.046	629.934
355.665	16.737	836.665	629.407
356.679	16.676	836.062	628.670
357.694	16.891	835.156	628.732
358.708	16.794	834.926	628.145
359.723	16.914	834.458	628.181
360.738	16.906	833.701	627.525
361.752	16.890	833.191	627.028
362.767	16.763	832.481	625.967
363.781	17.023	831.829	626.382
364.796	17.057	831.482	626.191
365.810	17.062	831.059	625.834
366.825	17.071	831.102	625.846
367.840	17.139	830.161	625.333
368.854	17.112	829.778	624.888
369.869	16.994	829.492	624.184
370.883	17.145	828.543	623.970
371.898	17.161	828.385	623.854
372.913	17.088	828.155	623.358
373.927	17.167	827.519	623.114
374.942	17.160	827.307	622.874
375.956	17.377	826.351	622.895
376.971	17.228	826.524	622.422
377.986	17.269	825.871	622.028
379.000	17.333	825.494	621.920
380.015	17.237	824.620	620.857
381.029	17.408	824.270	621.163
382.044	17.513	823.404	620.837
383.059	17.406	823.201	620.241
384.073	17.309	822.995	619.676
385.088	17.278	822.408	619.066
386.102	17.268	821.777	618.500
387.117	17.353	820.848	618.055
388.132	17.369	820.080	617.481
389.146	17.385	819.714	617.209
390.161	17.443	819.202	616.980
391.175	17.476	818.382	616.428
392.190	17.416	818.380	616.152
393.205	17.400	817.802	615.604
394.219	17.375	817.596	615.306
395.234	17.255	816.962	614.338
396.248	17.334	816.250	614.035
397.263	17.325	816.058	613.802
398.278	17.357	815.519	613.459
399.292	17.453	815.314	613.598
400.307	17.327	815.036	612.879
401.321	17.465	814.132	612.643
402.336	17.468	813.671	612.253
403.350	17.377	813.652	611.856
404.365	17.616	813.145	612.279
405.380	17.677	812.506	611.965
406.394	17.611	812.083	611.355
407.409	17.630	811.405	610.857
408.423	17.714	811.330	611.048
409.438	17.795	810.750	610.848
410.453	17.715	810.527	610.341
411.467	17.678	810.154	609.872
412.482	17.782	809.544	609.731
413.496	17.876	809.050	609.641
414.511	17.875	808.888	609.460
415.526	17.856	808.159	608.789
416.540	17.933	807.514	608.524
417.555	17.918	807.280	608.241
418.569	17.866	806.927	607.736
419.584	17.842	806.578	607.334
420.599	17.926	806.150	607.255
421.613	111.114	1295.123	1474.950
422.628	95.867	1366.324	1475.060
