DTS Sentinel unit serial number:	SN413079Multiplexer serial number:	ORYXHardware model number:	OX4-SRSoftware version number:	ORYX F/W v4.00 Oryx Data Collector v3.7.2.0data status	okinstallation	princeton_trtdifferential loss correction	single-endedforward channel	channel 1reverse channel	N/Adate	2019/09/13time	02:18:35forward acquisition time	60.00reverse acquisition time	0.00gamma	496.2192k internal	0.2332k external	0.2332temperature offset calibration	1.0155default loss term (dB/km)	0.3790temperature slope calibration	1.0000multiplexer offset coefficient	1.0000multiplexer slope coefficient	1.0000fibre end	0.00T internal ref (°C)	27.53T ext. ref 1 (°C)	3.91T ext. ref 2 (°C)	22.33length (m)	temperature (°C)	Stokes	anti-Stokes-747.200	-200.000	0.027	0.155
-746.185	188.656	-0.275	0.415
-745.171	800.000	0.094	0.304
-744.156	-120.481	-0.129	0.022
-743.142	61.814	-0.129	-0.129
-742.127	-200.000	-0.005	-0.141
-741.112	465.353	0.040	0.089
-740.098	-78.066	-0.305	-0.106
-739.083	78.916	-0.069	0.074
-738.069	116.677	-0.119	0.146
-737.054	800.000	-0.022	-0.086
-736.039	-133.713	-0.087	-0.011
-735.025	-3.535	0.160	0.112
-734.010	800.000	-0.095	-0.329
-732.996	-199.214	0.157	-0.001
-731.981	18.781	-0.122	-0.098
-730.966	-66.879	0.104	0.041
-729.952	671.026	-0.172	-0.448
-728.937	-54.011	0.124	0.057
-727.923	160.340	0.092	-0.129
-726.908	52.618	0.167	-0.161
-725.894	90.814	0.141	0.159
-724.879	-96.881	-0.096	-0.025
-723.864	800.000	0.043	-0.120
-722.850	-116.975	-0.471	-0.086
-721.835	-200.000	0.021	-0.335
-720.821	-18.735	-0.254	-0.159
-719.806	-200.000	-0.088	-0.541
-718.791	-26.404	-0.139	-0.082
-717.777	-200.000	0.020	-0.463
-716.762	-200.000	0.055	-0.316
-715.748	218.975	-0.155	-0.248
-714.733	312.855	0.040	0.076
-713.718	800.000	0.058	-0.215
-712.704	308.750	0.085	0.159
-711.689	284.072	0.129	-0.234
-710.675	21.306	-0.255	0.208
-709.660	-122.270	-0.181	0.030
-708.645	423.141	-0.052	-0.111
-707.631	-30.452	0.162	-0.093
-706.616	593.825	-0.125	0.311
-705.602	-144.363	-0.055	-0.005
-704.587	-134.318	-0.389	0.048
-703.572	-200.000	0.023	-0.205
-702.558	-27.248	-0.093	0.055
-701.543	-91.391	-0.134	-0.039
-700.529	473.633	0.033	-0.074
-699.514	20.075	-0.056	-0.046
-698.499	17.614	0.275	0.220
-697.485	16.091	-0.373	-0.295
-696.470	23.117	-0.207	-0.170
-695.456	-200.000	-0.063	0.313
-694.441	-0.325	0.098	-0.070
-693.426	-200.000	-0.100	-0.487
-692.412	-112.899	0.212	-0.042
-691.397	115.647	0.120	-0.147
-690.383	118.527	-0.266	-0.330
-689.368	21.325	0.256	-0.209
-688.354	-121.570	-0.271	0.045
-687.339	-108.324	-0.184	-0.040
-686.324	800.000	-0.073	0.284
-685.310	733.769	-0.076	-0.205
-684.295	17.839	-0.109	0.087
-683.281	489.186	-0.052	0.120
-682.266	85.552	-0.046	0.050
-681.251	-141.830	-0.311	-0.031
-680.237	266.892	-0.199	0.349
-679.222	-15.012	0.203	0.131
-678.208	-52.915	-0.284	0.131
-677.193	-20.782	0.228	-0.140
-676.178	-200.000	0.005	-0.059
-675.164	91.646	0.115	0.129
-674.149	110.690	0.069	-0.084
-673.135	-30.072	-0.172	-0.098
-672.120	52.664	0.110	-0.105
-671.105	144.929	0.243	-0.326
-670.091	51.195	-0.057	0.054
-669.076	-200.000	-0.019	-0.099
-668.062	-89.590	-0.150	0.044
-667.047	170.318	0.078	-0.112
-666.032	-98.350	-0.229	-0.059
-665.018	-136.110	-0.164	0.019
-664.003	-50.399	-0.111	0.052
-662.989	20.853	-0.319	0.259
-661.974	-200.000	0.063	-0.293
-660.959	135.975	-0.078	-0.101
-659.945	-136.395	0.109	-0.013
-658.930	-23.707	-0.437	-0.263
-657.916	-112.424	0.156	0.031
-656.901	22.637	0.046	-0.038
-655.886	735.911	-0.102	-0.274
-654.872	-189.577	0.315	-0.004
-653.857	800.000	-0.080	-0.322
-652.843	-200.000	0.002	-0.541
-651.828	396.388	0.129	0.269
-650.814	800.000	-0.030	-0.102
-649.799	-143.726	0.193	-0.018
-648.784	-156.520	-0.332	0.021
-647.770	-113.834	0.448	0.087
-646.755	560.878	-0.052	-0.125
-645.741	80.321	-0.065	0.070
-644.726	265.279	-0.101	0.176
-643.711	378.865	-0.185	-0.379
-642.697	-200.000	0.039	-0.172
-641.682	24.958	0.135	0.113
-640.668	516.163	-0.079	0.186
-639.653	-18.944	0.125	-0.078
-638.638	-151.701	0.146	-0.011
-637.624	-37.765	-0.073	-0.039
-636.609	800.000	0.080	0.318
-635.595	-200.000	0.009	0.307
-634.580	-78.403	0.306	0.105
-633.565	-19.129	0.252	0.157
-632.551	79.191	-0.140	0.150
-631.536	-200.000	0.011	0.222
-630.522	-200.000	0.023	0.146
-629.507	800.000	0.031	0.107
-628.492	800.000	0.142	0.396
-627.478	-101.869	-0.319	-0.077
-626.463	-200.000	-0.037	0.452
-625.449	-157.538	-0.064	-0.004
-624.434	-75.031	0.257	0.092
-623.419	-200.000	0.034	0.215
-622.405	-112.430	0.267	0.053
-621.390	-134.726	0.232	-0.028
-620.376	-64.063	-0.375	-0.153
-619.361	-200.000	-0.064	-0.291
-618.346	-61.054	0.095	0.040
-617.332	-135.924	-0.082	0.010
-616.317	-147.537	0.355	-0.030
-615.303	25.042	-0.139	-0.115
-614.288	800.000	0.065	-0.189
-613.273	-87.527	-0.152	-0.046
-612.259	-29.642	0.206	0.118
-611.244	110.743	-0.275	0.332
-610.230	-77.201	-0.175	0.061
-609.215	-57.352	0.171	0.075
-608.201	-200.000	-0.028	0.152
-607.186	-109.934	0.307	-0.064
-606.171	6.288	-0.214	0.159
-605.157	-147.570	-0.166	0.014
-604.142	207.448	0.156	-0.244
-603.128	-63.617	-0.241	0.099
-602.113	-7.980	0.091	0.061
-601.098	-200.000	-0.008	0.180
-600.084	-200.000	0.019	0.201
-599.069	-24.874	-0.099	0.059
-598.055	38.598	0.192	0.172
-597.040	245.982	-0.011	0.018
-596.025	-71.457	-0.437	-0.164
-595.011	-103.338	-0.122	0.029
-593.996	-151.258	-0.331	0.025
-592.982	57.670	0.341	-0.333
-591.967	-54.671	0.136	0.062
-590.952	176.699	-0.247	-0.360
-589.938	800.000	0.039	-0.120
-588.923	170.453	-0.144	-0.206
-587.909	-106.829	-0.197	0.044
-586.894	-177.418	0.107	-0.003
-585.879	54.180	0.145	-0.140
-584.865	-4.316	-0.158	0.110
-583.850	77.169	0.126	-0.133
-582.836	-51.215	0.051	0.024
-581.821	130.354	-0.114	-0.146
-580.806	-43.194	-0.160	-0.081
-579.792	55.765	-0.066	-0.064
-578.777	-50.759	-0.378	-0.178
-577.763	799.960	0.069	-0.190
-576.748	-141.243	0.096	-0.010
-575.733	-22.561	0.318	-0.192
-574.719	-100.595	0.366	-0.090
-573.704	-56.736	-0.260	-0.115
-572.690	-16.815	-0.341	0.215
-571.675	44.169	0.087	-0.080
-570.661	535.526	0.079	0.187
-569.646	68.998	0.233	-0.239
-568.631	-89.832	0.157	-0.046
-567.617	800.000	0.073	-0.202
-566.602	316.384	0.079	0.149
-565.588	-200.000	0.025	0.412
-564.573	-141.041	-0.127	-0.013
-563.558	800.000	0.041	0.172
-562.544	78.169	0.234	0.249
-561.529	152.346	-0.167	0.228
-560.515	-65.774	-0.120	-0.048
-559.500	-200.000	0.016	0.082
-558.485	-13.830	-0.225	-0.145
-557.471	59.629	0.091	-0.090
-556.456	132.627	0.176	-0.227
-555.442	62.321	-0.192	-0.191
-554.427	307.881	0.107	-0.199
-553.412	800.000	-0.023	0.099
-552.398	-148.217	0.111	-0.009
-551.383	-14.710	-0.071	-0.045
-550.369	800.000	0.080	-0.229
-549.354	800.000	0.069	-0.297
-548.339	-200.000	0.012	-0.060
-547.325	84.557	-0.131	0.144
-546.310	-197.986	0.333	0.002
-545.296	83.195	-0.295	-0.320
-544.281	613.198	0.112	0.280
-543.266	396.921	0.082	0.170
-542.252	-13.080	-0.237	0.154
-541.237	75.799	-0.243	-0.257
-540.223	-200.000	0.026	-0.254
-539.208	564.771	0.090	0.218
-538.193	-200.000	0.030	-0.188
-537.179	-89.138	0.113	0.033
-536.164	-105.143	-0.354	-0.081
-535.150	-196.973	-0.266	-0.002
-534.135	8.775	0.219	-0.165
-533.121	99.964	-0.203	0.235
-532.106	-200.000	0.016	0.084
-531.091	-128.849	0.421	-0.059
-530.077	728.914	-0.055	-0.147
-529.062	-31.642	0.233	-0.130
-528.048	-52.854	-0.348	0.160
-527.033	5.346	0.067	-0.049
-526.018	373.240	-0.206	0.417
-525.004	800.000	0.082	-0.271
-523.989	-62.299	0.281	-0.117
-522.975	-1.612	0.232	0.163
-521.960	462.129	-0.136	-0.304
-520.945	-20.876	0.153	-0.093
-519.931	-99.365	-0.090	0.023
-518.916	-200.000	-0.020	0.128
-517.902	-34.778	0.171	0.093
-516.887	-200.000	0.001	-0.031
-515.872	258.258	0.052	0.089
-514.858	14.710	0.171	-0.133
-513.843	-60.046	0.160	0.068
-512.829	323.453	0.061	-0.117
-511.814	28.910	0.199	0.169
-510.799	588.316	-0.051	0.125
-509.785	-200.000	-0.014	-0.167
-508.770	95.390	0.216	-0.245
-507.756	113.925	-0.139	-0.168
-506.741	-70.047	0.330	-0.125
-505.726	330.394	0.212	-0.407
-504.712	82.486	-0.073	-0.079
-503.697	-54.057	0.342	-0.155
-502.683	15.160	0.157	-0.123
-501.668	-20.114	-0.240	-0.147
-500.653	800.000	-0.063	0.246
-499.639	800.000	0.102	0.318
-498.624	98.796	0.073	0.084
-497.610	-121.163	0.311	0.052
-496.595	-109.263	0.160	0.034
-495.581	436.025	-0.089	0.192
-494.566	-43.539	-0.223	-0.112
-493.551	85.813	-0.011	-0.012
-492.537	211.992	0.048	0.075
-491.522	-200.000	0.013	-0.180
-490.508	-47.274	-0.066	-0.032
-489.493	-200.000	-0.015	-0.075
-488.478	-200.000	-0.008	-0.067
-487.464	125.749	0.112	0.141
-486.449	-5.714	-0.134	-0.092
-485.435	-138.293	0.321	-0.035
-484.420	-108.312	-0.128	-0.027
-483.405	-200.000	0.038	0.227
-482.391	-59.418	-0.146	-0.062
-481.376	-51.204	0.226	-0.105
-480.362	4.349	-0.101	-0.074
-479.347	-200.000	-0.026	-0.169
-478.332	-146.816	0.175	0.015
-477.318	800.000	-0.061	-0.186
-476.303	84.672	-0.338	-0.369
-475.289	-31.445	0.180	0.101
-474.274	-200.000	-0.021	-0.355
-473.259	-200.000	0.087	-0.388
-472.245	433.079	-0.083	0.179
-471.230	-23.561	0.127	-0.076
-470.216	7.378	0.050	-0.038
-469.201	96.279	-0.106	0.120
-468.186	216.625	0.048	-0.077
-467.172	-200.000	-0.017	-0.292
-466.157	-98.895	-0.117	-0.030
-465.143	-1.013	-0.512	0.360
-464.128	-17.120	0.123	-0.077
-463.113	800.000	0.032	-0.108
-462.099	313.420	0.122	0.228
-461.084	59.706	0.212	0.209
-460.070	-65.241	0.282	0.113
-459.055	800.000	-0.015	0.047
-458.040	98.823	-0.319	0.367
-457.026	235.470	0.083	0.136
-456.011	-6.945	0.110	-0.075
-454.997	-162.990	0.140	0.007
-453.982	-3.157	-0.339	0.235
-452.968	-82.500	-0.249	-0.080
-451.953	-121.609	0.101	0.017
-450.938	800.000	-0.051	0.191
-449.924	399.917	0.172	-0.358
-448.909	-96.511	0.148	0.039
-447.895	-6.578	0.224	-0.152
-446.880	-200.000	0.029	0.201
-445.865	-141.905	-0.152	-0.015
-444.851	800.000	0.087	0.298
-443.836	-51.617	-0.200	-0.093
-442.822	800.000	-0.071	-0.256
-441.807	-200.000	-0.001	-0.125
-440.792	-200.000	-0.027	-0.132
-439.778	-200.000	0.007	-0.185
-438.763	-76.387	-0.297	0.104
-437.749	-4.280	0.109	0.075
-436.734	265.147	-0.125	-0.217
-435.719	-55.814	0.292	0.130
-434.705	-200.000	0.011	0.255
-433.690	-122.334	-0.239	-0.039
-432.676	800.000	0.128	-0.401
-431.661	-50.732	0.076	0.035
-430.646	-162.367	0.070	0.003
-429.632	-200.000	-0.027	-0.140
-428.617	800.000	0.054	-0.180
-427.603	1.827	0.049	-0.035
-426.588	-18.529	-0.262	0.162
-425.573	-114.150	-0.152	-0.029
-424.559	302.964	-0.123	0.226
-423.544	-71.626	0.279	0.103
-422.530	-118.203	-0.527	0.093
-421.515	800.000	0.033	-0.107
-420.500	175.836	-0.117	-0.169
-419.486	-28.685	0.292	0.167
-418.471	-154.714	0.276	-0.018
-417.457	-99.382	-0.226	0.057
-416.442	-5.241	0.093	-0.064
-415.428	242.309	0.153	-0.255
-414.413	411.923	-0.058	0.122
-413.398	-200.000	0.049	-0.368
-412.384	-200.000	0.032	-0.232
-411.369	100.526	-0.219	-0.253
-410.355	284.893	-0.132	0.236
-409.340	-146.208	-0.171	-0.015
-408.325	-54.252	-0.106	0.048
-407.311	71.725	0.301	-0.311
-406.296	-76.243	0.343	-0.120
-405.282	-38.973	-0.240	0.125
-404.267	-96.508	0.078	-0.020
-403.252	26.274	-0.035	-0.029
-402.238	4.756	-0.119	-0.087
-401.223	-20.630	-0.178	-0.109
-400.209	-89.907	0.256	0.074
-399.194	734.797	0.077	0.205
-398.179	-123.751	0.255	0.040
-397.165	333.255	-0.072	0.138
-396.150	-158.240	-0.398	0.023
-395.136	-200.000	0.013	0.189
-394.121	-1.456	-0.073	0.051
-393.106	-16.297	-0.081	-0.051
-392.092	139.115	0.078	-0.102
-391.077	448.945	0.089	-0.195
-390.063	585.516	-0.061	0.148
-389.048	-69.588	0.239	0.091
-388.033	800.000	0.059	-0.236
-387.019	-79.757	0.287	0.096
-386.004	193.174	0.220	0.330
-384.990	33.474	0.339	-0.292
-383.975	643.968	-0.023	0.059
-382.960	-200.000	0.036	-0.165
-381.946	132.054	0.118	0.151
-380.931	-79.983	-0.106	-0.035
-379.917	-200.000	-0.011	-0.086
-378.902	-143.852	-0.334	-0.031
-377.888	224.985	0.148	-0.237
-376.873	191.430	-0.080	-0.120
-375.858	71.633	-0.134	0.139
-374.844	-95.107	-0.294	-0.079
-373.829	-9.643	0.361	0.239
-372.815	267.225	-0.107	0.185
-371.800	467.554	-0.001	-0.002
-370.785	219.229	0.186	0.295
-369.771	-193.309	-0.296	0.003
-368.756	-135.608	-0.250	0.029
-367.742	-200.000	0.035	0.318
-366.727	-98.276	0.135	0.034
-365.712	741.267	-0.145	-0.385
-364.698	-200.000	0.012	-0.060
-363.683	215.559	-0.084	0.132
-362.669	172.654	0.121	-0.172
-361.654	-121.338	0.526	-0.087
-360.639	194.105	0.087	0.131
-359.625	-54.290	-0.121	-0.054
-358.610	-200.000	-0.005	0.253
-357.596	-66.675	-0.073	0.029
-356.581	-91.173	-0.145	0.041
-355.566	-107.166	-0.082	0.018
-354.552	-200.000	-0.006	0.185
-353.537	38.478	0.127	0.112
-352.523	31.898	0.323	-0.275
-351.508	-98.720	-0.418	0.106
-350.493	120.908	-0.142	0.175
-349.479	-104.265	-0.156	-0.036
-348.464	800.000	-0.044	-0.133
-347.450	13.894	-0.257	-0.198
-346.435	793.020	-0.083	0.225
-345.420	236.212	-0.063	0.104
-344.406	-43.003	0.195	-0.098
-343.391	-80.156	0.360	0.120
-342.377	-200.000	-0.016	-0.119
-341.362	421.723	0.140	0.298
-340.348	6.625	-0.205	0.151
-339.333	127.474	-0.081	0.101
-338.318	-200.000	-0.005	-0.082
-337.304	36.546	-0.044	-0.038
-336.289	-62.618	-0.145	0.059
-335.275	800.000	0.023	-0.081
-334.260	-68.181	-0.199	0.077
-333.245	-167.487	-0.283	0.011
-332.231	93.090	0.304	-0.341
-331.216	33.950	0.096	-0.083
-330.202	-54.481	0.347	-0.156
-329.187	-36.348	-0.307	-0.164
-328.172	198.534	-0.160	-0.243
-327.158	-17.960	-0.109	0.068
-326.143	-200.000	0.027	-0.237
-325.129	-200.000	-0.037	0.242
-324.114	-149.571	0.495	-0.039
-323.099	-200.000	0.056	0.350
-322.085	-154.828	0.247	-0.016
-321.070	281.860	-0.123	-0.219
-320.056	30.663	-0.159	0.135
-319.041	-124.884	-0.165	-0.025
-318.026	-5.812	-0.211	0.143
-317.012	800.000	0.031	-0.116
-315.997	239.474	-0.157	0.258
-314.983	2.124	0.126	-0.090
-313.968	-200.000	0.064	0.291
-312.953	800.000	-0.077	0.228
-311.939	-137.566	-0.267	0.030
-310.924	11.064	-0.170	0.128
-309.910	-200.000	-0.029	0.230
-308.895	-41.252	0.099	0.051
-307.880	-98.056	-0.064	0.016
-306.866	-57.318	-0.123	0.054
-305.851	-90.704	-0.078	-0.022
-304.837	-147.229	-0.211	0.018
-303.822	8.968	-0.203	-0.151
-302.807	36.565	0.247	-0.216
-301.793	-46.306	-0.266	0.129
-300.778	34.131	0.166	0.143
-299.764	330.606	0.065	-0.124
-298.749	-200.000	0.021	0.103
-297.735	-129.270	-0.039	0.005
-296.720	-142.684	0.365	0.035
-295.705	108.953	0.123	-0.146
-294.691	8.750	-0.212	0.158
-293.676	-51.377	-0.320	-0.148
-292.662	161.166	-0.160	0.221
-291.647	-126.840	-0.345	0.050
-290.632	-200.000	-0.263	-0.001
-289.618	137.420	0.131	-0.169
-288.603	-200.000	-0.003	0.052
-287.589	-47.917	-0.231	-0.110
-286.574	79.379	0.317	-0.336
-285.559	800.000	0.057	-0.226
-284.545	-145.710	-0.186	-0.016
-283.530	-103.620	-0.096	-0.022
-282.516	-200.000	-0.042	-0.319
-281.501	443.270	-0.129	0.279
-280.486	419.552	-0.090	-0.191
-279.472	43.425	-0.380	-0.343
-278.457	-200.000	0.024	-0.400
-277.443	266.885	-0.119	0.205
-276.428	-200.000	0.087	0.000
-275.413	-21.369	0.257	0.155
-274.399	-165.129	0.155	-0.007
-273.384	-135.955	0.315	-0.037
-272.370	-103.661	-0.097	-0.023
-271.355	-200.000	-0.024	0.166
-270.340	-200.000	0.035	0.256
-269.326	44.713	-0.086	0.078
-268.311	800.000	0.013	-0.040
-267.297	48.603	-0.228	0.211
-266.282	326.668	-0.051	-0.096
-265.267	-156.020	-0.628	0.039
-264.253	-84.667	0.200	0.062
-263.238	288.231	0.101	0.181
-262.224	-116.147	0.317	0.058
-261.209	-52.729	-0.132	-0.060
-260.195	29.030	-0.159	-0.133
-259.180	151.033	0.165	0.222
-258.165	-20.486	-0.104	0.063
-257.151	-200.000	-0.007	0.235
-256.136	13.598	0.115	-0.089
-255.122	800.000	0.090	0.340
-254.107	260.109	0.033	-0.057
-253.092	-130.837	-0.267	-0.035
-252.078	800.000	0.025	-0.069
-251.063	800.000	-0.137	0.390
-250.049	-117.767	-0.288	0.051
-249.034	-57.928	-0.292	-0.126
-248.019	40.419	-0.191	-0.169
-247.005	235.134	-0.140	0.228
-245.990	-200.000	0.020	-0.186
-244.976	55.096	-0.175	-0.167
-243.961	-29.370	0.158	-0.089
-242.946	95.427	-0.206	0.232
-241.932	774.890	-0.101	-0.272
-240.917	-31.648	-0.082	0.045
-239.903	800.000	0.018	-0.053
-238.888	700.432	0.157	0.408
-237.873	-13.890	-0.059	0.037
-236.859	621.694	0.047	0.117
-235.844	-38.550	0.280	-0.146
-234.830	2.511	-0.140	-0.100
-233.815	77.309	-0.048	-0.051
-232.800	-200.000	0.069	-0.329
-231.786	-21.524	0.447	0.269
-230.771	-33.978	0.210	-0.114
-229.757	-89.663	-0.113	-0.033
-228.742	-200.000	0.008	0.048
-227.727	-132.708	0.235	-0.030
-226.713	-169.434	-0.241	-0.009
-225.698	-113.274	-0.312	0.061
-224.684	800.000	0.097	0.285
-223.669	-200.000	0.047	-0.206
-222.655	28.942	0.138	-0.116
-221.640	-42.151	0.026	0.013
-220.625	486.915	-0.126	-0.283
-219.611	800.000	0.124	0.360
-218.596	-191.482	-0.186	0.002
-217.582	-47.210	-0.061	0.029
-216.567	800.000	0.069	-0.291
-215.552	103.177	0.079	-0.091
-214.538	351.419	0.135	-0.264
-213.523	800.000	0.036	-0.146
-212.509	-200.000	0.018	-0.123
-211.494	44.702	-0.060	-0.055
-210.479	800.000	0.058	0.162
-209.465	-200.000	-0.012	0.066
-208.450	-87.942	0.232	-0.069
-207.436	-200.000	-0.030	0.144
-206.421	-77.562	-0.352	0.120
-205.406	624.126	-0.016	-0.040
-204.392	78.064	0.178	0.187
-203.377	-22.641	-0.149	0.089
-202.363	-192.085	0.179	0.002
-201.348	-72.314	-0.340	-0.124
-200.333	84.260	0.137	0.148
-199.319	-200.000	-0.020	0.335
-198.304	256.383	0.229	0.387
-197.290	50.131	0.243	-0.226
-196.275	87.733	0.298	0.325
-195.260	-83.025	-0.191	0.061
-194.246	194.812	0.140	-0.209
-193.231	720.498	-0.048	-0.125
-192.217	-94.744	-0.178	-0.048
-191.202	-47.995	0.357	0.170
-190.187	-148.066	-0.350	-0.029
-189.173	800.000	-0.074	0.235
-188.158	426.971	0.038	0.080
-187.144	740.750	0.169	-0.447
-186.129	-33.775	0.142	-0.077
-185.114	-200.000	0.119	0.574
-184.100	45.413	-0.183	-0.166
-183.085	92.774	-0.076	-0.084
-182.071	-76.208	0.370	-0.128
-181.056	-90.844	-0.141	0.040
-180.042	27.681	0.425	0.352
-179.027	329.419	-0.085	0.161
-178.012	-77.317	-0.139	0.048
-176.998	-19.785	-0.137	0.083
-175.983	800.000	0.061	-0.251
-174.969	-200.000	0.048	-0.411
-173.954	-78.099	-0.054	0.018
-172.939	134.145	0.113	-0.144
-171.925	147.201	0.188	0.249
-170.910	-200.000	-0.020	0.122
-169.896	24.441	0.328	-0.267
-168.881	800.000	-0.068	0.248
-167.866	-21.994	-0.130	0.078
-166.852	42.916	0.087	-0.078
-165.837	-46.049	-0.140	0.068
-164.823	167.637	-0.146	0.205
-163.808	143.239	-0.125	-0.164
-162.793	-86.479	-0.142	0.043
-161.779	-134.733	-0.102	0.012
-160.764	135.203	0.212	-0.271
-159.750	-200.000	0.058	-0.558
-158.735	-200.000	-0.004	-0.334
-157.720	313.127	0.074	0.137
-156.706	72.720	0.086	0.088
-155.691	396.366	0.037	-0.077
-154.677	800.000	-0.142	0.554
-153.662	412.533	-0.063	0.131
-152.647	-5.526	-0.103	-0.070
-151.633	-123.264	0.395	0.062
-150.618	800.000	-0.106	0.417
-149.604	800.000	0.053	0.216
-148.589	72.126	0.153	0.157
-147.574	-200.000	0.023	-0.149
-146.560	-24.720	-0.291	-0.170
-145.545	-200.000	0.005	0.076
-144.531	-200.000	0.022	0.274
-143.516	-33.341	0.175	0.095
-142.502	709.661	-0.025	0.066
-141.487	-140.187	0.165	0.017
-140.472	127.567	-0.086	-0.107
-139.458	800.000	-0.057	-0.235
-138.443	138.081	0.065	0.083
-137.429	-81.370	-0.227	-0.073
-136.414	-109.368	-0.320	0.067
-135.399	-200.000	-0.023	-0.155
-134.385	-138.816	-0.270	0.029
-133.370	-200.000	-0.008	0.107
-132.356	800.000	-0.025	0.076
-131.341	529.901	0.122	0.282
-130.326	206.553	-0.080	0.123
-129.312	-140.455	0.250	0.026
-128.297	-130.382	0.301	-0.040
-127.283	-27.045	0.072	0.042
-126.268	-89.429	-0.244	-0.071
-125.253	193.336	0.084	-0.125
-124.239	800.000	-0.098	0.342
-123.224	134.302	-0.113	-0.144
-122.210	-25.219	0.369	-0.215
-121.195	-88.475	-0.068	0.020
-120.180	-135.400	0.192	-0.023
-119.166	-200.000	0.009	0.243
-118.151	-80.474	0.231	0.076
-117.137	-200.000	0.017	0.074
-116.122	119.532	0.169	0.205
-115.107	521.779	0.074	-0.170
-114.093	-94.010	-0.283	-0.076
-113.078	-36.978	0.370	0.195
-112.064	-127.370	0.257	-0.037
-111.049	288.798	0.103	-0.183
-110.034	-200.000	-0.022	-0.211
-109.020	-200.000	0.017	0.101
-108.005	-200.000	0.136	-0.000
-106.991	800.000	-0.054	-0.211
-105.976	175.990	-0.216	0.308
-104.962	800.000	0.064	0.188
-103.947	68.981	-0.046	0.046
-102.932	10.200	-0.241	0.180
-101.918	-58.831	0.207	-0.088
-100.903	-200.000	-0.026	0.163
-99.889	-137.037	-0.135	0.015
-98.874	-25.602	0.139	-0.081
-97.859	-114.403	0.112	0.021
-96.845	104.012	-0.104	-0.120
-95.830	-46.573	0.172	-0.083
-94.816	259.355	0.202	0.342
-93.801	-200.000	-0.037	0.179
-92.786	-48.740	-0.104	0.049
-91.772	41.640	-0.203	0.180
-90.757	-200.000	-0.039	-0.248
-89.743	-129.325	0.302	0.041
-88.728	-121.711	0.146	0.024
-87.713	-56.751	0.372	0.161
-86.699	72.700	0.171	0.175
-85.684	1.842	-0.142	-0.100
-84.670	-200.000	-0.021	0.095
-83.655	800.000	-0.022	0.085
-82.640	-48.125	0.074	-0.035
-81.626	-72.827	0.277	0.100
-80.611	7.227	-0.048	0.035
-79.597	-200.000	0.010	0.135
-78.582	128.925	-0.298	0.373
-77.567	-95.474	0.484	-0.127
-76.553	-200.000	-0.010	-0.190
-75.538	-200.000	-0.008	-0.227
-74.524	82.563	0.194	-0.206
-73.509	-18.897	0.069	0.042
-72.494	-137.571	-0.138	-0.015
-71.480	11.959	0.161	0.122
-70.465	-1.164	0.213	0.148
-69.451	-62.447	0.109	0.044
-68.436	-95.989	0.110	0.029
-67.422	-24.156	0.288	-0.168
-66.407	-52.607	0.164	0.074
-65.392	-200.000	-0.019	-0.173
-64.378	553.175	-0.109	0.257
-63.363	-91.939	-0.206	0.057
-62.349	-109.917	-0.253	-0.052
-61.334	13.136	-1.121	-0.850
-60.319	44.623	0.171	0.154
-59.305	-200.000	-0.291	-1.291
-58.290	293.146	0.838	1.498
-57.276	199.855	1.025	1.541
-56.261	-200.000	114.457	650.849
-55.246	535.747	1522.882	3538.812
-54.232	178.817	2686.305	3845.316
-53.217	109.247	2149.861	2520.123
-52.203	39.048	1596.348	1397.660
-51.188	30.970	1342.749	1126.982
-50.173	28.026	1305.806	1078.592
-49.159	55.234	1362.905	1290.365
-48.144	53.804	1376.888	1294.964
-47.130	31.104	1331.693	1118.329
-46.115	27.553	1314.571	1082.846
-45.100	27.477	1309.283	1078.000
-44.086	27.434	1307.093	1075.900
-43.071	27.392	1304.395	1073.388
-42.057	27.430	1302.626	1072.115
-41.042	27.304	1301.583	1070.473
-40.027	27.354	1299.860	1069.302
-39.013	27.429	1297.772	1067.987
-37.998	27.504	1295.860	1066.808
-36.984	27.530	1294.017	1065.402
-35.969	27.513	1292.307	1063.850
-34.954	27.627	1290.310	1062.833
-33.940	27.584	1289.726	1062.056
-32.925	27.592	1288.286	1060.875
-31.911	27.635	1286.694	1059.772
-30.896	27.656	1285.366	1058.758
-29.881	27.664	1284.041	1057.672
-28.867	27.624	1282.421	1056.061
-27.852	27.557	1280.963	1054.432
-26.838	27.700	1279.572	1054.072
-25.823	27.568	1278.815	1052.643
-24.809	27.516	1277.261	1051.022
-23.794	27.649	1275.604	1050.384
-22.779	27.685	1274.196	1049.391
-21.765	27.632	1272.960	1048.026
-20.750	27.649	1271.954	1047.256
-19.736	27.501	1270.726	1045.354
-18.721	27.565	1269.320	1044.518
-17.706	27.447	1268.418	1043.060
-16.692	27.441	1267.329	1042.091
-15.677	27.471	1266.433	1041.483
-14.663	27.446	1265.207	1040.291
-13.648	27.495	1264.074	1039.596
-12.633	27.510	1263.086	1038.828
-11.619	27.413	1262.467	1037.727
-10.604	27.488	1261.063	1036.959
-9.590	27.477	1260.426	1036.330
-8.575	27.361	1259.533	1034.895
-7.560	27.502	1258.589	1034.879
-6.546	27.421	1258.049	1033.935
-5.531	27.434	1256.692	1032.856
-4.517	27.454	1256.016	1032.371
-3.502	27.505	1254.881	1031.683
-2.487	27.474	1254.475	1031.132
-1.473	27.427	1249.774	1026.962
-0.458	25.938	1234.846	1006.352
0.556	24.172	1218.014	969.311
1.571	20.319	1224.152	952.995
2.586	19.347	1238.701	958.831
3.600	19.179	1227.274	948.979
4.615	14.728	1155.675	870.390
5.629	7.368	1083.538	779.907
6.644	4.089	1065.318	750.851
7.659	3.986	1062.798	748.509
8.673	3.739	1061.754	746.514
9.688	3.846	1060.019	745.745
10.702	4.122	1058.299	745.796
11.717	8.763	1064.824	772.764
12.731	17.055	1076.122	821.174
13.746	21.866	1082.424	849.264
14.761	22.622	1083.166	853.432
15.775	21.940	1081.447	848.701
16.790	21.137	1079.242	843.020
17.804	20.509	1078.007	838.952
18.819	20.193	1077.424	836.900
19.834	20.453	1076.289	837.195
20.848	20.282	1076.534	836.487
21.863	20.161	1075.496	835.023
22.877	19.995	1074.727	833.553
23.892	19.941	1074.042	832.689
24.907	19.816	1073.400	831.519
25.921	19.915	1072.040	830.868
26.936	19.866	1070.935	829.699
27.950	19.869	1069.410	828.461
28.965	19.934	1068.065	827.658
29.980	20.132	1066.757	827.515
30.994	20.196	1066.263	827.366
32.009	20.307	1064.937	826.790
33.023	20.221	1063.372	825.094
34.038	20.132	1062.748	824.114
35.053	19.862	1061.768	821.999
36.067	19.945	1060.922	821.664
37.082	19.894	1060.665	821.152
38.096	20.157	1059.485	821.409
39.111	20.093	1059.362	820.937
40.126	19.929	1057.387	818.558
41.140	19.613	1055.747	815.727
42.155	19.310	1054.868	813.547
43.169	19.413	1053.603	812.985
44.184	19.376	1052.497	811.886
45.199	19.449	1051.560	811.433
46.213	19.664	1051.029	811.961
47.228	19.900	1050.626	812.687
48.242	19.990	1049.200	811.935
49.257	19.953	1048.607	811.230
50.271	20.042	1048.059	811.150
51.286	20.115	1047.152	810.719
52.301	20.059	1045.665	809.232
53.315	19.807	1044.909	807.399
54.330	19.664	1043.441	805.529
55.344	19.701	1042.753	805.097
56.359	19.658	1041.593	803.933
57.374	19.647	1041.193	803.501
58.388	19.493	1039.919	801.731
59.403	19.440	1038.819	800.565
60.417	19.509	1038.246	800.372
61.432	19.310	1038.113	799.276
62.447	19.298	1037.132	798.395
63.461	19.236	1036.014	797.178
64.476	19.237	1035.509	796.724
65.490	19.107	1034.350	795.162
66.505	19.191	1033.774	795.033
67.520	19.230	1033.289	794.772
68.534	19.163	1032.281	793.618
69.549	19.207	1031.421	793.087
70.563	18.989	1030.676	791.442
71.578	18.897	1029.803	790.281
72.593	18.758	1028.917	788.892
73.607	18.731	1028.352	788.265
74.622	18.995	1027.848	789.019
75.636	18.972	1027.037	788.219
76.651	19.063	1026.153	787.889
77.666	19.010	1026.248	787.648
78.680	19.013	1025.368	786.920
79.695	19.202	1024.728	787.224
80.709	19.210	1024.165	786.758
81.724	19.366	1023.502	786.888
82.739	19.457	1023.019	786.864
83.753	20.026	1022.308	788.840
84.768	20.368	1021.486	789.689
85.782	20.476	1021.355	790.012
86.797	20.431	1020.077	788.748
87.812	20.117	1018.999	786.418
88.826	20.101	1018.100	785.583
89.841	20.141	1017.498	785.229
90.855	20.298	1016.687	785.244
91.870	20.359	1016.062	784.972
92.884	20.382	1014.612	783.886
93.899	20.354	1013.851	783.100
94.914	20.424	1013.255	782.887
95.928	20.396	1012.257	781.921
96.943	20.208	1011.210	780.197
97.957	20.033	1010.470	778.768
98.972	20.130	1009.348	778.270
99.987	20.166	1009.029	778.120
101.001	20.396	1007.201	777.670
102.016	20.082	1007.067	776.090
103.030	20.235	1006.034	775.912
104.045	20.214	1004.862	774.844
105.060	19.955	1004.835	773.598
106.074	19.633	1003.198	770.832
107.089	19.522	1001.600	769.043
108.103	19.243	1000.689	767.034
109.118	19.341	999.558	766.536
110.133	19.200	998.159	764.767
111.147	19.303	997.096	764.342
112.162	19.260	997.202	764.164
113.176	19.420	996.921	764.593
114.191	19.500	996.180	764.309
115.206	19.480	995.124	763.344
116.220	19.223	994.688	761.804
117.235	19.225	993.352	760.723
118.249	19.371	992.542	760.680
119.264	19.100	991.798	758.847
120.279	19.129	990.801	758.147
121.293	18.995	990.281	757.091
122.308	18.871	989.162	755.625
123.322	18.904	987.372	754.335
124.337	18.793	986.840	753.375
125.352	19.106	985.210	753.433
126.366	18.847	984.905	752.000
127.381	18.868	983.860	751.225
128.395	18.945	982.981	750.828
129.410	19.067	982.202	750.695
130.424	19.317	981.554	751.227
131.439	19.465	981.077	751.436
132.454	19.344	980.496	750.399
133.468	19.402	979.460	749.793
134.483	19.470	978.628	749.386
135.497	19.513	977.674	748.774
136.512	19.565	977.162	748.542
137.527	19.481	976.257	747.418
138.541	19.466	975.472	746.687
139.556	19.515	975.078	746.532
140.570	19.889	974.022	747.270
141.585	20.062	973.382	747.458
142.600	20.055	972.654	746.803
143.614	20.080	972.090	746.414
144.629	20.325	971.248	746.754
145.643	20.207	970.088	745.288
146.658	19.844	969.201	742.985
147.673	19.729	968.069	741.558
148.687	19.554	967.240	740.107
149.702	19.516	965.931	738.875
150.716	19.468	965.069	737.945
151.731	19.755	964.440	738.627
152.746	19.689	963.741	737.746
153.760	19.634	963.567	737.313
154.775	19.794	962.748	737.300
155.789	19.828	962.322	737.055
156.804	19.685	961.900	736.059
157.819	19.975	960.638	736.258
158.833	20.034	960.666	736.468
159.848	20.351	959.432	736.800
160.862	20.030	958.120	734.369
161.877	19.655	957.161	731.981
162.892	19.540	955.558	730.203
163.906	19.514	954.372	729.123
164.921	19.541	953.920	728.828
165.935	19.602	953.211	728.477
166.950	19.709	952.070	727.994
167.964	19.547	951.404	726.736
168.979	19.566	950.046	725.716
169.994	19.556	949.280	725.022
171.008	19.858	948.748	725.818
172.023	20.000	948.778	726.372
173.037	20.025	947.906	725.746
174.052	19.839	946.938	724.163
175.067	19.480	946.166	722.006
176.081	19.398	944.940	720.664
177.096	19.463	944.171	720.288
178.110	19.439	943.980	719.977
179.125	19.533	943.270	719.763
180.140	19.684	943.101	720.200
181.154	19.814	942.881	720.509
182.169	19.974	942.879	721.111
183.183	20.019	941.869	720.462
184.198	20.011	940.771	719.523
185.213	19.994	940.499	719.184
186.227	20.236	939.580	719.421
187.242	20.180	939.257	718.878
188.256	20.358	938.872	719.256
189.271	20.397	938.023	718.704
190.286	19.929	936.476	715.519
191.300	19.376	935.209	712.207
192.315	19.148	934.754	710.858
193.329	19.321	934.490	711.305
194.344	19.487	933.881	711.463
195.359	19.710	933.044	711.682
196.373	19.938	932.303	711.991
197.388	20.068	932.900	712.919
198.402	20.333	932.460	713.609
199.417	20.460	931.718	713.501
200.432	20.641	931.485	714.001
201.446	20.712	930.733	713.652
202.461	20.821	930.446	713.818
203.475	20.600	929.677	712.260
204.490	20.313	928.429	710.067
205.504	20.123	927.192	708.279
206.519	20.126	926.677	707.837
207.534	20.007	926.044	706.805
208.548	20.113	925.615	706.848
209.563	20.121	924.997	706.346
210.577	20.310	924.194	706.437
211.592	20.481	923.946	706.884
212.607	20.653	922.935	706.746
213.621	20.456	922.450	705.510
214.636	20.481	921.674	704.958
215.650	20.413	921.012	704.114
216.665	20.603	920.691	704.574
217.680	20.650	920.357	704.445
218.694	20.559	919.808	703.594
219.709	20.530	918.425	702.360
220.723	20.413	918.153	701.616
221.738	20.492	917.243	701.177
222.753	20.394	916.750	700.345
223.767	20.673	916.073	700.889
224.782	20.740	915.798	700.883
225.796	20.716	915.400	700.424
226.811	20.628	914.449	699.280
227.826	20.436	913.482	697.704
228.840	20.322	912.940	696.774
229.855	20.282	912.056	695.878
230.869	20.322	911.286	695.388
231.884	20.290	910.700	694.752
232.899	20.019	910.056	693.112
233.913	20.079	909.143	692.595
234.928	19.942	908.376	691.405
235.942	19.995	907.758	691.085
236.957	19.850	907.371	690.148
237.972	19.881	906.917	689.866
238.986	20.053	905.977	689.774
240.001	20.075	905.590	689.509
241.015	20.139	904.958	689.220
242.030	20.341	904.472	689.592
243.045	20.273	904.504	689.284
244.059	20.368	903.582	688.896
245.074	20.399	902.947	688.478
246.088	20.611	902.044	688.566
247.103	20.673	902.254	688.912
248.117	20.737	902.228	689.082
249.132	21.251	901.609	690.584
250.147	21.531	901.100	691.238
251.161	21.708	900.293	691.257
252.176	21.553	900.100	690.434
253.190	21.731	899.277	690.443
254.205	21.628	898.965	689.736
255.220	21.443	898.337	688.467
256.234	21.429	897.353	687.595
257.249	21.619	896.381	687.538
258.263	21.473	895.818	686.472
259.278	21.400	895.275	685.707
260.293	21.488	894.973	685.761
261.307	21.562	894.519	685.642
262.322	21.513	894.119	685.085
263.336	21.637	893.069	684.703
264.351	21.701	891.763	683.893
265.366	21.587	891.560	683.229
266.380	21.637	891.020	682.950
267.395	21.693	889.888	682.242
268.409	21.327	889.499	680.455
269.424	21.385	888.650	679.974
270.439	21.381	887.611	679.101
271.453	21.269	886.857	678.031
272.468	21.160	886.367	677.173
273.482	21.176	886.234	677.075
274.497	21.124	885.757	676.447
275.512	21.183	885.067	676.088
276.526	21.119	884.830	675.602
277.541	21.410	883.909	675.965
278.555	21.487	883.952	676.234
279.570	21.758	883.364	676.772
280.585	21.608	882.564	675.522
281.599	21.448	881.260	673.844
282.614	21.048	880.675	671.799
283.628	21.217	880.074	671.932
284.643	21.266	879.547	671.657
285.657	21.289	878.578	670.946
286.672	21.302	878.253	670.688
287.687	21.276	877.590	670.023
288.701	21.361	877.139	669.945
289.716	21.314	876.759	669.417
290.730	21.298	876.083	668.777
291.745	21.384	874.863	668.117
292.760	21.637	874.395	668.666
293.774	21.932	874.379	669.720
294.789	21.779	873.436	668.355
295.803	21.516	872.676	666.716
296.818	21.394	872.009	665.680
297.833	21.271	871.398	664.687
298.847	21.402	870.786	664.659
299.862	21.504	870.289	664.609
300.876	21.706	869.876	665.004
301.891	21.835	869.479	665.127
302.906	21.944	869.231	665.295
303.920	22.137	869.055	665.832
304.935	22.160	868.522	665.450
305.949	22.014	867.628	664.155
306.964	21.980	866.434	663.055
307.979	21.819	866.336	662.312
308.993	21.843	866.185	662.230
310.008	22.045	865.431	662.358
311.022	21.759	864.601	660.584
312.037	21.555	863.753	659.112
313.052	21.401	862.805	657.750
314.066	21.185	862.452	656.608
315.081	21.254	861.799	656.313
316.095	21.379	861.192	656.264
317.110	21.277	861.025	655.696
318.125	21.191	860.340	654.790
319.139	21.308	859.387	654.446
320.154	21.283	859.227	654.173
321.168	21.440	858.450	654.112
322.183	21.628	857.906	654.342
323.197	21.474	857.698	653.550
324.212	21.490	857.164	653.143
325.227	21.468	856.746	652.685
326.241	21.359	855.967	651.628
327.256	21.296	855.311	650.836
328.270	21.412	854.546	650.631
329.285	21.352	854.230	650.108
330.300	21.304	853.516	649.330
331.314	21.501	853.220	649.779
332.329	21.558	853.122	649.856
333.343	21.732	852.757	650.169
334.358	21.823	852.166	649.995
335.373	21.739	852.109	649.585
336.387	22.003	851.594	650.112
337.402	22.220	851.174	650.538
338.416	22.168	851.249	650.345
339.431	22.284	851.060	650.571
340.446	22.368	850.598	650.472
341.460	22.389	849.892	649.951
342.475	22.591	849.446	650.296
343.489	22.635	849.386	650.354
344.504	22.604	848.930	649.837
345.519	22.704	848.580	649.877
346.533	22.669	847.458	648.833
347.548	22.157	846.933	646.492
348.562	21.990	846.105	645.187
349.577	21.937	845.298	644.321
350.592	21.803	844.746	643.352
351.606	21.693	844.142	642.430
352.621	21.944	843.190	642.568
353.635	21.984	842.600	642.209
354.650	21.979	841.946	641.636
355.665	22.060	841.328	641.404
356.679	22.167	841.064	641.535
357.694	22.260	840.178	641.143
358.708	22.076	839.659	640.017
359.723	22.194	839.185	640.032
360.738	22.287	838.467	639.765
361.752	22.357	837.939	639.559
362.767	22.464	837.490	639.547
363.781	22.648	837.408	640.099
364.796	22.775	836.891	640.106
365.810	23.059	836.771	640.988
366.825	22.795	836.750	639.957
367.840	22.830	835.534	639.098
368.854	22.680	834.931	638.037
369.869	22.517	834.558	637.105
370.883	22.644	834.217	637.250
371.898	22.883	833.773	637.716
372.913	22.993	833.289	637.688
373.927	22.816	832.599	636.463
374.942	22.667	832.185	635.554
375.956	22.835	832.039	635.993
376.971	23.034	831.437	636.190
377.986	23.032	831.362	636.072
379.000	23.087	830.707	635.710
380.015	22.988	830.119	634.849
381.029	23.040	829.633	634.609
382.044	23.018	828.958	633.955
383.059	23.058	828.450	633.654
384.073	22.933	827.309	632.279
385.088	22.650	826.530	630.617
386.102	22.552	825.954	629.771
387.117	22.430	825.368	628.834
388.132	22.361	825.430	628.576
389.146	22.650	824.176	628.597
390.161	22.801	824.397	629.248
391.175	23.014	823.730	629.442
392.190	22.693	823.457	628.036
393.205	22.451	822.868	626.671
394.219	22.411	822.037	625.838
395.234	22.505	821.233	625.505
396.248	22.213	820.979	624.220
397.263	22.230	820.777	624.071
398.278	22.200	820.358	623.592
399.292	22.171	819.895	623.081
400.307	22.258	819.256	622.850
401.321	22.152	818.953	622.188
402.336	22.386	818.395	622.538
403.350	22.637	818.196	623.217
404.365	22.861	818.040	623.835
405.380	23.153	817.491	624.392
406.394	23.142	817.080	623.985
407.409	23.280	816.590	624.041
408.423	23.300	816.401	623.913
409.438	23.224	816.034	623.307
410.453	23.326	815.568	623.254
411.467	23.416	815.097	623.158
412.482	23.526	814.978	623.400
413.496	23.496	814.755	623.065
414.511	23.415	814.069	622.203
415.526	23.396	813.453	621.609
416.540	23.294	812.916	620.786
417.555	23.313	812.738	620.664
418.569	23.373	812.054	620.297
419.584	23.469	811.531	620.178
420.599	23.513	810.944	619.829
421.613	164.730	1372.727	1799.289
422.628	143.480	1454.585	1799.351
