DTS Sentinel unit serial number:	SN413079Multiplexer serial number:	ORYXHardware model number:	OX4-SRSoftware version number:	ORYX F/W v4.00 Oryx Data Collector v3.7.2.0data status	okinstallation	princeton_trtdifferential loss correction	single-endedforward channel	channel 1reverse channel	N/Adate	2019/09/10time	21:28:11forward acquisition time	60.00reverse acquisition time	0.00gamma	496.2192k internal	0.2330k external	0.2330temperature offset calibration	0.9937default loss term (dB/km)	0.3790temperature slope calibration	1.0000multiplexer offset coefficient	1.0000multiplexer slope coefficient	1.0000fibre end	0.00T internal ref (°C)	31.19T ext. ref 1 (°C)	-0.31T ext. ref 2 (°C)	24.39length (m)	temperature (°C)	Stokes	anti-Stokes-747.200	-51.813	-0.069	-0.033
-746.185	800.000	0.073	0.285
-745.171	335.629	0.106	0.208
-744.156	298.729	-0.224	0.415
-743.142	-178.844	-0.089	0.002
-742.127	22.187	0.113	0.093
-741.112	81.571	-0.285	0.311
-740.098	-200.000	0.004	-0.096
-739.083	35.946	-0.269	-0.238
-738.069	16.760	-0.318	0.254
-737.054	18.857	-0.064	0.051
-736.039	800.000	0.087	-0.285
-735.025	208.251	0.214	0.337
-734.010	210.694	-0.192	0.304
-732.996	420.627	-0.073	-0.157
-731.981	-120.670	-0.141	-0.024
-730.966	552.076	-0.145	-0.350
-729.952	-168.280	-0.429	-0.017
-728.937	-112.507	0.044	-0.009
-727.923	378.260	-0.107	-0.220
-726.908	-78.144	-0.407	-0.141
-725.894	-57.781	-0.130	0.057
-724.879	-145.465	0.203	0.018
-723.864	-108.525	-0.238	-0.052
-722.850	-101.566	-0.412	0.101
-721.835	267.552	0.061	-0.108
-720.821	-200.000	0.005	0.047
-719.806	279.429	0.049	-0.087
-718.791	-108.047	-0.239	-0.052
-717.777	187.136	-0.200	-0.301
-716.762	-47.655	-0.127	0.062
-715.748	-73.309	-0.138	-0.051
-714.733	-36.322	0.272	-0.147
-713.718	-200.000	0.037	-0.415
-712.704	113.543	-0.174	-0.212
-711.689	-200.000	0.063	-0.276
-710.675	-134.872	-0.071	-0.009
-709.660	800.000	-0.023	-0.068
-708.645	319.700	-0.141	0.270
-707.631	-113.289	0.338	-0.067
-706.616	-177.395	0.190	0.005
-705.602	182.583	-0.014	0.021
-704.587	-10.399	-0.092	0.061
-703.572	-37.016	-0.296	-0.160
-702.558	-200.000	0.015	0.231
-701.543	108.549	-0.174	-0.208
-700.529	-200.000	0.016	-0.150
-699.514	-68.997	0.160	-0.062
-698.499	103.197	-0.179	-0.211
-697.485	-37.697	-0.316	0.169
-696.470	87.405	-0.165	-0.184
-695.456	-200.000	-0.045	0.222
-694.441	-200.000	-0.006	0.181
-693.426	-20.664	-0.239	0.148
-692.412	-59.137	-0.202	-0.087
-691.397	-74.944	0.211	-0.076
-690.383	-39.230	-0.438	-0.231
-689.368	-200.000	-0.013	-0.297
-688.354	414.617	0.091	-0.195
-687.339	-200.000	-0.008	0.370
-686.324	293.201	-0.077	-0.140
-685.310	179.239	-0.121	0.178
-684.295	-34.105	0.160	-0.088
-683.281	183.283	0.134	-0.198
-682.266	-12.417	-0.254	-0.167
-681.251	-58.531	0.025	0.011
-680.237	12.882	0.194	0.150
-679.222	-116.896	0.096	-0.018
-678.208	149.493	-0.205	0.278
-677.193	800.000	-0.090	-0.331
-676.178	368.591	0.071	-0.145
-675.164	-75.499	-0.134	-0.048
-674.149	-43.652	-0.243	0.123
-673.135	-19.857	-0.047	0.029
-672.120	202.185	0.238	0.368
-671.105	-200.000	0.035	0.524
-670.091	-138.575	-0.094	0.010
-669.076	555.980	-0.046	-0.112
-668.062	-190.878	-0.263	0.003
-667.047	-160.094	0.115	-0.006
-666.032	30.233	-0.071	0.061
-665.018	-200.000	0.013	0.371
-664.003	353.364	-0.108	0.215
-662.989	-200.000	-0.004	-0.060
-661.974	243.436	0.158	0.266
-660.959	-163.271	0.126	0.006
-659.945	800.000	-0.040	-0.132
-658.930	-54.882	0.267	-0.121
-657.916	-135.007	-0.292	-0.035
-656.901	-200.000	0.010	-0.238
-655.886	-161.607	0.119	-0.006
-654.872	51.443	-0.371	-0.354
-653.857	-5.066	-0.259	-0.179
-652.843	-100.721	0.202	-0.050
-651.828	85.240	-0.144	0.159
-650.814	-13.191	-0.092	-0.060
-649.799	64.422	-0.166	0.167
-648.784	-145.890	-0.362	0.032
-647.770	-59.005	0.422	0.183
-646.755	-39.318	0.168	0.089
-645.741	-200.000	-0.022	-0.261
-644.726	582.213	-0.104	0.255
-643.711	-129.205	0.130	-0.018
-642.697	-200.000	0.010	-0.112
-641.682	800.000	-0.048	-0.199
-640.668	-200.000	0.018	0.141
-639.653	40.662	-0.244	0.221
-638.638	-67.359	-0.271	-0.107
-637.624	333.365	-0.061	-0.118
-636.609	734.917	0.086	-0.231
-635.595	24.450	-0.098	0.082
-634.580	-52.912	-0.316	0.146
-633.565	29.922	0.100	0.085
-632.551	357.519	-0.163	-0.326
-631.536	-90.621	0.337	0.098
-630.522	-103.467	0.180	-0.042
-629.507	-156.427	0.118	0.007
-628.492	-9.907	0.258	0.172
-627.478	-18.932	-0.263	-0.164
-626.463	-175.490	0.207	-0.006
-625.449	-51.889	0.228	-0.106
-624.434	800.000	-0.022	0.097
-623.419	-200.000	-0.001	-0.116
-622.405	-200.000	-0.013	-0.093
-621.390	-200.000	0.011	0.058
-620.376	-134.492	0.206	-0.025
-619.361	-200.000	-0.026	-0.121
-618.346	800.000	0.095	-0.351
-617.332	-34.763	0.108	0.059
-616.317	446.417	-0.117	-0.258
-615.303	410.108	0.082	-0.173
-614.288	275.743	-0.094	0.166
-613.273	134.795	-0.287	0.373
-612.259	-9.069	-0.181	0.121
-611.244	305.493	0.192	0.358
-610.230	617.135	0.095	-0.239
-609.215	686.341	-0.062	-0.163
-608.201	-152.671	0.268	0.019
-607.186	64.876	-0.188	0.190
-606.171	240.740	-0.197	0.329
-605.157	-153.828	-0.222	-0.015
-604.142	49.971	0.072	-0.068
-603.128	18.360	-0.060	-0.048
-602.113	-200.000	-0.007	-0.151
-601.098	-44.095	0.381	0.192
-600.084	474.751	0.123	-0.277
-599.069	36.903	0.095	-0.084
-598.055	-83.415	-0.190	-0.061
-597.040	-108.817	-0.174	-0.037
-596.025	-27.516	-0.068	0.040
-595.011	127.510	-0.268	0.340
-593.996	-5.988	-0.176	0.120
-592.982	-65.176	0.068	0.027
-591.967	39.180	-0.146	-0.131
-590.952	-153.676	0.187	0.013
-589.938	56.475	0.277	-0.269
-588.923	-200.000	0.022	0.106
-587.909	-145.399	0.109	0.010
-586.894	800.000	0.065	0.236
-585.879	-169.811	0.306	-0.011
-584.865	-38.531	0.309	-0.163
-583.850	-200.000	0.029	-0.222
-582.836	-200.000	-0.002	-0.110
-581.821	-200.000	-0.038	-0.226
-580.806	48.245	-0.082	-0.077
-579.792	-70.539	-0.229	-0.087
-578.777	-46.305	-0.230	0.113
-577.763	-106.125	0.103	0.023
-576.748	-200.000	-0.070	-0.392
-575.733	-200.000	0.016	-0.176
-574.719	-200.000	0.045	0.258
-573.704	-82.886	-0.108	-0.035
-572.690	320.176	0.148	0.281
-571.675	205.657	0.145	-0.225
-570.661	-133.541	-0.218	0.027
-569.646	144.238	0.194	0.258
-568.631	261.292	0.086	0.149
-567.617	656.523	0.141	0.363
-566.602	800.000	0.082	0.345
-565.588	-9.687	-0.157	0.104
-564.573	41.794	-0.124	0.112
-563.558	749.310	-0.065	-0.174
-562.544	-200.000	0.010	-0.071
-561.529	-14.956	-0.197	-0.126
-560.515	-47.057	-0.222	-0.108
-559.500	94.727	-0.238	-0.270
-558.485	44.612	0.190	-0.175
-557.471	-143.373	0.455	0.044
-556.456	-200.000	0.011	0.131
-555.442	-60.660	0.250	-0.106
-554.427	-200.000	-0.009	-0.423
-553.412	-84.528	0.143	-0.045
-552.398	-67.773	0.114	0.045
-551.383	103.763	0.152	0.179
-550.369	-105.449	-0.054	-0.012
-549.354	-14.713	0.239	-0.153
-548.339	194.066	0.102	-0.154
-547.325	176.704	-0.169	0.246
-546.310	-89.141	0.129	-0.038
-545.296	46.773	-0.220	0.204
-544.281	-200.000	0.016	-0.139
-543.266	652.294	0.053	0.135
-542.252	109.622	-0.163	0.195
-541.237	-113.108	-0.157	0.031
-540.223	-200.000	0.000	-0.011
-539.208	150.719	0.158	0.214
-538.193	-39.257	-0.266	-0.140
-537.179	245.108	0.093	0.157
-536.164	-200.000	0.004	0.062
-535.150	-35.767	0.269	0.146
-534.135	-153.694	-0.135	-0.009
-533.121	-111.499	-0.153	-0.031
-532.106	800.000	-0.043	-0.152
-531.091	-160.640	0.352	-0.019
-530.077	-67.568	0.161	0.063
-529.062	-17.963	-0.108	0.068
-528.048	-200.000	0.043	-0.385
-527.033	-19.307	0.110	-0.068
-526.018	93.966	-0.093	0.106
-525.004	3.136	0.138	0.100
-523.989	153.271	-0.098	0.134
-522.975	-200.000	0.051	0.492
-521.960	800.000	-0.147	0.505
-520.945	-64.192	0.080	-0.032
-519.931	-200.000	-0.026	-0.294
-518.916	-33.566	-0.091	0.050
-517.902	20.618	0.076	0.061
-516.887	237.926	-0.120	0.199
-515.872	-51.810	0.275	0.128
-514.858	-178.236	-0.381	-0.009
-513.843	-189.782	0.069	-0.001
-512.829	-200.000	0.057	0.320
-511.814	72.743	-0.118	0.123
-510.799	-87.249	-0.045	0.014
-509.785	-107.078	0.510	-0.112
-508.770	-200.000	-0.384	-0.002
-507.756	149.535	-0.176	-0.237
-506.741	-5.870	-0.177	0.121
-505.726	-42.416	0.322	-0.164
-504.712	493.952	-0.117	0.267
-503.697	800.000	-0.065	-0.188
-502.683	29.954	-0.063	-0.054
-501.668	480.425	0.023	0.052
-500.653	151.567	-0.176	0.239
-499.639	318.484	-0.143	0.270
-498.624	133.221	0.235	0.303
-497.610	-134.736	-0.245	0.030
-496.595	-78.546	0.165	-0.056
-495.581	-41.806	-0.082	0.042
-494.566	-44.902	0.027	0.013
-493.551	243.670	-0.244	-0.408
-492.537	3.837	-0.330	0.240
-491.522	-108.024	-0.297	-0.064
-490.508	32.689	-0.364	-0.314
-489.493	-200.000	-0.031	0.267
-488.478	-200.000	-0.021	0.325
-487.464	-16.744	0.129	-0.081
-486.449	-200.000	-0.125	0.653
-485.435	96.412	0.264	0.301
-484.420	-200.000	-0.015	0.163
-483.405	-28.470	0.207	0.119
-482.391	44.429	-0.081	-0.074
-481.376	-140.286	-0.140	-0.015
-480.362	289.550	-0.080	0.144
-479.347	-65.830	-0.229	0.091
-478.332	-123.731	-0.272	0.043
-477.318	81.094	0.058	0.062
-476.303	-126.930	0.277	0.041
-475.289	251.955	0.103	0.175
-474.274	-171.499	-0.323	-0.011
-473.259	95.530	0.133	0.152
-472.245	-26.624	-0.159	-0.093
-471.230	-107.878	-0.389	-0.084
-470.216	-100.426	-0.246	0.061
-469.201	-200.000	-0.010	-0.271
-468.186	456.783	-0.046	0.102
-467.172	-72.570	0.462	0.170
-466.157	-88.102	-0.251	0.075
-465.143	476.670	-0.098	0.221
-464.128	-130.117	-0.173	0.023
-463.113	-36.698	0.331	-0.177
-462.099	32.129	-0.114	0.098
-461.084	-58.445	-0.272	0.117
-460.070	168.674	0.122	-0.173
-459.055	290.738	-0.149	-0.270
-458.040	708.043	-0.091	-0.238
-457.026	115.830	-0.047	-0.058
-456.011	385.455	-0.019	0.039
-454.997	-111.975	0.091	-0.018
-453.982	255.500	-0.046	0.078
-452.968	10.930	0.355	0.270
-451.953	-200.000	-0.004	-0.137
-450.938	800.000	0.049	-0.210
-449.924	-49.363	0.156	-0.074
-448.909	51.934	-0.129	-0.122
-447.895	-107.970	0.435	0.094
-446.880	800.000	0.093	-0.342
-445.865	-5.497	0.311	-0.212
-444.851	41.325	-0.130	-0.117
-443.836	-122.715	0.368	-0.059
-442.822	-200.000	-0.024	-0.314
-441.807	-9.794	-0.200	-0.133
-440.792	148.947	0.061	0.082
-439.778	162.722	0.128	0.178
-438.763	96.947	0.145	0.166
-437.749	-96.773	0.262	0.069
-436.734	-67.960	0.365	0.142
-435.719	-84.713	-0.062	0.019
-434.705	50.654	-0.376	0.354
-433.690	800.000	0.059	-0.227
-432.676	-200.000	0.035	0.228
-431.661	-200.000	-0.034	-0.198
-430.646	-200.000	0.001	0.284
-429.632	28.474	-0.039	0.033
-428.617	-158.749	0.309	-0.018
-427.603	545.375	-0.176	-0.418
-426.588	800.000	0.028	0.090
-425.573	-126.685	-0.026	0.004
-424.559	800.000	0.200	-0.657
-423.544	-134.438	-0.102	0.012
-422.530	-158.791	0.130	0.007
-421.515	-200.000	-0.002	-0.051
-420.500	53.922	-0.235	-0.225
-419.486	-22.018	0.179	-0.108
-418.471	154.897	0.031	0.043
-417.457	154.070	-0.059	-0.081
-416.442	-200.000	0.031	0.180
-415.428	89.097	-0.148	0.164
-414.413	800.000	-0.113	0.391
-413.398	235.644	0.143	-0.235
-412.384	-88.596	-0.257	0.076
-411.369	-39.912	-0.052	-0.027
-410.355	-100.876	-0.240	-0.059
-409.340	800.000	0.030	0.096
-408.325	-96.559	-0.058	0.015
-407.311	159.481	0.290	0.401
-406.296	-200.000	-0.043	0.349
-405.282	-200.000	-0.013	-0.117
-404.267	192.331	-0.086	0.129
-403.252	119.522	0.244	0.300
-402.238	40.345	-0.206	0.184
-401.223	442.779	0.157	-0.341
-400.209	358.449	0.040	-0.078
-399.194	125.128	-0.124	0.156
-398.179	104.751	-0.150	0.175
-397.165	-144.652	-0.169	-0.015
-396.150	-81.004	0.217	0.071
-395.136	-94.358	0.153	0.042
-394.121	-20.863	0.137	-0.084
-393.106	259.623	0.076	-0.130
-392.092	741.992	0.080	-0.213
-391.077	24.996	-0.233	0.192
-390.063	-66.557	0.424	0.167
-389.048	73.711	-0.127	0.133
-388.033	-112.906	0.247	-0.049
-387.019	-200.000	0.066	0.302
-386.004	27.332	0.096	0.080
-384.990	-81.905	-0.264	0.086
-383.975	-200.000	-0.021	0.179
-382.960	223.546	0.080	0.128
-381.946	92.490	0.236	-0.264
-380.931	108.161	0.118	-0.140
-379.917	25.936	0.246	-0.203
-378.902	-200.000	-0.009	-0.091
-377.888	-76.352	-0.105	-0.037
-376.873	-7.045	-0.344	0.232
-375.858	-200.000	0.021	0.266
-374.844	58.982	-0.318	0.310
-373.829	-200.000	0.021	0.118
-372.815	-75.580	0.216	0.076
-371.800	-126.425	-0.252	0.037
-370.785	-33.737	0.358	-0.196
-369.771	-200.000	-0.044	-0.309
-368.756	234.705	-0.136	-0.223
-367.742	34.180	0.166	0.143
-366.727	174.502	0.065	-0.093
-365.712	-200.000	0.019	-0.143
-364.698	-62.772	0.145	-0.060
-363.683	-89.000	-0.342	-0.100
-362.669	183.994	0.042	0.061
-361.654	800.000	0.068	-0.210
-360.639	-46.799	0.206	-0.100
-359.625	-200.000	0.007	-0.135
-358.610	-17.601	-0.093	0.058
-357.596	-200.000	0.016	-0.342
-356.581	374.090	0.095	0.192
-355.566	800.000	-0.047	0.199
-354.552	-159.149	-0.388	-0.022
-353.537	-25.380	-0.269	0.158
-352.523	-44.060	-0.161	0.080
-351.508	663.978	-0.042	-0.107
-350.493	-200.000	-0.019	-0.321
-349.479	-77.457	0.210	-0.072
-348.464	-200.000	-0.014	-0.153
-347.450	361.300	-0.124	0.247
-346.435	-200.000	0.053	-0.474
-345.420	-151.497	0.430	0.032
-344.406	125.355	-0.214	0.268
-343.391	-79.356	-0.379	-0.127
-342.377	464.675	0.090	0.201
-341.362	69.373	-0.237	0.242
-340.348	289.160	0.106	-0.190
-339.333	-112.101	0.401	0.080
-338.318	-99.755	-0.178	0.044
-337.304	-36.869	-0.272	-0.144
-336.289	-200.000	0.033	-0.283
-335.275	111.248	-0.157	0.187
-334.260	-53.892	-0.325	-0.147
-333.245	800.000	0.044	-0.187
-332.231	102.759	0.178	-0.206
-331.216	82.739	0.070	-0.075
-330.202	276.376	-0.035	-0.061
-329.187	124.282	0.116	-0.144
-328.172	340.444	0.179	0.346
-327.158	-200.000	0.009	0.200
-326.143	679.987	0.079	-0.203
-325.129	-55.301	0.095	-0.042
-324.114	-31.084	0.188	0.105
-323.099	-43.125	-0.105	0.053
-322.085	31.371	0.254	-0.216
-321.070	37.244	-0.228	-0.200
-320.056	-30.321	-0.201	0.113
-319.041	-172.602	-0.097	-0.003
-318.026	442.670	-0.045	0.097
-317.012	326.519	-0.046	0.087
-315.997	-9.892	-0.373	0.246
-314.983	-200.000	-0.031	0.227
-313.968	121.508	-0.174	0.215
-312.953	-143.984	-0.470	-0.044
-311.939	543.393	0.180	-0.424
-310.924	-84.978	0.103	-0.032
-309.910	249.685	-0.100	-0.168
-308.895	-4.263	-0.243	-0.166
-307.880	-152.808	-0.366	-0.026
-306.866	-46.994	-0.166	-0.080
-305.851	109.972	0.161	0.192
-304.837	-200.000	0.025	0.221
-303.822	-200.000	-0.398	-0.002
-302.807	236.941	0.145	0.237
-301.793	800.000	-0.079	-0.242
-300.778	94.112	0.176	0.198
-299.764	-19.386	-0.190	0.116
-298.749	-200.000	0.021	-0.352
-297.735	-39.487	-0.055	0.029
-296.720	3.752	0.073	0.052
-295.705	-48.005	0.240	-0.115
-294.691	-200.000	-0.011	-0.246
-293.676	53.857	0.144	-0.137
-292.662	-5.100	-0.118	0.080
-291.647	-106.541	0.322	-0.071
-290.632	-130.983	-0.067	-0.009
-289.618	-118.647	-0.248	-0.043
-288.603	146.397	0.039	-0.052
-287.589	-15.029	0.131	0.083
-286.574	5.007	-0.291	-0.212
-285.559	-200.000	0.037	0.220
-284.545	58.828	0.088	0.085
-283.530	-200.000	-0.015	-0.298
-282.516	-148.033	-0.356	0.029
-281.501	-120.940	-0.247	-0.041
-280.486	146.071	-0.078	0.104
-279.472	476.436	-0.058	0.130
-278.457	323.549	-0.116	-0.219
-277.443	501.906	-0.059	0.134
-276.428	39.978	0.129	-0.114
-275.413	116.174	-0.058	0.070
-274.399	273.905	-0.096	0.168
-273.384	-150.033	0.083	-0.006
-272.370	23.312	-0.166	0.135
-271.355	35.669	-0.053	-0.046
-270.340	-200.000	-0.015	-0.195
-269.326	195.565	0.041	-0.062
-268.311	604.016	-0.110	-0.272
-267.297	-51.549	-0.071	-0.033
-266.282	-50.639	-0.462	-0.215
-265.267	-41.727	-0.306	-0.155
-264.253	437.954	-0.093	0.201
-263.238	-200.000	0.012	0.211
-262.224	-89.699	-0.015	-0.004
-261.209	166.762	-0.116	0.163
-260.195	-200.000	0.003	-0.104
-259.180	-200.000	0.007	0.187
-258.165	82.606	0.163	-0.175
-257.151	-154.293	0.239	-0.016
-256.136	38.323	0.176	-0.155
-255.122	-200.000	0.077	0.334
-254.107	-200.000	-0.041	0.341
-253.092	-123.552	0.192	0.030
-252.078	192.942	-0.036	-0.053
-251.063	800.000	0.053	-0.207
-250.049	-200.000	-0.005	-0.025
-249.034	-30.685	-0.230	0.129
-248.019	-108.963	0.159	0.034
-247.005	298.779	0.175	-0.319
-245.990	-27.539	-0.363	-0.208
-244.976	-49.676	0.223	0.105
-243.961	-200.000	0.006	0.102
-242.946	94.656	-0.207	-0.233
-241.932	200.201	0.135	-0.205
-240.917	-46.175	0.147	-0.071
-239.903	99.873	0.400	-0.457
-238.888	33.759	0.184	-0.158
-237.873	-4.912	-0.134	0.091
-236.859	554.854	-0.035	-0.084
-235.844	800.000	0.084	0.295
-234.830	129.040	0.198	0.250
-233.815	-200.000	0.032	-0.181
-232.800	-72.331	0.264	-0.097
-231.786	-79.301	-0.260	0.087
-230.771	140.988	-0.144	-0.188
-229.757	485.208	0.085	0.190
-228.742	312.985	0.085	0.157
-227.727	-149.309	0.185	0.015
-226.713	126.671	-0.101	0.126
-225.698	-8.360	0.224	-0.149
-224.684	-154.908	0.089	-0.006
-223.669	31.327	-0.149	0.126
-222.655	446.970	0.029	-0.063
-221.640	345.344	-0.143	0.277
-220.625	-88.024	0.090	0.027
-219.611	-34.570	0.066	-0.035
-218.596	-200.000	0.019	-0.205
-217.582	-15.803	0.318	-0.200
-216.567	26.407	0.106	0.087
-215.552	-200.000	-0.026	-0.246
-214.538	-158.570	0.015	0.001
-213.523	-200.000	0.081	0.370
-212.509	-89.389	0.179	-0.052
-211.494	-160.463	-0.255	0.013
-210.479	18.899	0.183	-0.145
-209.465	-200.000	0.009	-0.062
-208.450	-49.044	-0.395	0.187
-207.436	-58.819	0.094	-0.040
-206.421	-93.166	0.108	0.030
-205.406	-160.892	0.395	-0.021
-204.392	-115.956	0.402	-0.074
-203.377	-200.000	0.007	-0.121
-202.363	-200.000	-0.017	0.211
-201.348	800.000	-0.013	0.039
-200.333	800.000	-0.050	-0.160
-199.319	470.018	0.110	-0.243
-198.304	75.069	0.138	0.143
-197.290	-69.888	-0.184	-0.069
-196.275	281.495	-0.042	0.075
-195.260	800.000	0.078	0.318
-194.246	-35.031	0.193	0.104
-193.231	-146.841	0.296	-0.025
-192.217	-73.534	0.236	-0.085
-191.202	-139.367	-0.227	0.024
-190.187	632.335	0.106	0.265
-189.173	57.501	0.070	0.067
-188.158	109.033	-0.078	-0.092
-187.144	-16.209	0.424	-0.265
-186.129	800.000	0.092	-0.305
-185.114	45.797	-0.159	-0.145
-184.100	-58.532	-0.093	-0.040
-183.085	800.000	-0.042	-0.148
-182.071	267.172	-0.117	-0.202
-181.056	-200.000	-0.003	0.343
-180.042	142.912	0.037	0.049
-179.027	-26.184	0.162	-0.094
-178.012	-24.999	0.148	-0.086
-176.998	-56.886	0.205	-0.089
-175.983	-200.000	0.016	-0.304
-174.969	800.000	0.100	-0.323
-173.954	274.956	0.087	0.151
-172.939	-34.574	-0.290	0.157
-171.925	233.817	0.056	-0.091
-170.910	91.211	-0.074	-0.082
-169.896	-200.000	0.004	-0.139
-168.881	-30.232	-0.436	-0.244
-167.866	41.656	-0.206	-0.184
-166.852	608.213	0.045	-0.112
-165.837	379.787	0.026	0.052
-164.823	-162.025	0.284	0.014
-163.808	332.717	0.086	0.163
-162.793	549.095	0.132	0.311
-161.779	-200.000	0.079	-0.389
-160.764	380.300	0.130	-0.263
-159.750	5.514	-0.194	0.141
-158.735	558.033	-0.113	0.268
-157.720	-142.459	-0.134	-0.013
-156.706	-129.926	-0.210	0.028
-155.691	37.337	0.179	0.156
-154.677	503.194	0.045	0.102
-153.662	323.847	-0.028	-0.052
-152.647	-200.000	-0.001	-0.051
-151.633	-200.000	-0.044	-0.219
-150.618	-125.684	0.123	0.018
-149.604	117.661	0.133	-0.161
-148.589	83.685	0.133	0.143
-147.574	800.000	-0.010	-0.041
-146.560	125.789	0.069	-0.086
-145.545	-149.047	-0.646	0.051
-144.531	-200.000	-0.038	-0.248
-143.516	188.045	0.092	0.136
-142.502	-64.350	0.273	-0.109
-141.487	213.265	-0.134	-0.209
-140.472	-121.876	0.282	0.046
-139.458	800.000	-0.066	0.213
-138.443	-6.126	0.139	0.094
-137.429	177.634	0.057	0.081
-136.414	36.709	-0.072	-0.062
-135.399	161.040	0.211	-0.289
-134.385	-128.635	0.278	0.039
-133.370	332.496	0.051	0.097
-132.356	74.554	0.147	0.152
-131.341	800.000	-0.103	-0.335
-130.326	205.076	-0.120	0.184
-129.312	57.024	0.131	-0.126
-128.297	-25.402	0.242	-0.141
-127.283	275.107	0.124	-0.216
-126.268	26.228	-0.164	0.135
-125.253	-114.053	0.386	0.074
-124.239	-147.099	-0.158	-0.013
-123.224	-200.000	0.029	0.180
-122.210	70.438	-0.117	-0.119
-121.195	-133.681	0.450	0.055
-120.180	-91.076	0.061	-0.017
-119.166	11.226	0.181	-0.136
-118.151	74.566	0.085	-0.088
-117.137	-20.442	0.180	-0.109
-116.122	256.427	-0.216	-0.365
-115.107	-33.395	-0.369	-0.200
-114.093	334.468	-0.074	0.141
-113.078	-200.000	0.024	0.165
-112.064	365.346	0.029	-0.058
-111.049	9.747	0.263	0.196
-110.034	-143.919	-0.431	-0.040
-109.020	35.392	0.249	-0.215
-108.005	800.000	0.037	0.147
-106.991	22.442	0.084	-0.068
-105.976	-86.881	-0.165	0.049
-104.962	-64.247	0.169	-0.068
-103.947	95.303	0.171	0.192
-102.932	-108.638	-0.228	-0.048
-101.918	49.514	0.090	-0.083
-100.903	-31.114	-0.242	-0.134
-99.889	-51.814	-0.231	0.106
-98.874	39.865	0.072	-0.064
-97.859	-121.619	0.258	0.042
-96.845	-84.195	0.107	-0.033
-95.830	-200.000	-0.019	-0.196
-94.816	-135.984	0.190	0.022
-93.801	-50.060	0.196	0.091
-92.786	-59.792	-0.241	0.101
-91.772	-120.952	0.068	-0.011
-90.757	-72.116	-0.089	0.032
-89.743	800.000	-0.045	-0.159
-88.728	800.000	0.044	-0.146
-87.713	439.303	-0.139	-0.298
-86.699	-200.000	-0.002	-0.075
-85.684	800.000	0.030	-0.112
-84.670	-148.218	-0.202	0.016
-83.655	-158.397	0.211	0.012
-82.640	-200.000	0.016	-0.148
-81.626	800.000	-0.037	0.155
-80.611	338.165	0.121	-0.230
-79.597	800.000	-0.092	0.269
-78.582	-10.562	-0.408	-0.265
-77.567	275.240	-0.148	0.257
-76.553	476.338	0.062	0.137
-75.538	800.000	0.061	0.183
-74.524	-200.000	-0.020	0.207
-73.509	22.154	0.152	0.121
-72.494	-55.936	0.159	-0.070
-71.480	56.621	-0.039	0.037
-70.465	20.467	-0.090	0.072
-69.451	800.000	0.035	-0.147
-68.436	-164.332	0.320	0.014
-67.422	217.137	0.136	-0.212
-66.407	191.038	0.081	0.119
-65.392	-200.000	0.016	-0.375
-64.378	-106.243	-0.318	0.070
-63.363	82.820	-0.070	0.075
-62.349	800.000	0.021	0.085
-61.334	128.831	-0.757	-0.946
-60.319	-34.351	0.687	0.369
-59.305	368.318	-0.521	-1.032
-58.290	130.990	0.898	1.129
-57.276	463.290	0.610	1.335
-56.261	-200.000	99.029	613.820
-55.246	578.915	1418.467	3402.680
-54.232	190.289	2611.269	3843.655
-53.217	117.647	2143.202	2585.242
-52.203	43.413	1593.339	1426.967
-51.188	34.825	1330.379	1140.458
-50.173	31.675	1288.369	1086.165
-49.159	55.335	1338.056	1268.340
-48.144	56.884	1354.627	1293.132
-47.130	34.958	1312.376	1125.631
-46.115	31.330	1295.023	1089.594
-45.100	31.112	1290.079	1084.123
-44.086	31.010	1287.698	1081.488
-43.071	31.068	1285.449	1079.893
-42.057	31.095	1283.066	1078.003
-41.042	30.992	1281.978	1076.449
-40.027	31.014	1280.591	1075.368
-39.013	31.129	1278.158	1073.949
-37.998	31.171	1276.238	1072.532
-36.984	31.169	1274.430	1070.960
-35.969	31.134	1273.053	1069.560
-34.954	31.226	1271.350	1068.614
-33.940	31.412	1269.539	1068.112
-32.925	31.372	1268.688	1067.121
-31.911	31.291	1267.392	1065.531
-30.896	31.363	1265.920	1064.658
-29.881	31.280	1265.076	1063.436
-28.867	31.363	1262.651	1061.826
-27.852	31.343	1261.643	1060.823
-26.838	31.309	1260.600	1059.710
-25.823	31.243	1258.978	1057.930
-24.809	31.262	1258.024	1057.196
-23.794	31.351	1256.786	1056.613
-22.779	31.341	1255.264	1055.240
-21.765	31.338	1253.755	1053.910
-20.750	31.289	1252.567	1052.596
-19.736	31.206	1251.579	1051.254
-18.721	31.040	1250.102	1049.037
-17.706	31.096	1249.036	1048.420
-16.692	31.124	1247.810	1047.503
-15.677	31.127	1246.566	1046.435
-14.663	31.164	1245.912	1046.053
-13.648	31.013	1244.727	1044.171
-12.633	31.146	1243.534	1043.874
-11.619	31.134	1242.648	1043.020
-10.604	31.121	1241.867	1042.249
-9.590	31.038	1240.870	1040.909
-8.575	30.992	1239.862	1039.767
-7.560	30.996	1238.804	1038.857
-6.546	31.031	1238.311	1038.601
-5.531	30.969	1237.684	1037.685
-4.517	31.099	1236.567	1037.434
-3.502	31.188	1235.541	1037.027
-2.487	31.039	1234.941	1035.653
-1.473	30.877	1230.842	1031.274
-0.458	29.460	1215.401	1010.545
0.556	23.529	1198.023	971.537
1.571	19.863	1202.478	954.867
2.586	18.989	1216.962	961.399
3.600	18.749	1206.614	951.814
4.615	13.745	1135.264	869.287
5.629	4.456	1060.599	766.383
6.644	-0.067	1040.132	729.601
7.659	-0.312	1038.076	726.909
8.673	-0.364	1036.743	725.661
9.688	-0.506	1035.193	723.822
10.702	-0.164	1033.641	724.325
11.717	5.774	1041.660	758.677
12.731	14.699	1054.642	811.624
13.746	18.818	1058.864	834.859
14.761	19.242	1058.931	836.898
15.775	19.153	1058.439	836.003
16.790	18.823	1057.754	833.786
17.804	18.602	1057.614	832.528
18.819	18.771	1057.024	832.812
19.834	18.871	1056.438	832.761
20.848	18.995	1055.128	832.252
21.863	18.871	1055.387	831.783
22.877	18.840	1054.621	830.956
23.892	18.717	1054.116	829.892
24.907	18.907	1053.048	829.896
25.921	18.940	1052.050	829.192
26.936	18.899	1050.661	827.826
27.950	18.818	1049.008	826.063
28.965	18.711	1046.857	823.782
29.980	18.825	1045.223	822.970
30.994	18.797	1044.687	822.343
32.009	18.966	1043.007	821.755
33.023	18.590	1041.862	818.982
34.038	18.775	1041.119	819.212
35.053	18.724	1040.906	818.726
36.067	19.062	1039.254	818.964
37.082	19.111	1038.463	818.501
38.096	19.193	1037.453	818.023
39.111	19.163	1037.049	817.489
40.126	19.043	1035.993	816.013
41.140	18.863	1033.850	813.402
42.155	18.531	1032.442	810.655
43.169	18.726	1031.100	810.451
44.184	18.584	1030.800	809.471
45.199	18.471	1029.315	807.703
46.213	18.567	1028.263	807.254
47.228	18.654	1027.362	806.885
48.242	18.723	1026.116	806.161
49.257	18.789	1025.608	805.999
50.271	18.992	1024.331	805.879
51.286	18.995	1023.381	805.071
52.301	18.892	1022.688	803.971
53.315	18.898	1021.501	802.996
54.330	18.928	1020.787	802.506
55.344	18.881	1020.268	801.804
56.359	18.775	1018.786	800.078
57.374	18.686	1017.903	798.900
58.388	18.745	1017.376	798.688
59.403	18.702	1016.317	797.590
60.417	18.574	1014.961	795.859
61.432	18.620	1014.517	795.652
62.447	18.756	1014.220	795.983
63.461	18.845	1013.316	795.612
64.476	18.640	1012.458	793.920
65.490	18.699	1011.103	793.058
66.505	18.829	1010.405	793.043
67.520	18.776	1010.145	792.522
68.534	18.549	1008.962	790.481
69.549	18.326	1008.275	788.841
70.563	18.390	1006.730	787.859
71.578	18.421	1006.076	787.422
72.593	18.310	1005.172	786.135
73.607	18.378	1005.009	786.249
74.622	18.527	1004.631	786.565
75.636	18.632	1003.377	785.998
76.651	18.488	1002.351	784.466
77.666	18.442	1001.679	783.657
78.680	18.580	1001.200	783.847
79.695	18.578	1000.796	783.453
80.709	18.611	999.968	782.885
81.724	18.548	999.004	781.772
82.739	18.595	998.180	781.272
83.753	19.000	997.690	782.662
84.768	19.097	996.870	782.393
85.782	19.136	995.784	781.647
86.797	19.058	994.757	780.419
87.812	19.003	993.688	779.263
88.826	19.053	992.770	778.698
89.841	19.089	991.969	778.165
90.855	19.052	991.017	777.180
91.870	18.973	990.084	776.023
92.884	18.954	989.040	775.054
93.899	18.839	988.127	773.750
94.914	19.113	987.163	774.162
95.928	18.996	986.056	772.698
96.943	18.758	984.980	770.718
97.957	18.598	983.918	769.103
98.972	18.302	983.097	767.065
99.987	18.772	981.747	768.044
101.001	19.013	980.954	768.434
102.016	18.836	980.666	767.352
103.030	18.756	979.503	766.014
104.045	18.610	978.385	764.422
105.060	18.500	977.363	763.068
106.074	18.693	977.202	763.735
107.089	19.058	976.243	764.540
108.103	18.904	975.464	763.176
109.118	18.786	974.027	761.463
110.133	18.809	973.072	760.751
111.147	18.551	972.093	758.774
112.162	18.470	970.828	757.362
113.176	18.694	970.396	757.947
114.191	18.543	969.465	756.487
115.206	18.403	968.063	754.710
116.220	18.470	967.377	754.402
117.235	18.499	966.630	753.884
118.249	18.536	965.240	752.894
119.264	18.625	964.400	752.561
120.279	18.604	963.941	752.047
121.293	18.585	963.276	751.376
122.308	18.780	961.769	750.986
123.322	18.699	960.649	749.691
124.337	18.409	959.668	747.595
125.352	17.958	958.165	744.392
126.366	17.904	956.935	743.136
127.381	18.642	956.861	746.225
128.395	19.078	956.343	747.649
129.410	18.965	955.295	746.275
130.424	18.903	954.028	744.948
131.439	18.939	953.345	744.505
132.454	18.959	951.825	743.340
133.468	18.841	951.318	742.368
134.483	18.982	950.846	742.541
135.497	19.126	949.842	742.313
136.512	19.064	949.145	741.436
137.527	19.144	948.066	740.871
138.541	19.160	946.930	739.986
139.556	19.087	946.542	739.307
140.570	19.172	945.558	738.837
141.585	19.139	944.431	737.747
142.600	19.116	943.231	736.649
143.614	19.247	942.732	736.755
144.629	19.217	942.249	736.180
145.643	19.223	940.870	735.063
146.658	19.030	939.847	733.376
147.673	19.023	938.321	732.091
148.687	19.056	937.348	731.410
149.702	18.910	937.059	730.497
150.716	19.076	935.605	730.005
151.731	18.987	935.519	729.494
152.746	19.183	935.103	729.937
153.760	19.403	933.845	729.824
154.775	19.402	933.244	729.284
155.789	19.297	932.452	728.156
156.804	19.371	931.597	727.737
157.819	19.479	930.567	727.325
158.833	19.389	930.257	726.639
159.848	19.352	928.863	725.327
160.862	19.367	927.478	724.244
161.877	19.319	927.309	723.849
162.892	19.505	926.147	723.659
163.906	19.330	925.351	722.239
164.921	19.318	924.478	721.442
165.935	19.359	923.235	720.579
166.950	19.282	922.719	719.794
167.964	19.258	922.004	719.071
168.979	19.213	920.332	717.517
169.994	19.132	919.928	716.799
171.008	19.314	919.193	716.919
172.023	19.328	918.536	716.402
173.037	19.037	917.484	714.310
174.052	19.043	915.865	713.011
175.067	19.149	915.976	713.476
176.081	19.030	915.887	712.849
177.096	19.188	914.443	712.316
178.110	18.890	913.489	710.277
179.125	18.639	913.091	708.871
180.140	18.756	912.605	708.910
181.154	18.924	911.811	708.927
182.169	19.255	911.841	710.250
183.183	19.430	911.112	710.341
184.198	19.271	910.365	709.040
185.213	18.959	910.163	707.539
186.227	19.153	909.229	707.547
187.242	19.238	908.216	707.043
188.256	19.265	907.589	706.605
189.271	19.401	906.637	706.359
190.286	19.233	905.398	704.643
191.300	18.557	904.304	700.966
192.315	17.927	903.133	697.425
193.329	17.977	902.456	697.044
194.344	18.822	903.070	700.907
195.359	19.181	902.782	702.086
196.373	19.211	901.954	701.500
197.388	18.973	901.297	699.958
198.402	19.021	900.680	699.612
199.417	19.100	899.876	699.246
200.432	18.816	898.815	697.206
201.446	18.729	898.345	696.429
202.461	18.706	898.065	696.058
203.475	18.000	895.518	691.165
204.490	17.258	894.710	687.483
205.504	18.194	895.180	691.566
206.519	18.941	894.424	693.938
207.534	18.871	894.353	693.541
208.548	19.346	894.018	695.133
209.563	18.970	893.137	692.874
210.577	19.158	892.251	692.880
211.592	19.470	891.916	693.813
212.607	19.352	890.725	692.351
213.621	19.237	890.853	691.930
214.636	19.336	889.852	691.488
215.650	19.268	889.106	690.575
216.665	19.494	888.494	690.944
217.680	19.232	887.485	689.048
218.694	18.943	886.626	687.166
219.709	18.840	886.109	686.291
220.723	19.041	885.661	686.687
221.738	19.228	884.650	686.587
222.753	19.155	884.444	686.077
223.767	19.293	883.616	685.924
224.782	19.478	883.694	686.660
225.796	19.368	882.863	685.515
226.811	18.791	881.472	682.085
227.826	18.234	879.906	678.602
228.840	18.470	879.720	679.337
229.855	18.529	878.944	678.911
230.869	18.235	877.830	676.825
231.884	18.679	877.871	678.554
232.899	19.324	877.607	680.838
233.913	19.315	876.646	679.998
234.928	19.125	876.295	678.915
235.942	19.170	875.596	678.492
236.957	18.943	874.990	677.067
237.972	18.905	874.170	676.222
238.986	19.010	873.643	676.168
240.001	19.044	872.924	675.687
241.015	19.288	872.101	675.946
242.030	19.280	871.607	675.474
243.045	19.396	871.499	675.785
244.059	19.403	870.686	675.121
245.074	19.209	869.512	673.393
246.088	18.850	868.975	671.513
247.103	19.216	868.208	672.292
248.117	19.556	868.427	673.729
249.132	19.731	867.772	673.842
250.147	19.780	867.263	673.579
251.161	20.031	866.055	673.558
252.176	19.859	865.925	672.725
253.190	20.046	865.299	672.908
254.205	20.217	864.918	673.217
255.220	20.203	863.896	672.305
256.234	19.919	863.450	670.799
257.249	19.982	862.590	670.316
258.263	20.054	861.832	669.946
259.278	19.971	861.272	669.130
260.293	20.082	860.847	669.171
261.307	19.798	860.196	667.507
262.322	19.767	858.923	666.340
263.336	18.903	856.921	661.408
264.351	17.884	855.114	656.039
265.366	18.173	854.852	656.891
266.380	19.141	855.886	661.348
267.395	19.582	855.444	662.638
268.409	19.654	854.336	661.998
269.424	19.968	853.557	662.537
270.439	19.930	853.028	661.922
271.453	19.963	852.810	661.820
272.468	19.964	852.645	661.641
273.482	20.261	851.784	662.046
274.497	19.823	850.494	659.316
275.512	19.356	849.882	657.006
276.526	19.778	850.251	658.839
277.541	19.985	849.004	658.601
278.555	19.642	848.196	656.612
279.570	19.413	847.312	655.001
280.585	19.730	847.031	655.930
281.599	19.634	846.264	654.916
282.614	19.140	845.291	652.231
283.628	19.314	844.299	652.068
284.643	19.512	844.319	652.775
285.657	19.183	843.158	650.577
286.672	18.879	842.142	648.586
287.687	19.587	841.715	650.871
288.701	19.428	841.801	650.279
289.716	19.273	840.829	648.888
290.730	19.169	840.600	648.263
291.745	18.871	839.287	646.072
292.760	19.108	839.421	647.010
293.774	20.057	839.603	650.656
294.789	20.323	839.262	651.333
295.803	20.513	838.330	651.265
296.818	20.416	837.772	650.412
297.833	20.004	836.861	648.105
298.847	19.916	836.262	647.254
299.862	20.263	835.765	648.111
300.876	20.407	835.419	648.322
301.891	20.226	834.582	646.941
302.906	19.786	833.657	644.526
303.920	20.000	833.331	645.014
304.935	20.276	833.227	645.904
305.949	20.251	832.391	645.103
306.964	20.092	831.804	644.003
307.979	20.293	830.904	643.993
308.993	20.655	831.096	645.429
310.008	20.339	830.693	643.888
311.022	20.161	829.985	642.623
312.037	20.032	829.101	641.402
313.052	20.049	828.069	640.613
314.066	19.191	826.843	636.436
315.081	18.925	825.970	634.727
316.095	19.677	826.634	637.959
317.110	20.204	826.309	639.595
318.125	19.515	824.456	635.566
319.139	18.562	823.362	631.162
320.154	18.492	822.964	630.546
321.168	19.327	823.188	633.732
322.183	19.840	823.323	635.663
323.197	20.149	822.488	636.097
324.212	20.168	822.501	636.119
325.227	20.369	821.840	636.291
326.241	20.158	821.326	635.062
327.256	20.111	820.698	634.348
328.270	20.040	820.305	633.731
329.285	19.940	819.578	632.747
330.300	19.699	818.248	630.783
331.314	19.911	818.045	631.344
332.329	20.152	817.834	632.005
333.343	20.362	817.224	632.242
334.358	20.330	817.369	632.182
335.373	20.325	816.579	631.499
336.387	20.553	816.615	632.297
337.402	20.793	815.969	632.614
338.416	20.568	815.706	631.538
339.431	20.638	815.659	631.700
340.446	20.777	815.406	631.953
341.460	20.657	814.747	630.951
342.475	20.596	813.787	629.929
343.489	20.643	813.455	629.788
344.504	20.733	813.377	629.996
345.519	21.008	812.665	630.383
346.533	21.041	812.784	630.539
347.548	21.119	812.164	630.285
348.562	21.101	811.514	629.660
349.577	21.079	810.863	629.019
350.592	21.001	810.264	628.218
351.606	21.201	809.664	628.417
352.621	21.026	808.549	626.868
353.635	20.913	807.856	625.870
354.650	20.200	806.376	622.110
355.665	19.360	804.917	617.922
356.679	19.800	804.898	619.427
357.694	20.045	804.822	620.190
358.708	20.255	803.764	620.074
359.723	20.567	804.052	621.356
360.738	20.743	803.753	621.698
361.752	20.899	802.786	621.451
362.767	21.045	803.033	622.107
363.781	21.243	802.017	621.971
364.796	21.455	801.597	622.346
365.810	21.307	801.265	621.505
366.825	21.298	800.941	621.166
367.840	21.159	800.215	620.056
368.854	20.934	799.314	618.503
369.869	20.820	799.148	617.917
370.883	20.931	798.681	617.894
371.898	20.652	798.219	616.492
372.913	20.807	797.852	616.704
373.927	20.911	797.358	616.635
374.942	21.034	796.994	616.735
375.956	21.076	796.573	616.503
376.971	21.273	796.216	616.869
377.986	21.251	796.118	616.659
379.000	21.262	795.673	616.299
380.015	21.065	794.798	614.873
381.029	21.191	794.400	614.955
382.044	21.444	793.494	615.088
383.059	21.211	793.342	614.098
384.073	21.392	792.361	613.918
385.088	21.418	792.104	613.756
386.102	21.443	791.123	613.030
387.117	21.214	790.594	611.762
388.132	20.781	789.875	609.638
389.146	20.360	789.012	607.443
390.161	20.815	788.863	608.867
391.175	21.168	788.473	609.744
392.190	20.674	787.873	607.502
393.205	19.581	785.698	601.965
394.219	18.306	784.088	596.241
395.234	18.438	784.176	596.715
396.248	19.880	785.558	602.738
397.263	21.113	786.011	607.328
398.278	20.996	785.959	606.825
399.292	20.966	784.712	605.707
400.307	20.876	784.854	605.448
401.321	20.906	784.309	605.077
402.336	21.362	783.886	606.280
403.350	21.475	783.867	606.605
404.365	22.018	783.182	607.902
405.380	21.968	783.349	607.803
406.394	22.010	782.280	607.065
407.409	21.901	781.751	606.224
408.423	21.944	781.864	606.406
409.438	21.940	781.466	606.031
410.453	22.131	780.820	606.135
411.467	21.859	780.301	604.741
412.482	21.890	779.994	604.556
413.496	22.152	779.233	604.815
414.511	21.963	779.349	604.201
415.526	21.973	778.946	603.871
416.540	21.808	778.293	602.742
417.555	21.667	777.136	601.311
418.569	21.747	777.370	601.712
419.584	21.543	776.429	600.230
420.599	21.437	775.937	599.434
421.613	158.479	1362.564	1796.803
422.628	136.833	1448.039	1796.904
