DTS Sentinel unit serial number:	SN413079Multiplexer serial number:	ORYXHardware model number:	OX4-SRSoftware version number:	ORYX F/W v4.00 Oryx Data Collector v3.7.2.0data status	okinstallation	princeton_trtdifferential loss correction	single-endedforward channel	channel 1reverse channel	N/Adate	2019/09/12time	18:01:34forward acquisition time	15.00reverse acquisition time	0.00gamma	496.2192k internal	0.2318k external	0.2318temperature offset calibration	1.0100default loss term (dB/km)	0.3790temperature slope calibration	1.0000multiplexer offset coefficient	1.0000multiplexer slope coefficient	1.0000fibre end	0.00T internal ref (°C)	33.81T ext. ref 1 (°C)	2.88T ext. ref 2 (°C)	28.24length (m)	temperature (°C)	Stokes	anti-Stokes-747.200	-4.706	-0.698	0.488
-746.185	800.000	-0.194	0.684
-745.171	23.037	-0.335	-0.278
-744.156	-26.857	0.202	0.119
-743.142	-112.828	0.423	-0.085
-742.127	80.588	-1.125	-1.227
-741.112	-29.271	0.345	-0.200
-740.098	186.311	-0.346	-0.521
-739.083	-166.725	0.427	0.018
-738.069	-87.630	-0.841	0.257
-737.054	449.723	0.211	-0.470
-736.039	-68.236	-0.742	-0.292
-735.025	298.933	-0.069	-0.128
-734.010	-56.939	0.229	0.102
-732.996	-31.736	-0.815	0.463
-731.981	-200.000	-0.136	-0.820
-730.966	800.000	0.110	0.321
-729.952	-45.162	-0.776	-0.390
-728.937	-200.000	-0.034	0.621
-727.923	474.734	-0.168	0.384
-726.908	-103.816	-0.523	-0.124
-725.894	-200.000	-0.031	-0.539
-724.879	-200.000	-0.123	-0.875
-723.864	-108.207	0.475	-0.104
-722.850	51.433	0.355	0.341
-721.835	133.950	0.227	0.297
-720.821	-105.182	-0.860	-0.199
-719.806	61.564	-0.112	0.113
-718.791	800.000	0.375	1.225
-717.777	-200.000	-0.049	1.144
-716.762	133.763	-0.293	-0.384
-715.748	-50.953	-0.252	0.120
-714.733	-4.261	-0.285	-0.199
-713.718	402.611	-0.143	-0.304
-712.704	-2.740	-0.441	-0.312
-711.689	-200.000	0.088	0.505
-710.675	-131.161	-0.871	0.117
-709.660	-200.000	-0.166	0.767
-708.645	-47.634	0.286	0.140
-707.631	-176.700	0.194	0.005
-706.616	-70.051	0.530	0.204
-705.602	18.720	0.259	0.210
-704.587	2.754	-0.106	-0.077
-703.572	-200.000	-0.039	-0.250
-702.558	42.174	-0.441	0.405
-701.543	580.685	-0.204	-0.504
-700.529	-31.608	-0.094	-0.053
-699.514	-84.886	0.669	0.212
-698.499	657.138	-0.021	0.055
-697.485	164.685	0.104	0.148
-696.470	182.564	-0.333	0.496
-695.456	-200.000	0.099	-0.585
-694.441	72.021	0.452	-0.475
-693.426	-77.698	-0.594	-0.207
-692.412	-18.584	0.406	-0.256
-691.397	520.686	-0.289	-0.685
-690.383	-154.601	-0.663	-0.045
-689.368	426.926	-0.123	0.268
-688.354	232.010	-0.304	0.504
-687.339	-200.000	0.078	-1.094
-686.324	181.619	0.120	0.178
-685.310	-200.000	0.088	-0.479
-684.295	-95.750	0.546	0.147
-683.281	244.691	-0.106	0.180
-682.266	521.713	-0.044	-0.104
-681.251	10.794	-0.237	0.182
-680.237	500.121	-0.316	0.736
-679.222	758.110	-0.039	-0.107
-678.208	285.669	-0.248	0.451
-677.193	-142.245	-0.522	-0.052
-676.178	-35.308	-0.582	0.319
-675.164	61.164	-0.446	-0.447
-674.149	-200.000	-0.088	-0.845
-673.135	523.105	-0.111	-0.263
-672.120	73.814	-0.322	0.341
-671.105	800.000	-0.210	0.805
-670.091	194.368	0.078	0.120
-669.076	87.672	-0.441	-0.493
-668.062	-89.966	0.491	0.145
-667.047	-103.856	-0.336	-0.079
-666.032	-43.902	-0.696	0.353
-665.018	-179.014	-0.290	-0.007
-664.003	-170.081	0.399	-0.014
-662.989	46.356	-0.121	-0.113
-661.974	133.905	-0.562	0.734
-660.959	387.351	0.237	-0.494
-659.945	-200.000	-0.040	0.402
-658.930	129.644	0.356	0.458
-657.916	-80.203	-0.848	0.287
-656.901	69.999	-0.142	-0.148
-655.886	24.696	-0.423	-0.353
-654.872	-200.000	0.075	-0.631
-653.857	128.052	-0.258	-0.331
-652.843	-43.271	0.731	-0.373
-651.828	-76.380	-0.148	-0.053
-650.814	-200.000	0.043	0.220
-649.799	325.818	0.377	0.728
-648.784	286.805	0.174	0.317
-647.770	-200.000	0.036	-0.448
-646.755	-200.000	-0.117	-0.891
-645.741	175.813	-0.258	0.377
-644.726	800.000	0.237	0.783
-643.711	86.607	-0.524	0.583
-642.697	641.680	-0.384	0.985
-641.682	-50.363	-0.448	0.214
-640.668	-184.305	-0.296	0.005
-639.653	22.892	0.367	-0.303
-638.638	-139.765	0.648	0.069
-637.624	-102.185	-0.382	0.093
-636.609	-101.999	-0.991	-0.241
-635.595	31.191	-0.623	-0.539
-634.580	691.162	-0.141	-0.373
-633.565	-84.597	0.344	-0.109
-632.551	38.135	0.226	-0.202
-631.536	181.246	-0.239	-0.353
-630.522	398.842	-0.162	0.343
-629.507	209.584	-0.360	-0.569
-628.492	-200.000	-0.006	0.075
-627.478	-98.185	0.422	0.109
-626.463	-200.000	-0.027	-0.511
-625.449	652.240	0.042	0.108
-624.434	-48.859	-0.461	0.223
-623.419	160.544	0.321	-0.451
-622.405	-53.182	-0.593	0.274
-621.390	-200.000	0.003	-0.398
-620.376	-110.799	0.623	0.129
-619.361	-114.809	0.499	0.096
-618.346	-125.568	0.680	-0.104
-617.332	800.000	0.052	-0.179
-616.317	-52.971	-0.446	0.207
-615.303	36.555	0.714	-0.635
-614.288	48.887	0.536	-0.507
-613.273	-200.000	0.100	-0.906
-612.259	10.542	0.397	0.304
-611.244	800.000	0.202	-0.662
-610.230	-200.000	0.125	0.890
-609.215	-10.725	-0.650	0.433
-608.201	-200.000	-0.026	-0.256
-607.186	800.000	-0.109	-0.321
-606.171	-200.000	0.018	0.750
-605.157	800.000	-0.140	-0.575
-604.142	36.799	0.243	-0.217
-603.128	34.736	-0.382	0.336
-602.113	649.282	-0.090	-0.232
-601.098	-200.000	-0.016	-0.363
-600.084	-200.000	0.015	0.522
-599.069	-52.639	-0.798	0.371
-598.055	-200.000	-0.075	-0.412
-597.040	-25.821	0.839	-0.498
-596.025	205.981	-0.389	-0.610
-595.011	-75.008	-0.391	0.141
-593.996	-200.000	-0.029	0.368
-592.982	-200.000	0.038	0.431
-591.967	30.444	0.590	-0.508
-590.952	134.885	-0.437	-0.571
-589.938	56.970	-0.417	0.409
-588.923	9.045	0.231	-0.175
-587.909	-200.000	-0.029	-0.665
-586.894	-72.374	0.193	-0.072
-585.879	-2.311	0.111	0.078
-584.865	-200.000	-0.159	-1.061
-583.850	-36.970	0.465	-0.251
-582.836	-1.457	-0.272	-0.193
-581.821	-200.000	0.004	-0.577
-580.806	-200.000	0.004	0.486
-579.792	800.000	-0.117	0.473
-578.777	-100.000	-0.296	-0.074
-577.763	-107.097	-0.883	-0.196
-576.748	17.975	-0.286	0.229
-575.733	-200.000	-0.113	-0.606
-574.719	158.347	0.617	0.861
-573.704	-55.255	0.310	-0.140
-572.690	294.509	0.374	-0.688
-571.675	99.586	-0.311	-0.362
-570.661	343.540	-0.067	0.132
-569.646	-200.000	-0.202	1.153
-568.631	-200.000	-0.062	-0.800
-567.617	800.000	-0.058	-0.177
-566.602	68.570	0.399	-0.411
-565.588	-143.727	-0.414	-0.039
-564.573	-38.652	-0.393	-0.209
-563.558	14.309	0.618	-0.484
-562.544	39.564	0.227	-0.205
-561.529	-200.000	0.046	-0.628
-560.515	-3.137	-0.327	0.229
-559.500	69.934	-0.177	-0.183
-558.485	363.195	0.406	0.819
-557.471	-12.392	0.262	0.172
-556.456	800.000	-0.206	-0.814
-555.442	-200.000	-0.086	-0.843
-554.427	800.000	0.008	0.037
-553.412	-200.000	0.033	-1.016
-552.398	-200.000	0.089	0.497
-551.383	79.916	-0.244	-0.263
-550.369	249.628	-0.324	-0.553
-549.354	-175.146	-0.220	0.006
-548.339	362.662	-0.146	-0.295
-547.325	133.088	-0.099	0.128
-546.310	-2.813	0.842	0.591
-545.296	68.767	-0.192	-0.197
-544.281	230.890	-0.273	0.449
-543.266	-100.298	0.683	0.170
-542.252	89.488	-0.185	-0.207
-541.237	19.156	0.345	-0.278
-540.223	-78.143	0.494	-0.171
-539.208	800.000	0.139	0.563
-538.193	19.869	0.649	-0.525
-537.179	335.981	0.495	-0.965
-536.164	-131.313	-0.799	0.106
-535.150	-126.408	-0.361	-0.054
-534.135	672.445	0.132	-0.344
-533.121	50.534	0.252	-0.239
-532.106	-103.044	0.382	-0.091
-531.091	800.000	0.075	0.307
-530.077	-32.798	-0.613	0.342
-529.062	730.583	-0.223	0.599
-528.048	-141.192	-0.521	-0.053
-527.033	-101.704	0.322	-0.078
-526.018	-128.644	0.764	-0.108
-525.004	-142.389	0.410	0.041
-523.989	16.859	-0.140	-0.111
-522.975	-62.926	-0.563	-0.234
-521.960	132.682	-0.135	-0.174
-520.945	-40.177	0.475	-0.248
-519.931	-200.000	0.005	0.347
-518.916	-102.272	-0.787	0.190
-517.902	-200.000	0.008	-0.071
-516.887	-200.000	0.064	-0.567
-515.872	800.000	0.044	-0.171
-514.858	-122.619	-0.967	0.157
-513.843	158.865	0.398	0.555
-512.829	-40.128	-0.470	-0.245
-511.814	-43.634	0.206	0.104
-510.799	477.823	0.384	-0.871
-509.785	-92.749	0.783	0.220
-508.770	-98.717	-0.756	0.193
-507.756	56.055	0.055	0.053
-506.741	-130.074	-0.598	0.082
-505.726	108.246	0.141	-0.169
-504.712	-200.000	-0.077	-0.599
-503.697	-86.682	0.498	-0.153
-502.683	800.000	0.175	0.528
-501.668	-30.205	-0.227	-0.129
-500.653	189.689	-0.037	0.055
-499.639	-85.470	-0.463	-0.145
-498.624	-200.000	-0.000	-0.189
-497.610	-41.307	-0.730	0.377
-496.595	800.000	0.327	1.247
-495.581	-162.584	-0.870	0.043
-494.566	99.032	-0.377	-0.437
-493.551	-66.572	0.407	-0.162
-492.537	-28.317	0.284	-0.164
-491.522	122.402	-0.458	-0.574
-490.508	-76.457	0.457	0.161
-489.493	-187.360	-0.779	-0.011
-488.478	78.859	0.647	-0.693
-487.464	-200.000	-0.066	-0.341
-486.449	42.390	-0.200	-0.182
-485.435	-14.421	0.375	0.242
-484.420	57.973	0.270	0.265
-483.405	-65.498	-1.078	-0.434
-482.391	429.821	0.219	-0.475
-481.376	800.000	-0.252	-0.857
-480.362	-84.680	-0.574	-0.181
-479.347	-68.721	0.932	-0.361
-478.332	64.733	-0.476	-0.481
-477.318	744.242	-0.346	0.931
-476.303	800.000	0.216	0.672
-475.289	384.044	0.214	0.441
-474.274	244.240	0.353	0.594
-473.259	-92.452	0.957	0.270
-472.245	112.557	0.738	-0.894
-471.230	14.899	0.536	0.420
-470.216	25.184	-0.197	-0.164
-469.201	217.841	-0.292	0.466
-468.186	-38.430	-0.588	0.312
-467.172	81.704	-0.227	0.246
-466.157	-133.274	0.432	-0.055
-465.143	82.853	0.485	-0.527
-464.128	-200.000	-0.037	0.630
-463.113	800.000	0.133	0.410
-462.099	226.496	-0.127	0.206
-461.084	2.332	-0.118	0.085
-460.070	-200.000	-0.188	1.324
-459.055	-119.812	-0.674	-0.116
-458.040	650.896	0.068	-0.174
-457.026	10.907	0.306	-0.234
-456.011	-32.589	0.719	0.401
-454.997	-200.000	-0.116	0.907
-453.982	117.067	-0.294	0.361
-452.968	439.710	-0.132	0.288
-451.953	800.000	0.318	-1.054
-450.938	800.000	0.131	0.506
-449.924	-152.122	0.837	-0.061
-448.909	-94.993	0.768	0.208
-447.895	-144.336	-0.522	0.049
-446.880	71.348	-0.234	0.243
-445.865	-2.702	-0.983	-0.688
-444.851	-91.525	-0.714	0.204
-443.836	188.165	0.416	0.622
-442.822	800.000	0.054	-0.213
-441.807	-96.067	0.552	0.147
-440.792	-82.297	0.382	-0.124
-439.778	-68.460	-0.613	0.238
-438.763	171.459	-0.097	-0.139
-437.749	-200.000	-0.049	0.765
-436.734	800.000	0.183	-0.743
-435.719	183.332	-0.335	0.494
-434.705	50.202	-0.496	0.469
-433.690	-19.049	0.276	-0.172
-432.676	-200.000	0.066	-0.822
-431.661	-97.757	0.095	0.025
-430.646	-56.413	0.832	-0.369
-429.632	373.333	-0.366	-0.744
-428.617	-117.721	0.105	0.019
-427.603	-27.973	0.346	0.200
-426.588	99.736	0.271	-0.314
-425.573	-138.177	-0.369	0.041
-424.559	-48.504	-0.817	-0.393
-423.544	-81.550	-0.407	-0.134
-422.530	100.935	-0.770	0.895
-421.515	-87.953	0.733	-0.220
-420.500	800.000	-0.121	-0.512
-419.486	59.513	0.372	0.367
-418.471	-35.432	0.462	0.251
-417.457	800.000	-0.051	0.208
-416.442	800.000	0.056	0.238
-415.428	583.287	0.107	-0.263
-414.413	34.870	-0.328	0.287
-413.398	-31.325	0.852	0.479
-412.384	525.150	0.071	-0.167
-411.369	-18.699	0.401	-0.250
-410.355	-148.751	0.376	-0.030
-409.340	-200.000	0.019	-0.251
-408.325	-33.015	-0.638	0.354
-407.311	-79.997	0.447	0.150
-406.296	-47.184	-0.583	0.284
-405.282	38.366	-0.429	0.382
-404.267	-151.568	0.334	0.025
-403.252	800.000	-0.178	0.676
-402.238	-25.072	-0.349	0.207
-401.223	260.136	-0.398	-0.687
-400.209	125.430	-0.768	-0.967
-399.194	800.000	-0.125	-0.351
-398.179	-90.493	-0.639	-0.185
-397.165	159.764	-0.213	0.296
-396.150	403.216	0.272	-0.572
-395.136	303.227	-0.114	0.211
-394.121	-47.684	-0.257	-0.125
-393.106	195.025	0.279	-0.422
-392.092	-96.180	0.037	-0.010
-391.077	-200.000	-0.040	-0.247
-390.063	-139.179	0.999	-0.108
-389.048	-200.000	0.064	0.808
-388.033	-144.771	-0.608	0.056
-387.019	-139.281	0.687	-0.074
-386.004	-72.783	-0.300	-0.110
-384.990	1.514	-0.146	-0.105
-383.975	168.158	-0.306	-0.434
-382.960	-200.000	0.059	-0.423
-381.946	628.686	0.405	-1.022
-380.931	-2.644	-0.202	-0.141
-379.917	-200.000	-0.023	-0.638
-378.902	18.943	0.269	-0.215
-377.888	-48.952	0.420	-0.201
-376.873	-200.000	-0.114	0.548
-375.858	-200.000	0.006	-0.597
-374.844	352.858	-0.457	-0.904
-373.829	-21.695	-0.566	-0.344
-372.815	-200.000	0.058	0.298
-371.800	-111.946	0.168	-0.034
-370.785	32.242	-0.395	0.340
-369.771	800.000	-0.147	0.557
-368.756	-19.756	0.687	0.424
-367.742	-32.666	0.222	0.123
-366.727	-25.677	0.235	0.138
-365.712	7.825	0.766	-0.573
-364.698	186.268	-0.112	-0.165
-363.683	135.789	-0.546	-0.709
-362.669	68.802	-0.517	-0.529
-361.654	800.000	0.264	0.755
-360.639	152.640	-0.143	0.195
-359.625	227.346	-0.180	0.292
-358.610	-50.859	0.406	-0.190
-357.596	107.414	0.242	-0.287
-356.581	-200.000	-0.043	0.670
-355.566	-93.856	0.219	-0.060
-354.552	22.207	-0.144	-0.117
-353.537	-200.000	-0.071	0.404
-352.523	464.237	0.158	-0.353
-351.508	49.441	0.471	0.441
-350.493	800.000	0.271	-0.876
-349.479	45.713	0.299	-0.275
-348.464	19.769	-0.733	-0.588
-347.450	-200.000	0.019	-0.390
-346.435	-184.348	-0.157	0.003
-345.420	-92.599	1.004	-0.281
-344.406	-64.287	-0.948	0.385
-343.391	179.275	0.252	0.367
-342.377	-47.666	0.441	0.213
-341.362	261.161	-0.320	-0.552
-340.348	800.000	0.134	0.428
-339.333	-166.000	0.418	-0.018
-338.318	258.503	0.361	-0.619
-337.304	-103.370	0.797	0.187
-336.289	103.322	-0.354	0.414
-335.275	197.907	0.158	-0.240
-334.260	63.464	-0.140	-0.140
-333.245	-200.000	-0.068	0.461
-332.231	350.805	0.442	0.871
-331.216	303.260	0.154	0.284
-330.202	-200.000	0.206	-1.048
-329.187	-200.000	0.091	-0.621
-328.172	726.626	-0.360	-0.955
-327.158	112.133	-0.396	0.477
-326.143	-4.447	0.293	0.202
-325.129	-200.000	-0.021	0.585
-324.114	-116.807	0.955	0.174
-323.099	390.878	-0.213	0.441
-322.085	21.999	0.049	-0.040
-321.070	800.000	0.091	-0.366
-320.056	62.279	0.264	0.262
-319.041	483.270	0.425	0.962
-318.026	-165.027	1.428	0.063
-317.012	-57.833	0.551	0.240
-315.997	64.070	-0.098	0.098
-314.983	457.577	0.175	-0.388
-313.968	-197.077	0.731	-0.005
-312.953	-200.000	0.017	1.047
-311.939	-200.000	0.226	1.061
-310.924	-145.923	-0.933	0.082
-309.910	56.178	0.275	-0.266
-308.895	-200.000	0.136	-0.835
-307.880	-145.296	0.113	-0.010
-306.866	-200.000	0.093	0.529
-305.851	-105.146	-0.622	0.141
-304.837	-48.946	0.479	0.228
-303.822	-144.770	-0.390	-0.036
-302.807	-200.000	-0.007	0.094
-301.793	-142.640	0.448	0.044
-300.778	-200.000	0.084	-0.466
-299.764	-166.728	-0.923	-0.038
-298.749	20.484	0.095	0.076
-297.735	-100.488	0.801	0.197
-296.720	-50.666	-0.389	-0.182
-295.705	249.512	-0.388	-0.655
-294.691	172.222	-0.307	0.439
-293.676	800.000	-0.178	0.655
-292.662	210.338	0.451	-0.705
-291.647	248.963	-0.152	0.256
-290.632	-200.000	-0.013	0.343
-289.618	-200.000	-0.098	-0.490
-288.603	266.090	0.156	0.271
-287.589	-66.438	-0.324	-0.128
-286.574	2.255	-0.234	0.169
-285.559	-200.000	-0.001	0.229
-284.545	-41.906	0.769	-0.392
-283.530	92.232	-0.294	-0.330
-282.516	-59.178	-1.143	-0.490
-281.501	-200.000	0.004	-0.315
-280.486	-200.000	-0.002	0.357
-279.472	145.079	-0.193	0.257
-278.457	14.986	-0.470	0.366
-277.443	-88.823	0.303	-0.089
-276.428	-62.009	-0.182	-0.076
-275.413	527.604	0.080	-0.187
-274.399	-47.188	0.271	-0.131
-273.384	183.406	0.610	-0.896
-272.370	-27.931	0.689	0.396
-271.355	-2.716	-0.711	-0.494
-270.340	-200.000	0.045	0.539
-269.326	44.718	0.201	0.183
-268.311	97.330	-0.244	-0.279
-267.297	-200.000	0.132	0.633
-266.282	5.535	0.299	0.219
-265.267	-96.501	-0.639	0.168
-264.253	104.617	-0.809	0.946
-263.238	-102.358	0.272	0.065
-262.224	32.797	-0.135	-0.116
-261.209	154.619	0.410	-0.560
-260.195	-200.000	0.063	0.508
-259.180	-100.404	0.145	0.036
-258.165	-91.043	-0.677	0.193
-257.151	-200.000	-0.015	-0.407
-256.136	-47.540	-0.580	-0.280
-255.122	132.215	-0.501	0.641
-254.107	6.636	-0.206	0.152
-253.092	146.943	0.499	0.666
-252.078	89.990	0.070	0.078
-251.063	-129.494	-0.301	0.041
-250.049	-200.000	0.080	-0.414
-249.034	30.695	0.931	0.791
-248.019	-95.895	-0.918	0.243
-247.005	-115.704	0.522	0.097
-245.990	-138.982	0.132	0.014
-244.976	800.000	-0.143	-0.406
-243.961	156.635	-0.451	-0.619
-242.946	-127.913	-0.841	0.120
-241.932	-107.309	-0.617	-0.135
-240.917	360.990	0.176	0.349
-239.903	8.223	-0.236	0.176
-238.888	-68.257	-0.386	0.149
-237.873	-49.516	-0.186	0.088
-236.859	-200.000	0.042	0.811
-235.844	161.468	0.464	0.644
-234.830	800.000	-0.044	0.183
-233.815	-19.365	-0.181	0.111
-232.800	520.591	-0.092	-0.213
-231.786	9.978	0.296	0.223
-230.771	-140.220	0.904	0.094
-229.757	90.388	0.831	0.922
-228.742	27.450	-0.208	0.174
-227.727	800.000	0.217	0.908
-226.713	90.726	-0.272	0.303
-225.698	410.082	0.224	0.470
-224.684	59.947	-0.060	0.058
-223.669	-38.033	0.250	0.132
-222.655	-200.000	-0.141	-0.991
-221.640	-137.692	-0.548	0.061
-220.625	-164.939	0.453	0.020
-219.611	170.056	0.243	-0.344
-218.596	-21.471	-0.148	-0.089
-217.582	477.326	-0.193	-0.432
-216.567	31.247	0.994	0.846
-215.552	272.695	-0.410	-0.718
-214.538	265.436	-0.264	0.456
-213.523	-73.800	0.172	-0.062
-212.509	-200.000	0.008	0.424
-211.494	-91.336	0.540	-0.153
-210.479	-59.586	-0.353	0.150
-209.465	-4.227	1.152	0.790
-208.450	741.203	-0.065	-0.172
-207.436	5.400	-0.640	-0.468
-206.421	-129.063	-0.471	0.065
-205.406	44.319	0.763	0.694
-204.392	-146.420	0.646	-0.056
-203.377	-61.798	-0.555	-0.230
-202.363	14.099	0.481	0.371
-201.348	-200.000	-0.014	-0.346
-200.333	3.459	-0.336	0.243
-199.319	-200.000	0.024	0.121
-198.304	800.000	-0.118	-0.371
-197.290	-37.293	-0.193	-0.102
-196.275	-200.000	0.045	0.242
-195.260	-55.907	0.469	-0.207
-194.246	-50.585	-0.967	0.452
-193.231	-200.000	0.062	0.568
-192.217	-125.426	-0.739	-0.112
-191.202	79.078	0.539	-0.572
-190.187	-200.000	0.006	-0.402
-189.173	48.584	-0.761	0.707
-188.158	-40.904	0.566	-0.290
-187.144	202.493	-0.452	0.690
-186.129	100.544	-0.257	-0.296
-185.114	-66.175	0.623	-0.246
-184.100	-20.710	-0.526	-0.319
-183.085	-200.000	-0.033	-0.460
-182.071	764.408	0.208	-0.561
-181.056	-83.037	0.206	-0.066
-180.042	-200.000	-0.038	0.292
-179.027	349.277	0.191	0.373
-178.012	-161.142	-0.259	-0.013
-176.998	-200.000	-0.050	-0.347
-175.983	-101.126	-0.285	0.069
-174.969	-95.424	0.327	-0.087
-173.954	-86.010	0.743	-0.227
-172.939	-111.420	-0.443	0.089
-171.925	-106.194	-1.031	-0.229
-170.910	800.000	-0.081	0.342
-169.896	-59.807	-0.228	0.097
-168.881	-139.607	-0.719	-0.076
-167.866	-121.208	0.189	-0.031
-166.852	107.359	-0.765	0.900
-165.837	-147.992	-0.725	-0.060
-164.823	-200.000	0.031	0.189
-163.808	345.195	-0.550	1.069
-162.793	800.000	-0.096	0.323
-161.779	657.769	-0.070	-0.177
-160.764	-200.000	-0.068	-0.298
-159.750	72.907	-0.325	0.336
-158.735	129.119	0.413	0.521
-157.720	-165.240	0.628	-0.027
-156.706	337.716	0.076	0.145
-155.691	195.606	-0.279	0.419
-154.677	52.118	0.532	0.502
-153.662	-152.732	0.684	0.048
-152.647	-153.391	1.068	-0.073
-151.633	-200.000	-0.007	-0.469
-150.618	-87.311	-0.406	-0.122
-149.604	-200.000	0.047	0.424
-148.589	-200.000	-0.021	0.495
-147.574	-19.224	0.506	-0.311
-146.560	-45.024	0.921	0.453
-145.545	-200.000	0.193	0.853
-144.531	-15.958	-0.312	-0.196
-143.516	35.933	0.928	0.807
-142.502	231.823	0.131	0.213
-141.487	534.320	-0.348	0.815
-140.472	-133.964	0.898	0.110
-139.458	-200.000	0.069	-1.201
-138.443	-43.531	-0.540	0.270
-137.429	68.218	0.408	0.413
-136.414	-200.000	-0.003	-0.127
-135.399	135.752	-0.221	0.284
-134.385	-200.000	0.005	0.189
-133.370	-200.000	0.084	0.499
-132.356	-3.177	0.531	-0.366
-131.341	-156.032	-0.431	0.027
-130.326	-200.000	0.140	0.655
-129.312	-200.000	-0.003	0.411
-128.297	252.943	0.253	0.427
-127.283	-67.950	-0.562	0.217
-126.268	391.553	0.257	0.528
-125.253	-64.649	0.288	0.115
-124.239	-186.454	1.005	0.014
-123.224	-200.000	0.098	0.565
-122.210	117.549	0.130	-0.158
-121.195	-35.809	0.532	-0.285
-120.180	-46.924	-0.468	-0.226
-119.166	-18.783	0.543	-0.334
-118.151	-200.000	0.014	0.737
-117.137	42.913	-0.392	0.353
-116.122	497.935	0.151	0.344
-115.107	379.967	0.266	0.539
-114.093	-200.000	0.018	0.207
-113.078	25.618	0.593	0.487
-112.064	-66.630	-0.373	0.146
-111.049	313.262	0.248	0.461
-110.034	-200.000	-0.282	0.000
-109.020	-200.000	-0.056	0.336
-108.005	-102.961	-0.607	0.142
-106.991	-47.795	-0.327	0.156
-105.976	-48.731	0.323	-0.153
-104.962	-200.000	-0.153	-0.689
-103.947	-174.848	-0.948	-0.026
-102.932	4.972	0.285	0.207
-101.918	-200.000	-0.016	-0.798
-100.903	-200.000	-0.060	-0.517
-99.889	-90.316	-0.759	-0.217
-98.874	800.000	0.098	-0.303
-97.859	-26.027	0.624	-0.362
-96.845	321.959	0.155	0.291
-95.830	800.000	-0.250	0.879
-94.816	255.106	0.196	0.331
-93.801	110.789	0.860	1.021
-92.786	-22.131	0.333	0.199
-91.772	75.743	-0.534	-0.556
-90.757	-200.000	0.097	-0.742
-89.743	8.153	0.542	0.401
-88.728	800.000	-0.261	-0.909
-87.713	108.287	0.111	-0.131
-86.699	-122.261	-0.596	0.096
-85.684	390.580	-0.350	0.716
-84.670	-93.451	-0.742	0.203
-83.655	-120.026	-0.114	0.019
-82.640	-117.650	-1.046	0.186
-81.626	114.552	0.737	-0.886
-80.611	175.260	-0.095	0.135
-79.597	-200.000	-0.026	-0.225
-78.582	-15.755	-0.203	0.128
-77.567	-109.865	0.531	0.110
-76.553	4.110	-0.472	-0.340
-75.538	18.692	-0.557	-0.440
-74.524	370.130	0.243	0.486
-73.509	545.247	-0.475	1.120
-72.494	34.437	0.390	0.336
-71.480	-109.366	0.727	0.152
-70.465	-125.665	-0.289	-0.043
-69.451	322.106	-0.194	0.364
-68.436	512.984	0.156	0.358
-67.422	104.773	0.211	0.245
-66.407	-114.756	0.293	-0.055
-65.392	800.000	-0.309	1.290
-64.378	206.153	0.218	0.334
-63.363	671.127	-0.158	-0.404
-62.349	-34.034	-0.288	0.156
-61.334	-44.645	-1.159	-0.571
-60.319	-118.204	0.411	0.072
-59.305	188.163	-0.350	-0.516
-58.290	211.666	0.968	1.502
-57.276	194.363	0.916	1.369
-56.261	-200.000	96.138	576.197
-55.246	636.835	1376.637	3444.934
-54.232	196.880	2555.443	3838.317
-53.217	119.349	2140.732	2610.069
-52.203	45.562	1602.120	1457.649
-51.188	37.369	1342.728	1172.432
-50.173	33.774	1301.757	1115.532
-49.159	58.157	1351.740	1304.681
-48.144	59.317	1367.650	1326.901
-47.130	37.608	1323.653	1157.015
-46.115	34.029	1307.253	1121.571
-45.100	33.772	1302.251	1115.724
-44.086	33.612	1300.292	1113.060
-43.071	33.584	1298.083	1110.960
-42.057	33.230	1296.448	1107.446
-41.042	33.870	1293.675	1108.774
-40.027	33.798	1292.450	1107.255
-39.013	33.760	1290.719	1105.508
-37.998	33.685	1288.410	1103.052
-36.984	33.897	1286.764	1102.829
-35.969	33.823	1285.446	1101.230
-34.954	33.909	1284.036	1100.476
-33.940	33.915	1282.346	1099.016
-32.925	33.841	1281.008	1097.399
-31.911	33.850	1279.607	1096.207
-30.896	33.725	1278.767	1094.723
-29.881	33.999	1276.492	1094.309
-28.867	34.035	1275.631	1093.736
-27.852	33.816	1275.073	1091.952
-26.838	33.855	1273.233	1090.557
-25.823	33.851	1271.740	1089.212
-24.809	33.829	1270.230	1087.752
-23.794	33.973	1268.374	1086.941
-22.779	33.964	1267.540	1086.134
-21.765	33.936	1265.662	1084.321
-20.750	33.930	1264.953	1083.633
-19.736	33.747	1262.769	1080.681
-18.721	33.547	1262.969	1079.667
-17.706	33.638	1261.985	1079.304
-16.692	33.714	1260.278	1078.235
-15.677	33.976	1258.871	1078.471
-14.663	33.790	1258.416	1076.986
-13.648	33.719	1257.243	1075.538
-12.633	33.821	1256.288	1075.255
-11.619	33.830	1255.392	1074.495
-10.604	33.550	1255.375	1072.852
-9.590	33.930	1253.291	1073.179
-8.575	33.956	1251.887	1072.080
-7.560	33.607	1252.616	1070.690
-6.546	33.723	1250.593	1069.572
-5.531	33.711	1249.948	1068.908
-4.517	33.448	1250.417	1067.788
-3.502	33.783	1248.896	1068.331
-2.487	34.025	1246.462	1067.566
-1.473	33.572	1243.458	1062.410
-0.458	32.051	1227.976	1040.721
0.556	29.197	1209.760	1001.129
1.571	24.931	1215.602	982.523
2.586	23.818	1229.505	987.490
3.600	23.411	1218.066	975.974
4.615	17.514	1146.345	887.777
5.629	7.583	1070.497	780.381
6.644	3.146	1050.188	744.082
7.659	2.928	1046.610	740.432
8.673	2.771	1045.679	738.952
9.688	2.676	1045.564	738.350
10.702	2.959	1043.565	738.231
11.717	8.935	1052.601	773.450
12.731	19.062	1065.711	832.238
13.746	24.782	1072.635	865.329
14.761	26.141	1075.085	873.809
15.775	26.426	1073.734	874.013
16.790	26.231	1073.067	872.449
17.804	26.089	1073.136	871.746
18.819	25.765	1073.663	870.528
19.834	26.320	1071.521	871.390
20.848	26.273	1071.399	870.987
21.863	26.306	1071.217	870.921
22.877	26.672	1070.071	871.675
23.892	26.306	1070.093	869.855
24.907	26.444	1068.405	869.070
25.921	26.337	1067.762	867.956
26.936	26.240	1066.584	866.456
27.950	26.053	1064.356	863.674
28.965	25.987	1064.150	863.115
29.980	26.157	1061.814	861.957
30.994	26.438	1062.005	863.377
32.009	26.457	1059.517	861.367
33.023	26.152	1058.561	859.062
34.038	25.984	1058.802	858.384
35.053	26.520	1057.224	859.574
36.067	26.171	1057.428	858.003
37.082	26.429	1055.898	857.912
38.096	26.535	1054.827	857.468
39.111	26.453	1054.550	856.780
40.126	26.620	1053.131	856.338
41.140	26.043	1052.043	852.654
42.155	26.018	1049.191	850.150
43.169	26.062	1049.341	850.401
44.184	25.985	1048.933	849.633
45.199	25.857	1047.295	847.627
46.213	26.091	1046.666	848.147
47.228	25.852	1046.326	846.671
48.242	26.155	1045.155	847.072
49.257	26.504	1044.131	847.802
50.271	26.324	1044.534	847.211
51.286	26.383	1042.483	845.749
52.301	26.370	1042.182	845.368
53.315	26.506	1040.363	844.452
54.330	26.407	1040.325	843.884
55.344	26.232	1039.859	842.615
56.359	26.409	1038.170	841.997
57.374	25.944	1038.043	839.652
58.388	26.252	1037.278	840.396
59.403	26.210	1035.705	838.848
60.417	25.859	1035.588	837.053
61.432	25.840	1035.047	836.449
62.447	26.231	1032.981	836.518
63.461	25.975	1034.009	836.091
64.476	26.388	1031.380	835.801
65.490	25.896	1031.153	833.266
66.505	25.882	1031.262	833.218
67.520	26.040	1030.202	833.018
68.534	26.006	1028.072	831.063
69.549	25.568	1027.818	828.768
70.563	25.571	1027.267	828.264
71.578	25.560	1026.369	827.416
72.593	25.387	1025.753	826.049
73.607	25.335	1024.955	825.097
74.622	25.412	1025.329	825.680
75.636	25.879	1024.289	826.912
76.651	25.408	1024.144	824.561
77.666	25.709	1022.541	824.576
78.680	25.850	1022.222	824.891
79.695	25.926	1021.451	824.542
80.709	25.782	1021.319	823.706
81.724	25.828	1020.019	822.796
82.739	26.012	1019.303	822.982
83.753	26.399	1018.435	823.973
84.768	27.089	1016.279	825.293
85.782	26.667	1016.325	823.340
86.797	26.455	1016.970	822.824
87.812	26.353	1015.403	821.019
88.826	26.482	1014.984	821.195
89.841	26.668	1013.024	820.380
90.855	26.792	1013.100	820.929
91.870	26.711	1011.979	819.582
92.884	26.370	1010.858	817.059
93.899	26.246	1010.220	815.912
94.914	26.471	1009.198	816.030
95.928	26.200	1008.759	814.380
96.943	26.102	1006.558	812.092
97.957	25.980	1005.093	810.289
98.972	25.259	1006.187	807.856
99.987	26.141	1005.158	810.922
101.001	26.443	1003.142	810.575
102.016	26.263	1001.943	808.733
103.030	26.242	1002.002	808.613
104.045	26.007	1000.861	806.569
105.060	25.869	1000.355	805.472
106.074	26.087	998.910	805.212
107.089	26.456	998.419	806.388
108.103	26.170	997.715	804.475
109.118	25.766	995.918	801.160
110.133	25.803	995.419	800.850
111.147	25.584	994.975	799.449
112.162	25.617	994.431	799.090
113.176	26.112	992.832	799.929
114.191	25.541	992.243	796.851
115.206	25.502	991.146	795.729
116.220	25.657	989.661	795.151
117.235	25.720	988.924	794.765
118.249	25.642	988.809	794.257
119.264	25.709	987.770	793.650
120.279	25.765	986.983	793.192
121.293	25.721	986.216	792.312
122.308	25.462	985.365	790.420
123.322	25.701	984.505	790.710
124.337	25.376	983.789	788.641
125.352	24.768	981.431	784.016
126.366	24.857	980.421	783.529
127.381	25.777	980.501	787.549
128.395	26.116	980.106	788.643
129.410	26.378	979.147	788.945
130.424	26.271	978.387	787.796
131.439	26.350	977.680	787.503
132.454	26.368	977.090	787.034
133.468	26.214	975.892	785.330
134.483	26.247	975.326	784.950
135.497	26.653	974.380	785.883
136.512	26.227	973.269	783.067
137.527	26.566	973.022	784.268
138.541	26.355	971.285	781.887
139.556	26.251	971.753	781.745
140.570	26.981	969.757	783.220
141.585	26.406	969.539	780.493
142.600	26.349	969.064	779.797
143.614	26.718	968.366	780.757
144.629	26.860	967.288	780.430
145.643	26.803	965.571	778.729
146.658	26.470	964.582	776.437
147.673	26.324	964.027	775.292
148.687	26.376	963.260	774.831
149.702	26.129	963.079	773.559
150.716	26.316	960.053	771.860
151.731	26.371	959.720	771.757
152.746	26.161	960.954	771.785
153.760	26.416	960.201	772.199
154.775	27.066	959.162	774.066
155.789	26.614	958.555	771.582
156.804	26.479	956.492	769.278
157.819	26.574	956.539	769.652
158.833	26.811	954.470	768.925
159.848	26.789	954.640	768.904
160.862	26.611	953.299	766.998
161.877	26.669	952.459	766.500
162.892	26.891	950.831	766.060
163.906	26.754	949.616	764.436
164.921	26.390	949.044	762.373
165.935	26.640	948.506	762.928
166.950	26.696	947.322	762.142
167.964	26.546	947.612	761.677
168.979	26.178	945.959	758.734
169.994	26.557	944.400	759.007
171.008	26.597	944.723	759.367
172.023	26.669	943.832	758.885
173.037	26.611	942.377	757.407
174.052	26.462	940.944	755.567
175.067	26.460	941.340	755.810
176.081	26.368	941.594	755.561
177.096	26.351	939.872	754.040
178.110	26.427	939.265	753.805
179.125	25.808	938.438	750.496
180.140	25.769	938.258	750.122
181.154	26.139	938.306	751.637
182.169	26.440	938.196	752.734
183.183	26.649	936.743	752.368
184.198	26.975	935.679	752.802
185.213	26.453	935.881	750.732
186.227	26.485	935.790	750.726
187.242	26.665	934.258	750.173
188.256	26.560	934.243	749.660
189.271	26.898	932.814	749.846
190.286	26.446	932.113	747.349
191.300	25.590	930.516	742.471
192.315	24.872	928.668	737.972
193.329	25.113	927.339	737.843
194.344	26.053	929.492	743.363
195.359	26.286	929.204	744.028
196.373	26.400	928.083	743.535
197.388	26.348	928.178	743.331
198.402	26.323	927.427	742.561
199.417	26.482	926.265	742.215
200.432	26.426	925.157	741.035
201.446	26.010	924.868	739.033
202.461	26.002	924.378	738.541
203.475	25.198	922.741	733.880
204.490	24.543	921.133	729.862
205.504	25.650	921.306	734.457
206.519	26.193	920.942	736.316
207.534	26.175	921.119	736.318
208.548	26.872	920.600	738.678
209.563	26.000	919.767	734.394
210.577	26.470	920.063	736.482
211.592	26.740	918.958	736.627
212.607	26.648	918.013	735.431
213.621	26.528	917.827	734.729
214.636	26.835	917.025	735.269
215.650	26.700	917.127	734.738
216.665	27.144	915.075	734.827
217.680	26.422	915.043	731.816
218.694	26.109	913.415	729.184
219.709	26.139	913.371	729.205
220.723	26.214	913.151	729.267
221.738	26.610	912.062	729.929
222.753	26.768	911.483	730.037
223.767	26.808	910.829	729.609
224.782	26.678	910.474	728.738
225.796	26.692	910.250	728.552
226.811	26.300	908.089	725.185
227.826	25.530	907.003	721.165
228.840	25.709	906.390	721.332
229.855	25.691	905.486	720.476
230.869	25.394	904.694	718.593
231.884	26.000	904.614	720.889
232.899	26.149	905.585	722.198
233.913	26.371	904.575	722.215
234.928	26.412	903.624	721.553
235.942	26.400	903.028	720.966
236.957	25.962	902.662	718.866
237.972	26.277	901.498	719.130
238.986	26.396	901.566	719.593
240.001	25.964	902.649	718.672
241.015	26.121	900.945	717.875
242.030	26.627	899.621	718.766
243.045	26.363	899.450	717.520
244.059	26.672	899.159	718.448
245.074	26.376	898.646	716.803
246.088	26.273	896.188	714.369
247.103	26.386	897.098	715.481
248.117	26.882	897.478	717.684
249.132	27.119	897.018	718.188
250.147	27.317	896.457	718.458
251.161	27.585	895.807	718.931
252.176	27.438	894.681	717.382
253.190	27.514	894.770	717.689
254.205	27.668	894.075	717.675
255.220	27.393	894.276	716.693
256.234	27.393	892.538	715.234
257.249	27.345	892.191	714.704
258.263	27.093	891.842	713.372
259.278	27.272	890.698	713.095
260.293	27.379	890.564	713.347
261.307	27.478	889.007	712.424
262.322	27.261	888.558	711.153
263.336	26.467	886.835	706.611
264.351	25.269	884.814	700.264
265.366	25.633	883.872	700.876
266.380	26.596	885.370	705.756
267.395	27.127	885.055	707.514
268.409	26.840	884.380	705.794
269.424	26.806	884.577	705.758
270.439	26.962	883.669	705.576
271.453	27.188	882.909	705.785
272.468	27.378	882.101	705.814
273.482	27.398	882.350	706.028
274.497	27.005	880.672	703.100
275.512	26.933	879.538	701.855
276.526	26.910	880.635	702.578
277.541	27.111	879.985	702.774
278.555	26.878	878.398	700.548
279.570	26.977	877.473	700.127
280.585	27.116	877.255	700.427
281.599	27.228	876.380	700.097
282.614	26.306	874.830	695.253
283.628	27.019	874.192	697.422
284.643	26.898	874.666	697.275
285.657	26.602	873.255	694.954
286.672	26.118	872.267	692.249
287.687	26.725	872.420	694.638
288.701	26.833	871.825	694.516
289.716	26.508	871.318	692.805
290.730	26.519	869.329	691.207
291.745	26.190	869.582	690.090
292.760	26.341	869.539	690.571
293.774	27.563	870.087	695.612
294.789	28.035	869.157	696.606
295.803	27.693	869.300	695.354
296.818	27.834	867.997	694.787
297.833	27.464	867.009	692.531
298.847	27.086	867.143	691.136
299.862	27.381	866.871	691.982
300.876	28.106	865.930	693.921
301.891	27.685	865.037	691.550
302.906	27.292	864.801	689.807
303.920	27.464	864.877	690.459
304.935	27.644	865.081	691.245
305.949	27.711	863.512	690.182
306.964	27.306	862.145	687.500
307.979	27.489	862.068	688.066
308.993	27.960	861.439	689.282
310.008	27.960	861.247	689.070
311.022	27.547	860.900	687.173
312.037	27.464	860.768	686.694
313.052	26.908	859.116	683.222
314.066	26.232	857.737	679.521
315.081	26.003	856.917	677.951
316.095	26.594	857.544	680.608
317.110	27.803	856.321	684.112
318.125	26.654	855.379	678.996
319.139	25.377	854.766	673.665
320.154	25.279	854.801	673.262
321.168	26.299	854.561	676.839
322.183	26.971	854.438	679.197
323.197	27.292	853.724	679.769
324.212	27.473	853.302	680.046
325.227	27.593	852.859	680.083
326.241	27.298	852.563	678.686
327.256	27.152	851.348	677.114
328.270	26.985	851.058	676.201
329.285	26.641	850.754	674.619
330.300	26.938	848.671	674.009
331.314	27.091	848.578	674.445
332.329	27.700	848.670	676.721
333.343	27.549	848.941	676.316
334.358	27.638	848.178	675.978
335.373	27.714	847.363	675.548
336.387	27.878	847.819	676.461
337.402	27.886	847.297	676.013
338.416	28.295	846.712	677.000
339.431	28.379	847.432	677.825
340.446	28.287	847.072	677.137
341.460	27.796	846.495	674.803
342.475	27.779	845.551	673.927
343.489	28.194	844.380	674.463
344.504	28.269	844.000	674.378
345.519	28.661	843.963	675.730
346.533	28.859	843.730	676.213
347.548	28.534	843.091	674.446
348.562	28.235	842.900	673.134
349.577	28.059	842.095	671.784
350.592	28.401	841.117	672.202
351.606	28.313	842.023	672.541
352.621	28.114	840.073	670.197
353.635	28.204	838.744	669.408
354.650	27.362	838.806	666.316
355.665	26.807	836.484	662.383
356.679	27.091	836.331	663.241
357.694	27.387	836.167	664.133
358.708	26.958	835.297	661.821
359.723	27.786	834.944	664.497
360.738	28.031	835.212	665.545
361.752	28.006	834.737	665.017
362.767	28.285	834.713	665.953
363.781	28.516	833.656	665.891
364.796	28.708	834.441	667.155
365.810	28.930	833.172	666.886
366.825	28.619	831.854	664.647
367.840	28.735	831.629	664.827
368.854	28.165	830.930	662.150
369.869	28.240	830.188	661.770
370.883	28.124	829.740	660.935
371.898	27.814	830.202	660.125
372.913	28.182	829.311	660.687
373.927	28.344	828.941	660.916
374.942	28.445	828.473	660.848
375.956	28.494	828.144	660.704
376.971	28.786	827.949	661.543
377.986	28.269	827.608	659.351
379.000	28.638	826.867	660.028
380.015	28.669	825.341	658.863
381.029	28.600	826.088	659.153
382.044	29.034	824.629	659.488
383.059	28.680	824.722	658.235
384.073	28.911	823.711	658.196
385.088	28.516	823.515	656.568
386.102	28.474	822.717	655.725
387.117	28.308	822.694	655.054
388.132	27.879	821.362	652.404
389.146	27.781	818.926	650.061
390.161	27.751	820.281	650.973
391.175	28.263	820.381	652.820
392.190	28.051	819.250	651.106
393.205	26.688	816.493	644.018
394.219	25.167	815.448	637.730
395.234	25.079	815.444	637.360
396.248	26.788	815.666	643.550
397.263	28.056	817.033	649.074
398.278	27.984	816.797	648.573
399.292	28.266	815.852	648.766
400.307	28.027	815.291	647.418
401.321	28.025	816.316	648.167
402.336	28.696	815.005	649.443
403.350	29.095	814.810	650.641
404.365	28.907	815.429	650.410
405.380	28.945	815.367	650.438
406.394	28.925	815.046	650.053
407.409	29.594	813.864	651.416
408.423	29.221	812.680	649.093
409.438	29.300	813.644	650.089
410.453	29.423	812.834	649.814
411.467	29.022	811.765	647.491
412.482	29.585	810.454	648.366
413.496	29.526	811.583	649.004
414.511	29.644	811.318	649.150
415.526	29.529	809.862	647.526
416.540	29.076	809.815	645.841
417.555	29.094	808.257	644.604
418.569	29.068	808.327	644.511
419.584	29.011	808.038	644.023
420.599	28.831	807.585	642.977
421.613	159.263	1371.277	1792.065
422.628	138.445	1453.388	1792.112
