DTS Sentinel unit serial number:	SN413079Multiplexer serial number:	ORYXHardware model number:	OX4-SRSoftware version number:	ORYX F/W v4.00 Oryx Data Collector v3.7.2.0data status	okinstallation	princeton_trtdifferential loss correction	single-endedforward channel	channel 1reverse channel	N/Adate	2019/09/18time	19:18:35forward acquisition time	60.00reverse acquisition time	0.00gamma	496.2192k internal	0.2319k external	0.2319temperature offset calibration	1.0034default loss term (dB/km)	0.3790temperature slope calibration	1.0000multiplexer offset coefficient	1.0000multiplexer slope coefficient	1.0000fibre end	0.00T internal ref (°C)	34.09T ext. ref 1 (°C)	1.09T ext. ref 2 (°C)	23.39length (m)	temperature (°C)	Stokes	anti-Stokes-747.200	717.647	-0.127	0.340
-746.185	800.000	0.159	0.637
-745.171	60.810	0.115	-0.116
-744.156	800.000	-0.056	0.197
-743.142	-200.000	-0.027	-0.284
-742.127	243.920	-0.211	0.358
-741.112	472.971	-0.158	0.360
-740.098	-200.000	-0.007	0.041
-739.083	-36.055	0.363	-0.199
-738.069	800.000	-0.036	0.134
-737.054	46.061	-0.191	-0.179
-736.039	219.344	0.108	-0.175
-735.025	800.000	0.073	0.232
-734.010	-33.004	-0.434	-0.244
-732.996	-31.911	0.165	-0.094
-731.981	800.000	-0.081	0.269
-730.966	56.938	0.309	-0.304
-729.952	-67.249	-0.080	0.032
-728.937	215.075	0.141	-0.227
-727.923	-7.454	0.099	-0.068
-726.908	-141.785	0.153	-0.016
-725.894	47.325	-0.269	-0.253
-724.879	-20.894	-0.139	-0.086
-723.864	800.000	0.080	-0.307
-722.850	-4.277	0.039	-0.027
-721.835	-200.000	-0.011	0.072
-720.821	24.177	-0.086	-0.072
-719.806	374.481	-0.068	-0.140
-718.791	397.167	-0.047	0.100
-717.777	-18.707	0.233	-0.147
-716.762	-200.000	0.012	-0.172
-715.748	800.000	0.032	0.113
-714.733	-173.988	0.261	0.008
-713.718	144.798	0.156	-0.211
-712.704	438.174	-0.015	-0.034
-711.689	-200.000	0.065	0.334
-710.675	691.516	-0.067	-0.179
-709.660	-88.115	0.206	0.062
-708.645	-55.145	0.076	0.035
-707.631	-29.057	0.389	0.225
-706.616	579.980	-0.171	-0.424
-705.602	132.616	-0.265	-0.345
-704.587	196.046	-0.242	-0.372
-703.572	-50.379	-0.333	0.159
-702.558	58.996	-0.330	0.328
-701.543	-89.939	0.308	-0.091
-700.529	65.085	-0.257	0.262
-699.514	365.653	0.044	-0.089
-698.499	-114.437	0.119	-0.023
-697.485	6.679	-0.157	-0.118
-696.470	221.294	0.178	0.289
-695.456	-94.309	-0.114	0.032
-694.441	800.000	0.124	0.516
-693.426	-114.097	0.506	0.099
-692.412	-122.864	-0.335	-0.055
-691.397	-200.000	-0.033	-0.224
-690.383	-109.010	-0.155	0.033
-689.368	-0.902	0.250	0.179
-688.354	18.985	-0.128	-0.103
-687.339	211.492	-0.196	-0.311
-686.324	-76.879	0.209	-0.074
-685.310	-200.000	-0.008	-0.201
-684.295	103.348	-0.216	-0.256
-683.281	225.391	-0.033	0.054
-682.266	-54.624	-0.253	-0.116
-681.251	6.134	-0.197	-0.147
-680.237	73.275	0.224	0.237
-679.222	49.981	0.183	-0.175
-678.208	384.427	0.173	0.359
-677.193	88.778	-0.157	-0.176
-676.178	48.440	0.083	0.079
-675.164	34.437	0.274	-0.242
-674.149	-76.935	0.120	0.042
-673.135	16.629	0.256	0.204
-672.120	800.000	0.061	0.195
-671.105	-77.123	0.131	0.046
-670.091	178.068	-0.139	0.204
-669.076	184.938	0.078	0.117
-668.062	-188.036	-0.385	-0.005
-667.047	331.293	0.120	-0.233
-666.032	341.713	-0.057	-0.113
-665.018	371.673	-0.053	-0.108
-664.003	-76.660	0.294	0.104
-662.989	-169.045	-0.383	-0.014
-661.974	800.000	0.021	0.083
-660.959	-6.766	-0.171	0.117
-659.945	276.140	-0.078	-0.139
-658.930	-200.000	0.003	-0.171
-657.916	-141.230	-0.036	-0.004
-656.901	-137.096	-0.232	-0.027
-655.886	285.214	0.233	-0.424
-654.872	127.581	0.105	-0.135
-653.857	80.375	0.258	-0.280
-652.843	299.558	0.065	-0.121
-651.828	423.637	0.063	-0.137
-650.814	165.296	-0.123	0.174
-649.799	800.000	-0.085	0.287
-648.784	493.649	-0.034	-0.079
-647.770	800.000	-0.049	-0.158
-646.755	-54.441	0.304	-0.139
-645.741	-22.255	-0.175	-0.107
-644.726	181.227	-0.124	-0.184
-643.711	-200.000	0.002	-0.332
-642.697	-92.890	0.135	0.038
-641.682	-13.949	-0.106	0.069
-640.668	45.117	-0.103	-0.096
-639.653	800.000	0.036	-0.142
-638.638	-127.800	-0.244	0.035
-637.624	85.372	-0.159	0.176
-636.609	-200.000	-0.073	-0.343
-635.595	-133.490	-0.238	-0.030
-634.580	-200.000	0.028	0.250
-633.565	341.378	0.147	0.289
-632.551	-200.000	0.026	-0.123
-631.536	-200.000	0.043	-0.385
-630.522	-92.015	-0.106	-0.030
-629.507	-200.000	0.008	-0.063
-628.492	800.000	-0.095	-0.377
-627.478	262.077	-0.070	0.123
-626.463	211.920	-0.124	0.196
-625.449	800.000	-0.065	-0.203
-624.434	-181.051	-0.287	-0.006
-623.419	300.263	0.131	0.243
-622.405	187.956	-0.149	-0.224
-621.390	5.551	-0.398	-0.296
-620.376	-117.714	0.132	0.024
-619.361	251.472	-0.101	0.173
-618.346	-17.565	-0.147	-0.093
-617.332	-101.300	-0.172	0.042
-616.317	-200.000	-0.055	0.509
-615.303	-74.738	-0.084	-0.031
-614.288	67.617	-0.107	0.110
-613.273	206.857	0.182	0.285
-612.259	59.327	-0.203	0.201
-611.244	-200.000	-0.001	-0.025
-610.230	-200.000	0.008	-0.139
-609.215	-200.000	0.043	-0.193
-608.201	-38.843	-0.337	0.179
-607.186	226.218	0.057	0.092
-606.171	3.934	0.255	-0.188
-605.157	60.279	0.160	0.159
-604.142	-67.335	-0.178	0.070
-603.128	-200.000	-0.029	-0.470
-602.113	-137.541	-0.366	-0.042
-601.098	-0.473	0.239	-0.171
-600.084	134.912	0.189	-0.246
-599.069	36.383	0.191	-0.170
-598.055	-186.743	0.441	0.006
-597.040	16.587	-0.299	0.237
-596.025	497.653	-0.084	0.195
-595.011	-83.511	0.356	-0.114
-593.996	-73.392	0.197	0.073
-592.982	678.780	-0.037	-0.096
-591.967	95.541	0.305	-0.350
-590.952	-200.000	0.007	0.050
-589.938	-178.988	-0.150	0.003
-588.923	205.155	-0.050	0.078
-587.909	-70.863	0.314	-0.119
-586.894	-54.258	0.356	-0.163
-585.879	1.586	0.096	0.070
-584.865	150.292	-0.151	-0.206
-583.850	-142.522	-0.137	-0.014
-582.836	77.551	0.239	0.256
-581.821	14.291	-0.274	0.215
-580.806	-13.790	-0.176	0.114
-579.792	133.269	-0.151	0.197
-578.777	-84.738	-0.319	0.101
-577.763	24.857	0.160	-0.134
-576.748	-77.443	0.094	0.033
-575.733	-200.000	0.036	-0.172
-574.719	-200.000	0.008	-0.224
-573.704	-126.897	-0.309	0.046
-572.690	78.512	-0.129	0.139
-571.675	93.043	0.091	0.104
-570.661	800.000	0.116	0.349
-569.646	-157.731	-0.370	0.022
-568.631	-2.400	-0.252	-0.177
-567.617	-200.000	0.007	-0.277
-566.602	278.645	0.119	0.213
-565.588	-125.099	0.234	-0.036
-564.573	-115.979	-0.322	-0.060
-563.558	800.000	-0.046	0.163
-562.544	-80.341	-0.201	-0.067
-561.529	53.873	-0.480	0.463
-560.515	-31.940	-0.307	-0.173
-559.500	-27.659	0.075	-0.044
-558.485	25.409	0.090	-0.075
-557.471	649.722	-0.120	-0.308
-556.456	-200.000	-0.033	0.193
-555.442	98.319	-0.059	0.068
-554.427	-155.813	0.343	0.022
-553.412	-65.472	0.218	0.088
-552.398	800.000	0.055	-0.194
-551.383	-200.000	0.032	0.195
-550.369	-133.372	0.216	0.027
-549.354	-200.000	-0.334	0.001
-548.339	-191.028	-0.110	-0.001
-547.325	-55.969	0.150	0.067
-546.310	-65.591	-0.302	-0.122
-545.296	262.875	0.060	0.104
-544.281	-81.465	0.091	0.030
-543.266	253.226	0.187	-0.320
-542.252	87.400	-0.074	0.083
-541.237	-132.928	-0.283	0.036
-540.223	-17.524	0.182	0.115
-539.208	122.582	-0.033	0.042
-538.193	-200.000	-0.018	-0.134
-537.179	-125.657	-0.179	-0.027
-536.164	-142.074	0.102	0.010
-535.150	-200.000	-0.013	0.114
-534.135	429.123	0.148	0.322
-533.121	467.858	0.168	-0.378
-532.106	-74.669	0.279	-0.101
-531.091	-17.768	-0.404	-0.255
-530.077	800.000	0.072	0.238
-529.062	-62.785	-0.096	0.040
-528.048	-94.233	0.263	0.072
-527.033	64.448	0.312	0.315
-526.018	-80.608	-0.307	0.102
-525.004	-19.784	0.012	-0.008
-523.989	551.023	-0.119	0.287
-522.975	-4.247	0.198	0.137
-521.960	-65.733	0.223	0.090
-520.945	789.984	0.076	0.211
-519.931	-200.000	0.023	-0.102
-518.916	800.000	0.068	0.213
-517.902	-164.866	-0.235	0.011
-516.887	-59.593	0.251	0.108
-515.872	202.427	0.120	0.185
-514.858	-3.966	-0.170	0.118
-513.843	800.000	-0.030	0.097
-512.829	-200.000	0.011	-0.529
-511.814	303.223	-0.185	-0.343
-510.799	596.518	-0.078	-0.194
-509.785	-63.314	-0.328	0.135
-508.770	800.000	-0.089	-0.268
-507.756	375.369	-0.082	-0.169
-506.741	10.322	-0.226	-0.173
-505.726	-92.383	-0.121	-0.034
-504.712	75.060	-0.125	-0.132
-503.697	120.315	-0.166	0.206
-502.683	136.001	0.139	0.182
-501.668	233.599	0.111	-0.183
-500.653	-58.958	-0.309	0.134
-499.639	800.000	-0.029	0.107
-498.624	-85.260	0.422	0.132
-497.610	71.947	0.175	0.183
-496.595	-91.769	0.211	-0.060
-495.581	-197.088	-0.178	-0.001
-494.566	-66.514	-0.173	0.069
-493.551	-29.681	-0.135	0.077
-492.537	266.448	0.238	-0.417
-491.522	280.729	-0.178	0.320
-490.508	24.930	-0.156	-0.129
-489.493	-200.000	-0.062	-0.360
-488.478	-87.486	0.060	0.018
-487.464	21.154	-0.168	-0.137
-486.449	-145.169	-0.065	-0.006
-485.435	-200.000	-0.004	-0.168
-484.420	211.246	-0.050	0.079
-483.405	-16.819	-0.193	0.122
-482.391	165.767	-0.188	0.266
-481.376	-141.888	0.369	0.037
-480.362	574.582	0.010	0.025
-479.347	473.562	-0.117	-0.263
-478.332	-200.000	0.001	0.106
-477.318	-200.000	-0.041	0.260
-476.303	-30.265	-0.388	-0.221
-475.289	-151.011	-0.064	-0.005
-474.274	5.693	0.103	-0.077
-473.259	800.000	-0.023	-0.064
-472.245	1.516	0.088	-0.064
-471.230	800.000	0.059	0.235
-470.216	-104.078	0.256	-0.060
-469.201	144.979	0.153	0.205
-468.186	-105.611	0.132	-0.030
-467.172	-43.408	-0.407	-0.206
-466.157	-96.996	0.304	-0.080
-465.143	249.441	0.088	-0.149
-464.128	-70.575	0.019	0.007
-463.113	-200.000	-0.048	0.307
-462.099	-200.000	0.001	-0.052
-461.084	-200.000	0.001	-0.043
-460.070	116.509	0.187	-0.229
-459.055	-200.000	0.015	0.079
-458.040	88.871	-0.065	0.072
-457.026	-200.000	0.014	-0.309
-456.011	-34.357	0.132	0.072
-454.997	798.376	-0.112	0.310
-453.982	314.628	-0.045	-0.085
-452.968	405.629	0.127	0.267
-451.953	208.649	0.198	0.310
-450.938	563.163	-0.078	0.190
-449.924	-8.481	-0.334	-0.224
-448.909	72.156	0.164	-0.170
-447.895	-183.885	0.326	-0.005
-446.880	-153.135	0.045	0.003
-445.865	-100.294	0.244	0.061
-444.851	570.118	-0.069	0.167
-443.836	76.209	-0.123	-0.130
-442.822	-22.864	0.054	-0.033
-441.807	-136.934	0.492	0.056
-440.792	-171.731	-0.310	-0.010
-439.778	512.832	0.060	-0.139
-438.763	118.513	0.111	-0.137
-437.749	171.795	-0.137	-0.196
-436.734	-116.203	0.321	-0.059
-435.719	1.415	0.123	-0.088
-434.705	800.000	0.079	0.338
-433.690	-143.765	-0.293	0.028
-432.676	-200.000	0.027	0.226
-431.661	-139.110	-0.131	-0.014
-430.646	126.028	0.061	-0.077
-429.632	48.128	-0.253	-0.236
-428.617	93.374	-0.165	-0.186
-427.603	-38.763	0.040	0.021
-426.588	-126.326	0.128	0.019
-425.573	-200.000	0.028	0.156
-424.559	-200.000	-0.022	0.122
-423.544	-9.193	0.198	-0.132
-422.530	-113.332	-0.135	-0.027
-421.515	-200.000	-0.045	-0.219
-420.500	-28.095	-0.119	0.069
-419.486	156.719	-0.243	-0.335
-418.471	669.742	0.130	-0.336
-417.457	50.273	0.196	-0.185
-416.442	36.786	-0.238	-0.210
-415.428	-69.557	-0.068	-0.026
-414.413	-104.711	0.243	-0.056
-413.398	784.737	0.047	0.128
-412.384	-200.000	-0.001	-0.462
-411.369	-200.000	0.024	0.218
-410.355	-1.304	0.151	0.106
-409.340	-200.000	-0.041	0.537
-408.325	33.711	-0.269	-0.234
-407.311	-200.000	0.001	0.245
-406.296	-200.000	0.050	0.281
-405.282	-80.439	-0.432	-0.144
-404.267	-155.559	0.139	0.009
-403.252	213.988	0.082	0.130
-402.238	-155.924	-0.092	0.006
-401.223	800.000	0.021	0.073
-400.209	-74.877	-0.116	0.042
-399.194	-34.032	0.287	0.158
-398.179	-52.950	-0.079	0.036
-397.165	9.270	0.194	-0.147
-396.150	800.000	0.039	-0.154
-395.136	450.643	-0.068	-0.149
-394.121	-100.239	0.188	-0.047
-393.106	-55.055	0.115	0.052
-392.092	-108.242	0.182	-0.039
-391.077	-49.685	0.357	-0.169
-390.063	-154.482	0.335	-0.022
-389.048	77.090	-0.178	0.189
-388.033	-200.000	0.025	0.119
-387.019	-200.000	-0.013	0.399
-386.004	-18.917	-0.066	-0.041
-384.990	-200.000	0.009	-0.071
-383.975	-200.000	0.004	0.137
-382.960	-10.475	0.221	0.146
-381.946	79.653	-0.170	-0.182
-380.931	-49.819	0.094	-0.045
-379.917	-125.595	0.174	0.026
-378.902	-140.248	0.290	-0.030
-377.888	-97.938	0.105	-0.027
-376.873	-200.000	-0.042	0.000
-375.858	-25.949	0.276	-0.162
-374.844	-200.000	0.011	0.074
-373.829	9.653	-0.186	0.141
-372.815	-117.312	-0.103	-0.019
-371.800	32.050	-0.225	0.194
-370.785	-200.000	0.063	0.427
-369.771	-23.881	-0.152	-0.090
-368.756	-200.000	-0.072	-0.355
-367.742	-5.075	-0.159	-0.109
-366.727	-200.000	-0.007	0.037
-365.712	93.722	0.263	0.297
-364.698	137.827	0.186	0.242
-363.683	54.853	-0.190	0.183
-362.669	-200.000	-0.004	-0.067
-361.654	-200.000	0.023	-0.163
-360.639	800.000	-0.025	-0.092
-359.625	-111.376	0.257	0.052
-358.610	-200.000	0.060	0.584
-357.596	82.041	-0.170	0.183
-356.581	96.214	0.108	0.123
-355.566	-103.902	-0.072	0.017
-354.552	-22.799	0.112	0.067
-353.537	-54.814	0.057	0.026
-352.523	-200.000	0.009	0.188
-351.508	489.214	-0.171	-0.389
-350.493	-95.459	0.184	0.049
-349.479	346.676	0.071	0.140
-348.464	31.916	-0.146	0.125
-347.450	-200.000	0.002	0.326
-346.435	-105.946	-0.091	-0.020
-345.420	-200.000	-0.028	0.168
-344.406	284.495	-0.181	0.325
-343.391	-200.000	-0.152	-0.001
-342.377	-200.000	-0.016	-0.304
-341.362	-127.765	-0.276	-0.040
-340.348	-70.507	0.089	0.034
-339.333	-9.410	0.379	-0.252
-338.318	-163.411	0.266	-0.013
-337.304	162.950	0.145	0.203
-336.289	-200.000	0.040	0.213
-335.275	111.752	-0.161	-0.193
-334.260	335.286	-0.102	-0.197
-333.245	-6.886	0.029	-0.019
-332.231	-193.902	-0.391	0.003
-331.216	-155.798	0.151	-0.010
-330.202	141.741	0.197	-0.259
-329.187	116.710	-0.042	-0.051
-328.172	-170.452	-0.269	0.009
-327.158	70.356	0.293	-0.302
-326.143	136.487	-0.148	-0.192
-325.129	-200.000	0.011	-0.473
-324.114	-108.573	-0.106	-0.023
-323.099	187.399	-0.076	0.113
-322.085	-200.000	-0.024	0.124
-321.070	-78.898	0.236	0.080
-320.056	398.466	0.046	-0.095
-319.041	53.830	-0.128	-0.122
-318.026	-156.042	-0.261	0.016
-317.012	-200.000	0.032	0.346
-315.997	-143.713	0.356	0.034
-314.983	-133.366	0.135	-0.017
-313.968	291.357	-0.078	0.142
-312.953	-200.000	-0.050	0.329
-311.939	276.279	0.291	0.515
-310.924	-112.514	-0.088	0.017
-309.910	-185.754	-0.498	-0.007
-308.895	-168.013	-0.117	-0.005
-307.880	-75.953	0.150	0.053
-306.866	-98.412	0.262	0.067
-305.851	238.656	-0.195	0.323
-304.837	-200.000	-0.020	-0.106
-303.822	311.057	-0.097	0.181
-302.807	-115.964	-0.259	0.048
-301.793	-159.052	0.179	0.010
-300.778	-200.000	-0.001	0.108
-299.764	-132.581	0.156	0.020
-298.749	-189.499	-0.292	-0.003
-297.735	22.236	-0.153	-0.124
-296.720	-126.341	-0.179	0.027
-295.705	312.486	0.158	0.294
-294.691	-55.401	0.100	0.045
-293.676	107.653	-0.237	-0.280
-292.662	25.718	-0.060	0.050
-291.647	22.664	-0.120	-0.098
-290.632	-200.000	-0.006	-0.196
-289.618	647.554	-0.043	0.110
-288.603	416.504	-0.039	0.083
-287.589	-46.073	0.132	0.065
-286.574	-98.166	-0.164	-0.042
-285.559	-43.263	-0.140	-0.070
-284.545	419.285	0.084	0.179
-283.530	8.533	0.048	-0.036
-282.516	800.000	-0.060	-0.166
-281.501	-155.576	0.420	0.027
-280.486	800.000	0.052	-0.168
-279.472	-84.342	-0.177	0.055
-278.457	-86.797	0.015	-0.005
-277.443	-58.435	-0.149	-0.064
-276.428	105.945	-0.157	-0.185
-275.413	-101.544	-0.217	0.053
-274.399	-200.000	-0.009	0.058
-273.384	40.808	0.115	0.103
-272.370	-200.000	0.021	-0.258
-271.355	-55.015	-0.077	0.035
-270.340	-23.312	0.322	0.192
-269.326	-135.185	0.200	0.024
-268.311	800.000	0.076	-0.240
-267.297	259.759	0.018	-0.031
-266.282	800.000	-0.028	-0.119
-265.267	123.368	-0.078	-0.097
-264.253	177.068	-0.193	-0.278
-263.238	170.474	-0.171	-0.243
-262.224	-39.370	0.361	-0.188
-261.209	-99.733	-0.055	0.014
-260.195	2.260	-0.185	-0.132
-259.180	138.368	0.068	0.089
-258.165	-73.862	0.103	0.037
-257.151	-91.664	0.052	0.015
-256.136	138.070	0.228	0.296
-255.122	6.950	0.061	0.045
-254.107	-153.556	0.146	-0.010
-253.092	45.147	-0.119	-0.109
-252.078	-115.433	-0.221	0.041
-251.063	-141.504	0.061	0.006
-250.049	-163.138	0.331	-0.016
-249.034	133.741	-0.104	0.133
-248.019	800.000	-0.101	0.365
-247.005	-74.967	-0.212	0.076
-245.990	-15.322	0.059	0.038
-244.976	-200.000	0.027	-0.309
-243.961	283.509	0.134	0.239
-242.946	-119.800	-0.345	-0.059
-241.932	-80.947	0.337	-0.111
-240.917	306.937	0.181	0.334
-239.903	-200.000	-0.021	0.362
-238.888	-76.538	-0.196	-0.068
-237.873	631.666	0.205	-0.515
-236.859	12.458	0.203	0.155
-235.844	-200.000	0.013	-0.153
-234.830	800.000	0.116	-0.414
-233.815	-133.201	0.297	-0.037
-232.800	-200.000	-0.037	-0.169
-231.786	-200.000	0.022	-0.245
-230.771	-200.000	0.011	-0.051
-229.757	-34.690	0.153	-0.083
-228.742	53.789	0.206	-0.196
-227.727	61.663	-0.322	0.318
-226.713	-135.537	0.190	0.022
-225.698	-200.000	-0.005	-0.135
-224.684	-65.708	-0.122	0.048
-223.669	-69.005	0.418	0.160
-222.655	-68.284	0.174	0.067
-221.640	-200.000	0.002	-0.160
-220.625	-200.000	0.125	-0.564
-219.611	-145.353	0.075	0.007
-218.596	-36.011	0.144	0.077
-217.582	-149.376	-0.137	-0.011
-216.567	-200.000	0.037	-0.278
-215.552	130.237	-0.076	0.097
-214.538	97.331	0.009	-0.011
-213.523	-200.000	0.073	-0.462
-212.509	-86.959	-0.128	-0.039
-211.494	8.811	0.069	0.052
-210.479	9.315	-0.177	0.133
-209.465	800.000	0.040	-0.167
-208.450	691.440	-0.067	0.175
-207.436	709.057	-0.115	0.301
-206.421	-68.580	-0.066	-0.025
-205.406	-23.948	-0.232	0.138
-204.392	-84.017	-0.350	0.110
-203.377	264.314	-0.032	-0.055
-202.363	276.471	-0.198	-0.348
-201.348	120.010	0.261	-0.320
-200.333	374.367	0.056	0.113
-199.319	122.353	0.107	-0.133
-198.304	-79.689	0.307	-0.102
-197.290	436.478	-0.161	0.347
-196.275	683.775	0.182	0.470
-195.260	-54.585	0.374	0.168
-194.246	116.827	0.090	0.109
-193.231	-81.875	-0.203	0.066
-192.217	24.992	0.090	0.074
-191.202	-107.038	0.108	-0.024
-190.187	800.000	-0.027	0.073
-189.173	-130.172	-0.180	-0.024
-188.158	5.356	0.330	-0.241
-187.144	-156.327	0.394	-0.024
-186.129	-184.697	0.187	-0.003
-185.114	-62.455	0.253	0.104
-184.100	11.374	0.252	-0.191
-183.085	241.107	0.168	-0.278
-182.071	203.418	-0.111	-0.170
-181.056	603.374	-0.139	0.341
-180.042	-115.110	0.144	0.027
-179.027	128.737	-0.140	0.177
-178.012	-200.000	-0.012	0.153
-176.998	-200.000	0.044	-0.204
-175.983	800.000	0.026	0.079
-174.969	-104.792	-0.125	-0.028
-173.954	539.015	-0.116	-0.273
-172.939	109.293	-0.116	-0.137
-171.925	782.405	0.125	0.340
-170.910	-172.775	-0.121	0.004
-169.896	-130.061	0.184	-0.025
-168.881	-112.481	0.234	-0.046
-167.866	68.516	0.205	-0.208
-166.852	-20.874	-0.121	-0.073
-165.837	-55.036	-0.220	-0.098
-164.823	234.927	-0.048	0.079
-163.808	-151.745	-0.365	-0.027
-162.793	103.638	0.114	0.133
-161.779	686.228	0.073	-0.188
-160.764	364.944	-0.127	-0.253
-159.750	67.498	0.212	0.214
-158.735	-90.707	-0.113	-0.032
-157.720	800.000	-0.085	0.252
-156.706	740.819	-0.092	0.244
-155.691	-62.632	-0.237	0.097
-154.677	-26.639	-0.201	0.116
-153.662	-10.489	0.019	-0.012
-152.647	-200.000	-0.002	-0.083
-151.633	-200.000	0.041	-0.178
-150.618	624.173	-0.159	-0.395
-149.604	-200.000	0.024	-0.148
-148.589	623.525	-0.109	0.270
-147.574	-200.000	-0.002	-0.098
-146.560	-123.299	0.180	-0.028
-145.545	355.635	0.061	-0.120
-144.531	66.207	-0.174	-0.175
-143.516	40.992	-0.115	0.103
-142.502	-200.000	0.016	0.070
-141.487	733.901	0.158	0.418
-140.472	77.427	0.104	0.110
-139.458	166.614	-0.081	0.113
-138.443	-200.000	-0.002	-0.488
-137.429	333.792	-0.041	-0.078
-136.414	599.778	-0.055	-0.134
-135.399	359.315	0.070	0.138
-134.385	-124.176	-0.303	-0.047
-133.370	45.985	0.229	0.209
-132.356	65.518	-0.085	-0.085
-131.341	-99.716	0.237	0.059
-130.326	-120.377	-0.048	0.008
-129.312	125.946	-0.141	-0.176
-128.297	-200.000	-0.096	0.000
-127.283	-62.167	0.223	0.092
-126.268	33.622	-0.241	-0.207
-125.253	800.000	-0.071	0.248
-124.239	-200.000	0.017	0.288
-123.224	-150.962	-0.092	-0.007
-122.210	75.467	0.132	-0.137
-121.195	-29.893	0.319	-0.179
-120.180	800.000	0.084	0.318
-119.166	39.821	0.131	0.116
-118.151	800.000	-0.035	0.107
-117.137	-18.472	0.170	0.105
-116.122	-9.566	-0.123	0.081
-115.107	-71.711	0.164	0.060
-114.093	-105.737	0.317	0.071
-113.078	132.593	-0.107	0.136
-112.064	800.000	0.100	-0.386
-111.049	532.061	0.046	0.107
-110.034	-10.278	0.190	0.124
-109.020	214.279	-0.151	-0.236
-108.005	0.381	0.188	-0.133
-106.991	552.262	0.052	0.123
-105.976	-200.000	0.366	-0.000
-104.962	35.664	-0.103	0.090
-103.947	800.000	-0.075	0.241
-102.932	-200.000	-0.020	-0.182
-101.918	10.234	-0.140	-0.105
-100.903	-79.272	0.316	0.106
-99.889	7.154	-0.277	0.204
-98.874	-17.730	0.217	0.134
-97.859	275.207	0.153	-0.268
-96.845	-61.767	-0.395	-0.163
-95.830	137.901	-0.200	-0.259
-94.816	-154.138	-0.067	-0.004
-93.801	-142.115	0.170	0.017
-92.786	61.103	-0.127	0.124
-91.772	262.164	0.054	0.093
-90.757	268.477	-0.078	0.135
-89.743	-102.709	-0.208	-0.049
-88.728	7.311	-0.088	0.065
-87.713	-40.111	-0.111	-0.057
-86.699	-41.370	0.261	0.132
-85.684	536.008	0.029	-0.067
-84.670	492.478	0.019	0.043
-83.655	146.146	0.172	-0.228
-82.640	-3.563	-0.386	0.265
-81.626	-10.535	0.205	-0.134
-80.611	-184.472	0.111	0.002
-79.597	309.636	-0.197	0.364
-78.582	-200.000	0.026	-0.160
-77.567	-116.156	0.144	0.026
-76.553	-0.282	-0.393	0.275
-75.538	-29.026	-0.243	-0.137
-74.524	-86.418	0.362	-0.110
-73.509	82.631	0.271	-0.290
-72.494	327.098	-0.208	0.393
-71.480	246.987	0.210	-0.348
-70.465	-10.852	0.336	0.219
-69.451	-120.605	-0.286	0.048
-68.436	210.155	0.181	0.280
-67.422	-200.000	-0.005	-0.375
-66.407	89.443	-0.122	0.134
-65.392	-200.000	0.011	0.076
-64.378	-55.441	0.150	0.066
-63.363	63.956	0.054	-0.054
-62.349	-200.000	0.032	0.159
-61.334	46.234	-1.023	-0.934
-60.319	30.851	0.689	0.582
-59.305	679.276	-0.401	-1.028
-58.290	166.424	0.623	0.869
-57.276	453.300	0.710	1.547
-56.261	-200.000	92.864	569.729
-55.246	561.644	1367.977	3257.659
-54.232	161.389	2544.282	3504.198
-53.217	113.012	2154.495	2571.709
-52.203	45.620	1620.887	1474.449
-51.188	37.562	1359.652	1187.829
-50.173	34.367	1317.829	1132.300
-49.159	56.062	1362.522	1301.998
-48.144	58.425	1380.028	1332.916
-47.130	37.694	1339.977	1171.246
-46.115	34.232	1322.640	1135.448
-45.100	34.040	1317.994	1130.272
-44.086	34.030	1315.374	1127.922
-43.071	33.919	1313.558	1125.665
-42.057	33.965	1310.980	1123.680
-41.042	33.892	1310.032	1122.396
-40.027	33.951	1308.530	1121.408
-39.013	33.948	1306.367	1119.495
-37.998	33.959	1303.864	1117.370
-36.984	34.115	1302.048	1116.685
-35.969	34.035	1300.661	1114.985
-34.954	34.107	1299.278	1114.177
-33.940	34.061	1298.036	1112.794
-32.925	34.155	1296.899	1112.328
-31.911	34.171	1295.081	1110.817
-30.896	34.226	1293.412	1109.664
-29.881	34.090	1292.823	1108.320
-28.867	34.182	1291.243	1107.456
-27.852	34.345	1289.291	1106.686
-26.838	34.295	1288.066	1105.299
-25.823	34.235	1286.982	1103.978
-24.809	34.207	1285.457	1102.461
-23.794	34.127	1284.529	1101.160
-22.779	34.147	1282.690	1099.659
-21.765	34.244	1281.132	1098.834
-20.750	34.186	1280.035	1097.519
-19.736	34.165	1279.000	1096.465
-18.721	34.110	1277.675	1094.970
-17.706	33.979	1276.723	1093.360
-16.692	33.963	1275.527	1092.198
-15.677	34.055	1274.331	1091.659
-14.663	34.073	1273.405	1090.926
-13.648	34.092	1272.238	1089.993
-12.633	34.078	1271.323	1089.085
-11.619	33.938	1270.733	1087.733
-10.604	34.068	1269.721	1087.568
-9.590	34.093	1268.615	1086.721
-8.575	34.027	1267.675	1085.493
-7.560	33.996	1266.482	1084.254
-6.546	33.980	1266.025	1083.726
-5.531	33.971	1265.208	1082.938
-4.517	34.048	1263.815	1082.136
-3.502	34.096	1262.956	1081.632
-2.487	34.051	1262.386	1080.844
-1.473	33.871	1257.476	1075.581
-0.458	31.317	1240.480	1046.713
0.556	25.038	1219.337	992.308
1.571	19.271	1221.943	962.240
2.586	17.551	1235.626	963.210
3.600	16.955	1224.502	951.110
4.615	12.872	1153.377	874.180
5.629	5.210	1079.582	780.022
6.644	1.359	1059.759	746.720
7.659	1.037	1057.415	743.425
8.673	1.010	1056.040	742.258
9.688	0.955	1055.413	741.485
10.702	1.240	1053.288	741.320
11.717	5.473	1058.839	765.918
12.731	13.056	1068.048	809.834
13.746	17.177	1073.103	833.868
14.761	17.830	1073.196	837.067
15.775	16.990	1071.437	831.507
16.790	15.969	1069.824	825.182
17.804	15.255	1068.221	820.379
18.819	14.993	1066.872	817.991
19.834	14.730	1065.731	815.762
20.848	14.328	1065.254	813.360
21.863	14.015	1064.273	811.011
22.877	13.989	1063.450	810.187
23.892	13.954	1062.434	809.168
24.907	13.931	1062.058	808.697
25.921	13.954	1061.330	808.187
26.936	14.170	1060.025	808.172
27.950	14.133	1059.257	807.330
28.965	14.132	1058.360	806.573
29.980	14.255	1057.237	806.240
30.994	14.271	1055.666	805.048
32.009	14.227	1055.361	804.532
33.023	14.180	1053.906	803.125
34.038	14.334	1052.528	802.748
35.053	14.176	1052.086	801.577
36.067	14.143	1051.099	800.595
37.082	14.152	1050.146	799.845
38.096	14.098	1049.836	799.277
39.111	14.244	1048.987	799.260
40.126	14.095	1047.873	797.624
41.140	13.928	1046.747	795.896
42.155	13.890	1045.747	794.885
43.169	13.928	1044.837	794.307
44.184	13.912	1043.960	793.494
45.199	14.025	1042.693	792.998
46.213	14.029	1041.485	792.027
47.228	14.023	1040.795	791.406
48.242	14.089	1039.179	790.420
49.257	14.016	1038.596	789.558
50.271	14.132	1037.266	789.030
51.286	14.116	1036.807	788.533
52.301	14.137	1035.756	787.764
53.315	14.081	1034.502	786.478
54.330	14.005	1033.649	785.398
55.344	14.065	1033.253	785.312
56.359	14.193	1032.233	785.070
57.374	14.125	1031.061	783.789
58.388	14.005	1030.316	782.591
59.403	13.975	1029.302	781.609
60.417	14.016	1028.144	780.851
61.432	13.973	1027.992	780.466
62.447	13.964	1026.831	779.473
63.461	13.837	1026.256	778.374
64.476	13.962	1025.131	778.036
65.490	13.901	1024.616	777.290
66.505	13.943	1023.917	776.889
67.520	13.958	1023.263	776.392
68.534	13.915	1022.790	775.764
69.549	13.920	1022.025	775.139
70.563	13.934	1021.046	774.394
71.578	13.983	1019.641	773.488
72.593	13.893	1019.345	772.775
73.607	13.828	1018.692	771.911
74.622	13.917	1017.637	771.454
75.636	13.878	1017.197	770.872
76.651	13.979	1015.884	770.276
77.666	13.859	1015.913	769.675
78.680	13.878	1015.506	769.386
79.695	13.996	1014.394	769.022
80.709	13.982	1013.902	768.517
81.724	13.970	1013.530	768.111
82.739	13.982	1012.592	767.388
83.753	14.135	1011.533	767.225
84.768	14.081	1010.615	766.211
85.782	14.146	1009.779	765.810
86.797	14.154	1008.843	765.068
87.812	14.021	1008.385	764.042
88.826	13.953	1007.344	762.873
89.841	14.049	1006.039	762.258
90.855	14.177	1005.207	762.147
91.870	14.189	1004.654	761.715
92.884	14.071	1004.167	760.738
93.899	14.224	1002.961	760.455
94.914	14.303	1001.974	760.002
95.928	14.275	1001.422	759.386
96.943	14.141	1000.700	758.160
97.957	14.072	999.649	756.982
98.972	14.177	998.708	756.684
99.987	14.278	997.347	756.042
101.001	14.165	996.929	755.147
102.016	14.124	995.877	754.096
103.030	14.125	995.529	753.770
104.045	14.139	994.432	752.935
105.060	14.283	993.720	752.984
106.074	14.189	992.686	751.706
107.089	14.070	991.503	750.207
108.103	14.161	990.530	749.814
109.118	14.044	989.573	748.500
110.133	14.197	988.916	748.622
111.147	14.101	988.364	747.707
112.162	14.194	987.156	747.147
113.176	14.094	986.688	746.273
114.191	14.142	986.198	746.053
115.206	14.169	985.198	745.352
116.220	14.173	984.577	744.836
117.235	14.090	983.519	743.596
118.249	14.035	982.547	742.549
119.264	14.105	981.949	742.344
120.279	14.216	980.801	741.909
121.293	14.116	980.019	740.803
122.308	14.049	979.616	740.136
123.322	14.167	978.006	739.381
124.337	14.065	977.427	738.421
125.352	14.105	976.605	737.914
126.366	14.211	975.509	737.489
127.381	14.082	974.277	735.923
128.395	14.314	973.277	736.126
129.410	14.169	972.325	734.703
130.424	14.250	971.725	734.542
131.439	14.168	971.482	733.931
132.454	14.027	970.793	732.723
133.468	14.223	969.538	732.577
134.483	14.080	969.110	731.558
135.497	14.176	967.627	730.796
136.512	14.226	966.757	730.294
137.527	14.198	966.229	729.708
138.541	14.333	965.423	729.624
139.556	14.331	964.332	728.729
140.570	14.373	964.021	728.610
141.585	14.334	963.002	727.606
142.600	14.248	962.508	726.793
143.614	14.391	961.551	726.628
144.629	14.421	960.712	726.060
145.643	14.300	959.767	724.755
146.658	14.322	958.854	724.101
147.673	14.286	957.826	723.103
148.687	14.319	957.149	722.671
149.702	14.233	956.055	721.407
150.716	14.205	955.800	721.030
151.731	14.446	954.797	721.253
152.746	14.304	954.342	720.231
153.760	14.277	953.299	719.264
154.775	14.429	953.249	719.821
155.789	14.370	952.431	718.884
156.804	14.375	951.551	718.176
157.819	14.429	950.970	717.906
158.833	14.413	950.548	717.456
159.848	14.525	949.043	716.737
160.862	14.467	948.373	715.922
161.877	14.433	947.473	715.031
162.892	14.355	946.593	713.969
163.906	14.389	945.406	713.158
164.921	14.500	944.696	713.035
165.935	14.433	944.273	712.364
166.950	14.369	943.369	711.347
167.964	14.524	942.114	710.997
168.979	14.417	941.688	710.158
169.994	14.478	940.602	709.536
171.008	14.571	939.719	709.199
172.023	14.444	939.445	708.393
173.037	14.698	938.248	708.505
174.052	14.569	937.777	707.540
175.067	14.447	937.025	706.391
176.081	14.554	936.651	706.502
177.096	14.658	935.919	706.325
178.110	14.576	934.992	705.216
179.125	14.545	934.876	704.936
180.140	14.716	933.845	704.819
181.154	14.699	933.582	704.488
182.169	14.606	933.477	703.953
183.183	14.687	932.499	703.493
184.198	14.658	931.842	702.815
185.213	14.791	930.842	702.557
186.227	14.724	930.550	701.991
187.242	14.740	929.640	701.311
188.256	14.727	928.900	700.637
189.271	14.720	928.152	699.983
190.286	14.656	927.615	699.244
191.300	14.663	927.025	698.769
192.315	14.600	926.207	697.828
193.329	14.779	925.493	697.973
194.344	14.736	924.884	697.273
195.359	14.786	924.371	697.033
196.373	14.674	923.847	696.109
197.388	14.742	923.472	696.050
198.402	14.883	922.566	695.892
199.417	14.837	922.493	695.584
200.432	14.871	921.633	695.017
201.446	15.064	921.062	695.324
202.461	14.999	920.539	694.599
203.475	14.917	920.214	693.952
204.490	14.858	919.635	693.209
205.504	14.980	918.691	692.942
206.519	15.076	917.320	692.244
207.534	14.937	917.143	691.473
208.548	15.059	916.652	691.546
209.563	15.130	915.569	690.960
210.577	15.006	915.184	690.099
211.592	14.944	914.512	689.274
212.607	15.109	913.624	689.225
213.621	15.165	912.793	688.766
214.636	15.098	912.158	687.952
215.650	15.116	911.253	687.283
216.665	15.169	910.727	687.040
217.680	15.194	909.988	686.525
218.694	15.235	909.122	685.978
219.709	15.287	908.697	685.811
220.723	15.232	908.001	685.001
221.738	15.260	907.642	684.782
222.753	15.325	906.552	684.164
223.767	15.182	906.083	683.169
224.782	15.314	905.465	683.178
225.796	15.451	904.570	682.999
226.811	15.409	903.863	682.237
227.826	15.424	903.557	682.004
228.840	15.322	903.031	681.135
229.855	15.164	902.140	679.760
230.869	15.294	901.321	679.611
231.884	15.295	900.709	679.090
232.899	15.415	899.687	678.746
233.913	15.288	898.986	677.646
234.928	15.399	898.451	677.632
235.942	15.370	898.133	677.212
236.957	15.435	897.103	676.638
237.972	15.354	896.501	675.799
238.986	15.422	895.795	675.479
240.001	15.371	895.808	675.225
241.015	15.373	894.761	674.384
242.030	15.429	894.219	674.139
243.045	15.429	893.518	673.554
244.059	15.472	892.975	673.255
245.074	15.419	892.451	672.587
246.088	15.505	891.691	672.303
247.103	15.563	891.031	671.975
248.117	15.555	890.597	671.556
249.132	15.648	889.718	671.206
250.147	15.695	888.932	670.740
251.161	15.779	888.452	670.655
252.176	15.712	887.831	669.861
253.190	15.774	887.320	669.663
254.205	15.842	886.576	669.311
255.220	15.869	885.757	668.740
256.234	15.782	885.076	667.823
257.249	16.026	884.619	668.388
258.263	15.926	883.669	667.214
259.278	15.922	883.022	666.652
260.293	15.918	882.255	665.995
261.307	15.935	882.056	665.853
262.322	16.018	881.471	665.681
263.336	16.068	880.338	664.965
264.351	15.964	880.130	664.338
265.366	16.108	879.555	664.413
266.380	16.078	878.430	663.385
267.395	16.026	877.944	662.756
268.409	15.942	877.203	661.810
269.424	16.117	876.510	661.916
270.439	15.900	875.571	660.297
271.453	16.125	874.805	660.541
272.468	16.109	874.510	660.198
273.482	16.021	874.153	659.523
274.497	16.084	873.432	659.170
275.512	16.053	872.854	658.552
276.526	16.112	872.747	658.644
277.541	16.020	872.514	658.052
278.555	16.312	871.342	658.247
279.570	16.225	870.747	657.402
280.585	16.106	870.025	656.335
281.599	16.199	869.149	655.978
282.614	16.199	868.219	655.217
283.628	16.330	867.879	655.409
284.643	16.253	867.549	654.804
285.657	16.144	866.976	653.893
286.672	16.371	866.055	654.020
287.687	16.376	865.382	653.472
288.701	16.463	864.787	653.301
289.716	16.373	864.494	652.675
290.730	16.235	864.002	651.713
291.745	16.318	863.334	651.472
292.760	16.428	862.549	651.243
293.774	16.564	861.823	651.164
294.789	16.591	861.076	650.646
295.803	16.519	860.395	649.796
296.818	16.457	859.641	648.930
297.833	16.458	859.150	648.507
298.847	16.533	858.731	648.421
299.862	16.547	858.351	648.130
300.876	16.610	857.311	647.530
301.891	16.624	857.169	647.415
302.906	16.644	856.323	646.798
303.920	16.697	855.661	646.444
304.935	16.610	855.662	646.052
305.949	16.565	854.759	645.143
306.964	16.583	854.206	644.736
307.979	16.763	853.587	644.899
308.993	16.745	852.971	644.309
310.008	16.796	852.336	643.964
311.022	16.856	851.756	643.696
312.037	16.983	850.951	643.514
313.052	16.799	850.592	642.489
314.066	16.760	849.956	641.803
315.081	16.724	849.457	641.235
316.095	16.695	849.032	640.745
317.110	16.679	848.473	640.207
318.125	16.733	847.919	639.934
319.139	16.760	847.452	639.629
320.154	16.810	846.652	639.156
321.168	16.958	846.094	639.239
322.183	16.779	845.660	638.177
323.197	16.942	845.125	638.331
324.212	16.855	844.941	637.808
325.227	16.924	844.196	637.450
326.241	16.874	843.420	636.621
327.256	16.902	843.149	636.464
328.270	16.886	842.396	635.779
329.285	16.979	841.564	635.444
330.300	16.769	841.495	634.547
331.314	16.835	840.690	634.130
332.329	16.748	840.637	633.712
333.343	16.831	840.211	633.644
334.358	16.958	839.259	633.344
335.373	16.911	839.142	633.025
336.387	17.147	838.715	633.524
337.402	17.016	838.449	632.782
338.416	17.061	838.121	632.645
339.431	17.095	837.445	632.204
340.446	17.155	837.039	632.065
341.460	17.161	836.565	631.676
342.475	17.196	835.883	631.234
343.489	17.193	835.851	631.141
344.504	17.335	835.251	631.160
345.519	17.231	834.749	630.341
346.533	17.324	834.357	630.333
347.548	17.182	833.935	629.432
348.562	17.240	833.326	629.130
349.577	17.103	832.884	628.235
350.592	17.145	832.578	628.104
351.606	17.139	831.742	627.397
352.621	17.343	830.426	627.102
353.635	17.308	829.896	626.516
354.650	17.451	829.393	626.606
355.665	17.409	828.762	625.919
356.679	17.404	828.119	625.361
357.694	17.493	827.514	625.176
358.708	17.399	827.124	624.481
359.723	17.245	826.552	623.427
360.738	17.323	826.246	623.428
361.752	17.306	825.663	622.870
362.767	17.388	824.807	622.471
363.781	17.486	824.284	622.378
364.796	17.494	823.878	622.046
365.810	17.709	823.123	622.207
366.825	17.551	822.990	621.475
367.840	17.667	822.454	621.439
368.854	17.471	822.158	620.445
369.869	17.537	821.966	620.484
370.883	17.711	820.839	620.211
371.898	17.604	820.803	619.740
372.913	17.649	820.611	619.705
373.927	17.685	820.186	619.458
374.942	17.789	819.479	619.249
375.956	17.781	819.299	619.029
376.971	17.734	818.893	618.497
377.986	17.722	818.534	618.126
379.000	17.817	817.734	617.812
380.015	17.825	817.394	617.529
381.029	17.969	816.625	617.414
382.044	17.770	816.130	616.269
383.059	17.914	815.586	616.320
384.073	17.852	814.629	615.319
385.088	17.954	814.227	615.330
386.102	17.905	813.909	614.860
387.117	17.746	813.673	614.052
388.132	17.937	812.754	613.993
389.146	17.992	812.257	613.762
390.161	17.947	811.761	613.168
391.175	17.980	811.307	612.888
392.190	17.947	810.671	612.240
393.205	17.917	810.518	611.961
394.219	17.865	810.281	611.542
395.234	17.990	809.593	611.413
396.248	17.912	809.204	610.786
397.263	17.960	808.998	610.750
398.278	18.075	808.303	610.581
399.292	17.979	807.626	609.674
400.307	17.888	807.511	609.210
401.321	18.023	807.185	609.391
402.336	17.937	806.620	608.605
403.350	18.159	805.879	608.782
404.365	18.081	805.792	608.385
405.380	18.264	805.100	608.458
406.394	18.157	804.359	607.465
407.409	18.226	804.342	607.641
408.423	18.351	803.801	607.625
409.438	18.378	803.315	607.299
410.453	18.240	803.337	606.770
411.467	18.227	802.842	606.297
412.482	18.248	802.246	605.869
413.496	18.317	802.169	606.001
414.511	18.339	801.704	605.672
415.526	18.452	800.989	605.481
416.540	18.529	800.332	605.200
417.555	18.480	799.854	604.614
418.569	18.465	799.884	604.531
419.584	18.375	799.435	603.820
420.599	18.467	798.689	603.526
421.613	109.028	1287.766	1456.235
422.628	93.852	1359.019	1456.343
