DTS Sentinel unit serial number:	SN413079Multiplexer serial number:	ORYXHardware model number:	OX4-SRSoftware version number:	ORYX F/W v4.00 Oryx Data Collector v3.7.2.0data status	okinstallation	princeton_trtdifferential loss correction	single-endedforward channel	channel 1reverse channel	N/Adate	2019/09/11time	07:24:12forward acquisition time	60.00reverse acquisition time	0.00gamma	496.2192k internal	0.2327k external	0.2327temperature offset calibration	0.9913default loss term (dB/km)	0.3790temperature slope calibration	1.0000multiplexer offset coefficient	1.0000multiplexer slope coefficient	1.0000fibre end	0.00T internal ref (°C)	30.86T ext. ref 1 (°C)	-0.10T ext. ref 2 (°C)	27.47length (m)	temperature (°C)	Stokes	anti-Stokes-747.200	188.677	-0.056	0.084
-746.185	-200.000	0.066	-0.347
-745.171	285.241	-0.270	-0.491
-744.156	39.051	-0.058	0.052
-743.142	-103.656	0.105	0.025
-742.127	-118.789	-0.348	-0.062
-741.112	-200.000	-0.024	0.172
-740.098	-127.379	0.263	-0.039
-739.083	-84.487	-0.358	0.114
-738.069	-82.179	-0.347	0.114
-737.054	-44.177	0.165	-0.083
-736.039	-200.000	0.001	0.059
-735.025	304.800	0.174	0.326
-734.010	-173.329	-0.390	0.012
-732.996	-37.873	0.258	-0.138
-731.981	78.704	-0.219	0.236
-730.966	-83.187	-0.153	0.049
-729.952	800.000	0.024	0.093
-728.937	-26.125	-0.167	-0.099
-727.923	-200.000	0.053	-0.237
-726.908	-141.556	-0.377	0.038
-725.894	800.000	0.027	0.091
-724.879	-1.660	-0.517	-0.367
-723.864	627.414	-0.154	0.393
-722.850	482.498	0.133	-0.304
-721.835	425.130	-0.087	0.188
-720.821	92.078	-0.141	-0.160
-719.806	-200.000	0.051	-0.245
-718.791	101.806	0.175	-0.205
-717.777	-139.956	-0.498	-0.053
-716.762	-117.665	0.175	-0.032
-715.748	7.628	0.269	-0.203
-714.733	-112.364	0.233	0.047
-713.718	800.000	0.088	-0.293
-712.704	-16.422	0.154	-0.098
-711.689	-200.000	-0.031	-0.172
-710.675	-118.608	0.133	0.024
-709.660	-103.074	0.121	0.029
-708.645	56.497	0.131	0.128
-707.631	8.211	-0.126	0.095
-706.616	-154.535	0.107	0.007
-705.602	30.095	-0.157	-0.135
-704.587	6.787	0.340	0.255
-703.572	5.986	0.222	0.165
-702.558	-136.705	0.095	-0.011
-701.543	581.122	0.081	0.200
-700.529	-8.614	-0.313	0.212
-699.514	-75.277	-0.054	0.019
-698.499	-13.955	0.153	0.100
-697.485	800.000	0.083	0.272
-696.470	-122.729	-0.256	0.042
-695.456	-47.963	0.393	0.191
-694.441	-99.835	0.284	-0.071
-693.426	63.030	-0.168	0.169
-692.412	-6.333	-0.198	0.136
-691.397	800.000	-0.066	0.289
-690.383	61.730	-0.216	0.216
-689.368	-12.455	-0.142	0.093
-688.354	-200.000	0.064	0.361
-687.339	800.000	-0.121	0.353
-686.324	486.895	0.014	-0.032
-685.310	-19.299	0.035	-0.022
-684.295	56.165	0.311	-0.304
-683.281	-76.155	-0.393	0.139
-682.266	-28.575	0.142	0.082
-681.251	-19.834	-0.079	-0.049
-680.237	85.810	0.141	-0.156
-679.222	351.214	0.158	0.315
-678.208	57.357	-0.249	0.244
-677.193	-52.457	0.132	0.062
-676.178	800.000	-0.095	0.355
-675.164	116.983	-0.156	0.192
-674.149	800.000	0.012	-0.038
-673.135	-24.912	-0.254	0.151
-672.120	-151.405	-0.211	0.016
-671.105	-50.405	0.172	-0.082
-670.091	187.969	0.142	-0.213
-669.076	508.366	-0.105	-0.246
-668.062	-36.188	-0.137	-0.074
-667.047	-25.073	-0.015	0.009
-666.032	112.346	-0.235	-0.286
-665.018	-34.791	-0.436	-0.239
-664.003	25.152	0.280	-0.233
-662.989	-200.000	-0.005	-0.066
-661.974	-200.000	-0.070	-0.403
-660.959	-30.056	0.105	-0.060
-659.945	303.222	-0.154	0.286
-658.930	800.000	0.050	0.167
-657.916	-120.718	-0.127	-0.021
-656.901	-80.114	-0.103	-0.035
-655.886	-165.775	0.215	-0.009
-654.872	-107.376	-0.079	0.017
-653.857	-18.870	-0.153	0.096
-652.843	147.066	0.122	0.165
-651.828	70.479	-0.180	-0.187
-650.814	386.715	-0.067	-0.139
-649.799	-200.000	0.024	0.190
-648.784	-200.000	-0.073	0.436
-647.770	-120.261	0.227	0.039
-646.755	508.232	0.146	0.340
-645.741	113.716	-0.161	0.197
-644.726	-139.608	-0.146	0.016
-643.711	-13.382	-0.233	0.152
-642.697	-200.000	-0.011	-0.388
-641.682	733.787	-0.100	-0.269
-640.668	-153.079	-0.171	0.012
-639.653	-122.145	0.125	-0.021
-638.638	88.791	-0.004	0.005
-637.624	-200.000	0.028	0.265
-636.609	-66.699	0.157	-0.062
-635.595	25.339	0.329	0.275
-634.580	-48.387	-0.107	-0.052
-633.565	-194.897	0.179	0.001
-632.551	-200.000	0.007	-0.307
-631.536	92.217	-0.049	-0.056
-630.522	-86.066	0.078	-0.024
-629.507	-57.411	-0.545	0.240
-628.492	-28.617	-0.143	-0.083
-627.478	800.000	0.052	-0.159
-626.463	536.470	0.120	-0.286
-625.449	88.106	-0.089	-0.099
-624.434	-72.561	-0.151	0.056
-623.419	658.431	-0.075	0.193
-622.405	-57.424	0.182	-0.080
-621.390	14.193	0.109	-0.085
-620.376	75.125	0.081	0.086
-619.361	-87.869	-0.323	-0.097
-618.346	-73.385	-0.010	-0.004
-617.332	-52.563	-0.125	0.058
-616.317	233.439	-0.212	0.351
-615.303	178.940	0.159	-0.234
-614.288	40.316	-0.109	0.098
-613.273	-19.910	0.077	0.048
-612.259	438.296	0.150	-0.328
-611.244	350.616	0.010	-0.019
-610.230	-141.833	0.392	0.039
-609.215	800.000	-0.077	0.217
-608.201	800.000	0.018	0.077
-607.186	22.244	-0.165	0.135
-606.171	149.656	-0.246	0.334
-605.157	-200.000	0.001	-0.017
-604.142	1.801	0.234	-0.169
-603.128	-200.000	-0.003	-0.339
-602.113	206.504	0.296	-0.462
-601.098	-15.044	0.133	0.086
-600.084	800.000	-0.030	0.128
-599.069	270.178	0.197	-0.346
-598.055	68.615	-0.215	-0.221
-597.040	-98.092	-0.253	0.065
-596.025	-87.537	0.021	-0.006
-595.011	638.321	0.084	-0.214
-593.996	0.082	0.198	0.141
-592.982	711.289	0.100	-0.266
-591.967	-200.000	0.019	-0.092
-590.952	-142.229	0.205	-0.020
-589.938	800.000	0.007	0.019
-588.923	62.570	0.053	0.053
-587.909	-115.240	0.178	-0.034
-586.894	-4.129	-0.112	-0.078
-585.879	-23.196	-0.122	0.073
-584.865	374.081	-0.035	0.071
-583.850	239.945	-0.029	0.049
-582.836	117.181	-0.041	-0.050
-581.821	40.124	-0.214	0.193
-580.806	55.205	-0.180	-0.174
-579.792	182.871	-0.236	0.349
-578.777	-10.401	0.157	-0.104
-577.763	70.821	0.075	-0.078
-576.748	-14.512	-0.115	0.074
-575.733	-111.490	0.269	-0.055
-574.719	-102.776	0.258	0.062
-573.704	800.000	-0.081	0.344
-572.690	-75.722	0.086	0.030
-571.675	-93.486	0.177	0.049
-570.661	564.196	-0.072	0.174
-569.646	-200.000	-0.002	-0.323
-568.631	116.543	0.162	0.199
-567.617	-20.704	-0.128	0.078
-566.602	-68.248	-0.130	0.051
-565.588	800.000	-0.044	0.168
-564.573	-200.000	-0.002	-0.386
-563.558	26.227	-0.451	-0.377
-562.544	167.645	0.088	-0.125
-561.529	800.000	0.088	-0.251
-560.515	800.000	-0.016	-0.072
-559.500	-200.000	-0.062	-0.301
-558.485	632.827	-0.112	-0.284
-557.471	-57.310	-0.190	0.083
-556.456	-45.543	0.276	-0.137
-555.442	800.000	0.105	0.314
-554.427	344.711	-0.049	0.096
-553.412	735.106	0.014	0.038
-552.398	33.492	-0.072	0.063
-551.383	-200.000	0.019	-0.180
-550.369	110.907	-0.307	0.370
-549.354	-200.000	0.026	0.370
-548.339	-121.438	-0.132	-0.022
-547.325	134.912	-0.068	-0.088
-546.310	-30.001	-0.297	0.169
-545.296	-200.000	0.014	0.107
-544.281	-156.520	-0.317	-0.020
-543.266	242.443	-0.036	0.060
-542.252	800.000	-0.092	-0.295
-541.237	-45.115	0.310	0.154
-540.223	61.219	-0.168	-0.167
-539.208	-37.816	0.249	-0.133
-538.193	42.249	-0.102	0.093
-537.179	623.737	-0.032	-0.081
-536.164	800.000	-0.041	0.123
-535.150	-6.248	0.050	0.034
-534.135	-83.936	-0.228	-0.073
-533.121	-200.000	0.025	0.289
-532.106	44.413	0.108	0.099
-531.091	127.100	0.032	0.040
-530.077	404.732	-0.050	0.106
-529.062	-139.535	0.414	-0.044
-528.048	-99.596	0.198	0.050
-527.033	-126.202	0.197	0.029
-526.018	800.000	0.080	0.264
-525.004	-158.602	0.096	0.006
-523.989	800.000	-0.113	-0.318
-522.975	-7.887	-0.115	-0.078
-521.960	-67.474	0.086	-0.034
-520.945	-200.000	0.002	0.040
-519.931	675.928	0.015	-0.038
-518.916	800.000	-0.046	-0.165
-517.902	-62.093	-0.243	0.101
-516.887	-200.000	-0.024	-0.137
-515.872	-72.263	-0.190	-0.070
-514.858	341.068	0.137	0.267
-513.843	800.000	-0.044	-0.140
-512.829	606.891	-0.072	0.179
-511.814	639.270	-0.082	0.209
-510.799	-200.000	-0.037	0.235
-509.785	-145.604	-0.168	0.015
-508.770	-200.000	-0.080	0.353
-507.756	-200.000	-0.031	0.297
-506.741	27.366	-0.152	-0.127
-505.726	-12.955	0.199	-0.130
-504.712	-200.000	0.016	0.191
-503.697	15.656	-0.040	-0.031
-502.683	72.892	-0.109	0.113
-501.668	21.468	0.287	0.233
-500.653	142.899	0.125	-0.167
-499.639	-133.927	-0.174	0.022
-498.624	0.362	0.219	-0.156
-497.610	42.577	0.028	0.026
-496.595	373.458	-0.081	-0.165
-495.581	-200.000	-0.044	-0.224
-494.566	-28.821	-0.246	-0.141
-493.551	-200.000	0.028	0.463
-492.537	108.370	0.297	0.354
-491.522	-200.000	0.025	-0.263
-490.508	50.213	0.255	-0.240
-489.493	-200.000	0.050	-0.256
-488.478	50.313	0.050	-0.048
-487.464	800.000	-0.088	-0.283
-486.449	-200.000	-0.016	-0.384
-485.435	113.979	-0.180	-0.218
-484.420	194.983	0.043	0.066
-483.405	-200.000	0.018	0.130
-482.391	39.562	0.144	-0.129
-481.376	-134.567	-0.414	-0.050
-480.362	-70.832	0.032	-0.012
-479.347	-89.901	-0.179	-0.052
-478.332	71.319	-0.095	0.098
-477.318	-32.432	-0.231	0.129
-476.303	16.310	-0.304	-0.239
-475.289	-70.558	0.318	0.120
-474.274	-200.000	-0.027	-0.389
-473.259	182.984	-0.232	-0.341
-472.245	-200.000	-0.029	-0.162
-471.230	-200.000	0.012	-0.155
-470.216	178.310	-0.181	-0.263
-469.201	317.808	0.043	-0.082
-468.186	-161.052	0.209	-0.011
-467.172	382.830	-0.060	-0.123
-466.157	92.511	0.113	-0.127
-465.143	156.680	0.153	0.211
-464.128	-27.374	0.262	-0.152
-463.113	121.686	0.047	-0.059
-462.099	-16.281	-0.117	0.074
-461.084	-127.695	0.114	-0.016
-460.070	-56.712	0.090	0.040
-459.055	-23.023	-0.055	0.033
-458.040	800.000	-0.089	-0.270
-457.026	-161.645	-0.217	-0.011
-456.011	-4.482	-0.186	-0.128
-454.997	285.281	0.045	0.082
-453.982	189.272	-0.062	-0.092
-452.968	-81.139	0.343	0.113
-451.953	-200.000	0.065	-0.341
-450.938	234.777	-0.219	-0.361
-449.924	800.000	0.067	-0.194
-448.909	92.525	-0.293	0.329
-447.895	-163.044	0.212	-0.010
-446.880	800.000	0.117	-0.387
-445.865	-81.698	-0.223	-0.073
-444.851	33.880	0.121	-0.105
-443.836	-81.152	-0.426	0.140
-442.822	423.306	0.153	-0.327
-441.807	296.651	-0.192	0.351
-440.792	-200.000	0.006	0.202
-439.778	178.535	0.061	0.089
-438.763	-135.186	0.348	-0.042
-437.749	329.926	0.052	-0.100
-436.734	101.762	0.153	0.178
-435.719	192.925	-0.074	0.111
-434.705	800.000	-0.096	-0.281
-433.690	-46.705	0.316	0.154
-432.676	-53.609	-0.211	0.096
-431.661	164.661	-0.224	0.315
-430.646	800.000	0.115	0.476
-429.632	32.089	-0.105	-0.090
-428.617	-200.000	-0.046	-0.233
-427.603	-200.000	0.068	-0.310
-426.588	-200.000	0.009	-0.053
-425.573	-200.000	-0.054	0.348
-424.559	-59.488	-0.435	-0.186
-423.544	-59.700	0.308	-0.131
-422.530	23.815	0.080	-0.066
-421.515	-111.255	-0.213	0.043
-420.500	347.234	-0.158	-0.309
-419.486	-113.560	-0.322	0.063
-418.471	-82.234	0.291	0.094
-417.457	598.089	0.143	0.354
-416.442	-200.000	-0.000	-0.068
-415.428	42.819	0.339	0.307
-414.413	31.902	-0.079	-0.068
-413.398	-168.122	0.171	-0.007
-412.384	-82.685	-0.239	-0.077
-411.369	-15.155	0.337	-0.215
-410.355	-121.860	-0.153	-0.025
-409.340	471.435	0.146	-0.327
-408.325	-200.000	-0.013	0.169
-407.311	-200.000	0.022	-0.262
-406.296	23.099	0.033	0.027
-405.282	-136.265	0.285	-0.033
-404.267	800.000	0.064	0.267
-403.252	-200.000	0.002	0.139
-402.238	-142.715	0.336	-0.033
-401.223	400.891	-0.137	-0.287
-400.209	-68.752	-0.143	0.055
-399.194	47.822	-0.202	-0.188
-398.179	48.234	0.103	-0.096
-397.165	-59.173	0.244	-0.105
-396.150	-167.344	-0.061	0.002
-395.136	107.882	-0.058	0.069
-394.121	86.847	-0.114	0.125
-393.106	-200.000	0.009	-0.100
-392.092	364.396	-0.052	0.103
-391.077	121.608	0.103	-0.127
-390.063	-200.000	-0.021	-0.136
-389.048	47.987	0.229	0.213
-388.033	-200.000	-0.014	0.209
-387.019	42.968	-0.174	0.158
-386.004	145.274	0.160	0.213
-384.990	-6.838	0.136	0.092
-383.975	557.795	0.102	0.244
-382.960	-200.000	-0.058	0.293
-381.946	-200.000	0.064	0.582
-380.931	367.426	-0.052	0.105
-379.917	6.225	-0.353	-0.260
-378.902	-200.000	-0.029	-0.209
-377.888	143.297	0.222	-0.293
-376.873	-49.771	-0.215	-0.102
-375.858	800.000	0.064	-0.205
-374.844	320.350	-0.215	-0.406
-373.829	100.304	0.148	-0.171
-372.815	-19.625	-0.257	-0.158
-371.800	66.223	0.030	-0.031
-370.785	-109.311	-0.117	0.025
-369.771	39.865	0.028	-0.025
-368.756	563.500	0.138	-0.331
-367.742	-75.571	0.230	-0.081
-366.727	26.792	0.214	-0.178
-365.712	535.662	-0.067	-0.159
-364.698	-36.827	-0.257	-0.137
-363.683	731.941	0.130	0.345
-362.669	-136.577	0.102	0.012
-361.654	-61.491	-0.028	-0.012
-360.639	78.500	0.157	-0.167
-359.625	71.821	0.058	-0.060
-358.610	-112.844	-0.098	0.019
-357.596	173.639	0.097	0.139
-356.581	-200.000	0.001	0.337
-355.566	-200.000	0.012	0.075
-354.552	-105.174	0.163	-0.037
-353.537	-89.827	0.314	0.091
-352.523	-132.588	0.273	0.035
-351.508	-20.108	-0.070	0.043
-350.493	105.082	-0.288	-0.337
-349.479	800.000	-0.039	-0.143
-348.464	236.962	-0.273	0.449
-347.450	251.674	0.171	0.289
-346.435	-42.695	-0.162	0.082
-345.420	-200.000	-0.007	0.292
-344.406	-100.959	0.056	0.014
-343.391	-115.664	0.104	-0.019
-342.377	-81.112	0.163	-0.054
-341.362	800.000	-0.047	0.150
-340.348	0.783	-0.152	0.108
-339.333	800.000	-0.011	-0.046
-338.318	-31.165	0.118	-0.066
-337.304	-200.000	0.017	0.233
-336.289	71.098	0.097	-0.100
-335.275	-79.693	0.153	-0.051
-334.260	39.136	-0.198	0.176
-333.245	-94.846	-0.300	0.081
-332.231	564.383	-0.167	0.400
-331.216	-144.167	0.197	0.018
-330.202	591.932	-0.047	-0.116
-329.187	295.218	-0.271	-0.492
-328.172	435.010	-0.138	-0.298
-327.158	-200.000	-0.065	-0.288
-326.143	-80.690	0.224	0.074
-325.129	-6.509	-0.075	-0.051
-324.114	800.000	-0.032	-0.112
-323.099	-38.052	0.236	0.124
-322.085	-0.207	-0.364	-0.257
-321.070	-120.392	0.207	0.035
-320.056	-126.333	-0.308	-0.046
-319.041	-25.710	0.124	0.073
-318.026	56.376	-0.124	-0.119
-317.012	6.540	-0.227	0.167
-315.997	-125.911	0.080	-0.012
-314.983	-200.000	-0.014	0.192
-313.968	-16.171	0.038	0.024
-312.953	-200.000	-0.067	0.353
-311.939	223.922	-0.088	0.141
-310.924	-200.000	0.039	0.310
-309.910	-91.683	-0.176	-0.050
-308.895	384.669	-0.141	0.288
-307.880	638.934	0.041	-0.104
-306.866	-95.600	-0.223	-0.059
-305.851	-173.009	0.395	0.012
-304.837	-200.000	-0.012	0.057
-303.822	-50.364	-0.266	0.124
-302.807	209.129	-0.121	-0.188
-301.793	-160.918	-0.140	0.007
-300.778	3.544	0.167	-0.121
-299.764	-200.000	-0.037	-0.234
-298.749	-200.000	-0.000	-0.298
-297.735	-140.342	0.613	0.063
-296.720	-176.735	-0.490	0.012
-295.705	-8.664	-0.363	0.242
-294.691	-200.000	-0.011	-0.353
-293.676	-121.845	-0.208	0.034
-292.662	-137.054	-0.179	0.020
-291.647	96.724	-0.126	0.143
-290.632	-200.000	0.067	-0.485
-289.618	800.000	-0.051	0.154
-288.603	85.456	0.113	0.123
-287.589	800.000	0.058	-0.167
-286.574	-39.352	0.421	-0.219
-285.559	216.904	-0.059	0.094
-284.545	-191.659	0.221	-0.002
-283.530	74.379	0.218	0.227
-282.516	312.790	-0.039	0.073
-281.501	-200.000	-0.024	0.165
-280.486	19.502	0.167	-0.133
-279.472	41.029	0.288	0.257
-278.457	-119.485	0.286	-0.049
-277.443	120.801	0.101	-0.124
-276.428	-97.760	-0.276	-0.071
-275.413	9.161	-0.226	0.169
-274.399	-46.362	-0.118	-0.057
-273.384	151.170	-0.146	-0.197
-272.370	63.435	0.052	0.051
-271.355	-92.578	0.354	-0.098
-270.340	-118.999	-0.364	-0.063
-269.326	-27.397	0.084	-0.048
-268.311	414.889	0.095	-0.200
-267.297	-180.719	-0.585	-0.012
-266.282	-36.535	0.121	0.064
-265.267	-125.533	0.282	-0.042
-264.253	768.447	-0.034	-0.090
-263.238	-200.000	0.043	-0.290
-262.224	35.005	-0.312	-0.270
-261.209	-200.000	0.072	0.500
-260.195	-160.617	-0.249	0.013
-259.180	800.000	0.057	-0.181
-258.165	153.738	0.076	-0.102
-257.151	-28.118	-0.029	-0.017
-256.136	280.143	0.107	0.190
-255.122	138.486	0.101	0.131
-254.107	107.458	0.172	0.202
-253.092	-13.200	-0.260	0.167
-252.078	1.222	0.126	0.089
-251.063	-156.235	0.257	-0.016
-250.049	404.899	0.062	-0.129
-249.034	-114.777	0.264	-0.050
-248.019	285.442	-0.033	0.059
-247.005	-200.000	0.032	0.181
-245.990	-200.000	-0.009	0.147
-244.976	115.184	-0.086	0.103
-243.961	-148.685	-0.302	-0.024
-242.946	61.809	0.121	0.119
-241.932	-28.947	-0.186	0.106
-240.917	-136.517	-0.060	-0.007
-239.903	109.738	0.049	0.058
-238.888	104.395	0.114	-0.133
-237.873	641.255	-0.155	-0.390
-236.859	389.111	-0.055	0.113
-235.844	566.230	-0.078	-0.186
-234.830	-92.419	-0.243	0.068
-233.815	-59.954	0.193	0.082
-232.800	-86.535	-0.275	0.083
-231.786	-47.463	-0.124	-0.059
-230.771	800.000	0.069	0.235
-229.757	-95.426	-0.158	0.042
-228.742	800.000	-0.031	0.119
-227.727	186.168	0.114	0.168
-226.713	-200.000	0.029	-0.267
-225.698	-27.245	0.102	0.059
-224.684	-200.000	0.080	0.442
-223.669	-200.000	0.018	0.081
-222.655	554.062	0.074	0.176
-221.640	258.044	0.167	0.284
-220.625	-200.000	-0.026	0.138
-219.611	800.000	0.050	-0.166
-218.596	-200.000	0.064	0.344
-217.582	800.000	-0.062	0.179
-216.567	800.000	-0.097	0.292
-215.552	204.643	-0.219	0.335
-214.538	49.041	0.106	0.098
-213.523	-79.168	-0.282	0.095
-212.509	313.284	-0.211	-0.391
-211.494	286.248	0.120	-0.214
-210.479	360.746	-0.056	0.111
-209.465	-200.000	0.003	0.028
-208.450	-60.677	0.170	-0.071
-207.436	169.276	0.225	0.317
-206.421	386.615	-0.022	-0.045
-205.406	-123.736	0.356	0.056
-204.392	686.416	-0.071	-0.182
-203.377	-91.027	0.197	-0.056
-202.363	-200.000	-0.001	0.069
-201.348	109.322	0.168	-0.199
-200.333	-200.000	0.036	-0.214
-199.319	20.824	0.093	0.074
-198.304	-52.637	-0.201	0.092
-197.290	8.627	0.133	-0.099
-196.275	338.065	0.210	0.403
-195.260	512.546	0.162	-0.372
-194.246	-34.445	0.201	-0.109
-193.231	113.164	0.105	0.126
-192.217	-200.000	-0.039	-0.179
-191.202	-104.807	0.321	-0.073
-190.187	267.686	0.132	-0.227
-189.173	83.415	-0.132	-0.142
-188.158	800.000	-0.109	-0.333
-187.144	-200.000	-0.012	0.130
-186.129	720.924	-0.099	0.259
-185.114	287.888	-0.103	0.184
-184.100	-13.584	-0.271	0.173
-183.085	75.133	0.146	-0.152
-182.071	325.198	-0.100	-0.189
-181.056	-80.782	-0.334	0.109
-180.042	800.000	0.099	0.274
-179.027	-169.770	0.214	0.008
-178.012	202.350	-0.195	-0.297
-176.998	29.268	0.268	-0.225
-175.983	-30.735	0.201	0.112
-174.969	159.524	-0.078	0.106
-173.954	-200.000	0.042	-0.307
-172.939	800.000	-0.026	0.101
-171.925	-111.084	0.330	0.067
-170.910	490.003	0.051	-0.116
-169.896	-200.000	-0.051	-0.276
-168.881	340.884	0.152	-0.293
-167.866	231.214	0.063	0.101
-166.852	221.614	0.211	0.334
-165.837	-200.000	-0.127	0.610
-164.823	-200.000	0.025	0.220
-163.808	523.795	0.150	-0.348
-162.793	800.000	-0.065	0.180
-161.779	-65.165	-0.211	-0.084
-160.764	-200.000	0.037	0.264
-159.750	800.000	-0.132	0.468
-158.735	-18.248	0.162	0.100
-157.720	800.000	-0.034	0.136
-156.706	-27.430	0.069	0.040
-155.691	174.925	-0.163	-0.233
-154.677	-117.865	0.249	0.044
-153.662	-148.377	-0.146	0.012
-152.647	-200.000	-0.007	-0.154
-151.633	151.931	0.112	-0.151
-150.618	-200.000	0.033	-0.282
-149.604	-65.421	-0.146	0.058
-148.589	666.652	-0.097	-0.247
-147.574	167.376	0.278	-0.389
-146.560	-134.465	-0.107	-0.013
-145.545	-69.253	0.225	0.085
-144.531	259.877	-0.200	0.341
-143.516	-200.000	-0.069	-0.344
-142.502	88.359	-0.024	0.026
-141.487	-10.447	0.125	0.082
-140.472	737.535	0.069	0.182
-139.458	-95.466	0.202	0.053
-138.443	800.000	-0.086	0.249
-137.429	432.323	-0.162	-0.345
-136.414	800.000	-0.038	0.124
-135.399	43.362	-0.164	0.148
-134.385	261.406	0.071	-0.122
-133.370	286.070	-0.121	-0.215
-132.356	237.933	0.063	-0.103
-131.341	75.654	-0.182	0.189
-130.326	731.364	0.091	-0.238
-129.312	-25.974	-0.120	0.069
-128.297	252.304	-0.113	0.190
-127.283	-82.226	0.325	-0.104
-126.268	16.112	0.066	0.052
-125.253	-125.711	0.348	0.052
-124.239	-200.000	0.040	0.274
-123.224	-200.000	0.060	0.273
-122.210	180.280	0.095	-0.138
-121.195	52.119	-0.094	0.088
-120.180	750.458	-0.052	0.138
-119.166	-101.677	0.252	-0.060
-118.151	-99.522	-0.247	0.061
-117.137	-200.000	-0.004	0.073
-116.122	25.169	0.164	-0.134
-115.107	-200.000	0.068	0.378
-114.093	-128.505	0.108	-0.015
-113.078	-200.000	0.372	0.001
-112.064	-136.557	-0.163	0.019
-111.049	467.306	0.040	-0.087
-110.034	-200.000	0.017	-0.218
-109.020	26.720	0.344	0.283
-108.005	-75.841	0.342	-0.119
-106.991	35.962	0.159	0.138
-105.976	359.613	0.046	0.091
-104.962	-200.000	0.084	0.404
-103.947	-200.000	0.028	-0.214
-102.932	800.000	0.115	-0.327
-101.918	-30.779	0.236	0.131
-100.903	217.760	-0.107	0.167
-99.889	800.000	0.035	0.138
-98.874	-184.397	0.108	-0.002
-97.859	214.951	-0.028	-0.044
-96.845	179.410	-0.104	0.150
-95.830	800.000	-0.110	0.376
-94.816	800.000	0.052	0.160
-93.801	129.070	0.136	-0.170
-92.786	-148.136	0.201	0.016
-91.772	-67.988	0.336	0.129
-90.757	257.089	0.181	-0.306
-89.743	414.290	-0.055	0.116
-88.728	-151.951	0.229	-0.016
-87.713	-46.292	-0.181	0.088
-86.699	218.537	-0.125	-0.196
-85.684	17.053	0.240	0.187
-84.670	-8.714	0.293	0.193
-83.655	800.000	-0.045	0.141
-82.640	142.511	0.130	0.169
-81.626	126.985	0.095	0.118
-80.611	-2.203	0.170	-0.117
-79.597	-103.841	0.204	-0.047
-78.582	85.084	0.168	0.181
-77.567	-200.000	0.020	0.173
-76.553	-200.000	0.002	-0.045
-75.538	800.000	-0.018	0.059
-74.524	-137.681	0.277	-0.031
-73.509	-24.316	0.329	0.193
-72.494	800.000	-0.100	0.280
-71.480	238.177	-0.099	0.162
-70.465	-20.769	-0.230	-0.139
-69.451	180.602	0.057	-0.082
-68.436	313.725	-0.154	0.284
-67.422	800.000	-0.048	0.187
-66.407	-34.171	0.145	0.078
-65.392	-48.468	0.144	0.068
-64.378	190.558	0.239	0.353
-63.363	250.088	-0.109	0.182
-62.349	-200.000	-0.042	0.298
-61.334	46.491	-0.948	-0.863
-60.319	228.655	0.447	0.715
-59.305	800.000	-0.312	-1.172
-58.290	93.187	1.011	1.122
-57.276	-200.000	0.326	1.702
-56.261	-200.000	97.756	604.410
-55.246	600.274	1418.868	3456.217
-54.232	188.691	2618.285	3843.909
-53.217	116.702	2162.620	2603.480
-52.203	43.256	1609.727	1442.088
-51.188	34.390	1345.401	1151.963
-50.173	31.310	1304.056	1098.442
-49.159	53.847	1353.588	1275.662
-48.144	55.358	1370.058	1300.174
-47.130	34.449	1327.743	1137.014
-46.115	30.988	1310.038	1101.404
-45.100	30.874	1304.627	1096.143
-44.086	30.896	1301.845	1093.889
-43.071	30.749	1299.759	1091.228
-42.057	30.604	1297.902	1088.779
-41.042	30.685	1296.338	1087.900
-40.027	30.787	1295.022	1087.348
-39.013	30.812	1292.842	1085.620
-37.998	30.819	1290.743	1083.851
-36.984	30.793	1289.423	1082.550
-35.969	30.941	1287.199	1081.500
-34.954	30.926	1285.892	1080.269
-33.940	30.956	1284.632	1079.345
-32.925	30.897	1283.089	1077.662
-31.911	31.036	1281.307	1076.929
-30.896	31.048	1280.079	1075.922
-29.881	30.949	1278.878	1074.298
-28.867	31.014	1277.414	1073.398
-27.852	30.992	1276.124	1072.145
-26.838	31.109	1274.395	1071.326
-25.823	30.927	1273.474	1069.463
-24.809	31.025	1271.773	1068.554
-23.794	30.840	1270.742	1066.588
-22.779	30.862	1269.308	1065.465
-21.765	30.859	1268.183	1064.460
-20.750	30.908	1266.664	1063.423
-19.736	30.788	1265.269	1061.528
-18.721	30.769	1264.336	1060.592
-17.706	30.891	1262.944	1060.076
-16.692	30.848	1262.011	1059.009
-15.677	30.836	1260.513	1057.641
-14.663	30.773	1259.703	1056.561
-13.648	30.763	1258.082	1055.103
-12.633	30.788	1257.702	1054.888
-11.619	30.760	1256.795	1053.925
-10.604	30.844	1255.613	1053.366
-9.590	30.738	1254.793	1052.035
-8.575	30.723	1253.852	1051.122
-7.560	30.735	1253.347	1050.724
-6.546	30.788	1251.947	1049.807
-5.531	30.691	1251.165	1048.563
-4.517	30.769	1250.291	1048.229
-3.502	30.783	1249.468	1047.574
-2.487	30.784	1248.839	1047.014
-1.473	30.842	1244.789	1043.900
-0.458	29.854	1230.361	1026.283
0.556	24.312	1213.614	991.972
1.571	21.215	1219.854	979.639
2.586	20.454	1234.898	987.312
3.600	20.016	1224.170	976.179
4.615	14.951	1151.834	891.489
5.629	5.387	1075.141	784.274
6.644	0.308	1053.846	743.656
7.659	-0.162	1051.382	739.539
8.673	-0.236	1050.382	738.401
9.688	-0.318	1049.010	736.969
10.702	0.417	1047.112	739.178
11.717	6.662	1056.517	776.557
12.731	15.841	1069.483	831.565
13.746	20.097	1074.574	856.531
14.761	20.831	1075.820	861.080
15.775	20.900	1075.285	860.915
16.790	20.767	1074.058	859.201
17.804	20.743	1073.417	858.490
18.819	20.803	1073.208	858.544
19.834	20.667	1073.232	857.819
20.848	20.861	1072.497	858.112
21.863	20.883	1071.944	857.698
22.877	20.759	1071.410	856.587
23.892	20.716	1070.567	855.626
24.907	20.837	1069.786	855.522
25.921	20.728	1068.728	854.063
26.936	20.747	1067.361	852.987
27.950	20.728	1065.614	851.421
28.965	20.611	1063.443	849.043
29.980	20.899	1061.823	849.079
30.994	21.006	1061.297	849.101
32.009	20.892	1059.806	847.279
33.023	20.662	1059.031	845.469
34.038	20.716	1058.158	844.960
35.053	20.989	1057.448	845.641
36.067	20.979	1056.298	844.601
37.082	20.989	1055.867	844.229
38.096	21.173	1055.293	844.584
39.111	21.221	1054.186	843.857
40.126	21.103	1052.770	842.080
41.140	20.718	1051.006	838.736
42.155	20.464	1050.056	836.680
43.169	20.556	1048.858	836.099
44.184	20.475	1047.954	834.912
45.199	20.323	1046.973	833.327
46.213	20.615	1045.520	833.500
47.228	20.756	1044.526	833.306
48.242	20.699	1044.092	832.614
49.257	20.732	1043.143	831.942
50.271	20.945	1042.210	832.139
51.286	21.025	1041.167	831.615
52.301	20.899	1040.677	830.548
53.315	20.814	1039.537	829.163
54.330	20.800	1038.520	828.211
55.344	20.790	1038.221	827.854
56.359	20.829	1036.971	826.965
57.374	20.628	1035.835	825.034
58.388	20.684	1035.169	824.696
59.403	20.515	1034.610	823.378
60.417	20.429	1033.408	821.939
61.432	20.455	1033.164	821.794
62.447	20.641	1032.116	821.768
63.461	20.678	1031.114	821.075
64.476	20.712	1030.316	820.526
65.490	20.567	1029.547	819.160
66.505	20.641	1028.850	818.879
67.520	20.649	1028.087	818.238
68.534	20.370	1026.933	815.934
69.549	20.096	1025.815	813.687
70.563	20.249	1024.275	813.113
71.578	20.270	1023.888	812.833
72.593	20.050	1022.922	810.965
73.607	20.254	1022.538	811.539
74.622	20.443	1022.719	812.496
75.636	20.482	1021.903	811.960
76.651	20.234	1020.882	809.916
77.666	20.225	1019.962	809.073
78.680	20.388	1019.630	809.501
79.695	20.344	1019.036	808.753
80.709	20.525	1017.975	808.679
81.724	20.548	1017.070	807.998
82.739	20.551	1016.443	807.441
83.753	20.892	1015.858	808.488
84.768	21.081	1015.034	808.635
85.782	21.205	1013.817	808.167
86.797	21.154	1013.067	807.264
87.812	21.019	1011.902	805.642
88.826	21.028	1011.089	804.962
89.841	21.106	1010.351	804.663
90.855	21.136	1009.336	803.923
91.870	21.015	1008.643	802.742
92.884	20.812	1007.347	800.708
93.899	20.917	1006.128	800.148
94.914	21.148	1005.210	800.408
95.928	21.049	1004.102	799.002
96.943	20.740	1003.034	796.665
97.957	20.539	1002.055	794.901
98.972	20.357	1000.947	793.118
99.987	20.521	1000.343	793.321
101.001	20.689	999.715	793.516
102.016	20.675	999.064	792.867
103.030	20.796	997.355	791.990
104.045	20.581	996.837	790.533
105.060	20.452	995.545	788.849
106.074	20.670	995.067	789.393
107.089	21.009	994.655	790.534
108.103	20.864	993.090	788.560
109.118	20.722	991.817	786.841
110.133	20.746	990.895	786.145
111.147	20.542	989.865	784.342
112.162	20.326	988.990	782.605
113.176	20.594	988.469	783.331
114.191	20.443	987.649	781.929
115.206	20.219	986.132	779.653
116.220	20.285	985.457	779.346
117.235	20.407	984.346	778.946
118.249	20.328	983.702	778.016
119.264	20.187	983.254	776.958
120.279	20.295	982.383	776.688
121.293	20.423	981.236	776.284
122.308	20.382	980.450	775.409
123.322	20.245	979.198	773.738
124.337	20.169	977.949	772.344
125.352	19.685	976.222	768.760
126.366	19.637	975.001	767.520
127.381	20.429	974.888	770.877
128.395	20.740	974.845	772.155
129.410	20.832	973.979	771.810
130.424	20.903	972.316	770.736
131.439	20.907	971.259	769.849
132.454	20.718	970.996	768.737
133.468	20.767	969.839	767.971
134.483	20.720	969.572	767.482
135.497	20.990	968.318	767.610
136.512	21.116	967.409	767.377
137.527	21.042	966.677	766.404
138.541	20.993	965.815	765.437
139.556	21.065	964.641	764.755
140.570	21.028	964.308	764.260
141.585	21.102	962.995	763.474
142.600	21.005	962.236	762.383
143.614	21.230	961.310	762.562
144.629	21.431	960.590	762.800
145.643	21.176	959.387	760.670
146.658	21.015	957.916	758.737
147.673	20.914	956.968	757.480
148.687	20.862	956.188	756.570
149.702	20.884	954.719	755.435
150.716	20.827	954.045	754.587
151.731	20.961	953.371	754.565
152.746	21.123	952.907	754.834
153.760	21.173	952.287	754.491
154.775	21.132	952.054	754.065
155.789	21.222	950.470	753.131
156.804	21.265	949.325	752.341
157.819	21.238	948.948	751.862
158.833	21.398	947.936	751.681
159.848	21.207	947.466	750.421
160.862	20.972	946.087	748.251
161.877	21.236	945.162	748.585
162.892	21.426	943.828	748.275
163.906	21.330	942.618	746.839
164.921	21.185	942.142	745.778
165.935	21.311	941.021	745.363
166.950	21.317	940.414	744.840
167.964	21.142	939.502	743.308
168.979	20.992	938.752	742.009
169.994	21.013	937.763	741.253
171.008	21.143	937.587	741.600
172.023	21.087	936.570	740.491
173.037	20.930	935.226	738.698
174.052	20.970	934.109	737.920
175.067	20.938	933.441	737.193
176.081	21.160	932.905	737.643
177.096	20.978	932.402	736.408
178.110	20.787	930.921	734.368
179.125	20.584	930.971	733.487
180.140	20.544	930.333	732.753
181.154	20.910	929.834	733.836
182.169	20.957	929.933	734.048
183.183	21.404	928.804	734.971
184.198	21.157	928.450	733.585
185.213	21.111	927.195	732.339
186.227	21.130	927.368	732.488
187.242	21.126	926.351	731.603
188.256	21.211	925.876	731.521
189.271	21.204	925.396	731.045
190.286	20.973	923.800	728.754
191.300	20.346	922.364	724.941
192.315	19.642	920.757	720.678
193.329	19.626	920.478	720.332
194.344	20.553	920.697	724.301
195.359	21.080	920.584	726.343
196.373	21.141	920.230	726.252
197.388	21.030	919.368	725.047
198.402	20.978	918.681	724.225
199.417	21.132	918.162	724.390
200.432	20.853	916.871	722.151
201.446	20.584	916.428	720.626
202.461	20.570	915.747	719.968
203.475	19.834	914.030	715.512
204.490	19.240	912.625	711.894
205.504	20.208	912.730	715.913
206.519	20.659	913.203	718.081
207.534	20.767	912.671	718.043
208.548	21.139	912.548	719.417
209.563	20.837	911.621	717.377
210.577	20.929	910.896	717.126
211.592	21.423	910.304	718.627
212.607	21.093	909.755	716.771
213.621	21.335	908.960	717.074
214.636	21.266	908.389	716.280
215.650	21.233	907.332	715.249
216.665	21.427	906.880	715.622
217.680	21.196	906.108	714.006
218.694	20.890	904.742	711.618
219.709	20.711	903.971	710.218
220.723	20.960	903.915	711.126
221.738	21.139	902.984	711.060
222.753	20.941	903.043	710.234
223.767	21.108	902.194	710.184
224.782	21.409	901.905	711.120
225.796	21.460	900.698	710.310
226.811	20.723	899.435	706.265
227.826	20.088	898.599	702.969
228.840	20.194	897.871	702.765
229.855	20.218	897.398	702.431
230.869	19.892	896.413	700.281
231.884	20.295	896.307	701.765
232.899	21.156	896.315	705.187
233.913	20.947	895.262	703.455
234.928	21.074	894.828	703.563
235.942	20.968	894.400	702.739
236.957	20.765	893.289	700.986
237.972	20.834	892.716	700.753
238.986	20.818	891.933	700.009
240.001	20.927	891.233	699.836
241.015	21.081	890.704	699.979
242.030	21.107	890.478	699.842
243.045	20.951	890.321	699.032
244.059	21.288	889.380	699.582
245.074	20.984	888.707	697.773
246.088	20.772	887.268	695.732
247.103	21.087	887.103	696.800
248.117	21.518	887.627	698.873
249.132	21.633	887.097	698.852
250.147	21.934	886.362	699.412
251.161	21.880	886.214	699.017
252.176	21.890	885.226	698.218
253.190	21.954	884.469	697.814
254.205	22.130	884.306	698.323
255.220	22.055	883.495	697.321
256.234	21.906	882.870	696.174
257.249	21.924	881.720	695.280
258.263	21.866	881.210	694.584
259.278	21.987	880.459	694.409
260.293	22.109	879.911	694.397
261.307	21.821	879.477	692.858
262.322	21.781	878.278	691.693
263.336	20.929	876.458	686.841
264.351	19.896	874.727	681.362
265.366	20.000	874.579	681.595
266.380	21.168	874.795	686.297
267.395	21.541	874.653	687.592
268.409	21.413	874.230	686.693
269.424	21.794	873.453	687.517
270.439	21.863	872.771	687.192
271.453	21.819	872.506	686.750
272.468	22.022	872.098	687.162
273.482	22.058	871.777	686.988
274.497	21.663	870.683	684.521
275.512	21.268	869.620	682.082
276.526	21.642	869.558	683.435
277.541	21.758	869.431	683.726
278.555	21.572	868.129	681.917
279.570	21.352	867.459	680.474
280.585	21.611	866.639	680.777
281.599	21.537	865.738	679.724
282.614	21.039	864.843	677.027
283.628	21.051	864.217	676.523
284.643	21.465	864.017	677.913
285.657	20.978	862.964	675.140
286.672	20.766	861.779	673.334
287.687	21.327	862.005	675.621
288.701	21.294	861.483	675.024
289.716	21.071	860.402	673.258
290.730	21.015	859.788	672.500
291.745	20.671	858.436	670.059
292.760	21.121	858.635	671.890
293.774	21.978	859.521	675.824
294.789	22.320	858.953	676.635
295.803	22.250	858.407	675.872
296.818	22.390	857.636	675.745
297.833	21.795	856.854	672.786
298.847	21.751	855.864	671.780
299.862	22.026	855.723	672.665
300.876	22.373	855.327	673.621
301.891	22.322	854.380	672.621
302.906	21.817	853.514	669.951
303.920	21.915	853.484	670.242
304.935	22.256	852.824	670.966
305.949	22.175	852.503	670.346
306.964	21.968	851.441	668.661
307.979	22.243	851.291	669.532
308.993	22.558	851.060	670.490
310.008	22.379	850.388	669.222
311.022	22.156	849.893	667.924
312.037	22.046	848.863	666.638
313.052	21.763	848.009	664.835
314.066	20.959	846.680	660.690
315.081	20.789	846.121	659.551
316.095	21.639	846.018	662.630
317.110	21.977	846.134	663.939
318.125	21.100	844.690	659.437
319.139	20.195	842.960	654.614
320.154	20.107	842.838	654.127
321.168	20.966	843.466	657.800
322.183	21.627	843.193	660.021
323.197	21.807	842.949	660.449
324.212	22.050	842.801	661.190
325.227	22.005	842.287	660.560
326.241	21.949	841.211	659.449
327.256	21.882	840.677	658.718
328.270	21.823	839.769	657.728
329.285	21.652	839.327	656.681
330.300	21.529	837.876	655.029
331.314	21.738	838.002	655.850
332.329	21.878	838.079	656.378
333.343	22.210	837.658	657.230
334.358	22.189	837.240	656.767
335.373	22.174	836.855	656.348
336.387	22.512	836.536	657.301
337.402	22.605	836.665	657.693
338.416	22.544	836.219	657.056
339.431	22.640	835.755	656.991
340.446	22.804	835.183	657.094
341.460	22.644	834.744	656.095
342.475	22.463	834.078	654.840
343.489	22.528	834.220	655.136
344.504	22.862	833.266	655.571
345.519	22.996	833.042	655.832
346.533	22.854	832.842	655.091
347.548	22.966	832.345	655.056
348.562	22.907	832.100	654.587
349.577	22.965	831.377	654.175
350.592	22.822	830.745	653.092
351.606	22.767	829.823	652.106
352.621	22.766	828.799	651.238
353.635	22.716	828.068	650.423
354.650	22.085	826.570	646.867
355.665	21.281	824.667	642.366
356.679	21.555	825.078	643.635
357.694	21.952	824.455	644.552
358.708	21.849	823.750	643.563
359.723	22.355	823.734	645.351
360.738	22.614	823.108	645.751
361.752	22.746	823.120	646.190
362.767	23.033	822.663	646.825
363.781	23.148	822.422	646.996
364.796	23.241	822.438	647.293
365.810	23.317	821.792	647.005
366.825	23.341	821.208	646.576
367.840	22.966	820.230	644.380
368.854	22.591	819.113	642.080
369.869	22.681	818.691	642.020
370.883	22.505	818.695	641.324
371.898	22.595	817.903	640.977
372.913	22.830	817.623	641.555
373.927	22.907	817.040	641.317
374.942	22.910	816.885	641.152
375.956	22.962	816.843	641.250
376.971	22.944	816.721	641.032
377.986	23.336	816.034	641.856
379.000	23.124	815.357	640.502
380.015	22.946	814.841	639.394
381.029	22.864	814.441	638.727
382.044	23.295	813.686	639.634
383.059	23.238	813.121	638.929
384.073	23.253	812.801	638.677
385.088	23.234	812.103	638.003
386.102	22.947	811.414	636.371
387.117	23.019	810.763	636.064
388.132	22.635	809.442	633.590
389.146	22.313	808.496	631.640
390.161	22.566	808.430	632.437
391.175	22.967	808.617	633.970
392.190	22.514	807.476	631.395
393.205	21.276	805.324	625.227
394.219	19.889	803.594	618.872
395.234	19.809	803.680	618.598
396.248	21.586	804.825	625.783
397.263	22.902	805.851	631.231
398.278	22.772	805.112	630.133
399.292	22.598	804.465	628.950
400.307	22.622	804.116	628.708
401.321	22.774	803.333	628.579
402.336	23.041	803.848	629.880
403.350	23.458	803.531	631.061
404.365	23.699	803.198	631.598
405.380	23.847	802.908	631.842
406.394	24.005	802.352	631.910
407.409	23.804	801.915	630.796
408.423	23.895	801.793	630.966
409.438	23.869	801.333	630.457
410.453	23.796	800.697	629.643
411.467	23.876	800.077	629.380
412.482	23.842	799.879	629.050
413.496	24.199	799.350	629.842
414.511	23.981	798.901	628.662
415.526	23.785	799.108	628.076
416.540	23.927	797.864	627.542
417.555	23.791	796.610	626.022
418.569	23.664	796.807	625.673
419.584	23.542	795.954	624.521
420.599	23.398	795.706	623.762
421.613	156.345	1365.874	1797.166
422.628	135.516	1448.942	1797.278
