DTS Sentinel unit serial number:	SN413079Multiplexer serial number:	ORYXHardware model number:	OX4-SRSoftware version number:	ORYX F/W v4.00 Oryx Data Collector v3.7.2.0data status	okinstallation	princeton_trtdifferential loss correction	single-endedforward channel	channel 1reverse channel	N/Adate	2019/09/12time	20:30:35forward acquisition time	60.00reverse acquisition time	0.00gamma	496.2192k internal	0.2324k external	0.2324temperature offset calibration	1.0148default loss term (dB/km)	0.3790temperature slope calibration	1.0000multiplexer offset coefficient	1.0000multiplexer slope coefficient	1.0000fibre end	0.00T internal ref (°C)	31.27T ext. ref 1 (°C)	3.57T ext. ref 2 (°C)	25.81length (m)	temperature (°C)	Stokes	anti-Stokes-747.200	-89.921	0.115	0.034
-746.185	800.000	0.156	0.677
-745.171	368.015	0.058	0.119
-744.156	-121.760	0.219	0.036
-743.142	-135.398	0.199	-0.024
-742.127	309.302	-0.162	0.305
-741.112	-200.000	0.033	-0.219
-740.098	-156.439	0.268	0.017
-739.083	162.386	-0.176	-0.249
-738.069	531.532	-0.080	0.192
-737.054	-102.819	-0.375	-0.090
-736.039	-34.834	-0.372	0.205
-735.025	200.602	0.036	-0.056
-734.010	-79.108	0.141	0.048
-732.996	-200.000	-0.038	-0.169
-731.981	-88.297	-0.249	0.075
-730.966	-159.418	0.249	0.014
-729.952	-20.782	0.166	-0.103
-728.937	344.606	0.069	0.136
-727.923	340.866	0.176	-0.348
-726.908	-104.723	0.116	0.027
-725.894	469.583	-0.172	-0.389
-724.879	84.908	-0.145	-0.160
-723.864	2.160	-0.287	-0.209
-722.850	-200.000	-0.010	-0.230
-721.835	341.784	-0.112	-0.222
-720.821	-92.447	0.218	-0.062
-719.806	-103.351	-0.111	-0.026
-718.791	-169.422	-0.054	0.002
-717.777	-199.579	-0.270	-0.001
-716.762	-200.000	-0.026	-0.136
-715.748	21.968	-0.384	-0.316
-714.733	-200.000	0.016	-0.412
-713.718	251.329	-0.082	-0.142
-712.704	-86.974	0.275	-0.084
-711.689	-152.715	-0.243	0.017
-710.675	-58.537	0.224	0.098
-709.660	72.301	0.114	0.120
-708.645	396.039	-0.034	0.072
-707.631	324.840	0.039	0.074
-706.616	47.790	0.260	0.245
-705.602	800.000	0.076	0.231
-704.587	-53.379	0.314	-0.145
-703.572	-20.088	-0.151	-0.094
-702.558	-23.127	0.225	-0.136
-701.543	-115.283	-0.347	0.066
-700.529	392.870	0.101	0.213
-699.514	100.271	-0.278	0.326
-698.499	711.762	0.028	0.073
-697.485	-200.000	0.011	-0.096
-696.470	-49.331	-0.077	-0.037
-695.456	-49.799	-0.469	-0.225
-694.441	-200.000	-0.046	-0.256
-693.426	627.441	-0.071	-0.181
-692.412	-69.677	-0.090	-0.035
-691.397	-200.000	-0.007	-0.385
-690.383	315.024	0.209	-0.396
-689.368	-0.871	-0.076	-0.054
-688.354	-3.260	0.080	-0.056
-687.339	18.042	-0.226	-0.182
-686.324	-27.454	-0.059	-0.035
-685.310	-200.000	0.014	0.137
-684.295	-128.484	-0.584	-0.083
-683.281	800.000	-0.080	-0.273
-682.266	-200.000	-0.039	0.228
-681.251	-131.335	0.199	-0.027
-680.237	718.848	-0.069	0.186
-679.222	-169.056	-0.354	-0.013
-678.208	-104.939	0.079	0.018
-677.193	-79.307	-0.238	0.081
-676.178	-200.000	-0.029	0.141
-675.164	-93.671	-0.191	-0.053
-674.149	-32.653	-0.341	0.191
-673.135	-200.000	-0.074	-0.376
-672.120	117.669	0.016	-0.019
-671.105	-200.000	-0.004	0.176
-670.091	37.200	0.196	0.175
-669.076	-200.000	0.002	0.369
-668.062	-200.000	-0.012	0.285
-667.047	43.104	0.143	0.131
-666.032	-40.197	-0.100	-0.052
-665.018	-20.605	0.042	-0.026
-664.003	-199.378	0.126	0.001
-662.989	11.117	0.300	0.231
-661.974	-200.000	0.000	0.339
-660.959	114.828	0.191	0.234
-659.945	-29.102	-0.087	0.050
-658.930	-76.845	-0.221	-0.078
-657.916	-5.366	0.212	0.147
-656.901	260.177	-0.028	-0.049
-655.886	800.000	0.025	-0.089
-654.872	-200.000	-0.012	0.110
-653.857	-60.687	-0.309	0.132
-652.843	-114.786	0.305	-0.059
-651.828	31.573	0.209	0.181
-650.814	68.670	-0.251	0.259
-649.799	46.676	-0.111	-0.103
-648.784	174.875	0.191	0.279
-647.770	495.813	-0.133	-0.307
-646.755	-21.990	-0.108	0.066
-645.741	-21.121	-0.309	-0.190
-644.726	-31.014	-0.207	-0.118
-643.711	-38.423	0.330	0.176
-642.697	171.691	-0.038	0.055
-641.682	3.997	0.096	-0.071
-640.668	-144.512	-0.042	-0.004
-639.653	-200.000	0.008	0.038
-638.638	60.005	-0.108	-0.107
-637.624	175.770	0.048	-0.071
-636.609	-23.104	0.107	-0.065
-635.595	94.460	-0.176	-0.202
-634.580	197.385	0.172	0.264
-633.565	-200.000	-0.016	0.077
-632.551	-4.602	0.076	0.053
-631.536	121.543	-0.086	0.108
-630.522	-15.811	0.210	-0.134
-629.507	-78.056	0.078	-0.027
-628.492	-67.481	-0.218	0.086
-627.478	-158.996	-0.215	0.012
-626.463	54.583	-0.113	0.109
-625.449	-112.385	0.031	0.006
-624.434	-200.000	-0.004	-0.125
-623.419	63.661	0.151	-0.152
-622.405	-200.000	-0.031	-0.216
-621.390	-63.145	0.325	0.135
-620.376	-128.439	-0.210	0.030
-619.361	-60.299	0.202	0.086
-618.346	-91.915	-0.226	0.064
-617.332	621.828	0.024	0.062
-616.317	-200.000	-0.017	-0.221
-615.303	-200.000	0.016	-0.152
-614.288	800.000	0.124	-0.519
-613.273	-187.986	0.040	-0.001
-612.259	31.262	-0.036	0.031
-611.244	688.361	0.091	-0.238
-610.230	-1.765	-0.138	0.097
-609.215	-91.008	-0.082	-0.024
-608.201	-46.984	0.046	-0.023
-607.186	800.000	-0.107	0.373
-606.171	745.055	-0.061	0.164
-605.157	-165.273	-0.106	0.005
-604.142	800.000	-0.046	-0.145
-603.128	-98.545	0.100	0.026
-602.113	231.996	0.032	0.052
-601.098	177.122	-0.119	0.175
-600.084	-200.000	-0.032	-0.181
-599.069	800.000	0.061	-0.261
-598.055	0.385	0.144	0.103
-597.040	587.531	-0.022	0.054
-596.025	70.478	-0.150	-0.156
-595.011	-88.556	-0.219	0.065
-593.996	-200.000	-0.011	0.113
-592.982	-197.958	0.261	-0.002
-591.967	747.497	-0.014	-0.038
-590.952	126.949	0.248	-0.315
-589.938	-200.000	0.050	-0.327
-588.923	-7.566	-0.193	0.131
-587.909	407.002	-0.054	0.113
-586.894	188.252	-0.068	0.102
-585.879	-82.326	-0.142	-0.046
-584.865	-200.000	0.055	0.294
-583.850	183.560	0.148	0.219
-582.836	-58.699	-0.144	0.063
-581.821	-35.935	-0.212	0.115
-580.806	-163.898	0.154	0.007
-579.792	217.441	-0.112	-0.179
-578.777	195.302	0.059	0.090
-577.763	-102.833	-0.322	0.077
-576.748	-200.000	-0.016	-0.355
-575.733	-200.000	0.013	0.074
-574.719	-66.891	0.190	0.075
-573.704	340.096	-0.109	-0.214
-572.690	-133.038	-0.134	-0.017
-571.675	63.047	0.026	0.026
-570.661	800.000	0.025	0.108
-569.646	-7.566	0.188	0.128
-568.631	500.832	-0.070	-0.162
-567.617	-32.384	-0.095	-0.053
-566.602	800.000	0.044	0.127
-565.588	268.868	-0.045	-0.079
-564.573	-49.790	0.400	-0.190
-563.558	178.040	-0.276	0.404
-562.544	395.352	0.189	0.396
-561.529	14.658	0.136	0.106
-560.515	-19.069	0.325	-0.202
-559.500	-63.371	0.204	-0.084
-558.485	-49.904	0.356	0.169
-557.471	253.962	0.015	0.025
-556.456	200.132	-0.055	-0.085
-555.442	670.786	0.082	-0.213
-554.427	-200.000	-0.003	-0.059
-553.412	292.821	0.209	0.382
-552.398	-200.000	0.007	-0.134
-551.383	-130.070	-0.160	-0.022
-550.369	800.000	-0.058	0.181
-549.354	294.311	-0.089	0.162
-548.339	-77.477	-0.048	0.017
-547.325	800.000	0.092	-0.292
-546.310	216.692	-0.069	-0.110
-545.296	53.100	0.143	-0.137
-544.281	-101.818	0.296	0.072
-543.266	235.547	0.181	0.300
-542.252	780.278	-0.117	0.321
-541.237	729.513	-0.187	-0.500
-540.223	-136.238	0.106	0.012
-539.208	475.439	0.033	-0.076
-538.193	81.953	-0.108	-0.117
-537.179	-64.028	-0.077	0.031
-536.164	11.368	0.100	0.077
-535.150	-141.988	-0.136	0.014
-534.135	161.712	-0.045	0.064
-533.121	90.755	0.143	-0.161
-532.106	220.760	0.040	0.065
-531.091	-22.712	-0.138	-0.083
-530.077	-74.415	-0.120	0.043
-529.062	-200.000	-0.025	-0.178
-528.048	-125.475	-0.418	0.064
-527.033	33.674	-0.150	-0.131
-526.018	-81.867	-0.054	-0.018
-525.004	32.598	-0.268	0.232
-523.989	-200.000	-0.005	0.409
-522.975	-133.487	-0.411	-0.052
-521.960	361.305	0.191	-0.383
-520.945	315.852	-0.116	0.219
-519.931	-200.000	0.061	0.421
-518.916	-200.000	0.020	0.208
-517.902	5.807	-0.192	-0.142
-516.887	800.000	0.071	-0.207
-515.872	-137.343	-0.299	0.034
-514.858	-57.745	0.148	-0.065
-513.843	-200.000	-0.024	-0.225
-512.829	140.028	0.227	-0.299
-511.814	-175.926	-0.159	0.004
-510.799	-175.030	-0.205	0.006
-509.785	-13.360	-0.146	-0.095
-508.770	172.827	0.309	-0.445
-507.756	-97.919	0.193	0.050
-506.741	44.386	-0.195	-0.179
-505.726	92.761	-0.109	-0.123
-504.712	-200.000	0.024	-0.220
-503.697	-200.000	0.003	-0.012
-502.683	379.841	-0.018	0.038
-501.668	111.016	-0.233	0.281
-500.653	10.953	0.280	0.214
-499.639	-156.229	0.025	-0.002
-498.624	89.527	0.108	0.120
-497.610	-131.316	-0.367	0.049
-496.595	269.587	0.133	0.234
-495.581	-11.914	-0.075	-0.049
-494.566	-89.249	0.126	-0.037
-493.551	800.000	-0.094	-0.284
-492.537	800.000	0.042	0.157
-491.522	380.184	-0.039	-0.081
-490.508	-12.229	0.145	-0.095
-489.493	-105.591	-0.319	-0.072
-488.478	-5.918	0.148	-0.101
-487.464	-200.000	-0.092	-0.422
-486.449	-65.667	0.121	-0.049
-485.435	307.439	0.076	0.142
-484.420	-131.217	0.430	0.057
-483.405	-200.000	-0.035	-0.239
-482.391	800.000	0.039	-0.129
-481.376	-76.673	-0.317	-0.111
-480.362	-167.186	0.423	-0.017
-479.347	-200.000	-0.058	0.366
-478.332	-99.430	-0.183	0.046
-477.318	-22.138	-0.081	0.049
-476.303	194.757	-0.124	0.187
-475.289	-200.000	-0.027	-0.261
-474.274	566.017	-0.050	0.122
-473.259	-196.175	-0.353	0.002
-472.245	10.536	0.227	0.173
-471.230	412.099	-0.119	-0.252
-470.216	-131.949	0.437	0.057
-469.201	-110.265	-0.170	-0.035
-468.186	176.094	-0.077	0.111
-467.172	-141.990	-0.259	0.026
-466.157	149.635	0.195	-0.264
-465.143	12.169	-0.105	-0.081
-464.128	-200.000	-0.006	-0.030
-463.113	-132.635	0.205	0.026
-462.099	-146.641	-0.195	0.017
-461.084	-200.000	0.007	-0.255
-460.070	800.000	0.142	-0.413
-459.055	610.943	0.062	-0.155
-458.040	-29.055	0.213	0.122
-457.026	164.553	-0.161	0.226
-456.011	70.024	0.117	0.120
-454.997	800.000	-0.068	0.225
-453.982	-143.882	0.515	-0.049
-452.968	-58.935	0.232	0.100
-451.953	800.000	0.049	-0.205
-450.938	-79.847	-0.289	-0.097
-449.924	481.525	0.133	0.301
-448.909	132.235	-0.105	-0.136
-447.895	-112.496	0.099	-0.020
-446.880	-200.000	0.082	0.375
-445.865	77.896	-0.152	0.162
-444.851	-110.064	-0.075	0.016
-443.836	6.748	-0.366	-0.272
-442.822	-164.463	-0.165	-0.008
-441.807	-95.965	-0.241	0.064
-440.792	-113.349	0.260	-0.051
-439.778	72.927	0.101	-0.105
-438.763	56.906	-0.171	-0.166
-437.749	800.000	0.075	0.216
-436.734	765.403	-0.009	0.024
-435.719	-95.529	0.191	-0.051
-434.705	-31.483	0.139	-0.078
-433.690	151.580	0.176	0.240
-432.676	-200.000	0.022	-0.095
-431.661	-200.000	-0.031	-0.186
-430.646	82.299	-0.165	0.178
-429.632	-162.223	0.139	0.007
-428.617	248.355	0.021	-0.036
-427.603	-90.307	-0.426	-0.123
-426.588	-82.345	0.021	0.007
-425.573	-71.056	-0.075	-0.028
-424.559	458.591	0.102	0.225
-423.544	-12.849	-0.091	0.059
-422.530	503.731	0.022	0.050
-421.515	-160.593	0.183	0.010
-420.500	137.616	0.035	-0.045
-419.486	-89.820	0.124	0.036
-418.471	250.915	-0.015	-0.025
-417.457	-200.000	-0.024	-0.259
-416.442	-111.424	0.356	0.072
-415.428	-78.561	-0.411	0.140
-414.413	-79.878	0.003	0.001
-413.398	121.486	0.112	-0.139
-412.384	244.873	0.139	0.233
-411.369	800.000	-0.023	0.089
-410.355	439.781	-0.036	0.079
-409.340	-122.969	0.167	0.027
-408.325	1.754	0.144	0.104
-407.311	108.571	0.083	0.098
-406.296	-138.946	-0.241	0.026
-405.282	167.020	-0.050	0.070
-404.267	-200.000	-0.038	-0.183
-403.252	-155.789	-0.281	0.018
-402.238	163.514	-0.186	-0.261
-401.223	-85.699	-0.266	0.082
-400.209	-200.000	-0.044	-0.400
-399.194	588.321	-0.116	0.286
-398.179	110.856	0.242	-0.290
-397.165	-150.994	-0.236	-0.018
-396.150	-99.702	0.153	-0.038
-395.136	-116.303	-0.203	0.038
-394.121	800.000	0.068	-0.256
-393.106	90.489	0.200	0.223
-392.092	800.000	-0.084	-0.338
-391.077	-200.000	-0.020	-0.124
-390.063	-200.000	-0.012	-0.093
-389.048	800.000	-0.075	0.312
-388.033	-111.858	0.150	0.030
-387.019	236.255	0.080	-0.131
-386.004	-200.000	-0.007	-0.165
-384.990	-33.396	-0.207	-0.114
-383.975	-200.000	-0.008	0.033
-382.960	492.004	0.115	-0.263
-381.946	51.733	-0.289	-0.273
-380.931	-200.000	-0.038	0.275
-379.917	190.348	-0.091	0.137
-378.902	412.344	0.148	-0.312
-377.888	9.381	-0.074	-0.056
-376.873	-15.095	-0.071	0.045
-375.858	571.413	-0.071	0.172
-374.844	4.895	0.077	-0.057
-373.829	-57.169	-0.170	-0.075
-372.815	-186.373	-0.399	-0.006
-371.800	283.867	-0.151	-0.270
-370.785	800.000	-0.120	-0.331
-369.771	800.000	0.084	-0.290
-368.756	-166.090	-0.269	0.011
-367.742	-176.831	0.150	-0.004
-366.727	191.438	0.172	-0.258
-365.712	-150.040	0.400	-0.031
-364.698	-200.000	-0.017	-0.094
-363.683	-200.000	0.029	0.170
-362.669	-36.610	0.066	-0.035
-361.654	-100.661	-0.135	-0.033
-360.639	110.892	0.212	-0.254
-359.625	132.609	0.134	0.172
-358.610	-71.933	0.232	0.086
-357.596	55.671	0.048	0.046
-356.581	-3.147	0.232	-0.161
-355.566	-200.000	-0.005	0.239
-354.552	-200.000	0.000	0.336
-353.537	138.193	0.187	0.244
-352.523	-200.000	-0.029	0.303
-351.508	-200.000	-0.005	0.073
-350.493	209.699	-0.189	0.294
-349.479	339.920	0.120	-0.232
-348.464	-49.470	0.065	-0.031
-347.450	-142.281	-0.140	-0.014
-346.435	-45.328	0.274	0.135
-345.420	27.472	-0.206	0.172
-344.406	-200.000	-0.015	0.279
-343.391	-87.113	0.190	0.058
-342.377	495.851	0.109	-0.249
-341.362	503.886	0.090	0.207
-340.348	-200.000	-0.037	0.184
-339.333	34.327	-0.104	-0.090
-338.318	184.475	0.044	-0.065
-337.304	-135.571	0.162	0.019
-336.289	277.642	0.123	-0.217
-335.275	-13.661	-0.095	-0.061
-334.260	-166.391	-0.230	-0.010
-333.245	800.000	0.064	0.176
-332.231	-51.832	0.124	-0.058
-331.216	-42.679	-0.248	-0.125
-330.202	-92.002	0.285	0.080
-329.187	-200.000	-0.024	-0.110
-328.172	-88.354	0.269	-0.080
-327.158	-200.000	-0.027	-0.211
-326.143	-76.071	-0.184	-0.064
-325.129	-200.000	-0.020	0.192
-324.114	33.429	0.289	0.249
-323.099	800.000	0.055	-0.194
-322.085	-103.189	0.202	0.047
-321.070	725.080	-0.027	-0.072
-320.056	800.000	0.085	0.319
-319.041	-200.000	0.066	0.442
-318.026	290.265	0.131	0.237
-317.012	50.946	-0.119	-0.112
-315.997	49.122	-0.203	0.189
-314.983	117.373	0.170	-0.208
-313.968	-200.000	-0.009	0.533
-312.953	-15.668	0.176	0.112
-311.939	-200.000	0.050	-0.227
-310.924	43.758	-0.119	0.108
-309.910	-131.377	0.342	0.045
-308.895	61.337	0.153	0.151
-307.880	103.864	0.161	-0.188
-306.866	-147.608	0.266	-0.022
-305.851	-98.714	-0.137	-0.035
-304.837	-200.000	-0.003	0.033
-303.822	12.730	0.315	-0.241
-302.807	-167.902	0.341	-0.013
-301.793	-200.000	-0.025	-0.186
-300.778	-91.874	-0.291	0.082
-299.764	197.078	-0.013	-0.019
-298.749	51.752	-0.175	0.166
-297.735	-67.207	-0.083	-0.032
-296.720	-16.340	0.286	0.180
-295.705	-31.890	-0.127	-0.071
-294.691	293.645	-0.068	0.122
-293.676	-200.000	-0.004	0.093
-292.662	-85.240	0.201	-0.062
-291.647	-104.314	-0.171	-0.039
-290.632	-200.000	0.017	0.245
-289.618	-200.000	0.047	0.353
-288.603	-200.000	-0.029	0.232
-287.589	90.531	0.231	-0.257
-286.574	13.316	-0.243	-0.187
-285.559	68.280	-0.116	0.118
-284.545	48.036	0.097	0.090
-283.530	170.226	0.074	-0.105
-282.516	-66.436	-0.142	0.056
-281.501	185.772	-0.170	0.250
-280.486	800.000	-0.095	-0.361
-279.472	-200.000	-0.031	-0.301
-278.457	800.000	0.024	0.099
-277.443	-5.856	0.268	-0.182
-276.428	-22.573	0.154	-0.092
-275.413	-80.690	-0.455	0.150
-274.399	-114.575	-0.247	-0.047
-273.384	-81.040	0.061	-0.020
-272.370	-178.229	0.456	0.011
-271.355	23.039	-0.061	0.050
-270.340	-200.000	-0.026	-0.268
-269.326	620.692	-0.028	0.071
-268.311	622.864	0.116	0.290
-267.297	-200.000	-0.006	0.263
-266.282	22.220	-0.131	0.106
-265.267	-200.000	-0.016	0.108
-264.253	-83.031	0.294	-0.094
-263.238	58.547	0.066	0.065
-262.224	-99.575	0.349	-0.087
-261.209	50.312	-0.181	0.169
-260.195	-153.192	0.162	0.011
-259.180	155.428	-0.169	-0.230
-258.165	261.359	0.126	0.216
-257.151	-200.000	0.152	0.000
-256.136	-58.409	-0.330	-0.142
-255.122	-200.000	0.060	-0.345
-254.107	-95.190	0.319	-0.085
-253.092	-20.282	0.193	-0.118
-252.078	800.000	-0.067	0.183
-251.063	-59.428	-0.326	-0.139
-250.049	77.534	-0.200	-0.211
-249.034	113.182	-0.058	-0.069
-248.019	-107.145	-0.236	0.051
-247.005	276.848	0.046	0.082
-245.990	-200.000	-0.032	-0.195
-244.976	-143.669	0.116	0.011
-243.961	-64.819	0.030	0.012
-242.946	24.671	-0.271	0.222
-241.932	-86.014	0.103	-0.031
-240.917	422.677	-0.149	0.317
-239.903	800.000	-0.027	0.083
-238.888	-88.825	-0.149	-0.044
-237.873	-200.000	-0.007	-0.284
-236.859	20.157	0.149	-0.119
-235.844	800.000	-0.072	0.247
-234.830	64.341	0.063	-0.062
-233.815	125.963	-0.076	0.095
-232.800	-46.569	-0.197	0.096
-231.786	-65.594	-0.077	-0.031
-230.771	37.130	-0.160	0.140
-229.757	-200.000	-0.048	0.376
-228.742	21.469	-0.084	0.068
-227.727	-28.814	-0.178	0.101
-226.713	17.982	-0.134	0.106
-225.698	156.053	0.135	-0.184
-224.684	800.000	-0.019	0.065
-223.669	68.182	-0.227	0.230
-222.655	-159.623	-0.110	0.006
-221.640	144.079	0.161	0.212
-220.625	339.038	-0.041	-0.078
-219.611	-147.836	-0.211	0.017
-218.596	71.313	0.202	-0.207
-217.582	8.955	-0.060	-0.045
-216.567	357.187	-0.111	0.220
-215.552	376.207	0.048	0.097
-214.538	800.000	-0.034	-0.143
-213.523	318.995	0.137	0.257
-212.509	-200.000	0.012	0.276
-211.494	-132.869	0.241	0.030
-210.479	533.470	-0.023	-0.054
-209.465	800.000	-0.042	-0.139
-208.450	339.723	0.185	0.357
-207.436	-200.000	-0.083	0.423
-206.421	-139.055	-0.370	0.040
-205.406	-41.614	0.331	-0.168
-204.392	-200.000	-0.011	-0.264
-203.377	-122.303	-0.264	0.043
-202.363	115.243	-0.152	-0.183
-201.348	-26.823	0.034	0.020
-200.333	27.539	-0.138	-0.115
-199.319	-200.000	0.031	-0.199
-198.304	384.738	-0.130	0.264
-197.290	-17.674	-0.220	0.137
-196.275	495.208	-0.101	0.230
-195.260	198.981	0.104	-0.157
-194.246	758.312	0.020	-0.054
-193.231	-90.208	0.256	-0.074
-192.217	-44.740	0.074	-0.037
-191.202	800.000	0.051	0.186
-190.187	600.231	-0.068	-0.166
-189.173	-180.920	0.220	-0.004
-188.158	38.682	-0.107	0.095
-187.144	800.000	0.099	0.422
-186.129	75.467	0.093	0.097
-185.114	-105.384	-0.119	-0.027
-184.100	380.374	0.046	0.094
-183.085	76.966	-0.157	-0.165
-182.071	-200.000	0.445	0.002
-181.056	-200.000	-0.031	0.202
-180.042	-25.229	-0.099	0.058
-179.027	-28.365	0.224	0.128
-178.012	-143.229	0.118	0.011
-176.998	-137.352	0.212	-0.024
-175.983	86.443	0.100	0.109
-174.969	800.000	-0.120	-0.342
-173.954	-20.238	-0.053	-0.032
-172.939	800.000	-0.013	0.042
-171.925	125.068	-0.308	0.383
-170.910	-200.000	-0.017	0.299
-169.896	-200.000	0.000	-0.005
-168.881	-138.864	0.323	-0.035
-167.866	92.107	-0.242	-0.269
-166.852	206.836	0.091	0.141
-165.837	44.712	0.159	-0.144
-164.823	641.794	-0.092	-0.230
-163.808	-126.274	0.121	-0.018
-162.793	18.762	-0.165	-0.130
-161.779	-82.715	-0.230	-0.073
-160.764	601.178	-0.066	-0.162
-159.750	61.937	0.263	-0.259
-158.735	800.000	-0.115	-0.368
-157.720	52.052	0.229	-0.215
-156.706	579.847	-0.049	0.119
-155.691	30.338	0.114	0.096
-154.677	-30.008	0.151	0.085
-153.662	-17.262	-0.205	-0.127
-152.647	-200.000	0.015	-0.077
-151.633	44.647	-0.188	-0.171
-150.618	800.000	0.083	-0.288
-149.604	362.923	0.126	0.249
-148.589	267.985	-0.084	-0.145
-147.574	0.979	-0.193	-0.137
-146.560	511.833	-0.061	-0.140
-145.545	-125.987	-0.252	-0.037
-144.531	-33.465	0.212	-0.116
-143.516	-43.029	0.139	0.070
-142.502	-200.000	0.003	0.221
-141.487	55.506	-0.048	-0.046
-140.472	-200.000	-0.068	-0.433
-139.458	-200.000	0.014	-0.081
-138.443	-200.000	-0.042	-0.194
-137.429	566.744	0.121	-0.290
-136.414	-200.000	0.034	-0.304
-135.399	33.792	0.190	-0.163
-134.385	262.731	-0.107	0.183
-133.370	-200.000	0.000	-0.207
-132.356	-98.166	0.302	-0.076
-131.341	413.441	0.054	0.113
-130.326	285.393	-0.026	-0.046
-129.312	-146.058	0.260	0.023
-128.297	800.000	-0.058	-0.209
-127.283	11.171	-0.043	0.033
-126.268	102.065	-0.153	-0.176
-125.253	-200.000	0.064	0.440
-124.239	-43.002	0.231	-0.116
-123.224	800.000	0.074	-0.227
-122.210	800.000	-0.034	-0.135
-121.195	-112.401	0.192	0.038
-120.180	466.224	-0.067	0.148
-119.166	-200.000	0.027	0.123
-118.151	-24.339	0.306	0.180
-117.137	-86.026	0.229	-0.070
-116.122	-76.664	0.202	-0.070
-115.107	-200.000	0.004	-0.173
-114.093	-117.793	0.445	0.079
-113.078	0.424	-0.107	-0.075
-112.064	-88.832	-0.216	-0.063
-111.049	-132.787	-0.009	-0.001
-110.034	-200.000	0.013	0.173
-109.020	35.105	0.211	0.182
-108.005	800.000	0.083	0.294
-106.991	-150.764	-0.330	-0.025
-105.976	66.206	-0.122	-0.122
-104.962	205.724	0.098	0.150
-103.947	-189.628	-0.425	0.005
-102.932	47.628	-0.129	-0.118
-101.918	-200.000	-0.015	0.078
-100.903	-98.676	-0.110	0.028
-99.889	7.151	0.103	0.076
-98.874	479.736	0.107	0.238
-97.859	800.000	-0.040	-0.166
-96.845	-200.000	0.030	-0.226
-95.830	-200.000	0.032	-0.158
-94.816	1.503	0.080	0.057
-93.801	372.125	0.016	-0.031
-92.786	800.000	-0.048	-0.169
-91.772	90.131	0.071	0.079
-90.757	606.304	0.012	0.031
-89.743	-87.333	0.271	-0.081
-88.728	-148.621	0.103	0.008
-87.713	407.344	-0.109	-0.226
-86.699	-200.000	-0.021	0.262
-85.684	-13.602	0.407	-0.260
-84.670	97.036	0.223	0.252
-83.655	-100.290	0.359	0.088
-82.640	-120.503	-0.218	0.036
-81.626	-8.934	0.215	0.142
-80.611	8.699	0.104	-0.077
-79.597	55.629	-0.076	-0.073
-78.582	54.817	0.253	0.240
-77.567	-14.508	0.196	0.124
-76.553	9.884	0.066	0.050
-75.538	258.962	-0.088	-0.149
-74.524	-66.112	0.309	0.121
-73.509	220.352	0.046	-0.072
-72.494	800.000	-0.028	-0.117
-71.480	-92.470	-0.075	-0.021
-70.465	-46.362	0.428	-0.207
-69.451	-200.000	0.016	0.101
-68.436	26.735	-0.225	0.185
-67.422	16.491	0.210	-0.163
-66.407	442.316	-0.011	-0.023
-65.392	151.114	0.189	0.253
-64.378	435.266	0.086	-0.184
-63.363	-74.286	-0.357	-0.127
-62.349	-61.831	-0.180	-0.074
-61.334	25.465	-1.016	-0.830
-60.319	-57.040	0.761	0.330
-59.305	249.224	-0.540	-0.900
-58.290	553.993	0.428	1.012
-57.276	710.294	0.486	1.264
-56.261	-200.000	100.322	601.803
-55.246	595.042	1397.321	3397.566
-54.232	195.500	2572.517	3842.316
-53.217	118.037	2128.038	2577.148
-52.203	43.004	1586.918	1422.171
-51.188	34.807	1323.433	1137.463
-50.173	31.638	1281.448	1083.038
-49.159	55.065	1331.798	1264.248
-48.144	56.691	1348.581	1289.705
-47.130	35.011	1305.636	1123.188
-46.115	31.444	1288.133	1087.387
-45.100	31.236	1283.058	1081.855
-44.086	31.156	1280.519	1079.206
-43.071	31.102	1278.744	1077.354
-42.057	31.110	1276.178	1075.197
-41.042	31.174	1274.341	1073.974
-40.027	31.141	1273.442	1072.987
-39.013	31.211	1271.426	1071.649
-37.998	31.151	1269.616	1069.737
-36.984	31.269	1267.998	1069.004
-35.969	31.147	1266.759	1067.223
-34.954	31.207	1264.504	1065.618
-33.940	31.265	1263.490	1065.056
-32.925	31.340	1262.269	1064.410
-31.911	31.539	1260.026	1063.606
-30.896	31.417	1259.277	1062.238
-29.881	31.397	1257.665	1060.726
-28.867	31.392	1256.212	1059.428
-27.852	31.452	1254.734	1058.480
-26.838	31.402	1253.340	1056.981
-25.823	31.359	1252.342	1055.852
-24.809	31.177	1251.350	1053.945
-23.794	31.444	1249.610	1053.948
-22.779	31.334	1248.348	1052.219
-21.765	31.283	1247.215	1050.938
-20.750	31.362	1245.405	1049.813
-19.736	31.222	1244.484	1048.211
-18.721	31.297	1243.351	1047.636
-17.706	31.264	1241.780	1046.084
-16.692	31.275	1240.596	1045.104
-15.677	31.278	1240.045	1044.617
-14.663	31.275	1238.444	1043.213
-13.648	31.249	1237.500	1042.231
-12.633	31.219	1236.513	1041.187
-11.619	31.224	1235.784	1040.563
-10.604	31.077	1235.671	1039.607
-9.590	31.172	1234.114	1038.781
-8.575	31.026	1233.487	1037.403
-7.560	31.103	1232.731	1037.155
-6.546	31.214	1231.373	1036.587
-5.531	31.221	1230.289	1035.670
-4.517	31.218	1229.682	1035.102
-3.502	31.214	1228.821	1034.315
-2.487	31.153	1228.290	1033.490
-1.473	31.153	1224.037	1029.870
-0.458	29.625	1209.149	1008.963
0.556	27.555	1192.090	970.679
1.571	23.610	1196.578	953.107
2.586	22.619	1210.894	959.039
3.600	22.038	1199.502	946.800
4.615	16.630	1128.841	863.428
5.629	7.790	1054.510	764.198
6.644	3.976	1034.989	731.971
7.659	3.528	1032.462	728.008
8.673	3.418	1030.974	726.375
9.688	3.369	1030.040	725.423
10.702	3.871	1028.431	726.584
11.717	9.405	1035.905	757.927
12.731	18.513	1048.501	810.319
13.746	23.406	1054.371	837.980
14.761	24.108	1055.015	841.735
15.775	23.687	1053.525	838.487
16.790	23.141	1052.222	834.798
17.804	22.830	1051.446	832.643
18.819	22.675	1050.671	831.223
19.834	22.932	1050.064	831.883
20.848	22.807	1050.229	831.350
21.863	22.848	1048.894	830.415
22.877	22.553	1048.862	828.926
23.892	22.469	1047.708	827.545
24.907	22.519	1046.381	826.659
25.921	22.330	1045.726	825.180
26.936	22.519	1044.427	824.967
27.950	22.266	1043.223	822.764
28.965	22.464	1041.828	822.516
29.980	22.532	1040.278	821.533
30.994	22.494	1039.669	820.802
32.009	22.646	1038.706	820.677
33.023	22.703	1037.377	819.821
34.038	22.611	1036.780	818.847
35.053	22.417	1036.217	817.433
36.067	22.314	1035.085	815.990
37.082	22.396	1034.024	815.461
38.096	22.555	1033.605	815.794
39.111	22.667	1033.050	815.804
40.126	22.395	1031.619	813.343
41.140	22.074	1030.120	810.606
42.155	21.835	1028.569	808.215
43.169	21.827	1027.365	807.158
44.184	21.753	1027.174	806.598
45.199	21.690	1026.513	805.715
46.213	22.065	1025.634	806.678
47.228	22.256	1025.202	807.143
48.242	22.544	1024.432	807.786
49.257	22.644	1023.467	807.412
50.271	22.643	1023.040	807.001
51.286	22.870	1021.802	806.991
52.301	22.633	1021.292	805.432
53.315	22.566	1020.209	804.202
54.330	22.475	1018.893	802.676
55.344	22.308	1017.758	800.951
56.359	22.270	1017.307	800.354
57.374	22.209	1016.433	799.317
58.388	22.017	1015.494	797.637
59.403	21.762	1015.085	796.086
60.417	21.961	1014.118	796.161
61.432	21.913	1013.326	795.251
62.447	21.798	1012.600	794.092
63.461	21.836	1011.854	793.608
64.476	21.764	1010.660	792.275
65.490	21.640	1009.990	791.118
66.505	21.812	1009.052	791.089
67.520	21.882	1008.760	791.111
68.534	21.658	1007.999	789.430
69.549	21.637	1006.428	788.039
70.563	21.379	1005.623	786.176
71.578	21.374	1004.469	785.185
72.593	21.076	1003.914	783.341
73.607	21.110	1003.553	783.142
74.622	21.319	1003.020	783.597
75.636	21.299	1002.472	783.010
76.651	21.469	1001.804	783.177
77.666	21.398	1001.322	782.413
78.680	21.388	1000.468	781.633
79.695	21.390	999.779	781.036
80.709	21.631	999.825	782.078
81.724	21.811	998.766	781.983
82.739	21.806	998.501	781.684
83.753	22.420	998.149	784.074
84.768	22.825	997.544	785.333
85.782	23.103	997.096	786.146
86.797	22.874	996.289	784.424
87.812	22.671	995.082	782.502
88.826	22.878	993.889	782.414
89.841	22.896	993.183	781.866
90.855	23.053	991.756	781.370
91.870	23.039	991.408	780.965
92.884	22.899	990.720	779.735
93.899	22.812	989.524	778.340
94.914	22.901	989.203	778.411
95.928	22.861	988.108	777.306
96.943	22.691	986.813	775.471
97.957	22.550	985.794	773.983
98.972	22.640	985.617	774.171
99.987	22.688	984.642	773.545
101.001	22.690	983.252	772.394
102.016	22.594	982.491	771.308
103.030	22.726	982.053	771.473
104.045	22.717	981.428	770.875
105.060	22.685	980.373	769.839
106.074	22.354	979.394	767.558
107.089	22.172	978.260	765.807
108.103	22.047	977.124	764.307
109.118	21.682	975.504	761.385
110.133	21.618	974.353	760.145
111.147	21.543	973.467	759.059
112.162	21.658	973.238	759.312
113.176	21.840	972.234	759.250
114.191	21.861	972.081	759.155
115.206	21.972	971.277	758.936
116.220	21.734	969.954	756.811
117.235	21.618	969.051	755.539
118.249	21.633	968.538	755.136
119.264	21.498	967.329	753.547
120.279	21.424	966.399	752.437
121.293	21.338	965.892	751.604
122.308	21.218	964.935	750.277
123.322	21.195	963.595	749.072
124.337	21.239	962.599	748.416
125.352	21.250	961.641	747.655
126.366	21.165	960.987	746.715
127.381	21.366	960.257	746.942
128.395	21.459	960.008	747.078
129.410	21.608	958.661	746.602
130.424	21.796	957.989	746.811
131.439	22.083	957.371	747.487
132.454	22.008	956.946	746.771
133.468	21.857	956.307	745.561
134.483	21.969	955.439	745.294
135.497	22.048	954.656	744.954
136.512	22.098	953.789	744.424
137.527	22.071	952.937	743.579
138.541	22.037	952.335	742.898
139.556	22.119	951.572	742.583
140.570	22.416	951.172	743.458
141.585	22.678	950.552	744.016
142.600	22.658	950.029	743.457
143.614	22.892	949.196	743.726
144.629	22.952	948.303	743.210
145.643	22.760	947.316	741.564
146.658	22.573	945.680	739.436
147.673	22.366	944.468	737.554
148.687	22.188	943.596	736.062
149.702	21.982	943.122	734.767
150.716	21.921	941.959	733.538
151.731	22.077	941.571	733.824
152.746	22.174	940.765	733.535
153.760	22.434	940.052	733.998
154.775	22.485	939.769	733.924
155.789	22.431	939.032	733.059
156.804	22.404	938.251	732.272
157.819	22.659	937.471	732.659
158.833	22.782	937.321	732.988
159.848	22.951	936.508	732.989
160.862	22.716	935.244	730.962
161.877	22.343	933.425	727.931
162.892	22.007	932.483	725.746
163.906	21.974	931.476	724.759
164.921	21.939	930.759	723.993
165.935	21.987	930.043	723.570
166.950	22.243	929.330	724.004
167.964	22.250	928.381	723.230
168.979	22.081	927.036	721.427
169.994	22.097	926.664	721.136
171.008	22.278	926.042	721.333
172.023	22.508	925.767	721.995
173.037	22.743	924.893	722.214
174.052	22.506	923.835	720.357
175.067	22.042	922.853	717.631
176.081	21.863	921.892	716.088
177.096	21.716	921.413	715.052
178.110	21.740	921.037	714.794
179.125	21.807	920.259	714.400
180.140	21.874	920.336	714.672
181.154	22.363	920.077	716.398
182.169	22.459	920.187	716.810
183.183	22.642	919.276	716.781
184.198	22.402	918.358	715.027
185.213	22.590	917.431	715.004
186.227	22.652	916.769	714.676
187.242	22.672	916.690	714.632
188.256	22.734	916.181	714.426
189.271	22.861	915.450	714.305
190.286	22.514	913.876	711.612
191.300	21.914	912.797	708.286
192.315	21.564	912.085	706.260
193.329	21.663	911.597	706.219
194.344	21.935	911.638	707.287
195.359	22.274	910.811	707.948
196.373	22.385	910.352	707.973
197.388	22.443	910.667	708.390
198.402	22.968	909.748	709.720
199.417	23.137	909.344	710.022
200.432	23.156	909.402	710.080
201.446	23.225	908.531	709.614
202.461	23.225	908.311	709.378
203.475	22.926	907.177	707.233
204.490	22.608	905.467	704.569
205.504	22.522	905.588	704.253
206.519	22.529	904.904	703.691
207.534	22.470	903.883	702.598
208.548	22.666	903.175	702.766
209.563	22.572	902.474	701.785
210.577	22.604	902.232	701.663
211.592	23.000	901.442	702.560
212.607	23.192	900.898	702.835
213.621	23.007	900.144	701.451
214.636	22.944	899.620	700.733
215.650	22.862	899.008	699.867
216.665	22.929	898.214	699.450
217.680	23.057	897.987	699.721
218.694	23.043	897.108	698.918
219.709	22.851	896.316	697.481
220.723	22.768	895.876	696.749
221.738	22.608	895.303	695.612
222.753	22.696	894.522	695.290
223.767	22.819	894.071	695.363
224.782	23.103	893.452	695.937
225.796	23.019	893.363	695.474
226.811	22.655	892.771	693.520
227.826	22.426	891.504	691.576
228.840	22.608	890.616	691.539
229.855	22.533	890.071	690.761
230.869	22.436	889.558	689.922
231.884	22.447	888.729	689.260
232.899	22.527	887.820	688.808
233.913	22.305	887.062	687.291
234.928	22.106	886.274	685.844
235.942	21.928	885.916	684.812
236.957	22.133	885.170	684.974
237.972	22.009	884.691	684.061
238.986	22.049	884.202	683.775
240.001	22.182	883.595	683.765
241.015	22.314	882.914	683.691
242.030	22.481	882.597	684.034
243.045	22.524	882.149	683.792
244.059	22.581	881.807	683.685
245.074	22.673	880.969	683.333
246.088	22.841	880.842	683.823
247.103	23.094	880.563	684.526
248.117	23.432	880.080	685.400
249.132	23.769	880.110	686.662
250.147	23.957	880.031	687.269
251.161	23.999	879.395	686.873
252.176	23.991	878.866	686.369
253.190	24.110	878.338	686.354
254.205	24.039	877.651	685.482
255.220	23.936	876.650	684.244
256.234	23.666	876.406	682.955
257.249	23.835	875.432	682.782
258.263	23.856	874.382	681.986
259.278	23.716	873.745	680.893
260.293	23.808	873.400	680.915
261.307	23.764	873.411	680.693
262.322	23.879	873.045	680.790
263.336	23.860	871.870	679.740
264.351	23.594	871.268	678.196
265.366	23.705	870.410	677.888
266.380	23.910	869.942	678.247
267.395	23.762	869.337	677.150
268.409	23.629	868.380	675.839
269.424	23.839	867.576	675.954
270.439	23.663	866.599	674.462
271.453	23.483	865.871	673.155
272.468	23.530	865.931	673.318
273.482	23.592	865.331	673.029
274.497	23.513	864.859	672.302
275.512	23.320	864.565	671.283
276.526	23.499	863.704	671.234
277.541	23.694	863.188	671.511
278.555	23.990	862.910	672.354
279.570	24.369	862.450	673.366
280.585	24.025	861.607	671.350
281.599	23.736	860.655	669.460
282.614	23.361	859.719	667.261
283.628	23.340	859.221	666.736
284.643	23.537	858.819	667.107
285.657	23.455	858.141	666.212
286.672	23.549	857.636	666.116
287.687	23.495	857.629	665.848
288.701	23.624	856.465	665.367
289.716	23.678	855.987	665.142
290.730	23.758	855.396	664.921
291.745	23.724	854.735	664.222
292.760	23.763	854.410	664.058
293.774	24.053	854.119	664.854
294.789	24.119	853.178	664.311
295.803	23.804	852.395	662.468
296.818	23.617	851.703	661.176
297.833	23.539	851.097	660.353
298.847	23.588	850.483	660.002
299.862	23.671	850.403	660.191
300.876	23.926	850.180	660.906
301.891	24.113	849.648	661.130
302.906	24.232	849.394	661.316
303.920	24.542	848.889	662.013
304.935	24.807	847.892	662.156
305.949	24.268	848.012	660.198
306.964	23.998	846.360	657.853
307.979	24.015	845.717	657.359
308.993	24.122	845.818	657.774
310.008	24.302	845.122	657.838
311.022	23.907	844.460	655.810
312.037	23.855	843.308	654.667
313.052	23.503	843.140	653.179
314.066	23.224	842.336	651.474
315.081	23.236	841.738	650.999
316.095	23.437	841.109	651.190
317.110	23.292	840.765	650.334
318.125	23.305	839.832	649.604
319.139	23.089	838.913	648.044
320.154	23.127	838.909	648.124
321.168	23.288	838.353	648.227
322.183	23.470	837.775	648.388
323.197	23.423	837.751	648.139
324.212	23.518	836.708	647.622
325.227	23.457	836.289	647.017
326.241	23.340	835.766	646.128
327.256	23.386	834.976	645.628
328.270	23.186	834.761	644.678
329.285	23.230	833.975	644.174
330.300	23.145	833.023	643.070
331.314	23.351	832.847	643.628
332.329	23.705	832.692	644.737
333.343	23.951	832.591	645.493
334.358	23.939	832.075	644.993
335.373	23.732	832.123	644.221
336.387	23.875	831.799	644.433
337.402	23.937	831.571	644.425
338.416	24.353	831.505	645.822
339.431	24.580	831.264	646.398
340.446	24.640	830.656	646.087
341.460	24.615	830.495	645.812
342.475	24.828	829.886	646.053
343.489	24.749	829.863	645.691
344.504	25.032	829.047	646.020
345.519	24.916	828.510	645.125
346.533	24.819	827.903	644.248
347.548	24.529	827.240	642.632
348.562	24.138	826.379	640.501
349.577	24.293	825.200	640.084
350.592	23.885	824.754	638.219
351.606	23.945	824.237	637.977
352.621	23.943	823.590	637.414
353.635	24.012	823.217	637.314
354.650	24.107	822.243	636.845
355.665	23.774	821.952	635.371
356.679	24.174	821.393	636.313
357.694	24.208	820.646	635.801
358.708	24.031	820.197	634.765
359.723	24.134	819.128	634.247
360.738	24.054	819.010	633.814
361.752	24.147	818.055	633.352
362.767	24.516	818.396	634.870
363.781	24.842	818.030	635.689
364.796	24.844	817.646	635.341
365.810	24.976	817.425	635.582
366.825	25.024	816.534	635.003
367.840	24.712	816.232	633.607
368.854	24.609	815.441	632.572
369.869	24.532	814.768	631.721
370.883	24.677	814.096	631.655
371.898	24.929	813.982	632.401
372.913	24.734	814.282	631.891
373.927	24.468	813.301	630.134
374.942	24.564	813.010	630.193
375.956	24.732	812.382	630.243
376.971	25.041	811.785	630.810
377.986	25.196	811.541	631.111
379.000	25.093	811.301	630.504
380.015	25.099	810.535	629.876
381.029	24.860	809.892	628.482
382.044	25.115	809.533	629.041
383.059	25.207	809.095	628.970
384.073	25.121	807.920	627.700
385.088	24.583	807.110	625.132
386.102	24.472	806.232	624.008
387.117	24.434	805.709	623.415
388.132	24.351	805.107	622.605
389.146	24.435	804.639	622.482
390.161	24.666	805.073	623.569
391.175	24.868	804.703	623.928
392.190	24.751	803.411	622.464
393.205	24.383	802.650	620.540
394.219	24.314	801.840	619.622
395.234	24.181	801.584	618.907
396.248	24.240	801.335	618.864
397.263	24.308	800.892	618.702
398.278	23.982	800.630	617.314
399.292	23.948	799.966	616.631
400.307	23.828	799.388	615.716
401.321	24.089	798.904	616.192
402.336	24.346	798.596	616.787
403.350	24.634	798.662	617.779
404.365	25.038	798.270	618.817
405.380	25.345	798.448	619.960
406.394	25.470	798.117	620.080
407.409	25.340	797.661	619.222
408.423	25.390	797.501	619.215
409.438	25.493	796.947	619.085
410.453	25.285	796.723	618.142
411.467	25.405	795.738	617.735
412.482	25.544	795.646	618.088
413.496	25.488	795.224	617.513
414.511	25.506	794.737	617.141
415.526	25.311	793.770	615.666
416.540	25.434	793.259	615.635
417.555	25.429	793.031	615.389
418.569	25.211	792.671	614.307
419.584	25.243	792.516	614.242
420.599	25.354	791.657	613.904
421.613	163.023	1370.090	1795.319
422.628	141.333	1454.365	1795.446
