DTS Sentinel unit serial number:	SN413079Multiplexer serial number:	ORYXHardware model number:	OX4-SRSoftware version number:	ORYX F/W v4.00 Oryx Data Collector v3.7.2.0data status	okinstallation	princeton_trtdifferential loss correction	single-endedforward channel	channel 1reverse channel	N/Adate	2019/09/19time	03:26:35forward acquisition time	60.00reverse acquisition time	0.00gamma	496.2192k internal	0.2343k external	0.2343temperature offset calibration	1.0019default loss term (dB/km)	0.3790temperature slope calibration	1.0000multiplexer offset coefficient	1.0000multiplexer slope coefficient	1.0000fibre end	0.00T internal ref (°C)	20.66T ext. ref 1 (°C)	0.64T ext. ref 2 (°C)	14.25length (m)	temperature (°C)	Stokes	anti-Stokes-747.200	-1.615	0.283	-0.200
-746.185	-46.787	0.327	0.160
-745.171	-200.000	0.005	-0.277
-744.156	35.838	0.155	-0.137
-743.142	-133.019	0.093	-0.012
-742.127	-17.095	-0.103	0.065
-741.112	-200.000	0.003	0.184
-740.098	418.244	0.043	0.092
-739.083	195.919	0.123	-0.188
-738.069	-200.000	-0.009	0.219
-737.054	627.196	-0.022	0.057
-736.039	231.637	-0.148	-0.243
-735.025	198.108	0.167	0.256
-734.010	6.943	-0.160	-0.119
-732.996	29.018	-0.388	-0.329
-731.981	290.387	-0.105	0.190
-730.966	507.811	0.066	-0.153
-729.952	-200.000	0.012	-0.264
-728.937	-39.979	-0.115	0.060
-727.923	542.634	-0.174	0.416
-726.908	-73.786	0.185	-0.067
-725.894	-119.788	-0.318	0.055
-724.879	132.190	0.159	-0.205
-723.864	-108.389	0.238	-0.051
-722.850	-18.809	-0.282	0.176
-721.835	-102.275	0.255	-0.061
-720.821	-16.433	-0.059	0.038
-719.806	-161.921	0.290	-0.015
-718.791	-122.636	-0.345	-0.056
-717.777	800.000	-0.053	0.173
-716.762	142.801	-0.215	-0.285
-715.748	127.510	-0.061	0.078
-714.733	-26.579	-0.231	0.136
-713.718	-200.000	-0.012	-0.057
-712.704	-1.015	-0.188	-0.133
-711.689	31.490	0.261	-0.224
-710.675	-60.575	-0.432	-0.183
-709.660	800.000	-0.037	0.116
-708.645	342.974	0.139	0.272
-707.631	-200.000	-0.065	0.286
-706.616	128.273	0.210	-0.267
-705.602	89.928	0.193	0.216
-704.587	61.674	-0.111	0.111
-703.572	-79.050	-0.201	0.068
-702.558	208.076	-0.123	0.192
-701.543	-200.000	0.058	-0.292
-700.529	800.000	0.067	0.218
-699.514	-152.474	0.184	-0.013
-698.499	78.381	0.139	0.148
-697.485	-45.081	-0.226	-0.112
-696.470	-26.589	0.233	-0.137
-695.456	-200.000	-0.002	-0.291
-694.441	-200.000	0.020	-0.181
-693.426	-116.871	0.317	0.058
-692.412	383.439	-0.068	0.141
-691.397	-200.000	0.059	-0.263
-690.383	-130.166	-0.204	-0.028
-689.368	800.000	0.042	-0.139
-688.354	-14.228	-0.092	-0.059
-687.339	-21.119	0.081	-0.050
-686.324	-200.000	-0.025	-0.163
-685.310	-0.642	-0.132	-0.093
-684.295	167.825	-0.011	0.016
-683.281	373.715	-0.085	-0.172
-682.266	800.000	0.086	0.324
-681.251	800.000	-0.042	0.134
-680.237	673.193	-0.082	0.214
-679.222	41.052	-0.304	0.274
-678.208	-200.000	0.010	-0.181
-677.193	800.000	-0.026	0.074
-676.178	-53.586	-0.188	-0.086
-675.164	-59.245	-0.022	0.010
-674.149	4.737	-0.279	-0.204
-673.135	800.000	-0.015	-0.054
-672.120	64.344	-0.211	-0.212
-671.105	-200.000	-0.034	-0.534
-670.091	18.964	-0.158	-0.127
-669.076	-29.563	0.198	-0.113
-668.062	800.000	0.082	0.230
-667.047	-200.000	0.032	-0.180
-666.032	471.644	-0.154	0.345
-665.018	-164.184	-0.074	-0.003
-664.003	-74.230	0.191	-0.069
-662.989	195.695	0.129	-0.196
-661.974	-127.554	0.174	0.025
-660.959	5.725	-0.194	0.143
-659.945	-200.000	-0.008	0.187
-658.930	703.113	-0.157	0.414
-657.916	87.366	-0.166	0.183
-656.901	-200.000	-0.009	-0.060
-655.886	-200.000	-0.010	-0.049
-654.872	-67.404	-0.061	-0.024
-653.857	73.348	-0.217	0.227
-652.843	241.960	-0.228	0.380
-651.828	120.691	-0.037	-0.046
-650.814	-200.000	0.027	0.265
-649.799	-82.848	-0.096	-0.031
-648.784	2.355	-0.118	-0.085
-647.770	-55.451	-0.328	-0.147
-646.755	23.511	-0.052	-0.043
-645.741	-86.246	0.120	0.037
-644.726	-95.587	0.436	0.117
-643.711	214.460	-0.121	0.191
-642.697	-200.000	0.037	0.211
-641.682	36.385	-0.077	-0.067
-640.668	-200.000	-0.011	0.218
-639.653	6.123	0.255	0.189
-638.638	-43.954	-0.238	0.119
-637.624	153.516	0.134	-0.182
-636.609	-59.626	-0.099	0.042
-635.595	2.414	-0.105	-0.075
-634.580	-112.679	0.180	0.036
-633.565	800.000	-0.026	0.089
-632.551	800.000	-0.072	-0.243
-631.536	107.030	0.185	0.219
-630.522	-200.000	-0.011	0.179
-629.507	-85.436	-0.253	-0.079
-628.492	800.000	0.046	-0.131
-627.478	800.000	0.135	-0.383
-626.463	-17.997	0.118	0.074
-625.449	-192.207	0.379	-0.004
-624.434	-41.861	0.189	0.096
-623.419	800.000	-0.102	-0.293
-622.405	-87.952	-0.174	0.052
-621.390	191.339	-0.278	-0.418
-620.376	148.893	0.179	0.241
-619.361	16.802	-0.089	-0.070
-618.346	307.658	-0.171	-0.317
-617.332	-200.000	-0.073	-0.348
-616.317	39.679	-0.088	0.078
-615.303	-104.546	-0.291	-0.067
-614.288	444.031	0.106	-0.231
-613.273	83.448	-0.271	-0.294
-612.259	-200.000	0.051	0.299
-611.244	229.771	-0.208	-0.338
-610.230	166.989	-0.332	-0.469
-609.215	-127.090	0.271	-0.040
-608.201	-79.614	0.182	-0.061
-607.186	116.114	-0.120	0.146
-606.171	-107.053	-0.173	0.038
-605.157	190.877	0.098	0.147
-604.142	381.999	-0.027	-0.056
-603.128	-95.067	-0.107	-0.029
-602.113	328.840	-0.076	-0.146
-601.098	-114.527	-0.375	-0.072
-600.084	211.859	-0.051	0.080
-599.069	-43.046	0.013	0.007
-598.055	-156.963	0.409	-0.025
-597.040	-95.183	-0.171	-0.046
-596.025	800.000	0.047	-0.189
-595.011	-200.000	-0.022	0.233
-593.996	2.246	0.364	0.262
-592.982	-159.448	0.336	0.019
-591.967	368.286	-0.142	-0.287
-590.952	-10.557	-0.178	0.118
-589.938	800.000	-0.057	0.197
-588.923	-200.000	-0.005	0.276
-587.909	-36.546	0.322	0.173
-586.894	-23.472	-0.059	-0.035
-585.879	-62.305	0.063	-0.026
-584.865	-87.246	0.111	-0.033
-583.850	-97.353	-0.151	0.039
-582.836	-11.812	-0.260	0.170
-581.821	-104.460	-0.389	0.090
-580.806	-156.277	0.306	0.019
-579.792	800.000	0.132	0.367
-578.777	-200.000	0.003	0.382
-577.763	-200.000	0.043	-0.334
-576.748	-200.000	-0.033	-0.149
-575.733	-13.360	-0.363	0.234
-574.719	-156.260	0.288	-0.018
-573.704	-120.281	-0.060	0.010
-572.690	-200.000	0.021	0.185
-571.675	485.490	0.063	-0.143
-570.661	-84.570	-0.303	-0.095
-569.646	289.294	-0.111	-0.199
-568.631	-22.503	-0.424	0.255
-567.617	-136.407	0.318	0.037
-566.602	192.060	-0.082	-0.123
-565.588	-49.039	0.198	-0.094
-564.573	235.591	-0.115	-0.189
-563.558	-200.000	-0.017	0.360
-562.544	243.652	0.074	0.123
-561.529	-200.000	-0.035	-0.286
-560.515	114.374	0.157	0.191
-559.500	-45.007	0.202	0.100
-558.485	-200.000	-0.008	0.068
-557.471	-95.908	-0.147	-0.039
-556.456	-27.239	0.149	0.087
-555.442	-26.101	-0.080	0.047
-554.427	-200.000	0.004	-0.234
-553.412	29.019	-0.146	0.123
-552.398	283.123	0.091	0.161
-551.383	613.192	-0.083	0.206
-550.369	800.000	0.043	-0.175
-549.354	800.000	0.044	-0.170
-548.339	195.467	-0.113	0.171
-547.325	49.775	0.220	0.206
-546.310	275.045	-0.073	0.128
-545.296	-200.000	0.030	-0.167
-544.281	-97.202	-0.157	-0.041
-543.266	-91.307	0.470	0.133
-542.252	-25.452	-0.227	0.133
-541.237	-200.000	0.011	-0.159
-540.223	-200.000	0.060	-0.332
-539.208	-23.140	-0.080	0.048
-538.193	-200.000	0.033	-0.144
-537.179	38.522	0.155	0.137
-536.164	468.238	-0.083	0.185
-535.150	16.439	-0.160	-0.126
-534.135	139.863	-0.030	-0.039
-533.121	162.755	-0.193	-0.269
-532.106	753.680	-0.099	-0.265
-531.091	-71.231	0.136	-0.051
-530.077	-200.000	-0.077	-0.446
-529.062	177.990	0.264	0.383
-528.048	360.415	-0.122	0.242
-527.033	-58.967	-0.288	-0.123
-526.018	28.556	0.245	-0.206
-525.004	-200.000	0.000	-0.040
-523.989	-200.000	0.039	0.178
-522.975	-69.184	-0.146	0.056
-521.960	-109.166	0.108	-0.023
-520.945	-200.000	0.009	0.212
-519.931	24.230	0.051	-0.042
-518.916	366.516	-0.111	0.223
-517.902	23.434	0.106	-0.086
-516.887	-200.000	0.013	0.109
-515.872	-200.000	-0.005	0.055
-514.858	-200.000	-0.017	-0.174
-513.843	29.928	0.152	-0.129
-512.829	-200.000	0.043	-0.271
-511.814	-200.000	0.028	-0.177
-510.799	-24.698	0.247	0.145
-509.785	-200.000	-0.027	-0.278
-508.770	176.568	-0.137	0.198
-507.756	35.415	0.097	-0.084
-506.741	563.711	-0.085	0.204
-505.726	-5.289	-0.224	-0.153
-504.712	-147.291	0.407	0.034
-503.697	192.789	-0.154	0.231
-502.683	46.788	-0.104	0.095
-501.668	-200.000	0.002	0.266
-500.653	-155.270	-0.373	0.024
-499.639	-200.000	0.010	0.153
-498.624	-200.000	-0.027	-0.261
-497.610	414.504	-0.070	-0.147
-496.595	-200.000	-0.037	0.182
-495.581	-7.903	0.166	0.111
-494.566	-35.790	0.218	0.117
-493.551	11.885	-0.122	-0.093
-492.537	800.000	0.019	-0.060
-491.522	-76.886	0.278	0.096
-490.508	30.416	0.252	-0.213
-489.493	314.064	-0.091	0.169
-488.478	-150.996	0.300	-0.022
-487.464	-188.786	-0.205	0.002
-486.449	171.448	0.052	-0.074
-485.435	800.000	0.041	0.138
-484.420	800.000	-0.118	-0.360
-483.405	111.161	0.283	-0.338
-482.391	-200.000	-0.039	-0.227
-481.376	44.535	-0.184	0.167
-480.362	-36.049	-0.145	-0.078
-479.347	209.946	-0.036	0.055
-478.332	262.205	-0.060	-0.104
-477.318	1.452	-0.326	-0.232
-476.303	-43.504	-0.054	0.027
-475.289	-11.269	-0.177	-0.115
-474.274	-49.619	0.368	0.173
-473.259	-59.178	0.129	-0.055
-472.245	117.164	-0.033	-0.040
-471.230	-68.429	-0.193	0.074
-470.216	-200.000	0.003	-0.156
-469.201	-200.000	0.001	-0.016
-468.186	-176.500	0.046	-0.001
-467.172	74.847	0.160	0.167
-466.157	-95.083	-0.250	-0.067
-465.143	-23.720	0.175	-0.104
-464.128	75.499	0.101	0.105
-463.113	430.898	0.048	-0.104
-462.099	800.000	-0.018	0.063
-461.084	-176.482	-0.187	-0.005
-460.070	-18.572	0.282	0.174
-459.055	-200.000	-0.064	-0.444
-458.040	-52.228	0.163	0.075
-457.026	-96.658	0.116	-0.030
-456.011	-27.874	-0.218	0.125
-454.997	-23.390	0.087	0.052
-453.982	59.698	0.269	-0.263
-452.968	-109.252	-0.367	0.077
-451.953	-200.000	0.024	0.168
-450.938	-200.000	0.034	-0.221
-449.924	-41.579	0.150	0.076
-448.909	-100.041	-0.334	-0.082
-447.895	-161.637	-0.050	-0.003
-446.880	-114.692	0.224	0.042
-445.865	-200.000	0.008	-0.401
-444.851	355.710	-0.145	-0.285
-443.836	-93.689	-0.255	-0.070
-442.822	-7.531	0.138	-0.092
-441.807	71.852	0.081	-0.084
-440.792	-200.000	0.000	0.013
-439.778	-50.745	0.169	-0.079
-438.763	-145.588	-0.263	0.023
-437.749	54.490	0.255	0.243
-436.734	440.927	0.036	-0.079
-435.719	20.427	0.117	-0.094
-434.705	-200.000	0.007	-0.075
-433.690	-125.857	0.156	0.023
-432.676	184.034	0.173	-0.253
-431.661	50.638	-0.069	0.065
-430.646	1.524	0.119	-0.084
-429.632	-133.533	-0.138	-0.017
-428.617	-80.733	-0.078	0.025
-427.603	-200.000	0.016	-0.158
-426.588	4.468	0.104	-0.076
-425.573	131.896	-0.263	0.334
-424.559	397.113	-0.035	-0.071
-423.544	-30.654	-0.160	-0.090
-422.530	161.323	-0.100	-0.138
-421.515	173.765	-0.149	-0.213
-420.500	-141.164	0.467	-0.047
-419.486	53.466	-0.077	-0.073
-418.471	112.625	0.098	0.118
-417.457	800.000	0.096	0.351
-416.442	-200.000	0.043	0.507
-415.428	-75.429	-0.259	0.091
-414.413	-200.000	-0.019	0.205
-413.398	800.000	0.079	0.323
-412.384	-67.484	-0.419	0.163
-411.369	-200.000	0.002	0.067
-410.355	-126.421	-0.358	-0.053
-409.340	-75.275	0.099	-0.035
-408.325	152.028	-0.097	-0.131
-407.311	-200.000	-0.007	0.172
-406.296	34.033	0.222	-0.191
-405.282	-36.878	0.445	0.236
-404.267	35.357	-0.162	-0.140
-403.252	0.915	0.274	0.194
-402.238	163.963	-0.087	0.121
-401.223	-134.676	0.238	-0.029
-400.209	341.531	0.097	0.188
-399.194	-200.000	0.002	0.032
-398.179	70.199	-0.076	0.078
-397.165	-82.064	-0.454	-0.146
-396.150	800.000	0.101	0.310
-395.136	-200.000	0.019	-0.438
-394.121	-200.000	0.010	0.413
-393.106	-67.565	0.173	-0.067
-392.092	-64.736	0.081	-0.032
-391.077	-200.000	-0.063	-0.322
-390.063	-123.579	0.308	-0.048
-389.048	-136.843	0.143	-0.016
-388.033	174.212	0.120	0.171
-387.019	154.108	-0.122	0.166
-386.004	-15.413	-0.230	0.145
-384.990	-200.000	-0.047	0.342
-383.975	-34.462	-0.263	0.142
-382.960	-187.463	0.157	-0.002
-381.946	800.000	-0.053	0.211
-380.931	-200.000	-0.068	-0.365
-379.917	-37.522	-0.025	0.013
-378.902	-98.403	-0.190	0.048
-377.888	202.314	-0.121	-0.184
-376.873	59.464	-0.179	-0.174
-375.858	-117.886	0.243	-0.043
-374.844	174.945	0.142	0.203
-373.829	-14.494	0.082	0.052
-372.815	-200.000	-0.001	0.044
-371.800	101.014	0.242	0.278
-370.785	46.792	0.209	-0.192
-369.771	-200.000	-0.024	-0.218
-368.756	-37.140	0.354	0.187
-367.742	-68.940	-0.214	0.082
-366.727	313.969	0.079	-0.147
-365.712	11.041	0.058	-0.044
-364.698	192.533	-0.085	0.127
-363.683	-64.152	0.199	0.080
-362.669	429.997	0.041	0.087
-361.654	-200.000	-0.003	-0.063
-360.639	-200.000	0.006	0.067
-359.625	351.256	0.117	-0.229
-358.610	-121.381	-0.186	-0.031
-357.596	-200.000	-0.006	-0.215
-356.581	329.207	-0.044	-0.083
-355.566	-200.000	0.024	-0.109
-354.552	800.000	-0.060	-0.184
-353.537	-168.935	-0.190	-0.007
-352.523	72.004	-0.127	0.130
-351.508	-59.415	-0.280	-0.119
-350.493	179.433	0.095	0.137
-349.479	357.819	-0.176	-0.346
-348.464	-99.249	-0.213	-0.053
-347.450	-17.898	0.207	-0.128
-346.435	-200.000	-0.009	0.214
-345.420	-27.719	0.309	0.176
-344.406	-200.000	-0.024	0.119
-343.391	27.343	0.172	-0.143
-342.377	-92.557	-0.267	-0.074
-341.362	-200.000	-0.029	0.257
-340.348	22.158	-0.137	0.110
-339.333	581.205	-0.107	0.259
-338.318	800.000	0.111	-0.369
-337.304	-200.000	0.073	0.000
-336.289	-23.405	-0.128	-0.076
-335.275	-39.820	0.352	-0.181
-334.260	142.485	-0.123	0.161
-333.245	175.974	-0.054	-0.077
-332.231	261.387	0.163	-0.279
-331.216	-99.095	0.237	-0.059
-330.202	197.220	-0.064	-0.096
-329.187	17.353	0.101	0.079
-328.172	2.448	-0.297	-0.212
-327.158	281.416	-0.080	0.141
-326.143	745.946	0.083	0.221
-325.129	-200.000	0.027	0.220
-324.114	117.865	-0.039	-0.048
-323.099	-107.611	0.288	-0.062
-322.085	-159.427	-0.173	-0.010
-321.070	21.316	0.186	0.148
-320.056	112.548	0.073	0.087
-319.041	102.052	-0.174	0.200
-318.026	800.000	0.015	0.063
-317.012	104.229	-0.150	-0.174
-315.997	800.000	-0.082	0.344
-314.983	-150.387	-0.205	0.016
-313.968	-95.487	0.230	-0.061
-312.953	141.353	-0.174	-0.227
-311.939	-200.000	0.011	0.147
-310.924	-90.362	0.054	-0.015
-309.910	-200.000	-0.031	0.258
-308.895	-100.042	0.309	-0.076
-307.880	115.904	-0.249	0.300
-306.866	-147.679	0.234	-0.019
-305.851	-110.277	-0.177	-0.036
-304.837	-54.466	-0.248	-0.111
-303.822	-169.792	0.343	-0.012
-302.807	-9.719	0.089	0.058
-301.793	-38.877	-0.181	0.094
-300.778	-200.000	0.050	0.277
-299.764	117.702	-0.090	0.109
-298.749	-200.000	0.011	-0.276
-297.735	472.447	0.054	0.120
-296.720	-48.962	0.365	-0.172
-295.705	-106.088	-0.212	-0.047
-294.691	-146.143	0.296	0.026
-293.676	-200.000	-0.053	-0.263
-292.662	209.522	0.024	0.038
-291.647	-200.000	-0.050	-0.309
-290.632	800.000	0.127	-0.407
-289.618	800.000	-0.104	-0.390
-288.603	-7.722	0.328	-0.218
-287.589	800.000	-0.028	-0.105
-286.574	-82.336	-0.359	-0.115
-285.559	-9.995	0.201	-0.132
-284.545	-200.000	-0.074	0.330
-283.530	-200.000	-0.019	-0.166
-282.516	-200.000	0.017	0.150
-281.501	23.052	-0.175	0.141
-280.486	-60.101	0.063	-0.026
-279.472	94.278	0.267	-0.298
-278.457	-200.000	0.039	0.296
-277.443	800.000	0.079	0.230
-276.428	318.364	0.094	0.175
-275.413	28.565	0.145	0.120
-274.399	-70.637	0.064	0.024
-273.384	17.929	-0.155	-0.121
-272.370	-2.869	0.283	0.195
-271.355	383.179	-0.064	-0.128
-270.340	-148.377	-0.211	0.017
-269.326	-153.138	0.349	0.024
-268.311	-9.828	0.131	-0.086
-267.297	137.744	-0.063	-0.081
-266.282	-200.000	-0.038	0.298
-265.267	27.705	0.275	-0.227
-264.253	36.724	0.254	0.221
-263.238	13.052	0.091	0.069
-262.224	-200.000	-0.002	0.330
-261.209	-120.001	0.141	-0.024
-260.195	-200.000	-0.058	0.273
-259.180	-200.000	-0.002	0.168
-258.165	230.923	-0.122	0.196
-257.151	800.000	-0.086	-0.253
-256.136	-135.372	0.332	0.039
-255.122	-100.358	0.041	-0.010
-254.107	-200.000	-0.007	0.208
-253.092	-29.334	-0.345	0.194
-252.078	145.414	0.176	0.231
-251.063	-5.687	-0.275	0.185
-250.049	762.491	-0.070	-0.188
-249.034	-116.180	0.234	-0.043
-248.019	800.000	0.068	-0.272
-247.005	-177.938	0.418	0.010
-245.990	-73.620	0.033	-0.012
-244.976	-76.169	-0.235	-0.081
-243.961	-127.877	0.187	0.026
-242.946	571.939	-0.180	0.430
-241.932	-121.772	0.067	0.011
-240.917	-86.084	0.382	-0.116
-239.903	15.153	-0.230	-0.177
-238.888	-194.029	-0.201	0.002
-237.873	-29.776	-0.221	0.124
-236.859	157.774	-0.171	-0.232
-235.844	-29.495	0.225	0.126
-234.830	-11.607	0.265	-0.171
-233.815	-72.461	0.180	-0.065
-232.800	-97.975	-0.269	-0.068
-231.786	-200.000	0.001	-0.096
-230.771	-200.000	-0.007	-0.083
-229.757	-200.000	-0.003	0.046
-228.742	754.216	-0.088	0.234
-227.727	-73.210	-0.081	0.029
-226.713	-59.097	-0.085	-0.036
-225.698	800.000	0.102	-0.298
-224.684	396.999	-0.162	0.331
-223.669	-48.508	0.090	-0.043
-222.655	-200.000	-0.053	0.241
-221.640	-95.705	-0.225	-0.059
-220.625	228.889	-0.100	0.160
-219.611	-113.936	-0.269	0.051
-218.596	17.403	-0.311	-0.242
-217.582	-200.000	-0.020	0.249
-216.567	-73.710	0.245	-0.087
-215.552	-1.143	-0.177	-0.123
-214.538	-21.196	0.167	-0.100
-213.523	-200.000	0.039	0.271
-212.509	-49.463	-0.123	0.057
-211.494	-11.441	-0.443	0.286
-210.479	177.615	-0.123	0.175
-209.465	732.886	0.123	-0.323
-208.450	219.463	-0.081	0.128
-207.436	-33.150	0.243	0.132
-206.421	-200.000	-0.040	-0.236
-205.406	60.160	0.282	-0.273
-204.392	800.000	0.108	-0.326
-203.377	213.993	0.097	0.151
-202.363	-146.834	-0.162	-0.014
-201.348	-88.996	-0.167	0.048
-200.333	65.091	-0.243	-0.240
-199.319	8.378	-0.208	0.153
-198.304	30.895	0.480	-0.403
-197.290	-74.332	0.278	0.098
-196.275	51.501	-0.079	-0.074
-195.260	-86.343	-0.256	0.077
-194.246	-36.577	-0.423	0.223
-193.231	41.359	-0.223	0.198
-192.217	-37.407	0.282	0.147
-191.202	272.932	-0.017	0.030
-190.187	-200.000	-0.016	0.138
-189.173	-94.241	-0.176	0.047
-188.158	-200.000	0.016	-0.276
-187.144	-145.588	0.465	0.041
-186.129	-109.783	-0.397	0.082
-185.114	-20.152	-0.271	-0.163
-184.100	-134.929	0.236	0.028
-183.085	171.718	-0.105	0.148
-182.071	-115.682	0.113	0.021
-181.056	-200.000	0.023	-0.190
-180.042	266.010	-0.251	0.429
-179.027	-200.000	-0.000	-0.188
-178.012	232.453	0.204	-0.329
-176.998	-177.408	-0.292	-0.007
-175.983	-114.421	0.229	0.043
-174.969	-124.091	0.239	0.037
-173.954	303.099	-0.135	-0.245
-172.939	-200.000	0.004	0.249
-171.925	4.880	-0.175	0.126
-170.910	174.894	0.182	-0.258
-169.896	800.000	-0.032	-0.102
-168.881	-148.757	-0.275	-0.022
-167.866	341.473	-0.115	-0.221
-166.852	150.530	0.183	0.244
-165.837	605.858	0.139	0.340
-164.823	-200.000	-0.012	-0.075
-163.808	345.724	-0.092	0.178
-162.793	-28.235	0.145	0.082
-161.779	118.403	-0.208	-0.251
-160.764	800.000	-0.069	-0.296
-159.750	800.000	0.066	0.228
-158.735	800.000	-0.059	0.211
-157.720	181.240	-0.096	-0.138
-156.706	227.353	-0.109	-0.173
-155.691	-200.000	0.002	-0.307
-154.677	-63.089	0.225	-0.091
-153.662	194.255	0.015	-0.023
-152.647	383.495	0.107	0.215
-151.633	662.453	0.078	0.196
-150.618	742.305	-0.089	0.234
-149.604	113.598	-0.166	0.197
-148.589	-163.186	-0.179	0.008
-147.574	-200.000	0.004	0.296
-146.560	8.709	0.190	0.140
-145.545	-129.551	-0.210	0.028
-144.531	-200.000	0.003	-0.119
-143.516	162.779	-0.032	0.044
-142.502	-148.182	-0.045	-0.004
-141.487	-78.279	-0.167	0.056
-140.472	405.644	0.058	0.120
-139.458	-115.677	0.222	-0.041
-138.443	-200.000	0.052	-0.281
-137.429	800.000	-0.087	-0.326
-136.414	162.928	0.098	-0.135
-135.399	-168.600	-0.168	0.006
-134.385	-200.000	-0.006	0.054
-133.370	116.346	0.065	0.078
-132.356	-200.000	0.032	-0.249
-131.341	-6.933	0.219	-0.146
-130.326	34.349	-0.178	-0.152
-129.312	800.000	0.112	0.357
-128.297	-165.782	0.038	0.002
-127.283	66.834	0.389	0.387
-126.268	-200.000	-0.002	-0.108
-125.253	-127.405	-0.229	-0.033
-124.239	-100.856	0.113	-0.027
-123.224	-156.767	-0.234	0.014
-122.210	-31.981	0.186	-0.102
-121.195	-91.030	-0.270	0.076
-120.180	-88.144	-0.272	-0.080
-119.166	-67.224	0.119	0.046
-118.151	576.129	0.129	0.307
-117.137	-151.024	-0.161	0.012
-116.122	-200.000	-0.025	-0.301
-115.107	173.291	0.097	-0.137
-114.093	132.271	0.186	-0.235
-113.078	9.063	-0.166	0.122
-112.064	175.396	-0.157	0.222
-111.049	-200.000	-0.028	0.134
-110.034	25.494	-0.179	0.146
-109.020	-17.665	0.233	-0.143
-108.005	108.595	-0.120	0.140
-106.991	-200.000	-0.001	0.131
-105.976	-94.894	0.337	0.089
-104.962	-200.000	0.000	-0.276
-103.947	-200.000	-0.021	-0.442
-102.932	-125.020	-0.158	0.024
-101.918	212.631	0.171	-0.263
-100.903	-191.548	0.425	-0.004
-99.889	800.000	-0.159	-0.567
-98.874	-152.904	0.075	-0.005
-97.859	-200.000	-0.004	0.142
-96.845	-200.000	-0.065	0.418
-95.830	-200.000	0.010	-0.214
-94.816	338.594	-0.107	-0.203
-93.801	449.057	0.038	-0.083
-92.786	-200.000	-0.051	-0.335
-91.772	-54.505	-0.110	-0.049
-90.757	-200.000	0.049	-0.431
-89.743	-129.981	0.265	-0.035
-88.728	-24.574	0.161	-0.093
-87.713	764.302	-0.034	0.089
-86.699	411.120	-0.024	0.050
-85.684	126.782	0.105	-0.130
-84.670	-200.000	0.037	0.165
-83.655	132.104	0.063	0.079
-82.640	-116.957	0.240	-0.043
-81.626	160.239	0.047	0.065
-80.611	22.359	0.370	0.295
-79.597	-16.602	-0.252	-0.156
-78.582	-10.613	0.149	0.096
-77.567	133.206	0.126	0.158
-76.553	800.000	-0.062	-0.188
-75.538	800.000	-0.130	-0.409
-74.524	-200.000	0.026	-0.275
-73.509	-76.640	-0.161	-0.055
-72.494	511.953	-0.070	-0.158
-71.480	800.000	0.016	-0.068
-70.465	-103.269	0.177	-0.041
-69.451	272.070	0.188	0.324
-68.436	376.955	-0.063	0.126
-67.422	-83.233	-0.075	-0.024
-66.407	0.309	-0.053	-0.037
-65.392	30.430	-0.081	-0.068
-64.378	24.492	0.209	0.168
-63.363	154.972	0.296	0.397
-62.349	-54.294	-0.286	0.127
-61.334	161.502	-0.847	-1.155
-60.319	227.584	0.639	1.013
-59.305	800.000	-0.258	-0.944
-58.290	800.000	0.578	1.691
-57.276	223.765	0.707	1.112
-56.261	-200.000	136.113	670.972
-55.246	337.270	1676.166	3174.845
-54.232	134.092	2803.203	3539.196
-53.217	86.223	2173.174	2332.597
-52.203	31.559	1603.571	1343.496
-51.188	23.774	1352.872	1086.038
-50.173	21.686	1316.727	1044.541
-49.159	49.148	1390.909	1273.483
-48.144	45.419	1399.635	1258.537
-47.130	23.905	1347.351	1082.229
-46.115	20.807	1328.289	1048.257
-45.100	20.548	1323.102	1042.570
-44.086	20.645	1320.212	1040.833
-43.071	20.541	1318.119	1038.523
-42.057	20.530	1315.837	1036.616
-41.042	20.636	1314.180	1035.901
-40.027	20.510	1313.294	1034.415
-39.013	20.586	1310.953	1032.975
-37.998	20.694	1308.762	1031.854
-36.984	20.669	1307.267	1030.485
-35.969	20.665	1305.890	1029.333
-34.954	20.738	1303.791	1028.072
-33.940	20.656	1302.619	1026.623
-32.925	20.667	1301.960	1026.128
-31.911	20.677	1299.954	1024.565
-30.896	20.779	1298.511	1023.985
-29.881	20.795	1297.267	1023.057
-28.867	20.749	1296.254	1021.947
-27.852	20.767	1294.479	1020.615
-26.838	20.783	1293.415	1019.828
-25.823	20.672	1291.714	1017.798
-24.809	20.715	1290.558	1017.095
-23.794	20.690	1289.570	1016.133
-22.779	20.630	1288.088	1014.574
-21.765	20.734	1286.610	1013.973
-20.750	20.737	1285.198	1012.842
-19.736	20.661	1284.267	1011.624
-18.721	20.635	1282.987	1010.426
-17.706	20.544	1282.743	1009.666
-16.692	20.659	1280.688	1008.670
-15.677	20.565	1279.918	1007.482
-14.663	20.620	1278.527	1006.665
-13.648	20.707	1277.206	1006.087
-12.633	20.688	1276.586	1005.451
-11.619	20.529	1275.879	1003.938
-10.604	20.693	1275.214	1004.320
-9.590	20.546	1274.278	1002.696
-8.575	20.531	1273.413	1001.886
-7.560	20.626	1272.315	1001.532
-6.546	20.520	1271.834	1000.503
-5.531	20.594	1270.940	1000.181
-4.517	20.646	1269.942	999.660
-3.502	20.585	1268.846	998.405
-2.487	20.569	1268.473	997.983
-1.473	20.527	1263.536	993.819
-0.458	18.812	1248.292	972.089
0.556	14.489	1233.001	935.552
1.571	10.936	1241.250	921.629
2.586	10.265	1257.569	929.807
3.600	10.250	1244.915	920.285
4.615	7.771	1172.633	853.488
5.629	3.093	1103.442	779.389
6.644	0.714	1088.016	756.530
7.659	0.652	1086.160	754.861
8.673	0.579	1085.156	753.732
9.688	0.615	1084.081	753.099
10.702	0.767	1081.508	751.999
11.717	3.719	1083.889	768.287
12.731	9.988	1092.627	805.761
13.746	15.394	1099.666	837.946
14.761	17.120	1102.079	848.341
15.775	16.531	1100.593	844.181
16.790	15.524	1098.507	837.491
17.804	14.947	1096.480	833.000
18.819	14.537	1095.413	830.071
19.834	14.408	1094.325	828.534
20.848	14.167	1093.526	826.656
21.863	13.911	1093.080	824.978
22.877	13.657	1092.330	823.075
23.892	13.576	1091.284	821.813
24.907	13.614	1090.838	821.595
25.921	13.649	1090.193	821.209
26.936	13.782	1089.294	821.116
27.950	13.722	1088.470	820.127
28.965	13.897	1086.514	819.443
29.980	13.746	1085.524	817.881
30.994	13.927	1084.209	817.707
32.009	13.965	1083.120	817.003
33.023	13.812	1082.422	815.649
34.038	13.855	1081.403	815.020
35.053	13.769	1080.813	814.084
36.067	13.858	1079.675	813.588
37.082	13.828	1078.736	812.664
38.096	13.910	1078.215	812.603
39.111	13.780	1077.881	811.638
40.126	13.668	1076.301	809.832
41.140	13.712	1074.769	808.825
42.155	13.690	1074.001	808.065
43.169	13.735	1072.932	807.407
44.184	13.611	1071.728	805.828
45.199	13.644	1070.754	805.187
46.213	13.649	1069.639	804.301
47.228	13.777	1068.104	803.693
48.242	13.720	1067.139	802.621
49.257	13.800	1066.216	802.241
50.271	13.795	1065.587	801.673
51.286	13.880	1064.576	801.252
52.301	13.725	1063.725	799.797
53.315	13.749	1062.368	798.820
54.330	13.730	1061.532	798.027
55.344	13.653	1061.015	797.197
56.359	13.660	1059.768	796.224
57.374	13.632	1059.254	795.634
58.388	13.633	1058.028	794.649
59.403	13.617	1057.687	794.245
60.417	13.637	1056.447	793.337
61.432	13.600	1055.829	792.628
62.447	13.608	1054.926	791.917
63.461	13.720	1053.587	791.377
64.476	13.615	1053.128	790.460
65.490	13.530	1052.308	789.370
66.505	13.603	1051.147	788.777
67.520	13.698	1050.349	788.563
68.534	13.721	1049.467	787.938
69.549	13.635	1048.842	786.991
70.563	13.639	1048.379	786.593
71.578	13.619	1047.081	785.453
72.593	13.518	1046.832	784.721
73.607	13.578	1046.219	784.474
74.622	13.529	1045.564	783.684
75.636	13.557	1044.566	782.999
76.651	13.555	1043.784	782.333
77.666	13.546	1043.531	782.031
78.680	13.507	1042.745	781.191
79.695	13.594	1041.651	780.712
80.709	13.631	1041.463	780.675
81.724	13.644	1040.799	780.171
82.739	13.677	1039.602	779.359
83.753	13.725	1039.043	779.096
84.768	13.882	1037.790	778.823
85.782	13.948	1037.076	778.529
86.797	13.852	1036.520	777.592
87.812	13.638	1035.394	775.677
88.826	13.772	1034.430	775.513
89.841	13.676	1033.661	774.419
90.855	13.847	1032.329	774.148
91.870	13.747	1031.625	773.090
92.884	14.012	1030.343	773.292
93.899	13.890	1029.894	772.319
94.914	13.983	1028.916	771.951
95.928	13.870	1028.348	770.929
96.943	13.931	1027.364	770.409
97.957	13.903	1026.793	769.780
98.972	13.982	1025.464	769.082
99.987	13.765	1024.999	767.662
101.001	13.752	1024.246	766.970
102.016	13.822	1023.143	766.398
103.030	13.975	1022.050	766.218
104.045	13.894	1021.545	765.397
105.060	13.838	1020.578	764.350
106.074	13.737	1019.991	763.377
107.089	13.810	1018.631	762.626
108.103	13.604	1018.330	761.389
109.118	13.625	1017.066	760.471
110.133	13.788	1015.796	760.204
111.147	13.804	1014.837	759.491
112.162	13.575	1014.632	758.222
113.176	13.873	1013.649	758.780
114.191	13.833	1012.976	758.028
115.206	13.843	1012.289	757.492
116.220	13.878	1011.242	756.801
117.235	13.781	1010.051	755.404
118.249	13.859	1009.510	755.284
119.264	13.817	1008.761	754.468
120.279	13.771	1008.156	753.740
121.293	13.853	1006.765	753.003
122.308	13.751	1006.528	752.296
123.322	13.807	1004.836	751.221
124.337	13.753	1004.136	750.385
125.352	13.671	1003.043	749.134
126.366	13.760	1001.866	748.588
127.381	13.777	1000.808	747.811
128.395	13.724	999.882	746.813
129.410	13.779	998.979	746.321
130.424	13.854	997.615	745.572
131.439	13.723	997.552	744.868
132.454	13.862	996.427	744.588
133.468	13.938	995.783	744.381
134.483	13.893	994.573	743.211
135.497	13.744	994.195	742.196
136.512	13.877	993.274	742.037
137.527	13.675	992.235	740.291
138.541	13.824	991.224	740.135
139.556	13.885	990.492	739.798
140.570	14.011	989.879	739.835
141.585	13.950	989.071	738.894
142.600	13.990	988.349	738.465
143.614	13.878	987.624	737.364
144.629	14.103	986.546	737.489
145.643	14.032	985.996	736.699
146.658	14.010	984.616	735.503
147.673	14.010	984.048	735.017
148.687	13.998	982.905	734.044
149.702	13.974	982.543	733.603
150.716	13.859	981.619	732.340
151.731	14.080	981.172	732.918
152.746	13.964	980.423	731.782
153.760	14.082	979.696	731.694
154.775	14.136	979.355	731.611
155.789	14.151	978.137	730.701
156.804	14.001	978.003	729.881
157.819	14.117	977.016	729.586
158.833	14.167	976.378	729.264
159.848	14.230	975.612	728.903
160.862	14.210	974.651	728.034
161.877	14.128	973.576	726.809
162.892	14.087	972.677	725.893
163.906	14.136	971.474	725.145
164.921	14.102	970.976	724.560
165.935	14.088	970.012	723.715
166.950	14.126	969.142	723.170
167.964	14.079	968.554	722.464
168.979	14.126	967.371	721.722
169.994	14.148	966.452	721.067
171.008	14.241	965.687	720.833
172.023	14.184	964.978	719.996
173.037	14.279	964.436	719.937
174.052	14.307	963.705	719.449
175.067	14.261	962.789	718.502
176.081	14.206	962.437	717.938
177.096	14.144	961.710	717.068
178.110	14.341	960.910	717.257
179.125	14.247	960.243	716.288
180.140	14.348	960.014	716.488
181.154	14.233	959.877	715.829
182.169	14.288	959.094	715.418
183.183	14.515	957.707	715.296
184.198	14.338	957.452	714.281
185.213	14.370	956.151	713.386
186.227	14.421	955.922	713.368
187.242	14.478	955.225	713.029
188.256	14.593	954.047	712.577
189.271	14.486	953.714	711.810
190.286	14.278	953.162	710.446
191.300	14.307	952.375	709.923
192.315	14.323	951.689	709.414
193.329	14.316	951.353	709.072
194.344	14.393	950.637	708.805
195.359	14.312	950.278	708.130
196.373	14.468	949.191	707.919
197.388	14.513	948.670	707.656
198.402	14.492	948.449	707.340
199.417	14.603	947.346	706.926
200.432	14.523	947.028	706.287
201.446	14.667	946.534	706.466
202.461	14.748	945.462	705.948
203.475	14.602	945.398	705.219
204.490	14.631	944.555	704.649
205.504	14.701	943.389	704.011
206.519	14.631	943.005	703.370
207.534	14.703	942.086	702.926
208.548	14.686	941.289	702.196
209.563	14.774	940.825	702.156
210.577	14.798	940.288	701.795
211.592	14.796	939.350	701.023
212.607	14.675	939.338	700.446
213.621	14.794	938.028	699.907
214.636	14.785	937.356	699.304
215.650	14.856	936.920	699.215
216.665	14.828	935.876	698.255
217.680	14.839	935.410	697.896
218.694	14.945	934.863	697.866
219.709	14.800	934.243	696.737
220.723	14.989	933.132	696.633
221.738	14.910	932.651	695.882
222.753	14.985	931.608	695.358
223.767	14.915	931.540	694.955
224.782	15.039	930.902	694.930
225.796	15.061	929.988	694.278
226.811	14.960	930.097	693.878
227.826	14.971	929.023	693.062
228.840	15.104	928.019	692.801
229.855	15.130	927.205	692.242
230.869	15.062	926.464	691.347
231.884	14.952	925.642	690.217
232.899	15.015	925.040	689.967
233.913	15.040	923.958	689.202
234.928	15.033	923.718	688.931
235.942	15.019	923.231	688.452
236.957	14.939	922.661	687.636
237.972	14.968	922.250	687.387
238.986	15.016	921.513	686.974
240.001	15.054	920.928	686.633
241.015	15.080	919.950	685.952
242.030	15.030	919.480	685.335
243.045	15.164	918.730	685.264
244.059	15.213	918.015	684.870
245.074	15.179	917.363	684.185
246.088	15.077	916.828	683.308
247.103	15.137	915.869	682.778
248.117	15.284	915.685	683.179
249.132	15.291	915.084	682.698
250.147	15.373	914.430	682.484
251.161	15.437	913.197	681.761
252.176	15.375	912.735	681.105
253.190	15.443	912.177	680.906
254.205	15.420	911.724	680.415
255.220	15.491	910.786	679.940
256.234	15.478	910.144	679.350
257.249	15.504	909.854	679.178
258.263	15.630	908.746	678.799
259.278	15.492	908.304	677.852
260.293	15.545	907.722	677.570
261.307	15.608	907.225	677.393
262.322	15.639	906.448	676.878
263.336	15.720	905.205	676.217
264.351	15.702	904.807	675.789
265.366	15.905	904.079	675.998
266.380	15.806	903.463	675.081
267.395	15.775	902.742	674.358
268.409	15.720	902.261	673.718
269.424	15.710	901.710	673.209
270.439	15.735	900.827	672.590
271.453	15.705	900.097	671.864
272.468	15.688	899.813	671.526
273.482	15.781	899.490	671.595
274.497	15.704	898.765	670.690
275.512	15.816	897.835	670.383
276.526	15.670	897.905	669.793
277.541	15.842	897.132	669.843
278.555	15.882	896.077	669.152
279.570	15.964	895.309	668.847
280.585	15.834	894.697	667.814
281.599	15.975	893.800	667.645
282.614	15.860	893.152	666.645
283.628	15.988	892.392	666.527
284.643	16.033	891.767	666.180
285.657	16.042	891.371	665.860
286.672	16.004	890.870	665.276
287.687	15.948	890.068	664.397
288.701	16.130	889.512	664.641
289.716	16.150	888.706	664.056
290.730	16.161	887.915	663.453
291.745	16.182	887.798	663.388
292.760	15.979	887.058	661.979
293.774	16.093	886.518	661.967
294.789	16.021	885.714	661.023
295.803	16.119	885.214	660.978
296.818	15.991	884.441	659.840
297.833	16.232	883.517	660.035
298.847	16.174	883.039	659.393
299.862	16.193	882.624	659.097
300.876	16.262	882.142	658.948
301.891	16.323	881.521	658.667
302.906	16.350	880.801	658.173
303.920	16.297	880.558	657.729
304.935	16.435	879.489	657.406
305.949	16.297	879.236	656.624
306.964	16.425	878.337	656.392
307.979	16.475	877.832	656.151
308.993	16.344	877.287	655.176
310.008	16.610	876.429	655.509
311.022	16.366	876.213	654.345
312.037	16.264	875.759	653.554
313.052	16.307	875.278	653.302
314.066	16.336	874.727	652.945
315.081	16.318	874.316	652.511
316.095	16.492	873.390	652.432
317.110	16.299	873.141	651.446
318.125	16.345	872.472	651.064
319.139	16.419	871.643	650.674
320.154	16.372	871.875	650.610
321.168	16.466	870.813	650.119
322.183	16.629	870.319	650.321
323.197	16.503	869.520	649.182
324.212	16.514	869.375	649.057
325.227	16.543	868.542	648.490
326.241	16.471	867.820	647.620
327.256	16.574	867.482	647.704
328.270	16.485	866.881	646.858
329.285	16.628	866.213	646.848
330.300	16.570	865.364	645.934
331.314	16.556	865.319	645.790
332.329	16.557	864.804	645.352
333.343	16.581	864.612	645.244
334.358	16.485	864.120	644.453
335.373	16.799	863.288	644.971
336.387	16.633	862.962	644.041
337.402	16.658	862.615	643.820
338.416	16.808	862.033	643.899
339.431	16.808	861.734	643.617
340.446	16.748	861.807	643.386
341.460	16.788	861.120	642.968
342.475	16.841	860.826	642.893
343.489	16.860	860.414	642.601
344.504	16.882	859.388	641.861
345.519	16.960	859.472	642.163
346.533	16.882	858.923	641.398
347.548	16.873	858.534	641.017
348.562	17.035	857.604	640.881
349.577	17.026	856.867	640.239
350.592	16.953	856.554	639.674
351.606	16.901	855.776	638.838
352.621	16.798	855.076	637.873
353.635	16.917	854.488	637.826
354.650	16.876	853.831	637.124
355.665	17.034	853.359	637.309
356.679	17.015	852.492	636.534
357.694	16.920	851.956	635.723
358.708	17.060	851.241	635.655
359.723	17.060	850.759	635.241
360.738	17.034	850.063	634.564
361.752	17.184	849.404	634.579
362.767	17.114	849.054	633.999
363.781	17.130	848.485	633.578
364.796	17.122	848.207	633.283
365.810	17.215	847.635	633.149
366.825	17.275	847.164	632.963
367.840	17.247	846.642	632.415
368.854	17.250	846.218	632.054
369.869	17.484	845.325	632.199
370.883	17.434	845.093	631.785
371.898	17.203	845.242	630.979
372.913	17.266	844.851	630.867
373.927	17.461	843.590	630.592
374.942	17.427	843.443	630.300
375.956	17.409	843.190	629.989
376.971	17.588	842.686	630.219
377.986	17.506	842.333	629.597
379.000	17.507	841.772	629.123
380.015	17.571	841.121	628.818
381.029	17.670	840.380	628.575
382.044	17.537	840.219	627.906
383.059	17.553	839.140	627.106
384.073	17.589	838.785	626.915
385.088	17.713	837.922	626.674
386.102	17.606	837.391	625.827
387.117	17.607	836.889	625.398
388.132	17.510	836.533	624.720
389.146	17.743	835.924	625.066
390.161	17.683	835.672	624.603
391.175	17.627	835.033	623.865
392.190	17.590	834.163	623.023
393.205	17.517	834.294	622.799
394.219	17.540	833.803	622.462
395.234	17.678	833.143	622.418
396.248	17.574	833.035	621.901
397.263	17.627	832.453	621.605
398.278	17.575	832.363	621.296
399.292	17.734	831.514	621.185
400.307	17.639	830.874	620.305
401.321	17.822	830.156	620.380
402.336	17.765	830.158	620.119
403.350	17.816	829.729	619.932
404.365	17.761	829.271	619.333
405.380	17.856	828.945	619.378
406.394	17.768	828.019	618.315
407.409	17.955	827.405	618.477
408.423	17.822	827.684	618.149
409.438	17.979	826.731	617.952
410.453	17.854	826.710	617.431
411.467	18.005	826.089	617.457
412.482	17.960	825.475	616.782
413.496	18.139	825.145	617.126
414.511	18.073	824.822	616.589
415.526	17.975	824.667	616.066
416.540	18.074	823.841	615.752
417.555	18.109	823.422	615.513
418.569	18.007	823.006	614.779
419.584	18.074	822.311	614.445
420.599	18.243	821.930	614.715
421.613	116.056	1302.059	1493.807
422.628	100.756	1371.962	1493.859
