DTS Sentinel unit serial number:	SN413079Multiplexer serial number:	ORYXHardware model number:	OX4-SRSoftware version number:	ORYX F/W v4.00 Oryx Data Collector v3.7.2.0data status	okinstallation	princeton_trtdifferential loss correction	single-endedforward channel	channel 1reverse channel	N/Adate	2019/09/17time	19:46:35forward acquisition time	60.00reverse acquisition time	0.00gamma	496.2192k internal	0.2317k external	0.2317temperature offset calibration	0.9973default loss term (dB/km)	0.3790temperature slope calibration	1.0000multiplexer offset coefficient	1.0000multiplexer slope coefficient	1.0000fibre end	0.00T internal ref (°C)	34.72T ext. ref 1 (°C)	0.23T ext. ref 2 (°C)	24.11length (m)	temperature (°C)	Stokes	anti-Stokes-747.200	328.644	0.128	-0.249
-746.185	715.222	-0.132	0.354
-745.171	297.920	-0.061	0.114
-744.156	-12.747	0.210	-0.139
-743.142	11.971	0.215	0.167
-742.127	84.156	-0.161	-0.179
-741.112	190.954	-0.179	-0.273
-740.098	-71.919	0.046	0.017
-739.083	800.000	-0.060	-0.223
-738.069	44.265	-0.133	0.123
-737.054	91.328	0.046	0.052
-736.039	-10.708	-0.196	-0.131
-735.025	-137.313	-0.325	0.037
-734.010	286.070	-0.071	-0.129
-732.996	125.232	-0.008	0.010
-731.981	24.190	0.245	0.205
-730.966	-200.000	0.024	0.296
-729.952	100.435	0.094	-0.110
-728.937	-59.087	-0.295	-0.129
-727.923	383.282	0.052	0.109
-726.908	313.173	-0.060	-0.114
-725.894	-140.595	-0.110	-0.012
-724.879	-1.220	0.334	0.239
-723.864	714.204	-0.142	-0.381
-722.850	137.273	-0.167	-0.220
-721.835	119.496	0.051	-0.064
-720.821	-78.014	0.096	0.033
-719.806	-200.000	-0.024	-0.169
-718.791	129.468	0.028	-0.036
-717.777	55.520	-0.290	0.284
-716.762	-64.997	-0.100	-0.041
-715.748	-160.536	-0.170	0.009
-714.733	572.262	-0.073	0.179
-713.718	-200.000	0.007	0.218
-712.704	-110.432	0.027	-0.006
-711.689	-167.006	0.144	-0.006
-710.675	-200.000	-0.005	0.248
-709.660	30.216	0.168	-0.145
-708.645	-11.782	-0.328	-0.217
-707.631	-20.742	-0.242	-0.150
-706.616	30.350	-0.228	-0.197
-705.602	-185.064	-0.300	0.005
-704.587	-27.605	0.045	0.026
-703.572	367.319	0.163	-0.332
-702.558	200.496	0.140	-0.218
-701.543	-200.000	0.030	-0.221
-700.529	-146.553	-0.122	0.011
-699.514	800.000	0.108	-0.425
-698.499	-200.000	-0.069	-0.341
-697.485	-130.033	0.491	-0.068
-696.470	145.291	0.033	-0.045
-695.456	200.321	0.051	0.080
-694.441	-200.000	0.022	0.127
-693.426	-44.381	0.229	-0.116
-692.412	-169.812	0.170	-0.006
-691.397	13.240	-0.183	0.143
-690.383	-91.620	0.139	-0.040
-689.368	340.639	-0.134	-0.264
-688.354	-129.049	0.448	-0.063
-687.339	-200.000	0.034	0.251
-686.324	800.000	0.076	0.225
-685.310	530.408	-0.158	0.378
-684.295	-57.848	-0.084	0.037
-683.281	-67.883	0.202	-0.080
-682.266	-21.966	0.058	-0.036
-681.251	319.074	-0.019	0.037
-680.237	-95.538	-0.216	0.058
-679.222	497.331	-0.044	-0.101
-678.208	-200.000	0.072	-0.376
-677.193	45.662	0.245	-0.229
-676.178	25.702	0.168	-0.142
-675.164	-200.000	-0.042	-0.255
-674.149	-48.980	-0.221	-0.107
-673.135	212.100	0.131	0.209
-672.120	-121.499	-0.208	-0.035
-671.105	-34.661	0.384	-0.212
-670.091	382.982	0.063	0.131
-669.076	-79.063	-0.282	-0.097
-668.062	-7.593	0.218	0.149
-667.047	352.155	-0.045	-0.089
-666.032	421.511	0.043	-0.093
-665.018	10.533	-0.146	0.113
-664.003	689.704	-0.139	-0.367
-662.989	-93.190	-0.495	-0.139
-661.974	69.475	-0.169	-0.176
-660.959	49.708	-0.131	-0.125
-659.945	-39.918	0.153	-0.081
-658.930	-200.000	0.021	-0.368
-657.916	-124.319	-0.214	0.034
-656.901	-160.517	-0.140	0.008
-655.886	52.705	-0.193	-0.186
-654.872	132.348	0.048	0.063
-653.857	70.604	-0.076	-0.080
-652.843	-38.901	-0.322	0.171
-651.828	-200.000	0.020	0.155
-650.814	-200.000	0.023	-0.296
-649.799	88.841	0.242	0.272
-648.784	-200.000	0.006	0.113
-647.770	-200.000	0.034	-0.163
-646.755	-200.000	-0.020	0.348
-645.741	-183.848	-0.179	-0.003
-644.726	38.339	0.230	-0.207
-643.711	-124.898	0.089	0.014
-642.697	-84.836	-0.125	-0.039
-641.682	699.639	-0.073	0.195
-640.668	800.000	0.092	0.298
-639.653	53.250	-0.191	0.184
-638.638	-117.910	-0.158	-0.029
-637.624	-48.049	-0.083	0.041
-636.609	733.908	-0.061	0.166
-635.595	-115.446	0.122	-0.023
-634.580	580.282	0.075	-0.185
-633.565	-189.333	0.207	-0.002
-632.551	697.834	0.061	-0.162
-631.536	37.192	0.071	0.064
-630.522	226.925	-0.061	-0.100
-629.507	11.951	0.240	-0.186
-628.492	-139.797	0.292	-0.031
-627.478	-122.800	-0.325	-0.053
-626.463	-200.000	-0.030	-0.165
-625.449	-98.912	-0.088	-0.023
-624.434	4.014	-0.272	-0.200
-623.419	575.041	0.031	-0.075
-622.405	-155.076	-0.326	0.022
-621.390	800.000	0.072	0.203
-620.376	-200.000	-0.073	0.367
-619.361	-127.334	0.163	-0.024
-618.346	-43.231	0.108	-0.055
-617.332	-32.829	-0.078	0.044
-616.317	-200.000	0.018	0.270
-615.303	-41.030	0.322	0.168
-614.288	-102.259	0.164	0.040
-613.273	-101.186	0.099	-0.024
-612.259	-117.212	-0.156	-0.029
-611.244	52.200	-0.204	-0.195
-610.230	77.666	0.101	-0.109
-609.215	250.117	0.185	0.317
-608.201	800.000	-0.074	0.302
-607.186	396.231	-0.066	-0.138
-606.171	-105.210	0.203	-0.047
-605.157	466.473	-0.117	0.265
-604.142	-81.473	-0.061	-0.020
-603.128	-200.000	-0.018	0.321
-602.113	-105.328	-0.461	0.106
-601.098	-200.000	-0.001	0.047
-600.084	-24.483	-0.054	0.032
-599.069	-40.256	0.096	0.050
-598.055	225.892	0.180	-0.294
-597.040	800.000	0.084	-0.276
-596.025	5.937	-0.357	-0.266
-595.011	800.000	-0.061	0.244
-593.996	-93.213	-0.411	0.115
-592.982	-193.846	-0.308	-0.003
-591.967	77.013	-0.100	0.107
-590.952	-92.188	-0.163	0.046
-589.938	-112.170	0.200	-0.041
-588.923	283.017	-0.016	0.029
-587.909	457.427	0.275	0.614
-586.894	-27.280	-0.122	0.072
-585.879	800.000	-0.123	-0.354
-584.865	-30.787	0.050	0.029
-583.850	108.564	-0.083	-0.100
-582.836	241.619	-0.208	-0.350
-581.821	641.478	-0.166	0.425
-580.806	-51.415	-0.357	0.168
-579.792	236.277	0.189	-0.314
-578.777	50.837	-0.040	0.038
-577.763	61.703	0.048	0.048
-576.748	52.336	-0.090	0.087
-575.733	-175.795	-0.116	0.003
-574.719	86.274	0.030	0.033
-573.704	85.523	-0.162	0.179
-572.690	-146.521	0.197	0.017
-571.675	-127.329	0.227	0.033
-570.661	-145.339	-0.225	0.020
-569.646	167.387	0.073	0.105
-568.631	79.761	0.250	0.270
-567.617	-71.563	0.059	-0.022
-566.602	10.959	-0.137	-0.105
-565.588	481.746	-0.141	0.322
-564.573	-98.784	0.548	0.140
-563.558	-200.000	-0.039	-0.201
-562.544	800.000	0.072	-0.203
-561.529	190.396	0.318	-0.481
-560.515	-125.970	-0.248	0.037
-559.500	233.248	0.119	-0.197
-558.485	303.298	-0.005	-0.009
-557.471	394.328	-0.128	0.268
-556.456	800.000	0.030	-0.117
-555.442	213.120	-0.123	0.195
-554.427	170.813	0.077	0.110
-553.412	237.279	-0.070	0.116
-552.398	-20.831	0.189	0.116
-551.383	285.439	-0.202	0.366
-550.369	-37.676	-0.105	0.056
-549.354	-36.711	0.387	0.209
-548.339	8.518	0.242	0.183
-547.325	-108.615	-0.437	0.094
-546.310	-167.932	-0.375	-0.015
-545.296	-123.491	-0.122	0.019
-544.281	-200.000	-0.037	-0.222
-543.266	-200.000	0.001	-0.111
-542.252	29.707	0.174	-0.148
-541.237	206.128	-0.008	-0.012
-540.223	579.127	0.037	0.092
-539.208	-80.322	-0.075	-0.025
-538.193	590.631	-0.054	0.135
-537.179	68.505	0.142	-0.146
-536.164	-64.323	-0.188	-0.077
-535.150	204.257	0.014	0.021
-534.135	201.450	-0.049	-0.076
-533.121	243.263	0.091	-0.154
-532.106	-156.534	0.141	0.009
-531.091	-150.305	0.215	0.017
-530.077	-200.000	-0.017	0.169
-529.062	-50.192	0.097	-0.046
-528.048	-149.928	-0.302	0.024
-527.033	-152.051	0.282	-0.021
-526.018	66.322	0.042	-0.043
-525.004	-200.000	-0.039	-0.216
-523.989	553.858	0.182	-0.440
-522.975	393.141	0.067	0.140
-521.960	74.241	-0.081	-0.085
-520.945	800.000	0.071	-0.237
-519.931	800.000	0.078	-0.340
-518.916	-200.000	-0.003	0.501
-517.902	117.841	0.078	-0.096
-516.887	-112.432	0.124	0.025
-515.872	-14.608	0.218	-0.141
-514.858	570.560	0.087	-0.213
-513.843	-200.000	-0.064	-0.301
-512.829	-200.000	0.007	-0.095
-511.814	-16.667	0.314	-0.199
-510.799	390.939	-0.027	0.056
-509.785	277.932	0.067	-0.120
-508.770	800.000	0.082	0.261
-507.756	37.872	-0.207	-0.185
-506.741	31.276	-0.312	0.268
-505.726	73.460	-0.238	0.250
-504.712	-200.000	0.060	-0.439
-503.697	53.281	-0.082	-0.079
-502.683	-200.000	0.073	-0.366
-501.668	115.201	0.154	-0.188
-500.653	151.326	0.109	-0.148
-499.639	-117.384	0.073	-0.013
-498.624	-200.000	-0.002	-0.191
-497.610	81.842	0.124	0.134
-496.595	-200.000	-0.019	0.285
-495.581	177.432	0.191	-0.279
-494.566	144.509	0.025	0.033
-493.551	134.112	0.191	0.248
-492.537	-130.379	-0.060	0.008
-491.522	502.547	0.097	0.225
-490.508	-41.141	-0.147	0.076
-489.493	423.330	-0.036	0.077
-488.478	13.968	0.282	0.220
-487.464	-39.631	0.063	0.033
-486.449	800.000	-0.082	-0.250
-485.435	383.740	0.119	0.245
-484.420	-116.045	-0.103	-0.019
-483.405	-200.000	0.072	-0.347
-482.391	800.000	-0.055	0.228
-481.376	156.194	-0.068	0.094
-480.362	-200.000	-0.005	0.178
-479.347	-18.347	-0.225	-0.141
-478.332	506.262	-0.095	-0.221
-477.318	-200.000	-0.017	0.178
-476.303	255.785	-0.068	0.117
-475.289	225.941	-0.212	0.345
-474.274	-19.381	-0.103	-0.064
-473.259	-200.000	0.015	0.126
-472.245	30.337	0.201	-0.172
-471.230	-65.936	0.097	-0.039
-470.216	275.938	-0.046	0.082
-469.201	14.530	-0.106	0.083
-468.186	448.001	-0.161	0.355
-467.172	-174.369	0.383	0.011
-466.157	150.164	-0.085	0.115
-465.143	64.919	0.155	-0.156
-464.128	800.000	-0.052	0.179
-463.113	42.511	-0.223	0.203
-462.099	-67.050	-0.268	0.106
-461.084	233.508	0.151	-0.249
-460.070	-9.170	-0.268	0.179
-459.055	35.995	-0.194	0.171
-458.040	-96.906	-0.233	0.061
-457.026	-200.000	-0.013	-0.089
-456.011	800.000	-0.068	-0.197
-454.997	106.908	0.223	-0.265
-453.982	-63.030	0.429	-0.178
-452.968	-200.000	-0.033	-0.282
-451.953	800.000	-0.113	0.328
-450.938	150.279	-0.071	-0.097
-449.924	-66.290	0.197	0.078
-448.909	29.740	0.206	-0.176
-447.895	151.001	0.036	-0.048
-446.880	165.456	-0.058	0.083
-445.865	73.903	0.085	0.090
-444.851	-200.000	-0.003	0.083
-443.836	-94.750	-0.355	0.096
-442.822	142.401	-0.134	-0.177
-441.807	-126.404	-0.102	-0.015
-440.792	-65.519	-0.183	-0.073
-439.778	-123.036	0.125	0.020
-438.763	800.000	0.061	-0.191
-437.749	-102.144	-0.191	0.046
-436.734	-70.431	0.131	-0.050
-435.719	-33.043	0.180	0.100
-434.705	422.361	-0.112	-0.241
-433.690	-87.817	0.097	0.029
-432.676	800.000	-0.116	0.343
-431.661	-200.000	0.037	-0.270
-430.646	-40.835	0.113	0.059
-429.632	-200.000	-0.031	0.355
-428.617	46.652	-0.169	-0.157
-427.603	800.000	0.058	-0.176
-426.588	-117.948	-0.188	-0.034
-425.573	-2.914	-0.092	0.064
-424.559	434.130	-0.116	0.252
-423.544	-200.000	-0.007	0.202
-422.530	800.000	0.069	0.228
-421.515	-132.769	0.058	-0.007
-420.500	541.603	0.129	-0.308
-419.486	-200.000	0.010	-0.101
-418.471	-132.617	0.175	0.022
-417.457	-200.000	-0.007	0.127
-416.442	-24.225	-0.144	-0.086
-415.428	800.000	-0.063	0.205
-414.413	-200.000	0.070	0.307
-413.398	-91.480	0.091	0.026
-412.384	-200.000	0.012	0.055
-411.369	485.103	0.026	-0.060
-410.355	-2.137	-0.146	0.102
-409.340	800.000	-0.045	-0.132
-408.325	800.000	-0.039	0.128
-407.311	38.479	-0.044	0.039
-406.296	-53.008	0.157	-0.072
-405.282	-48.431	0.305	-0.147
-404.267	732.190	-0.090	-0.239
-403.252	28.346	-0.257	-0.217
-402.238	46.930	0.076	-0.070
-401.223	16.350	0.106	-0.083
-400.209	-81.654	-0.325	-0.107
-399.194	800.000	0.012	-0.046
-398.179	182.740	-0.137	0.201
-397.165	-27.690	0.300	-0.174
-396.150	204.624	0.194	0.300
-395.136	90.868	0.113	0.127
-394.121	800.000	-0.105	0.307
-393.106	-200.000	-0.076	-0.452
-392.092	66.147	-0.092	-0.094
-391.077	447.521	0.092	0.203
-390.063	58.465	-0.165	-0.162
-389.048	-23.587	-0.072	-0.043
-388.033	-21.494	0.143	0.087
-387.019	-105.101	0.326	0.075
-386.004	-2.734	-0.286	0.199
-384.990	26.291	-0.141	0.118
-383.975	-97.270	0.153	0.040
-382.960	-200.000	-0.021	-0.117
-381.946	800.000	0.084	-0.294
-380.931	179.242	0.157	0.229
-379.917	-104.655	-0.141	-0.032
-378.902	-14.127	-0.172	-0.110
-377.888	-64.700	-0.426	0.172
-376.873	-200.000	-0.010	0.044
-375.858	270.019	0.039	0.069
-374.844	-170.032	-0.355	-0.013
-373.829	183.024	0.050	0.074
-372.815	721.686	-0.072	-0.191
-371.800	127.627	0.126	-0.159
-370.785	-64.226	-0.225	-0.092
-369.771	-50.636	-0.236	0.111
-368.756	-50.536	0.102	-0.048
-367.742	-131.674	0.328	-0.043
-366.727	447.285	0.129	0.284
-365.712	-92.460	-0.204	-0.057
-364.698	-48.303	0.154	-0.074
-363.683	-200.000	0.010	-0.069
-362.669	-83.941	-0.255	-0.081
-361.654	46.526	0.146	0.136
-360.639	-112.759	-0.196	0.039
-359.625	-56.764	0.188	0.083
-358.610	153.231	0.243	-0.331
-357.596	-200.000	-0.039	-0.179
-356.581	-141.789	-0.149	-0.015
-355.566	89.024	0.075	-0.083
-354.552	539.790	-0.114	-0.271
-353.537	-100.095	-0.370	0.092
-352.523	-26.791	-0.272	-0.158
-351.508	41.536	0.083	0.075
-350.493	56.863	-0.167	-0.163
-349.479	-200.000	-0.016	-0.392
-348.464	-100.283	-0.187	-0.046
-347.450	-150.539	-0.223	-0.017
-346.435	-200.000	-0.060	-0.322
-345.420	-73.269	-0.211	0.077
-344.406	-96.238	0.116	-0.031
-343.391	-71.681	0.027	-0.010
-342.377	82.170	0.205	-0.222
-341.362	392.205	0.120	-0.248
-340.348	2.917	-0.070	-0.050
-339.333	-91.197	-0.373	-0.107
-338.318	-40.870	0.282	0.145
-337.304	800.000	-0.061	-0.171
-336.289	85.837	0.224	-0.245
-335.275	217.639	-0.109	0.173
-334.260	-46.038	0.421	0.207
-333.245	-118.517	0.183	0.032
-332.231	-200.000	-0.033	0.361
-331.216	-51.536	0.296	0.138
-330.202	441.905	0.085	0.184
-329.187	800.000	0.067	0.207
-328.172	657.608	0.087	0.222
-327.158	42.839	-0.195	-0.177
-326.143	-190.659	-0.279	-0.003
-325.129	-73.289	0.092	-0.033
-324.114	-200.000	0.013	-0.102
-323.099	-43.275	-0.284	-0.143
-322.085	800.000	-0.082	0.248
-321.070	-48.822	-0.113	-0.054
-320.056	-200.000	-0.030	0.404
-319.041	45.117	-0.228	-0.209
-318.026	63.280	-0.120	-0.120
-317.012	50.629	-0.189	0.178
-315.997	-200.000	-0.027	-0.170
-314.983	800.000	-0.017	0.058
-313.968	-158.319	-0.190	-0.011
-312.953	4.430	-0.081	0.059
-311.939	108.752	0.242	-0.287
-310.924	-200.000	-0.075	0.481
-309.910	68.848	-0.184	0.189
-308.895	-200.000	0.028	0.183
-307.880	13.044	-0.175	0.135
-306.866	269.236	0.170	-0.297
-305.851	-134.753	0.125	0.015
-304.837	18.745	0.049	0.039
-303.822	-48.505	-0.170	0.082
-302.807	24.941	-0.076	-0.063
-301.793	61.186	0.186	0.184
-300.778	-200.000	-0.011	-0.070
-299.764	29.972	0.132	0.112
-298.749	38.632	-0.167	-0.148
-297.735	74.326	0.097	0.101
-296.720	-200.000	-0.008	0.501
-295.705	291.865	0.067	-0.121
-294.691	-200.000	-0.003	0.051
-293.676	-121.973	0.510	0.083
-292.662	-143.647	-0.130	-0.012
-291.647	218.780	0.153	0.243
-290.632	144.916	-0.160	0.213
-289.618	467.412	0.194	-0.432
-288.603	-0.504	0.183	-0.129
-287.589	-200.000	-0.031	-0.183
-286.574	-100.260	0.428	0.106
-285.559	315.357	0.004	0.007
-284.545	-200.000	-0.007	0.149
-283.530	-110.724	0.215	0.044
-282.516	-130.072	0.042	-0.006
-281.501	-200.000	-0.068	-0.388
-280.486	115.571	-0.070	-0.085
-279.472	188.780	0.046	-0.069
-278.457	49.496	0.272	0.254
-277.443	-145.000	0.314	0.028
-276.428	-81.562	-0.229	-0.075
-275.413	-200.000	0.000	-0.167
-274.399	-200.000	0.048	-0.373
-273.384	-184.679	0.214	0.003
-272.370	181.134	-0.116	0.170
-271.355	-116.350	-0.245	0.045
-270.340	322.463	-0.060	-0.114
-269.326	-200.000	0.010	-0.196
-268.311	-200.000	-0.039	0.174
-267.297	-110.002	0.378	0.079
-266.282	162.025	0.228	0.318
-265.267	-85.447	0.074	-0.023
-264.253	-31.133	-0.145	0.081
-263.238	-63.674	0.119	0.049
-262.224	-103.384	0.311	0.073
-261.209	-151.891	-0.151	0.011
-260.195	-41.750	0.279	-0.142
-259.180	800.000	-0.112	-0.387
-258.165	-66.806	-0.187	-0.074
-257.151	-164.763	0.319	0.014
-256.136	165.887	-0.125	0.176
-255.122	134.371	-0.216	0.278
-254.107	412.470	-0.100	-0.211
-253.092	-102.287	-0.197	-0.047
-252.078	93.370	0.197	-0.222
-251.063	-87.562	0.286	0.086
-250.049	-28.890	-0.060	-0.034
-249.034	-60.751	-0.192	-0.081
-248.019	115.356	-0.133	-0.161
-247.005	-84.167	-0.168	0.053
-245.990	-70.772	-0.169	-0.063
-244.976	-200.000	0.004	0.137
-243.961	-28.583	0.219	0.125
-242.946	189.563	-0.203	-0.303
-241.932	-59.760	-0.258	-0.110
-240.917	154.550	0.112	-0.153
-239.903	-112.363	0.286	0.057
-238.888	-78.136	-0.155	0.053
-237.873	271.927	0.113	0.197
-236.859	64.295	0.137	-0.137
-235.844	326.585	-0.025	0.048
-234.830	800.000	0.063	-0.256
-233.815	-71.107	0.600	-0.224
-232.800	-81.850	-0.192	0.062
-231.786	800.000	-0.075	-0.306
-230.771	-71.668	-0.180	-0.067
-229.757	-200.000	-0.022	-0.129
-228.742	-64.659	0.239	-0.096
-227.727	800.000	-0.127	-0.354
-226.713	55.136	-0.049	-0.047
-225.698	800.000	0.021	-0.069
-224.684	33.964	-0.254	-0.219
-223.669	-1.772	-0.327	-0.229
-222.655	89.589	-0.366	-0.406
-221.640	-147.932	-0.328	0.027
-220.625	-31.474	0.233	-0.130
-219.611	242.031	-0.126	0.209
-218.596	760.786	0.180	0.484
-217.582	800.000	-0.049	-0.193
-216.567	524.711	-0.114	-0.265
-215.552	239.654	0.183	0.302
-214.538	800.000	-0.074	-0.271
-213.523	-76.211	0.090	-0.031
-212.509	800.000	0.019	0.056
-211.494	-200.000	-0.006	0.256
-210.479	-200.000	-0.001	0.065
-209.465	-34.525	-0.090	-0.049
-208.450	-200.000	-0.046	-0.229
-207.436	-200.000	-0.016	-0.111
-206.421	-12.745	0.354	-0.229
-205.406	-71.148	0.388	-0.145
-204.392	-200.000	0.005	0.124
-203.377	-200.000	0.042	0.279
-202.363	-72.680	0.357	0.130
-201.348	-200.000	-0.034	0.286
-200.333	-99.905	0.200	0.049
-199.319	-129.250	-0.045	0.006
-198.304	197.219	-0.083	-0.126
-197.290	42.733	-0.063	-0.057
-196.275	-165.398	0.222	0.010
-195.260	45.014	0.128	-0.117
-194.246	800.000	-0.038	-0.114
-193.231	-71.142	0.205	0.076
-192.217	738.963	0.065	-0.173
-191.202	-59.534	0.092	0.039
-190.187	-200.000	-0.002	-0.190
-189.173	-46.814	0.165	0.080
-188.158	140.544	0.079	0.103
-187.144	-54.163	0.066	0.030
-186.129	-93.782	0.014	0.004
-185.114	-123.621	0.328	0.052
-184.100	203.258	-0.175	0.268
-183.085	-53.695	-0.356	0.161
-182.071	-200.000	0.035	-0.261
-181.056	-200.000	-0.092	-0.481
-180.042	-130.073	-0.197	0.027
-179.027	-118.609	0.187	0.033
-178.012	800.000	-0.110	0.345
-176.998	-106.125	-0.376	-0.084
-175.983	-200.000	0.026	0.332
-174.969	-58.641	0.323	0.139
-173.954	-180.432	0.289	-0.006
-172.939	641.012	-0.049	-0.123
-171.925	-200.000	-0.053	0.248
-170.910	-200.000	-0.008	-0.115
-169.896	326.953	0.062	0.118
-168.881	-91.659	0.217	0.061
-167.866	-144.546	-0.394	-0.036
-166.852	-200.000	0.030	0.143
-165.837	67.181	0.121	-0.122
-164.823	341.661	-0.152	-0.294
-163.808	-62.403	-0.142	-0.059
-162.793	-200.000	0.031	0.232
-161.779	800.000	0.018	-0.072
-160.764	-92.783	0.393	0.109
-159.750	223.091	-0.191	0.305
-158.735	503.320	0.111	0.255
-157.720	513.309	-0.047	-0.109
-156.706	741.699	0.118	-0.315
-155.691	69.812	0.121	0.124
-154.677	800.000	-0.075	-0.314
-153.662	-200.000	0.004	-0.073
-152.647	204.483	-0.063	0.097
-151.633	102.615	-0.244	0.282
-150.618	-135.896	0.254	0.030
-149.604	549.291	-0.127	-0.300
-148.589	-185.587	-0.134	-0.002
-147.574	800.000	-0.022	-0.090
-146.560	-100.625	0.116	0.028
-145.545	-200.000	0.027	-0.136
-144.531	-106.437	-0.138	0.030
-143.516	-4.931	-0.450	-0.306
-142.502	0.007	0.452	0.319
-141.487	800.000	-0.046	-0.127
-140.472	-200.000	-0.106	0.583
-139.458	-83.518	0.359	0.114
-138.443	-78.133	-0.154	0.052
-137.429	13.671	-0.294	0.226
-136.414	-11.341	-0.159	-0.103
-135.399	800.000	0.079	0.240
-134.385	800.000	-0.070	0.294
-133.370	-143.090	-0.092	-0.009
-132.356	-118.454	0.056	-0.010
-131.341	382.078	0.043	0.087
-130.326	135.601	0.215	-0.276
-129.312	-59.474	-0.251	0.106
-128.297	-146.219	-0.122	-0.011
-127.283	97.879	0.224	0.255
-126.268	219.634	-0.063	0.100
-125.253	-200.000	0.019	-0.187
-124.239	494.283	0.176	0.400
-123.224	800.000	0.109	0.323
-122.210	674.570	0.157	-0.404
-121.195	50.987	0.299	-0.280
-120.180	-88.888	-0.145	-0.043
-119.166	-126.131	0.188	-0.028
-118.151	-200.000	-0.023	0.163
-117.137	-44.061	0.031	0.015
-116.122	-200.000	0.094	-0.483
-115.107	-49.346	-0.141	-0.067
-114.093	98.310	-0.222	0.253
-113.078	85.433	0.109	0.119
-112.064	-200.000	0.016	-0.127
-111.049	-200.000	-0.010	0.077
-110.034	-93.472	-0.126	0.035
-109.020	-30.020	-0.174	0.098
-108.005	-200.000	-0.028	0.236
-106.991	-7.892	-0.217	0.145
-105.976	-200.000	0.019	-0.205
-104.962	-46.162	0.067	0.033
-103.947	612.913	0.162	-0.400
-102.932	160.042	0.111	-0.153
-101.918	-111.356	0.143	-0.029
-100.903	-200.000	0.014	0.120
-99.889	321.727	-0.115	-0.217
-98.874	182.944	-0.044	0.065
-97.859	-163.284	0.200	-0.009
-96.845	124.834	0.111	-0.138
-95.830	-94.947	-0.209	-0.056
-94.816	-49.664	0.101	-0.048
-93.801	-100.253	-0.246	-0.060
-92.786	7.176	0.261	0.192
-91.772	-66.432	0.091	-0.036
-90.757	800.000	-0.093	0.311
-89.743	-200.000	0.019	0.433
-88.728	33.969	-0.218	0.187
-87.713	-124.987	-0.134	-0.020
-86.699	-38.675	0.197	-0.103
-85.684	112.723	0.120	0.143
-84.670	-74.992	-0.090	0.032
-83.655	176.505	-0.053	0.076
-82.640	-93.219	0.372	-0.102
-81.626	-200.000	-0.147	0.001
-80.611	-138.463	-0.112	-0.012
-79.597	-156.471	-0.238	0.015
-78.582	-200.000	0.004	0.199
-77.567	-87.371	0.187	0.056
-76.553	-26.041	-0.158	-0.092
-75.538	-200.000	0.038	0.270
-74.524	-53.985	0.066	0.030
-73.509	111.542	-0.038	0.045
-72.494	265.620	-0.141	0.242
-71.480	464.503	-0.089	0.197
-70.465	189.813	-0.070	-0.103
-69.451	-49.046	0.194	0.091
-68.436	-119.062	-0.275	-0.048
-67.422	157.847	0.185	0.252
-66.407	-156.394	0.072	0.004
-65.392	-15.930	-0.102	0.064
-64.378	-105.182	-0.180	0.041
-63.363	800.000	0.075	0.248
-62.349	165.094	-0.252	0.350
-61.334	31.748	-1.016	-0.862
-60.319	391.213	0.236	0.483
-59.305	432.993	-0.367	-0.785
-58.290	234.869	0.780	1.268
-57.276	743.334	0.514	1.362
-56.261	-200.000	92.230	559.700
-55.246	563.105	1361.113	3247.172
-54.232	161.821	2535.874	3499.264
-53.217	114.747	2150.053	2583.183
-52.203	46.395	1616.186	1476.863
-51.188	38.173	1355.420	1188.761
-50.173	35.026	1313.088	1132.997
-49.159	57.300	1358.923	1306.918
-48.144	59.920	1375.970	1338.984
-47.130	38.459	1335.280	1172.628
-46.115	34.964	1318.351	1136.992
-45.100	34.769	1313.593	1131.685
-44.086	34.587	1311.427	1128.698
-43.071	34.514	1309.058	1126.183
-42.057	34.570	1306.784	1124.515
-41.042	34.498	1305.785	1123.183
-40.027	34.628	1303.803	1122.201
-39.013	34.676	1301.507	1120.458
-37.998	34.562	1300.564	1118.938
-36.984	34.719	1298.411	1117.960
-35.969	34.663	1297.046	1116.413
-34.954	34.716	1295.169	1115.061
-33.940	34.715	1293.788	1113.822
-32.925	34.757	1292.677	1113.065
-31.911	34.728	1291.258	1111.631
-30.896	34.834	1289.616	1110.790
-29.881	34.759	1288.842	1109.641
-28.867	34.866	1286.875	1108.523
-27.852	34.841	1285.837	1107.445
-26.838	34.832	1284.419	1106.128
-25.823	34.941	1282.496	1105.058
-24.809	34.868	1281.421	1103.663
-23.794	34.716	1280.743	1102.160
-22.779	34.808	1279.063	1101.198
-21.765	34.906	1277.203	1100.121
-20.750	34.676	1276.910	1098.499
-19.736	34.803	1274.938	1097.491
-18.721	34.684	1274.336	1096.244
-17.706	34.667	1272.875	1094.846
-16.692	34.675	1271.820	1093.943
-15.677	34.660	1270.590	1092.753
-14.663	34.673	1269.579	1091.914
-13.648	34.640	1268.696	1090.925
-12.633	34.711	1267.587	1090.335
-11.619	34.684	1266.981	1089.613
-10.604	34.693	1265.879	1088.673
-9.590	34.682	1265.077	1087.881
-8.575	34.633	1264.307	1086.895
-7.560	34.545	1263.741	1085.867
-6.546	34.606	1262.607	1085.191
-5.531	34.734	1261.251	1084.710
-4.517	34.669	1260.677	1083.808
-3.502	34.671	1259.837	1083.053
-2.487	34.639	1258.845	1081.973
-1.473	34.505	1254.212	1077.196
-0.458	31.907	1236.657	1047.584
0.556	24.406	1215.974	992.838
1.571	18.733	1218.849	963.363
2.586	17.055	1232.375	964.440
3.600	16.571	1221.266	952.936
4.615	12.150	1151.032	874.532
5.629	4.464	1076.257	779.206
6.644	0.569	1055.957	745.243
7.659	0.232	1053.653	741.890
8.673	0.098	1052.731	740.517
9.688	0.013	1052.126	739.607
10.702	0.330	1049.892	739.527
11.717	4.752	1055.064	764.874
12.731	12.391	1065.597	810.238
13.746	16.594	1070.289	834.506
14.761	16.964	1069.956	835.992
15.775	16.140	1068.577	830.785
16.790	15.135	1066.280	823.987
17.804	14.365	1065.034	819.164
18.819	13.996	1063.918	816.420
19.834	13.700	1062.949	814.152
20.848	13.461	1062.164	812.309
21.863	13.271	1061.222	810.583
22.877	13.135	1060.155	809.031
23.892	13.096	1059.621	808.358
24.907	13.198	1058.383	807.843
25.921	13.046	1058.315	806.976
26.936	13.085	1057.573	806.530
27.950	13.359	1055.925	806.537
28.965	13.245	1055.248	805.393
29.980	13.296	1054.156	804.735
30.994	13.188	1053.236	803.437
32.009	13.331	1051.898	803.039
33.023	13.293	1050.882	802.008
34.038	13.379	1049.735	801.480
35.053	13.354	1048.866	800.627
36.067	13.225	1048.476	799.630
37.082	13.269	1047.521	799.043
38.096	13.281	1046.887	798.549
39.111	13.347	1045.728	797.913
40.126	13.232	1045.011	796.740
41.140	13.058	1043.837	794.935
42.155	13.006	1042.583	793.663
43.169	13.025	1041.529	792.882
44.184	12.998	1040.349	791.782
45.199	13.107	1039.502	791.592
46.213	13.164	1038.296	790.877
47.228	13.142	1037.612	790.180
48.242	13.168	1036.467	789.359
49.257	13.091	1035.507	788.192
50.271	13.245	1034.297	787.936
51.286	13.176	1033.815	787.169
52.301	13.311	1032.559	786.787
53.315	13.312	1031.299	785.760
54.330	13.167	1030.875	784.681
55.344	13.117	1030.290	783.929
56.359	13.087	1029.221	782.906
57.374	13.143	1028.434	782.503
58.388	13.163	1027.249	781.625
59.403	13.142	1026.654	781.004
60.417	13.145	1025.757	780.265
61.432	13.003	1025.337	779.205
62.447	12.968	1024.598	778.413
63.461	13.033	1023.404	777.743
64.476	12.979	1022.604	776.811
65.490	13.095	1021.641	776.557
66.505	13.003	1020.871	775.470
67.520	13.046	1020.171	775.072
68.534	13.158	1019.331	774.891
69.549	13.001	1018.451	773.417
70.563	13.119	1018.046	773.593
71.578	12.959	1017.114	772.071
72.593	12.991	1016.654	771.800
73.607	12.968	1016.016	771.142
74.622	13.057	1015.198	770.868
75.636	12.941	1014.659	769.848
76.651	12.994	1013.799	769.375
77.666	12.994	1013.033	768.724
78.680	13.078	1012.368	768.544
79.695	13.115	1011.506	767.993
80.709	13.014	1011.492	767.443
81.724	13.169	1010.445	767.301
82.739	13.113	1009.994	766.634
83.753	13.263	1009.042	766.536
84.768	13.249	1008.115	765.701
85.782	13.389	1006.984	765.421
86.797	13.202	1006.664	764.247
87.812	13.139	1005.675	763.138
88.826	13.137	1004.729	762.341
89.841	13.290	1003.689	762.188
90.855	13.391	1002.455	761.650
91.870	13.234	1002.322	760.758
92.884	13.388	1001.114	760.483
93.899	13.322	1000.449	759.608
94.914	13.402	999.811	759.423
95.928	13.175	999.135	757.803
96.943	13.369	997.871	757.664
97.957	13.270	996.767	756.305
98.972	13.371	995.649	755.852
99.987	13.290	995.325	755.168
101.001	13.378	994.277	754.708
102.016	13.343	993.597	753.965
103.030	13.316	992.843	753.205
104.045	13.400	991.591	752.569
105.060	13.322	990.765	751.525
106.074	13.257	990.278	750.790
107.089	13.007	989.630	749.100
108.103	13.159	988.173	748.620
109.118	13.138	987.660	748.069
110.133	13.178	986.464	747.279
111.147	13.156	985.347	746.268
112.162	13.264	984.782	746.260
113.176	13.226	984.154	745.548
114.191	13.209	983.597	744.983
115.206	13.151	982.627	743.922
116.220	13.167	982.074	743.510
117.235	13.321	980.478	742.927
118.249	13.152	980.300	741.968
119.264	13.257	979.235	741.566
120.279	13.435	978.284	741.576
121.293	13.141	977.501	739.603
122.308	13.283	976.546	739.448
123.322	13.023	976.330	738.057
124.337	13.142	975.088	737.584
125.352	13.221	973.844	736.933
126.366	13.100	973.045	735.720
127.381	13.250	971.723	735.323
128.395	13.209	970.868	734.432
129.410	13.242	969.865	733.752
130.424	13.242	969.102	733.112
131.439	13.397	968.338	733.157
132.454	13.324	967.574	732.190
133.468	13.423	966.993	732.123
134.483	13.444	966.016	731.408
135.497	13.333	965.451	730.426
136.512	13.359	964.284	729.593
137.527	13.413	963.638	729.279
138.541	13.353	962.792	728.312
139.556	13.386	962.416	728.107
140.570	13.426	961.486	727.513
141.585	13.454	960.477	726.811
142.600	13.501	959.829	726.461
143.614	13.395	959.124	725.400
144.629	13.541	958.351	725.389
145.643	13.503	957.411	724.447
146.658	13.510	956.452	723.689
147.673	13.356	955.814	722.467
148.687	13.400	955.010	721.991
149.702	13.290	954.143	720.788
150.716	13.418	953.561	720.847
151.731	13.380	952.654	719.929
152.746	13.382	952.134	719.483
153.760	13.395	951.388	718.909
154.775	13.460	950.774	718.666
155.789	13.492	949.713	717.940
156.804	13.474	949.365	717.535
157.819	13.487	948.485	716.863
158.833	13.638	947.953	717.049
159.848	13.609	947.367	716.416
160.862	13.452	946.616	715.109
161.877	13.445	945.630	714.269
162.892	13.587	944.387	713.877
163.906	13.513	943.293	712.672
164.921	13.461	942.750	711.974
165.935	13.569	941.856	711.699
166.950	13.566	940.962	710.948
167.964	13.567	939.969	710.137
168.979	13.544	939.289	709.465
169.994	13.602	938.564	709.104
171.008	13.658	937.577	708.533
172.023	13.643	936.994	707.967
173.037	13.728	936.383	707.806
174.052	13.664	935.638	706.907
175.067	13.671	934.903	706.317
176.081	13.548	934.717	705.590
177.096	13.528	934.142	705.009
178.110	13.648	933.325	704.842
179.125	13.734	932.373	704.424
180.140	13.822	932.008	704.462
181.154	13.839	931.383	703.995
182.169	13.751	931.343	703.531
183.183	13.720	930.531	702.724
184.198	13.911	929.606	702.773
185.213	13.848	928.803	701.839
186.227	13.728	928.330	700.908
187.242	13.778	927.676	700.566
188.256	13.784	927.115	700.103
189.271	13.775	926.562	699.590
190.286	13.692	925.607	698.455
191.300	13.804	924.553	698.067
192.315	13.578	924.291	696.861
193.329	13.670	923.768	696.789
194.344	13.678	922.984	696.170
195.359	13.797	921.990	695.859
196.373	13.895	921.848	696.100
197.388	13.994	921.489	696.184
198.402	14.002	920.789	695.625
199.417	14.148	920.075	695.634
200.432	13.929	919.698	694.374
201.446	14.013	919.281	694.346
202.461	13.980	918.567	693.608
203.475	14.127	917.915	693.670
204.490	13.958	917.057	692.255
205.504	14.167	916.608	692.726
206.519	13.977	915.782	691.251
207.534	14.067	914.923	690.911
208.548	14.091	914.347	690.519
209.563	14.013	913.765	689.693
210.577	14.080	913.248	689.517
211.592	14.295	912.228	689.577
212.607	14.222	911.739	688.846
213.621	14.076	910.892	687.542
214.636	14.274	909.947	687.586
215.650	14.205	909.919	687.219
216.665	14.272	908.478	686.347
217.680	14.439	907.583	686.295
218.694	14.335	907.108	685.450
219.709	14.206	907.150	684.887
220.723	14.107	906.423	683.873
221.738	14.400	905.316	684.181
222.753	14.496	904.547	683.930
223.767	14.417	904.141	683.240
224.782	14.281	903.914	682.451
225.796	14.469	903.323	682.715
226.811	14.420	902.651	681.944
227.826	14.411	901.568	681.028
228.840	14.508	900.769	680.763
229.855	14.541	899.873	680.159
230.869	14.568	899.128	679.645
231.884	14.401	898.784	678.646
232.899	14.295	898.267	677.765
233.913	14.355	897.512	677.380
234.928	14.361	897.057	676.998
235.942	14.445	896.371	676.763
236.957	14.413	895.574	675.972
237.972	14.532	895.155	676.078
238.986	14.456	894.454	675.182
240.001	14.465	893.907	674.742
241.015	14.549	893.262	674.537
242.030	14.589	892.663	674.188
243.045	14.642	891.931	673.787
244.059	14.506	891.492	672.848
245.074	14.574	890.883	672.603
246.088	14.615	889.898	671.965
247.103	14.641	889.430	671.657
248.117	14.600	888.954	671.073
249.132	14.805	888.406	671.424
250.147	14.834	887.950	671.139
251.161	14.780	886.877	670.050
252.176	14.845	886.451	669.927
253.190	14.833	886.056	669.523
254.205	14.842	885.211	668.863
255.220	14.951	884.773	668.908
256.234	14.903	883.967	668.047
257.249	14.890	883.195	667.353
258.263	14.948	882.349	666.886
259.278	14.918	881.736	666.245
260.293	15.116	880.822	666.284
261.307	15.127	880.524	666.041
262.322	15.085	879.791	665.262
263.336	15.003	879.471	664.636
264.351	15.064	878.719	664.250
265.366	15.064	878.125	663.739
266.380	15.167	877.172	663.372
267.395	15.319	876.272	663.232
268.409	15.180	875.760	662.238
269.424	15.239	875.351	662.101
270.439	15.268	874.234	661.312
271.453	15.117	874.131	660.581
272.468	15.103	873.488	659.982
273.482	15.230	872.246	659.484
274.497	15.116	872.372	659.071
275.512	15.003	871.799	658.135
276.526	15.173	871.347	658.405
277.541	15.290	870.908	658.475
278.555	15.224	870.242	657.655
279.570	15.474	868.866	657.537
280.585	15.332	868.459	656.615
281.599	15.479	867.517	656.419
282.614	15.358	866.813	655.356
283.628	15.319	866.833	655.159
284.643	15.268	865.985	654.263
285.657	15.417	865.279	654.250
286.672	15.488	864.714	654.041
287.687	15.441	863.885	653.176
288.701	15.450	863.876	653.146
289.716	15.403	863.094	652.312
290.730	15.365	862.615	651.748
291.745	15.457	862.042	651.612
292.760	15.455	861.413	651.073
293.774	15.496	860.685	650.624
294.789	15.462	859.868	649.816
295.803	15.478	859.286	649.380
296.818	15.538	858.254	648.777
297.833	15.501	858.245	648.570
298.847	15.486	857.603	647.969
299.862	15.574	856.708	647.574
300.876	15.649	856.368	647.550
301.891	15.552	855.856	646.729
302.906	15.685	855.369	646.815
303.920	15.696	854.958	646.489
304.935	15.745	854.203	646.052
305.949	15.719	853.775	645.571
306.964	15.840	852.889	645.308
307.979	15.854	852.192	644.777
308.993	15.651	851.860	643.689
310.008	15.850	850.994	643.740
311.022	15.863	850.325	643.225
312.037	15.738	850.175	642.581
313.052	15.734	849.466	641.970
314.066	15.689	849.142	641.499
315.081	15.718	848.437	641.019
316.095	15.633	847.887	640.224
317.110	15.760	847.109	640.064
318.125	15.866	846.135	639.673
319.139	15.871	846.023	639.551
320.154	15.727	845.929	638.874
321.168	15.824	845.164	638.609
322.183	15.905	843.902	637.908
323.197	15.863	843.967	637.740
324.212	15.973	843.467	637.723
325.227	15.918	842.700	636.877
326.241	15.933	842.180	636.486
327.256	15.831	841.658	635.650
328.270	15.842	841.439	635.470
329.285	15.904	840.673	635.068
330.300	15.970	840.047	634.789
331.314	16.008	839.355	634.353
332.329	15.889	839.214	633.741
333.343	15.844	838.973	633.332
334.358	15.898	838.170	632.873
335.373	15.925	838.220	632.958
336.387	16.040	837.668	632.916
337.402	16.026	837.516	632.694
338.416	16.032	837.093	632.341
339.431	16.208	836.488	632.488
340.446	16.309	835.915	632.377
341.460	16.147	835.868	631.679
342.475	16.285	835.328	631.732
343.489	16.358	834.578	631.379
344.504	16.358	834.240	631.067
345.519	16.478	833.636	631.003
346.533	16.291	833.388	630.063
347.548	16.374	832.459	629.614
348.562	16.339	832.166	629.206
349.577	16.247	831.854	628.573
350.592	16.245	830.838	627.742
351.606	16.395	830.300	627.837
352.621	16.277	829.981	627.103
353.635	16.336	829.005	626.526
354.650	16.305	828.611	626.059
355.665	16.324	828.071	625.665
356.679	16.535	827.080	625.641
357.694	16.448	826.617	624.916
358.708	16.496	826.024	624.589
359.723	16.436	825.292	623.761
360.738	16.485	824.600	623.363
361.752	16.592	824.338	623.502
362.767	16.617	823.668	623.034
363.781	16.429	823.592	622.229
364.796	16.621	822.865	622.330
365.810	16.687	822.411	622.173
366.825	16.745	821.976	622.005
367.840	16.643	821.973	621.570
368.854	16.786	820.851	621.193
369.869	16.690	820.572	620.574
370.883	16.821	820.143	620.674
371.898	16.749	819.783	620.084
372.913	16.736	819.258	619.584
373.927	16.884	818.624	619.593
374.942	16.733	818.780	619.103
375.956	16.813	817.733	618.546
376.971	16.886	817.644	618.693
377.986	16.896	817.036	618.212
379.000	16.974	816.572	618.094
380.015	16.989	816.037	617.688
381.029	17.070	815.216	617.305
382.044	17.125	814.645	617.018
383.059	16.963	814.325	616.134
384.073	16.994	813.473	615.545
385.088	16.938	813.133	615.032
386.102	17.022	812.632	614.903
387.117	16.840	812.407	614.018
388.132	16.927	811.722	613.762
389.146	17.109	811.058	613.862
390.161	17.038	810.735	613.309
391.175	17.033	810.063	612.728
392.190	17.040	809.774	612.478
393.205	16.987	809.055	611.689
394.219	16.919	808.985	611.337
395.234	16.976	808.318	610.986
396.248	17.094	807.903	611.041
397.263	16.939	807.690	610.269
398.278	17.041	807.451	610.404
399.292	17.108	806.591	609.938
400.307	17.101	806.195	609.561
401.321	17.132	805.596	609.162
402.336	17.164	805.096	608.847
403.350	17.237	804.700	608.757
404.365	17.269	804.166	608.411
405.380	17.284	803.810	608.143
406.394	17.237	803.155	607.424
407.409	17.447	802.784	607.840
408.423	17.363	802.841	607.530
409.438	17.352	802.181	606.937
410.453	17.412	802.036	606.987
411.467	17.413	801.216	606.316
412.482	17.637	800.644	606.627
413.496	17.568	800.695	606.369
414.511	17.485	800.338	605.747
415.526	17.435	799.981	605.245
416.540	17.545	799.383	605.131
417.555	17.466	798.889	604.425
418.569	17.681	798.061	604.506
419.584	17.590	798.059	604.129
420.599	17.588	797.721	603.811
421.613	106.230	1286.912	1451.278
422.628	91.256	1358.186	1451.380
