DTS Sentinel unit serial number:	SN413079Multiplexer serial number:	ORYXHardware model number:	OX4-SRSoftware version number:	ORYX F/W v4.00 Oryx Data Collector v3.7.2.0data status	okinstallation	princeton_trtdifferential loss correction	single-endedforward channel	channel 1reverse channel	N/Adate	2019/09/18time	12:02:35forward acquisition time	60.00reverse acquisition time	0.00gamma	496.2192k internal	0.2323k external	0.2323temperature offset calibration	0.9981default loss term (dB/km)	0.3790temperature slope calibration	1.0000multiplexer offset coefficient	1.0000multiplexer slope coefficient	1.0000fibre end	0.00T internal ref (°C)	31.56T ext. ref 1 (°C)	0.49T ext. ref 2 (°C)	27.49length (m)	temperature (°C)	Stokes	anti-Stokes-747.200	-124.810	-0.143	-0.022
-746.185	-151.868	-0.295	0.022
-745.171	424.074	-0.109	0.238
-744.156	-74.313	-0.298	0.109
-743.142	-57.759	-0.384	-0.170
-742.127	236.558	-0.126	0.210
-741.112	-198.561	-0.100	-0.001
-740.098	-200.000	-0.032	0.226
-739.083	-200.000	-0.246	-0.000
-738.069	-96.841	0.228	0.061
-737.054	-101.989	0.104	0.025
-736.039	800.000	-0.029	-0.096
-735.025	202.415	-0.169	0.263
-734.010	-9.630	0.188	-0.127
-732.996	-62.744	-0.236	0.099
-731.981	97.333	-0.285	-0.330
-730.966	9.243	0.137	0.104
-729.952	800.000	0.028	0.116
-728.937	-78.280	0.179	0.062
-727.923	-130.018	-0.127	-0.018
-726.908	-31.284	0.133	-0.075
-725.894	-200.000	0.004	0.246
-724.879	79.661	-0.207	-0.224
-723.864	-112.027	-0.275	-0.056
-722.850	-200.000	-0.029	-0.145
-721.835	-200.000	0.021	-0.179
-720.821	1.575	0.132	-0.096
-719.806	-45.992	0.082	0.041
-718.791	425.335	0.223	0.484
-717.777	-141.182	-0.273	0.028
-716.762	-114.074	-0.314	-0.061
-715.748	85.274	-0.248	0.274
-714.733	-38.997	-0.304	-0.161
-713.718	-160.088	-0.189	-0.010
-712.704	-102.150	-0.230	0.056
-711.689	-97.744	-0.141	0.037
-710.675	105.302	0.056	0.066
-709.660	88.804	0.334	0.374
-708.645	-139.537	0.300	-0.032
-707.631	800.000	0.080	-0.245
-706.616	-136.291	-0.249	0.029
-705.602	165.319	-0.106	0.151
-704.587	-84.959	-0.102	-0.032
-703.572	-116.278	0.346	-0.065
-702.558	-20.808	0.111	0.069
-701.543	-7.919	0.250	-0.170
-700.529	-12.575	0.155	0.102
-699.514	-200.000	-0.008	0.409
-698.499	-72.361	-0.277	0.103
-697.485	-200.000	-0.001	-0.140
-696.470	-200.000	-0.046	-0.207
-695.456	-154.324	0.120	0.008
-694.441	158.730	-0.184	-0.258
-693.426	800.000	0.079	0.287
-692.412	-37.563	-0.149	-0.080
-691.397	-101.121	-0.319	-0.079
-690.383	-99.917	0.268	-0.067
-689.368	-200.000	-0.024	-0.498
-688.354	-45.617	-0.292	-0.146
-687.339	29.870	0.048	0.041
-686.324	-142.195	-0.425	-0.042
-685.310	-36.916	-0.394	-0.213
-684.295	-200.000	-0.004	0.060
-683.281	800.000	-0.050	0.193
-682.266	299.461	-0.217	0.403
-681.251	270.857	0.067	-0.118
-680.237	-200.000	-0.023	0.103
-679.222	580.451	0.026	0.064
-678.208	800.000	0.083	-0.309
-677.193	-31.785	-0.095	-0.053
-676.178	-200.000	0.025	-0.250
-675.164	4.742	-0.130	-0.096
-674.149	-74.560	-0.520	-0.188
-673.135	800.000	-0.087	-0.355
-672.120	109.333	0.099	-0.119
-671.105	748.085	0.014	0.037
-670.091	-25.251	-0.168	-0.100
-669.076	452.653	0.121	-0.269
-668.062	800.000	0.019	-0.072
-667.047	-40.231	-0.301	-0.158
-666.032	-200.000	0.031	-0.484
-665.018	-140.262	0.341	-0.036
-664.003	758.693	0.153	-0.418
-662.989	17.930	0.101	-0.081
-661.974	347.175	-0.126	0.249
-660.959	213.622	-0.147	0.234
-659.945	-133.771	0.175	0.022
-658.930	389.259	0.124	-0.258
-657.916	-135.821	-0.260	0.031
-656.901	8.260	0.243	-0.184
-655.886	289.356	-0.132	-0.241
-654.872	-160.992	-0.416	0.022
-653.857	800.000	0.063	-0.219
-652.843	-19.659	-0.400	0.249
-651.828	-31.173	-0.195	0.111
-650.814	208.118	-0.137	0.215
-649.799	160.694	0.104	0.146
-648.784	800.000	-0.117	0.510
-647.770	-72.230	0.118	-0.044
-646.755	346.775	-0.165	0.327
-645.741	-76.648	0.249	0.088
-644.726	-152.376	-0.127	0.009
-643.711	-71.908	0.353	-0.132
-642.697	-200.000	-0.023	-0.248
-641.682	435.855	-0.055	-0.121
-640.668	209.212	-0.087	0.137
-639.653	-45.770	-0.057	0.028
-638.638	800.000	0.092	0.341
-637.624	-200.000	0.042	0.241
-636.609	-200.000	0.052	-0.250
-635.595	-10.728	0.300	0.200
-634.580	-56.766	0.152	0.067
-633.565	800.000	-0.013	0.037
-632.551	-91.039	-0.075	-0.022
-631.536	29.286	0.211	-0.180
-630.522	-139.759	-0.151	-0.016
-629.507	367.201	0.109	-0.222
-628.492	166.942	-0.266	-0.379
-627.478	277.298	-0.085	-0.152
-626.463	7.957	-0.191	-0.144
-625.449	-121.598	-0.248	0.041
-624.434	-173.139	0.130	-0.004
-623.419	-114.077	0.108	0.021
-622.405	800.000	0.128	0.361
-621.390	83.684	0.159	-0.175
-620.376	639.624	-0.051	-0.130
-619.361	396.830	0.042	-0.087
-618.346	-110.449	0.382	0.080
-617.332	-200.000	-0.001	-0.019
-616.317	124.275	0.091	0.115
-615.303	39.868	-0.148	-0.134
-614.288	545.374	-0.059	-0.143
-613.273	-133.495	0.090	-0.011
-612.259	-15.105	0.251	0.162
-611.244	-18.829	-0.302	-0.189
-610.230	148.775	0.051	-0.069
-609.215	-200.000	-0.047	0.311
-608.201	76.323	0.167	0.178
-607.186	311.888	0.052	-0.097
-606.171	-92.031	-0.102	-0.029
-605.157	-40.201	-0.290	0.152
-604.142	-82.193	0.055	0.018
-603.128	6.942	0.181	0.136
-602.113	-200.000	0.007	-0.049
-601.098	190.409	-0.209	-0.315
-600.084	-200.000	0.005	-0.347
-599.069	-200.000	0.005	-0.092
-598.055	45.577	-0.238	0.221
-597.040	-171.423	-0.615	-0.021
-596.025	274.749	-0.124	0.221
-595.011	-200.000	-0.107	0.577
-593.996	-153.523	-0.314	-0.022
-592.982	-73.236	-0.462	0.170
-591.967	-200.000	0.021	0.240
-590.952	168.065	-0.226	-0.323
-589.938	-44.980	-0.168	-0.084
-588.923	371.883	-0.127	-0.259
-587.909	-138.336	-0.289	0.032
-586.894	620.660	0.052	0.132
-585.879	650.406	-0.031	-0.079
-584.865	800.000	-0.125	0.480
-583.850	-143.046	0.078	-0.008
-582.836	74.802	-0.051	0.054
-581.821	253.440	0.085	-0.146
-580.806	-200.000	0.024	-0.122
-579.792	-200.000	0.005	-0.343
-578.777	-200.000	-0.009	0.180
-577.763	-111.428	0.137	0.028
-576.748	-200.000	0.014	0.063
-575.733	419.450	-0.131	-0.282
-574.719	90.126	-0.137	-0.154
-573.704	268.475	0.165	-0.291
-572.690	136.969	0.036	0.047
-571.675	22.275	0.164	-0.135
-570.661	800.000	-0.066	-0.183
-569.646	-87.834	0.376	0.114
-568.631	61.364	-0.125	0.125
-567.617	-104.087	0.081	-0.019
-566.602	-111.026	-0.153	-0.032
-565.588	22.785	0.151	-0.124
-564.573	45.211	0.172	0.159
-563.558	-108.654	0.015	-0.003
-562.544	374.004	0.054	-0.110
-561.529	-67.747	-0.220	-0.086
-560.515	-16.800	-0.314	-0.199
-559.500	-76.258	0.280	-0.099
-558.485	-200.000	0.015	-0.108
-557.471	-72.307	-0.153	-0.057
-556.456	700.697	-0.111	0.292
-555.442	-200.000	-0.032	-0.150
-554.427	179.680	-0.148	-0.217
-553.412	578.607	0.039	-0.095
-552.398	259.127	-0.220	0.380
-551.383	498.728	0.055	0.128
-550.369	-200.000	0.014	0.328
-549.354	8.858	0.226	-0.171
-548.339	-109.159	-0.349	-0.074
-547.325	-149.423	-0.492	0.039
-546.310	-43.754	0.034	-0.017
-545.296	-200.000	0.016	0.087
-544.281	-113.511	-0.506	-0.099
-543.266	74.722	0.079	-0.083
-542.252	54.986	0.026	-0.025
-541.237	200.502	-0.096	0.148
-540.223	-78.605	0.380	0.130
-539.208	11.758	-0.137	-0.106
-538.193	-200.000	0.011	0.150
-537.179	22.550	0.081	0.067
-536.164	-67.235	-0.262	-0.103
-535.150	701.716	-0.095	0.250
-534.135	81.735	0.136	-0.148
-533.121	12.705	0.067	0.052
-532.106	800.000	0.125	-0.350
-531.091	800.000	0.038	-0.156
-530.077	-94.351	0.211	-0.058
-529.062	206.203	-0.155	0.242
-528.048	199.722	-0.073	-0.112
-527.033	155.040	-0.119	-0.164
-526.018	-82.362	0.173	-0.056
-525.004	-200.000	0.012	-0.078
-523.989	-200.000	-0.070	0.432
-522.975	800.000	0.037	-0.135
-521.960	18.522	0.167	-0.134
-520.945	475.819	-0.068	-0.153
-519.931	483.642	0.151	-0.344
-518.916	-200.000	0.008	0.269
-517.902	372.212	-0.116	0.236
-516.887	-123.898	0.273	0.043
-515.872	28.650	-0.085	-0.072
-514.858	-200.000	0.011	-0.079
-513.843	443.603	-0.075	-0.165
-512.829	84.001	0.195	-0.213
-511.814	-122.227	0.121	-0.020
-510.799	-199.610	0.204	0.001
-509.785	29.444	0.178	-0.151
-508.770	-80.499	-0.087	-0.029
-507.756	42.914	-0.244	0.223
-506.741	484.365	0.090	0.205
-505.726	-41.396	0.146	0.075
-504.712	-128.733	-0.440	0.062
-503.697	-124.491	0.296	0.046
-502.683	180.636	-0.106	-0.156
-501.668	800.000	-0.079	0.233
-500.653	579.041	0.047	-0.115
-499.639	-117.589	-0.246	-0.044
-498.624	-169.164	-0.060	-0.002
-497.610	31.415	-0.176	0.151
-496.595	-200.000	-0.004	-0.133
-495.581	-15.822	-0.082	-0.052
-494.566	-63.341	0.177	-0.073
-493.551	-200.000	-0.040	-0.252
-492.537	550.817	0.077	0.185
-491.522	-69.202	0.182	-0.070
-490.508	276.524	-0.186	-0.331
-489.493	74.227	-0.226	-0.237
-488.478	-81.059	-0.162	0.054
-487.464	-135.752	-0.175	-0.021
-486.449	-62.588	0.110	-0.046
-485.435	137.533	0.081	-0.105
-484.420	189.284	0.105	-0.158
-483.405	99.845	0.212	0.245
-482.391	258.205	-0.224	-0.386
-481.376	362.448	0.023	-0.046
-480.362	189.366	0.108	-0.162
-479.347	-200.000	0.049	0.385
-478.332	526.168	0.169	0.398
-477.318	800.000	0.006	-0.025
-476.303	800.000	0.126	-0.396
-475.289	-43.360	0.087	-0.044
-474.274	-200.000	0.013	0.201
-473.259	242.033	0.111	-0.186
-472.245	109.690	0.210	-0.252
-471.230	-143.955	-0.308	0.029
-470.216	-86.118	0.178	0.055
-469.201	-74.743	-0.393	0.141
-468.186	-200.000	-0.006	0.098
-467.172	81.390	0.142	-0.153
-466.157	-52.048	0.127	0.059
-465.143	455.181	-0.050	-0.110
-464.128	-187.814	0.149	0.002
-463.113	-200.000	-0.030	0.137
-462.099	152.499	-0.092	0.126
-461.084	-14.238	0.133	-0.086
-460.070	61.039	-0.039	-0.038
-459.055	-92.648	-0.250	0.070
-458.040	57.049	0.163	0.159
-457.026	-56.787	-0.210	-0.093
-456.011	-23.591	0.041	0.024
-454.997	47.925	-0.244	0.228
-453.982	-71.993	0.100	0.037
-452.968	-107.982	0.472	-0.102
-451.953	-87.262	0.092	-0.028
-450.938	7.391	0.133	-0.099
-449.924	-27.316	-0.420	-0.244
-448.909	-200.000	-0.000	0.164
-447.895	79.918	-0.138	0.148
-446.880	-123.651	0.240	-0.038
-445.865	-49.189	-0.176	-0.084
-444.851	85.330	0.187	-0.204
-443.836	-56.158	0.114	0.051
-442.822	93.932	0.294	-0.333
-441.807	800.000	0.036	0.105
-440.792	-200.000	0.056	0.317
-439.778	5.124	-0.184	-0.135
-438.763	-177.346	0.320	0.008
-437.749	186.979	-0.109	-0.162
-436.734	-43.102	0.055	-0.028
-435.719	-10.330	-0.093	0.061
-434.705	76.121	0.081	-0.085
-433.690	-187.637	0.573	-0.008
-432.676	800.000	0.050	-0.142
-431.661	-200.000	-0.001	-0.058
-430.646	121.323	-0.118	-0.147
-429.632	-149.086	0.354	0.028
-428.617	323.424	-0.034	-0.065
-427.603	-200.000	-0.027	-0.300
-426.588	-180.417	-0.195	0.004
-425.573	8.908	-0.191	0.144
-424.559	232.636	-0.090	-0.148
-423.544	-8.049	-0.100	-0.067
-422.530	-166.170	-0.148	0.006
-421.515	-200.000	0.059	0.361
-420.500	-125.370	-0.251	0.038
-419.486	-79.033	0.055	0.019
-418.471	56.576	0.117	-0.114
-417.457	-44.582	-0.198	-0.099
-416.442	-47.406	-0.163	-0.079
-415.428	-179.320	0.290	0.006
-414.413	90.376	0.045	0.050
-413.398	-99.979	-0.172	-0.043
-412.384	-180.761	-0.218	-0.004
-411.369	-70.477	0.347	0.131
-410.355	-200.000	-0.014	0.318
-409.340	800.000	-0.103	0.317
-408.325	-152.134	0.320	0.023
-407.311	800.000	-0.057	0.161
-406.296	0.041	0.321	0.228
-405.282	0.819	-0.109	-0.077
-404.267	44.358	-0.181	0.165
-403.252	-92.993	-0.229	0.064
-402.238	-200.000	-0.081	-0.389
-401.223	265.659	-0.136	-0.237
-400.209	79.068	0.132	0.141
-399.194	580.575	-0.068	-0.167
-398.179	-124.088	0.231	0.036
-397.165	-10.882	-0.176	0.116
-396.150	-58.953	0.274	-0.118
-395.136	622.539	-0.087	-0.219
-394.121	-200.000	-0.071	-0.514
-393.106	60.727	0.140	0.138
-392.092	-129.644	-0.201	-0.028
-391.077	-200.000	-0.019	0.155
-390.063	675.711	-0.073	-0.189
-389.048	-151.071	0.274	0.020
-388.033	472.987	0.066	0.148
-387.019	66.150	0.176	-0.178
-386.004	-144.898	-0.088	0.008
-384.990	-43.294	-0.232	0.117
-383.975	-12.550	-0.037	0.024
-382.960	-13.307	0.147	0.095
-381.946	72.074	0.251	0.260
-380.931	53.257	-0.300	0.287
-379.917	-200.000	0.084	0.375
-378.902	-200.000	0.018	-0.155
-377.888	630.716	0.096	0.242
-376.873	97.446	-0.268	0.306
-375.858	-87.611	-0.158	0.048
-374.844	273.829	-0.070	0.124
-373.829	74.640	-0.194	0.203
-372.815	645.944	0.040	0.103
-371.800	16.240	0.227	0.179
-370.785	-67.671	-0.206	0.080
-369.771	-200.000	0.008	0.039
-368.756	800.000	0.055	0.162
-367.742	-64.789	-0.455	0.183
-366.727	53.651	0.036	0.034
-365.712	-29.253	-0.104	-0.059
-364.698	800.000	-0.052	-0.211
-363.683	-181.020	0.180	0.004
-362.669	175.212	0.163	0.235
-361.654	-44.474	0.161	-0.080
-360.639	470.993	0.009	-0.021
-359.625	-200.000	0.009	0.337
-358.610	-102.699	-0.248	0.059
-357.596	-200.000	0.078	-0.412
-356.581	782.597	-0.023	-0.062
-355.566	-5.926	-0.228	-0.155
-354.552	-168.529	0.035	-0.001
-353.537	5.177	0.090	0.066
-352.523	-75.424	0.046	0.016
-351.508	-200.000	0.039	0.185
-350.493	419.959	-0.112	0.238
-349.479	586.471	-0.020	-0.049
-348.464	-21.675	-0.041	0.025
-347.450	800.000	0.075	0.233
-346.435	-200.000	0.024	0.143
-345.420	800.000	-0.008	0.031
-344.406	769.606	0.141	0.382
-343.391	-169.419	0.359	0.013
-342.377	38.566	0.207	0.183
-341.362	-43.809	-0.412	-0.206
-340.348	110.856	0.116	0.138
-339.333	-200.000	0.040	-0.350
-338.318	-60.934	-0.154	-0.065
-337.304	-200.000	0.010	0.224
-336.289	130.138	0.063	-0.080
-335.275	-17.842	-0.048	0.030
-334.260	206.992	-0.136	-0.210
-333.245	39.457	0.215	-0.191
-332.231	-112.319	0.362	-0.072
-331.216	800.000	0.094	-0.338
-330.202	-170.628	0.297	-0.010
-329.187	-200.000	0.040	-0.229
-328.172	-68.567	0.205	-0.079
-327.158	282.818	0.032	-0.056
-326.143	-200.000	-0.044	-0.194
-325.129	-103.795	-0.186	0.043
-324.114	64.502	0.117	-0.117
-323.099	141.632	-0.211	-0.277
-322.085	53.665	-0.042	-0.040
-321.070	-92.108	-0.009	0.002
-320.056	-94.220	-0.160	-0.044
-319.041	-99.368	-0.189	0.047
-318.026	98.632	0.123	-0.141
-317.012	-46.554	-0.161	-0.078
-315.997	800.000	-0.025	-0.088
-314.983	-93.605	0.257	-0.070
-313.968	-200.000	-0.039	0.175
-312.953	-80.362	-0.064	0.021
-311.939	-200.000	-0.071	-0.347
-310.924	-200.000	-0.006	-0.158
-309.910	-23.340	0.300	0.179
-308.895	-111.527	0.053	0.011
-307.880	-200.000	-0.054	0.378
-306.866	277.127	-0.171	-0.302
-305.851	67.674	-0.298	0.302
-304.837	-31.951	0.581	0.323
-303.822	90.924	0.194	0.216
-302.807	800.000	0.023	0.087
-301.793	-200.000	0.021	-0.280
-300.778	-114.531	-0.347	-0.066
-299.764	800.000	-0.019	0.066
-298.749	-200.000	-0.014	0.163
-297.735	-24.376	-0.050	0.030
-296.720	-155.120	-0.390	-0.025
-295.705	-44.510	-0.128	-0.064
-294.691	35.894	0.295	-0.258
-293.676	-52.885	0.328	-0.150
-292.662	392.115	0.098	0.203
-291.647	-200.000	0.054	0.246
-290.632	-65.823	0.319	0.126
-289.618	-19.989	-0.067	0.041
-288.603	81.886	-0.246	0.264
-287.589	128.131	-0.062	0.079
-286.574	141.751	-0.097	0.128
-285.559	55.308	0.073	0.070
-284.545	-138.263	0.171	0.019
-283.530	92.634	0.020	0.023
-282.516	800.000	0.029	0.119
-281.501	-45.368	0.249	0.122
-280.486	-83.713	0.112	-0.035
-279.472	800.000	-0.061	0.221
-278.457	7.213	-0.188	-0.139
-277.443	602.465	0.132	0.325
-276.428	-136.541	-0.172	0.020
-275.413	570.902	0.041	0.100
-274.399	3.623	-0.054	-0.039
-273.384	-121.403	-0.155	0.026
-272.370	286.337	-0.040	-0.072
-271.355	53.138	-0.206	-0.196
-270.340	800.000	0.025	0.105
-269.326	-200.000	0.010	-0.356
-268.311	82.877	0.035	-0.038
-267.297	-119.355	0.119	-0.020
-266.282	18.319	-0.093	0.073
-265.267	800.000	-0.097	-0.315
-264.253	-62.208	-0.276	0.114
-263.238	41.025	0.141	0.126
-262.224	800.000	0.026	0.081
-261.209	-37.545	-0.226	0.120
-260.195	-127.884	0.153	-0.022
-259.180	-31.089	0.104	-0.058
-258.165	800.000	-0.050	-0.175
-257.151	97.081	-0.222	-0.253
-256.136	223.647	0.084	0.134
-255.122	-91.116	0.228	0.065
-254.107	178.409	0.259	-0.374
-253.092	-124.004	-0.141	-0.022
-252.078	786.169	-0.060	0.164
-251.063	66.091	-0.049	-0.049
-250.049	12.939	-0.040	-0.031
-249.034	116.161	0.029	0.036
-248.019	384.602	-0.083	0.169
-247.005	229.170	-0.056	-0.090
-245.990	-126.256	-0.405	-0.060
-244.976	-200.000	-0.061	-0.343
-243.961	-200.000	0.036	0.243
-242.946	383.449	0.032	-0.065
-241.932	260.577	-0.061	0.104
-240.917	-110.537	0.325	-0.067
-239.903	-200.000	0.040	-0.186
-238.888	-34.100	0.293	-0.159
-237.873	-166.745	0.130	-0.005
-236.859	-101.112	-0.234	-0.057
-235.844	-193.315	-0.140	0.001
-234.830	-13.177	-0.144	0.092
-233.815	375.319	0.082	-0.165
-232.800	66.165	-0.143	-0.143
-231.786	-90.549	0.238	0.068
-230.771	182.946	-0.129	0.189
-229.757	-200.000	0.009	-0.132
-228.742	-114.307	0.219	-0.042
-227.727	-41.340	-0.120	-0.061
-226.713	800.000	0.050	-0.177
-225.698	-99.397	-0.114	0.028
-224.684	79.957	-0.163	-0.173
-223.669	800.000	-0.070	0.220
-222.655	165.329	-0.083	0.116
-221.640	800.000	-0.056	-0.170
-220.625	-68.738	0.089	-0.034
-219.611	-95.109	-0.295	-0.079
-218.596	106.311	0.070	0.082
-217.582	-86.022	-0.133	-0.041
-216.567	-104.709	0.203	0.046
-215.552	-33.581	-0.010	-0.005
-214.538	-137.192	-0.346	-0.039
-213.523	294.831	-0.116	0.210
-212.509	-200.000	0.055	0.286
-211.494	12.793	0.232	0.178
-210.479	77.691	-0.094	-0.099
-209.465	-200.000	-0.032	-0.196
-208.450	185.954	0.092	0.135
-207.436	-16.591	0.152	-0.095
-206.421	-200.000	-0.043	0.289
-205.406	-67.528	0.246	0.095
-204.392	-24.833	0.228	-0.134
-203.377	-159.662	0.363	-0.020
-202.363	-117.202	0.182	0.033
-201.348	-5.039	-0.174	0.118
-200.333	-200.000	-0.032	0.209
-199.319	210.309	0.120	-0.186
-198.304	-66.007	0.369	0.146
-197.290	-31.296	0.224	0.125
-196.275	800.000	-0.080	-0.233
-195.260	606.964	-0.058	0.143
-194.246	487.003	-0.064	-0.145
-193.231	230.148	0.098	0.158
-192.217	61.500	-0.064	-0.062
-191.202	-200.000	0.032	0.244
-190.187	-200.000	-0.041	-0.345
-189.173	438.675	0.075	0.162
-188.158	81.015	0.152	-0.162
-187.144	800.000	0.098	0.361
-186.129	67.940	-0.356	0.360
-185.114	174.442	-0.100	0.142
-184.100	-43.158	-0.142	0.071
-183.085	-197.161	0.310	0.002
-182.071	-43.308	-0.354	0.177
-181.056	-156.966	0.375	-0.023
-180.042	-94.798	0.259	0.069
-179.027	118.018	0.226	-0.275
-178.012	-106.817	-0.115	0.025
-176.998	-61.688	0.216	-0.089
-175.983	166.832	0.131	0.184
-174.969	-200.000	-0.011	-0.157
-173.954	202.746	0.068	0.104
-172.939	-106.507	0.150	-0.033
-171.925	-136.096	-0.365	0.042
-170.910	132.068	0.150	0.190
-169.896	-200.000	-0.057	0.343
-168.881	-174.223	-0.051	-0.001
-167.866	60.955	0.228	-0.223
-166.852	-30.166	0.478	-0.268
-165.837	-200.000	0.038	-0.424
-164.823	2.837	-0.242	0.174
-163.808	84.774	0.225	0.243
-162.793	800.000	0.060	-0.190
-161.779	-200.000	-0.007	-0.326
-160.764	800.000	-0.039	-0.133
-159.750	87.330	-0.224	-0.245
-158.735	-200.000	0.011	-0.189
-157.720	-76.786	-0.126	0.043
-156.706	-72.567	0.096	-0.035
-155.691	-200.000	-0.014	-0.092
-154.677	-160.280	-0.329	0.018
-153.662	2.008	-0.159	0.113
-152.647	-89.439	0.099	0.029
-151.633	-78.987	-0.282	-0.095
-150.618	-24.526	0.475	0.279
-149.604	800.000	-0.039	0.110
-148.589	89.666	0.182	-0.201
-147.574	505.691	0.024	-0.056
-146.560	-114.377	0.315	-0.060
-145.545	268.124	0.150	-0.260
-144.531	-153.146	0.198	0.014
-143.516	35.237	-0.233	0.201
-142.502	450.318	0.293	0.638
-141.487	-21.898	-0.117	-0.070
-140.472	800.000	0.095	-0.292
-139.458	71.626	0.180	-0.184
-138.443	529.914	0.146	0.339
-137.429	28.572	0.224	0.187
-136.414	381.104	-0.059	-0.120
-135.399	-117.996	0.158	0.028
-134.385	800.000	-0.109	-0.329
-133.370	27.592	-0.194	-0.161
-132.356	-18.502	-0.092	0.056
-131.341	131.275	0.304	0.385
-130.326	-59.670	-0.237	0.100
-129.312	508.202	-0.202	0.462
-128.297	-88.320	0.431	-0.127
-127.283	204.121	0.055	-0.084
-126.268	800.000	0.120	0.394
-125.253	22.682	-0.285	-0.230
-124.239	-126.738	-0.201	-0.029
-123.224	800.000	0.052	-0.141
-122.210	-168.440	-0.294	-0.011
-121.195	507.154	-0.008	0.019
-120.180	544.746	0.112	0.264
-119.166	64.629	0.092	0.091
-118.151	-44.417	0.269	0.133
-117.137	800.000	-0.056	0.229
-116.122	276.178	-0.137	-0.240
-115.107	-55.339	0.059	-0.026
-114.093	-200.000	-0.051	-0.458
-113.078	-200.000	-0.004	0.193
-112.064	770.722	-0.065	-0.175
-111.049	-96.070	0.244	0.064
-110.034	-26.330	-0.144	0.083
-109.020	800.000	-0.013	0.038
-108.005	164.056	-0.058	0.080
-106.991	-95.687	-0.020	0.005
-105.976	-92.633	0.328	0.091
-104.962	-37.648	-0.120	0.063
-103.947	-183.117	0.282	0.005
-102.932	-88.942	0.096	0.028
-101.918	318.512	0.056	-0.105
-100.903	53.919	-0.103	-0.098
-99.889	40.035	0.270	0.239
-98.874	-4.583	-0.040	0.027
-97.859	165.263	-0.236	-0.328
-96.845	177.110	-0.117	0.168
-95.830	-200.000	-0.019	-0.192
-94.816	-55.045	0.413	0.183
-93.801	-200.000	-0.011	-0.112
-92.786	219.326	0.204	0.322
-91.772	43.704	0.057	0.052
-90.757	355.254	-0.062	-0.122
-89.743	37.372	-0.242	0.211
-88.728	134.198	0.106	-0.135
-87.713	-89.800	-0.303	0.087
-86.699	800.000	0.089	0.245
-85.684	-124.066	-0.075	0.012
-84.670	-137.869	-0.216	0.024
-83.655	-200.000	0.028	-0.232
-82.640	16.648	0.350	0.272
-81.626	-110.276	0.192	-0.039
-80.611	-122.181	0.190	-0.031
-79.597	467.644	-0.120	0.265
-78.582	-79.735	0.176	0.058
-77.567	-200.000	0.029	0.253
-76.553	-54.416	-0.166	0.074
-75.538	-129.713	0.255	-0.035
-74.524	-38.919	0.362	-0.188
-73.509	117.323	-0.248	-0.300
-72.494	257.663	-0.177	-0.300
-71.480	-200.000	-0.010	0.222
-70.465	18.861	0.274	-0.216
-69.451	-137.075	-0.089	0.010
-68.436	-62.625	0.086	0.035
-67.422	-200.000	-0.015	0.117
-66.407	-107.870	0.137	-0.029
-65.392	-132.850	-0.478	-0.060
-64.378	12.788	0.101	0.076
-63.363	-200.000	0.008	-0.202
-62.349	-118.135	0.162	-0.028
-61.334	9.001	-0.838	-0.622
-60.319	44.954	0.767	0.695
-59.305	368.736	-0.375	-0.746
-58.290	245.263	0.531	0.879
-57.276	300.340	0.714	1.294
-56.261	-200.000	94.506	569.652
-55.246	516.229	1405.278	3228.598
-54.232	154.017	2603.431	3509.843
-53.217	111.947	2190.212	2600.739
-52.203	43.933	1634.608	1472.215
-51.188	35.106	1366.659	1176.898
-50.173	31.885	1324.153	1121.026
-49.159	54.539	1370.534	1298.354
-48.144	56.025	1387.623	1323.504
-47.130	35.355	1347.006	1161.294
-46.115	31.774	1329.353	1124.585
-45.100	31.483	1324.547	1118.735
-44.086	31.457	1322.164	1116.525
-43.071	31.444	1319.555	1114.200
-42.057	31.359	1317.671	1112.058
-41.042	31.384	1315.978	1110.731
-40.027	31.557	1314.305	1110.305
-39.013	31.524	1312.328	1108.395
-37.998	31.524	1310.676	1106.954
-36.984	31.527	1309.229	1105.706
-35.969	31.623	1306.837	1104.209
-34.954	31.638	1305.284	1102.941
-33.940	31.669	1304.090	1102.068
-32.925	31.610	1302.522	1100.356
-31.911	31.593	1301.375	1099.244
-30.896	31.711	1299.579	1098.375
-29.881	31.657	1298.293	1096.929
-28.867	31.785	1296.679	1096.267
-27.852	31.759	1295.785	1095.317
-26.838	31.742	1293.816	1093.508
-25.823	31.662	1292.674	1092.032
-24.809	31.542	1291.614	1090.395
-23.794	31.701	1289.697	1089.659
-22.779	31.574	1289.047	1088.332
-21.765	31.684	1287.112	1087.293
-20.750	31.632	1286.002	1086.011
-19.736	31.568	1284.768	1084.553
-18.721	31.477	1283.797	1083.165
-17.706	31.518	1282.371	1082.155
-16.692	31.444	1281.433	1080.891
-15.677	31.532	1280.006	1080.151
-14.663	31.529	1278.696	1078.990
-13.648	31.541	1277.588	1078.077
-12.633	31.436	1277.135	1077.046
-11.619	31.397	1276.519	1076.260
-10.604	31.516	1274.909	1075.549
-9.590	31.427	1274.156	1074.355
-8.575	31.491	1272.765	1073.511
-7.560	31.402	1272.512	1072.743
-6.546	31.482	1271.539	1072.336
-5.531	31.422	1270.609	1071.165
-4.517	31.548	1269.525	1070.930
-3.502	31.394	1268.894	1069.479
-2.487	31.554	1267.418	1069.102
-1.473	31.504	1264.152	1066.022
-0.458	30.388	1248.531	1046.519
0.556	25.347	1230.965	1007.112
1.571	21.262	1236.141	988.199
2.586	20.054	1250.302	992.513
3.600	19.087	1238.032	977.202
4.615	14.071	1163.678	891.595
5.629	5.215	1085.272	786.981
6.644	0.782	1065.060	750.295
7.659	0.375	1063.235	746.928
8.673	0.376	1061.733	745.814
9.688	0.428	1060.827	745.368
10.702	0.557	1058.702	744.446
11.717	5.753	1065.568	774.942
12.731	13.883	1076.154	823.020
13.746	17.122	1079.758	841.788
14.761	16.950	1079.176	840.405
15.775	16.279	1076.795	835.158
16.790	15.278	1074.748	828.554
17.804	14.550	1073.320	823.786
18.819	14.247	1072.637	821.693
19.834	13.884	1071.591	819.025
20.848	13.593	1070.660	816.807
21.863	13.519	1069.588	815.554
22.877	13.216	1068.966	813.516
23.892	13.238	1068.378	813.104
24.907	13.217	1067.550	812.298
25.921	13.311	1066.454	811.855
26.936	13.314	1065.764	811.275
27.950	13.368	1064.643	810.614
28.965	13.468	1063.289	810.001
29.980	13.492	1062.088	809.133
30.994	13.500	1061.241	808.453
32.009	13.534	1060.314	807.841
33.023	13.454	1059.158	806.501
34.038	13.513	1057.992	805.826
35.053	13.521	1057.136	805.143
36.067	13.421	1056.665	804.227
37.082	13.452	1055.791	803.642
38.096	13.518	1054.871	803.188
39.111	13.489	1054.033	802.341
40.126	13.512	1052.695	801.361
41.140	13.274	1052.064	799.661
42.155	13.224	1051.171	798.668
43.169	13.282	1049.881	797.898
44.184	13.274	1048.866	797.017
45.199	13.184	1048.167	795.982
46.213	13.350	1046.713	795.605
47.228	13.372	1045.360	794.611
48.242	13.338	1044.920	794.043
49.257	13.233	1044.402	793.075
50.271	13.361	1042.821	792.417
51.286	13.385	1042.291	792.063
52.301	13.423	1040.939	791.145
53.315	13.389	1040.111	790.287
54.330	13.356	1039.291	789.432
55.344	13.429	1038.345	788.993
56.359	13.298	1037.565	787.707
57.374	13.236	1036.786	786.748
58.388	13.301	1035.521	786.029
59.403	13.251	1034.963	785.301
60.417	13.280	1033.872	784.539
61.432	13.275	1033.152	783.902
62.447	13.089	1032.561	782.501
63.461	13.139	1031.700	782.016
64.476	13.215	1030.400	781.319
65.490	13.209	1029.997	780.920
66.505	13.201	1029.121	780.145
67.520	13.280	1028.323	779.847
68.534	13.229	1027.932	779.239
69.549	13.275	1027.277	778.889
70.563	13.281	1026.388	778.176
71.578	13.217	1025.462	777.106
72.593	13.208	1024.392	776.180
73.607	13.219	1024.227	776.041
74.622	13.128	1023.831	775.245
75.636	13.100	1023.202	774.568
76.651	13.131	1022.187	773.875
77.666	13.197	1021.543	773.631
78.680	13.167	1020.753	772.822
79.695	13.170	1020.471	772.556
80.709	13.181	1019.680	771.936
81.724	13.225	1018.673	771.315
82.739	13.253	1018.100	770.944
83.753	13.360	1016.920	770.478
84.768	13.407	1016.200	770.083
85.782	13.535	1015.241	769.882
86.797	13.450	1014.036	768.507
87.812	13.402	1013.658	767.928
88.826	13.467	1012.367	767.183
89.841	13.402	1011.760	766.359
90.855	13.454	1010.576	765.632
91.870	13.405	1009.805	764.756
92.884	13.495	1008.838	764.371
93.899	13.548	1008.093	763.982
94.914	13.525	1007.330	763.231
95.928	13.517	1006.759	762.694
96.943	13.444	1005.681	761.475
97.957	13.422	1004.796	760.632
98.972	13.526	1003.885	760.356
99.987	13.495	1002.980	759.463
101.001	13.444	1002.128	758.514
102.016	13.462	1001.201	757.829
103.030	13.462	1000.311	757.088
104.045	13.378	1000.057	756.444
105.060	13.427	998.637	755.527
106.074	13.501	997.490	754.929
107.089	13.396	996.931	753.961
108.103	13.321	996.058	752.894
109.118	13.363	995.176	752.351
110.133	13.338	994.386	751.574
111.147	13.257	993.633	750.571
112.162	13.276	992.794	749.957
113.176	13.422	991.911	749.885
114.191	13.474	990.510	748.994
115.206	13.293	990.407	748.033
116.220	13.418	989.408	747.773
117.235	13.393	988.850	747.174
118.249	13.476	987.479	746.448
119.264	13.374	986.926	745.501
120.279	13.383	986.201	744.930
121.293	13.403	985.341	744.304
122.308	13.483	984.299	743.809
123.322	13.473	983.454	743.063
124.337	13.444	982.609	742.226
125.352	13.407	981.432	741.107
126.366	13.357	980.452	740.077
127.381	13.492	979.359	739.790
128.395	13.396	978.848	738.909
129.410	13.402	977.934	738.181
130.424	13.543	977.042	738.071
131.439	13.430	976.151	736.832
132.454	13.510	975.571	736.682
133.468	13.457	974.744	735.756
134.483	13.581	973.440	735.260
135.497	13.542	972.868	734.588
136.512	13.452	971.617	733.179
137.527	13.482	971.051	732.822
138.541	13.509	970.558	732.502
139.556	13.433	970.019	731.697
140.570	13.423	969.246	731.003
141.585	13.636	967.872	730.841
142.600	13.598	966.938	729.907
143.614	13.701	965.925	729.531
144.629	13.672	965.429	728.963
145.643	13.710	964.342	728.243
146.658	13.588	963.556	727.050
147.673	13.462	962.836	725.892
148.687	13.543	961.781	725.386
149.702	13.667	960.962	725.248
150.716	13.454	960.411	723.835
151.731	13.486	959.455	723.191
152.746	13.627	958.481	723.008
153.760	13.625	957.939	722.526
154.775	13.654	957.597	722.330
155.789	13.674	956.762	721.726
156.804	13.794	955.938	721.560
157.819	13.638	955.683	720.628
158.833	13.802	954.918	720.699
159.848	13.816	954.130	720.100
160.862	13.771	953.128	719.085
161.877	13.760	952.412	718.433
162.892	13.640	951.740	717.345
163.906	13.686	950.634	716.644
164.921	13.625	949.697	715.611
165.935	13.707	948.913	715.314
166.950	13.687	947.767	714.299
167.964	13.792	946.762	713.931
168.979	13.627	946.126	712.677
169.994	13.729	945.551	712.619
171.008	13.787	944.444	711.970
172.023	13.953	943.818	712.147
173.037	13.910	943.001	711.282
174.052	13.765	942.034	709.873
175.067	13.787	941.777	709.710
176.081	13.754	941.270	709.125
177.096	13.758	940.448	708.457
178.110	13.849	939.804	708.298
179.125	13.831	939.153	707.671
180.140	13.931	938.722	707.709
181.154	13.839	938.504	707.089
182.169	13.945	937.794	706.944
183.183	14.065	937.152	706.908
184.198	14.036	936.396	706.148
185.213	14.073	935.843	705.827
186.227	13.954	934.967	704.601
187.242	13.980	934.372	704.198
188.256	14.079	933.416	703.835
189.271	13.922	933.256	702.990
190.286	13.898	932.344	702.136
191.300	13.940	931.639	701.723
192.315	13.813	930.768	700.469
193.329	13.711	930.525	699.794
194.344	14.011	929.449	700.185
195.359	14.057	928.828	699.848
196.373	14.014	928.345	699.244
197.388	14.116	927.696	699.120
198.402	14.149	927.479	699.034
199.417	14.265	926.737	698.900
200.432	14.258	926.192	698.397
201.446	14.182	926.007	697.878
202.461	14.371	925.342	698.105
203.475	14.308	924.766	697.348
204.490	14.221	923.870	696.246
205.504	14.265	922.582	695.398
206.519	14.298	922.022	695.052
207.534	14.327	921.506	694.721
208.548	14.249	920.717	693.740
209.563	14.309	920.228	693.559
210.577	14.286	919.288	692.693
211.592	14.389	918.840	692.723
212.607	14.451	917.891	692.207
213.621	14.357	917.190	691.223
214.636	14.431	916.520	690.966
215.650	14.247	916.166	689.876
216.665	14.463	914.940	689.786
217.680	14.520	914.337	689.506
218.694	14.632	913.830	689.524
219.709	14.527	913.332	688.652
220.723	14.414	912.443	687.457
221.738	14.482	911.948	687.303
222.753	14.578	911.008	686.931
223.767	14.556	910.535	686.421
224.782	14.590	910.111	686.182
225.796	14.636	909.461	685.818
226.811	14.607	909.051	685.329
227.826	14.672	908.103	684.823
228.840	14.631	907.596	684.211
229.855	14.564	906.384	682.961
230.869	14.539	905.908	682.441
231.884	14.630	905.524	682.461
232.899	14.537	904.302	681.101
233.913	14.503	903.722	680.466
234.928	14.634	903.145	680.505
235.942	14.502	902.725	679.592
236.957	14.586	901.958	679.296
237.972	14.671	901.037	678.885
238.986	14.604	900.740	678.331
240.001	14.738	899.775	678.090
241.015	14.754	899.066	677.557
242.030	14.618	899.079	676.958
243.045	14.674	898.341	676.570
244.059	14.809	897.517	676.436
245.074	14.705	897.405	675.869
246.088	14.746	896.248	675.105
247.103	14.709	895.989	674.701
248.117	14.771	895.444	674.479
249.132	14.774	894.772	673.924
250.147	14.895	893.838	673.652
251.161	15.087	893.369	674.010
252.176	14.965	892.263	672.626
253.190	15.049	891.596	672.399
254.205	15.000	891.480	672.057
255.220	15.000	891.054	671.677
256.234	15.117	890.095	671.364
257.249	15.068	889.378	670.567
258.263	15.089	888.590	669.996
259.278	15.165	888.250	669.984
260.293	15.127	887.660	669.329
261.307	15.213	886.748	668.926
262.322	15.275	886.388	668.842
263.336	15.152	885.309	667.478
264.351	15.170	884.675	667.014
265.366	15.294	884.210	667.096
266.380	15.290	883.523	666.505
267.395	15.318	882.615	665.871
268.409	15.273	882.217	665.333
269.424	15.257	881.688	664.811
270.439	15.220	880.702	663.865
271.453	15.281	879.611	663.223
272.468	15.212	879.722	662.977
273.482	15.173	879.224	662.388
274.497	15.283	878.437	662.171
275.512	15.269	877.811	661.586
276.526	15.538	877.287	662.193
277.541	15.514	876.622	661.538
278.555	15.362	876.457	660.756
279.570	15.480	875.568	660.491
280.585	15.566	874.559	660.007
281.599	15.569	874.013	659.549
282.614	15.509	873.241	658.676
283.628	15.426	873.035	658.137
284.643	15.521	872.016	657.679
285.657	15.509	871.421	657.125
286.672	15.473	871.325	656.856
287.687	15.683	870.252	656.810
288.701	15.571	870.242	656.304
289.716	15.735	869.139	656.054
290.730	15.660	868.707	655.379
291.745	15.668	868.193	654.964
292.760	15.648	867.573	654.363
293.774	15.727	866.924	654.122
294.789	15.689	866.065	653.269
295.803	15.632	865.475	652.543
296.818	15.634	864.858	652.029
297.833	15.733	864.105	651.785
298.847	15.729	863.751	651.447
299.862	15.581	863.267	650.449
300.876	15.943	861.989	650.831
301.891	15.939	861.470	650.364
302.906	15.875	861.105	649.784
303.920	16.014	860.401	649.733
304.935	15.953	860.056	649.180
305.949	15.886	859.689	648.585
306.964	15.920	858.715	647.925
307.979	15.922	858.291	647.556
308.993	16.011	857.800	647.470
310.008	16.026	856.935	646.816
311.022	15.978	856.839	646.501
312.037	15.756	856.500	645.339
313.052	15.816	855.709	644.914
314.066	15.996	854.975	644.995
315.081	16.137	853.972	644.718
316.095	15.938	853.822	643.790
317.110	15.903	853.220	643.142
318.125	15.727	852.955	642.214
319.139	15.917	852.365	642.438
320.154	15.876	852.090	642.017
321.168	15.964	851.624	641.945
322.183	16.013	850.560	641.272
323.197	16.020	850.098	640.895
324.212	16.056	849.657	640.644
325.227	15.919	849.180	639.707
326.241	15.915	848.820	639.364
327.256	16.117	848.136	639.559
328.270	16.179	847.195	639.024
329.285	16.179	846.747	638.630
330.300	16.168	846.078	638.027
331.314	16.177	845.607	637.651
332.329	16.102	845.381	637.140
333.343	16.081	845.042	636.749
334.358	16.190	844.352	636.586
335.373	16.213	844.309	636.582
336.387	16.329	843.388	636.270
337.402	16.334	843.559	636.362
338.416	16.264	843.256	635.811
339.431	16.399	842.466	635.668
340.446	16.422	842.224	635.518
341.460	16.326	841.726	634.723
342.475	16.585	841.076	635.150
343.489	16.524	840.690	634.571
344.504	16.478	840.195	633.970
345.519	16.522	839.777	633.765
346.533	16.526	839.591	633.584
347.548	16.455	839.132	632.912
348.562	16.359	838.423	631.964
349.577	16.446	837.397	631.458
350.592	16.425	837.058	631.071
351.606	16.453	836.552	630.736
352.621	16.533	835.543	630.218
353.635	16.576	834.862	629.810
354.650	16.564	834.329	629.308
355.665	16.821	833.415	629.517
356.679	16.575	833.199	628.383
357.694	16.569	832.696	627.926
358.708	16.561	832.031	627.339
359.723	16.591	831.387	626.909
360.738	16.577	830.852	626.400
361.752	16.623	830.313	626.107
362.767	16.524	830.144	625.558
363.781	16.737	828.992	625.424
364.796	16.862	828.403	625.385
365.810	16.630	828.885	624.835
366.825	16.945	828.022	625.293
367.840	16.880	827.320	624.468
368.854	16.874	826.891	624.066
369.869	16.868	826.851	623.957
370.883	16.819	826.195	623.226
371.898	16.814	825.958	622.976
372.913	16.892	825.136	622.588
373.927	16.827	824.712	621.974
374.942	16.895	824.508	622.013
375.956	17.097	824.001	622.318
376.971	17.025	823.540	621.649
377.986	17.090	823.253	621.614
379.000	17.050	822.357	620.738
380.015	17.115	822.107	620.733
381.029	17.032	821.469	619.892
382.044	17.153	820.734	619.723
383.059	17.201	820.140	619.397
384.073	17.207	819.496	618.876
385.088	17.111	819.210	618.255
386.102	17.088	818.473	617.562
387.117	17.248	817.869	617.632
388.132	17.132	817.554	616.920
389.146	17.173	816.996	616.591
390.161	17.126	816.496	615.991
391.175	17.140	816.352	615.877
392.190	17.194	815.412	615.311
393.205	17.279	815.022	615.267
394.219	17.231	814.780	614.857
395.234	17.194	814.071	614.135
396.248	17.235	813.588	613.864
397.263	17.119	813.328	613.194
398.278	17.180	812.908	613.043
399.292	17.091	812.755	612.553
400.307	17.265	812.129	612.656
401.321	17.023	811.980	611.614
402.336	17.226	811.175	611.687
403.350	17.270	810.817	611.519
404.365	17.314	810.579	611.443
405.380	17.194	810.164	610.645
406.394	17.357	809.100	610.375
407.409	17.514	808.827	610.678
408.423	17.524	808.581	610.475
409.438	17.556	807.874	610.003
410.453	17.593	807.318	609.660
411.467	17.538	807.143	609.278
412.482	17.559	806.783	609.027
413.496	17.653	806.354	608.984
414.511	17.686	806.437	609.110
415.526	17.666	805.771	608.484
416.540	17.601	805.204	607.767
417.555	17.812	804.376	607.841
418.569	17.870	803.805	607.563
419.584	17.538	803.769	606.302
420.599	17.528	803.538	606.037
421.613	108.640	1289.762	1461.813
422.628	93.603	1360.586	1461.932
