DTS Sentinel unit serial number:	SN413079Multiplexer serial number:	ORYXHardware model number:	OX4-SRSoftware version number:	ORYX F/W v4.00 Oryx Data Collector v3.7.2.0data status	okinstallation	princeton_trtdifferential loss correction	single-endedforward channel	channel 1reverse channel	N/Adate	2019/09/15time	16:10:35forward acquisition time	60.00reverse acquisition time	0.00gamma	496.2192k internal	0.2291k external	0.2291temperature offset calibration	0.9936default loss term (dB/km)	0.3790temperature slope calibration	1.0000multiplexer offset coefficient	1.0000multiplexer slope coefficient	1.0000fibre end	0.00T internal ref (°C)	43.20T ext. ref 1 (°C)	5.40T ext. ref 2 (°C)	40.80length (m)	temperature (°C)	Stokes	anti-Stokes-747.200	-22.352	-0.200	-0.124
-746.185	-200.000	-0.003	0.025
-745.171	-40.992	0.031	0.016
-744.156	127.469	-0.195	0.253
-743.142	-14.449	0.063	0.041
-742.127	287.822	0.142	0.263
-741.112	-103.088	0.389	-0.094
-740.098	183.256	0.109	0.164
-739.083	92.867	0.143	-0.165
-738.069	-20.536	-0.066	-0.041
-737.054	-200.000	-0.002	-0.147
-736.039	332.736	0.039	0.078
-735.025	102.077	0.145	0.174
-734.010	800.000	0.095	-0.311
-732.996	-151.890	-0.062	-0.005
-731.981	-27.854	-0.221	-0.131
-730.966	800.000	-0.096	0.304
-729.952	-8.729	0.239	-0.164
-728.937	-200.000	-0.016	0.092
-727.923	-100.572	0.306	-0.078
-726.908	94.704	0.076	-0.088
-725.894	-44.992	0.042	0.021
-724.879	7.627	0.137	0.105
-723.864	-200.000	-0.027	-0.151
-722.850	84.345	-0.169	-0.190
-721.835	-200.000	0.008	0.273
-720.821	191.474	0.290	-0.447
-719.806	-200.000	0.006	-0.201
-718.791	190.075	0.190	0.292
-717.777	533.370	-0.027	0.066
-716.762	249.834	-0.023	0.041
-715.748	-14.526	0.123	-0.081
-714.733	-200.000	0.026	-0.209
-713.718	45.126	-0.098	0.092
-712.704	-200.000	0.050	0.409
-711.689	-137.286	0.358	-0.042
-710.675	1.373	0.182	0.133
-709.660	19.651	-0.059	0.049
-708.645	10.962	0.144	0.112
-707.631	29.531	0.052	0.045
-706.616	167.222	0.127	-0.185
-705.602	17.778	-0.265	-0.215
-704.587	-24.422	-0.270	-0.165
-703.572	-95.706	0.168	0.046
-702.558	-1.065	-0.077	0.056
-701.543	-132.172	0.162	0.022
-700.529	12.099	0.208	-0.163
-699.514	-61.983	-0.011	0.005
-698.499	-200.000	-0.075	0.494
-697.485	191.146	-0.155	0.238
-696.470	290.472	0.079	-0.147
-695.456	4.883	-0.250	-0.188
-694.441	175.920	0.091	0.135
-693.426	40.155	0.175	0.161
-692.412	-200.000	0.016	0.137
-691.397	-108.210	0.110	-0.024
-690.383	428.761	-0.055	-0.120
-689.368	-89.183	-0.136	0.041
-688.354	32.180	0.198	0.174
-687.339	-127.887	0.110	0.016
-686.324	-200.000	-0.015	-0.391
-685.310	135.964	-0.231	-0.308
-684.295	-200.000	0.032	-0.186
-683.281	141.311	0.079	-0.106
-682.266	800.000	-0.002	0.006
-681.251	-60.245	-0.230	-0.100
-680.237	-26.562	0.308	-0.184
-679.222	-44.168	-0.178	0.091
-678.208	-53.647	0.048	-0.023
-677.193	-200.000	-0.016	-0.213
-676.178	-158.792	-0.379	-0.022
-675.164	112.088	0.098	0.121
-674.149	-2.093	-0.109	-0.078
-673.135	-136.166	0.567	0.068
-672.120	-141.929	0.201	-0.020
-671.105	34.824	-0.190	0.170
-670.091	315.284	-0.045	0.086
-669.076	-5.686	0.160	0.112
-668.062	-43.785	0.257	0.132
-667.047	126.180	0.161	-0.208
-666.032	-139.391	-0.479	-0.052
-665.018	463.829	0.108	0.247
-664.003	-200.000	-0.006	-0.095
-662.989	-29.150	0.222	-0.130
-661.974	318.882	0.112	-0.217
-660.959	-142.654	0.089	-0.009
-659.945	-42.646	0.221	0.115
-658.930	-131.527	-0.078	-0.011
-657.916	34.999	-0.119	0.106
-656.901	800.000	0.049	0.149
-655.886	-200.000	0.028	0.267
-654.872	-75.988	-0.134	0.049
-653.857	-24.937	0.178	-0.108
-652.843	347.278	0.052	-0.105
-651.828	-6.293	0.044	-0.031
-650.814	39.126	-0.010	0.009
-649.799	27.477	-0.135	0.116
-648.784	44.879	0.128	-0.120
-647.770	6.592	0.165	-0.125
-646.755	39.309	0.129	0.118
-645.741	-105.630	-0.176	0.041
-644.726	-156.512	-0.334	0.021
-643.711	-3.446	-0.414	-0.294
-642.697	543.820	0.102	0.248
-641.682	-44.197	-0.042	0.022
-640.668	70.880	0.294	-0.311
-639.653	-158.974	-0.123	0.007
-638.638	-82.623	-0.210	-0.069
-637.624	82.093	0.129	-0.142
-636.609	268.036	-0.061	-0.108
-635.595	-119.644	-0.392	0.069
-634.580	228.559	-0.097	0.161
-633.565	662.311	-0.133	-0.350
-632.551	-158.092	0.106	0.006
-631.536	780.652	-0.031	-0.086
-630.522	638.867	-0.052	0.134
-629.507	19.290	0.099	-0.081
-628.492	-45.521	-0.217	-0.110
-627.478	498.499	-0.041	-0.096
-626.463	-108.095	0.210	0.046
-625.449	800.000	-0.079	-0.230
-624.434	-57.861	-0.108	-0.048
-623.419	382.453	-0.032	-0.067
-622.405	501.656	0.059	-0.140
-621.390	-89.077	-0.083	0.025
-620.376	-153.483	0.223	-0.016
-619.361	-200.000	-0.087	-0.000
-618.346	-200.000	0.069	-0.577
-617.332	-3.636	0.295	0.209
-616.317	-200.000	-0.024	-0.109
-615.303	-77.506	0.237	0.084
-614.288	-61.616	0.071	-0.030
-613.273	250.735	-0.008	0.014
-612.259	120.532	-0.008	-0.010
-611.244	61.437	-0.100	-0.101
-610.230	-58.114	0.142	-0.063
-609.215	800.000	-0.016	-0.055
-608.201	-145.910	-0.172	0.016
-607.186	75.993	-0.051	-0.055
-606.171	-200.000	-0.024	0.187
-605.157	32.124	-0.212	0.186
-604.142	-153.591	-0.234	0.016
-603.128	-39.203	-0.204	0.109
-602.113	-200.000	0.003	-0.100
-601.098	-21.060	-0.083	0.052
-600.084	-200.000	0.049	0.431
-599.069	-25.171	-0.344	-0.207
-598.055	111.218	-0.167	0.205
-597.040	-149.903	0.412	-0.033
-596.025	-42.214	0.337	0.175
-595.011	-92.598	0.392	0.112
-593.996	-37.052	0.078	0.042
-592.982	-157.220	-0.373	0.023
-591.967	414.625	-0.067	-0.145
-590.952	228.203	-0.046	-0.077
-589.938	-47.570	-0.038	0.019
-588.923	25.641	0.283	0.240
-587.909	225.512	0.085	-0.140
-586.894	-39.811	0.241	-0.128
-585.879	499.651	-0.128	0.300
-584.865	42.613	-0.269	-0.249
-583.850	-21.921	0.185	-0.114
-582.836	-200.000	-0.043	-0.226
-581.821	-200.000	0.092	-0.475
-580.806	-32.470	-0.035	-0.020
-579.792	-69.239	-0.532	-0.208
-578.777	-159.840	0.502	-0.028
-577.763	-6.009	-0.026	0.018
-576.748	-156.463	-0.201	0.013
-575.733	-108.253	-0.079	-0.017
-574.719	22.008	0.203	0.169
-573.704	21.027	0.343	0.283
-572.690	-76.529	0.248	0.089
-571.675	-30.137	-0.232	0.134
-570.661	56.356	0.049	0.049
-569.646	332.988	0.093	-0.184
-568.631	138.889	-0.153	-0.205
-567.617	-126.919	-0.193	-0.029
-566.602	-3.158	-0.204	0.145
-565.588	-79.993	0.080	-0.027
-564.573	-200.000	-0.007	0.073
-563.558	-82.415	0.238	-0.079
-562.544	506.453	-0.096	0.226
-561.529	-11.580	0.231	0.155
-560.515	800.000	-0.010	0.033
-559.500	-66.749	-0.205	0.083
-558.485	-94.953	-0.107	0.030
-557.471	-31.302	-0.091	-0.052
-556.456	-62.284	0.197	0.083
-555.442	16.467	-0.141	0.113
-554.427	-200.000	-0.010	-0.140
-553.412	35.169	0.135	0.121
-552.398	154.909	-0.063	-0.088
-551.383	435.514	0.049	-0.108
-550.369	-200.000	0.038	0.206
-549.354	-53.866	-0.288	-0.134
-548.339	-116.466	0.370	-0.069
-547.325	193.138	0.114	0.175
-546.310	64.819	0.292	-0.299
-545.296	-95.443	-0.406	-0.111
-544.281	105.881	0.056	0.067
-543.266	-190.573	0.229	0.003
-542.252	92.664	0.060	0.069
-541.237	-20.464	-0.208	-0.130
-540.223	-67.882	-0.298	-0.118
-539.208	182.041	0.083	-0.124
-538.193	-82.802	0.115	-0.038
-537.179	109.622	0.082	0.099
-536.164	-139.026	-0.446	-0.049
-535.150	384.687	0.026	0.054
-534.135	56.456	-0.099	-0.098
-533.121	98.258	-0.199	-0.233
-532.106	-133.348	-0.341	0.044
-531.091	227.019	-0.180	0.298
-530.077	-200.000	-0.021	0.168
-529.062	-128.459	-0.243	-0.035
-528.048	-200.000	-0.027	-0.281
-527.033	347.162	-0.080	0.159
-526.018	-200.000	-0.029	0.209
-525.004	-80.801	0.144	0.049
-523.989	800.000	-0.074	0.245
-522.975	354.283	0.018	0.036
-521.960	-14.229	0.290	-0.190
-520.945	172.794	0.254	-0.371
-519.931	800.000	0.014	0.046
-518.916	800.000	-0.021	0.076
-517.902	-163.207	-0.259	-0.013
-516.887	20.633	0.115	-0.094
-515.872	-167.999	0.258	0.010
-514.858	-86.619	0.403	0.125
-513.843	-14.577	0.152	-0.099
-512.829	69.899	-0.160	-0.168
-511.814	-4.786	-0.166	-0.116
-510.799	-70.930	0.161	0.062
-509.785	-49.470	0.304	0.147
-508.770	-200.000	-0.019	-0.169
-507.756	-98.904	0.120	0.031
-506.741	18.736	-0.191	-0.155
-505.726	-83.629	-0.290	0.094
-504.712	274.643	0.068	0.122
-503.697	451.241	-0.042	-0.093
-502.683	45.683	0.138	-0.130
-501.668	225.820	-0.167	0.274
-500.653	197.349	-0.095	0.148
-499.639	87.848	0.073	0.082
-498.624	39.495	0.206	-0.187
-497.610	-115.543	-0.177	-0.034
-496.595	-200.000	0.064	-0.301
-495.581	-73.420	-0.225	-0.083
-494.566	116.999	0.046	-0.058
-493.551	-152.808	-0.213	-0.015
-492.537	-86.825	0.284	0.088
-491.522	-100.745	0.245	0.061
-490.508	-47.614	-0.228	0.112
-489.493	-4.584	-0.032	-0.022
-488.478	244.503	0.092	-0.157
-487.464	-200.000	-0.022	-0.324
-486.449	1.231	0.101	-0.074
-485.435	-200.000	-0.045	-0.470
-484.420	-200.000	-0.015	-0.200
-483.405	65.170	0.308	0.316
-482.391	373.933	0.123	-0.254
-481.376	-187.558	-0.121	0.002
-480.362	-31.294	0.208	0.119
-479.347	-31.990	0.169	0.096
-478.332	175.400	-0.142	0.208
-477.318	-200.000	-0.017	-0.270
-476.303	250.310	-0.093	0.160
-475.289	-116.135	0.195	-0.037
-474.274	-68.971	-0.103	0.040
-473.259	130.464	0.072	-0.094
-472.245	-25.266	-0.200	0.120
-471.230	-20.743	-0.017	-0.011
-470.216	339.864	0.066	-0.130
-469.201	-200.000	0.004	-0.116
-468.186	-92.705	0.140	0.040
-467.172	80.414	-0.395	0.431
-466.157	800.000	-0.039	0.139
-465.143	515.328	0.032	0.075
-464.128	1.618	0.069	0.051
-463.113	370.072	0.141	0.290
-462.099	-70.204	0.329	0.126
-461.084	192.108	-0.057	-0.088
-460.070	10.845	-0.210	0.162
-459.055	-65.862	-0.219	0.089
-458.040	68.868	-0.149	0.155
-457.026	152.020	0.065	0.090
-456.011	-200.000	-0.006	0.132
-454.997	157.544	-0.188	0.263
-453.982	-200.000	0.008	0.119
-452.968	497.383	0.075	-0.176
-451.953	-134.062	0.242	0.030
-450.938	-72.709	0.243	0.091
-449.924	-38.213	-0.246	-0.132
-448.909	-62.503	-0.514	0.216
-447.895	-61.722	-0.103	0.044
-446.880	161.524	-0.034	0.049
-445.865	423.371	0.056	-0.122
-444.851	-140.208	0.423	-0.045
-443.836	-154.054	-0.304	0.021
-442.822	198.418	0.139	0.216
-441.807	95.340	0.259	0.298
-440.792	-43.677	0.082	0.042
-439.778	436.495	-0.160	0.353
-438.763	-200.000	0.057	-0.302
-437.749	-71.281	-0.140	-0.053
-436.734	-200.000	0.048	-0.223
-435.719	20.319	-0.279	0.228
-434.705	333.327	0.198	-0.387
-433.690	-9.076	0.170	0.115
-432.676	-65.998	-0.435	-0.176
-431.661	800.000	0.085	0.324
-430.646	47.508	0.099	0.093
-429.632	-200.000	0.002	0.309
-428.617	-68.145	0.204	0.080
-427.603	48.749	0.138	0.130
-426.588	277.213	-0.077	0.138
-425.573	169.999	-0.129	0.186
-424.559	-165.243	-0.216	0.010
-423.544	0.464	0.153	0.110
-422.530	-78.465	-0.059	0.020
-421.515	-69.288	-0.139	0.054
-420.500	92.907	-0.145	-0.165
-419.486	149.002	0.178	-0.244
-418.471	-200.000	0.009	-0.413
-417.457	167.377	0.209	-0.299
-416.442	9.218	-0.142	-0.108
-415.428	-70.601	-0.178	-0.068
-414.413	-39.622	0.291	0.154
-413.398	800.000	-0.069	-0.285
-412.384	38.078	-0.241	0.217
-411.369	-131.158	-0.416	-0.056
-410.355	588.409	0.190	0.473
-409.340	-96.300	0.075	-0.020
-408.325	-41.267	0.307	0.160
-407.311	-200.000	-0.004	0.050
-406.296	800.000	0.136	0.420
-405.282	-21.982	-0.161	0.099
-404.267	117.735	-0.117	-0.145
-403.252	-58.121	-0.112	0.049
-402.238	800.000	0.074	0.239
-401.223	329.402	0.101	-0.196
-400.209	-126.244	-0.297	-0.045
-399.194	800.000	-0.079	-0.328
-398.179	-53.327	0.167	0.077
-397.165	31.693	0.204	-0.177
-396.150	-200.000	-0.020	-0.143
-395.136	6.924	-0.218	0.164
-394.121	-172.860	-0.042	0.001
-393.106	5.777	0.087	-0.065
-392.092	-94.749	-0.119	0.033
-391.077	534.310	0.064	0.154
-390.063	-200.000	0.003	-0.309
-389.048	-200.000	-0.026	-0.164
-388.033	800.000	-0.128	-0.375
-387.019	-55.889	0.135	0.061
-386.004	465.395	0.024	-0.055
-384.990	800.000	0.090	0.255
-383.975	800.000	0.062	-0.253
-382.960	406.232	0.080	0.171
-381.946	-132.107	-0.208	0.027
-380.931	-200.000	-0.017	-0.269
-379.917	-200.000	0.018	0.259
-378.902	-149.287	-0.146	-0.012
-377.888	-44.996	-0.138	-0.069
-376.873	168.652	-0.086	0.124
-375.858	232.147	-0.175	-0.290
-374.844	-7.823	0.236	0.161
-373.829	55.726	-0.084	0.082
-372.815	-200.000	0.019	0.084
-371.800	-106.910	-0.188	-0.042
-370.785	-75.803	-0.214	0.077
-369.771	-200.000	0.037	-0.179
-368.756	-31.759	0.239	-0.135
-367.742	-106.843	0.364	-0.082
-366.727	-186.382	0.193	0.003
-365.712	-121.544	0.129	-0.022
-364.698	800.000	0.029	-0.127
-363.683	449.451	-0.089	-0.198
-362.669	169.543	0.166	0.239
-361.654	665.209	0.108	-0.280
-360.639	-200.000	-0.006	0.159
-359.625	-200.000	0.034	-0.247
-358.610	25.205	0.116	-0.097
-357.596	48.669	0.027	-0.025
-356.581	-200.000	-0.012	0.055
-355.566	28.142	0.056	-0.047
-354.552	-146.789	-0.138	-0.012
-353.537	28.506	0.072	-0.062
-352.523	-104.628	0.225	-0.052
-351.508	-111.772	-0.205	0.042
-350.493	643.897	-0.133	-0.342
-349.479	-21.296	-0.075	-0.046
-348.464	-200.000	-0.009	0.141
-347.450	800.000	0.107	-0.298
-346.435	51.608	0.170	-0.163
-345.420	680.880	0.082	0.215
-344.406	-63.768	-0.103	0.043
-343.391	135.171	0.250	-0.327
-342.377	-62.348	0.195	-0.082
-341.362	-49.766	0.195	0.093
-340.348	14.232	0.251	0.197
-339.333	76.961	-0.107	-0.114
-338.318	-112.184	0.174	-0.035
-337.304	287.351	0.172	0.313
-336.289	-111.355	-0.220	0.045
-335.275	139.240	-0.145	0.193
-334.260	-122.739	-0.186	0.030
-333.245	800.000	-0.040	-0.117
-332.231	267.780	0.108	0.190
-331.216	-11.282	0.164	0.109
-330.202	703.125	0.063	-0.169
-329.187	-200.000	0.032	0.201
-328.172	184.101	-0.031	-0.047
-327.158	-39.433	0.298	-0.157
-326.143	324.104	-0.089	-0.172
-325.129	-104.482	-0.361	0.084
-324.114	124.051	-0.063	-0.080
-323.099	-200.000	-0.011	0.137
-322.085	199.556	0.145	0.223
-321.070	-200.000	0.030	-0.196
-320.056	-200.000	0.055	-0.322
-319.041	-106.642	-0.260	0.058
-318.026	-67.626	0.196	0.077
-317.012	-191.763	0.089	0.001
-315.997	-59.297	-0.302	0.131
-314.983	581.108	-0.178	0.438
-313.968	-200.000	-0.022	0.301
-312.953	-200.000	0.023	-0.177
-311.939	-153.499	-0.277	-0.019
-310.924	16.166	0.101	-0.080
-309.910	-200.000	-0.003	-0.031
-308.895	-94.618	0.005	0.001
-307.880	-174.478	-0.169	0.005
-306.866	72.029	0.063	-0.066
-305.851	-187.821	0.191	0.003
-304.837	45.757	0.239	0.223
-303.822	-27.880	0.037	0.022
-302.807	800.000	-0.049	0.140
-301.793	105.313	0.222	0.264
-300.778	141.997	0.046	-0.061
-299.764	-35.099	0.149	0.082
-298.749	-25.377	0.278	-0.165
-297.735	69.985	0.137	0.143
-296.720	800.000	0.060	0.183
-295.705	-32.774	0.310	-0.174
-294.691	-63.936	0.038	-0.016
-293.676	800.000	0.008	0.034
-292.662	57.635	0.206	0.203
-291.647	115.772	0.254	0.313
-290.632	16.516	0.126	-0.101
-289.618	-118.617	-0.312	-0.055
-288.603	-200.000	-0.038	0.351
-287.589	92.673	-0.099	-0.113
-286.574	660.210	-0.094	-0.245
-285.559	-137.718	0.069	-0.008
-284.545	97.858	-0.181	0.210
-283.530	-52.810	-0.400	-0.185
-282.516	62.636	0.090	-0.091
-281.501	-62.278	0.198	0.083
-280.486	298.466	0.151	0.279
-279.472	232.513	-0.084	0.138
-278.457	544.367	-0.012	0.030
-277.443	-162.671	-0.352	0.017
-276.428	-113.066	-0.205	-0.041
-275.413	-200.000	0.021	-0.187
-274.399	130.463	-0.091	-0.118
-273.384	800.000	-0.034	-0.106
-272.370	455.168	-0.050	-0.111
-271.355	421.656	-0.038	-0.082
-270.340	-4.441	-0.244	-0.170
-269.326	249.793	-0.210	0.359
-268.311	697.586	-0.098	0.259
-267.297	800.000	-0.046	0.191
-266.282	-17.073	0.176	-0.112
-265.267	-196.214	0.408	-0.003
-264.253	118.558	-0.097	-0.120
-263.238	88.542	0.126	0.141
-262.224	255.904	-0.006	0.010
-261.209	-200.000	0.022	0.236
-260.195	455.689	0.077	0.171
-259.180	211.890	0.108	-0.172
-258.165	-2.020	-0.211	-0.149
-257.151	-122.545	0.080	0.013
-256.136	-175.908	-0.377	-0.010
-255.122	-200.000	-0.005	-0.335
-254.107	-122.033	-0.311	0.051
-253.092	-200.000	0.011	0.444
-252.078	21.061	0.165	-0.135
-251.063	800.000	-0.067	0.192
-250.049	-28.234	-0.027	-0.015
-249.034	-17.636	-0.282	-0.178
-248.019	397.289	0.032	-0.068
-247.005	41.627	0.078	0.071
-245.990	-153.470	-0.064	0.004
-244.976	-200.000	0.021	-0.221
-243.961	-101.933	0.484	0.117
-242.946	-69.866	0.150	-0.057
-241.932	-4.825	-0.082	0.057
-240.917	253.970	-0.241	-0.414
-239.903	195.028	-0.264	0.403
-238.888	-90.765	0.176	0.051
-237.873	-111.787	0.360	-0.073
-236.859	-200.000	-0.011	-0.201
-235.844	-200.000	0.042	-0.200
-234.830	800.000	-0.021	0.065
-233.815	262.024	-0.095	-0.166
-232.800	800.000	-0.051	-0.156
-231.786	-136.756	-0.294	0.034
-230.771	315.858	0.084	0.159
-229.757	-22.951	0.159	-0.096
-228.742	-119.770	0.274	0.047
-227.727	-132.849	-0.236	-0.030
-226.713	184.714	0.042	-0.062
-225.698	-200.000	-0.045	0.225
-224.684	-109.002	0.107	-0.023
-223.669	86.868	-0.290	0.321
-222.655	79.312	-0.287	-0.309
-221.640	92.520	0.103	-0.116
-220.625	-37.344	-0.205	-0.110
-219.611	115.084	-0.166	0.203
-218.596	-136.940	0.128	0.015
-217.582	-80.878	0.060	-0.020
-216.567	-200.000	0.038	0.179
-215.552	-91.633	0.138	0.039
-214.538	-48.222	-0.267	-0.129
-213.523	-136.886	0.250	0.029
-212.509	395.535	-0.112	0.234
-211.494	12.204	-0.166	0.128
-210.479	-68.386	-0.157	-0.061
-209.465	-63.305	0.374	0.154
-208.450	-200.000	0.063	-0.519
-207.436	-61.175	-0.349	-0.147
-206.421	129.330	-0.164	-0.210
-205.406	-104.587	0.115	0.027
-204.392	-200.000	0.158	-0.001
-203.377	-185.266	0.287	0.004
-202.363	56.039	-0.091	-0.088
-201.348	29.356	0.099	0.084
-200.333	-64.096	0.116	-0.048
-199.319	800.000	-0.048	-0.175
-198.304	-200.000	-0.006	-0.115
-197.290	21.030	0.125	0.101
-196.275	201.037	0.123	-0.189
-195.260	-39.452	-0.344	-0.181
-194.246	-21.876	-0.151	0.092
-193.231	-34.118	0.162	0.089
-192.217	149.562	0.162	-0.220
-191.202	800.000	0.127	-0.413
-190.187	-156.035	-0.237	-0.015
-189.173	-68.833	0.198	-0.077
-188.158	241.091	-0.161	-0.270
-187.144	-106.105	0.348	0.078
-186.129	-200.000	-0.048	0.384
-185.114	-200.000	-0.029	0.354
-184.100	-200.000	0.053	0.297
-183.085	74.151	0.136	-0.143
-182.071	467.981	-0.083	-0.186
-181.056	281.625	-0.075	0.134
-180.042	-48.724	-0.320	0.154
-179.027	-61.539	-0.135	0.057
-178.012	-99.435	-0.214	-0.054
-176.998	-121.756	0.282	0.047
-175.983	-7.487	0.418	-0.283
-174.969	40.381	0.194	-0.175
-173.954	7.901	0.251	0.188
-172.939	47.325	-0.344	0.321
-171.925	574.763	0.062	-0.151
-170.910	800.000	0.059	0.256
-169.896	-102.073	-0.273	-0.066
-168.881	215.406	0.096	-0.152
-167.866	-11.268	0.324	0.214
-166.852	-7.293	-0.022	0.015
-165.837	-107.855	0.065	-0.014
-164.823	800.000	0.043	0.181
-163.808	-58.207	-0.128	-0.056
-162.793	-200.000	-0.006	0.047
-161.779	35.215	-0.194	0.170
-160.764	-200.000	0.031	0.353
-159.750	161.898	-0.050	0.070
-158.735	-156.485	0.205	0.013
-157.720	174.885	-0.243	0.351
-156.706	-68.029	-0.357	0.139
-155.691	120.791	-0.096	-0.119
-154.677	800.000	0.043	-0.153
-153.662	89.046	-0.075	-0.083
-152.647	-85.070	0.424	-0.133
-151.633	-63.718	0.266	-0.109
-150.618	132.074	0.107	0.138
-149.604	9.345	-0.111	-0.084
-148.589	-75.485	0.265	0.094
-147.574	215.065	-0.093	0.148
-146.560	800.000	-0.060	0.216
-145.545	32.820	0.288	-0.250
-144.531	3.686	-0.079	-0.058
-143.516	-122.593	0.221	-0.036
-142.502	58.120	0.310	-0.303
-141.487	58.472	0.181	0.178
-140.472	800.000	-0.039	-0.128
-139.458	800.000	-0.138	-0.435
-138.443	89.403	0.021	-0.023
-137.429	800.000	-0.061	-0.185
-136.414	-46.408	0.291	-0.143
-135.399	-16.046	0.262	-0.167
-134.385	-157.411	-0.261	-0.016
-133.370	-200.000	-0.005	0.026
-132.356	-81.485	-0.093	-0.031
-131.341	343.334	0.176	-0.344
-130.326	-48.207	0.440	-0.212
-129.312	-25.704	0.385	-0.227
-128.297	-31.921	0.030	0.017
-127.283	294.031	0.120	-0.219
-126.268	-67.203	0.324	0.128
-125.253	-69.835	0.153	0.058
-124.239	604.598	-0.177	0.441
-123.224	-95.832	0.229	0.061
-122.210	-114.354	0.184	0.035
-121.195	363.804	-0.137	0.274
-120.180	800.000	-0.113	0.431
-119.166	-134.475	-0.134	-0.016
-118.151	-149.487	0.216	0.017
-117.137	-9.195	0.052	-0.035
-116.122	-24.250	0.097	-0.058
-115.107	-7.887	-0.207	-0.140
-114.093	119.001	0.401	0.495
-113.078	-200.000	-0.007	0.126
-112.064	800.000	0.046	0.144
-111.049	800.000	0.052	0.155
-110.034	-191.195	0.303	0.003
-109.020	-37.420	-0.186	-0.099
-108.005	-100.948	-0.059	0.014
-106.991	522.222	-0.046	-0.107
-105.976	18.072	0.159	0.126
-104.962	-18.008	-0.171	0.107
-103.947	518.675	-0.134	-0.314
-102.932	-103.794	-0.109	-0.026
-101.918	-34.654	0.060	-0.033
-100.903	22.676	0.153	0.125
-99.889	50.389	-0.154	-0.146
-98.874	6.310	-0.335	-0.248
-97.859	414.536	0.039	-0.084
-96.845	-50.841	0.302	-0.142
-95.830	380.676	0.109	0.224
-94.816	775.347	-0.039	0.107
-93.801	-183.535	0.276	0.005
-92.786	-79.750	-0.292	0.098
-91.772	-72.402	0.377	0.139
-90.757	-107.525	0.284	-0.062
-89.743	-200.000	-0.023	0.129
-88.728	103.384	-0.290	-0.339
-87.713	-144.664	0.373	0.034
-86.699	2.179	0.051	-0.037
-85.684	206.820	0.206	0.321
-84.670	299.205	-0.147	0.269
-83.655	-126.046	-0.038	0.006
-82.640	-170.232	-0.249	-0.009
-81.626	-37.950	0.148	-0.079
-80.611	-8.437	0.189	0.127
-79.597	304.338	0.102	-0.190
-78.582	-182.629	-0.425	-0.008
-77.567	174.294	0.235	0.340
-76.553	-190.684	0.267	-0.003
-75.538	194.030	0.019	-0.029
-74.524	-189.869	-0.146	-0.002
-73.509	-129.789	0.238	-0.033
-72.494	-115.922	0.043	0.008
-71.480	-200.000	0.018	0.083
-70.465	416.501	-0.036	-0.076
-69.451	800.000	0.112	0.326
-68.436	-200.000	-0.035	-0.218
-67.422	-200.000	-0.049	-0.216
-66.407	19.596	0.050	0.040
-65.392	-102.557	0.209	-0.050
-64.378	-200.000	-0.058	-0.305
-63.363	-200.000	-0.001	0.311
-62.349	198.208	0.081	-0.124
-61.334	-40.463	-0.767	-0.397
-60.319	68.040	0.283	-0.288
-59.305	-200.000	0.064	-0.648
-58.290	800.000	0.332	0.946
-57.276	800.000	0.643	1.807
-56.261	-200.000	71.781	537.480
-55.246	577.607	1290.968	3146.962
-54.232	142.305	2535.269	3354.069
-53.217	122.083	2243.918	2792.530
-52.203	56.300	1682.152	1629.160
-51.188	47.552	1396.790	1298.278
-50.173	43.483	1348.746	1228.897
-49.159	62.014	1380.479	1371.600
-48.144	70.608	1399.582	1442.957
-47.130	47.789	1362.996	1268.117
-46.115	43.453	1346.680	1226.635
-45.100	43.187	1341.738	1220.478
-44.086	42.974	1339.877	1217.448
-43.071	43.014	1337.108	1215.121
-42.057	42.966	1335.323	1213.166
-41.042	42.970	1333.219	1211.228
-40.027	43.071	1331.418	1210.154
-39.013	43.069	1329.471	1208.319
-37.998	43.073	1327.357	1206.375
-36.984	43.270	1325.719	1206.019
-35.969	43.154	1324.358	1204.040
-34.954	43.298	1322.756	1203.393
-33.940	43.273	1320.928	1201.533
-32.925	43.187	1319.914	1200.049
-31.911	43.374	1318.324	1199.667
-30.896	43.262	1316.524	1197.321
-29.881	43.333	1315.066	1196.368
-28.867	43.331	1313.830	1195.183
-27.852	43.412	1312.090	1194.032
-26.838	43.305	1310.655	1192.045
-25.823	43.256	1309.676	1190.817
-24.809	43.273	1308.154	1189.490
-23.794	43.323	1306.741	1188.452
-22.779	43.348	1305.364	1187.301
-21.765	43.253	1303.998	1185.452
-20.750	43.263	1302.808	1184.383
-19.736	43.225	1301.101	1182.558
-18.721	43.154	1300.250	1181.323
-17.706	43.205	1298.980	1180.418
-16.692	43.075	1298.014	1178.735
-15.677	43.076	1297.103	1177.869
-14.663	43.131	1295.471	1176.657
-13.648	43.195	1294.403	1176.018
-12.633	43.081	1293.354	1174.350
-11.619	43.293	1291.942	1174.256
-10.604	43.246	1291.137	1173.207
-9.590	43.122	1290.948	1172.268
-8.575	43.105	1289.623	1170.917
-7.560	43.037	1288.935	1169.852
-6.546	43.064	1287.732	1168.872
-5.531	43.085	1287.118	1168.387
-4.517	43.125	1285.986	1167.543
-3.502	43.051	1285.660	1166.773
-2.487	43.161	1284.411	1166.233
-1.473	43.233	1281.077	1163.577
-0.458	42.735	1266.947	1147.855
0.556	37.404	1246.446	1107.993
1.571	32.767	1248.958	1083.563
2.586	30.700	1261.525	1082.358
3.600	28.699	1250.542	1061.288
4.615	21.933	1174.800	960.046
5.629	11.119	1093.754	838.350
6.644	5.853	1068.314	792.245
7.659	5.391	1065.187	787.527
8.673	5.176	1063.971	785.477
9.688	5.172	1062.852	784.559
10.702	5.594	1062.176	786.113
11.717	11.446	1071.019	822.136
12.731	19.198	1080.739	868.776
13.746	19.778	1080.383	871.335
14.761	17.560	1076.678	857.122
15.775	16.244	1074.933	849.041
16.790	15.240	1072.186	841.758
17.804	14.452	1070.725	836.584
18.819	14.077	1069.730	833.850
19.834	13.736	1068.659	831.234
20.848	13.513	1067.552	829.181
21.863	13.276	1066.716	827.271
22.877	13.170	1066.037	826.143
23.892	13.120	1065.311	825.259
24.907	13.126	1064.466	824.561
25.921	13.250	1063.666	824.486
26.936	13.142	1062.697	823.125
27.950	13.275	1060.827	822.262
28.965	13.339	1059.362	821.377
29.980	13.370	1057.817	820.258
30.994	13.452	1056.558	819.615
32.009	13.412	1055.883	818.821
33.023	13.406	1055.029	818.057
34.038	13.442	1053.208	816.752
35.053	13.235	1052.898	815.416
36.067	13.358	1051.746	815.059
37.082	13.373	1050.959	814.449
38.096	13.550	1049.921	814.442
39.111	13.434	1049.496	813.473
40.126	13.292	1048.371	811.831
41.140	13.133	1047.094	809.991
42.155	13.074	1046.056	808.827
43.169	13.047	1044.717	807.585
44.184	13.030	1043.617	806.584
45.199	13.103	1042.713	806.170
46.213	13.213	1041.208	805.468
47.228	13.150	1040.734	804.722
48.242	13.318	1039.098	804.207
49.257	13.176	1038.217	802.761
50.271	13.241	1037.586	802.519
51.286	13.328	1036.483	802.018
52.301	13.293	1035.420	800.956
53.315	13.268	1034.167	799.794
54.330	13.222	1033.179	798.734
55.344	13.046	1032.141	797.014
56.359	13.198	1031.173	796.930
57.374	13.208	1030.249	796.190
58.388	13.092	1029.216	794.766
59.403	13.202	1028.662	794.798
60.417	13.185	1027.641	793.857
61.432	13.172	1026.919	793.166
62.447	13.045	1025.993	791.768
63.461	12.933	1025.337	790.657
64.476	13.066	1024.239	790.378
65.490	12.969	1023.571	789.327
66.505	13.089	1022.691	789.152
67.520	13.067	1022.138	788.553
68.534	13.067	1021.513	788.001
69.549	13.016	1020.902	787.214
70.563	12.972	1020.106	786.323
71.578	12.989	1019.150	785.596
72.593	13.015	1018.423	785.092
73.607	12.956	1017.608	784.111
74.622	13.081	1016.890	784.085
75.636	12.940	1016.738	783.226
76.651	12.957	1015.932	782.617
77.666	12.874	1015.196	781.589
78.680	12.936	1014.631	781.376
79.695	13.069	1013.582	781.130
80.709	13.028	1013.579	780.866
81.724	13.027	1012.826	780.211
82.739	13.224	1011.469	780.024
83.753	13.209	1011.028	779.549
84.768	13.428	1009.853	779.604
85.782	13.516	1008.696	779.057
86.797	13.381	1008.208	777.974
87.812	13.289	1007.202	776.697
88.826	13.235	1006.533	775.858
89.841	13.290	1005.884	775.547
90.855	13.437	1004.679	775.241
91.870	13.495	1003.620	774.625
92.884	13.334	1002.975	773.303
93.899	13.449	1002.023	773.040
94.914	13.489	1001.652	772.873
95.928	13.602	1000.325	772.308
96.943	13.465	999.333	770.834
97.957	13.486	998.234	770.018
98.972	13.333	997.968	769.030
99.987	13.433	996.792	768.520
101.001	13.415	995.690	767.520
102.016	13.377	995.118	766.834
103.030	13.391	994.391	766.271
104.045	13.409	993.562	765.647
105.060	13.360	992.555	764.576
106.074	13.205	992.098	763.442
107.089	13.261	990.626	762.502
108.103	13.141	990.098	761.474
109.118	13.208	989.117	760.962
110.133	13.118	987.735	759.418
111.147	13.115	987.226	758.946
112.162	13.030	986.602	758.006
113.176	13.164	985.662	757.833
114.191	13.243	985.131	757.718
115.206	13.249	983.972	756.790
116.220	13.242	983.435	756.276
117.235	13.250	982.465	755.498
118.249	13.321	981.503	755.018
119.264	13.201	980.900	753.937
120.279	13.189	980.139	753.234
121.293	13.237	978.829	752.378
122.308	13.231	978.373	751.934
123.322	13.167	976.764	750.342
124.337	13.231	976.000	749.979
125.352	13.225	974.768	748.937
126.366	13.294	973.763	748.413
127.381	13.271	972.882	747.562
128.395	13.215	972.167	746.694
129.410	13.288	971.136	746.167
130.424	13.314	970.230	745.521
131.439	13.339	969.658	745.130
132.454	13.394	968.856	744.695
133.468	13.322	968.235	743.828
134.483	13.366	967.332	743.267
135.497	13.314	966.449	742.286
136.512	13.432	965.285	741.857
137.527	13.441	964.558	741.273
138.541	13.405	964.588	741.071
139.556	13.354	963.719	740.108
140.570	13.520	962.686	739.992
141.585	13.522	962.116	739.498
142.600	13.576	961.390	739.115
143.614	13.605	960.426	738.435
144.629	13.673	959.657	738.082
145.643	13.659	958.575	737.120
146.658	13.573	957.169	735.593
147.673	13.355	956.870	734.331
148.687	13.367	955.785	733.488
149.702	13.421	954.772	732.883
150.716	13.274	954.394	731.879
151.731	13.273	954.055	731.549
152.746	13.388	952.744	730.987
153.760	13.503	951.888	730.773
154.775	13.517	951.501	730.473
155.789	13.532	950.738	729.888
156.804	13.488	950.366	729.345
157.819	13.534	949.665	728.944
158.833	13.691	948.781	728.894
159.848	13.574	948.276	727.928
160.862	13.630	946.998	727.127
161.877	13.479	946.459	725.987
162.892	13.435	945.465	724.968
163.906	13.500	944.130	724.162
164.921	13.543	943.354	723.691
165.935	13.528	942.597	722.981
166.950	13.658	941.286	722.480
167.964	13.524	940.772	721.437
168.979	13.512	939.878	720.635
169.994	13.419	939.226	719.666
171.008	13.516	938.645	719.580
172.023	13.715	937.361	719.394
173.037	13.772	936.677	719.053
174.052	13.602	936.083	717.796
175.067	13.518	935.832	717.180
176.081	13.484	935.310	716.568
177.096	13.557	934.552	716.239
178.110	13.613	933.941	715.950
179.125	13.487	933.185	714.761
180.140	13.660	932.639	715.028
181.154	13.686	932.012	714.598
182.169	13.831	931.565	714.813
183.183	13.876	930.870	714.410
184.198	13.817	930.067	713.478
185.213	13.760	929.521	712.752
186.227	13.704	929.212	712.212
187.242	13.793	928.479	711.967
188.256	14.044	927.524	712.246
189.271	13.869	926.872	710.935
190.286	13.641	925.974	709.207
191.300	13.672	925.227	708.706
192.315	13.552	924.738	707.757
193.329	13.511	924.081	707.016
194.344	13.599	923.842	707.147
195.359	13.788	922.881	707.152
196.373	13.673	922.739	706.491
197.388	13.836	922.226	706.729
198.402	13.919	921.869	706.749
199.417	14.022	920.825	706.320
200.432	14.177	920.212	706.446
201.446	14.073	920.135	705.885
202.461	14.029	919.755	705.343
203.475	14.202	918.656	705.170
204.490	13.998	917.889	703.657
205.504	14.045	917.077	703.171
206.519	14.047	916.514	702.687
207.534	14.116	915.445	702.094
208.548	13.995	915.215	701.346
209.563	13.975	914.459	700.620
210.577	14.197	913.845	701.022
211.592	14.198	913.312	700.558
212.607	14.221	912.376	699.874
213.621	14.246	911.594	699.316
214.636	14.352	910.821	699.106
215.650	14.198	910.361	698.046
216.665	14.210	909.614	697.459
217.680	14.229	908.921	696.946
218.694	14.365	908.287	696.967
219.709	14.246	907.537	695.835
220.723	14.286	907.053	695.570
221.738	14.281	906.384	694.973
222.753	14.282	905.794	694.461
223.767	14.330	904.905	693.922
224.782	14.435	904.635	694.089
225.796	14.506	903.966	693.810
226.811	14.505	903.120	693.096
227.826	14.239	902.604	691.531
228.840	14.337	901.616	691.121
229.855	14.379	900.655	690.498
230.869	14.297	900.495	689.974
231.884	14.373	899.904	689.775
232.899	14.361	898.928	688.916
233.913	14.231	898.446	687.947
234.928	14.289	897.936	687.737
235.942	14.261	897.389	687.142
236.957	14.404	896.512	686.997
237.972	14.387	895.809	686.327
238.986	14.248	895.341	685.337
240.001	14.472	894.625	685.649
241.015	14.396	894.492	685.175
242.030	14.389	893.680	684.465
243.045	14.494	893.025	684.334
244.059	14.429	892.886	683.899
245.074	14.483	891.708	683.156
246.088	14.525	891.064	682.776
247.103	14.695	890.248	682.786
248.117	14.732	890.001	682.687
249.132	14.774	889.644	682.526
250.147	14.831	888.882	682.110
251.161	14.844	888.192	681.575
252.176	14.829	887.528	680.944
253.190	14.974	886.610	680.767
254.205	14.876	886.494	680.221
255.220	15.027	885.386	679.923
256.234	14.836	885.241	678.976
257.249	15.004	883.945	678.603
258.263	14.934	883.160	677.656
259.278	14.965	882.747	677.406
260.293	14.924	882.169	676.736
261.307	15.124	881.517	676.986
262.322	15.133	881.201	676.718
263.336	15.142	880.053	675.815
264.351	15.083	879.795	675.317
265.366	15.219	879.233	675.377
266.380	15.137	878.476	674.404
267.395	15.094	877.614	673.511
268.409	15.151	876.706	672.984
269.424	14.992	876.485	672.114
270.439	15.037	875.524	671.498
271.453	15.057	874.690	670.878
272.468	15.083	874.169	670.526
273.482	15.075	873.800	670.149
274.497	15.071	873.261	669.661
275.512	15.123	872.476	669.207
276.526	15.218	871.950	669.124
277.541	15.316	871.275	668.940
278.555	15.217	871.190	668.419
279.570	15.390	870.332	668.392
280.585	15.305	869.540	667.385
281.599	15.356	868.523	666.750
282.614	15.338	867.975	666.196
283.628	15.173	867.807	665.354
284.643	15.313	867.038	665.262
285.657	15.238	867.001	664.875
286.672	15.157	865.925	663.673
287.687	15.332	865.112	663.684
288.701	15.431	864.477	663.526
289.716	15.500	863.750	663.185
290.730	15.399	863.799	662.764
291.745	15.501	862.842	662.372
292.760	15.428	862.356	661.655
293.774	15.502	861.836	661.487
294.789	15.501	861.275	660.993
295.803	15.426	860.612	660.133
296.818	15.579	859.333	659.693
297.833	15.542	858.537	658.878
298.847	15.588	858.597	659.047
299.862	15.452	857.969	657.974
300.876	15.568	857.114	657.715
301.891	15.539	856.701	657.224
302.906	15.644	856.374	657.327
303.920	15.724	855.797	657.141
304.935	15.820	855.042	656.877
305.949	15.794	854.320	656.163
306.964	15.719	853.883	655.475
307.979	15.651	853.427	654.803
308.993	15.836	852.953	655.100
310.008	15.762	852.217	654.191
311.022	15.773	851.540	653.653
312.037	15.722	851.017	652.997
313.052	15.680	850.397	652.300
314.066	15.535	850.199	651.528
315.081	15.691	849.437	651.491
316.095	15.808	848.687	651.313
317.110	15.695	848.473	650.652
318.125	15.753	847.839	650.333
319.139	15.725	847.227	649.699
320.154	15.684	847.210	649.468
321.168	15.751	846.428	649.072
322.183	15.721	845.882	648.480
323.197	15.751	845.569	648.296
324.212	15.706	845.110	647.715
325.227	15.791	843.976	647.116
326.241	15.599	843.704	646.113
327.256	15.759	842.986	646.120
328.270	15.956	842.149	646.178
329.285	15.770	842.018	645.305
330.300	15.852	840.863	644.678
331.314	15.958	840.655	644.868
332.329	15.993	840.016	644.451
333.343	15.996	839.975	644.377
334.358	16.006	839.147	643.720
335.373	16.165	838.612	643.860
336.387	16.010	838.693	643.276
337.402	15.970	838.747	643.105
338.416	16.093	838.329	643.199
339.431	16.167	837.475	642.769
340.446	16.238	837.426	642.944
341.460	16.287	836.836	642.620
342.475	16.229	836.640	642.194
343.489	16.388	835.777	642.078
344.504	16.403	835.392	641.781
345.519	16.419	834.783	641.319
346.533	16.407	834.259	640.814
347.548	16.311	833.688	639.955
348.562	16.278	833.528	639.650
349.577	16.179	832.856	638.703
350.592	16.169	832.346	638.218
351.606	16.366	831.280	638.089
352.621	16.370	830.392	637.367
353.635	16.263	830.439	636.942
354.650	16.369	829.305	636.415
355.665	16.361	828.749	635.902
356.679	16.379	828.544	635.756
357.694	16.318	828.070	635.107
358.708	16.362	827.109	634.476
359.723	16.469	826.429	634.300
360.738	16.278	826.204	633.355
361.752	16.455	825.171	633.170
362.767	16.529	824.787	633.099
363.781	16.542	824.583	632.932
364.796	16.636	823.934	632.732
365.810	16.614	823.815	632.503
366.825	16.764	822.988	632.372
367.840	16.507	823.010	631.374
368.854	16.696	821.989	631.238
369.869	16.614	821.585	630.565
370.883	16.791	821.171	630.850
371.898	16.732	821.027	630.465
372.913	16.741	820.866	630.320
373.927	16.849	819.537	629.647
374.942	16.809	819.283	629.246
375.956	16.753	819.019	628.780
376.971	16.871	818.741	628.949
377.986	16.913	818.611	628.950
379.000	16.915	817.725	628.219
380.015	16.770	817.522	627.469
381.029	16.825	816.877	627.123
382.044	17.000	816.015	627.053
383.059	16.913	815.574	626.336
384.073	16.935	814.956	625.889
385.088	16.800	814.596	625.060
386.102	16.982	813.923	625.159
387.117	16.893	813.307	624.301
388.132	16.818	812.583	623.413
389.146	16.906	812.091	623.307
390.161	16.999	811.879	623.428
391.175	16.970	811.408	622.907
392.190	16.935	810.768	622.230
393.205	16.936	810.534	622.002
394.219	16.907	809.720	621.214
395.234	16.953	809.404	621.084
396.248	17.042	808.846	620.929
397.263	16.877	808.635	620.107
398.278	16.901	808.068	619.705
399.292	16.903	808.106	619.686
400.307	16.770	807.599	618.758
401.321	16.891	806.910	618.617
402.336	16.956	806.385	618.397
403.350	16.842	806.389	617.928
404.365	17.011	805.411	617.741
405.380	17.208	804.883	617.999
406.394	17.264	804.570	617.908
407.409	17.267	804.403	617.735
408.423	17.182	804.090	617.128
409.438	17.324	803.548	617.177
410.453	17.315	803.381	616.959
411.467	17.373	802.831	616.693
412.482	17.305	802.331	616.009
413.496	17.424	801.742	615.930
414.511	17.534	801.408	616.020
415.526	17.551	801.007	615.716
416.540	17.415	800.674	614.916
417.555	17.376	800.008	614.208
418.569	17.578	799.560	614.539
419.584	17.608	798.899	614.087
420.599	17.552	798.716	613.688
421.613	82.342	1245.395	1305.971
422.628	69.868	1310.475	1306.085
