DTS Sentinel unit serial number:	SN413079Multiplexer serial number:	ORYXHardware model number:	OX4-SRSoftware version number:	ORYX F/W v4.00 Oryx Data Collector v3.7.2.0data status	okinstallation	princeton_trtdifferential loss correction	single-endedforward channel	channel 1reverse channel	N/Adate	2019/09/14time	20:34:35forward acquisition time	60.00reverse acquisition time	0.00gamma	496.2192k internal	0.2316k external	0.2316temperature offset calibration	1.0022default loss term (dB/km)	0.3790temperature slope calibration	1.0000multiplexer offset coefficient	1.0000multiplexer slope coefficient	1.0000fibre end	0.00T internal ref (°C)	33.48T ext. ref 1 (°C)	4.84T ext. ref 2 (°C)	28.07length (m)	temperature (°C)	Stokes	anti-Stokes-747.200	-200.000	-0.002	-0.574
-746.185	-39.920	-0.114	-0.060
-745.171	-200.000	0.009	0.095
-744.156	800.000	0.112	-0.371
-743.142	204.068	-0.180	0.283
-742.127	54.906	-0.264	0.258
-741.112	-200.000	0.011	0.231
-740.098	26.956	-0.038	0.032
-739.083	800.000	0.087	0.299
-738.069	311.907	-0.109	0.206
-737.054	-135.457	-0.167	0.020
-736.039	743.556	0.009	0.023
-735.025	-45.528	0.097	0.049
-734.010	60.829	0.176	0.177
-732.996	39.511	-0.175	-0.158
-731.981	-116.559	-0.259	-0.048
-730.966	128.243	-0.120	0.155
-729.952	-70.522	-0.284	0.109
-728.937	-200.000	-0.005	-0.050
-727.923	-50.248	-0.169	0.081
-726.908	73.032	-0.346	0.366
-725.894	339.122	-0.103	-0.203
-724.879	489.472	-0.100	-0.231
-723.864	173.756	0.128	-0.187
-722.850	60.238	0.164	0.164
-721.835	32.884	-0.274	-0.240
-720.821	-72.168	0.105	-0.040
-719.806	-88.035	0.079	0.024
-718.791	800.000	-0.048	0.193
-717.777	291.243	0.046	0.085
-716.762	-89.046	-0.395	0.118
-715.748	41.326	0.016	0.015
-714.733	14.453	0.101	-0.080
-713.718	-127.421	-0.399	-0.059
-712.704	70.269	-0.025	0.027
-711.689	-10.801	0.075	-0.050
-710.675	-74.235	-0.063	0.023
-709.660	-110.952	-0.486	0.101
-708.645	-200.000	-0.028	-0.263
-707.631	-61.322	-0.085	0.036
-706.616	-164.574	-0.330	-0.015
-705.602	119.946	-0.139	0.175
-704.587	6.421	0.140	-0.105
-703.572	-36.485	-0.371	-0.202
-702.558	-200.000	-0.005	0.083
-701.543	-64.744	-0.278	0.114
-700.529	-2.562	-0.208	-0.148
-699.514	109.574	-0.186	0.226
-698.499	-43.877	-0.359	-0.182
-697.485	800.000	0.033	-0.116
-696.470	-41.580	0.248	0.129
-695.456	-200.000	-0.009	0.082
-694.441	-138.835	-0.070	0.008
-693.426	219.581	-0.109	-0.177
-692.412	-200.000	-0.002	0.058
-691.397	122.412	-0.247	-0.312
-690.383	-147.820	0.095	0.008
-689.368	12.482	0.168	0.131
-688.354	-200.000	0.002	0.221
-687.339	112.881	-0.183	-0.224
-686.324	89.792	-0.120	0.135
-685.310	55.727	-0.285	-0.279
-684.295	800.000	0.075	-0.267
-683.281	-200.000	0.030	0.170
-682.266	8.629	0.218	0.166
-681.251	-200.000	0.031	-0.205
-680.237	-200.000	0.004	-0.376
-679.222	-99.046	0.180	-0.046
-678.208	-21.124	-0.093	-0.057
-677.193	-200.000	0.000	-0.111
-676.178	153.016	-0.083	0.115
-675.164	-114.616	0.369	-0.071
-674.149	168.814	0.139	-0.200
-673.135	206.279	0.167	0.263
-672.120	-200.000	-0.017	0.375
-671.105	-70.376	-0.095	0.037
-670.091	376.977	-0.033	-0.067
-669.076	129.968	0.059	0.076
-668.062	130.376	-0.282	0.365
-667.047	-200.000	0.007	-0.345
-666.032	-72.362	0.081	-0.030
-665.018	1.078	-0.291	-0.211
-664.003	97.686	0.088	0.102
-662.989	-10.810	0.278	0.186
-661.974	524.739	0.030	-0.072
-660.959	-149.621	-0.142	0.011
-659.945	-76.499	-0.255	-0.090
-658.930	13.458	-0.168	-0.131
-657.916	-102.934	0.343	0.082
-656.901	800.000	-0.028	0.110
-655.886	-170.315	-0.093	-0.003
-654.872	-77.716	-0.194	-0.068
-653.857	-152.628	-0.147	-0.011
-652.843	-52.555	0.160	-0.075
-651.828	70.335	0.070	-0.073
-650.814	103.156	-0.225	0.266
-649.799	-149.389	-0.337	-0.027
-648.784	307.578	-0.093	-0.175
-647.770	-185.677	0.214	0.003
-646.755	-105.916	-0.315	0.072
-645.741	148.352	-0.195	0.266
-644.726	-0.020	0.105	0.075
-643.711	278.928	-0.102	-0.184
-642.697	60.406	0.047	-0.047
-641.682	-159.190	-0.118	-0.007
-640.668	-90.756	0.319	-0.093
-639.653	603.189	-0.024	0.060
-638.638	-31.487	0.230	-0.130
-637.624	-132.922	0.437	-0.056
-636.609	233.899	-0.083	-0.138
-635.595	-200.000	-0.067	-0.370
-634.580	246.274	-0.048	0.081
-633.565	-93.762	-0.376	-0.105
-632.551	285.626	-0.132	-0.240
-631.536	-107.206	0.115	-0.026
-630.522	404.636	0.042	0.090
-629.507	-7.084	0.209	-0.143
-628.492	-102.804	-0.374	-0.090
-627.478	-126.263	-0.165	0.025
-626.463	-160.085	-0.092	-0.005
-625.449	11.320	-0.086	-0.066
-624.434	0.330	0.017	0.012
-623.419	241.419	0.105	0.176
-622.405	-44.370	-0.132	0.067
-621.390	-73.708	0.331	0.122
-620.376	-200.000	-0.006	-0.273
-619.361	223.254	0.085	0.139
-618.346	-40.161	-0.179	-0.094
-617.332	574.365	0.079	-0.195
-616.317	-200.000	0.015	0.153
-615.303	-200.000	0.013	-0.153
-614.288	-92.771	-0.429	-0.121
-613.273	-25.410	-0.147	-0.088
-612.259	-153.704	-0.246	-0.017
-611.244	-200.000	0.002	0.113
-610.230	800.000	0.115	-0.375
-609.215	57.661	-0.023	0.022
-608.201	38.786	-0.152	0.136
-607.186	417.516	0.173	-0.373
-606.171	122.127	-0.095	0.119
-605.157	-200.000	0.046	-0.272
-604.142	287.536	-0.013	-0.023
-603.128	-119.967	-0.041	-0.007
-602.113	-135.258	-0.086	0.010
-601.098	-34.868	-0.218	-0.120
-600.084	39.633	0.094	-0.085
-599.069	800.000	-0.048	0.145
-598.055	-27.447	0.104	0.061
-597.040	449.787	0.073	0.163
-596.025	52.599	-0.158	0.152
-595.011	-121.815	-0.045	0.008
-593.996	-38.961	0.128	0.068
-592.982	-127.700	-0.372	0.054
-591.967	-200.000	0.010	0.154
-590.952	13.872	0.096	0.075
-589.938	-129.030	-0.121	-0.017
-588.923	-40.883	0.126	-0.066
-587.909	49.780	-0.275	-0.261
-586.894	-110.349	-0.298	-0.062
-585.879	215.758	-0.152	0.244
-584.865	238.175	-0.030	0.051
-583.850	-79.481	-0.222	0.075
-582.836	-8.594	-0.237	-0.160
-581.821	129.305	-0.044	0.057
-580.806	-42.620	0.348	0.178
-579.792	31.996	-0.218	-0.189
-578.777	-200.000	-0.031	-0.285
-577.763	196.834	0.064	0.098
-576.748	-200.000	-0.014	0.107
-575.733	233.368	0.117	-0.194
-574.719	-200.000	-0.019	-0.323
-573.704	-13.579	0.123	-0.080
-572.690	93.562	0.142	0.162
-571.675	80.199	0.084	-0.091
-570.661	52.263	-0.128	-0.123
-569.646	38.326	-0.231	-0.207
-568.631	-32.982	0.480	0.268
-567.617	800.000	0.115	0.324
-566.602	800.000	-0.019	-0.059
-565.588	91.610	0.059	0.067
-564.573	75.278	0.196	-0.208
-563.558	-21.371	0.204	-0.125
-562.544	-156.927	-0.241	-0.015
-561.529	800.000	0.077	0.313
-560.515	1.185	-0.199	-0.143
-559.500	9.437	0.146	-0.111
-558.485	-200.000	0.008	0.333
-557.471	-173.912	0.305	-0.009
-556.456	40.731	0.103	-0.093
-555.442	102.368	0.010	0.012
-554.427	-32.094	0.068	-0.038
-553.412	37.665	0.172	-0.153
-552.398	55.264	-0.071	0.069
-551.383	210.276	-0.101	-0.160
-550.369	800.000	-0.046	-0.147
-549.354	339.420	0.216	0.424
-548.339	-200.000	-0.019	0.149
-547.325	-40.417	-0.197	-0.103
-546.310	231.432	-0.217	-0.357
-545.296	-11.729	0.176	0.116
-544.281	-130.808	-0.128	-0.017
-543.266	142.022	-0.138	-0.184
-542.252	-60.349	-0.016	-0.007
-541.237	800.000	-0.079	0.303
-540.223	-200.000	0.006	-0.057
-539.208	379.701	0.216	0.444
-538.193	-128.373	0.350	0.050
-537.179	113.124	0.270	-0.329
-536.164	3.237	0.143	-0.104
-535.150	27.394	0.239	-0.202
-534.135	192.318	-0.079	-0.119
-533.121	615.366	-0.063	-0.160
-532.106	-131.850	-0.239	0.031
-531.091	223.356	0.038	0.062
-530.077	58.037	0.079	-0.078
-529.062	8.418	0.170	-0.128
-528.048	-170.356	-0.139	0.005
-527.033	34.794	0.103	0.090
-526.018	-200.000	-0.069	0.441
-525.004	-64.985	0.254	-0.103
-523.989	427.631	-0.111	0.241
-522.975	-44.152	0.150	0.076
-521.960	0.557	-0.282	-0.203
-520.945	-73.459	0.283	-0.104
-519.931	-102.908	0.250	0.060
-518.916	-51.462	-0.275	0.129
-517.902	-200.000	-0.006	-0.140
-516.887	800.000	0.040	0.154
-515.872	-126.062	-0.080	-0.012
-514.858	-41.267	0.142	-0.073
-513.843	605.921	0.047	0.117
-512.829	-56.022	0.059	0.027
-511.814	61.891	0.225	0.225
-510.799	-176.656	0.063	-0.002
-509.785	-167.150	-0.134	0.005
-508.770	-87.213	0.191	0.058
-507.756	-200.000	0.035	0.206
-506.741	172.523	-0.032	0.046
-505.726	-95.627	-0.168	0.045
-504.712	79.491	-0.020	0.022
-503.697	131.526	0.185	0.239
-502.683	121.970	-0.087	0.109
-501.668	-170.222	0.122	-0.004
-500.653	514.426	-0.082	-0.193
-499.639	-58.868	-0.110	-0.048
-498.624	-200.000	0.056	-0.252
-497.610	-8.449	0.253	0.171
-496.595	75.815	0.065	-0.069
-495.581	109.414	0.084	-0.101
-494.566	800.000	-0.060	0.216
-493.551	182.714	0.085	-0.126
-492.537	800.000	0.051	-0.181
-491.522	18.705	-0.124	-0.100
-490.508	24.591	0.173	-0.144
-489.493	311.849	0.020	0.037
-488.478	-200.000	-0.026	-0.327
-487.464	-200.000	0.080	0.576
-486.449	348.345	0.160	0.316
-485.435	800.000	0.104	0.312
-484.420	-200.000	-0.014	-0.148
-483.405	548.528	-0.124	0.299
-482.391	333.687	0.201	0.390
-481.376	32.119	0.107	0.093
-480.362	307.965	0.116	-0.217
-479.347	63.899	0.060	0.060
-478.332	-159.525	0.142	0.008
-477.318	-110.540	0.235	-0.049
-476.303	-200.000	0.042	-0.376
-475.289	-124.223	0.041	-0.006
-474.274	800.000	-0.063	0.199
-473.259	-169.415	0.274	0.010
-472.245	376.483	0.049	-0.101
-471.230	-150.326	-0.179	-0.014
-470.216	25.011	-0.110	-0.091
-469.201	-200.000	-0.009	-0.119
-468.186	202.419	0.088	0.136
-467.172	-128.617	-0.205	0.029
-466.157	-80.938	0.028	-0.009
-465.143	173.088	0.094	-0.136
-464.128	-200.000	0.005	0.049
-463.113	-60.958	0.263	-0.112
-462.099	302.281	0.111	0.205
-461.084	-200.000	0.044	-0.324
-460.070	-172.577	-0.169	-0.005
-459.055	800.000	-0.046	-0.128
-458.040	-200.000	-0.025	0.128
-457.026	676.024	0.133	0.345
-456.011	-87.455	-0.102	0.031
-454.997	800.000	0.088	0.252
-453.982	800.000	-0.042	0.161
-452.968	-131.375	0.263	0.035
-451.953	-108.324	-0.110	-0.024
-450.938	-14.998	0.253	0.162
-449.924	-34.116	-0.228	0.125
-448.909	-163.315	0.044	-0.002
-447.895	-94.944	0.155	0.042
-446.880	-200.000	0.254	-0.001
-445.865	643.247	-0.065	0.166
-444.851	-200.000	0.000	-0.265
-443.836	291.366	-0.060	0.109
-442.822	-200.000	0.003	0.215
-441.807	-200.000	-0.004	0.197
-440.792	-200.000	-0.021	-0.108
-439.778	345.138	-0.066	-0.131
-438.763	-28.376	-0.249	0.144
-437.749	76.110	-0.086	0.092
-436.734	74.780	0.256	0.270
-435.719	-200.000	0.025	-0.127
-434.705	-100.767	0.214	-0.053
-433.690	79.738	0.163	0.175
-432.676	57.114	-0.178	-0.174
-431.661	800.000	-0.072	0.290
-430.646	-158.819	-0.437	-0.025
-429.632	-130.666	0.503	0.068
-428.617	51.680	-0.122	-0.117
-427.603	-109.217	0.170	-0.036
-426.588	-15.862	0.163	-0.104
-425.573	42.619	0.103	0.094
-424.559	-160.705	0.162	0.009
-423.544	36.442	-0.023	0.021
-422.530	-2.268	-0.180	0.126
-421.515	-200.000	-0.017	0.116
-420.500	800.000	-0.091	0.314
-419.486	800.000	0.164	0.486
-418.471	226.396	-0.201	-0.326
-417.457	-66.219	-0.155	-0.062
-416.442	399.333	0.148	-0.310
-415.428	-200.000	-0.014	-0.085
-414.413	800.000	-0.043	0.187
-413.398	-140.948	0.088	0.009
-412.384	-130.006	-0.031	0.004
-411.369	133.257	0.109	-0.140
-410.355	-51.470	0.481	-0.225
-409.340	-71.266	0.096	0.036
-408.325	138.177	-0.110	0.144
-407.311	60.083	-0.143	0.141
-406.296	800.000	-0.079	-0.234
-405.282	436.697	0.146	0.319
-404.267	-200.000	-0.018	-0.186
-403.252	-200.000	-0.038	-0.224
-402.238	133.558	-0.173	-0.224
-401.223	291.084	-0.186	-0.339
-400.209	26.650	0.149	-0.124
-399.194	-59.787	-0.316	-0.135
-398.179	-200.000	0.068	-0.341
-397.165	-200.000	0.035	0.282
-396.150	78.071	0.104	0.111
-395.136	-200.000	-0.018	-0.323
-394.121	18.114	0.145	-0.116
-393.106	9.300	0.172	-0.130
-392.092	-200.000	-0.017	-0.197
-391.077	-200.000	-0.028	-0.413
-390.063	96.316	0.100	0.114
-389.048	-49.864	-0.037	-0.018
-388.033	-32.043	-0.035	-0.020
-387.019	-68.010	-0.139	0.054
-386.004	-24.729	0.261	0.155
-384.990	98.663	-0.119	0.137
-383.975	800.000	-0.019	0.063
-382.960	-100.147	0.197	-0.049
-381.946	-76.244	-0.249	-0.088
-380.931	320.276	0.175	0.332
-379.917	800.000	0.020	0.065
-378.902	-107.980	0.394	0.086
-377.888	-200.000	-0.001	-0.207
-376.873	800.000	-0.088	-0.262
-375.858	33.239	-0.152	0.132
-374.844	-200.000	-0.012	0.119
-373.829	-200.000	0.013	-0.324
-372.815	-62.974	0.049	-0.020
-371.800	709.121	-0.061	0.160
-370.785	-98.344	0.254	-0.065
-369.771	174.989	0.218	0.315
-368.756	15.696	0.068	-0.053
-367.742	262.089	0.086	0.148
-366.727	-27.879	0.234	0.135
-365.712	200.374	-0.168	-0.258
-364.698	-89.661	-0.116	0.034
-363.683	77.768	-0.218	-0.232
-362.669	-200.000	-0.065	-0.354
-361.654	-53.458	-0.328	-0.150
-360.639	800.000	0.049	0.144
-359.625	-101.897	-0.174	0.042
-358.610	22.988	0.180	-0.147
-357.596	-200.000	0.020	0.161
-356.581	800.000	0.049	-0.211
-355.566	-200.000	0.022	-0.127
-354.552	800.000	0.049	0.196
-353.537	-94.849	-0.072	0.019
-352.523	-200.000	-0.029	0.141
-351.508	6.892	0.142	0.106
-350.493	74.755	-0.108	-0.114
-349.479	-180.682	-0.166	0.003
-348.464	-36.475	-0.262	-0.140
-347.450	-57.500	-0.237	-0.104
-346.435	-200.000	0.061	-0.303
-345.420	-47.222	-0.207	0.101
-344.406	-27.541	-0.289	0.167
-343.391	-85.059	-0.233	-0.073
-342.377	95.857	0.056	-0.064
-341.362	613.670	0.092	0.230
-340.348	407.144	-0.174	0.367
-339.333	800.000	-0.076	0.315
-338.318	-200.000	0.027	0.292
-337.304	705.895	0.089	0.235
-336.289	-79.707	-0.250	-0.084
-335.275	-99.855	-0.133	0.033
-334.260	224.366	0.193	-0.311
-333.245	-82.671	0.476	0.154
-332.231	-200.000	0.021	-0.244
-331.216	800.000	0.031	-0.091
-330.202	469.803	-0.132	0.296
-329.187	290.874	-0.072	-0.130
-328.172	-200.000	0.015	0.372
-327.158	-200.000	0.005	0.221
-326.143	-45.844	0.378	-0.186
-325.129	188.031	-0.132	-0.197
-324.114	-76.206	-0.221	0.078
-323.099	-128.318	0.379	0.054
-322.085	-84.297	-0.479	0.151
-321.070	-200.000	0.013	0.124
-320.056	169.735	-0.114	0.163
-319.041	-200.000	-0.004	0.439
-318.026	800.000	0.048	0.194
-317.012	1.714	-0.095	-0.068
-315.997	-200.000	0.040	-0.243
-314.983	-80.656	-0.141	0.047
-313.968	16.886	-0.170	-0.134
-312.953	800.000	-0.074	0.262
-311.939	800.000	0.032	0.122
-310.924	-162.573	-0.205	0.010
-309.910	204.128	-0.111	-0.171
-308.895	800.000	-0.051	-0.159
-307.880	800.000	-0.058	-0.166
-306.866	-200.000	0.032	-0.345
-305.851	-82.669	0.188	-0.061
-304.837	-71.459	-0.273	0.102
-303.822	44.775	0.034	-0.031
-302.807	345.428	0.149	-0.292
-301.793	-132.133	-0.076	-0.010
-300.778	57.984	0.086	-0.084
-299.764	-72.178	0.287	-0.106
-298.749	800.000	0.034	-0.136
-297.735	-169.837	0.166	0.006
-296.720	13.409	0.136	-0.105
-295.705	233.040	0.151	-0.247
-294.691	251.894	-0.078	-0.133
-293.676	-104.246	-0.067	-0.015
-292.662	545.665	0.104	-0.249
-291.647	40.638	0.071	-0.064
-290.632	245.683	-0.054	-0.090
-289.618	433.585	0.065	0.141
-288.603	345.096	0.092	0.180
-287.589	-200.000	0.017	0.266
-286.574	-123.166	-0.129	0.021
-285.559	254.608	-0.115	-0.197
-284.545	800.000	0.051	-0.205
-283.530	210.321	-0.196	-0.305
-282.516	18.984	-0.114	-0.091
-281.501	149.062	-0.100	0.134
-280.486	141.085	0.176	0.231
-279.472	444.966	0.106	-0.232
-278.457	-153.074	-0.227	-0.016
-277.443	-115.012	0.289	-0.055
-276.428	62.812	0.115	0.114
-275.413	-200.000	-0.021	0.122
-274.399	-73.268	-0.088	0.032
-273.384	-55.845	0.112	-0.050
-272.370	-106.567	0.289	-0.064
-271.355	800.000	-0.085	0.268
-270.340	209.603	-0.057	0.089
-269.326	31.058	-0.148	0.126
-268.311	75.988	0.285	0.300
-267.297	-36.523	-0.319	0.171
-266.282	-20.798	-0.169	0.103
-265.267	371.859	0.045	0.091
-264.253	-200.000	0.045	-0.247
-263.238	800.000	0.047	0.143
-262.224	-59.204	0.155	0.066
-261.209	90.605	-0.284	-0.316
-260.195	-33.227	-0.146	-0.080
-259.180	-102.109	-0.306	-0.073
-258.165	353.275	0.056	-0.110
-257.151	784.305	-0.089	-0.243
-256.136	155.747	-0.053	-0.073
-255.122	800.000	-0.131	-0.379
-254.107	-37.930	0.233	0.123
-253.092	-69.604	0.187	-0.071
-252.078	-56.756	-0.215	-0.094
-251.063	18.279	0.214	0.170
-250.049	480.674	0.031	0.070
-249.034	-35.264	0.110	0.059
-248.019	800.000	-0.047	0.198
-247.005	-67.916	-0.259	-0.101
-245.990	-127.808	0.237	-0.034
-244.976	-125.325	0.137	-0.021
-243.961	-186.606	0.265	-0.004
-242.946	-99.763	0.231	-0.058
-241.932	119.702	-0.062	-0.076
-240.917	-84.594	-0.115	-0.036
-239.903	-172.994	0.141	-0.004
-238.888	800.000	0.038	0.127
-237.873	-97.575	0.099	-0.026
-236.859	2.524	-0.220	0.158
-235.844	10.643	-0.202	-0.153
-234.830	-14.408	-0.405	-0.259
-233.815	328.903	-0.087	-0.167
-232.800	207.179	0.120	0.186
-231.786	158.546	0.102	-0.140
-230.771	-75.929	0.111	-0.039
-229.757	-90.046	-0.397	0.115
-228.742	-200.000	0.003	0.078
-227.727	-150.951	0.212	0.016
-226.713	-159.438	0.150	-0.008
-225.698	-19.380	-0.054	0.033
-224.684	38.894	-0.299	0.265
-223.669	800.000	-0.159	0.483
-222.655	-73.625	0.544	0.197
-221.640	-128.895	0.112	-0.016
-220.625	-57.120	0.332	0.145
-219.611	-200.000	-0.064	0.430
-218.596	-123.588	0.493	-0.078
-217.582	68.064	0.145	0.147
-216.567	800.000	-0.066	-0.263
-215.552	95.178	-0.151	-0.170
-214.538	-69.794	-0.286	0.108
-213.523	-200.000	0.027	-0.210
-212.509	182.457	0.115	0.168
-211.494	-114.703	0.329	-0.062
-210.479	90.193	0.207	-0.230
-209.465	79.656	0.294	-0.313
-208.450	-14.269	-0.256	0.163
-207.436	-25.620	-0.165	0.096
-206.421	-200.000	-0.051	-0.230
-205.406	63.992	0.203	-0.202
-204.392	44.239	-0.088	0.080
-203.377	136.850	0.066	0.085
-202.363	800.000	-0.034	0.136
-201.348	-35.101	-0.172	0.093
-200.333	-140.971	0.185	0.019
-199.319	321.377	-0.090	0.170
-198.304	-78.439	0.140	0.048
-197.290	-57.765	0.162	-0.070
-196.275	800.000	-0.044	0.147
-195.260	2.310	-0.073	0.052
-194.246	-130.049	0.219	-0.030
-193.231	48.948	-0.116	0.108
-192.217	77.001	0.151	-0.159
-191.202	-109.706	-0.112	0.023
-190.187	92.301	-0.175	-0.196
-189.173	-125.738	-0.229	0.034
-188.158	73.518	-0.206	0.214
-187.144	-132.207	-0.074	-0.010
-186.129	50.290	-0.069	-0.065
-185.114	-74.291	-0.335	0.120
-184.100	-30.333	0.024	-0.014
-183.085	258.770	-0.179	-0.305
-182.071	607.309	0.050	0.123
-181.056	-40.320	0.279	-0.144
-180.042	-14.184	-0.276	0.176
-179.027	-127.873	0.323	0.046
-178.012	215.703	-0.250	0.394
-176.998	-71.072	-0.173	0.064
-175.983	48.570	-0.159	-0.148
-174.969	231.985	-0.094	-0.152
-173.954	-77.734	-0.316	0.108
-172.939	-76.152	-0.138	-0.048
-171.925	114.677	0.031	0.038
-170.910	-121.389	0.110	0.018
-169.896	6.038	-0.038	0.028
-168.881	-200.000	-0.022	0.238
-167.866	-98.826	-0.137	-0.034
-166.852	83.507	-0.106	0.115
-165.837	-15.729	0.037	0.023
-164.823	-107.637	-0.095	-0.021
-163.808	188.161	-0.052	-0.077
-162.793	-200.000	0.012	0.106
-161.779	-87.768	-0.132	-0.039
-160.764	526.040	0.105	0.245
-159.750	-104.096	-0.229	0.053
-158.735	-104.641	-0.183	0.042
-157.720	-200.000	0.058	-0.500
-156.706	54.541	-0.194	-0.185
-155.691	344.870	-0.092	-0.180
-154.677	-36.475	-0.163	-0.087
-153.662	64.223	-0.300	0.299
-152.647	87.101	0.155	0.170
-151.633	118.300	0.111	-0.136
-150.618	64.281	0.121	0.121
-149.604	-200.000	0.002	0.093
-148.589	-200.000	0.048	0.211
-147.574	712.423	-0.108	-0.283
-146.560	12.503	0.220	-0.168
-145.545	425.843	-0.066	0.141
-144.531	-96.176	0.149	-0.039
-143.516	-135.147	0.290	0.034
-142.502	-137.586	0.092	0.010
-141.487	388.464	0.077	0.157
-140.472	-180.758	0.244	-0.005
-139.458	96.281	0.237	-0.268
-138.443	-119.639	0.414	-0.071
-137.429	-60.419	-0.257	0.108
-136.414	-200.000	0.023	0.250
-135.399	800.000	-0.065	-0.214
-134.385	196.664	0.219	-0.331
-133.370	-53.045	0.304	-0.138
-132.356	425.037	-0.040	0.085
-131.341	-62.049	0.181	0.075
-130.326	-200.000	0.004	0.288
-129.312	-200.000	-0.058	0.457
-128.297	-0.553	-0.335	0.235
-127.283	-53.135	-0.172	0.078
-126.268	-88.636	0.061	0.018
-125.253	-71.536	0.200	0.074
-124.239	-105.281	-0.213	0.048
-123.224	800.000	0.114	-0.311
-122.210	-6.756	0.272	-0.183
-121.195	-14.088	0.394	0.251
-120.180	-200.000	-0.018	0.153
-119.166	-86.694	0.101	0.031
-118.151	800.000	-0.024	-0.092
-117.137	-200.000	0.021	-0.135
-116.122	-84.362	0.063	-0.020
-115.107	-48.761	0.236	-0.112
-114.093	400.858	0.196	0.406
-113.078	205.092	0.159	-0.243
-112.064	163.919	0.155	-0.216
-111.049	-119.640	-0.081	-0.014
-110.034	800.000	0.060	-0.166
-109.020	-200.000	-0.036	0.181
-108.005	594.059	0.048	-0.117
-106.991	109.544	0.095	0.113
-105.976	76.438	-0.079	-0.083
-104.962	-200.000	-0.009	0.040
-103.947	-123.152	-0.270	0.043
-102.932	139.320	-0.058	0.075
-101.918	-144.166	0.437	0.040
-100.903	-31.019	-0.127	0.071
-99.889	-156.985	-0.248	0.015
-98.874	248.204	-0.064	0.106
-97.859	-200.000	-0.006	-0.116
-96.845	-193.302	0.482	0.004
-95.830	800.000	0.093	0.310
-94.816	-119.577	0.225	-0.038
-93.801	-53.405	-0.139	0.063
-92.786	800.000	0.077	-0.327
-91.772	100.258	-0.110	-0.126
-90.757	-67.134	-0.306	0.119
-89.743	-65.667	-0.207	-0.082
-88.728	84.368	0.135	-0.146
-87.713	184.959	0.289	-0.423
-86.699	125.931	0.203	-0.253
-85.684	-68.861	0.038	0.015
-84.670	-115.189	0.345	0.064
-83.655	800.000	-0.104	-0.285
-82.640	66.808	-0.141	0.142
-81.626	-76.591	0.072	0.025
-80.611	-200.000	-0.243	0.000
-79.597	64.660	0.211	-0.210
-78.582	387.545	0.100	-0.205
-77.567	-119.269	-0.171	-0.029
-76.553	-57.178	0.122	-0.053
-75.538	-124.386	0.289	0.045
-74.524	800.000	-0.089	0.258
-73.509	-0.579	-0.158	-0.111
-72.494	-133.677	-0.100	-0.012
-71.480	262.065	0.039	-0.066
-70.465	800.000	-0.096	-0.277
-69.451	543.879	-0.056	-0.131
-68.436	-183.207	-0.315	-0.005
-67.422	344.989	-0.156	0.302
-66.407	-22.426	0.049	-0.029
-65.392	-200.000	-0.008	0.226
-64.378	20.159	0.197	0.156
-63.363	800.000	0.074	-0.251
-62.349	-98.628	0.049	0.012
-61.334	109.687	-0.772	-0.912
-60.319	6.820	0.532	0.391
-59.305	311.079	-0.258	-0.477
-58.290	-200.000	0.239	1.202
-57.276	800.000	0.574	1.776
-56.261	-200.000	95.413	566.619
-55.246	631.244	1381.733	3448.383
-54.232	195.282	2563.149	3838.647
-53.217	119.982	2149.883	2628.349
-52.203	45.111	1611.560	1463.995
-51.188	37.109	1349.070	1177.186
-50.173	33.845	1306.964	1121.175
-49.159	56.129	1353.362	1295.126
-48.144	58.650	1370.533	1326.611
-47.130	37.187	1329.264	1160.187
-46.115	33.691	1311.580	1124.039
-45.100	33.536	1306.478	1118.712
-44.086	33.437	1304.368	1116.278
-43.071	33.376	1302.370	1114.160
-42.057	33.313	1300.525	1112.173
-41.042	33.392	1298.896	1111.194
-40.027	33.418	1297.725	1110.305
-39.013	33.454	1294.971	1108.111
-37.998	33.356	1293.849	1106.538
-36.984	33.574	1292.022	1106.199
-35.969	33.477	1290.157	1103.999
-34.954	33.517	1288.762	1102.990
-33.940	33.514	1287.420	1101.785
-32.925	33.592	1285.677	1100.697
-31.911	33.568	1284.576	1099.576
-30.896	33.541	1283.278	1098.265
-29.881	33.556	1281.984	1097.200
-28.867	33.685	1280.242	1096.412
-27.852	33.581	1279.028	1094.727
-26.838	33.637	1277.323	1093.547
-25.823	33.569	1276.032	1092.004
-24.809	33.514	1275.427	1091.129
-23.794	33.503	1273.517	1089.389
-22.779	33.589	1272.177	1088.691
-21.765	33.656	1270.970	1087.999
-20.750	33.584	1270.005	1086.717
-19.736	33.399	1268.485	1084.316
-18.721	33.547	1267.155	1083.980
-17.706	33.509	1265.831	1082.590
-16.692	33.433	1265.034	1081.428
-15.677	33.520	1263.452	1080.532
-14.663	33.511	1262.817	1079.893
-13.648	33.424	1261.662	1078.367
-12.633	33.347	1261.052	1077.364
-11.619	33.454	1260.195	1077.200
-10.604	33.374	1259.313	1075.946
-9.590	33.327	1258.517	1074.958
-8.575	33.285	1257.322	1073.657
-7.560	33.391	1256.510	1073.521
-6.546	33.428	1255.396	1072.736
-5.531	33.289	1255.009	1071.577
-4.517	33.418	1254.105	1071.493
-3.502	33.450	1252.980	1070.669
-2.487	33.385	1252.395	1069.758
-1.473	33.366	1248.443	1066.234
-0.458	31.914	1232.873	1044.814
0.556	27.609	1215.611	1005.770
1.571	23.707	1220.352	987.940
2.586	22.679	1236.003	994.728
3.600	21.880	1225.607	981.804
4.615	16.733	1153.968	897.136
5.629	8.605	1079.194	798.513
6.644	4.993	1059.324	766.016
7.659	4.718	1057.163	763.040
8.673	4.863	1055.887	762.762
9.688	4.776	1054.855	761.524
10.702	4.972	1053.039	761.102
11.717	9.359	1059.177	786.973
12.731	16.706	1069.608	830.834
13.746	19.503	1072.358	846.633
14.761	18.650	1070.487	840.903
15.775	17.664	1068.305	834.292
16.790	16.653	1066.302	827.713
17.804	15.846	1064.718	822.467
18.819	15.454	1063.917	819.864
19.834	15.276	1062.744	818.017
20.848	15.052	1061.995	816.276
21.863	14.899	1061.440	815.033
22.877	14.695	1060.284	813.079
23.892	14.653	1060.170	812.716
24.907	14.817	1058.779	812.374
25.921	14.877	1057.628	811.711
26.936	14.817	1056.812	810.718
27.950	14.886	1054.913	809.525
28.965	14.925	1053.232	808.352
29.980	15.051	1051.918	807.879
30.994	14.985	1050.882	806.698
32.009	15.116	1049.841	806.455
33.023	14.974	1049.054	805.099
34.038	14.845	1047.907	803.526
35.053	14.817	1047.349	802.894
36.067	14.947	1045.658	802.146
37.082	14.900	1045.161	801.471
38.096	15.034	1044.431	801.480
39.111	14.950	1043.533	800.321
40.126	14.911	1042.396	799.192
41.140	14.796	1040.722	797.287
42.155	14.601	1039.922	795.676
43.169	14.648	1038.905	795.052
44.184	14.593	1038.223	794.194
45.199	14.594	1036.913	793.130
46.213	14.762	1035.399	792.697
47.228	14.786	1034.906	792.363
48.242	14.904	1033.743	791.964
49.257	14.806	1033.166	790.988
50.271	14.839	1032.187	790.324
51.286	14.948	1031.004	789.864
52.301	14.869	1030.235	788.828
53.315	14.839	1029.317	787.917
54.330	14.733	1028.213	786.503
55.344	14.770	1027.478	786.043
56.359	14.762	1026.683	785.331
57.374	14.667	1025.969	784.269
58.388	14.604	1025.250	783.352
59.403	14.710	1023.720	782.612
60.417	14.594	1023.237	781.630
61.432	14.626	1022.145	780.877
62.447	14.563	1021.280	779.851
63.461	14.416	1020.838	778.755
64.476	14.505	1019.150	777.816
65.490	14.478	1018.826	777.372
66.505	14.579	1017.827	777.014
67.520	14.542	1017.615	776.609
68.534	14.668	1016.684	776.419
69.549	14.486	1016.178	775.115
70.563	14.497	1015.061	774.247
71.578	14.433	1014.526	773.472
72.593	14.510	1013.701	773.133
73.607	14.434	1012.733	771.973
74.622	14.418	1012.541	771.685
75.636	14.416	1011.909	771.125
76.651	14.417	1011.206	770.527
77.666	14.473	1010.359	770.072
78.680	14.481	1009.674	769.520
79.695	14.427	1009.389	768.985
80.709	14.618	1008.356	769.008
81.724	14.726	1007.938	769.119
82.739	14.729	1007.196	768.500
83.753	14.797	1006.609	768.299
84.768	15.028	1005.189	768.203
85.782	15.098	1004.546	767.966
86.797	15.092	1003.587	767.139
87.812	14.788	1003.110	765.315
88.826	14.933	1002.225	765.234
89.841	14.915	1001.313	764.387
90.855	14.977	1000.241	763.783
91.870	15.010	999.475	763.283
92.884	15.100	998.672	763.011
93.899	15.022	997.837	761.950
94.914	15.048	996.908	761.292
95.928	15.106	995.939	760.749
96.943	15.017	995.228	759.735
97.957	15.165	994.195	759.548
98.972	14.994	993.547	758.211
99.987	15.012	992.597	757.503
101.001	15.063	991.408	756.759
102.016	14.938	990.894	755.735
103.030	14.924	990.404	755.231
104.045	15.056	989.577	755.131
105.060	14.877	988.520	753.449
106.074	14.855	987.469	752.484
107.089	14.895	985.965	751.451
108.103	14.743	985.279	750.176
109.118	14.674	984.605	749.289
110.133	14.493	983.840	747.829
111.147	14.546	983.097	747.435
112.162	14.571	982.348	746.910
113.176	14.734	981.742	747.112
114.191	14.727	981.175	746.585
115.206	14.714	979.742	745.369
116.220	14.801	978.987	745.117
117.235	14.644	978.435	743.930
118.249	14.594	977.458	742.902
119.264	14.688	976.942	742.861
120.279	14.652	976.058	741.963
121.293	14.642	974.938	741.000
122.308	14.545	974.012	739.804
123.322	14.743	972.677	739.601
124.337	14.535	972.266	738.303
125.352	14.546	971.456	737.669
126.366	14.541	970.109	736.559
127.381	14.628	969.178	736.169
128.395	14.580	968.377	735.287
129.410	14.742	966.913	734.823
130.424	14.619	966.830	734.150
131.439	14.733	965.780	733.792
132.454	14.860	964.854	733.579
133.468	14.682	964.659	732.585
134.483	14.699	963.583	731.778
135.497	14.919	962.359	731.749
136.512	14.816	961.542	730.610
137.527	14.810	960.899	730.029
138.541	14.766	960.005	729.098
139.556	14.788	959.652	728.861
140.570	14.833	959.273	728.701
141.585	15.116	957.919	728.843
142.600	15.106	956.982	728.021
143.614	15.076	956.377	727.367
144.629	15.084	955.236	726.469
145.643	15.149	954.564	726.173
146.658	14.946	953.851	724.688
147.673	14.857	952.616	723.302
148.687	14.907	951.520	722.622
149.702	14.855	950.939	721.890
150.716	14.728	950.033	720.590
151.731	14.821	949.179	720.282
152.746	14.926	948.634	720.256
153.760	14.873	948.163	719.608
154.775	15.024	947.416	719.625
155.789	15.106	946.716	719.380
156.804	15.069	946.023	718.634
157.819	15.067	945.471	718.141
158.833	15.123	944.775	717.789
159.848	15.204	944.144	717.593
160.862	15.242	942.680	716.579
161.877	15.059	941.666	714.964
162.892	14.881	940.948	713.596
163.906	14.966	940.265	713.377
164.921	14.949	939.134	712.384
165.935	15.042	938.367	712.134
166.950	14.963	937.436	711.029
167.964	15.052	936.951	710.976
168.979	14.969	935.935	709.790
169.994	15.044	934.920	709.277
171.008	15.122	934.334	709.098
172.023	15.238	933.756	709.089
173.037	15.287	933.164	708.782
174.052	15.275	932.109	707.868
175.067	15.145	931.285	706.630
176.081	14.900	931.586	705.766
177.096	15.013	930.413	705.288
178.110	15.145	930.011	705.480
179.125	15.019	929.447	704.456
180.140	14.934	929.200	703.850
181.154	15.071	928.888	704.129
182.169	15.225	927.956	704.005
183.183	15.303	927.590	703.994
184.198	15.407	926.305	703.391
185.213	15.283	925.908	702.508
186.227	15.300	925.256	702.022
187.242	15.310	924.491	701.422
188.256	15.537	923.823	701.800
189.271	15.430	923.055	700.710
190.286	15.386	922.090	699.733
191.300	15.015	921.499	697.675
192.315	14.998	920.690	696.929
193.329	15.011	920.609	696.863
194.344	15.089	919.952	696.627
195.359	15.180	919.618	696.690
196.373	15.386	918.934	696.965
197.388	15.337	918.554	696.413
198.402	15.560	917.534	696.502
199.417	15.531	917.248	696.103
200.432	15.545	916.748	695.720
201.446	15.591	916.293	695.506
202.461	15.811	915.549	695.790
203.475	15.734	914.972	694.970
204.490	15.602	914.230	693.798
205.504	15.336	914.056	692.509
206.519	15.535	912.899	692.391
207.534	15.571	912.176	691.930
208.548	15.452	911.821	691.110
209.563	15.653	910.590	690.940
210.577	15.575	910.339	690.370
211.592	15.660	909.475	690.000
212.607	15.709	909.164	689.907
213.621	15.658	908.526	689.151
214.636	15.772	907.661	688.899
215.650	15.735	906.685	687.950
216.665	15.748	906.020	687.437
217.680	15.810	905.331	687.106
218.694	15.887	904.487	686.718
219.709	15.816	904.054	686.039
220.723	15.881	903.339	685.699
221.738	15.774	902.956	684.915
222.753	15.799	902.678	684.743
223.767	15.810	901.799	684.061
224.782	15.881	901.537	684.091
225.796	15.935	900.948	683.803
226.811	15.956	900.076	683.167
227.826	15.873	899.473	682.309
228.840	15.789	898.661	681.294
229.855	15.700	898.169	680.500
230.869	15.883	896.944	680.250
231.884	15.865	896.350	679.670
232.899	15.934	895.226	679.035
233.913	15.755	894.897	678.003
234.928	15.592	894.653	677.104
235.942	15.884	893.567	677.394
236.957	15.668	893.430	676.363
237.972	15.701	893.000	676.108
238.986	15.597	892.338	675.129
240.001	15.709	891.645	674.996
241.015	15.836	890.685	674.719
242.030	15.787	890.118	674.032
243.045	15.948	889.333	674.024
244.059	15.942	888.896	673.609
245.074	15.919	888.463	673.128
246.088	16.037	887.621	672.904
247.103	16.136	887.032	672.794
248.117	16.160	886.664	672.550
249.132	16.320	886.185	672.761
250.147	16.453	885.565	672.763
251.161	16.408	885.004	672.098
252.176	16.320	884.641	671.414
253.190	16.529	883.500	671.317
254.205	16.533	882.959	670.861
255.220	16.627	882.105	670.528
256.234	16.534	881.331	669.510
257.249	16.652	880.720	669.456
258.263	16.574	880.236	668.719
259.278	16.525	879.696	668.056
260.293	16.528	879.493	667.854
261.307	16.573	878.728	667.391
262.322	16.504	878.017	666.521
263.336	16.773	877.104	666.828
264.351	16.645	876.379	665.713
265.366	16.691	875.910	665.481
266.380	16.636	875.510	664.900
267.395	16.552	874.541	663.779
268.409	16.574	873.846	663.275
269.424	16.558	872.892	662.432
270.439	16.538	872.373	661.902
271.453	16.638	871.710	661.732
272.468	16.686	870.870	661.221
273.482	16.593	870.746	660.705
274.497	16.580	869.881	659.939
275.512	16.696	869.564	660.095
276.526	16.738	868.749	659.579
277.541	16.739	868.302	659.186
278.555	16.812	867.812	659.038
279.570	16.899	867.409	659.015
280.585	17.000	865.817	658.136
281.599	16.824	865.334	657.029
282.614	16.840	864.647	656.511
283.628	16.691	864.382	655.675
284.643	16.726	863.851	655.351
285.657	16.822	863.336	655.272
286.672	16.770	862.512	654.388
287.687	16.870	862.009	654.334
288.701	16.809	861.295	653.498
289.716	16.968	860.596	653.524
290.730	16.978	859.871	652.955
291.745	16.906	859.578	652.396
292.760	16.963	859.042	652.151
293.774	16.967	858.548	651.734
294.789	16.866	857.601	650.568
295.803	16.921	856.854	650.156
296.818	16.814	856.397	649.342
297.833	16.945	855.832	649.356
298.847	16.878	855.018	648.428
299.862	17.076	854.502	648.734
300.876	17.032	854.266	648.329
301.891	17.051	853.466	647.737
302.906	17.108	853.237	647.727
303.920	17.214	852.393	647.430
304.935	17.284	851.960	647.309
305.949	17.279	851.167	646.631
306.964	17.124	850.854	645.747
307.979	17.184	850.377	645.557
308.993	17.383	849.794	645.812
310.008	17.262	849.076	644.753
311.022	17.326	848.207	644.277
312.037	17.177	848.141	643.605
313.052	17.076	847.297	642.525
314.066	17.230	846.631	642.545
315.081	17.175	845.902	641.726
316.095	17.170	845.417	641.285
317.110	17.060	845.105	640.576
318.125	17.076	844.443	640.078
319.139	17.156	843.891	639.903
320.154	17.164	843.542	639.613
321.168	17.211	842.741	639.127
322.183	17.345	842.502	639.392
323.197	17.211	842.074	638.507
324.212	17.262	841.627	638.303
325.227	17.331	840.377	637.556
326.241	17.284	840.229	637.212
327.256	17.363	839.845	637.162
328.270	17.292	839.139	636.301
329.285	17.244	838.650	635.695
330.300	17.121	838.379	634.976
331.314	17.210	837.630	634.685
332.329	17.518	836.815	635.158
333.343	17.379	836.640	634.453
334.358	17.529	835.852	634.355
335.373	17.505	835.534	633.969
336.387	17.603	835.643	634.362
337.402	17.464	835.530	633.702
338.416	17.500	835.135	633.479
339.431	17.832	834.327	634.046
340.446	17.779	834.016	633.557
341.460	17.683	833.766	632.955
342.475	17.680	833.598	632.760
343.489	17.764	832.649	632.293
344.504	17.806	832.373	632.185
345.519	17.889	831.888	632.068
346.533	17.909	831.245	631.595
347.548	17.722	830.981	630.649
348.562	17.649	830.095	629.649
349.577	17.484	829.647	628.647
350.592	17.661	828.860	628.648
351.606	17.546	828.504	627.897
352.621	17.656	827.372	627.390
353.635	17.664	826.967	627.054
354.650	17.769	826.352	626.918
355.665	17.754	826.048	626.580
356.679	17.703	825.253	625.733
357.694	17.891	824.668	625.923
358.708	17.828	823.856	625.020
359.723	17.838	823.505	624.737
360.738	17.825	822.985	624.240
361.752	17.741	822.397	623.432
362.767	17.908	821.717	623.468
363.781	17.888	821.412	623.111
364.796	18.217	820.703	623.718
365.810	18.094	820.501	623.059
366.825	18.236	820.239	623.322
367.840	18.111	819.671	622.383
368.854	18.100	819.349	622.040
369.869	17.985	819.027	621.325
370.883	18.025	818.392	620.934
371.898	18.087	818.057	620.847
372.913	18.089	818.088	620.823
373.927	18.136	816.961	620.086
374.942	18.193	816.548	619.922
375.956	18.246	816.243	619.829
376.971	18.374	815.882	619.963
377.986	18.400	815.372	619.614
379.000	18.293	814.970	618.868
380.015	18.404	814.444	618.815
381.029	18.332	813.804	618.014
382.044	18.589	812.885	618.186
383.059	18.425	812.514	617.259
384.073	18.378	812.091	616.713
385.088	18.249	811.387	615.660
386.102	18.355	810.621	615.405
387.117	18.337	810.010	614.822
388.132	18.278	809.841	614.429
389.146	18.395	809.095	614.228
390.161	18.450	808.707	614.075
391.175	18.500	808.057	613.707
392.190	18.400	807.684	613.013
393.205	18.487	806.857	612.639
394.219	18.533	806.689	612.622
395.234	18.281	806.295	611.370
396.248	18.434	805.968	611.615
397.263	18.295	805.481	610.695
398.278	18.148	805.362	610.024
399.292	18.336	804.744	610.175
400.307	18.262	804.152	609.407
401.321	18.432	803.953	609.810
402.336	18.416	803.299	609.202
403.350	18.344	802.887	608.579
404.365	18.647	802.235	609.108
405.380	18.530	801.967	608.432
406.394	18.588	801.665	608.358
407.409	18.691	801.479	608.527
408.423	18.641	801.019	607.947
409.438	18.771	800.678	608.094
410.453	18.838	800.264	607.962
411.467	18.838	799.878	607.616
412.482	18.806	799.605	607.242
413.496	18.990	799.114	607.464
414.511	18.844	798.870	606.711
415.526	18.740	798.438	605.962
416.540	18.817	797.670	605.595
417.555	19.069	796.888	605.838
418.569	18.890	796.621	604.949
419.584	18.914	796.514	604.901
420.599	18.897	795.932	604.343
421.613	156.062	1371.156	1791.738
422.628	135.157	1454.959	1791.816
