DTS Sentinel unit serial number:	SN413079Multiplexer serial number:	ORYXHardware model number:	OX4-SRSoftware version number:	ORYX F/W v4.00 Oryx Data Collector v3.7.2.0data status	okinstallation	princeton_trtdifferential loss correction	single-endedforward channel	channel 1reverse channel	N/Adate	2019/09/19time	03:18:35forward acquisition time	60.00reverse acquisition time	0.00gamma	496.2192k internal	0.2344k external	0.2344temperature offset calibration	1.0015default loss term (dB/km)	0.3790temperature slope calibration	1.0000multiplexer offset coefficient	1.0000multiplexer slope coefficient	1.0000fibre end	0.00T internal ref (°C)	20.75T ext. ref 1 (°C)	0.64T ext. ref 2 (°C)	14.12length (m)	temperature (°C)	Stokes	anti-Stokes-747.200	-200.000	-0.006	0.028
-746.185	-126.055	0.127	0.019
-745.171	466.211	-0.113	-0.253
-744.156	26.591	0.109	-0.092
-743.142	-102.942	0.077	-0.018
-742.127	800.000	-0.089	0.309
-741.112	-200.000	0.028	0.332
-740.098	-200.000	0.010	0.294
-739.083	-200.000	0.026	0.356
-738.069	-34.680	-0.092	0.050
-737.054	-91.788	0.126	-0.036
-736.039	-200.000	0.003	0.081
-735.025	-91.456	0.383	-0.109
-734.010	-98.062	-0.430	0.111
-732.996	277.452	-0.142	-0.253
-731.981	-200.000	0.060	-0.297
-730.966	-56.996	0.143	0.063
-729.952	-24.127	-0.233	0.139
-728.937	-183.414	0.181	0.003
-727.923	-113.277	-0.301	0.059
-726.908	-116.501	-0.221	0.041
-725.894	-111.013	-0.200	-0.041
-724.879	-148.238	0.236	0.019
-723.864	-130.387	-0.241	0.033
-722.850	5.108	-0.120	-0.089
-721.835	363.966	-0.087	0.175
-720.821	56.640	-0.279	-0.271
-719.806	-66.114	0.237	-0.094
-718.791	-65.180	0.075	0.030
-717.777	503.948	-0.064	-0.148
-716.762	64.099	-0.190	-0.191
-715.748	59.214	-0.193	0.190
-714.733	-117.541	0.105	-0.019
-713.718	-98.698	-0.109	-0.028
-712.704	-148.310	-0.267	-0.022
-711.689	800.000	-0.141	-0.487
-710.675	-4.144	0.198	-0.137
-709.660	250.614	-0.068	0.116
-708.645	-200.000	0.013	-0.102
-707.631	800.000	0.105	0.431
-706.616	79.975	0.054	-0.058
-705.602	181.537	0.095	-0.140
-704.587	-200.000	0.037	-0.243
-703.572	103.551	-0.135	0.158
-702.558	-89.029	0.247	-0.073
-701.543	39.731	0.405	-0.363
-700.529	-116.057	0.228	0.042
-699.514	-200.000	-0.089	-0.547
-698.499	558.740	0.173	-0.416
-697.485	-74.041	-0.171	0.062
-696.470	6.352	-0.110	-0.081
-695.456	-200.000	0.029	-0.396
-694.441	65.102	0.160	-0.161
-693.426	-112.228	-0.230	0.046
-692.412	-200.000	0.021	0.166
-691.397	52.468	-0.090	-0.086
-690.383	56.364	0.119	0.116
-689.368	-49.922	-0.228	-0.108
-688.354	-198.174	-0.260	0.002
-687.339	275.633	-0.137	-0.242
-686.324	322.077	0.082	-0.156
-685.310	-200.000	0.002	-0.099
-684.295	-138.784	-0.116	-0.013
-683.281	146.505	-0.091	-0.121
-682.266	362.194	-0.159	0.319
-681.251	-87.980	-0.241	-0.072
-680.237	3.560	-0.101	-0.073
-679.222	800.000	-0.093	0.277
-678.208	-63.777	-0.416	0.170
-677.193	800.000	0.105	0.291
-676.178	-200.000	0.002	-0.063
-675.164	604.365	-0.046	0.115
-674.149	-32.778	-0.099	-0.055
-673.135	-79.542	-0.193	0.065
-672.120	-176.591	0.320	0.008
-671.105	-62.825	-0.033	-0.014
-670.091	800.000	-0.047	0.138
-669.076	780.706	-0.157	0.429
-668.062	-58.487	-0.289	-0.125
-667.047	42.436	-0.139	0.126
-666.032	390.613	-0.020	0.042
-665.018	-55.067	-0.256	-0.115
-664.003	372.554	0.128	-0.259
-662.989	223.914	0.290	-0.467
-661.974	174.310	0.107	-0.155
-660.959	496.156	-0.139	0.319
-659.945	18.216	0.120	-0.096
-658.930	-43.556	-0.084	-0.042
-657.916	800.000	-0.050	-0.172
-656.901	128.921	0.170	-0.217
-655.886	-122.294	-0.367	-0.060
-654.872	77.256	-0.417	-0.443
-653.857	255.839	0.151	0.258
-652.843	294.216	-0.118	-0.216
-651.828	121.589	0.105	0.131
-650.814	259.630	-0.070	-0.121
-649.799	-200.000	0.035	0.238
-648.784	-200.000	-0.030	0.144
-647.770	-165.498	0.310	-0.013
-646.755	198.017	-0.137	-0.209
-645.741	-13.095	-0.163	0.105
-644.726	-3.828	0.204	-0.141
-643.711	800.000	-0.103	0.355
-642.697	-165.363	-0.160	-0.007
-641.682	12.746	-0.015	0.011
-640.668	-8.842	-0.104	0.070
-639.653	-119.399	0.191	0.033
-638.638	-200.000	-0.020	0.208
-637.624	800.000	-0.074	0.221
-636.609	-200.000	0.036	0.311
-635.595	-200.000	0.021	0.229
-634.580	89.852	0.073	0.081
-633.565	-200.000	-0.013	-0.186
-632.551	662.617	-0.065	-0.167
-631.536	-102.606	-0.096	-0.023
-630.522	286.749	0.083	-0.150
-629.507	182.841	0.180	-0.265
-628.492	-113.286	-0.187	-0.037
-627.478	-200.000	0.019	-0.258
-626.463	-47.378	0.357	-0.173
-625.449	498.186	-0.079	0.180
-624.434	-143.501	-0.161	0.015
-623.419	800.000	0.040	0.118
-622.405	731.228	-0.055	-0.145
-621.390	-200.000	-0.003	0.082
-620.376	-77.572	0.239	0.082
-619.361	-200.000	-0.041	0.343
-618.346	800.000	-0.070	0.204
-617.332	800.000	-0.078	0.230
-616.317	-123.916	-0.392	0.061
-615.303	596.255	0.178	0.439
-614.288	134.312	-0.109	0.141
-613.273	31.941	0.067	0.058
-612.259	800.000	-0.097	-0.333
-611.244	107.584	-0.184	0.218
-610.230	317.003	-0.096	0.181
-609.215	13.786	-0.114	-0.088
-608.201	-200.000	0.052	-0.387
-607.186	515.888	0.082	-0.191
-606.171	-200.000	-0.055	-0.367
-605.157	-200.000	0.067	-0.359
-604.142	301.739	-0.082	-0.151
-603.128	-136.731	-0.026	-0.003
-602.113	-200.000	0.008	-0.234
-601.098	260.971	0.013	0.023
-600.084	55.701	0.149	-0.143
-599.069	368.842	0.038	-0.077
-598.055	-190.184	-0.069	-0.001
-597.040	-3.410	-0.059	0.041
-596.025	223.935	-0.137	-0.219
-595.011	-183.831	0.104	-0.002
-593.996	38.481	0.218	-0.193
-592.982	-44.090	0.211	-0.105
-591.967	-200.000	0.042	0.240
-590.952	180.584	-0.081	0.119
-589.938	-12.966	0.304	0.197
-588.923	29.142	0.082	-0.069
-587.909	-80.880	0.311	0.103
-586.894	-17.341	-0.068	0.042
-585.879	-115.365	0.066	0.012
-584.865	148.598	0.213	0.286
-583.850	44.984	0.035	-0.032
-582.836	-133.886	0.324	-0.040
-581.821	269.508	0.185	0.324
-580.806	-95.096	0.262	-0.070
-579.792	-83.035	-0.121	0.039
-578.777	34.101	-0.224	-0.194
-577.763	-200.000	-0.007	0.114
-576.748	-200.000	-0.010	-0.174
-575.733	-133.864	0.340	-0.042
-574.719	-59.519	-0.277	-0.118
-573.704	-200.000	-0.009	0.190
-572.690	-31.188	0.230	0.129
-571.675	-146.303	0.403	-0.035
-570.661	-64.389	0.100	0.041
-569.646	166.835	-0.137	-0.193
-568.631	211.114	0.318	-0.497
-567.617	57.108	0.333	-0.322
-566.602	87.337	-0.136	0.149
-565.588	-114.352	-0.357	0.068
-564.573	-200.000	0.000	0.125
-563.558	65.589	-0.226	0.227
-562.544	800.000	0.034	-0.127
-561.529	2.685	0.294	-0.212
-560.515	567.262	-0.027	-0.065
-559.500	254.753	0.096	0.163
-558.485	202.069	-0.096	-0.146
-557.471	-200.000	-0.038	-0.179
-556.456	800.000	0.106	0.313
-555.442	58.994	0.050	-0.049
-554.427	79.683	0.148	0.158
-553.412	-40.256	-0.280	-0.145
-552.398	261.421	0.123	0.211
-551.383	-200.000	0.009	-0.220
-550.369	-200.000	-0.021	-0.124
-549.354	-187.011	0.077	-0.001
-548.339	689.158	0.107	0.278
-547.325	-140.967	-0.404	-0.041
-546.310	-73.076	-0.177	-0.065
-545.296	-143.016	0.278	0.027
-544.281	-167.088	-0.251	0.010
-543.266	441.173	0.027	-0.059
-542.252	-200.000	0.054	0.362
-541.237	358.341	-0.058	0.114
-540.223	88.449	-0.107	-0.119
-539.208	800.000	-0.088	-0.247
-538.193	589.825	0.021	-0.052
-537.179	-200.000	-0.046	-0.204
-536.164	-104.257	-0.150	-0.035
-535.150	194.322	0.141	-0.213
-534.135	-14.083	-0.164	-0.105
-533.121	54.899	0.202	0.194
-532.106	10.832	-0.229	0.174
-531.091	-116.553	-0.132	0.024
-530.077	-62.308	0.154	0.063
-529.062	368.860	-0.030	-0.059
-528.048	50.484	-0.298	-0.280
-527.033	158.474	-0.069	-0.095
-526.018	-70.354	-0.374	0.141
-525.004	-200.000	-0.013	0.262
-523.989	-117.324	-0.171	-0.031
-522.975	-57.374	0.155	-0.068
-521.960	-0.166	0.243	-0.172
-520.945	-48.784	0.226	-0.107
-519.931	-67.163	0.238	0.093
-518.916	800.000	0.049	-0.137
-517.902	71.202	0.229	0.236
-516.887	160.948	-0.085	0.117
-515.872	-108.025	-0.266	0.057
-514.858	321.341	0.070	0.132
-513.843	-200.000	0.023	-0.110
-512.829	-59.060	0.140	-0.060
-511.814	-160.344	0.180	-0.010
-510.799	-25.932	-0.204	-0.119
-509.785	800.000	0.099	0.305
-508.770	131.510	0.064	0.082
-507.756	-146.264	-0.263	-0.023
-506.741	-140.482	0.292	0.030
-505.726	800.000	-0.039	-0.119
-504.712	269.985	0.061	0.106
-503.697	-200.000	-0.009	0.090
-502.683	-200.000	0.004	-0.173
-501.668	-57.352	0.104	-0.045
-500.653	11.950	-0.246	0.188
-499.639	64.563	-0.121	-0.121
-498.624	62.091	-0.132	-0.131
-497.610	-200.000	-0.043	0.226
-496.595	-129.346	0.260	-0.036
-495.581	-200.000	-0.002	-0.428
-494.566	0.287	0.052	-0.037
-493.551	-200.000	0.048	-0.306
-492.537	-113.910	-0.208	0.040
-491.522	49.169	-0.258	0.240
-490.508	800.000	0.024	-0.089
-489.493	-108.887	-0.126	0.027
-488.478	-200.000	0.013	-0.085
-487.464	-128.851	0.105	-0.015
-486.449	-121.756	-0.286	-0.047
-485.435	-86.801	-0.143	-0.043
-484.420	800.000	0.099	-0.293
-483.405	800.000	-0.033	-0.094
-482.391	-200.000	-0.054	0.293
-481.376	-170.707	0.125	-0.004
-480.362	5.223	-0.491	0.358
-479.347	800.000	0.039	-0.162
-478.332	-200.000	0.018	-0.084
-477.318	-80.443	0.175	0.058
-476.303	-200.000	-0.018	0.287
-475.289	170.166	-0.024	-0.035
-474.274	-71.058	0.120	-0.045
-473.259	-9.454	0.162	0.107
-472.245	48.502	0.160	0.148
-471.230	-131.738	-0.218	-0.028
-470.216	-47.597	0.319	0.154
-469.201	-35.030	-0.295	-0.159
-468.186	43.529	0.108	0.098
-467.172	450.772	0.046	-0.100
-466.157	-200.000	0.004	-0.280
-465.143	-80.623	-0.301	-0.099
-464.128	180.190	0.255	-0.371
-463.113	799.682	0.031	0.086
-462.099	15.168	-0.052	-0.041
-461.084	800.000	0.142	0.556
-460.070	-200.000	-0.024	0.210
-459.055	152.327	-0.164	0.221
-458.040	136.116	0.214	-0.276
-457.026	-200.000	-0.031	-0.236
-456.011	527.983	-0.086	-0.201
-454.997	613.593	0.087	0.216
-453.982	-200.000	0.058	-0.331
-452.968	614.353	-0.151	0.373
-451.953	-142.049	-0.193	0.019
-450.938	-61.678	-0.147	0.061
-449.924	-200.000	-0.021	0.371
-448.909	-60.776	0.391	-0.164
-447.895	49.878	-0.153	-0.143
-446.880	-26.041	0.366	0.213
-445.865	22.957	-0.025	-0.020
-444.851	-175.438	-0.582	-0.016
-443.836	-159.161	0.154	0.009
-442.822	-141.091	-0.314	-0.032
-441.807	-200.000	0.106	-0.000
-440.792	-97.218	-0.072	-0.019
-439.778	66.501	0.142	0.143
-438.763	800.000	0.047	-0.198
-437.749	-20.928	-0.393	-0.238
-436.734	-70.123	0.227	0.085
-435.719	-200.000	-0.233	-0.001
-434.705	-200.000	0.022	-0.154
-433.690	133.493	0.088	0.113
-432.676	-200.000	0.005	0.249
-431.661	-96.121	-0.225	0.059
-430.646	-44.699	-0.136	-0.067
-429.632	-24.491	0.321	-0.189
-428.617	-52.548	0.047	0.021
-427.603	800.000	-0.037	0.140
-426.588	-80.292	-0.192	-0.064
-425.573	-21.839	0.333	-0.200
-424.559	-200.000	0.002	0.114
-423.544	523.190	0.042	0.098
-422.530	-200.000	-0.003	0.119
-421.515	-55.465	-0.435	-0.193
-420.500	90.733	-0.217	0.241
-419.486	-156.068	0.047	0.003
-418.471	187.724	0.134	0.198
-417.457	-23.223	-0.095	-0.056
-416.442	-200.000	-0.030	-0.186
-415.428	800.000	0.099	0.307
-414.413	-91.733	0.161	0.045
-413.398	-200.000	-0.009	0.266
-412.384	72.849	-0.101	-0.104
-411.369	188.589	-0.101	0.149
-410.355	-200.000	0.076	0.555
-409.340	-200.000	-0.044	-0.198
-408.325	240.353	0.045	-0.075
-407.311	-153.675	-0.234	0.016
-406.296	-150.620	0.105	0.008
-405.282	-200.000	-0.019	-0.096
-404.267	678.097	0.031	-0.081
-403.252	69.024	0.142	0.144
-402.238	-200.000	-0.014	-0.174
-401.223	68.524	-0.172	0.174
-400.209	800.000	-0.058	-0.226
-399.194	-64.253	-0.197	0.079
-398.179	302.971	0.096	-0.175
-397.165	800.000	-0.146	-0.407
-396.150	264.768	-0.054	-0.093
-395.136	-35.814	0.129	0.069
-394.121	-92.248	0.053	-0.015
-393.106	-132.384	-0.242	0.031
-392.092	35.632	0.203	-0.176
-391.077	-48.828	-0.370	-0.175
-390.063	800.000	-0.063	0.173
-389.048	388.801	-0.120	0.246
-388.033	800.000	-0.100	0.289
-387.019	-158.169	-0.247	-0.014
-386.004	112.096	-0.211	-0.251
-384.990	-44.058	-0.318	0.158
-383.975	-49.398	-0.190	0.089
-382.960	-127.787	-0.201	0.029
-381.946	193.000	0.184	0.274
-380.931	227.497	-0.034	0.055
-379.917	800.000	-0.012	0.039
-378.902	-168.768	0.136	-0.005
-377.888	-200.000	0.021	-0.133
-376.873	254.857	0.071	0.121
-375.858	339.239	0.043	-0.083
-374.844	800.000	0.024	-0.094
-373.829	0.351	0.041	-0.029
-372.815	111.943	-0.202	0.241
-371.800	-59.545	-0.142	-0.060
-370.785	741.078	-0.068	0.181
-369.771	657.203	0.040	0.101
-368.756	23.648	0.283	0.230
-367.742	-40.054	0.398	0.205
-366.727	-106.584	0.329	-0.072
-365.712	-93.785	-0.373	-0.101
-364.698	-75.647	-0.313	-0.109
-363.683	800.000	0.041	-0.133
-362.669	1.950	-0.180	-0.128
-361.654	-200.000	0.042	-0.340
-360.639	-39.197	0.175	-0.091
-359.625	190.170	0.134	-0.198
-358.610	-112.542	0.126	-0.025
-357.596	168.597	0.138	-0.193
-356.581	800.000	-0.076	0.230
-355.566	-91.874	0.149	0.042
-354.552	-38.923	-0.193	-0.100
-353.537	-200.000	-0.028	0.267
-352.523	63.936	-0.069	-0.068
-351.508	292.862	-0.027	0.048
-350.493	444.579	-0.096	-0.208
-349.479	800.000	-0.074	-0.241
-348.464	-127.647	-0.244	-0.035
-347.450	-88.361	0.252	0.074
-346.435	-200.000	0.047	0.225
-345.420	800.000	-0.101	0.279
-344.406	358.971	0.051	0.100
-343.391	-7.743	-0.090	0.060
-342.377	51.175	0.172	-0.161
-341.362	-94.107	0.121	-0.033
-340.348	-200.000	-0.001	-0.060
-339.333	-72.904	0.273	0.099
-338.318	-2.447	0.266	-0.184
-337.304	800.000	0.058	-0.199
-336.289	-153.430	-0.106	0.007
-335.275	113.972	-0.182	0.219
-334.260	523.056	0.024	0.055
-333.245	-11.320	0.107	-0.069
-332.231	216.716	0.099	-0.155
-331.216	-10.473	-0.241	0.157
-330.202	163.276	0.072	0.100
-329.187	124.555	0.096	-0.119
-328.172	280.201	0.093	0.163
-327.158	278.810	0.069	0.122
-326.143	-165.397	-0.066	-0.003
-325.129	13.795	0.242	0.185
-324.114	23.214	-0.040	0.032
-323.099	371.449	-0.023	0.047
-322.085	61.679	-0.142	-0.140
-321.070	-200.000	-0.026	-0.143
-320.056	459.522	0.199	0.435
-319.041	800.000	0.032	-0.131
-318.026	229.188	0.117	0.187
-317.012	800.000	0.015	-0.059
-315.997	163.588	-0.281	-0.389
-314.983	0.726	0.168	0.118
-313.968	-18.335	0.258	-0.159
-312.953	-45.206	-0.267	0.131
-311.939	348.102	-0.113	0.219
-310.924	-20.530	-0.226	-0.136
-309.910	111.361	0.177	-0.209
-308.895	800.000	0.158	0.441
-307.880	-84.648	-0.204	-0.063
-306.866	180.622	-0.096	-0.139
-305.851	61.921	0.158	0.154
-304.837	191.457	-0.118	-0.174
-303.822	-12.044	-0.085	-0.055
-302.807	278.226	-0.119	-0.209
-301.793	-21.297	0.593	-0.356
-300.778	-200.000	0.004	-0.114
-299.764	800.000	0.032	0.097
-298.749	-120.962	0.394	-0.065
-297.735	-200.000	-0.014	-0.216
-296.720	800.000	0.025	-0.100
-295.705	-140.333	0.137	0.014
-294.691	111.378	-0.135	0.160
-293.676	-65.094	0.157	-0.062
-292.662	667.596	0.115	0.293
-291.647	-53.045	0.168	-0.076
-290.632	757.183	-0.036	0.095
-289.618	391.382	-0.090	0.184
-288.603	-200.000	-0.063	-0.281
-287.589	96.861	-0.276	0.311
-286.574	-88.309	0.095	-0.028
-285.559	-50.522	0.009	-0.004
-284.545	-96.302	0.270	-0.070
-283.530	91.548	-0.068	-0.075
-282.516	-1.013	0.006	0.004
-281.501	-200.000	-0.021	0.111
-280.486	-190.860	-0.075	0.001
-279.472	106.731	0.108	0.126
-278.457	153.633	-0.226	-0.304
-277.443	-163.655	0.057	0.003
-276.428	568.959	-0.085	-0.204
-275.413	-69.784	-0.234	0.088
-274.399	-82.376	0.301	-0.096
-273.384	-62.608	0.416	0.170
-272.370	-200.000	-0.002	-0.157
-271.355	-200.000	-0.043	0.308
-270.340	85.003	-0.287	0.309
-269.326	800.000	-0.066	0.225
-268.311	233.880	-0.114	0.184
-267.297	-37.722	-0.263	0.138
-266.282	57.906	0.183	0.176
-265.267	-111.793	-0.394	0.078
-264.253	93.960	-0.260	-0.290
-263.238	-129.641	0.088	-0.012
-262.224	-60.057	-0.227	-0.095
-261.209	-109.373	-0.296	-0.062
-260.195	-200.000	-0.035	-0.159
-259.180	408.377	-0.024	0.049
-258.165	-200.000	-0.003	-0.085
-257.151	-131.176	-0.221	0.029
-256.136	288.500	0.078	-0.138
-255.122	-200.000	-0.006	-0.100
-254.107	-200.000	0.001	-0.146
-253.092	-54.359	-0.115	0.051
-252.078	-38.533	-0.322	0.167
-251.063	-126.877	0.199	-0.029
-250.049	12.749	0.215	-0.163
-249.034	404.511	-0.110	-0.228
-248.019	126.915	-0.118	-0.147
-247.005	576.445	-0.014	0.033
-245.990	800.000	0.044	-0.127
-244.976	6.751	0.247	-0.180
-243.961	-200.000	0.006	0.149
-242.946	336.422	-0.250	0.477
-241.932	241.145	-0.211	-0.346
-240.917	117.229	0.173	-0.209
-239.903	449.422	-0.029	0.062
-238.888	578.039	-0.040	0.096
-237.873	14.202	0.208	0.159
-236.859	62.167	0.076	0.074
-235.844	-32.496	-0.316	-0.173
-234.830	-34.602	0.292	0.157
-233.815	-200.000	0.035	-0.176
-232.800	288.767	0.013	0.023
-231.786	250.980	0.216	-0.360
-230.771	-141.550	-0.228	0.023
-229.757	-200.000	-0.032	-0.227
-228.742	-34.204	-0.052	-0.028
-227.727	347.270	0.140	-0.270
-226.713	-117.772	0.326	0.057
-225.698	-136.672	-0.249	-0.028
-224.684	-200.000	-0.080	-0.373
-223.669	-200.000	0.014	-0.092
-222.655	800.000	0.053	-0.200
-221.640	99.836	0.178	0.202
-220.625	-199.535	0.149	-0.001
-219.611	-40.572	0.236	-0.120
-218.596	446.558	-0.098	-0.211
-217.582	-84.742	0.118	-0.037
-216.567	143.120	-0.100	-0.130
-215.552	-200.000	-0.019	0.095
-214.538	349.814	0.149	-0.288
-213.523	342.822	-0.185	-0.356
-212.509	-71.792	-0.210	-0.077
-211.494	148.496	-0.183	-0.242
-210.479	65.230	0.030	0.029
-209.465	48.763	0.218	0.201
-208.450	-31.058	-0.085	0.047
-207.436	-83.550	0.220	0.069
-206.421	-104.732	0.196	0.044
-205.406	303.561	0.109	0.198
-204.392	73.788	0.236	0.242
-203.377	-157.706	0.139	-0.008
-202.363	105.932	-0.257	0.299
-201.348	800.000	0.142	0.486
-200.333	58.126	-0.372	0.357
-199.319	-200.000	-0.053	-0.329
-198.304	800.000	-0.011	0.038
-197.290	33.588	-0.138	-0.118
-196.275	16.891	0.030	0.023
-195.260	312.586	0.219	-0.404
-194.246	800.000	-0.055	-0.161
-193.231	-177.488	0.262	0.006
-192.217	-196.347	0.290	-0.002
-191.202	126.594	0.112	-0.139
-190.187	61.154	0.173	0.168
-189.173	-71.987	-0.245	0.089
-188.158	127.731	0.201	0.250
-187.144	766.989	0.131	0.350
-186.129	-200.000	-0.027	-0.130
-185.114	255.709	-0.105	-0.176
-184.100	-124.316	0.273	0.042
-183.085	244.805	-0.026	0.042
-182.071	374.666	0.118	0.235
-181.056	-159.373	0.252	-0.014
-180.042	19.517	0.355	0.280
-179.027	53.026	-0.289	-0.270
-178.012	252.786	0.060	-0.100
-176.998	800.000	0.037	0.126
-175.983	37.847	-0.296	-0.257
-174.969	-188.359	-0.359	-0.004
-173.954	-11.517	-0.159	0.102
-172.939	-35.121	-0.347	0.185
-171.925	106.252	0.047	0.054
-170.910	-95.191	-0.220	-0.058
-169.896	-74.177	-0.071	-0.025
-168.881	32.674	0.171	-0.145
-167.866	555.151	-0.012	-0.028
-166.852	104.057	-0.104	0.119
-165.837	122.552	0.315	0.386
-164.823	315.268	0.093	0.171
-163.808	-89.930	-0.128	-0.037
-162.793	519.721	-0.089	0.204
-161.779	-48.628	-0.123	0.058
-160.764	-141.590	0.217	-0.021
-159.750	315.743	0.100	-0.185
-158.735	-102.635	-0.362	-0.084
-157.720	42.833	-0.181	-0.161
-156.706	-109.576	0.265	0.055
-155.691	664.475	-0.075	-0.190
-154.677	-200.000	0.047	0.251
-153.662	-109.797	0.298	-0.061
-152.647	-127.070	0.313	-0.045
-151.633	12.602	-0.189	0.142
-150.618	-41.547	-0.242	-0.122
-149.604	-135.337	-0.039	0.005
-148.589	-53.809	0.249	-0.111
-147.574	-113.203	-0.309	0.060
-146.560	-37.969	-0.085	-0.044
-145.545	702.988	0.058	0.150
-144.531	-132.783	0.251	-0.031
-143.516	33.775	-0.077	-0.065
-142.502	-200.000	0.016	0.132
-141.487	594.719	0.068	0.164
-140.472	-18.038	0.188	0.115
-139.458	-200.000	0.035	0.233
-138.443	299.439	0.050	-0.091
-137.429	323.848	-0.116	-0.217
-136.414	367.857	0.048	0.095
-135.399	800.000	-0.043	-0.138
-134.385	152.760	0.064	0.085
-133.370	-100.601	-0.223	-0.054
-132.356	189.114	0.183	-0.267
-131.341	-147.458	0.149	0.012
-130.326	-52.823	-0.167	0.075
-129.312	329.887	-0.145	0.272
-128.297	-8.214	0.285	0.187
-127.283	-65.494	0.164	0.064
-126.268	800.000	0.077	0.232
-125.253	609.298	0.056	-0.136
-124.239	284.034	0.127	0.223
-123.224	49.769	-0.237	0.218
-122.210	800.000	0.067	0.189
-121.195	800.000	0.085	0.320
-120.180	-55.475	0.151	-0.066
-119.166	320.564	0.077	-0.144
-118.151	228.114	-0.170	0.271
-117.137	-3.863	0.162	0.110
-116.122	-19.350	-0.068	-0.041
-115.107	-140.182	0.187	-0.019
-114.093	799.161	-0.087	0.235
-113.078	-95.359	0.344	0.090
-112.064	137.074	-0.159	-0.203
-111.049	263.740	-0.070	-0.119
-110.034	138.994	0.357	0.458
-109.020	-155.964	-0.106	-0.007
-108.005	-109.357	-0.169	-0.035
-106.991	51.869	0.088	0.082
-105.976	-77.309	0.235	0.080
-104.962	198.479	0.206	-0.308
-103.947	217.993	-0.059	0.092
-102.932	13.207	-0.295	0.223
-101.918	385.110	-0.092	0.185
-100.903	-200.000	-0.025	0.124
-99.889	-23.559	-0.174	-0.102
-98.874	-200.000	0.046	-0.252
-97.859	576.448	0.123	-0.292
-96.845	800.000	0.123	-0.392
-95.830	268.159	-0.071	-0.122
-94.816	138.466	-0.216	0.277
-93.801	800.000	-0.089	-0.335
-92.786	156.534	0.212	0.286
-91.772	425.917	0.136	-0.286
-90.757	319.593	0.095	0.176
-89.743	-164.166	0.105	-0.005
-88.728	82.460	0.076	0.081
-87.713	217.621	-0.221	0.343
-86.699	-200.000	-0.028	-0.120
-85.684	-104.632	0.164	-0.037
-84.670	160.437	0.199	0.270
-83.655	40.064	-0.349	0.306
-82.640	800.000	-0.030	-0.107
-81.626	-72.299	-0.138	-0.050
-80.611	-39.860	0.153	0.078
-79.597	-200.000	-0.009	0.321
-78.582	83.327	-0.076	-0.081
-77.567	544.101	-0.152	0.355
-76.553	-200.000	0.004	-0.323
-75.538	-5.845	-0.129	0.086
-74.524	216.555	-0.174	-0.271
-73.509	800.000	-0.133	0.380
-72.494	111.872	-0.233	0.274
-71.480	29.917	-0.194	-0.161
-70.465	-60.697	-0.153	0.063
-69.451	258.566	-0.061	0.103
-68.436	-200.000	-0.004	0.061
-67.422	-58.137	0.338	0.144
-66.407	-123.915	-0.074	-0.011
-65.392	800.000	-0.075	-0.281
-64.378	-200.000	-0.035	-0.437
-63.363	800.000	0.056	0.221
-62.349	31.884	0.140	0.118
-61.334	60.141	-1.524	-1.468
-60.319	139.114	0.712	0.912
-59.305	489.573	-0.629	-1.401
-58.290	269.287	0.766	1.310
-57.276	332.278	0.944	1.775
-56.261	-200.000	136.284	673.437
-55.246	336.568	1676.376	3171.186
-54.232	134.212	2801.981	3537.712
-53.217	86.611	2173.432	2335.553
-52.203	31.792	1603.295	1344.477
-51.188	23.853	1352.757	1086.055
-50.173	21.628	1317.334	1044.319
-49.159	49.340	1390.597	1273.931
-48.144	45.499	1399.614	1258.578
-47.130	23.969	1347.397	1082.285
-46.115	20.977	1327.897	1048.617
-45.100	20.684	1323.140	1043.059
-44.086	20.579	1320.031	1039.941
-43.071	20.598	1317.831	1038.279
-42.057	20.572	1316.079	1036.704
-41.042	20.620	1313.970	1035.288
-40.027	20.651	1313.044	1034.698
-39.013	20.668	1310.833	1033.015
-37.998	20.633	1308.961	1031.294
-36.984	20.641	1307.623	1030.247
-35.969	20.718	1305.654	1029.110
-34.954	20.771	1303.949	1028.037
-33.940	20.715	1303.082	1026.981
-32.925	20.732	1301.632	1025.902
-31.911	20.813	1299.901	1024.970
-30.896	20.811	1298.124	1023.517
-29.881	20.760	1297.386	1022.596
-28.867	20.794	1295.887	1021.570
-27.852	20.900	1294.391	1020.975
-26.838	20.871	1293.169	1019.799
-25.823	20.794	1291.889	1018.300
-24.809	20.868	1290.243	1017.393
-23.794	20.854	1288.987	1016.279
-22.779	20.749	1287.944	1014.809
-21.765	20.817	1286.682	1014.169
-20.750	20.832	1285.218	1013.063
-19.736	20.866	1283.816	1012.111
-18.721	20.688	1282.659	1010.127
-17.706	20.719	1282.312	1009.994
-16.692	20.765	1280.798	1009.029
-15.677	20.628	1279.651	1007.293
-14.663	20.748	1278.198	1006.801
-13.648	20.817	1277.313	1006.461
-12.633	20.773	1276.399	1005.451
-11.619	20.709	1275.531	1004.354
-10.604	20.693	1274.814	1003.662
-9.590	20.785	1274.177	1003.650
-8.575	20.667	1272.779	1001.829
-7.560	20.685	1272.218	1001.452
-6.546	20.657	1271.678	1000.823
-5.531	20.789	1270.177	1000.361
-4.517	20.809	1269.419	999.838
-3.502	20.615	1269.030	998.380
-2.487	20.661	1267.923	997.732
-1.473	20.648	1263.366	994.034
-0.458	18.969	1248.235	972.601
0.556	14.391	1232.639	934.841
1.571	10.834	1241.035	920.999
2.586	10.213	1256.819	929.065
3.600	10.380	1244.386	920.741
4.615	7.790	1172.501	853.594
5.629	2.788	1103.954	778.297
6.644	0.841	1087.584	756.951
7.659	0.574	1085.921	754.392
8.673	0.541	1085.097	753.590
9.688	0.604	1083.412	752.667
10.702	0.700	1081.025	751.417
11.717	3.632	1084.262	768.206
12.731	9.955	1092.324	805.463
13.746	15.271	1099.781	837.517
14.761	17.153	1101.580	848.222
15.775	16.574	1099.811	843.894
16.790	15.611	1097.880	837.541
17.804	14.841	1096.277	832.410
18.819	14.400	1095.478	829.536
19.834	14.241	1094.595	828.001
20.848	13.995	1093.568	825.928
21.863	13.775	1092.325	823.828
22.877	13.662	1091.456	822.538
23.892	13.620	1091.234	822.089
24.907	13.624	1090.494	821.477
25.921	13.643	1089.762	820.947
26.936	13.734	1088.356	820.265
27.950	13.756	1087.384	819.572
28.965	13.702	1086.741	818.747
29.980	13.863	1085.128	818.255
30.994	13.827	1084.627	817.628
32.009	13.838	1083.323	816.623
33.023	13.826	1082.317	815.735
34.038	13.814	1081.101	814.684
35.053	13.746	1080.618	813.916
36.067	13.808	1079.394	813.228
37.082	13.783	1078.546	812.393
38.096	13.833	1077.996	812.150
39.111	13.726	1077.379	811.093
40.126	13.730	1075.980	809.986
41.140	13.677	1074.895	808.842
42.155	13.748	1073.049	807.727
43.169	13.590	1072.720	806.635
44.184	13.564	1071.905	805.828
45.199	13.574	1070.234	804.549
46.213	13.568	1069.367	803.793
47.228	13.656	1068.545	803.534
48.242	13.511	1067.502	801.975
49.257	13.673	1066.225	801.727
50.271	13.729	1065.407	801.311
51.286	13.709	1064.062	800.133
52.301	13.681	1063.270	799.331
53.315	13.662	1062.471	798.572
54.330	13.703	1061.083	797.654
55.344	13.584	1060.465	796.546
56.359	13.635	1059.777	796.202
57.374	13.622	1058.806	795.343
58.388	13.578	1057.907	794.385
59.403	13.547	1057.173	793.614
60.417	13.543	1056.477	793.003
61.432	13.628	1055.512	792.615
62.447	13.521	1054.891	791.567
63.461	13.567	1053.706	790.827
64.476	13.552	1052.875	790.061
65.490	13.537	1051.516	788.900
66.505	13.601	1051.040	788.781
67.520	13.616	1050.114	788.084
68.534	13.708	1049.573	788.047
69.549	13.651	1049.103	787.354
70.563	13.694	1048.222	786.824
71.578	13.615	1047.328	785.712
72.593	13.453	1046.913	784.563
73.607	13.521	1045.930	784.080
74.622	13.581	1045.129	783.695
75.636	13.530	1044.589	782.975
76.651	13.498	1044.031	782.339
77.666	13.514	1043.425	781.892
78.680	13.590	1042.324	781.355
79.695	13.526	1042.017	780.753
80.709	13.472	1041.221	779.836
81.724	13.572	1040.876	779.979
82.739	13.687	1039.541	779.449
83.753	13.712	1038.950	779.054
84.768	13.878	1037.892	778.971
85.782	13.746	1037.082	777.675
86.797	13.755	1036.498	777.210
87.812	13.713	1035.296	776.042
88.826	13.866	1033.896	775.642
89.841	13.928	1032.693	774.957
90.855	13.700	1032.893	773.978
91.870	13.863	1031.533	773.650
92.884	13.770	1031.053	772.786
93.899	13.884	1029.626	772.178
94.914	13.914	1029.176	771.913
95.928	13.865	1028.450	771.073
96.943	13.777	1027.669	770.010
97.957	13.828	1026.742	769.483
98.972	13.889	1025.628	768.866
99.987	13.735	1025.172	767.740
101.001	13.814	1024.136	767.261
102.016	13.781	1022.912	766.126
103.030	13.850	1022.082	765.756
104.045	13.922	1021.221	765.374
105.060	13.734	1021.099	764.347
106.074	13.713	1019.841	763.244
107.089	13.776	1018.413	762.394
108.103	13.611	1018.060	761.303
109.118	13.737	1016.646	760.760
110.133	13.619	1016.272	759.870
111.147	13.619	1015.481	759.210
112.162	13.721	1014.378	758.789
113.176	13.754	1013.513	758.223
114.191	13.806	1012.979	757.995
115.206	13.864	1012.058	757.503
116.220	13.807	1011.300	756.611
117.235	13.737	1010.336	755.503
118.249	13.800	1009.438	755.049
119.264	13.741	1008.994	754.382
120.279	13.703	1007.819	753.267
121.293	13.685	1006.820	752.371
122.308	13.773	1005.894	752.010
123.322	13.798	1004.868	751.292
124.337	13.610	1004.100	749.799
125.352	13.722	1002.697	749.193
126.366	13.751	1001.530	748.384
127.381	13.682	1000.964	747.582
128.395	13.719	999.895	746.887
129.410	13.734	998.934	746.167
130.424	13.789	998.133	745.750
131.439	13.771	997.405	745.062
132.454	13.713	996.852	744.320
133.468	13.728	996.036	743.712
134.483	13.794	995.018	743.183
135.497	13.784	994.082	742.374
136.512	13.803	993.398	741.882
137.527	13.911	992.192	741.400
138.541	13.826	991.601	740.512
139.556	13.848	990.205	739.503
140.570	13.809	990.153	739.225
141.585	14.022	988.728	739.040
142.600	14.068	987.972	738.616
143.614	14.075	987.268	738.056
144.629	13.968	986.948	737.277
145.643	13.876	985.862	735.993
146.658	13.981	984.783	735.588
147.673	13.894	983.912	734.488
148.687	13.907	983.168	733.924
149.702	13.992	982.231	733.533
150.716	13.953	981.091	732.446
151.731	13.970	980.968	732.365
152.746	13.865	980.354	731.378
153.760	14.015	979.479	731.322
154.775	13.970	979.119	730.789
155.789	14.090	978.173	730.546
156.804	14.136	977.352	730.070
157.819	14.018	977.040	729.256
158.833	14.145	975.994	728.965
159.848	14.143	975.260	728.342
160.862	14.058	974.388	727.254
161.877	14.004	973.619	726.381
162.892	14.061	972.683	725.867
163.906	14.067	971.696	725.095
164.921	14.042	970.983	724.388
165.935	14.124	969.918	723.886
166.950	14.090	968.990	722.984
167.964	14.161	968.379	722.769
168.979	14.152	967.537	722.039
169.994	14.167	966.455	721.232
171.008	14.107	966.062	720.616
172.023	14.242	964.826	720.216
173.037	14.301	964.227	719.961
174.052	14.174	963.573	718.860
175.067	14.132	963.151	718.300
176.081	14.251	962.392	718.182
177.096	14.175	961.806	717.353
178.110	14.181	961.341	716.971
179.125	14.246	960.156	716.304
180.140	14.204	959.981	715.926
181.154	14.234	959.317	715.500
182.169	14.411	958.456	715.551
183.183	14.352	958.085	714.958
184.198	14.339	957.429	714.350
185.213	14.396	956.381	713.749
186.227	14.371	955.633	713.020
187.242	14.485	954.874	712.880
188.256	14.528	954.160	712.465
189.271	14.526	953.384	711.815
190.286	14.384	952.701	710.637
191.300	14.316	952.059	709.807
192.315	14.194	951.615	708.894
193.329	14.330	950.972	708.929
194.344	14.312	950.317	708.303
195.359	14.385	949.871	708.215
196.373	14.405	949.133	707.689
197.388	14.512	948.490	707.601
198.402	14.487	947.948	707.029
199.417	14.490	947.230	706.442
200.432	14.641	946.955	706.812
201.446	14.559	946.292	705.912
202.461	14.736	945.643	706.112
203.475	14.699	945.196	705.561
204.490	14.599	944.524	704.574
205.504	14.585	943.792	703.904
206.519	14.457	943.472	703.066
207.534	14.530	942.341	702.469
208.548	14.635	941.592	702.288
209.563	14.545	941.316	701.642
210.577	14.719	940.397	701.628
211.592	14.736	939.396	700.889
212.607	14.757	938.576	700.304
213.621	14.852	937.860	700.104
214.636	14.736	937.645	699.397
215.650	14.760	936.562	698.627
216.665	14.810	935.990	698.348
217.680	14.877	935.116	697.915
218.694	14.847	934.561	697.312
219.709	14.896	934.045	697.068
220.723	14.870	933.446	696.453
221.738	14.805	933.100	695.860
222.753	14.974	931.633	695.411
223.767	14.923	931.517	695.048
224.782	15.053	930.301	694.622
225.796	14.942	930.558	694.290
226.811	14.917	929.997	693.705
227.826	15.046	928.800	693.287
228.840	14.939	928.271	692.386
229.855	14.991	927.076	691.650
230.869	15.005	926.357	691.111
231.884	14.950	925.568	690.231
232.899	15.067	924.858	690.125
233.913	14.982	923.900	688.997
234.928	15.060	923.123	688.681
235.942	15.053	923.127	688.592
236.957	14.952	922.523	687.667
237.972	14.995	921.601	687.093
238.986	15.018	921.138	686.783
240.001	14.883	920.968	686.043
241.015	15.022	919.639	685.560
242.030	15.141	919.527	685.902
243.045	15.144	918.646	685.199
244.059	15.185	918.075	684.878
245.074	15.191	917.398	684.337
246.088	15.305	916.505	684.077
247.103	15.212	915.958	683.230
248.117	15.312	915.244	683.040
249.132	15.325	915.062	682.898
250.147	15.269	913.891	681.737
251.161	15.319	913.523	681.606
252.176	15.360	912.867	681.223
253.190	15.282	912.253	680.386
254.205	15.445	911.514	680.437
255.220	15.408	911.004	679.844
256.234	15.489	910.492	679.733
257.249	15.462	909.554	678.863
258.263	15.381	908.865	677.959
259.278	15.553	907.978	677.934
260.293	15.439	907.936	677.383
261.307	15.636	906.850	677.304
262.322	15.529	906.178	676.311
263.336	15.605	905.981	676.412
264.351	15.696	905.019	676.000
265.366	15.762	904.077	675.503
266.380	15.553	903.911	674.478
267.395	15.741	903.001	674.492
268.409	15.746	901.844	673.591
269.424	15.767	900.814	672.845
270.439	15.773	900.604	672.652
271.453	15.732	899.917	671.916
272.468	15.748	899.481	671.593
273.482	15.652	899.270	670.996
274.497	15.593	898.520	670.141
275.512	15.859	897.683	670.514
276.526	15.795	896.901	669.620
277.541	15.778	896.582	669.254
278.555	15.746	896.242	668.811
279.570	15.946	895.465	668.970
280.585	15.753	894.895	667.719
281.599	15.830	893.913	667.231
282.614	15.781	893.281	666.505
283.628	15.865	892.666	666.322
284.643	15.872	892.096	665.864
285.657	15.906	891.276	665.326
286.672	15.956	890.746	665.069
287.687	16.001	890.141	664.737
288.701	15.888	889.724	663.920
289.716	15.999	889.238	663.936
290.730	16.043	888.297	663.350
291.745	16.032	887.675	662.783
292.760	16.054	887.116	662.395
293.774	16.061	886.344	661.785
294.789	16.080	885.982	661.532
295.803	15.973	885.201	660.470
296.818	16.064	884.394	660.167
297.833	16.026	883.858	659.560
298.847	16.126	882.917	659.188
299.862	16.309	882.425	659.479
300.876	16.179	881.913	658.528
301.891	16.257	881.370	658.371
302.906	16.340	880.802	658.213
303.920	16.306	880.396	657.716
304.935	16.280	879.598	656.961
305.949	16.319	878.803	656.463
306.964	16.314	878.507	656.163
307.979	16.361	878.354	656.174
308.993	16.230	877.589	655.035
310.008	16.427	877.367	655.576
311.022	16.329	876.204	654.271
312.037	16.422	875.747	654.230
313.052	16.431	875.311	653.880
314.066	16.352	874.898	653.211
315.081	16.394	873.936	652.596
316.095	16.280	873.467	651.748
317.110	16.474	872.795	651.935
318.125	16.375	872.339	651.158
319.139	16.397	871.680	650.693
320.154	16.377	871.724	650.589
321.168	16.459	870.330	649.807
322.183	16.497	870.053	649.691
323.197	16.460	869.829	649.324
324.212	16.444	869.474	648.939
325.227	16.481	868.539	648.327
326.241	16.397	868.242	647.723
327.256	16.472	867.375	647.309
328.270	16.558	866.549	646.963
329.285	16.541	866.061	646.477
330.300	16.476	866.001	646.127
331.314	16.579	865.126	645.809
332.329	16.630	864.661	645.598
333.343	16.670	863.913	645.137
334.358	16.705	863.790	645.119
335.373	16.750	863.190	644.786
336.387	16.666	863.064	644.315
337.402	16.638	862.934	644.054
338.416	16.696	862.264	643.717
339.431	16.583	862.349	643.294
340.446	16.721	861.672	643.258
341.460	16.815	860.963	643.028
342.475	16.735	860.904	642.624
343.489	16.823	860.457	642.566
344.504	16.837	859.927	642.167
345.519	16.977	859.405	642.252
346.533	16.954	858.315	641.291
347.548	16.993	857.705	640.926
348.562	16.860	857.501	640.214
349.577	16.927	857.059	640.081
350.592	16.713	856.667	638.924
351.606	16.791	855.347	638.179
352.621	16.936	854.811	638.267
353.635	16.922	854.183	637.690
354.650	16.951	853.700	637.380
355.665	16.998	852.942	636.934
356.679	16.904	852.462	636.167
357.694	17.142	851.451	636.250
358.708	17.044	851.066	635.540
359.723	17.022	850.448	634.939
360.738	16.955	850.063	634.342
361.752	16.975	849.654	634.058
362.767	17.231	848.655	634.211
363.781	17.276	848.485	634.197
364.796	17.149	847.667	633.056
365.810	17.089	847.692	632.792
366.825	17.185	847.049	632.614
367.840	17.176	846.619	632.204
368.854	17.079	846.060	631.369
369.869	17.062	845.617	630.921
370.883	17.215	845.281	631.183
371.898	17.446	844.726	631.571
372.913	17.330	844.438	630.869
373.927	17.267	844.173	630.383
374.942	17.380	843.334	630.116
375.956	17.373	843.251	629.974
376.971	17.388	842.622	629.505
377.986	17.440	842.069	629.228
379.000	17.455	841.229	628.599
380.015	17.498	841.406	628.833
381.029	17.735	840.085	628.667
382.044	17.644	839.826	628.080
383.059	17.492	839.397	627.144
384.073	17.482	838.879	626.664
385.088	17.561	838.211	626.402
386.102	17.600	837.340	625.840
387.117	17.627	836.864	625.525
388.132	17.591	836.147	624.801
389.146	17.524	835.971	624.371
390.161	17.586	835.805	624.418
391.175	17.463	835.578	623.744
392.190	17.509	834.151	622.791
393.205	17.564	833.928	622.769
394.219	17.599	833.814	622.756
395.234	17.499	833.374	622.010
396.248	17.630	832.694	621.926
397.263	17.480	832.604	621.254
398.278	17.474	832.309	620.958
399.292	17.635	831.582	620.947
400.307	17.609	830.920	620.303
401.321	17.747	830.253	620.251
402.336	17.708	830.140	619.972
403.350	17.715	829.723	619.630
404.365	17.762	829.064	619.253
405.380	17.803	828.466	618.901
406.394	17.768	827.973	618.352
407.409	17.827	827.598	618.229
408.423	17.855	827.671	618.333
409.438	17.885	827.135	617.985
410.453	17.989	826.566	617.883
411.467	18.006	825.952	617.430
412.482	17.861	825.748	616.699
413.496	17.915	825.376	616.562
414.511	18.051	824.852	616.606
415.526	18.075	824.299	616.226
416.540	18.109	824.029	616.090
417.555	18.030	823.259	615.177
418.569	18.051	822.967	614.977
419.584	18.028	822.596	614.565
420.599	17.960	821.962	613.794
421.613	115.733	1301.853	1492.163
422.628	100.467	1371.697	1492.213
