DTS Sentinel unit serial number:	SN413079Multiplexer serial number:	ORYXHardware model number:	OX4-SRSoftware version number:	ORYX F/W v4.00 Oryx Data Collector v3.7.2.0data status	okinstallation	princeton_trtdifferential loss correction	single-endedforward channel	channel 1reverse channel	N/Adate	2019/09/13time	12:14:35forward acquisition time	60.00reverse acquisition time	0.00gamma	496.2192k internal	0.2309k external	0.2309temperature offset calibration	1.0169default loss term (dB/km)	0.3790temperature slope calibration	1.0000multiplexer offset coefficient	1.0000multiplexer slope coefficient	1.0000fibre end	0.00T internal ref (°C)	34.00T ext. ref 1 (°C)	4.61T ext. ref 2 (°C)	31.27length (m)	temperature (°C)	Stokes	anti-Stokes-747.200	111.686	0.077	0.094
-746.185	-78.919	0.216	0.075
-745.171	-200.000	0.072	0.616
-744.156	-31.450	-0.169	-0.096
-743.142	539.812	0.106	0.257
-742.127	-7.706	0.220	0.151
-741.112	-121.458	-0.094	-0.016
-740.098	-200.000	0.050	0.326
-739.083	458.793	0.046	-0.104
-738.069	480.908	-0.027	0.062
-737.054	-5.114	-0.148	-0.103
-736.039	800.000	0.028	-0.081
-735.025	293.462	0.104	0.192
-734.010	800.000	-0.114	-0.353
-732.996	179.065	0.171	-0.254
-731.981	-162.583	-0.208	-0.010
-730.966	694.951	-0.110	0.293
-729.952	-92.399	-0.139	0.040
-728.937	-19.782	0.163	0.102
-727.923	-200.000	-0.477	0.000
-726.908	18.669	-0.201	0.164
-725.894	-78.311	-0.213	-0.074
-724.879	-104.077	-0.138	0.033
-723.864	800.000	-0.086	-0.266
-722.850	106.288	0.195	-0.235
-721.835	22.484	0.040	0.033
-720.821	-200.000	0.014	0.171
-719.806	-86.585	-0.301	-0.094
-718.791	800.000	0.024	0.076
-717.777	-128.528	0.171	0.025
-716.762	800.000	-0.033	-0.126
-715.748	-86.420	-0.228	0.071
-714.733	117.402	0.171	-0.213
-713.718	-8.954	-0.161	0.109
-712.704	86.217	-0.075	-0.083
-711.689	-27.632	0.123	-0.073
-710.675	-200.000	-0.049	0.496
-709.660	82.438	0.041	-0.045
-708.645	-53.153	0.514	-0.239
-707.631	35.381	-0.381	0.339
-706.616	-71.831	0.295	0.111
-705.602	-200.000	0.013	0.246
-704.587	-98.889	0.157	-0.041
-703.572	-54.353	-0.071	-0.033
-702.558	-71.063	-0.225	-0.086
-701.543	123.785	0.058	0.073
-700.529	-195.131	0.324	-0.002
-699.514	800.000	0.018	0.055
-698.499	-200.000	0.006	-0.256
-697.485	-133.531	-0.158	-0.020
-696.470	262.635	0.159	-0.281
-695.456	-200.000	-0.023	-0.120
-694.441	-43.653	0.074	0.038
-693.426	28.571	0.084	-0.072
-692.412	800.000	-0.061	0.210
-691.397	-69.965	-0.415	0.160
-690.383	-20.115	-0.238	0.148
-689.368	543.742	-0.007	0.017
-688.354	36.575	0.164	0.147
-687.339	800.000	0.085	-0.273
-686.324	-200.000	0.024	0.270
-685.310	-162.278	0.476	-0.024
-684.295	16.043	0.188	-0.150
-683.281	584.255	-0.055	0.136
-682.266	-36.213	-0.242	-0.132
-681.251	92.616	-0.115	0.132
-680.237	227.664	0.053	0.088
-679.222	357.605	0.177	0.358
-678.208	385.075	0.085	-0.178
-677.193	800.000	0.065	0.214
-676.178	800.000	-0.054	0.234
-675.164	9.529	-0.110	-0.084
-674.149	213.388	-0.089	-0.143
-673.135	669.986	0.091	0.239
-672.120	186.869	-0.137	-0.206
-671.105	-163.824	0.163	-0.008
-670.091	294.771	-0.124	0.230
-669.076	34.611	0.185	-0.164
-668.062	-23.813	0.293	-0.178
-667.047	-112.380	-0.463	0.094
-666.032	473.908	0.200	-0.458
-665.018	-200.000	-0.009	-0.223
-664.003	-42.647	-0.374	0.193
-662.989	-140.973	0.299	-0.031
-661.974	-125.927	0.308	-0.047
-660.959	-7.549	-0.327	-0.224
-659.945	16.373	0.163	0.130
-658.930	452.800	0.067	-0.150
-657.916	-22.376	-0.112	0.069
-656.901	303.382	-0.013	-0.025
-655.886	-200.000	-0.025	-0.212
-654.872	140.565	0.054	0.073
-653.857	-60.286	-0.194	-0.084
-652.843	69.455	-0.205	0.213
-651.828	-140.558	-0.168	-0.018
-650.814	800.000	0.106	-0.313
-649.799	-200.000	-0.002	-0.074
-648.784	-3.828	0.140	-0.099
-647.770	-72.628	0.076	0.028
-646.755	-200.000	-0.026	0.250
-645.741	430.370	-0.090	-0.197
-644.726	-44.044	-0.098	-0.050
-643.711	800.000	-0.042	-0.133
-642.697	93.031	0.207	0.237
-641.682	273.178	-0.018	0.032
-640.668	-33.782	-0.311	-0.174
-639.653	-34.399	-0.268	0.149
-638.638	-84.004	-0.359	-0.116
-637.624	800.000	-0.022	-0.075
-636.609	-63.312	0.248	-0.103
-635.595	-52.378	-0.324	0.152
-634.580	-145.106	0.514	-0.047
-633.565	-92.324	-0.186	-0.053
-632.551	-37.392	-0.246	-0.133
-631.536	129.080	0.107	-0.138
-630.522	-125.544	0.179	0.027
-629.507	800.000	-0.131	-0.373
-628.492	339.371	0.037	-0.072
-627.478	-55.107	0.084	-0.038
-626.463	-8.539	0.180	0.122
-625.449	236.728	-0.177	0.296
-624.434	-7.811	0.160	0.109
-623.419	7.104	-0.104	-0.078
-622.405	-200.000	-0.264	0.001
-621.390	-200.000	0.079	-0.587
-620.376	433.992	-0.145	0.318
-619.361	-146.238	-0.151	0.013
-618.346	32.947	-0.275	-0.241
-617.332	800.000	0.050	0.166
-616.317	76.479	-0.090	-0.096
-615.303	181.048	0.067	0.100
-614.288	800.000	0.060	-0.208
-613.273	-109.244	-0.553	-0.119
-612.259	-200.000	-0.068	-0.340
-611.244	186.197	-0.157	-0.237
-610.230	493.396	-0.178	0.412
-609.215	86.992	-0.170	-0.190
-608.201	-73.180	0.185	-0.068
-607.186	-200.000	0.015	0.142
-606.171	64.580	-0.263	0.267
-605.157	-8.957	-0.146	-0.099
-604.142	-120.281	0.118	0.020
-603.128	16.099	0.233	-0.186
-602.113	800.000	-0.093	-0.277
-601.098	173.985	-0.265	0.387
-600.084	-124.018	-0.167	0.027
-599.069	72.669	0.032	-0.033
-598.055	-6.972	-0.263	-0.180
-597.040	-200.000	-0.029	-0.139
-596.025	-200.000	0.002	-0.016
-595.011	-137.528	0.269	-0.031
-593.996	15.194	-0.368	-0.291
-592.982	-33.051	0.072	-0.040
-591.967	-95.915	0.060	0.016
-590.952	-10.045	-0.108	-0.072
-589.938	800.000	-0.095	0.311
-588.923	800.000	-0.089	0.293
-587.909	196.741	0.080	0.123
-586.894	114.059	-0.103	0.127
-585.879	-200.000	-0.055	0.361
-584.865	800.000	0.046	-0.198
-583.850	-98.258	-0.154	-0.040
-582.836	103.160	-0.154	0.183
-581.821	226.801	-0.092	-0.151
-580.806	-68.154	0.256	-0.101
-579.792	291.084	-0.163	-0.300
-578.777	-76.271	0.044	-0.016
-577.763	-137.983	0.102	-0.011
-576.748	-200.000	-0.005	0.069
-575.733	-67.088	-0.086	-0.034
-574.719	162.905	0.076	0.107
-573.704	-51.580	-0.077	-0.036
-572.690	-200.000	-0.024	0.309
-571.675	101.732	-0.087	0.102
-570.661	-49.066	0.220	0.106
-569.646	800.000	-0.039	0.158
-568.631	-9.557	-0.149	-0.100
-567.617	-69.089	-0.088	-0.034
-566.602	-132.013	0.028	-0.004
-565.588	-119.292	-0.189	0.033
-564.573	-99.710	0.099	-0.025
-563.558	-119.578	-0.237	0.041
-562.544	-55.030	-0.116	-0.053
-561.529	-43.628	0.341	-0.173
-560.515	22.811	0.208	0.172
-559.500	59.924	-0.232	-0.231
-558.485	30.979	-0.155	0.134
-557.471	98.418	0.116	0.135
-556.456	20.523	-0.166	0.136
-555.442	137.581	-0.089	-0.118
-554.427	27.909	-0.101	0.085
-553.412	-148.401	0.250	0.021
-552.398	30.193	0.169	-0.145
-551.383	-34.520	-0.222	0.123
-550.369	-54.785	0.277	0.126
-549.354	274.720	-0.060	0.106
-548.339	-136.978	-0.134	0.015
-547.325	-60.924	0.114	-0.049
-546.310	60.897	-0.065	-0.065
-545.296	-50.351	-0.166	0.079
-544.281	-2.296	-0.260	-0.184
-543.266	-66.392	0.216	-0.087
-542.252	-200.000	0.024	-0.234
-541.237	-200.000	-0.019	-0.194
-540.223	473.702	0.212	-0.481
-539.208	12.352	-0.134	-0.104
-538.193	800.000	0.038	0.142
-537.179	-124.275	-0.377	0.059
-536.164	-117.070	0.143	0.026
-535.150	-100.520	0.243	-0.061
-534.135	-34.471	0.196	0.108
-533.121	800.000	-0.013	-0.040
-532.106	-200.000	-0.068	-0.307
-531.091	10.784	0.243	-0.187
-530.077	63.651	-0.045	0.046
-529.062	-8.884	0.223	-0.150
-528.048	29.272	0.201	-0.172
-527.033	800.000	-0.071	-0.217
-526.018	-141.543	0.038	0.004
-525.004	7.729	-0.098	0.074
-523.989	56.470	0.299	-0.293
-522.975	349.801	0.103	-0.205
-521.960	-140.609	-0.087	0.009
-520.945	79.242	0.043	-0.046
-519.931	13.521	0.051	0.040
-518.916	-20.537	-0.251	0.156
-517.902	-75.221	-0.303	0.109
-516.887	324.507	-0.025	0.048
-515.872	-130.518	0.085	0.012
-514.858	-18.854	0.203	0.127
-513.843	-53.369	0.201	0.093
-512.829	493.040	0.112	-0.258
-511.814	800.000	0.065	0.191
-510.799	-2.749	0.266	0.187
-509.785	800.000	0.032	-0.124
-508.770	-71.879	-0.332	-0.125
-507.756	123.780	0.138	0.174
-506.741	-79.728	0.319	-0.108
-505.726	-200.000	0.008	-0.356
-504.712	-200.000	0.009	-0.104
-503.697	-200.000	0.026	0.123
-502.683	450.493	-0.243	-0.540
-501.668	-200.000	0.004	0.035
-500.653	-200.000	-0.030	0.157
-499.639	-200.000	-0.011	-0.126
-498.624	-200.000	-0.028	0.238
-497.610	57.767	-0.094	-0.092
-496.595	-135.011	-0.135	-0.016
-495.581	-119.384	0.432	0.076
-494.566	-50.179	-0.286	-0.136
-493.551	64.021	-0.101	-0.102
-492.537	-161.609	-0.303	-0.016
-491.522	-97.568	-0.178	0.047
-490.508	-94.386	0.481	-0.132
-489.493	709.574	-0.086	-0.230
-488.478	-10.611	-0.258	0.172
-487.464	-106.610	0.184	-0.041
-486.449	680.342	0.126	0.329
-485.435	-33.123	0.135	0.075
-484.420	98.504	-0.183	-0.212
-483.405	-200.000	-0.044	-0.303
-482.391	140.514	-0.051	-0.067
-481.376	36.747	0.133	0.118
-480.362	49.854	0.252	0.239
-479.347	261.855	-0.201	-0.350
-478.332	-61.744	-0.215	0.091
-477.318	93.368	-0.232	-0.264
-476.303	27.345	0.068	-0.058
-475.289	219.398	0.154	-0.248
-474.274	-95.464	-0.379	0.102
-473.259	-87.926	-0.088	0.026
-472.245	-179.464	0.249	0.006
-471.230	-52.197	-0.172	0.080
-470.216	-168.469	0.193	0.007
-469.201	-7.345	-0.268	-0.182
-468.186	-85.684	-0.084	-0.026
-467.172	-92.307	0.522	-0.148
-466.157	-152.386	-0.057	-0.004
-465.143	150.042	-0.146	0.199
-464.128	-200.000	0.044	0.262
-463.113	-200.000	-0.027	0.150
-462.099	458.285	0.124	-0.277
-461.084	494.800	0.137	-0.316
-460.070	-67.909	-0.255	0.100
-459.055	626.279	0.114	0.288
-458.040	-200.000	-0.049	0.329
-457.026	325.061	-0.107	0.205
-456.011	-112.531	0.303	0.061
-454.997	103.151	-0.071	0.083
-453.982	800.000	-0.039	0.139
-452.968	24.563	-0.150	-0.125
-451.953	-126.717	0.190	-0.028
-450.938	6.756	-0.415	-0.310
-449.924	-157.927	0.075	0.004
-448.909	-81.894	-0.262	0.086
-447.895	158.046	0.243	0.338
-446.880	36.212	0.099	0.088
-445.865	-200.000	-0.029	0.165
-444.851	-47.863	0.193	0.094
-443.836	800.000	-0.091	-0.332
-442.822	-1.875	-0.039	0.028
-441.807	-64.158	0.208	0.085
-440.792	-73.802	-0.188	0.069
-439.778	-151.466	0.261	0.019
-438.763	800.000	-0.061	0.173
-437.749	-132.126	0.134	-0.018
-436.734	627.027	0.134	-0.341
-435.719	-113.626	-0.262	-0.051
-434.705	-200.000	-0.037	-0.168
-433.690	11.224	-0.169	0.130
-432.676	-136.600	-0.058	0.007
-431.661	-0.987	0.198	-0.141
-430.646	-88.170	0.039	0.012
-429.632	264.042	0.081	0.142
-428.617	254.572	0.094	-0.162
-427.603	-73.774	-0.232	0.085
-426.588	-200.000	0.001	0.190
-425.573	167.223	-0.170	0.243
-424.559	-122.208	-0.093	-0.015
-423.544	44.556	-0.076	0.070
-422.530	-58.893	-0.159	0.069
-421.515	-75.318	-0.093	-0.033
-420.500	800.000	-0.063	-0.189
-419.486	-200.000	-0.013	-0.249
-418.471	-200.000	-0.036	-0.263
-417.457	97.138	-0.110	-0.126
-416.442	673.121	0.021	0.054
-415.428	-200.000	0.054	0.324
-414.413	-99.876	0.246	-0.062
-413.398	-148.920	-0.151	-0.012
-412.384	-95.345	0.096	-0.026
-411.369	210.373	0.030	-0.047
-410.355	277.522	0.117	-0.209
-409.340	512.277	-0.027	-0.063
-408.325	-200.000	-0.032	0.276
-407.311	-200.000	0.057	-0.294
-406.296	-151.351	-0.218	-0.016
-405.282	800.000	-0.041	-0.134
-404.267	-23.031	-0.124	0.075
-403.252	122.847	0.054	-0.068
-402.238	681.455	0.043	0.111
-401.223	206.300	0.065	0.102
-400.209	-193.333	-0.089	0.001
-399.194	-80.176	-0.409	0.137
-398.179	33.794	0.161	-0.140
-397.165	504.897	-0.073	0.169
-396.150	-170.308	0.256	-0.009
-395.136	-200.000	-0.047	-0.258
-394.121	108.858	-0.043	0.052
-393.106	531.468	-0.067	-0.159
-392.092	62.697	0.191	-0.191
-391.077	-104.894	0.264	-0.061
-390.063	780.370	-0.088	-0.241
-389.048	70.107	-0.074	0.077
-388.033	-81.470	-0.328	0.108
-387.019	800.000	-0.058	0.184
-386.004	18.180	0.133	-0.106
-384.990	30.516	0.356	0.305
-383.975	-200.000	0.022	-0.131
-382.960	-200.000	-0.031	-0.256
-381.946	-86.952	-0.063	-0.019
-380.931	-82.984	0.176	-0.057
-379.917	92.839	0.153	0.173
-378.902	-119.672	0.174	-0.030
-377.888	227.785	-0.222	-0.362
-376.873	-114.797	-0.235	-0.045
-375.858	-200.000	-0.039	0.200
-374.844	-177.456	0.381	0.009
-373.829	800.000	-0.031	0.116
-372.815	-200.000	0.078	-0.451
-371.800	-79.317	0.162	-0.055
-370.785	800.000	-0.094	-0.375
-369.771	-3.906	0.086	0.059
-368.756	800.000	0.111	0.345
-367.742	-83.642	-0.146	0.047
-366.727	-105.073	0.112	0.026
-365.712	227.165	0.228	0.371
-364.698	-102.141	0.401	-0.097
-363.683	-73.861	-0.106	0.039
-362.669	69.282	0.100	0.103
-361.654	-100.494	0.349	0.087
-360.639	27.095	0.363	0.305
-359.625	-200.000	0.011	0.056
-358.610	800.000	-0.089	-0.269
-357.596	-143.457	0.130	-0.012
-356.581	-107.567	-0.332	-0.073
-355.566	-200.000	0.050	0.279
-354.552	423.145	0.135	0.290
-353.537	-119.021	0.102	0.018
-352.523	385.690	-0.095	0.197
-351.508	25.834	0.077	0.064
-350.493	-67.145	0.169	0.066
-349.479	-93.342	0.397	0.110
-348.464	48.961	0.144	0.135
-347.450	-200.000	-0.047	0.281
-346.435	800.000	0.045	0.154
-345.420	13.303	-0.079	-0.061
-344.406	-113.466	0.036	0.007
-343.391	-22.068	-0.264	-0.160
-342.377	-72.175	0.413	0.153
-341.362	74.311	-0.116	0.122
-340.348	-128.763	-0.101	-0.014
-339.333	-200.000	0.011	-0.171
-338.318	-120.830	0.261	0.044
-337.304	-170.066	-0.223	0.008
-336.289	477.195	-0.048	0.108
-335.275	33.826	-0.165	-0.143
-334.260	-200.000	-0.005	-0.028
-333.245	154.331	0.032	-0.044
-332.231	159.012	0.167	-0.232
-331.216	92.890	0.226	0.255
-330.202	800.000	-0.081	0.238
-329.187	-86.810	0.089	-0.027
-328.172	-6.783	-0.125	-0.085
-327.158	339.447	-0.109	0.213
-326.143	50.234	0.144	-0.136
-325.129	-23.216	-0.311	0.187
-324.114	59.329	0.191	0.188
-323.099	335.767	-0.204	-0.396
-322.085	-200.000	0.014	-0.232
-321.070	-123.284	0.195	-0.031
-320.056	-200.000	-0.002	0.107
-319.041	-53.306	-0.286	-0.131
-318.026	42.704	0.249	0.226
-317.012	-71.116	0.217	0.081
-315.997	299.547	0.043	-0.079
-314.983	484.961	0.181	0.412
-313.968	253.882	0.068	-0.116
-312.953	-106.089	-0.030	-0.007
-311.939	-30.054	0.182	0.104
-310.924	800.000	0.042	-0.127
-309.910	388.596	0.024	-0.049
-308.895	-104.748	0.089	0.020
-307.880	30.831	-0.315	-0.270
-306.866	-90.820	-0.267	0.077
-305.851	-80.185	-0.242	0.081
-304.837	-108.852	0.397	0.085
-303.822	78.852	0.130	0.139
-302.807	-67.574	0.491	-0.192
-301.793	-49.493	-0.215	-0.102
-300.778	-200.000	0.011	-0.053
-299.764	-200.000	-0.053	-0.328
-298.749	-22.070	-0.185	-0.112
-297.735	-168.465	-0.198	-0.008
-296.720	-105.192	0.231	0.053
-295.705	96.182	0.305	0.348
-294.691	154.931	-0.212	-0.290
-293.676	-120.450	0.074	-0.012
-292.662	151.746	0.136	-0.185
-291.647	182.527	0.074	0.109
-290.632	42.418	-0.100	-0.090
-289.618	800.000	0.038	0.147
-288.603	-41.031	0.244	0.126
-287.589	800.000	-0.105	0.383
-286.574	-200.000	-0.034	0.189
-285.559	163.858	0.080	-0.113
-284.545	-63.539	-0.136	0.056
-283.530	297.228	0.065	0.120
-282.516	97.837	0.145	0.166
-281.501	-145.205	-0.337	-0.030
-280.486	-26.931	0.149	-0.087
-279.472	-181.196	-0.285	-0.006
-278.457	-186.217	0.279	0.004
-277.443	-140.158	0.148	0.015
-276.428	-56.435	-0.283	0.125
-275.413	-14.871	-0.274	0.175
-274.399	-117.114	-0.311	-0.056
-273.384	-200.000	-0.008	-0.086
-272.370	99.626	-0.303	-0.350
-271.355	7.484	-0.230	-0.172
-270.340	-54.284	-0.013	0.006
-269.326	89.884	0.090	0.100
-268.311	-200.000	0.024	0.109
-267.297	-200.000	-0.015	0.192
-266.282	800.000	-0.171	0.513
-265.267	579.673	0.040	0.097
-264.253	11.000	0.246	-0.188
-263.238	-132.082	-0.096	-0.012
-262.224	663.836	0.118	-0.305
-261.209	-16.882	-0.078	-0.049
-260.195	-31.995	-0.074	-0.041
-259.180	-200.000	0.069	0.359
-258.165	-80.573	-0.248	-0.082
-257.151	-200.000	-0.027	-0.160
-256.136	34.969	0.261	0.228
-255.122	-10.428	-0.032	-0.021
-254.107	-200.000	0.008	0.193
-253.092	-200.000	-0.022	-0.260
-252.078	-92.286	0.101	0.028
-251.063	-126.312	0.382	0.057
-250.049	27.646	-0.004	0.003
-249.034	-75.998	0.130	-0.046
-248.019	-13.242	-0.395	0.255
-247.005	35.836	-0.088	0.077
-245.990	25.860	0.100	0.083
-244.976	25.601	-0.244	-0.203
-243.961	-96.516	-0.030	0.008
-242.946	-128.108	-0.620	-0.088
-241.932	-70.914	-0.197	0.074
-240.917	567.669	0.007	-0.016
-239.903	20.224	0.144	0.116
-238.888	7.598	0.166	-0.123
-237.873	29.983	-0.202	0.172
-236.859	-34.015	-0.101	-0.055
-235.844	-73.344	-0.187	-0.068
-234.830	-87.169	0.392	-0.119
-233.815	34.814	-0.170	0.148
-232.800	-92.875	0.589	0.164
-231.786	800.000	-0.051	-0.204
-230.771	31.637	0.098	0.084
-229.757	-157.243	-0.349	-0.021
-228.742	50.197	-0.303	-0.285
-227.727	-50.698	0.289	0.136
-226.713	-200.000	0.019	0.355
-225.698	389.683	0.120	-0.248
-224.684	391.311	0.035	-0.073
-223.669	800.000	-0.046	0.196
-222.655	48.828	0.124	0.116
-221.640	-67.311	0.486	0.190
-220.625	205.768	-0.188	-0.291
-219.611	-152.382	0.053	-0.004
-218.596	-90.058	-0.451	-0.131
-217.582	355.943	-0.034	0.067
-216.567	373.974	-0.100	-0.203
-215.552	-195.665	-0.253	0.002
-214.538	152.835	-0.111	-0.151
-213.523	-200.000	0.022	0.224
-212.509	185.984	0.264	-0.391
-211.494	-179.133	0.376	0.008
-210.479	796.315	0.164	0.450
-209.465	-200.000	-0.051	0.392
-208.450	2.578	-0.262	-0.189
-207.436	-44.628	-0.398	0.198
-206.421	-200.000	-0.038	0.179
-205.406	-200.000	0.000	0.038
-204.392	-200.000	-0.002	0.032
-203.377	800.000	0.054	-0.169
-202.363	-47.446	0.376	0.182
-201.348	-200.000	-0.010	0.262
-200.333	486.054	0.092	0.210
-199.319	-71.753	-0.287	-0.106
-198.304	-200.000	-0.033	-0.210
-197.290	-25.838	0.492	0.288
-196.275	-24.760	0.244	0.144
-195.260	-151.645	0.115	-0.008
-194.246	256.139	-0.099	0.168
-193.231	-200.000	-0.004	0.492
-192.217	-200.000	-0.003	0.108
-191.202	47.276	0.104	0.096
-190.187	-200.000	0.009	-0.126
-189.173	342.528	-0.123	0.240
-188.158	650.210	0.048	0.121
-187.144	156.738	0.264	-0.362
-186.129	-200.000	0.020	-0.440
-185.114	-45.012	0.124	-0.061
-184.100	-200.000	-0.022	-0.252
-183.085	-23.716	-0.154	-0.091
-182.071	-165.835	0.351	-0.015
-181.056	292.018	0.151	-0.272
-180.042	150.150	0.125	-0.168
-179.027	178.462	0.067	-0.098
-178.012	-125.275	-0.381	-0.058
-176.998	60.205	0.120	0.118
-175.983	64.731	0.184	-0.185
-174.969	-200.000	0.029	0.204
-173.954	-200.000	0.002	0.134
-172.939	16.061	-0.064	-0.050
-171.925	-200.000	-0.009	0.167
-170.910	141.715	-0.205	0.269
-169.896	334.476	-0.163	0.313
-168.881	-175.284	-0.086	-0.002
-167.866	-56.337	0.348	-0.154
-166.852	103.826	-0.169	-0.197
-165.837	-200.000	-0.007	-0.050
-164.823	64.417	-0.141	0.141
-163.808	-200.000	-0.033	0.262
-162.793	-40.341	0.110	0.057
-161.779	-200.000	-0.023	-0.119
-160.764	69.745	-0.152	-0.155
-159.750	7.749	-0.156	0.116
-158.735	-171.323	0.561	-0.019
-157.720	160.801	-0.129	0.179
-156.706	-21.350	0.166	-0.101
-155.691	316.854	0.043	0.081
-154.677	25.279	0.095	-0.079
-153.662	-59.969	0.185	-0.079
-152.647	-109.098	0.182	0.039
-151.633	-85.868	-0.082	-0.025
-150.618	-169.174	0.144	-0.005
-149.604	-108.255	0.208	-0.045
-148.589	600.422	0.052	-0.127
-147.574	-146.665	-0.351	-0.030
-146.560	-118.705	0.242	0.042
-145.545	-200.000	-0.022	0.101
-144.531	-54.112	-0.188	-0.085
-143.516	46.510	0.105	-0.097
-142.502	-200.000	0.042	0.285
-141.487	-91.165	-0.221	0.063
-140.472	-200.000	-0.007	0.165
-139.458	327.220	-0.172	-0.326
-138.443	-75.614	-0.367	-0.129
-137.429	183.341	-0.204	0.299
-136.414	125.459	0.097	-0.122
-135.399	-200.000	-0.075	0.369
-134.385	-25.412	-0.123	0.072
-133.370	-39.423	-0.141	0.073
-132.356	-58.449	0.102	0.044
-131.341	-98.020	0.365	-0.093
-130.326	463.073	0.058	-0.127
-129.312	208.589	-0.161	-0.250
-128.297	36.831	-0.219	0.192
-127.283	-200.000	-0.049	0.319
-126.268	199.879	-0.139	-0.212
-125.253	546.577	-0.011	0.026
-124.239	-36.890	0.359	-0.191
-123.224	-68.137	0.185	0.071
-122.210	33.186	0.036	-0.031
-121.195	526.105	-0.013	0.030
-120.180	-200.000	0.049	0.469
-119.166	-33.966	0.464	0.253
-118.151	-139.414	-0.120	-0.013
-117.137	-200.000	-0.063	0.438
-116.122	-166.189	0.088	-0.004
-115.107	-200.000	-0.034	-0.170
-114.093	184.878	0.186	0.273
-113.078	-200.000	0.003	0.151
-112.064	91.113	0.154	-0.172
-111.049	2.576	-0.240	0.173
-110.034	-29.241	-0.169	0.096
-109.020	189.949	0.047	-0.070
-108.005	342.239	-0.146	0.283
-106.991	-16.591	0.042	0.026
-105.976	193.861	-0.056	-0.084
-104.962	-12.507	0.215	-0.139
-103.947	-52.523	0.093	0.043
-102.932	-69.282	-0.231	0.088
-101.918	-200.000	0.020	-0.289
-100.903	-117.541	-0.228	-0.041
-99.889	119.225	0.004	-0.004
-98.874	169.801	-0.194	-0.275
-97.859	-46.772	-0.216	-0.105
-96.845	134.901	-0.052	0.067
-95.830	-153.341	-0.279	-0.019
-94.816	800.000	-0.039	-0.106
-93.801	107.470	0.132	0.155
-92.786	-112.694	-0.127	-0.025
-91.772	204.340	0.063	-0.097
-90.757	-200.000	-0.001	0.173
-89.743	204.792	-0.074	-0.114
-88.728	800.000	-0.078	0.288
-87.713	-71.828	0.206	-0.076
-86.699	800.000	-0.032	-0.131
-85.684	-85.102	0.022	0.007
-84.670	594.969	0.078	0.191
-83.655	41.208	0.286	-0.256
-82.640	318.602	-0.057	0.107
-81.626	424.013	-0.143	0.304
-80.611	-60.362	-0.155	-0.065
-79.597	-200.000	0.060	-0.320
-78.582	672.121	0.018	0.046
-77.567	259.129	0.121	0.207
-76.553	-46.476	-0.135	0.066
-75.538	717.572	0.098	-0.258
-74.524	-200.000	0.006	-0.100
-73.509	506.041	-0.162	-0.372
-72.494	-200.000	0.001	-0.085
-71.480	-102.557	0.166	-0.039
-70.465	-35.560	0.180	-0.097
-69.451	-200.000	0.011	-0.213
-68.436	142.411	-0.089	0.117
-67.422	-85.631	-0.366	-0.113
-66.407	-2.928	0.114	0.079
-65.392	13.196	-0.155	-0.119
-64.378	158.067	-0.150	-0.205
-63.363	467.727	0.078	0.173
-62.349	800.000	-0.063	0.180
-61.334	79.194	-0.896	-0.949
-60.319	-75.939	0.460	0.161
-59.305	180.453	-0.582	-0.845
-58.290	135.186	0.648	0.834
-57.276	370.309	0.764	1.532
-56.261	-200.000	97.491	570.777
-55.246	616.588	1408.832	3494.896
-54.232	182.638	2630.559	3837.058
-53.217	119.865	2198.306	2694.651
-52.203	45.759	1642.697	1501.530
-51.188	37.437	1375.730	1206.113
-50.173	34.134	1332.415	1148.198
-49.159	55.687	1381.510	1323.372
-48.144	59.632	1399.014	1364.273
-47.130	37.864	1353.350	1188.905
-46.115	34.173	1335.485	1150.897
-45.100	33.953	1330.788	1145.482
-44.086	33.940	1328.491	1143.376
-43.071	33.840	1326.120	1140.695
-42.057	33.777	1324.067	1138.505
-41.042	33.758	1322.727	1137.192
-40.027	34.014	1320.478	1136.744
-39.013	33.941	1319.106	1135.081
-37.998	33.885	1316.957	1132.854
-36.984	33.948	1314.854	1131.372
-35.969	33.961	1313.369	1130.127
-34.954	33.969	1311.722	1128.716
-33.940	34.007	1310.671	1127.991
-32.925	34.148	1308.702	1127.085
-31.911	34.146	1307.504	1125.997
-30.896	34.093	1305.799	1124.170
-29.881	34.129	1304.668	1123.370
-28.867	34.210	1303.053	1122.408
-27.852	34.030	1301.920	1120.331
-26.838	34.051	1300.444	1119.141
-25.823	34.022	1299.334	1117.967
-24.809	34.010	1297.753	1116.494
-23.794	34.165	1295.806	1115.680
-22.779	34.065	1294.295	1113.754
-21.765	34.100	1293.663	1113.367
-20.750	34.087	1292.545	1112.287
-19.736	34.065	1291.062	1110.835
-18.721	34.041	1289.696	1109.476
-17.706	34.025	1288.669	1108.455
-16.692	34.004	1287.085	1106.929
-15.677	34.033	1286.381	1106.449
-14.663	34.080	1284.870	1105.378
-13.648	33.966	1284.096	1104.005
-12.633	33.948	1283.120	1103.019
-11.619	34.000	1282.131	1102.427
-10.604	33.935	1281.248	1101.246
-9.590	33.772	1280.644	1099.738
-8.575	33.842	1279.645	1099.239
-7.560	33.855	1278.577	1098.353
-6.546	33.839	1278.243	1097.934
-5.531	33.871	1276.753	1096.796
-4.517	33.919	1275.867	1096.269
-3.502	33.921	1275.233	1095.691
-2.487	33.909	1274.304	1094.778
-1.473	33.879	1270.344	1091.164
-0.458	32.979	1254.984	1072.817
0.556	31.333	1236.011	1031.469
1.571	27.167	1240.725	1012.165
2.586	25.746	1254.459	1015.275
3.600	23.976	1242.310	995.460
4.615	17.996	1168.237	904.460
5.629	9.223	1091.313	801.257
6.644	5.014	1070.553	765.323
7.659	4.655	1067.868	761.574
8.673	4.490	1066.034	759.393
9.688	4.304	1065.313	757.902
10.702	5.123	1063.783	760.745
11.717	10.709	1072.358	794.194
12.731	19.183	1084.076	844.530
13.746	22.416	1087.457	862.966
14.761	22.138	1086.783	860.992
15.775	21.295	1084.743	855.176
16.790	20.336	1082.899	848.959
17.804	19.638	1081.082	844.049
18.819	19.286	1080.235	841.592
19.834	19.240	1079.003	840.334
20.848	19.120	1078.508	839.289
21.863	18.943	1077.764	837.773
22.877	18.726	1076.880	835.957
23.892	18.766	1076.331	835.651
24.907	18.734	1075.010	834.399
25.921	18.625	1074.710	833.562
26.936	18.654	1073.154	832.422
27.950	18.704	1071.736	831.488
28.965	18.883	1070.576	831.382
29.980	18.915	1069.354	830.513
30.994	19.148	1068.042	830.545
32.009	19.249	1066.875	830.052
33.023	19.130	1065.988	828.713
34.038	18.857	1065.380	826.854
35.053	18.745	1064.310	825.416
36.067	18.807	1063.245	824.813
37.082	18.950	1062.594	824.920
38.096	19.001	1061.983	824.619
39.111	19.010	1060.982	823.809
40.126	18.632	1059.961	821.136
41.140	18.529	1058.253	819.250
42.155	18.396	1056.843	817.448
43.169	18.283	1056.097	816.259
44.184	18.264	1055.082	815.313
45.199	18.404	1054.227	815.249
46.213	18.626	1052.956	815.247
47.228	18.835	1052.514	815.826
48.242	18.814	1051.341	814.744
49.257	18.758	1050.524	813.775
50.271	18.837	1049.892	813.588
51.286	18.930	1048.841	813.141
52.301	18.925	1047.319	811.864
53.315	18.580	1047.195	810.068
54.330	18.638	1045.252	808.767
55.344	18.628	1045.285	808.675
56.359	18.691	1043.843	807.784
57.374	18.597	1043.096	806.693
58.388	18.463	1041.862	805.035
59.403	18.340	1041.479	804.093
60.417	18.402	1040.610	803.638
61.432	18.322	1039.848	802.603
62.447	18.283	1039.152	801.813
63.461	18.178	1038.255	800.561
64.476	18.180	1037.253	799.723
65.490	18.224	1036.498	799.279
66.505	18.135	1036.200	798.564
67.520	18.268	1035.283	798.404
68.534	18.419	1034.274	798.260
69.549	18.183	1034.196	797.029
70.563	18.171	1032.876	795.886
71.578	18.107	1031.792	794.684
72.593	17.957	1031.143	793.415
73.607	17.949	1030.741	792.998
74.622	17.977	1029.936	792.438
75.636	18.034	1029.525	792.318
76.651	18.119	1028.580	791.915
77.666	18.127	1027.758	791.248
78.680	18.168	1027.053	790.827
79.695	18.128	1026.713	790.309
80.709	18.454	1025.490	790.800
81.724	18.549	1025.675	791.311
82.739	18.597	1024.968	790.918
83.753	18.740	1024.333	791.017
84.768	19.014	1023.781	791.783
85.782	19.171	1022.871	791.730
86.797	19.044	1021.776	790.231
87.812	18.888	1020.875	788.749
88.826	18.965	1019.568	788.020
89.841	19.088	1019.005	788.080
90.855	19.128	1017.955	787.379
91.870	19.200	1017.251	787.096
92.884	19.097	1016.502	785.977
93.899	19.132	1015.460	785.261
94.914	19.155	1015.131	785.043
95.928	19.173	1013.924	784.121
96.943	19.072	1012.668	782.619
97.957	18.961	1012.271	781.737
98.972	18.892	1011.422	780.703
99.987	19.132	1010.118	780.716
101.001	19.028	1009.724	779.867
102.016	18.932	1008.878	778.712
103.030	18.887	1008.261	777.961
104.045	19.050	1006.904	777.582
105.060	18.877	1005.900	775.960
106.074	18.668	1004.432	773.815
107.089	18.453	1003.547	772.096
108.103	18.435	1002.622	771.234
109.118	18.366	1001.432	769.944
110.133	18.165	1000.677	768.388
111.147	18.331	999.831	768.417
112.162	18.354	998.913	767.748
113.176	18.481	998.263	767.748
114.191	18.647	997.424	767.777
115.206	18.401	997.002	766.284
116.220	18.471	996.051	765.800
117.235	18.569	994.575	765.036
118.249	18.343	994.120	763.610
119.264	18.399	993.269	763.135
120.279	18.322	992.694	762.284
121.293	18.268	991.382	760.971
122.308	18.239	990.287	759.935
123.322	18.178	989.074	758.666
124.337	18.043	988.381	757.469
125.352	18.012	987.633	756.688
126.366	18.174	986.086	756.156
127.381	18.225	985.228	755.655
128.395	18.127	984.521	754.612
129.410	18.262	983.517	754.373
130.424	18.385	982.868	754.349
131.439	18.479	982.083	754.091
132.454	18.644	981.454	754.271
133.468	18.591	980.916	753.555
134.483	18.496	979.871	752.269
135.497	18.541	979.027	751.753
136.512	18.601	978.184	751.302
137.527	18.631	977.550	750.881
138.541	18.736	976.827	750.718
139.556	18.743	976.117	750.137
140.570	18.808	975.619	749.969
141.585	18.898	974.930	749.766
142.600	19.013	973.793	749.325
143.614	19.062	973.228	749.039
144.629	19.218	972.670	749.223
145.643	19.010	971.710	747.511
146.658	18.924	970.311	745.997
147.673	18.758	968.828	744.070
148.687	18.652	967.981	742.896
149.702	18.526	967.297	741.762
150.716	18.435	966.697	740.843
151.731	18.519	965.723	740.391
152.746	18.785	964.605	740.615
153.760	18.786	964.356	740.366
154.775	18.802	963.916	740.032
155.789	18.806	963.452	739.624
156.804	18.716	963.159	738.949
157.819	18.992	961.413	738.729
158.833	18.986	961.692	738.852
159.848	19.200	960.397	738.711
160.862	19.054	959.419	737.268
161.877	18.729	958.036	734.746
162.892	18.526	957.410	733.333
163.906	18.568	956.064	732.417
164.921	18.631	955.564	732.240
165.935	18.772	954.521	731.977
166.950	18.804	953.876	731.552
167.964	18.770	952.856	730.559
168.979	18.704	951.883	729.470
169.994	18.622	951.433	728.711
171.008	18.713	950.958	728.668
172.023	19.050	949.815	729.158
173.037	19.191	949.051	729.106
174.052	18.908	948.491	727.411
175.067	18.753	947.454	725.898
176.081	18.567	947.043	724.733
177.096	18.575	946.433	724.236
178.110	18.668	945.931	724.179
179.125	18.753	944.922	723.700
180.140	18.682	944.810	723.254
181.154	18.849	944.571	723.709
182.169	18.902	944.156	723.549
183.183	19.154	943.442	723.997
184.198	18.991	942.520	722.542
185.213	18.970	942.064	722.040
186.227	19.066	941.330	721.817
187.242	19.229	940.719	721.969
188.256	19.260	940.303	721.712
189.271	19.387	939.331	721.434
190.286	19.026	938.064	718.893
191.300	18.563	937.182	716.217
192.315	18.485	936.278	715.136
193.329	18.414	936.285	714.784
194.344	18.701	935.404	715.244
195.359	18.893	934.769	715.493
196.373	18.918	934.543	715.364
197.388	19.084	934.287	715.792
198.402	19.404	933.928	716.783
199.417	19.435	933.271	716.345
200.432	19.553	932.530	716.203
201.446	19.590	932.536	716.300
202.461	19.622	932.247	716.147
203.475	19.576	931.113	715.022
204.490	19.404	929.934	713.338
205.504	19.249	929.061	711.966
206.519	19.231	928.443	711.355
207.534	19.281	927.428	710.721
208.548	19.271	927.190	710.435
209.563	19.207	926.713	709.744
210.577	19.234	926.099	709.320
211.592	19.500	925.266	709.715
212.607	19.520	924.362	709.039
213.621	19.518	923.932	708.641
214.636	19.495	923.233	707.945
215.650	19.529	922.322	707.327
216.665	19.559	921.876	707.044
217.680	19.651	921.324	706.934
218.694	19.776	920.527	706.770
219.709	19.647	919.949	705.736
220.723	19.634	919.246	705.083
221.738	19.691	918.406	704.609
222.753	19.530	918.088	703.646
223.767	19.709	917.891	704.162
224.782	19.895	917.302	704.405
225.796	19.983	916.496	704.080
226.811	19.777	915.583	702.480
227.826	19.589	914.863	701.105
228.840	19.493	914.070	700.042
229.855	19.508	913.551	699.643
230.869	19.441	912.672	698.641
231.884	19.472	911.842	698.066
232.899	19.264	911.415	696.838
233.913	19.372	909.937	696.083
234.928	19.233	909.747	695.315
235.942	19.317	909.076	695.078
236.957	19.319	908.353	694.474
237.972	19.392	907.556	694.095
238.986	19.363	907.141	693.599
240.001	19.398	906.618	693.277
241.015	19.480	906.019	693.088
242.030	19.406	905.550	692.370
243.045	19.580	904.844	692.469
244.059	19.650	904.301	692.271
245.074	19.638	903.905	691.858
246.088	19.721	903.602	691.900
247.103	19.816	902.754	691.570
248.117	19.865	902.501	691.509
249.132	20.205	902.228	692.599
250.147	20.286	901.818	692.546
251.161	20.319	901.089	692.055
252.176	20.468	900.081	691.813
253.190	20.565	899.470	691.669
254.205	20.402	899.275	690.809
255.220	20.562	898.401	690.712
256.234	20.472	897.885	689.898
257.249	20.481	896.809	689.043
258.263	20.570	895.791	688.552
259.278	20.498	895.298	687.830
260.293	20.570	895.166	687.953
261.307	20.550	894.728	687.475
262.322	20.716	893.851	687.395
263.336	20.544	893.257	686.200
264.351	20.656	892.271	685.825
265.366	20.679	891.722	685.431
266.380	20.593	891.272	684.686
267.395	20.620	890.435	684.088
268.409	20.425	889.492	682.537
269.424	20.466	888.804	682.108
270.439	20.360	887.942	680.972
271.453	20.291	887.092	679.989
272.468	20.333	886.600	679.717
273.482	20.349	886.222	679.430
274.497	20.223	885.785	678.542
275.512	20.374	884.978	678.453
276.526	20.329	884.907	678.164
277.541	20.386	884.102	677.709
278.555	20.614	883.714	678.240
279.570	20.761	883.485	678.576
280.585	20.690	882.486	677.472
281.599	20.559	881.722	676.316
282.614	20.408	880.854	675.005
283.628	20.429	880.402	674.680
284.643	20.342	879.899	673.897
285.657	20.533	879.168	674.018
286.672	20.475	878.275	673.052
287.687	20.384	878.387	672.725
288.701	20.628	877.237	672.726
289.716	20.542	876.727	671.943
290.730	20.606	876.232	671.752
291.745	20.652	875.157	671.046
292.760	20.686	874.902	670.923
293.774	20.997	874.420	671.693
294.789	20.877	873.548	670.500
295.803	20.623	872.944	669.000
296.818	20.486	872.044	667.724
297.833	20.569	871.459	667.538
298.847	20.579	871.170	667.295
299.862	20.632	870.667	667.054
300.876	20.639	870.657	667.015
301.891	20.867	869.693	667.091
302.906	20.954	869.417	667.153
303.920	21.200	869.036	667.741
304.935	21.213	868.140	667.045
305.949	21.113	867.472	666.090
306.964	20.893	866.624	664.543
307.979	20.989	866.377	664.659
308.993	21.239	865.495	664.877
310.008	21.063	865.089	663.833
311.022	20.873	864.451	662.564
312.037	20.755	863.998	661.710
313.052	20.800	862.884	660.968
314.066	20.565	862.624	659.819
315.081	20.645	861.703	659.362
316.095	20.778	861.229	659.443
317.110	20.690	860.747	658.681
318.125	20.724	860.246	658.370
319.139	20.651	859.641	657.572
320.154	20.542	859.141	656.721
321.168	20.717	858.988	657.204
322.183	20.815	858.080	656.824
323.197	20.708	857.676	656.052
324.212	20.849	856.985	655.996
325.227	20.943	856.087	655.604
326.241	20.806	855.552	654.623
327.256	20.774	855.355	654.294
328.270	20.750	854.689	653.633
329.285	20.644	854.381	652.943
330.300	20.705	853.598	652.518
331.314	20.824	853.119	652.538
332.329	21.004	852.748	652.869
333.343	20.985	852.668	652.679
334.358	21.059	852.150	652.502
335.373	21.118	851.740	652.351
336.387	21.116	851.250	651.913
337.402	21.262	850.702	651.980
338.416	21.290	850.815	652.113
339.431	21.488	850.417	652.490
340.446	21.595	850.013	652.521
341.460	21.512	849.567	651.808
342.475	21.621	849.359	651.998
343.489	21.715	848.656	651.749
344.504	21.615	848.644	651.313
345.519	21.746	848.025	651.265
346.533	21.625	847.391	650.273
347.548	21.445	846.631	648.964
348.562	21.273	845.713	647.564
349.577	21.079	845.401	646.551
350.592	21.214	844.709	646.464
351.606	21.100	843.542	645.093
352.621	21.216	842.998	645.047
353.635	21.116	842.878	644.530
354.650	21.412	841.840	644.769
355.665	21.405	841.888	644.725
356.679	21.520	840.735	644.209
357.694	21.594	839.522	643.493
358.708	21.485	839.060	642.681
359.723	21.541	838.547	642.437
360.738	21.417	838.249	641.695
361.752	21.527	837.473	641.447
362.767	21.588	837.208	641.415
363.781	21.906	836.765	642.183
364.796	22.041	836.521	642.432
365.810	21.864	836.300	641.557
366.825	21.988	836.330	641.977
367.840	21.807	835.593	640.694
368.854	21.866	834.500	640.013
369.869	21.740	834.614	639.583
370.883	21.736	834.018	639.057
371.898	22.000	833.348	639.449
372.913	22.059	833.339	639.599
373.927	21.818	832.473	638.001
374.942	21.927	831.780	637.810
375.956	22.165	831.706	638.562
376.971	22.097	831.449	638.060
377.986	22.280	830.844	638.203
379.000	22.163	830.497	637.459
380.015	22.158	829.982	636.986
381.029	22.128	828.910	636.001
382.044	22.225	828.488	635.970
383.059	22.357	828.047	636.051
384.073	22.134	827.400	634.696
385.088	21.873	826.724	633.178
386.102	21.943	825.893	632.736
387.117	21.815	825.563	631.967
388.132	21.829	824.860	631.423
389.146	22.062	824.290	631.771
390.161	22.047	824.266	631.642
391.175	22.066	823.839	631.325
392.190	22.025	822.708	630.257
393.205	21.992	822.441	629.877
394.219	21.961	821.856	629.263
395.234	21.839	821.448	628.459
396.248	21.817	821.141	628.090
397.263	21.752	820.397	627.231
398.278	21.613	820.050	626.413
399.292	21.622	819.849	626.238
400.307	21.726	819.226	626.078
401.321	21.762	818.722	625.765
402.336	21.850	818.557	625.897
403.350	21.869	818.003	625.485
404.365	22.138	817.589	626.071
405.380	22.275	817.474	626.418
406.394	22.453	816.527	626.268
407.409	22.540	815.967	626.092
408.423	22.601	815.975	626.261
409.438	22.488	815.609	625.524
410.453	22.652	815.307	625.820
411.467	22.557	815.188	625.336
412.482	22.743	814.543	625.444
413.496	22.847	814.179	625.477
414.511	22.702	813.735	624.568
415.526	22.673	813.273	624.056
416.540	22.726	812.280	623.426
417.555	22.583	812.299	622.880
418.569	22.583	811.507	622.218
419.584	22.529	811.506	621.970
420.599	22.591	811.194	621.895
421.613	160.152	1370.444	1789.598
422.628	139.405	1451.925	1789.733
