DTS Sentinel unit serial number:	SN413079Multiplexer serial number:	ORYXHardware model number:	OX4-SRSoftware version number:	ORYX F/W v4.00 Oryx Data Collector v3.7.2.0data status	okinstallation	princeton_trtdifferential loss correction	single-endedforward channel	channel 1reverse channel	N/Adate	2019/09/19time	09:50:35forward acquisition time	60.00reverse acquisition time	0.00gamma	496.2192k internal	0.2340k external	0.2340temperature offset calibration	1.0003default loss term (dB/km)	0.3790temperature slope calibration	1.0000multiplexer offset coefficient	1.0000multiplexer slope coefficient	1.0000fibre end	0.00T internal ref (°C)	23.47T ext. ref 1 (°C)	0.64T ext. ref 2 (°C)	19.45length (m)	temperature (°C)	Stokes	anti-Stokes-747.200	-184.665	0.436	0.007
-746.185	-200.000	0.008	0.047
-745.171	432.576	-0.104	-0.226
-744.156	696.212	-0.096	0.253
-743.142	-200.000	0.025	-0.296
-742.127	164.982	0.208	0.294
-741.112	-200.000	0.014	0.378
-740.098	-26.151	-0.265	-0.156
-739.083	-133.754	0.209	0.026
-738.069	-118.539	-0.055	0.010
-737.054	-200.000	0.039	0.176
-736.039	-81.158	-0.454	0.150
-735.025	-200.000	-0.021	0.326
-734.010	129.888	-0.244	-0.312
-732.996	28.073	0.140	-0.118
-731.981	-9.360	-0.176	-0.117
-730.966	-170.235	-0.141	-0.005
-729.952	-4.249	-0.133	-0.092
-728.937	-126.403	-0.231	-0.034
-727.923	185.102	-0.124	-0.185
-726.908	89.569	-0.052	0.058
-725.894	169.870	0.076	0.108
-724.879	157.177	-0.191	0.265
-723.864	-93.745	0.277	-0.077
-722.850	-50.494	-0.165	0.078
-721.835	-200.000	-0.058	-0.292
-720.821	-129.759	-0.246	0.034
-719.806	386.444	-0.104	-0.216
-718.791	322.905	-0.176	-0.337
-717.777	62.977	-0.247	-0.248
-716.762	-13.006	0.185	-0.121
-715.748	-14.130	-0.073	-0.047
-714.733	80.749	-0.258	-0.278
-713.718	505.479	-0.021	-0.050
-712.704	-94.790	0.079	-0.021
-711.689	455.228	0.091	0.203
-710.675	97.171	-0.394	0.453
-709.660	-200.000	-0.015	0.105
-708.645	-22.348	0.171	-0.104
-707.631	153.707	-0.143	-0.196
-706.616	73.605	0.041	-0.043
-705.602	-200.000	-0.010	-0.123
-704.587	46.590	-0.179	-0.166
-703.572	41.432	-0.097	-0.088
-702.558	-71.500	0.201	-0.075
-701.543	-200.000	0.011	-0.158
-700.529	-96.256	0.089	0.023
-699.514	-90.469	0.088	-0.026
-698.499	-60.108	-0.145	0.062
-697.485	169.573	-0.102	-0.146
-696.470	295.898	-0.147	0.270
-695.456	344.461	0.115	0.226
-694.441	179.931	0.121	0.178
-693.426	-100.925	-0.186	0.046
-692.412	-52.966	0.053	0.024
-691.397	-88.362	-0.331	-0.099
-690.383	800.000	-0.058	-0.161
-689.368	-9.423	-0.148	0.099
-688.354	-58.547	-0.050	-0.022
-687.339	123.738	0.071	-0.089
-686.324	6.873	0.116	-0.086
-685.310	-115.551	0.159	-0.030
-684.295	31.095	-0.227	-0.195
-683.281	121.797	0.119	-0.149
-682.266	-29.745	0.289	0.165
-681.251	322.765	0.086	0.163
-680.237	-173.697	-0.092	-0.003
-679.222	-69.226	-0.202	0.078
-678.208	800.000	-0.046	0.166
-677.193	-176.858	0.321	0.008
-676.178	126.180	-0.181	-0.229
-675.164	-65.542	-0.370	-0.149
-674.149	-200.000	0.055	-0.349
-673.135	415.551	-0.115	-0.246
-672.120	-56.119	-0.233	0.104
-671.105	158.531	-0.062	-0.086
-670.091	-7.800	0.090	-0.061
-669.076	800.000	-0.072	-0.280
-668.062	39.853	0.556	0.499
-667.047	741.238	0.122	-0.328
-666.032	-180.491	0.376	0.008
-665.018	203.095	-0.043	-0.066
-664.003	329.252	0.094	0.182
-662.989	-200.000	0.013	0.421
-661.974	-183.163	-0.181	-0.003
-660.959	1.313	-0.181	0.130
-659.945	57.414	0.233	0.227
-658.930	31.806	0.200	-0.172
-657.916	-68.243	0.269	-0.105
-656.901	62.714	-0.114	0.114
-655.886	124.589	-0.184	-0.232
-654.872	-200.000	0.048	-0.238
-653.857	98.927	0.149	0.172
-652.843	61.649	-0.115	-0.114
-651.828	-124.762	0.304	0.047
-650.814	-200.000	0.005	-0.089
-649.799	800.000	-0.008	0.033
-648.784	-57.703	0.149	-0.065
-647.770	212.784	-0.149	-0.235
-646.755	-103.144	0.049	-0.012
-645.741	431.034	-0.054	0.117
-644.726	800.000	-0.115	0.350
-643.711	-200.000	0.001	0.115
-642.697	70.591	0.235	-0.243
-641.682	236.446	-0.049	0.081
-640.668	-101.099	0.083	0.020
-639.653	-52.787	0.096	0.044
-638.638	-10.533	-0.039	0.026
-637.624	-109.431	-0.339	-0.072
-636.609	800.000	-0.093	-0.295
-635.595	-200.000	0.047	-0.226
-634.580	29.747	-0.306	-0.260
-633.565	85.248	0.266	-0.292
-632.551	212.199	-0.079	-0.124
-631.536	113.899	-0.078	0.095
-630.522	35.269	-0.209	0.183
-629.507	-200.000	-0.004	0.056
-628.492	-110.360	0.102	0.021
-627.478	68.873	-0.117	-0.120
-626.463	-200.000	-0.024	-0.141
-625.449	800.000	-0.114	-0.415
-624.434	800.000	-0.114	-0.476
-623.419	-154.167	0.245	0.017
-622.405	209.543	0.236	-0.370
-621.390	-73.411	-0.167	-0.061
-620.376	-105.926	0.259	-0.058
-619.361	-118.612	-0.264	-0.047
-618.346	-144.997	-0.177	0.016
-617.332	9.673	-0.137	0.104
-616.317	92.979	-0.122	-0.137
-615.303	95.643	0.356	-0.406
-614.288	-200.000	0.064	0.404
-613.273	-83.821	-0.180	-0.057
-612.259	-130.331	0.206	0.028
-611.244	-141.591	0.246	-0.025
-610.230	-106.177	-0.208	0.047
-609.215	-117.837	0.234	-0.042
-608.201	411.850	0.084	-0.179
-607.186	306.829	0.103	0.191
-606.171	85.544	0.142	-0.156
-605.157	337.916	-0.047	-0.092
-604.142	-22.908	-0.163	-0.098
-603.128	15.236	0.214	-0.167
-602.113	-122.500	0.163	-0.026
-601.098	223.219	-0.112	0.181
-600.084	-70.603	0.094	-0.035
-599.069	149.084	-0.144	-0.195
-598.055	800.000	0.016	-0.051
-597.040	-110.908	0.264	-0.054
-596.025	396.952	-0.097	-0.202
-595.011	145.372	-0.086	-0.115
-593.996	-19.624	-0.163	0.101
-592.982	-200.000	0.060	-0.274
-591.967	-154.759	0.137	0.009
-590.952	37.290	-0.134	-0.118
-589.938	800.000	0.044	-0.134
-588.923	-45.491	-0.380	-0.188
-587.909	302.619	0.032	-0.060
-586.894	433.825	0.043	0.092
-585.879	800.000	0.119	0.429
-584.865	609.783	0.107	0.265
-583.850	-71.211	0.033	-0.012
-582.836	-71.359	-0.023	0.009
-581.821	-200.000	0.018	0.085
-580.806	-200.000	0.026	0.169
-579.792	-92.624	-0.134	0.037
-578.777	-90.273	-0.585	0.169
-577.763	-82.190	-0.256	0.083
-576.748	342.891	-0.192	-0.375
-575.733	-200.000	-0.041	0.292
-574.719	800.000	0.087	0.266
-573.704	-200.000	-0.043	0.279
-572.690	7.218	0.043	0.032
-571.675	-79.651	-0.371	-0.125
-570.661	-200.000	-0.000	-0.242
-569.646	347.935	0.084	-0.164
-568.631	237.270	0.098	-0.162
-567.617	800.000	-0.026	0.082
-566.602	-200.000	0.011	-0.131
-565.588	-44.642	-0.146	-0.073
-564.573	49.705	0.191	-0.179
-563.558	360.178	0.108	0.216
-562.544	-200.000	-0.013	0.193
-561.529	10.765	-0.161	0.122
-560.515	-90.208	0.244	0.071
-559.500	-16.950	0.055	-0.034
-558.485	-133.864	-0.120	0.015
-557.471	-200.000	0.030	-0.150
-556.456	108.055	-0.073	0.086
-555.442	-200.000	-0.017	0.168
-554.427	-124.069	-0.309	0.048
-553.412	106.025	-0.138	0.162
-552.398	65.500	-0.032	0.032
-551.383	7.105	-0.240	-0.178
-550.369	65.535	-0.173	-0.175
-549.354	-102.643	0.181	-0.043
-548.339	-130.149	0.180	0.024
-547.325	-41.870	-0.208	0.106
-546.310	-120.608	-0.086	-0.014
-545.296	-28.848	-0.208	0.119
-544.281	-79.464	0.251	0.084
-543.266	-200.000	-0.022	0.137
-542.252	-60.341	-0.222	0.094
-541.237	800.000	0.026	0.077
-540.223	382.943	-0.074	-0.151
-539.208	318.072	-0.084	0.157
-538.193	-200.000	-0.008	-0.174
-537.179	132.202	-0.190	0.243
-536.164	800.000	-0.044	-0.171
-535.150	-85.059	0.036	0.011
-534.135	229.529	-0.239	-0.389
-533.121	85.125	-0.190	0.208
-532.106	270.690	0.070	-0.122
-531.091	-51.741	0.248	0.115
-530.077	800.000	-0.075	-0.215
-529.062	94.689	-0.144	-0.163
-528.048	-200.000	0.036	-0.455
-527.033	-200.000	0.008	0.094
-526.018	-172.682	0.254	0.008
-525.004	44.464	0.206	0.188
-523.989	-200.000	0.010	0.382
-522.975	-200.000	0.062	-0.310
-521.960	317.519	-0.125	-0.235
-520.945	-132.238	0.176	-0.023
-519.931	-41.604	0.108	0.055
-518.916	800.000	-0.061	-0.207
-517.902	-86.021	0.158	0.049
-516.887	270.221	-0.047	0.082
-515.872	376.010	0.136	0.275
-514.858	313.017	-0.113	-0.211
-513.843	-200.000	0.032	-0.172
-512.829	-129.997	-0.226	0.031
-511.814	225.881	0.099	-0.159
-510.799	496.388	-0.039	-0.090
-509.785	325.756	-0.029	0.055
-508.770	-200.000	0.008	0.124
-507.756	89.504	0.135	-0.150
-506.741	-200.000	0.018	-0.112
-505.726	-140.872	-0.464	-0.047
-504.712	-200.000	0.028	-0.202
-503.697	800.000	-0.092	0.271
-502.683	-148.970	0.311	0.025
-501.668	103.333	0.159	-0.185
-500.653	11.464	-0.190	-0.144
-499.639	-48.774	-0.121	0.057
-498.624	-125.631	0.240	0.036
-497.610	51.535	0.147	0.139
-496.595	-5.904	-0.233	0.159
-495.581	787.289	-0.098	-0.267
-494.566	125.666	0.156	-0.195
-493.551	-200.000	0.004	-0.102
-492.537	181.360	0.082	0.119
-491.522	800.000	-0.038	0.156
-490.508	-12.423	-0.124	-0.081
-489.493	-200.000	-0.062	0.374
-488.478	-200.000	0.009	0.070
-487.464	800.000	-0.027	-0.103
-486.449	-200.000	0.016	-0.131
-485.435	6.065	0.154	-0.113
-484.420	111.677	-0.126	0.150
-483.405	165.699	-0.243	0.341
-482.391	-174.062	0.082	-0.002
-481.376	742.868	-0.084	-0.223
-480.362	-42.780	-0.253	0.128
-479.347	-91.371	0.217	0.061
-478.332	105.290	-0.088	0.104
-477.318	76.182	-0.099	0.104
-476.303	-200.000	-0.043	-0.371
-475.289	-104.604	0.390	-0.089
-474.274	-200.000	-0.009	-0.105
-473.259	800.000	0.179	-0.551
-472.245	-2.726	-0.188	-0.131
-471.230	-200.000	0.013	-0.126
-470.216	210.343	-0.093	-0.144
-469.201	-37.254	-0.364	0.193
-468.186	-200.000	0.036	0.239
-467.172	-136.521	0.319	-0.037
-466.157	800.000	-0.044	-0.170
-465.143	-200.000	-0.001	-0.135
-464.128	-69.841	0.256	-0.097
-463.113	97.068	0.067	-0.077
-462.099	540.889	0.074	0.174
-461.084	-174.456	-0.274	-0.008
-460.070	655.800	-0.162	-0.412
-459.055	-188.266	-0.337	-0.004
-458.040	185.209	-0.232	-0.342
-457.026	-117.702	-0.204	-0.036
-456.011	88.988	-0.012	0.013
-454.997	-3.564	0.122	0.084
-453.982	-2.876	0.174	0.121
-452.968	-17.561	-0.117	0.073
-451.953	-134.735	-0.072	-0.009
-450.938	432.289	-0.119	0.255
-449.924	-179.858	0.173	0.004
-448.909	87.942	0.128	0.141
-447.895	101.296	-0.127	0.147
-446.880	33.849	0.154	0.133
-445.865	800.000	0.040	-0.167
-444.851	125.281	0.165	0.207
-443.836	800.000	0.043	-0.138
-442.822	-76.626	-0.116	0.040
-441.807	-200.000	0.003	-0.224
-440.792	-24.022	-0.197	0.116
-439.778	116.082	-0.051	-0.062
-438.763	-195.581	0.114	-0.001
-437.749	-77.873	-0.418	0.143
-436.734	-96.120	0.292	0.077
-435.719	800.000	0.150	-0.437
-434.705	-200.000	0.001	0.025
-433.690	434.945	-0.075	0.162
-432.676	90.647	0.431	0.478
-431.661	-200.000	0.071	0.321
-430.646	294.091	-0.056	-0.102
-429.632	-153.719	0.102	0.007
-428.617	-200.000	0.041	-0.195
-427.603	409.525	-0.187	0.392
-426.588	296.294	-0.097	0.177
-425.573	-5.977	0.285	-0.193
-424.559	109.398	0.021	-0.025
-423.544	-110.307	-0.284	0.059
-422.530	-200.000	-0.001	0.012
-421.515	-200.000	-0.073	0.427
-420.500	-100.099	0.091	0.022
-419.486	10.142	0.168	0.126
-418.471	-67.329	0.163	0.063
-417.457	-200.000	0.019	0.092
-416.442	-7.265	-0.228	-0.153
-415.428	-200.000	-0.042	-0.248
-414.413	372.892	-0.060	-0.120
-413.398	800.000	-0.085	0.305
-412.384	-74.931	0.112	-0.040
-411.369	800.000	-0.007	-0.027
-410.355	202.493	-0.089	0.136
-409.340	189.385	0.147	-0.219
-408.325	-108.451	0.142	-0.030
-407.311	136.124	0.222	0.287
-406.296	800.000	-0.094	0.369
-405.282	-83.710	0.170	-0.054
-404.267	490.064	0.011	-0.026
-403.252	-22.532	0.106	-0.063
-402.238	-200.000	0.036	0.157
-401.223	-136.742	-0.138	-0.016
-400.209	-143.163	0.175	-0.017
-399.194	129.168	0.081	-0.102
-398.179	-135.061	0.130	0.015
-397.165	245.882	-0.255	-0.425
-396.150	-126.786	-0.161	0.023
-395.136	-54.062	-0.181	-0.082
-394.121	19.140	0.072	-0.057
-393.106	-8.206	0.103	0.068
-392.092	-101.360	0.401	0.097
-391.077	288.029	0.039	-0.069
-390.063	120.237	-0.156	-0.191
-389.048	800.000	-0.067	-0.214
-388.033	-132.197	-0.213	0.027
-387.019	502.016	0.121	0.276
-386.004	382.321	0.056	0.114
-384.990	-200.000	0.011	-0.183
-383.975	800.000	0.062	-0.180
-382.960	76.027	-0.034	0.035
-381.946	-92.596	0.242	0.067
-380.931	-34.668	0.239	0.129
-379.917	454.072	0.101	-0.220
-378.902	112.224	-0.212	0.253
-377.888	-200.000	-0.004	-0.052
-376.873	800.000	0.039	-0.135
-375.858	21.297	-0.111	0.089
-374.844	-200.000	0.026	-0.121
-373.829	-130.721	-0.159	-0.021
-372.815	203.190	0.227	0.346
-371.800	-91.939	-0.133	0.037
-370.785	-95.575	0.412	0.109
-369.771	-133.799	-0.218	0.027
-368.756	-147.931	0.121	-0.010
-367.742	303.830	0.137	0.252
-366.727	30.453	-0.109	0.092
-365.712	800.000	-0.142	-0.520
-364.698	-39.809	-0.235	0.121
-363.683	300.729	-0.160	0.291
-362.669	469.925	0.028	-0.061
-361.654	800.000	-0.092	0.345
-360.639	-161.696	0.326	0.016
-359.625	-9.999	0.220	-0.145
-358.610	800.000	0.032	0.107
-357.596	-12.271	0.362	0.234
-356.581	260.860	-0.159	0.272
-355.566	79.103	-0.209	0.221
-354.552	-98.845	0.101	0.025
-353.537	-134.931	-0.213	0.025
-352.523	781.253	-0.008	-0.022
-351.508	-200.000	-0.017	0.119
-350.493	-48.314	-0.157	0.075
-349.479	340.507	-0.019	-0.036
-348.464	436.823	0.090	-0.193
-347.450	-200.000	0.001	0.107
-346.435	25.295	0.144	-0.118
-345.420	191.386	-0.080	0.119
-344.406	-18.134	0.147	0.091
-343.391	800.000	-0.032	0.102
-342.377	-110.995	-0.443	-0.090
-341.362	-135.142	0.252	-0.030
-340.348	800.000	0.043	-0.130
-339.333	800.000	-0.125	-0.379
-338.318	-3.728	0.053	-0.036
-337.304	-29.350	0.105	0.059
-336.289	-80.401	0.153	0.050
-335.275	-43.136	0.047	-0.024
-334.260	-133.060	0.153	-0.019
-333.245	-19.913	-0.183	-0.111
-332.231	-131.177	-0.206	0.027
-331.216	-200.000	0.001	0.081
-330.202	-40.930	0.343	0.175
-329.187	689.081	0.078	-0.202
-328.172	800.000	0.011	0.043
-327.158	-65.145	0.095	0.038
-326.143	1.384	0.044	0.031
-325.129	-93.425	-0.228	0.062
-324.114	-134.628	-0.253	-0.030
-323.099	-104.374	-0.112	0.026
-322.085	36.785	0.108	0.094
-321.070	-200.000	0.007	-0.112
-320.056	800.000	-0.097	-0.295
-319.041	-129.942	0.129	0.017
-318.026	233.712	-0.158	-0.257
-317.012	75.897	-0.051	0.053
-315.997	-200.000	-0.012	0.082
-314.983	76.652	0.182	0.191
-313.968	-126.711	-0.169	0.025
-312.953	-200.000	-0.075	0.366
-311.939	-27.755	0.101	0.058
-310.924	85.165	0.075	0.081
-309.910	224.261	-0.125	0.199
-308.895	491.164	0.087	0.197
-307.880	257.803	-0.096	0.162
-306.866	22.182	0.079	0.063
-305.851	-200.000	0.046	-0.378
-304.837	-2.950	0.230	-0.158
-303.822	6.258	0.182	-0.133
-302.807	-123.875	0.215	0.033
-301.793	-200.000	0.045	0.253
-300.778	346.294	0.172	0.333
-299.764	35.483	-0.098	-0.085
-298.749	-127.337	-0.190	-0.027
-297.735	-200.000	0.012	-0.222
-296.720	165.922	0.062	0.087
-295.705	-15.252	0.418	0.264
-294.691	99.349	-0.249	-0.283
-293.676	29.623	0.123	0.103
-292.662	-200.000	0.004	-0.072
-291.647	-200.000	0.020	0.142
-290.632	-69.864	-0.221	-0.083
-289.618	26.611	-0.190	-0.157
-288.603	-35.673	0.239	0.128
-287.589	-87.390	0.214	0.064
-286.574	-165.390	0.249	0.011
-285.559	-200.000	-0.041	0.215
-284.545	-64.633	-0.195	0.078
-283.530	-50.231	0.361	-0.168
-282.516	177.749	0.087	-0.124
-281.501	0.419	0.023	-0.016
-280.486	286.711	-0.040	-0.070
-279.472	212.311	-0.119	-0.185
-278.457	-47.175	-0.151	-0.072
-277.443	84.052	-0.078	-0.084
-276.428	-200.000	-0.019	-0.124
-275.413	-200.000	-0.013	0.160
-274.399	331.302	0.037	-0.071
-273.384	-75.738	-0.198	-0.069
-272.370	-200.000	-0.015	0.317
-271.355	-107.324	0.217	0.047
-270.340	-200.000	-0.051	0.295
-269.326	-47.094	0.100	0.048
-268.311	112.087	0.036	-0.043
-267.297	-81.984	0.254	0.082
-266.282	-200.000	0.021	0.135
-265.267	359.235	-0.172	-0.338
-264.253	90.696	0.098	-0.108
-263.238	-119.660	0.107	0.018
-262.224	66.042	0.316	-0.315
-261.209	-89.860	0.254	0.073
-260.195	800.000	0.081	-0.300
-259.180	-200.000	0.041	-0.373
-258.165	-88.438	-0.148	0.043
-257.151	-100.471	0.275	0.067
-256.136	800.000	0.075	0.232
-255.122	-200.000	-0.060	0.265
-254.107	-106.182	-0.588	0.130
-253.092	-200.000	0.005	0.027
-252.078	39.779	-0.181	0.160
-251.063	-200.000	-0.032	-0.236
-250.049	14.083	0.270	0.207
-249.034	-43.441	-0.075	-0.037
-248.019	-142.459	-0.361	0.035
-247.005	295.578	-0.152	0.273
-245.990	-9.741	0.100	-0.065
-244.976	151.019	0.102	0.137
-243.961	-200.000	0.034	-0.215
-242.946	-200.000	0.031	-0.239
-241.932	150.523	-0.077	-0.103
-240.917	-13.695	-0.284	-0.181
-239.903	-118.995	0.200	0.034
-238.888	30.838	-0.075	0.063
-237.873	-67.341	-0.112	-0.043
-236.859	-200.000	0.036	0.186
-235.844	-200.000	0.035	0.198
-234.830	-200.000	0.020	-0.191
-233.815	79.611	0.088	-0.092
-232.800	-56.645	-0.136	0.059
-231.786	-39.727	0.282	0.145
-230.771	-46.988	0.227	-0.109
-229.757	61.704	0.231	0.226
-228.742	75.191	-0.179	0.185
-227.727	24.965	0.144	0.117
-226.713	-135.550	0.107	-0.012
-225.698	-200.000	-0.007	0.049
-224.684	-200.000	0.012	-0.242
-223.669	-27.179	0.362	-0.207
-222.655	40.790	0.182	0.161
-221.640	800.000	-0.079	-0.237
-220.625	280.518	0.059	-0.104
-219.611	-114.396	-0.185	0.035
-218.596	800.000	-0.037	-0.144
-217.582	-67.053	-0.280	0.108
-216.567	-197.894	-0.028	-0.000
-215.552	-100.229	0.279	0.068
-214.538	-200.000	0.023	0.286
-213.523	-124.916	-0.150	0.023
-212.509	154.366	-0.064	0.086
-211.494	-8.763	0.387	0.255
-210.479	45.080	-0.187	-0.170
-209.465	-166.023	-0.164	0.007
-208.450	51.318	-0.242	0.226
-207.436	90.184	-0.175	0.192
-206.421	-21.114	-0.097	0.058
-205.406	800.000	0.009	0.039
-204.392	284.909	-0.199	0.353
-203.377	-200.000	0.002	-0.095
-202.363	800.000	-0.080	-0.256
-201.348	-181.581	0.269	-0.005
-200.333	-200.000	-0.007	-0.059
-199.319	-40.589	-0.316	-0.161
-198.304	800.000	0.056	-0.158
-197.290	800.000	-0.056	0.209
-196.275	-101.124	-0.244	0.059
-195.260	268.296	-0.138	-0.238
-194.246	37.360	-0.104	-0.090
-193.231	-200.000	-0.061	0.263
-192.217	-156.691	0.139	0.008
-191.202	156.206	-0.296	-0.401
-190.187	99.622	0.126	0.143
-189.173	-200.000	-0.116	0.505
-188.158	16.436	-0.237	0.183
-187.144	-122.445	0.312	-0.050
-186.129	-200.000	0.035	0.299
-185.114	162.543	0.185	-0.254
-184.100	-200.000	0.012	-0.098
-183.085	-65.087	0.157	0.062
-182.071	-2.890	-0.227	-0.156
-181.056	-92.511	-0.392	-0.108
-180.042	30.801	-0.093	-0.078
-179.027	-200.000	0.026	0.244
-178.012	-106.950	0.162	-0.035
-176.998	207.199	-0.117	-0.179
-175.983	198.262	0.227	0.341
-174.969	377.663	-0.028	-0.055
-173.954	-85.557	0.349	0.106
-172.939	83.455	0.105	0.112
-171.925	584.494	0.107	-0.258
-170.910	27.156	-0.110	0.091
-169.896	189.889	-0.110	-0.162
-168.881	800.000	0.061	-0.181
-167.866	800.000	0.114	0.323
-166.852	-200.000	-0.014	0.182
-165.837	-0.766	-0.107	0.074
-164.823	800.000	0.123	-0.450
-163.808	-20.743	0.361	0.217
-162.793	244.242	0.056	0.092
-161.779	-144.849	-0.423	-0.038
-160.764	357.095	0.061	-0.118
-159.750	-33.044	-0.226	0.123
-158.735	150.809	-0.072	-0.096
-157.720	580.448	0.029	-0.069
-156.706	377.072	0.193	0.387
-155.691	-200.000	0.062	0.275
-154.677	20.364	-0.145	-0.115
-153.662	46.778	0.250	-0.228
-152.647	335.626	-0.051	0.097
-151.633	-93.484	0.465	-0.126
-150.618	-26.768	0.288	-0.165
-149.604	224.147	-0.059	-0.094
-148.589	-9.038	-0.106	0.069
-147.574	144.200	-0.170	0.222
-146.560	-130.596	-0.049	0.006
-145.545	3.226	0.116	-0.083
-144.531	-117.971	0.551	-0.097
-143.516	539.873	0.074	-0.172
-142.502	-200.000	-0.058	0.309
-141.487	179.335	0.070	-0.101
-140.472	-129.967	0.325	0.044
-139.458	-72.679	0.139	-0.050
-138.443	578.029	-0.077	-0.183
-137.429	-58.090	-0.168	-0.072
-136.414	24.633	-0.115	0.093
-135.399	800.000	-0.044	-0.158
-134.385	-22.282	-0.163	-0.097
-133.370	265.852	-0.045	-0.077
-132.356	-30.951	-0.241	0.133
-131.341	-97.499	-0.304	-0.077
-130.326	174.090	-0.088	0.124
-129.312	-45.157	0.084	-0.041
-128.297	-63.302	0.015	-0.006
-127.283	8.454	-0.137	-0.101
-126.268	42.378	0.156	-0.138
-125.253	-92.580	0.060	-0.016
-124.239	56.527	0.107	0.102
-123.224	280.462	0.074	-0.130
-122.210	748.308	-0.062	-0.164
-121.195	0.447	0.329	-0.230
-120.180	-117.580	-0.388	-0.068
-119.166	-58.320	0.158	-0.067
-118.151	708.551	0.129	0.334
-117.137	-69.863	0.573	-0.214
-116.122	108.778	0.214	0.250
-115.107	77.450	0.233	0.242
-114.093	39.844	-0.038	0.034
-113.078	-36.946	-0.201	0.105
-112.064	57.659	0.084	-0.080
-111.049	724.445	-0.159	0.414
-110.034	-200.000	-0.047	0.230
-109.020	-156.455	0.138	0.008
-108.005	-53.736	-0.117	-0.052
-106.991	171.995	-0.130	-0.183
-105.976	-64.576	0.112	-0.044
-104.962	193.611	0.066	0.098
-103.947	20.767	0.158	-0.125
-102.932	-200.000	-0.057	0.394
-101.918	-172.366	0.274	-0.009
-100.903	-67.954	-0.411	0.157
-99.889	-80.516	-0.157	0.051
-98.874	-134.377	0.126	-0.015
-97.859	6.080	0.181	0.131
-96.845	78.793	0.088	0.092
-95.830	-55.191	-0.239	-0.105
-94.816	-117.956	-0.063	-0.011
-93.801	800.000	-0.055	-0.206
-92.786	-65.624	0.265	-0.104
-91.772	620.156	0.043	0.106
-90.757	163.631	-0.190	0.261
-89.743	296.002	-0.145	-0.259
-88.728	800.000	0.096	-0.275
-87.713	132.840	-0.122	0.154
-86.699	-85.534	0.397	0.121
-85.684	31.731	0.132	-0.111
-84.670	213.374	0.198	-0.306
-83.655	-126.046	-0.250	-0.037
-82.640	171.504	0.209	-0.293
-81.626	465.523	-0.101	0.222
-80.611	-200.000	-0.010	0.146
-79.597	79.619	-0.264	0.277
-78.582	-188.310	0.191	0.002
-77.567	-56.135	-0.124	-0.054
-76.553	800.000	-0.045	0.162
-75.538	-84.251	0.370	0.115
-74.524	8.993	-0.351	-0.259
-73.509	51.569	0.136	-0.126
-72.494	552.366	-0.053	0.124
-71.480	80.355	0.082	0.086
-70.465	-46.796	-0.273	0.131
-69.451	27.573	0.065	-0.053
-68.436	109.220	0.295	-0.345
-67.422	-22.400	-0.044	-0.026
-66.407	58.428	0.133	0.127
-65.392	130.410	-0.054	0.067
-64.378	29.625	0.112	0.093
-63.363	328.053	0.264	0.494
-62.349	218.749	0.120	0.187
-61.334	270.195	-0.789	-1.355
-60.319	293.478	0.612	1.090
-59.305	800.000	-0.299	-0.981
-58.290	407.374	0.730	1.507
-57.276	800.000	0.470	1.492
-56.261	-200.000	122.465	615.549
-55.246	385.186	1567.396	3154.494
-54.232	140.570	2741.340	3533.038
-53.217	93.840	2181.785	2413.534
-52.203	35.327	1608.137	1376.453
-51.188	26.722	1349.462	1102.893
-50.173	24.151	1311.348	1056.472
-49.159	51.077	1379.495	1276.565
-48.144	48.327	1391.859	1271.203
-47.130	26.948	1339.376	1095.842
-46.115	23.738	1320.093	1060.885
-45.100	23.393	1315.431	1055.043
-44.086	23.285	1313.587	1052.879
-43.071	23.278	1310.983	1050.706
-42.057	23.278	1308.460	1048.645
-41.042	23.315	1307.201	1047.814
-40.027	23.429	1305.714	1047.256
-39.013	23.361	1303.943	1045.393
-37.998	23.342	1302.159	1043.804
-36.984	23.514	1300.014	1043.059
-35.969	23.472	1298.218	1041.328
-34.954	23.446	1296.822	1040.013
-33.940	23.403	1295.737	1038.850
-32.925	23.592	1293.904	1038.447
-31.911	23.500	1292.258	1036.545
-30.896	23.573	1291.287	1036.153
-29.881	23.657	1289.475	1035.150
-28.867	23.562	1288.960	1034.138
-27.852	23.548	1286.981	1032.428
-26.838	23.638	1285.827	1031.985
-25.823	23.614	1284.490	1030.734
-24.809	23.517	1283.215	1029.108
-23.794	23.558	1281.773	1028.146
-22.779	23.505	1280.581	1026.842
-21.765	23.538	1279.478	1026.110
-20.750	23.493	1278.245	1024.820
-19.736	23.433	1277.213	1023.606
-18.721	23.552	1275.873	1023.178
-17.706	23.402	1274.553	1021.213
-16.692	23.380	1273.804	1020.444
-15.677	23.480	1272.341	1019.808
-14.663	23.368	1271.306	1018.296
-13.648	23.437	1270.151	1017.723
-12.633	23.361	1269.445	1016.680
-11.619	23.492	1268.317	1016.490
-10.604	23.479	1267.560	1015.768
-9.590	23.320	1266.887	1014.279
-8.575	23.368	1265.871	1013.700
-7.560	23.464	1265.042	1013.545
-6.546	23.383	1263.910	1012.132
-5.531	23.405	1263.318	1011.743
-4.517	23.430	1262.447	1011.149
-3.502	23.351	1261.861	1010.191
-2.487	23.413	1260.690	1009.568
-1.473	23.375	1256.745	1006.154
-0.458	22.227	1241.870	987.756
0.556	17.993	1226.499	953.132
1.571	14.702	1234.456	940.717
2.586	14.017	1249.396	948.113
3.600	13.826	1237.673	938.054
4.615	10.317	1164.936	864.152
5.629	3.836	1092.872	778.089
6.644	0.830	1075.460	750.724
7.659	0.631	1073.422	748.250
8.673	0.567	1072.661	747.333
9.688	0.533	1071.665	746.405
10.702	0.896	1069.047	746.309
11.717	4.640	1073.639	767.964
12.731	11.420	1082.953	808.233
13.746	15.928	1088.099	834.387
14.761	17.197	1089.246	841.480
15.775	16.460	1087.479	836.397
16.790	15.486	1085.435	829.937
17.804	14.799	1083.701	825.146
18.819	14.584	1082.816	823.335
19.834	14.215	1081.929	820.772
20.848	14.000	1080.733	818.732
21.863	13.637	1080.364	816.591
22.877	13.542	1079.889	815.694
23.892	13.512	1079.024	814.818
24.907	13.479	1078.067	813.864
25.921	13.572	1077.355	813.709
26.936	13.610	1076.434	813.129
27.950	13.678	1075.634	812.785
28.965	13.719	1073.758	811.497
29.980	13.709	1072.705	810.582
30.994	13.764	1071.949	810.204
32.009	13.734	1071.197	809.422
33.023	13.796	1069.696	808.514
34.038	13.693	1068.853	807.303
35.053	13.783	1067.643	806.760
36.067	13.734	1067.063	806.012
37.082	13.767	1066.206	805.450
38.096	13.675	1065.462	804.371
39.111	13.637	1064.548	803.427
40.126	13.735	1063.297	802.887
41.140	13.614	1062.302	801.478
42.155	13.542	1061.127	800.175
43.169	13.565	1060.256	799.558
44.184	13.483	1059.288	798.362
45.199	13.466	1058.292	797.456
46.213	13.544	1057.237	796.969
47.228	13.644	1055.737	796.245
48.242	13.617	1055.170	795.618
49.257	13.635	1053.901	794.678
50.271	13.720	1053.206	794.489
51.286	13.720	1052.047	793.545
52.301	13.701	1051.272	792.802
53.315	13.653	1050.294	791.762
54.330	13.571	1049.314	790.562
55.344	13.508	1048.462	789.550
56.359	13.583	1047.651	789.229
57.374	13.663	1046.842	788.929
58.388	13.515	1045.742	787.328
59.403	13.591	1045.068	787.112
60.417	13.582	1044.184	786.334
61.432	13.628	1043.394	785.888
62.447	13.577	1042.631	785.001
63.461	13.449	1041.470	783.450
64.476	13.504	1040.532	782.934
65.490	13.476	1039.609	782.040
66.505	13.531	1039.117	781.859
67.520	13.644	1038.631	781.958
68.534	13.501	1037.838	780.620
69.549	13.509	1036.952	779.919
70.563	13.493	1036.454	779.403
71.578	13.532	1034.955	778.391
72.593	13.413	1034.924	777.738
73.607	13.470	1034.102	777.320
74.622	13.401	1033.439	776.427
75.636	13.566	1032.286	776.264
76.651	13.459	1032.348	775.741
77.666	13.394	1031.246	774.540
78.680	13.348	1030.884	773.989
79.695	13.465	1029.872	773.707
80.709	13.557	1029.310	773.644
81.724	13.599	1028.674	773.296
82.739	13.534	1028.087	772.480
83.753	13.541	1027.041	771.662
84.768	13.640	1026.124	771.362
85.782	13.622	1024.689	770.131
86.797	13.733	1024.006	770.065
87.812	13.658	1023.339	769.150
88.826	13.644	1022.438	768.339
89.841	13.559	1021.553	767.211
90.855	13.687	1020.442	766.900
91.870	13.775	1019.331	766.406
92.884	13.547	1018.944	764.991
93.899	13.751	1017.467	764.756
94.914	13.731	1016.827	764.115
95.928	13.784	1016.491	764.039
96.943	13.773	1014.897	762.726
97.957	13.599	1014.546	761.595
98.972	13.650	1013.875	761.257
99.987	13.732	1012.650	760.645
101.001	13.765	1011.883	760.153
102.016	13.678	1010.583	758.712
103.030	13.695	1010.158	758.404
104.045	13.820	1009.286	758.254
105.060	13.707	1008.824	757.321
106.074	13.563	1008.219	756.143
107.089	13.789	1006.509	755.824
108.103	13.650	1005.782	754.576
109.118	13.698	1004.400	753.693
110.133	13.629	1003.732	752.811
111.147	13.723	1002.821	752.487
112.162	13.672	1002.131	751.674
113.176	13.709	1001.240	751.104
114.191	13.704	1000.443	750.418
115.206	13.805	999.656	750.217
116.220	13.696	998.916	749.106
117.235	13.800	998.023	748.838
118.249	13.510	997.393	746.990
119.264	13.641	996.693	746.991
120.279	13.610	995.608	745.974
121.293	13.658	994.721	745.458
122.308	13.755	993.630	745.009
123.322	13.683	992.727	743.942
124.337	13.610	991.853	742.897
125.352	13.688	990.783	742.376
126.366	13.510	989.968	740.903
127.381	13.629	988.480	740.257
128.395	13.580	987.646	739.347
129.410	13.539	986.790	738.459
130.424	13.752	985.537	738.406
131.439	13.864	984.453	738.026
132.454	13.740	984.562	737.490
133.468	13.768	983.278	736.589
134.483	13.804	982.402	736.026
135.497	13.701	982.053	735.244
136.512	13.656	980.896	734.115
137.527	13.777	979.971	733.889
138.541	13.665	979.412	732.911
139.556	13.795	978.640	732.843
140.570	13.751	977.969	732.084
141.585	13.940	976.956	732.093
142.600	13.958	976.239	731.568
143.614	13.728	975.382	729.851
144.629	13.803	974.944	729.786
145.643	13.812	973.993	729.051
146.658	13.879	972.441	728.117
147.673	13.844	971.775	727.402
148.687	13.827	971.068	726.736
149.702	13.760	970.201	725.726
150.716	13.820	969.533	725.424
151.731	13.829	968.771	724.831
152.746	13.728	968.022	723.768
153.760	13.937	967.356	724.113
154.775	13.889	966.772	723.404
155.789	13.982	965.965	723.141
156.804	13.882	965.471	722.273
157.819	13.955	964.845	722.059
158.833	13.936	963.951	721.240
159.848	13.992	963.501	721.083
160.862	14.030	962.239	720.242
161.877	14.029	961.174	719.378
162.892	14.007	960.624	718.808
163.906	14.093	959.075	717.954
164.921	13.982	958.485	716.969
165.935	14.023	957.448	716.306
166.950	14.141	956.710	716.201
167.964	13.918	956.114	714.730
168.979	14.057	954.942	714.388
169.994	14.145	954.247	714.183
171.008	14.081	953.532	713.314
172.023	14.099	952.824	712.794
173.037	14.150	952.068	712.387
174.052	14.301	951.196	712.317
175.067	14.056	951.190	711.202
176.081	14.099	950.424	710.749
177.096	14.190	949.662	710.506
178.110	14.022	949.228	709.401
179.125	14.095	948.893	709.400
180.140	14.120	948.121	708.866
181.154	14.196	947.587	708.725
182.169	14.168	947.489	708.471
183.183	14.320	946.356	708.210
184.198	14.149	945.735	706.953
185.213	14.244	944.831	706.617
186.227	14.286	943.983	706.102
187.242	14.174	943.622	705.294
188.256	14.340	942.982	705.456
189.271	14.292	942.209	704.612
190.286	14.167	941.588	703.556
191.300	14.297	940.879	703.513
192.315	14.083	940.407	702.195
193.329	14.188	939.432	701.847
194.344	14.257	939.005	701.756
195.359	14.367	938.078	701.467
196.373	14.389	937.378	700.974
197.388	14.299	937.572	700.678
198.402	14.474	936.573	700.603
199.417	14.495	936.078	700.260
200.432	14.344	936.071	699.558
201.446	14.519	935.003	699.434
202.461	14.618	934.102	699.112
203.475	14.467	934.041	698.370
204.490	14.620	932.829	698.045
205.504	14.382	932.429	696.685
206.519	14.549	931.477	696.613
207.534	14.488	930.875	695.844
208.548	14.552	929.683	695.161
209.563	14.567	929.369	694.924
210.577	14.594	928.770	694.528
211.592	14.684	928.037	694.294
212.607	14.542	927.120	692.954
213.621	14.712	926.086	692.827
214.636	14.712	925.799	692.552
215.650	14.630	925.220	691.715
216.665	14.771	924.210	691.485
217.680	14.868	923.527	691.315
218.694	14.850	922.565	690.456
219.709	14.831	922.180	690.029
220.723	14.769	921.652	689.318
221.738	14.706	921.113	688.592
222.753	14.760	920.542	688.330
223.767	14.790	920.066	688.036
224.782	14.942	919.199	687.953
225.796	14.816	918.949	687.185
226.811	14.917	917.879	686.740
227.826	14.982	917.021	686.305
228.840	14.900	916.662	685.639
229.855	14.862	915.388	684.467
230.869	14.894	914.877	684.158
231.884	14.733	914.587	683.222
232.899	14.828	913.869	683.012
233.913	14.862	913.118	682.528
234.928	14.864	912.365	681.916
235.942	14.913	911.706	681.561
236.957	14.809	910.998	680.549
237.972	15.007	910.114	680.631
238.986	14.985	909.741	680.203
240.001	14.917	909.452	679.652
241.015	14.997	908.427	679.149
242.030	15.053	907.874	678.902
243.045	14.942	907.464	678.088
244.059	15.008	906.936	677.899
245.074	15.138	906.261	677.862
246.088	15.113	905.164	676.878
247.103	15.158	904.726	676.675
248.117	15.287	903.883	676.506
249.132	15.155	903.799	675.851
250.147	15.201	902.778	675.210
251.161	15.297	902.207	675.111
252.176	15.247	901.798	674.545
253.190	15.254	900.933	673.864
254.205	15.449	900.140	673.997
255.220	15.260	899.888	672.989
256.234	15.297	899.380	672.696
257.249	15.340	898.559	672.195
258.263	15.425	897.280	671.519
259.278	15.402	896.932	671.107
260.293	15.522	896.152	670.944
261.307	15.414	895.855	670.232
262.322	15.412	895.370	669.801
263.336	15.622	894.396	669.850
264.351	15.586	893.940	669.305
265.366	15.671	893.354	669.149
266.380	15.705	892.521	668.600
267.395	15.584	892.014	667.678
268.409	15.644	890.999	667.098
269.424	15.622	890.445	666.537
270.439	15.638	889.688	665.975
271.453	15.688	889.110	665.683
272.468	15.485	888.866	664.638
273.482	15.527	888.125	664.190
274.497	15.516	887.803	663.848
275.512	15.597	887.010	663.514
276.526	15.658	886.385	663.229
277.541	15.774	885.763	663.163
278.555	15.726	885.223	662.512
279.570	15.721	884.936	662.218
280.585	15.814	883.733	661.625
281.599	15.691	883.480	660.894
282.614	15.812	882.269	660.406
283.628	15.851	882.018	660.309
284.643	15.843	881.098	659.532
285.657	15.907	880.531	659.300
286.672	15.790	879.982	658.375
287.687	16.016	879.258	658.658
288.701	15.958	878.890	658.094
289.716	15.797	878.671	657.245
290.730	15.804	878.163	656.836
291.745	15.831	877.314	656.245
292.760	16.049	876.040	656.082
293.774	16.051	875.809	655.860
294.789	15.948	875.291	655.015
295.803	15.909	874.749	654.398
296.818	16.066	873.447	653.978
297.833	16.013	872.697	653.150
298.847	15.933	872.433	652.587
299.862	16.088	871.719	652.596
300.876	16.025	871.355	652.020
301.891	16.127	870.518	651.731
302.906	15.957	870.143	650.735
303.920	16.191	869.295	650.946
304.935	16.169	868.866	650.484
305.949	16.201	868.090	649.969
306.964	16.070	868.168	649.462
307.979	16.250	867.074	649.281
308.993	16.307	866.698	649.161
310.008	16.261	865.953	648.368
311.022	16.291	865.193	647.857
312.037	16.224	865.050	647.435
313.052	16.102	864.659	646.619
314.066	16.270	863.642	646.443
315.081	16.182	863.297	645.789
316.095	16.236	862.633	645.443
317.110	16.189	861.864	644.631
318.125	16.255	861.491	644.549
319.139	16.313	860.865	644.245
320.154	16.268	860.543	643.774
321.168	16.407	859.816	643.702
322.183	16.434	859.076	643.195
323.197	16.468	858.572	642.890
324.212	16.429	858.136	642.359
325.227	16.358	857.697	641.703
326.241	16.514	857.077	641.776
327.256	16.361	856.742	640.888
328.270	16.299	856.054	640.079
329.285	16.374	855.287	639.734
330.300	16.422	854.538	639.300
331.314	16.378	854.444	639.005
332.329	16.507	853.774	638.934
333.343	16.524	853.395	638.659
334.358	16.450	852.839	637.907
335.373	16.500	852.348	637.671
336.387	16.516	852.292	637.633
337.402	16.613	851.720	637.516
338.416	16.593	851.699	637.367
339.431	16.702	851.197	637.346
340.446	16.692	850.676	636.862
341.460	16.639	850.320	636.341
342.475	16.797	849.641	636.368
343.489	16.787	849.452	636.132
344.504	16.886	848.599	635.809
345.519	16.710	848.580	635.079
346.533	16.693	848.047	634.559
347.548	16.706	847.341	634.026
348.562	16.688	846.919	633.585
349.577	16.787	846.042	633.241
350.592	16.850	845.309	632.872
351.606	16.838	844.693	632.313
352.621	16.663	844.265	631.283
353.635	16.900	843.680	631.674
354.650	16.903	842.994	631.116
355.665	16.807	842.305	630.186
356.679	16.823	841.890	629.880
357.694	16.833	841.501	629.567
358.708	16.851	840.554	628.870
359.723	16.900	840.194	628.728
360.738	16.865	839.582	628.085
361.752	17.049	838.726	628.070
362.767	16.953	838.352	627.378
363.781	17.108	837.761	627.454
364.796	17.150	837.273	627.188
365.810	17.206	836.865	627.035
366.825	17.152	836.500	626.505
367.840	17.112	836.221	626.096
368.854	17.187	835.360	625.672
369.869	17.091	835.159	625.111
370.883	17.182	834.635	624.999
371.898	17.232	834.161	624.773
372.913	17.265	833.562	624.391
373.927	17.357	833.177	624.385
374.942	17.301	832.952	623.955
375.956	17.262	832.711	623.575
376.971	17.455	831.615	623.407
377.986	17.383	831.430	622.949
379.000	17.479	830.794	622.769
380.015	17.389	830.438	622.117
381.029	17.483	829.927	622.022
382.044	17.343	829.786	621.351
383.059	17.355	828.905	620.680
384.073	17.461	828.095	620.403
385.088	17.461	827.606	619.984
386.102	17.289	827.445	619.180
387.117	17.440	826.510	618.976
388.132	17.571	825.945	618.975
389.146	17.490	825.395	618.214
390.161	17.540	825.068	618.095
391.175	17.583	824.710	617.931
392.190	17.663	823.841	617.512
393.205	17.605	823.536	617.020
394.219	17.468	823.194	616.211
395.234	17.522	822.798	616.056
396.248	17.485	822.734	615.821
397.263	17.538	822.201	615.560
398.278	17.462	821.745	614.889
399.292	17.592	820.941	614.701
400.307	17.640	820.591	614.560
401.321	17.536	820.300	613.910
402.336	17.616	819.664	613.668
403.350	17.579	819.153	613.098
404.365	17.697	818.740	613.159
405.380	17.695	818.232	612.717
406.394	17.810	817.780	612.737
407.409	17.920	816.806	612.350
408.423	17.723	817.067	611.782
409.438	17.752	816.808	611.639
410.453	17.787	816.157	611.222
411.467	17.784	815.714	610.827
412.482	17.858	815.458	610.847
413.496	17.890	814.954	610.529
414.511	17.853	814.607	610.084
415.526	17.805	814.139	609.506
416.540	17.979	813.249	609.408
417.555	18.024	813.170	609.454
418.569	18.022	812.409	608.822
419.584	17.962	812.302	608.476
420.599	18.029	811.869	608.335
421.613	114.337	1298.651	1486.150
422.628	98.933	1369.539	1486.217
