DTS Sentinel unit serial number:	SN413079Multiplexer serial number:	ORYXHardware model number:	OX4-SRSoftware version number:	ORYX F/W v4.00 Oryx Data Collector v3.7.2.0data status	okinstallation	princeton_trtdifferential loss correction	single-endedforward channel	channel 1reverse channel	N/Adate	2019/09/14time	22:54:35forward acquisition time	60.00reverse acquisition time	0.00gamma	496.2192k internal	0.2319k external	0.2319temperature offset calibration	1.0003default loss term (dB/km)	0.3790temperature slope calibration	1.0000multiplexer offset coefficient	1.0000multiplexer slope coefficient	1.0000fibre end	0.00T internal ref (°C)	32.45T ext. ref 1 (°C)	4.67T ext. ref 2 (°C)	27.49length (m)	temperature (°C)	Stokes	anti-Stokes-747.200	53.511	-0.168	-0.163
-746.185	-84.057	0.017	-0.006
-745.171	47.942	-0.169	-0.160
-744.156	-154.163	-0.143	-0.010
-743.142	278.554	-0.054	0.098
-742.127	-14.307	-0.171	0.112
-741.112	-56.845	0.195	-0.087
-740.098	-200.000	0.036	0.175
-739.083	-109.255	-0.198	0.043
-738.069	515.714	0.127	0.299
-737.054	-200.000	0.020	0.092
-736.039	282.230	0.149	0.270
-735.025	-43.275	-0.118	0.060
-734.010	-7.012	-0.214	0.147
-732.996	800.000	0.156	-0.582
-731.981	51.686	0.301	-0.289
-730.966	-139.419	-0.546	0.059
-729.952	182.128	-0.094	-0.139
-728.937	-200.000	-0.004	-0.121
-727.923	232.312	-0.138	0.230
-726.908	-120.054	-0.068	0.012
-725.894	243.867	-0.137	-0.233
-724.879	62.597	-0.239	-0.242
-723.864	-200.000	-0.009	0.222
-722.850	-62.523	0.146	-0.061
-721.835	535.374	-0.061	0.146
-720.821	-107.674	-0.098	-0.022
-719.806	-35.923	-0.032	-0.018
-718.791	59.521	-0.181	-0.181
-717.777	800.000	-0.065	0.257
-716.762	41.828	-0.284	0.260
-715.748	-200.000	-0.337	0.000
-714.733	114.805	-0.179	0.221
-713.718	-83.640	0.047	0.015
-712.704	13.497	-0.334	-0.262
-711.689	-73.250	0.256	0.095
-710.675	-200.000	0.051	-0.426
-709.660	-22.565	0.255	-0.156
-708.645	-12.291	-0.166	0.110
-707.631	800.000	0.059	0.255
-706.616	-63.819	-0.471	-0.195
-705.602	-200.000	0.018	0.115
-704.587	-30.462	-0.209	-0.120
-703.572	-107.251	0.289	-0.064
-702.558	20.212	-0.025	-0.021
-701.543	157.963	-0.096	0.134
-700.529	-29.117	0.190	-0.110
-699.514	120.936	0.076	0.096
-698.499	76.693	0.306	-0.327
-697.485	226.579	0.093	-0.152
-696.470	-14.420	0.252	-0.164
-695.456	-100.847	-0.125	0.031
-694.441	150.279	0.030	0.042
-693.426	150.636	0.065	0.089
-692.412	16.606	0.116	0.093
-691.397	800.000	-0.025	-0.075
-690.383	61.292	-0.136	0.136
-689.368	187.494	-0.069	-0.105
-688.354	354.356	0.121	0.242
-687.339	-87.522	-0.367	-0.112
-686.324	-200.000	0.013	-0.147
-685.310	229.677	-0.178	-0.293
-684.295	213.109	-0.021	-0.034
-683.281	800.000	0.114	0.431
-682.266	-200.000	-0.041	0.263
-681.251	-127.149	0.207	0.031
-680.237	-96.418	-0.233	-0.062
-679.222	-200.000	0.005	0.153
-678.208	-200.000	0.024	-0.225
-677.193	520.676	-0.058	0.138
-676.178	49.959	0.133	0.127
-675.164	800.000	0.076	-0.274
-674.149	-170.021	-0.044	0.002
-673.135	576.893	-0.058	-0.143
-672.120	421.331	-0.122	-0.263
-671.105	-200.000	-0.005	0.416
-670.091	330.173	0.028	-0.054
-669.076	-200.000	0.012	-0.193
-668.062	80.381	-0.053	0.058
-667.047	-25.759	0.365	0.217
-666.032	36.307	-0.199	-0.177
-665.018	-42.500	-0.268	-0.138
-664.003	89.118	-0.034	0.038
-662.989	-13.694	-0.131	-0.085
-661.974	77.910	-0.097	0.104
-660.959	-70.730	0.185	0.070
-659.945	800.000	-0.084	-0.332
-658.930	-14.702	0.124	0.080
-657.916	-105.254	-0.221	-0.051
-656.901	194.584	-0.022	0.033
-655.886	-156.537	-0.213	0.013
-654.872	800.000	0.082	0.309
-653.857	205.701	-0.061	0.095
-652.843	75.101	0.134	-0.142
-651.828	-137.088	-0.112	0.013
-650.814	-107.048	0.255	0.057
-649.799	197.484	0.068	-0.105
-648.784	-200.000	-0.012	-0.195
-647.770	-74.209	0.065	-0.024
-646.755	-180.230	0.188	-0.004
-645.741	-200.000	0.030	0.159
-644.726	216.927	-0.103	-0.165
-643.711	-164.028	0.261	-0.012
-642.697	100.288	0.132	-0.154
-641.682	-139.639	0.193	-0.021
-640.668	-90.897	-0.174	-0.050
-639.653	183.121	-0.032	0.048
-638.638	153.154	0.024	0.033
-637.624	32.016	0.215	-0.187
-636.609	-182.110	-0.194	-0.004
-635.595	-60.201	0.130	0.056
-634.580	-200.000	0.021	-0.219
-633.565	-86.792	-0.493	0.152
-632.551	117.576	0.120	0.148
-631.536	116.794	-0.159	0.197
-630.522	93.455	0.200	-0.228
-629.507	-134.404	0.091	0.011
-628.492	650.007	0.062	-0.159
-627.478	258.375	0.055	0.096
-626.463	-126.713	-0.327	-0.049
-625.449	135.270	0.210	-0.275
-624.434	-200.000	-0.043	-0.195
-623.419	800.000	0.117	-0.379
-622.405	-138.511	0.329	-0.036
-621.390	64.915	0.105	0.107
-620.376	800.000	0.086	-0.318
-619.361	603.892	-0.128	-0.320
-618.346	-39.271	-0.272	-0.144
-617.332	800.000	-0.093	-0.350
-616.317	-200.000	-0.012	-0.271
-615.303	-72.830	-0.300	-0.111
-614.288	166.066	0.219	0.312
-613.273	800.000	-0.033	0.092
-612.259	-101.817	-0.316	-0.077
-611.244	-200.000	0.030	-0.288
-610.230	-200.000	0.031	-0.286
-609.215	289.113	0.043	-0.078
-608.201	150.326	0.067	-0.091
-607.186	-200.000	0.058	-0.262
-606.171	-101.181	-0.191	-0.047
-605.157	800.000	0.094	0.272
-604.142	-93.994	0.141	-0.039
-603.128	333.033	-0.102	-0.198
-602.113	-145.460	-0.313	-0.028
-601.098	17.541	-0.072	0.058
-600.084	800.000	0.065	-0.183
-599.069	-200.000	0.032	0.167
-598.055	-94.332	0.292	-0.080
-597.040	-168.358	-0.141	0.005
-596.025	-200.000	0.011	-0.055
-595.011	-200.000	-0.021	-0.105
-593.996	-23.980	0.150	-0.090
-592.982	-200.000	0.010	0.377
-591.967	334.953	0.035	0.068
-590.952	28.464	0.091	0.077
-589.938	183.123	-0.062	0.091
-588.923	-100.742	0.194	-0.048
-587.909	-163.394	-0.183	0.009
-586.894	-103.135	0.257	-0.061
-585.879	-120.022	-0.301	0.052
-584.865	-114.579	-0.330	-0.064
-583.850	-200.000	-0.003	-0.099
-582.836	175.060	0.085	0.124
-581.821	-200.000	0.011	-0.104
-580.806	63.801	-0.188	-0.189
-579.792	800.000	-0.033	-0.106
-578.777	361.593	-0.094	-0.190
-577.763	49.828	0.087	-0.083
-576.748	-199.272	0.130	0.001
-575.733	800.000	-0.111	0.348
-574.719	-200.000	0.011	-0.260
-573.704	267.873	-0.043	-0.076
-572.690	800.000	-0.021	-0.062
-571.675	-60.957	0.209	-0.089
-570.661	-73.139	-0.357	-0.131
-569.646	-134.020	0.268	0.033
-568.631	-154.879	0.320	0.021
-567.617	169.053	-0.111	-0.159
-566.602	39.863	0.128	-0.116
-565.588	66.878	-0.075	-0.077
-564.573	585.049	-0.136	-0.337
-563.558	-96.059	0.176	0.047
-562.544	-7.516	-0.289	-0.196
-561.529	220.394	-0.031	-0.050
-560.515	-133.630	-0.049	0.006
-559.500	-200.000	-0.008	0.244
-558.485	263.309	-0.092	-0.160
-557.471	-200.000	0.022	-0.158
-556.456	566.627	0.051	-0.125
-555.442	577.347	-0.074	-0.181
-554.427	292.083	-0.114	-0.208
-553.412	167.018	-0.156	-0.223
-552.398	198.265	0.097	-0.150
-551.383	65.296	-0.141	-0.143
-550.369	-200.000	-0.043	0.000
-549.354	237.961	0.119	0.198
-548.339	-200.000	0.016	-0.171
-547.325	-118.812	-0.149	-0.026
-546.310	-161.087	0.236	-0.012
-545.296	100.467	-0.055	0.064
-544.281	581.025	0.089	-0.218
-543.266	-150.653	-0.179	0.014
-542.252	800.000	0.114	0.342
-541.237	-185.245	-0.183	0.003
-540.223	-87.983	-0.243	-0.073
-539.208	-194.735	-0.242	-0.002
-538.193	-200.000	-0.013	0.164
-537.179	-200.000	-0.029	0.171
-536.164	101.161	0.297	0.347
-535.150	94.715	0.127	0.145
-534.135	-200.000	-0.022	0.125
-533.121	116.110	-0.178	0.219
-532.106	-200.000	0.040	-0.189
-531.091	-200.000	-0.028	0.186
-530.077	169.440	-0.117	0.167
-529.062	-42.150	0.121	-0.062
-528.048	-200.000	0.031	-0.364
-527.033	-183.983	0.222	0.004
-526.018	-60.239	-0.270	-0.115
-525.004	-46.724	-0.298	0.146
-523.989	-165.685	0.132	0.006
-522.975	645.006	0.008	-0.020
-521.960	171.979	-0.086	0.124
-520.945	167.663	-0.079	0.113
-519.931	-66.450	-0.215	0.086
-518.916	176.041	-0.083	0.120
-517.902	-200.000	0.069	0.330
-516.887	385.798	0.058	0.120
-515.872	800.000	0.036	-0.125
-514.858	30.115	-0.126	-0.108
-513.843	-85.875	0.108	-0.034
-512.829	800.000	0.116	-0.442
-511.814	411.113	0.159	0.338
-510.799	-98.605	0.067	-0.017
-509.785	-151.781	-0.274	0.020
-508.770	257.385	0.233	-0.401
-507.756	-41.598	0.077	-0.039
-506.741	800.000	0.036	0.130
-505.726	-68.957	0.113	-0.044
-504.712	-47.445	-0.353	-0.172
-503.697	229.496	-0.162	0.265
-502.683	-200.000	-0.005	0.476
-501.668	13.696	-0.183	-0.142
-500.653	356.150	0.112	-0.224
-499.639	165.446	0.145	0.206
-498.624	277.299	-0.054	-0.097
-497.610	63.669	0.055	-0.056
-496.595	-63.871	0.129	-0.053
-495.581	114.491	0.109	-0.133
-494.566	-74.921	-0.069	-0.025
-493.551	-89.649	0.088	-0.026
-492.537	-153.592	0.219	0.015
-491.522	-146.578	0.027	0.002
-490.508	-59.752	0.145	-0.062
-489.493	-145.662	-0.169	0.015
-488.478	-200.000	-0.017	0.175
-487.464	800.000	-0.050	0.209
-486.449	660.522	-0.058	-0.148
-485.435	528.451	0.080	-0.190
-484.420	-44.149	0.170	0.086
-483.405	-77.268	0.188	-0.065
-482.391	409.828	0.102	-0.217
-481.376	93.490	-0.110	0.125
-480.362	22.861	-0.214	-0.176
-479.347	-51.906	-0.176	-0.082
-478.332	484.900	0.099	-0.226
-477.318	-200.000	0.029	-0.628
-476.303	-110.758	-0.467	-0.097
-475.289	5.080	0.260	-0.192
-474.274	-200.000	-0.040	0.244
-473.259	-200.000	-0.029	0.135
-472.245	800.000	-0.100	-0.357
-471.230	-200.000	-0.001	0.045
-470.216	-87.319	0.311	0.094
-469.201	-100.629	-0.216	0.053
-468.186	-105.255	0.306	-0.070
-467.172	408.497	0.163	0.345
-466.157	800.000	-0.066	0.209
-465.143	-121.520	-0.465	-0.077
-464.128	-200.000	-0.154	0.000
-463.113	-200.000	-0.046	-0.382
-462.099	-200.000	-0.061	-0.439
-461.084	-78.693	0.161	0.055
-460.070	223.199	0.084	0.136
-459.055	-125.832	0.131	-0.020
-458.040	1.277	0.226	-0.163
-457.026	-20.338	0.223	0.137
-456.011	-97.866	0.233	-0.060
-454.997	80.855	-0.072	-0.078
-453.982	-123.334	-0.206	0.033
-452.968	-200.000	-0.029	-0.190
-451.953	-109.298	0.233	-0.049
-450.938	-75.310	0.404	0.144
-449.924	-53.826	0.230	0.105
-448.909	-46.443	-0.222	-0.109
-447.895	29.035	0.244	0.207
-446.880	-200.000	-0.006	0.275
-445.865	800.000	-0.048	-0.175
-444.851	-200.000	-0.084	-0.419
-443.836	-79.712	-0.058	-0.020
-442.822	183.767	0.096	-0.141
-441.807	-200.000	0.034	0.167
-440.792	-164.795	-0.411	-0.018
-439.778	-113.470	0.203	0.040
-438.763	-200.000	0.053	-0.265
-437.749	-13.344	0.144	0.093
-436.734	-82.319	-0.108	0.035
-435.719	800.000	-0.058	-0.191
-434.705	96.296	0.121	-0.138
-433.690	800.000	0.049	0.193
-432.676	501.556	0.086	-0.197
-431.661	13.269	-0.215	-0.166
-430.646	-131.539	0.132	-0.017
-429.632	67.808	0.177	0.181
-428.617	-60.240	0.254	-0.108
-427.603	-35.692	-0.140	-0.076
-426.588	-108.657	-0.198	-0.043
-425.573	354.651	0.095	0.189
-424.559	70.336	0.186	-0.191
-423.544	800.000	0.101	0.408
-422.530	172.963	0.141	-0.203
-421.515	94.255	0.164	-0.186
-420.500	-200.000	0.054	0.302
-419.486	139.583	0.047	-0.061
-418.471	-200.000	-0.032	-0.205
-417.457	800.000	-0.068	0.269
-416.442	448.292	0.028	-0.061
-415.428	-200.000	0.003	0.282
-414.413	83.756	0.050	-0.055
-413.398	-200.000	-0.043	0.471
-412.384	800.000	0.097	0.306
-411.369	169.855	0.100	0.142
-410.355	110.378	0.139	-0.166
-409.340	65.098	-0.161	-0.162
-408.325	561.138	0.109	-0.264
-407.311	642.938	0.101	0.258
-406.296	171.300	-0.034	0.049
-405.282	-88.520	-0.104	-0.031
-404.267	1.389	-0.027	0.020
-403.252	800.000	-0.065	-0.200
-402.238	34.541	-0.096	-0.083
-401.223	222.448	0.122	0.196
-400.209	-200.000	-0.007	0.264
-399.194	165.041	-0.071	-0.101
-398.179	-6.145	-0.040	0.027
-397.165	800.000	0.168	0.487
-396.150	-40.022	-0.098	-0.051
-395.136	-76.656	0.278	-0.097
-394.121	581.668	0.127	0.310
-393.106	-28.549	0.108	0.062
-392.092	-124.172	-0.374	-0.058
-391.077	-200.000	-0.047	-0.318
-390.063	-200.000	-0.015	0.189
-389.048	-200.000	-0.008	-0.035
-388.033	223.359	-0.062	-0.100
-387.019	-60.875	0.289	-0.122
-386.004	-200.000	0.060	0.400
-384.990	-21.507	0.136	-0.083
-383.975	195.169	-0.147	-0.222
-382.960	255.717	-0.074	-0.127
-381.946	-200.000	0.021	0.249
-380.931	-200.000	0.007	-0.115
-379.917	800.000	-0.025	-0.076
-378.902	-1.417	-0.147	0.104
-377.888	-200.000	0.002	0.087
-376.873	-159.105	0.233	0.013
-375.858	-31.867	-0.181	0.101
-374.844	-109.859	0.072	-0.015
-373.829	-57.085	0.288	0.126
-372.815	-27.315	0.205	-0.119
-371.800	128.485	-0.238	0.302
-370.785	800.000	0.098	0.354
-369.771	193.357	0.042	-0.064
-368.756	29.186	-0.255	0.216
-367.742	16.127	0.406	0.319
-366.727	-200.000	-0.009	0.152
-365.712	129.163	-0.103	0.131
-364.698	-200.000	-0.011	0.131
-363.683	-200.000	-0.012	-0.273
-362.669	800.000	0.079	-0.318
-361.654	95.868	-0.186	0.212
-360.639	16.173	-0.027	-0.022
-359.625	278.384	0.138	-0.244
-358.610	67.647	0.195	0.199
-357.596	-185.544	-0.445	-0.007
-356.581	573.582	0.198	0.481
-355.566	27.507	0.319	-0.267
-354.552	75.029	0.192	-0.202
-353.537	575.134	-0.108	-0.261
-352.523	-0.943	0.245	0.173
-351.508	-200.000	0.015	0.141
-350.493	-200.000	0.026	-0.146
-349.479	252.134	0.025	-0.043
-348.464	244.451	0.154	-0.258
-347.450	-3.488	0.107	0.074
-346.435	187.432	-0.081	0.121
-345.420	359.810	-0.079	0.158
-344.406	29.127	0.079	-0.067
-343.391	622.310	-0.186	-0.467
-342.377	800.000	0.095	-0.292
-341.362	378.608	0.140	0.286
-340.348	-56.378	-0.043	-0.019
-339.333	-5.045	-0.268	0.184
-338.318	-146.070	-0.425	0.037
-337.304	574.516	0.168	-0.407
-336.289	800.000	-0.020	0.068
-335.275	-132.596	0.480	0.061
-334.260	-200.000	0.016	0.145
-333.245	-42.672	0.311	0.158
-332.231	-91.730	0.285	0.081
-331.216	-172.316	-0.277	-0.009
-330.202	-200.000	-0.009	0.144
-329.187	313.591	0.174	0.326
-328.172	-27.227	-0.141	0.082
-327.158	196.640	0.061	-0.092
-326.143	620.710	-0.132	0.331
-325.129	-99.653	-0.463	0.116
-324.114	800.000	0.016	0.062
-323.099	-103.855	0.284	-0.066
-322.085	0.820	0.095	-0.068
-321.070	-18.655	-0.203	0.126
-320.056	-200.000	0.089	-0.504
-319.041	743.278	-0.075	0.199
-318.026	23.119	-0.210	-0.172
-317.012	800.000	-0.094	-0.317
-315.997	-170.533	-0.082	0.003
-314.983	433.280	0.037	-0.079
-313.968	-131.035	-0.249	0.033
-312.953	-34.480	0.055	0.030
-311.939	800.000	0.080	0.250
-310.924	-8.239	0.295	-0.198
-309.910	-108.499	-0.320	0.068
-308.895	-175.092	-0.423	0.012
-307.880	800.000	0.066	-0.191
-306.866	-0.751	-0.302	0.213
-305.851	385.473	0.090	0.184
-304.837	-200.000	-0.076	0.447
-303.822	-148.798	-0.243	-0.020
-302.807	-48.922	0.023	-0.011
-301.793	-30.866	-0.279	0.157
-300.778	-101.600	-0.149	0.036
-299.764	99.175	0.121	0.139
-298.749	-13.575	-0.086	0.056
-297.735	-200.000	-0.015	0.184
-296.720	205.638	-0.158	0.245
-295.705	-158.575	0.208	0.012
-294.691	-105.757	-0.224	-0.050
-293.676	474.288	-0.116	0.260
-292.662	-52.463	-0.040	0.018
-291.647	38.847	-0.314	0.279
-290.632	800.000	0.067	0.205
-289.618	9.401	-0.132	0.099
-288.603	-200.000	0.052	0.273
-287.589	-89.683	-0.203	0.059
-286.574	25.120	0.125	0.103
-285.559	110.822	-0.178	-0.213
-284.545	-60.236	0.070	0.030
-283.530	-14.760	-0.210	-0.134
-282.516	639.693	0.122	0.307
-281.501	-200.000	-0.007	-0.115
-280.486	-6.541	-0.080	-0.054
-279.472	-200.000	0.008	0.074
-278.457	-164.255	-0.131	-0.006
-277.443	-200.000	-0.033	-0.335
-276.428	150.788	-0.189	0.255
-275.413	-200.000	0.005	-0.232
-274.399	173.775	-0.162	-0.232
-273.384	-85.712	-0.242	0.075
-272.370	-200.000	0.001	0.217
-271.355	36.419	0.152	-0.133
-270.340	71.454	0.061	0.062
-269.326	-22.395	-0.272	-0.164
-268.311	-34.292	-0.271	0.147
-267.297	32.273	0.168	-0.144
-266.282	-200.000	-0.004	0.125
-265.267	-200.000	-0.007	-0.161
-264.253	368.512	0.072	0.144
-263.238	800.000	-0.069	0.200
-262.224	-121.855	-0.057	0.009
-261.209	800.000	0.072	-0.288
-260.195	800.000	-0.093	-0.263
-259.180	127.577	0.182	-0.229
-258.165	-76.579	-0.396	0.138
-257.151	-172.269	0.233	-0.007
-256.136	-44.677	0.062	0.031
-255.122	70.546	0.161	0.165
-254.107	-5.904	0.252	-0.171
-253.092	-19.997	-0.116	0.071
-252.078	9.204	-0.126	-0.095
-251.063	800.000	-0.072	0.245
-250.049	-50.552	-0.250	0.117
-249.034	800.000	0.065	-0.248
-248.019	-200.000	-0.010	0.219
-247.005	-115.597	-0.177	-0.033
-245.990	-144.844	-0.359	0.033
-244.976	-122.505	0.200	0.032
-243.961	-64.682	0.119	-0.048
-242.946	192.437	-0.236	0.353
-241.932	659.547	0.114	0.290
-240.917	-107.846	0.252	0.054
-239.903	236.002	0.063	-0.104
-238.888	-200.000	-0.100	-0.447
-237.873	-18.385	-0.068	-0.042
-236.859	268.960	-0.059	0.103
-235.844	3.198	0.121	0.087
-234.830	608.716	-0.128	0.318
-233.815	800.000	0.025	-0.096
-232.800	-151.244	-0.168	-0.012
-231.786	-44.751	-0.228	-0.113
-230.771	-200.000	0.005	-0.039
-229.757	687.686	-0.124	-0.322
-228.742	-88.251	-0.224	-0.067
-227.727	-7.457	0.295	0.198
-226.713	201.828	-0.070	0.107
-225.698	-127.328	0.283	-0.041
-224.684	219.324	-0.248	0.393
-223.669	51.333	-0.056	0.053
-222.655	41.195	-0.263	-0.235
-221.640	-200.000	-0.004	0.384
-220.625	-6.788	0.171	0.115
-219.611	202.600	0.106	0.163
-218.596	410.499	0.137	-0.289
-217.582	18.050	-0.207	0.164
-216.567	-200.000	0.003	0.111
-215.552	29.614	0.119	-0.100
-214.538	-22.725	0.368	-0.220
-213.523	-80.429	-0.053	0.017
-212.509	454.212	0.188	0.412
-211.494	-112.803	0.152	-0.030
-210.479	-200.000	0.051	0.337
-209.465	330.193	0.159	0.303
-208.450	43.059	-0.314	0.284
-207.436	219.418	-0.035	0.055
-206.421	129.248	0.127	0.160
-205.406	23.997	0.279	-0.228
-204.392	-7.896	0.096	0.064
-203.377	-171.175	-0.230	0.008
-202.363	800.000	0.087	0.245
-201.348	-200.000	-0.054	0.309
-200.333	37.843	0.018	-0.016
-199.319	-54.694	0.199	-0.089
-198.304	-160.670	0.380	-0.020
-197.290	-42.775	0.436	-0.219
-196.275	-54.143	0.351	-0.158
-195.260	-2.639	0.053	-0.036
-194.246	-99.179	-0.048	0.012
-193.231	85.429	0.090	0.098
-192.217	96.509	0.198	-0.224
-191.202	-200.000	-0.014	-0.267
-190.187	800.000	-0.062	0.206
-189.173	58.053	0.128	0.124
-188.158	-103.509	-0.145	0.034
-187.144	7.284	0.281	-0.208
-186.129	26.667	0.048	0.040
-185.114	800.000	-0.082	0.269
-184.100	-98.122	0.155	0.039
-183.085	-49.319	-0.181	-0.085
-182.071	-76.854	-0.094	0.033
-181.056	68.505	-0.240	-0.243
-180.042	-200.000	0.005	0.140
-179.027	131.480	0.135	-0.171
-178.012	54.799	-0.131	0.126
-176.998	56.307	-0.181	0.174
-175.983	4.157	0.177	0.128
-174.969	392.042	0.028	0.057
-173.954	-113.114	-0.203	0.040
-172.939	-200.000	0.004	0.354
-171.925	-200.000	-0.009	-0.123
-170.910	-200.000	-0.001	-0.439
-169.896	130.538	-0.177	0.224
-168.881	-77.258	-0.111	0.038
-167.866	89.160	-0.080	0.088
-166.852	116.777	0.041	0.049
-165.837	-198.612	-0.155	-0.001
-164.823	49.362	0.110	-0.102
-163.808	-38.811	-0.119	0.062
-162.793	-122.906	0.078	0.012
-161.779	800.000	-0.117	-0.400
-160.764	-50.428	0.019	-0.009
-159.750	2.559	-0.335	-0.240
-158.735	-81.083	-0.189	-0.062
-157.720	-86.102	-0.102	-0.031
-156.706	703.864	-0.091	0.238
-155.691	-200.000	0.080	0.363
-154.677	-14.986	0.149	0.094
-153.662	123.066	0.042	0.051
-152.647	-59.046	0.529	0.226
-151.633	-200.000	0.031	-0.296
-150.618	-200.000	0.083	-0.496
-149.604	800.000	-0.056	-0.194
-148.589	320.919	0.137	0.257
-147.574	-11.857	0.192	0.125
-146.560	800.000	-0.056	0.239
-145.545	38.946	0.297	0.263
-144.531	800.000	0.090	-0.256
-143.516	-56.252	-0.214	-0.094
-142.502	-200.000	0.014	-0.072
-141.487	-126.087	-0.520	0.077
-140.472	-200.000	0.002	-0.338
-139.458	-200.000	-0.026	0.230
-138.443	205.145	-0.151	0.232
-137.429	-95.173	-0.243	-0.065
-136.414	-200.000	0.017	0.205
-135.399	-82.072	0.133	-0.043
-134.385	-119.577	0.280	-0.048
-133.370	-165.261	-0.187	-0.008
-132.356	800.000	-0.022	-0.062
-131.341	-136.068	-0.418	0.048
-130.326	-200.000	-0.011	-0.194
-129.312	678.375	-0.075	0.192
-128.297	-36.452	0.284	0.151
-127.283	-49.001	0.137	0.065
-126.268	-200.000	0.067	-0.385
-125.253	289.010	0.178	-0.319
-124.239	-107.390	0.293	0.064
-123.224	119.634	-0.068	-0.083
-122.210	9.738	-0.268	-0.201
-121.195	164.534	0.132	-0.184
-120.180	72.809	-0.082	0.084
-119.166	-58.313	0.109	0.047
-118.151	-200.000	-0.012	-0.147
-117.137	212.728	-0.178	0.277
-116.122	73.363	-0.220	-0.227
-115.107	-200.000	-0.024	-0.163
-114.093	-200.000	0.015	0.131
-113.078	-123.099	0.307	-0.049
-112.064	800.000	0.050	-0.172
-111.049	5.391	-0.131	-0.096
-110.034	800.000	-0.030	-0.103
-109.020	-134.954	0.284	-0.034
-108.005	610.702	0.034	-0.085
-106.991	174.039	-0.072	-0.102
-105.976	80.650	-0.048	-0.051
-104.962	118.269	-0.059	0.072
-103.947	61.894	-0.288	0.283
-102.932	-100.623	0.221	-0.054
-101.918	24.808	-0.123	-0.101
-100.903	800.000	-0.067	-0.224
-99.889	-147.955	0.289	0.024
-98.874	11.967	-0.302	0.229
-97.859	800.000	-0.062	-0.178
-96.845	408.440	0.087	0.182
-95.830	-22.365	-0.251	-0.150
-94.816	304.157	-0.149	-0.273
-93.801	-200.000	0.081	0.358
-92.786	561.751	0.124	0.295
-91.772	159.254	0.063	0.087
-90.757	345.996	0.191	0.370
-89.743	800.000	-0.091	-0.385
-88.728	547.716	-0.078	-0.184
-87.713	-15.119	0.135	0.085
-86.699	-110.641	0.196	-0.040
-85.684	-70.243	0.202	-0.076
-84.670	800.000	0.039	0.131
-83.655	113.975	0.160	0.191
-82.640	800.000	-0.095	0.313
-81.626	-84.648	0.345	0.107
-80.611	33.091	-0.147	0.126
-79.597	24.549	-0.182	0.148
-78.582	800.000	-0.088	-0.243
-77.567	-136.170	-0.039	-0.005
-76.553	-86.353	-0.149	0.045
-75.538	-200.000	0.052	-0.245
-74.524	-178.392	0.299	0.007
-73.509	800.000	-0.073	-0.254
-72.494	-48.643	-0.254	0.120
-71.480	-80.840	-0.515	0.169
-70.465	-165.012	0.081	-0.004
-69.451	-96.687	-0.245	0.064
-68.436	-183.044	-0.061	0.001
-67.422	-181.421	-0.149	-0.003
-66.407	179.226	0.243	0.350
-65.392	776.769	-0.079	0.213
-64.378	-83.686	0.106	-0.033
-63.363	-178.564	0.165	-0.004
-62.349	31.686	0.279	0.236
-61.334	25.603	-0.777	-0.637
-60.319	45.138	0.391	0.355
-59.305	-200.000	-0.206	-1.406
-58.290	800.000	0.306	0.890
-57.276	263.401	0.892	1.526
-56.261	-200.000	95.194	585.200
-55.246	666.028	1368.978	3481.991
-54.232	200.127	2541.048	3841.862
-53.217	120.908	2139.838	2620.307
-52.203	44.374	1605.072	1450.876
-51.188	36.046	1342.870	1163.781
-50.173	32.799	1301.071	1108.471
-49.159	54.636	1348.076	1279.519
-48.144	56.899	1363.873	1307.969
-47.130	36.089	1323.793	1147.323
-46.115	32.606	1306.534	1111.809
-45.100	32.415	1301.194	1106.098
-44.086	32.398	1298.663	1103.805
-43.071	32.337	1296.621	1101.665
-42.057	32.267	1294.520	1099.430
-41.042	32.448	1292.691	1098.891
-40.027	32.367	1291.456	1097.326
-39.013	32.410	1289.633	1095.979
-37.998	32.372	1287.653	1094.033
-36.984	32.361	1286.224	1092.712
-35.969	32.420	1284.503	1091.551
-34.954	32.520	1282.412	1090.310
-33.940	32.487	1281.349	1089.168
-32.925	32.553	1279.937	1088.307
-31.911	32.592	1277.964	1086.813
-30.896	32.543	1276.724	1085.431
-29.881	32.621	1275.385	1084.703
-28.867	32.637	1273.845	1083.442
-27.852	32.537	1272.517	1081.695
-26.838	32.566	1271.296	1080.778
-25.823	32.478	1270.260	1079.349
-24.809	32.633	1268.109	1078.368
-23.794	32.574	1267.029	1077.069
-22.779	32.509	1266.028	1075.801
-21.765	32.533	1264.659	1074.731
-20.750	32.528	1263.595	1073.760
-19.736	32.416	1262.197	1071.889
-18.721	32.399	1261.452	1071.118
-17.706	32.280	1260.480	1069.574
-16.692	32.359	1258.651	1068.426
-15.677	32.455	1257.726	1068.142
-14.663	32.415	1256.378	1066.733
-13.648	32.462	1255.066	1065.839
-12.633	32.407	1254.466	1064.979
-11.619	32.399	1253.564	1064.126
-10.604	32.392	1252.838	1063.426
-9.590	32.363	1251.515	1062.095
-8.575	32.352	1250.663	1061.271
-7.560	32.281	1250.202	1060.435
-6.546	32.387	1249.001	1059.971
-5.531	32.393	1248.341	1059.404
-4.517	32.323	1247.446	1058.210
-3.502	32.382	1246.528	1057.718
-2.487	32.429	1245.427	1057.010
-1.473	32.329	1241.786	1053.315
-0.458	31.053	1226.423	1033.181
0.556	26.531	1209.287	995.172
1.571	22.914	1214.225	979.137
2.586	21.954	1228.582	985.243
3.600	21.314	1217.441	972.657
4.615	16.257	1146.384	889.234
5.629	8.274	1072.789	792.571
6.644	4.837	1053.186	761.244
7.659	4.575	1051.415	758.618
8.673	4.601	1050.138	757.755
9.688	4.677	1048.477	756.859
10.702	4.824	1046.633	756.177
11.717	9.213	1052.587	781.804
12.731	16.442	1062.606	824.567
13.746	19.049	1065.618	839.570
14.761	18.300	1063.919	834.506
15.775	17.373	1061.693	828.173
16.790	16.357	1059.682	821.596
17.804	15.593	1057.888	816.417
18.819	15.167	1057.179	813.729
19.834	14.842	1056.310	811.411
20.848	14.622	1055.524	809.671
21.863	14.430	1054.906	808.196
22.877	14.441	1053.597	807.172
23.892	14.348	1052.884	806.105
24.907	14.339	1052.405	805.621
25.921	14.394	1051.132	804.842
26.936	14.366	1050.262	803.968
27.950	14.418	1048.770	803.009
28.965	14.502	1047.370	802.267
29.980	14.573	1045.480	801.091
30.994	14.671	1044.578	800.801
32.009	14.692	1043.698	800.156
33.023	14.720	1042.652	799.416
34.038	14.496	1042.187	797.916
35.053	14.440	1040.698	796.439
36.067	14.499	1039.956	796.079
37.082	14.548	1039.049	795.551
38.096	14.550	1038.268	794.892
39.111	14.528	1037.799	794.359
40.126	14.415	1036.648	792.868
41.140	14.360	1034.818	791.136
42.155	14.202	1033.921	789.633
43.169	14.304	1032.903	789.270
44.184	14.210	1031.841	787.942
45.199	14.344	1030.695	787.632
46.213	14.324	1029.522	786.570
47.228	14.527	1028.487	786.668
48.242	14.484	1027.915	785.959
49.257	14.449	1026.618	784.730
50.271	14.564	1025.934	784.682
51.286	14.657	1025.169	784.463
52.301	14.419	1024.345	782.648
53.315	14.427	1023.292	781.809
54.330	14.335	1021.993	780.316
55.344	14.446	1021.430	780.338
56.359	14.489	1020.002	779.380
57.374	14.344	1019.240	778.050
58.388	14.213	1018.541	776.836
59.403	14.202	1017.821	776.167
60.417	14.246	1016.561	775.344
61.432	14.252	1016.466	775.232
62.447	14.103	1015.480	773.718
63.461	14.064	1014.809	772.956
64.476	14.190	1013.463	772.446
65.490	14.165	1012.785	771.746
66.505	14.114	1012.394	771.141
67.520	14.114	1011.793	770.617
68.534	14.122	1010.862	769.878
69.549	14.113	1010.543	769.525
70.563	14.069	1009.418	768.396
71.578	14.084	1008.543	767.731
72.593	14.047	1007.602	766.777
73.607	14.085	1007.240	766.609
74.622	13.963	1006.907	765.726
75.636	14.241	1005.490	765.857
76.651	14.176	1004.850	765.002
77.666	14.108	1004.605	764.437
78.680	14.163	1003.785	763.999
79.695	14.107	1003.155	763.194
80.709	14.256	1002.719	763.477
81.724	14.145	1002.251	762.547
82.739	14.217	1001.526	762.256
83.753	14.585	1000.300	762.941
84.768	14.554	999.789	762.341
85.782	14.651	999.125	762.208
86.797	14.631	997.792	761.033
87.812	14.480	997.096	759.748
88.826	14.474	996.325	759.064
89.841	14.383	995.540	757.987
90.855	14.631	994.460	758.226
91.870	14.585	993.650	757.329
92.884	14.681	992.787	757.039
93.899	14.559	992.238	756.001
94.914	14.708	991.535	756.073
95.928	14.604	991.008	755.133
96.943	14.568	989.753	753.950
97.957	14.611	988.773	753.330
98.972	14.596	988.104	752.687
99.987	14.648	987.123	752.108
101.001	14.637	985.917	751.074
102.016	14.615	985.371	750.491
103.030	14.491	984.687	749.347
104.045	14.661	983.560	749.183
105.060	14.618	982.506	748.122
106.074	14.516	981.462	746.803
107.089	14.195	981.136	745.053
108.103	14.224	979.828	744.125
109.118	14.360	978.957	744.005
110.133	14.310	978.255	743.182
111.147	14.286	977.338	742.312
112.162	14.290	976.581	741.689
113.176	14.455	975.806	741.771
114.191	14.456	974.969	741.072
115.206	14.325	974.688	740.210
116.220	14.325	973.734	739.422
117.235	14.345	972.527	738.526
118.249	14.406	971.435	737.903
119.264	14.349	971.132	737.355
120.279	14.319	969.795	736.141
121.293	14.249	969.282	735.379
122.308	14.231	968.397	734.561
123.322	14.192	967.528	733.666
124.337	14.253	966.404	733.019
125.352	14.290	965.321	732.295
126.366	14.243	964.287	731.241
127.381	14.216	963.462	730.432
128.395	14.337	962.364	730.063
129.410	14.290	961.643	729.248
130.424	14.315	960.983	728.789
131.439	14.390	960.226	728.480
132.454	14.431	959.134	727.768
133.468	14.487	958.697	727.613
134.483	14.410	957.786	726.525
135.497	14.336	957.319	725.783
136.512	14.435	956.165	725.272
137.527	14.362	955.512	724.399
138.541	14.485	954.629	724.198
139.556	14.437	953.874	723.355
140.570	14.624	953.276	723.648
141.585	14.717	952.740	723.579
142.600	14.672	951.920	722.697
143.614	14.615	951.161	721.809
144.629	14.641	950.460	721.326
145.643	14.598	949.302	720.198
146.658	14.790	947.845	719.856
147.673	14.488	947.260	718.047
148.687	14.536	946.537	717.642
149.702	14.461	946.039	716.877
150.716	14.587	944.786	716.409
151.731	14.396	944.400	715.233
152.746	14.541	943.877	715.396
153.760	14.566	943.435	715.103
154.775	14.583	942.522	714.420
155.789	14.691	941.724	714.213
156.804	14.644	941.080	713.461
157.819	14.678	940.356	712.997
158.833	14.682	939.831	712.549
159.848	14.780	938.805	712.129
160.862	14.656	938.232	711.101
161.877	14.678	936.483	709.809
162.892	14.562	935.723	708.676
163.906	14.595	934.869	708.105
164.921	14.623	934.443	707.841
165.935	14.771	933.087	707.376
166.950	14.637	932.787	706.518
167.964	14.753	931.949	706.315
168.979	14.691	930.543	704.923
169.994	14.650	929.983	704.265
171.008	14.739	929.464	704.183
172.023	14.762	928.853	703.753
173.037	14.940	928.071	703.850
174.052	14.870	927.326	702.926
175.067	14.690	926.861	701.757
176.081	14.534	926.310	700.623
177.096	14.507	925.766	700.035
178.110	14.717	924.932	700.222
179.125	14.821	924.362	700.164
180.140	14.673	924.144	699.318
181.154	14.859	923.285	699.387
182.169	14.910	923.471	699.676
183.183	14.986	922.865	699.474
184.198	14.880	921.995	698.309
185.213	14.937	920.853	697.619
186.227	14.933	920.506	697.281
187.242	15.160	919.561	697.447
188.256	15.105	919.414	697.047
189.271	14.970	918.579	695.788
190.286	14.752	917.773	694.210
191.300	14.720	916.897	693.356
192.315	14.585	916.029	692.078
193.329	14.749	915.590	692.362
194.344	14.819	914.945	692.105
195.359	14.812	914.453	691.643
196.373	14.987	913.939	691.915
197.388	15.185	913.529	692.361
198.402	15.136	912.971	691.674
199.417	15.023	912.536	690.820
200.432	15.237	912.019	691.249
201.446	15.235	911.606	690.865
202.461	15.393	910.608	690.699
203.475	15.311	910.158	689.958
204.490	15.269	909.307	689.080
205.504	15.120	908.642	687.905
206.519	15.173	907.684	687.334
207.534	15.219	907.023	686.962
208.548	15.084	906.570	686.005
209.563	15.013	905.905	685.152
210.577	15.261	904.780	685.256
211.592	15.333	904.300	685.124
212.607	15.431	903.901	685.160
213.621	15.402	902.746	684.105
214.636	15.236	902.668	683.309
215.650	15.327	901.730	682.910
216.665	15.530	900.871	683.024
217.680	15.493	900.429	682.478
218.694	15.440	899.684	681.638
219.709	15.451	899.099	681.177
220.723	15.336	898.577	680.256
221.738	15.424	897.789	679.958
222.753	15.483	897.278	679.750
223.767	15.516	896.587	679.298
224.782	15.542	896.264	679.098
225.796	15.612	895.833	678.997
226.811	15.558	895.027	678.106
227.826	15.507	894.099	677.138
228.840	15.586	893.149	676.678
229.855	15.437	892.887	675.820
230.869	15.535	892.144	675.589
231.884	15.482	891.222	674.618
232.899	15.440	890.464	673.819
233.913	15.389	889.934	673.152
234.928	15.337	889.365	672.455
235.942	15.404	888.683	672.148
236.957	15.378	887.794	671.311
237.972	15.397	887.524	671.125
238.986	15.494	886.484	670.667
240.001	15.525	886.238	670.545
241.015	15.485	885.645	669.876
242.030	15.373	885.318	669.123
243.045	15.616	884.730	669.587
244.059	15.582	884.054	668.880
245.074	15.681	883.262	668.616
246.088	15.777	882.694	668.508
247.103	15.748	882.098	667.885
248.117	15.907	881.309	667.858
249.132	15.854	881.181	667.492
250.147	16.095	880.562	667.920
251.161	15.951	880.246	667.050
252.176	15.968	879.660	666.615
253.190	16.097	878.683	666.326
254.205	16.197	878.137	666.245
255.220	16.134	877.471	665.434
256.234	16.050	876.922	664.628
257.249	16.074	876.279	664.174
258.263	16.139	875.442	663.739
259.278	16.122	874.936	663.227
260.293	16.143	874.460	662.890
261.307	16.153	874.078	662.584
262.322	16.312	873.249	662.517
263.336	16.206	872.481	661.463
264.351	16.406	871.616	661.533
265.366	16.311	871.221	660.802
266.380	16.334	870.609	660.368
267.395	16.253	869.643	659.260
268.409	16.230	868.766	658.449
269.424	16.072	868.627	657.668
270.439	16.104	867.837	657.135
271.453	16.170	866.970	656.680
272.468	16.154	866.611	656.288
273.482	16.227	865.806	655.904
274.497	16.278	865.286	655.649
275.512	16.245	864.650	654.982
276.526	16.268	864.438	654.853
277.541	16.251	863.926	654.338
278.555	16.348	863.100	654.031
279.570	16.468	862.731	654.157
280.585	16.495	861.840	653.528
281.599	16.289	860.745	651.847
282.614	16.328	860.446	651.712
283.628	16.453	859.895	651.721
284.643	16.334	859.386	650.818
285.657	16.399	858.573	650.394
286.672	16.501	857.926	650.237
287.687	16.450	857.622	649.756
288.701	16.421	856.944	649.072
289.716	16.636	856.141	649.230
290.730	16.514	855.415	648.157
291.745	16.543	855.436	648.225
292.760	16.580	854.568	647.653
293.774	16.637	854.109	647.466
294.789	16.624	853.532	646.921
295.803	16.534	852.702	645.891
296.818	16.463	852.296	645.255
297.833	16.614	851.302	645.020
298.847	16.635	850.686	644.577
299.862	16.502	850.582	643.934
300.876	16.689	849.801	643.997
301.891	16.661	849.357	643.497
302.906	16.760	848.563	643.217
303.920	16.851	848.325	643.322
304.935	17.045	847.430	643.323
305.949	16.963	846.638	642.356
306.964	16.792	845.843	641.046
307.979	16.768	845.725	640.811
308.993	16.813	845.329	640.625
310.008	16.991	844.666	640.737
311.022	17.002	844.076	640.275
312.037	16.776	843.595	639.002
313.052	16.699	843.160	638.325
314.066	16.697	842.518	637.777
315.081	16.721	841.771	637.243
316.095	16.711	841.155	636.683
317.110	16.816	840.386	636.440
318.125	16.757	839.949	635.829
319.139	16.821	839.570	635.727
320.154	16.954	839.083	635.801
321.168	16.997	838.250	635.272
322.183	16.868	837.836	634.422
323.197	16.892	837.530	634.225
324.212	16.914	837.099	633.923
325.227	16.878	836.247	633.085
326.241	16.952	835.560	632.789
327.256	16.842	835.340	632.154
328.270	16.877	834.899	631.896
329.285	16.843	834.296	631.256
330.300	16.949	833.400	630.918
331.314	16.852	833.426	630.519
332.329	17.001	832.669	630.445
333.343	17.013	832.463	630.278
334.358	17.192	831.672	630.286
335.373	17.077	831.512	629.682
336.387	17.102	831.232	629.509
337.402	17.109	831.449	629.643
338.416	17.148	830.851	629.278
339.431	17.179	830.095	628.765
340.446	17.268	830.216	629.130
341.460	17.206	829.446	628.261
342.475	17.256	829.058	628.097
343.489	17.328	828.872	628.167
344.504	17.523	828.037	628.198
345.519	17.568	827.843	628.162
346.533	17.422	827.270	627.135
347.548	17.470	826.481	626.656
348.562	17.345	826.164	625.899
349.577	17.376	825.261	625.276
350.592	17.313	824.670	624.539
351.606	17.189	824.231	623.699
352.621	17.361	823.699	623.871
353.635	17.337	823.001	623.199
354.650	17.434	821.936	622.692
355.665	17.385	821.707	622.286
356.679	17.489	821.035	622.101
357.694	17.427	820.406	621.341
358.708	17.537	819.577	621.061
359.723	17.540	818.993	620.575
360.738	17.371	819.122	620.003
361.752	17.515	818.122	619.713
362.767	17.391	817.996	619.111
363.781	17.622	817.227	619.317
364.796	17.670	816.955	619.230
365.810	17.758	816.528	619.168
366.825	17.763	816.140	618.838
367.840	17.865	815.456	618.636
368.854	17.723	814.908	617.650
369.869	17.753	814.743	617.580
370.883	17.732	814.062	616.933
371.898	17.871	813.969	617.309
372.913	17.872	813.323	616.769
373.927	17.789	812.844	616.052
374.942	17.924	812.486	616.214
375.956	17.970	812.184	616.096
376.971	17.924	811.484	615.346
377.986	18.093	810.977	615.514
379.000	18.145	810.582	615.347
380.015	18.113	810.179	614.871
381.029	17.999	809.824	614.136
382.044	18.037	809.273	613.801
383.059	18.045	808.515	613.201
384.073	17.961	807.779	612.289
385.088	17.999	807.151	611.895
386.102	17.956	806.638	611.296
387.117	18.031	806.068	611.080
388.132	17.787	805.616	609.810
389.146	18.163	804.867	610.531
390.161	18.036	804.958	610.093
391.175	18.185	804.106	609.925
392.190	17.968	804.169	609.147
393.205	17.953	803.380	608.440
394.219	18.036	802.883	608.305
395.234	17.985	802.698	607.929
396.248	18.045	801.889	607.478
397.263	17.850	801.924	606.757
398.278	17.854	801.242	606.199
399.292	17.905	801.126	606.240
400.307	17.996	800.248	605.843
401.321	17.966	799.562	605.167
402.336	18.009	799.537	605.246
403.350	18.038	799.038	604.917
404.365	18.159	798.495	604.880
405.380	18.258	798.286	605.019
406.394	18.182	797.827	604.347
407.409	18.240	797.249	604.061
408.423	18.333	797.205	604.304
409.438	18.400	796.655	604.068
410.453	18.412	796.185	603.702
411.467	18.604	795.408	603.734
412.482	18.593	795.159	603.452
413.496	18.576	794.794	603.065
414.511	18.542	794.838	602.922
415.526	18.560	794.159	602.419
416.540	18.569	793.564	601.945
417.555	18.467	793.330	601.357
418.569	18.579	792.863	601.343
419.584	18.514	792.366	600.687
420.599	18.471	792.242	600.388
421.613	156.526	1370.985	1794.756
422.628	135.458	1455.324	1794.874
