DTS Sentinel unit serial number:	SN413079Multiplexer serial number:	ORYXHardware model number:	OX4-SRSoftware version number:	ORYX F/W v4.00 Oryx Data Collector v3.7.2.0data status	okinstallation	princeton_trtdifferential loss correction	single-endedforward channel	channel 1reverse channel	N/Adate	2019/09/16time	09:38:35forward acquisition time	60.00reverse acquisition time	0.00gamma	496.2192k internal	0.2320k external	0.2320temperature offset calibration	0.9965default loss term (dB/km)	0.3790temperature slope calibration	1.0000multiplexer offset coefficient	1.0000multiplexer slope coefficient	1.0000fibre end	0.00T internal ref (°C)	32.27T ext. ref 1 (°C)	12.25T ext. ref 2 (°C)	30.17length (m)	temperature (°C)	Stokes	anti-Stokes-747.200	-23.621	0.086	-0.052
-746.185	800.000	0.039	0.133
-745.171	-60.551	-0.135	-0.058
-744.156	386.975	-0.071	0.149
-743.142	-200.000	-0.025	-0.155
-742.127	177.417	0.197	0.291
-741.112	1.244	0.213	0.155
-740.098	-200.000	-0.034	0.155
-739.083	71.541	0.035	-0.037
-738.069	206.335	-0.138	0.218
-737.054	245.818	-0.181	-0.308
-736.039	31.810	0.152	0.132
-735.025	3.812	0.171	0.126
-734.010	525.793	-0.061	-0.145
-732.996	-97.250	-0.104	0.027
-731.981	-200.000	-0.090	-0.435
-730.966	-33.166	0.215	0.121
-729.952	800.000	0.088	-0.253
-728.937	69.986	-0.114	-0.118
-727.923	25.255	-0.152	-0.128
-726.908	-200.000	-0.031	0.349
-725.894	341.943	-0.094	0.186
-724.879	-149.526	-0.179	-0.014
-723.864	46.067	0.075	0.070
-722.850	147.925	-0.101	-0.138
-721.835	-200.000	0.021	0.176
-720.821	50.949	-0.295	-0.282
-719.806	181.246	0.141	-0.210
-718.791	-86.605	0.025	0.008
-717.777	800.000	0.112	-0.317
-716.762	-109.611	0.225	-0.048
-715.748	-50.424	0.396	-0.189
-714.733	344.968	0.013	-0.027
-713.718	800.000	0.106	-0.380
-712.704	-44.730	-0.182	0.092
-711.689	-48.571	-0.040	0.019
-710.675	-79.092	0.332	-0.114
-709.660	-40.742	0.188	0.098
-708.645	-200.000	-0.017	-0.255
-707.631	-79.055	-0.239	-0.082
-706.616	411.076	0.070	-0.151
-705.602	71.796	-0.249	0.262
-704.587	-137.905	0.334	0.038
-703.572	253.426	0.045	0.077
-702.558	131.145	-0.022	0.028
-701.543	-200.000	-0.013	0.151
-700.529	-82.044	0.082	0.027
-699.514	-104.810	0.245	0.057
-698.499	388.725	-0.081	-0.170
-697.485	-12.463	-0.316	-0.208
-696.470	-171.352	-0.210	0.007
-695.456	-60.802	-0.089	-0.038
-694.441	800.000	0.119	0.432
-693.426	341.643	0.141	-0.277
-692.412	31.266	-0.298	-0.258
-691.397	-200.000	-0.048	-0.251
-690.383	114.888	0.191	-0.235
-689.368	-108.592	0.233	0.050
-688.354	-79.149	0.169	-0.058
-687.339	77.396	-0.100	0.107
-686.324	58.138	-0.127	0.126
-685.310	98.466	-0.186	0.217
-684.295	-56.772	0.157	0.070
-683.281	-121.369	-0.173	0.029
-682.266	-177.508	-0.275	0.007
-681.251	311.652	0.158	-0.298
-680.237	-200.000	-0.024	-0.328
-679.222	495.656	-0.035	0.081
-678.208	39.119	0.184	0.166
-677.193	218.133	0.019	0.031
-676.178	171.586	-0.136	-0.197
-675.164	800.000	-0.063	-0.273
-674.149	-200.000	-0.041	-0.293
-673.135	-71.001	-0.190	0.072
-672.120	-171.874	0.105	-0.003
-671.105	393.979	-0.031	0.065
-670.091	203.789	0.142	0.222
-669.076	736.013	0.039	0.104
-668.062	-47.707	-0.309	-0.151
-667.047	-122.418	0.304	-0.050
-666.032	89.191	-0.179	-0.202
-665.018	54.245	0.202	0.196
-664.003	-200.000	-0.008	-0.159
-662.989	166.313	0.094	-0.134
-661.974	-166.660	0.109	0.005
-660.959	-191.024	0.324	0.003
-659.945	24.246	-0.166	0.138
-658.930	-85.701	-0.323	0.101
-657.916	374.350	-0.073	0.150
-656.901	-1.190	-0.191	-0.136
-655.886	800.000	-0.086	-0.303
-654.872	800.000	0.118	-0.399
-653.857	-184.291	-0.199	-0.003
-652.843	-63.095	-0.134	0.056
-651.828	-110.993	-0.263	-0.054
-650.814	-200.000	0.026	0.129
-649.799	-94.498	0.057	-0.016
-648.784	-14.944	0.207	-0.134
-647.770	81.989	-0.125	0.137
-646.755	33.826	-0.127	-0.111
-645.741	43.207	0.105	-0.097
-644.726	-12.245	-0.293	0.193
-643.711	-1.758	0.295	0.209
-642.697	45.397	0.165	-0.153
-641.682	-108.674	0.285	-0.062
-640.668	-24.793	0.434	0.260
-639.653	122.355	-0.227	-0.285
-638.638	82.522	0.451	-0.493
-637.624	-29.970	-0.176	-0.101
-636.609	-79.931	-0.106	-0.036
-635.595	341.314	0.082	0.162
-634.580	-83.559	-0.157	0.050
-633.565	-1.008	0.123	-0.088
-632.551	29.801	-0.350	-0.301
-631.536	-102.251	-0.039	0.009
-630.522	-41.959	-0.126	-0.065
-629.507	32.892	0.232	-0.202
-628.492	-29.815	0.522	-0.299
-627.478	322.959	-0.212	0.407
-626.463	30.375	-0.132	0.114
-625.449	101.522	0.190	-0.222
-624.434	106.536	-0.382	-0.456
-623.419	-200.000	-0.013	0.219
-622.405	800.000	-0.086	0.291
-621.390	0.532	0.175	-0.126
-620.376	9.073	0.048	-0.037
-619.361	189.565	0.225	-0.339
-618.346	-54.692	-0.174	0.079
-617.332	800.000	0.047	0.157
-616.317	-200.000	0.095	0.000
-615.303	80.339	-0.271	-0.294
-614.288	243.768	0.207	-0.350
-613.273	187.270	-0.177	-0.266
-612.259	49.207	-0.094	-0.089
-611.244	45.084	-0.126	0.116
-610.230	800.000	0.053	-0.195
-609.215	-106.387	-0.107	-0.024
-608.201	110.666	0.261	0.316
-607.186	308.799	-0.189	-0.356
-606.171	209.237	-0.089	-0.140
-605.157	-200.000	-0.025	0.177
-604.142	800.000	0.006	0.023
-603.128	225.907	-0.040	-0.065
-602.113	145.811	0.246	-0.331
-601.098	800.000	-0.078	-0.216
-600.084	-200.000	0.020	0.456
-599.069	-20.583	0.292	0.181
-598.055	28.728	-0.422	0.359
-597.040	-200.000	0.011	-0.179
-596.025	415.965	-0.081	0.174
-595.011	-36.618	-0.113	0.061
-593.996	-38.314	0.453	-0.241
-592.982	338.655	0.094	0.184
-591.967	168.090	-0.126	0.180
-590.952	-111.304	-0.125	0.026
-589.938	-29.300	0.179	0.103
-588.923	-41.733	0.430	0.222
-587.909	-154.719	-0.133	0.009
-586.894	-83.427	0.066	0.021
-585.879	-200.000	-0.010	-0.163
-584.865	-200.000	-0.004	0.223
-583.850	315.800	0.199	-0.378
-582.836	-115.118	0.266	0.051
-581.821	-27.331	-0.203	0.119
-580.806	258.614	-0.161	-0.279
-579.792	-123.515	0.132	0.021
-578.777	-200.000	-0.030	-0.135
-577.763	358.101	-0.129	0.258
-576.748	173.243	-0.058	-0.084
-575.733	800.000	-0.089	-0.310
-574.719	126.361	-0.293	-0.372
-573.704	14.438	0.105	-0.083
-572.690	96.691	-0.112	-0.129
-571.675	-21.286	-0.119	-0.073
-570.661	17.185	0.169	-0.135
-569.646	-141.263	0.237	-0.024
-568.631	329.735	-0.076	-0.148
-567.617	-122.007	-0.079	-0.013
-566.602	53.428	0.112	-0.108
-565.588	275.564	0.103	-0.183
-564.573	1.576	0.023	0.017
-563.558	181.210	0.113	0.166
-562.544	-64.616	-0.138	-0.056
-561.529	-55.477	0.328	0.148
-560.515	364.094	0.050	-0.101
-559.500	-200.000	0.000	0.037
-558.485	-134.987	-0.145	-0.018
-557.471	-109.192	-0.191	0.041
-556.456	-93.352	-0.297	-0.083
-555.442	-181.773	0.246	0.005
-554.427	-200.000	-0.065	0.344
-553.412	2.508	0.117	-0.085
-552.398	357.806	-0.054	-0.108
-551.383	217.245	-0.189	-0.303
-550.369	-128.483	0.307	-0.044
-549.354	7.527	-0.157	0.118
-548.339	-200.000	-0.043	0.305
-547.325	-175.959	-0.172	0.005
-546.310	-200.000	-0.012	-0.110
-545.296	329.845	-0.094	-0.182
-544.281	800.000	0.040	0.155
-543.266	-77.348	0.198	0.069
-542.252	-127.696	-0.183	0.027
-541.237	0.808	-0.204	-0.146
-540.223	800.000	-0.075	0.232
-539.208	137.231	-0.103	-0.135
-538.193	-45.866	0.060	-0.030
-537.179	-200.000	0.041	0.300
-536.164	-200.000	0.038	0.279
-535.150	-184.083	-0.328	0.005
-534.135	-138.953	0.202	-0.022
-533.121	-141.201	-0.232	-0.024
-532.106	-34.739	-0.040	-0.022
-531.091	-103.703	0.593	-0.139
-530.077	47.366	0.269	-0.251
-529.062	-95.659	-0.337	0.090
-528.048	130.060	-0.079	0.102
-527.033	784.037	0.116	0.319
-526.018	-93.317	-0.324	-0.090
-525.004	-59.400	-0.221	-0.095
-523.989	93.702	-0.091	0.103
-522.975	158.463	0.144	0.200
-521.960	348.479	-0.142	-0.280
-520.945	-33.346	-0.003	-0.002
-519.931	-106.115	-0.135	-0.030
-518.916	-64.168	-0.188	-0.077
-517.902	800.000	0.029	-0.101
-516.887	294.951	-0.127	-0.232
-515.872	92.292	0.135	-0.153
-514.858	800.000	-0.079	0.302
-513.843	450.093	-0.017	0.037
-512.829	-36.561	0.203	-0.109
-511.814	800.000	0.083	-0.306
-510.799	315.198	-0.123	0.233
-509.785	-200.000	0.017	-0.196
-508.770	-200.000	-0.047	-0.271
-507.756	-88.797	0.040	-0.012
-506.741	474.166	0.064	0.145
-505.726	-200.000	-0.066	-0.397
-504.712	-19.887	-0.236	-0.146
-503.697	323.579	-0.134	0.256
-502.683	-138.594	-0.402	-0.044
-501.668	-200.000	-0.048	-0.400
-500.653	78.886	0.119	-0.128
-499.639	177.063	0.209	0.305
-498.624	-109.786	-0.291	0.061
-497.610	-200.000	-0.059	0.287
-496.595	75.564	0.138	0.146
-495.581	800.000	-0.094	0.265
-494.566	-200.000	-0.049	-0.254
-493.551	-200.000	-0.014	0.259
-492.537	-1.643	0.289	0.204
-491.522	-139.181	0.376	-0.041
-490.508	800.000	-0.110	0.371
-489.493	320.689	-0.021	-0.040
-488.478	28.209	0.206	0.174
-487.464	30.392	0.007	-0.006
-486.449	71.421	-0.104	0.108
-485.435	103.884	-0.369	0.434
-484.420	-22.616	0.225	-0.136
-483.405	800.000	-0.072	-0.226
-482.391	-121.224	0.228	-0.038
-481.376	-130.447	0.035	0.005
-480.362	-176.669	-0.418	-0.011
-479.347	-200.000	0.006	0.383
-478.332	-194.207	-0.310	-0.003
-477.318	161.515	-0.018	-0.025
-476.303	800.000	0.035	-0.112
-475.289	-200.000	0.025	-0.125
-474.274	-45.836	0.168	-0.083
-473.259	414.509	0.011	0.024
-472.245	-200.000	-0.007	-0.086
-471.230	-139.910	0.075	-0.008
-470.216	93.512	0.169	0.191
-469.201	-15.719	-0.176	0.112
-468.186	94.726	-0.278	0.316
-467.172	98.879	-0.099	0.114
-466.157	800.000	0.051	-0.217
-465.143	-77.838	0.100	-0.034
-464.128	-71.474	0.211	0.079
-463.113	371.811	0.039	0.079
-462.099	-96.072	-0.347	0.092
-461.084	-135.092	-0.330	0.040
-460.070	-71.775	0.368	0.137
-459.055	-60.203	0.279	-0.119
-458.040	-200.000	-0.001	0.096
-457.026	-200.000	0.040	0.444
-456.011	13.164	0.148	0.114
-454.997	-1.769	0.227	-0.160
-453.982	-144.299	-0.494	0.046
-452.968	171.188	0.107	-0.154
-451.953	27.144	0.239	-0.200
-450.938	-38.450	0.207	-0.109
-449.924	-7.802	-0.143	-0.097
-448.909	679.713	-0.031	0.081
-447.895	-19.142	0.305	0.189
-446.880	-200.000	-0.010	-0.111
-445.865	389.100	-0.123	-0.254
-444.851	-200.000	-0.021	-0.234
-443.836	-3.782	-0.050	0.035
-442.822	800.000	-0.090	0.311
-441.807	619.700	-0.079	-0.198
-440.792	34.988	0.086	-0.075
-439.778	194.306	-0.095	-0.143
-438.763	-178.970	0.212	-0.005
-437.749	182.188	-0.130	0.192
-436.734	540.699	-0.129	0.308
-435.719	147.681	0.078	-0.105
-434.705	800.000	0.010	-0.029
-433.690	-88.236	0.454	0.136
-432.676	-200.000	0.020	0.240
-431.661	-2.810	-0.320	0.223
-430.646	324.238	-0.073	0.139
-429.632	2.380	0.252	0.182
-428.617	37.280	-0.124	0.109
-427.603	67.901	-0.170	-0.174
-426.588	65.161	0.164	0.165
-425.573	-200.000	-0.011	-0.204
-424.559	441.560	-0.095	-0.208
-423.544	-20.967	0.211	0.129
-422.530	28.202	0.202	0.170
-421.515	291.733	-0.055	0.101
-420.500	153.013	-0.110	-0.150
-419.486	4.513	0.210	-0.154
-418.471	87.311	-0.290	-0.320
-417.457	-200.000	-0.025	0.392
-416.442	-98.170	-0.260	0.067
-415.428	73.700	0.128	-0.134
-414.413	-200.000	0.024	0.152
-413.398	-141.324	-0.223	-0.023
-412.384	800.000	-0.111	-0.328
-411.369	-67.855	0.112	-0.044
-410.355	-48.437	0.259	0.125
-409.340	-200.000	-0.031	-0.244
-408.325	-64.697	0.181	-0.073
-407.311	177.589	0.200	-0.290
-406.296	-62.586	-0.275	-0.114
-405.282	-200.000	0.031	0.286
-404.267	39.645	-0.190	0.170
-403.252	-200.000	0.001	-0.090
-402.238	-20.784	0.310	0.190
-401.223	-200.000	-0.015	-0.218
-400.209	211.747	-0.047	-0.073
-399.194	115.250	0.119	0.145
-398.179	98.291	-0.045	0.052
-397.165	-105.196	-0.198	0.045
-396.150	195.628	-0.048	-0.073
-395.136	-63.305	0.229	0.094
-394.121	98.189	-0.057	0.066
-393.106	90.279	0.268	-0.299
-392.092	-16.374	-0.135	-0.085
-391.077	384.790	-0.187	0.384
-390.063	-200.000	0.000	0.299
-389.048	-1.953	0.238	-0.167
-388.033	4.918	-0.186	-0.137
-387.019	212.737	0.120	-0.189
-386.004	-157.069	-0.047	-0.003
-384.990	139.393	0.151	-0.198
-383.975	800.000	-0.105	-0.404
-382.960	7.926	0.060	-0.045
-381.946	23.204	-0.131	0.107
-380.931	-46.276	0.149	0.073
-379.917	800.000	0.043	-0.168
-378.902	-89.679	0.330	0.096
-377.888	-132.528	0.021	-0.003
-376.873	-89.900	0.195	-0.057
-375.858	123.362	0.300	0.375
-374.844	-120.150	-0.189	0.032
-373.829	-200.000	-0.003	-0.168
-372.815	-71.242	0.242	-0.091
-371.800	-80.906	-0.136	-0.045
-370.785	-24.547	-0.159	0.094
-369.771	-30.701	0.067	-0.038
-368.756	-118.624	-0.170	-0.030
-367.742	-138.672	-0.181	0.020
-366.727	-13.499	0.172	-0.111
-365.712	-200.000	0.038	0.187
-364.698	-40.120	-0.092	-0.048
-363.683	800.000	0.029	-0.109
-362.669	800.000	-0.043	0.147
-361.654	800.000	0.051	0.165
-360.639	-200.000	-0.040	0.257
-359.625	-20.404	-0.142	0.087
-358.610	517.260	-0.040	0.092
-357.596	-28.271	-0.225	-0.129
-356.581	-84.149	0.115	-0.036
-355.566	-87.435	-0.089	0.027
-354.552	-185.128	-0.096	-0.001
-353.537	-200.000	-0.054	0.308
-352.523	-24.190	-0.125	0.074
-351.508	39.813	0.236	0.211
-350.493	-200.000	-0.012	-0.104
-349.479	-13.310	0.177	-0.114
-348.464	-200.000	0.055	-0.282
-347.450	800.000	-0.039	0.147
-346.435	55.352	-0.260	0.250
-345.420	0.543	-0.096	0.068
-344.406	372.986	-0.068	0.137
-343.391	-49.792	-0.223	0.105
-342.377	77.398	-0.097	-0.103
-341.362	39.109	-0.136	-0.121
-340.348	-78.686	0.058	-0.020
-339.333	-8.124	0.159	0.107
-338.318	345.700	0.040	0.079
-337.304	268.377	0.252	0.440
-336.289	800.000	0.062	0.224
-335.275	-31.768	0.102	0.057
-334.260	-200.000	0.058	-0.352
-333.245	-200.000	-0.042	0.219
-332.231	-80.445	-0.214	0.071
-331.216	-144.127	-0.228	0.021
-330.202	-53.676	0.164	0.075
-329.187	134.339	0.331	0.426
-328.172	-104.708	-0.242	-0.055
-327.158	40.760	0.202	0.181
-326.143	665.561	0.059	-0.152
-325.129	483.041	-0.097	0.220
-324.114	-1.636	0.229	-0.161
-323.099	36.801	0.194	0.170
-322.085	-139.175	-0.263	0.028
-321.070	105.430	-0.225	-0.264
-320.056	115.048	0.115	0.140
-319.041	-156.960	-0.341	0.021
-318.026	129.029	-0.241	-0.305
-317.012	56.910	0.098	0.095
-315.997	-25.532	-0.127	-0.075
-314.983	-124.274	-0.117	0.018
-313.968	-200.000	0.005	-0.101
-312.953	800.000	-0.184	-0.510
-311.939	-200.000	0.022	0.142
-310.924	-148.842	-0.212	0.017
-309.910	800.000	-0.019	-0.052
-308.895	-200.000	0.033	-0.257
-307.880	325.799	0.079	-0.150
-306.866	-93.876	0.082	-0.022
-305.851	-105.691	0.220	0.050
-304.837	-200.000	-0.076	0.355
-303.822	281.663	0.039	-0.070
-302.807	-144.882	-0.181	0.016
-301.793	-114.477	0.411	-0.078
-300.778	-103.981	-0.121	-0.028
-299.764	-29.411	-0.194	0.110
-298.749	-118.073	0.379	-0.067
-297.735	-63.402	0.207	0.085
-296.720	260.779	0.131	-0.225
-295.705	-200.000	-0.072	0.426
-294.691	-86.815	-0.198	-0.060
-293.676	-127.866	-0.114	0.016
-292.662	32.939	0.188	-0.162
-291.647	40.222	0.394	0.352
-290.632	-157.465	0.341	-0.020
-289.618	-200.000	0.036	0.000
-288.603	181.128	0.142	-0.207
-287.589	-200.000	-0.001	0.071
-286.574	128.566	-0.113	-0.143
-285.559	-10.053	-0.233	0.154
-284.545	577.038	-0.032	-0.078
-283.530	-52.354	-0.275	0.126
-282.516	800.000	-0.050	0.181
-281.501	800.000	0.040	-0.132
-280.486	800.000	0.090	0.361
-279.472	46.554	0.231	-0.213
-278.457	303.308	-0.043	-0.080
-277.443	-200.000	0.011	0.105
-276.428	-121.260	0.027	-0.004
-275.413	800.000	0.010	0.040
-274.399	271.937	0.028	-0.048
-273.384	244.111	0.281	0.469
-272.370	-22.972	0.239	0.143
-271.355	30.216	-0.323	-0.274
-270.340	-65.220	0.211	-0.084
-269.326	1.469	-0.241	0.172
-268.311	-74.678	0.286	-0.102
-267.297	-123.859	0.162	0.025
-266.282	-200.000	0.065	-0.286
-265.267	366.117	0.215	-0.431
-264.253	174.793	-0.069	-0.099
-263.238	-200.000	-0.035	-0.271
-262.224	212.670	0.097	-0.151
-261.209	266.441	0.070	0.121
-260.195	88.893	0.192	0.212
-259.180	73.880	0.039	0.040
-258.165	500.885	0.021	0.048
-257.151	-68.810	0.253	0.097
-256.136	290.656	0.176	0.318
-255.122	83.993	-0.167	0.180
-254.107	173.100	0.135	0.192
-253.092	-123.839	-0.352	-0.055
-252.078	303.931	-0.169	-0.311
-251.063	111.687	-0.236	-0.283
-250.049	144.323	-0.106	0.140
-249.034	-104.474	0.181	0.041
-248.019	800.000	0.031	0.104
-247.005	800.000	0.078	-0.284
-245.990	125.350	-0.353	0.442
-244.976	-137.562	-0.505	-0.056
-243.961	17.446	0.076	-0.060
-242.946	-75.341	-0.231	-0.082
-241.932	14.303	0.135	-0.104
-240.917	-133.753	0.298	-0.037
-239.903	653.418	0.017	-0.042
-238.888	-24.449	-0.019	0.011
-237.873	5.884	-0.079	-0.058
-236.859	-200.000	0.009	-0.069
-235.844	16.519	-0.075	0.059
-234.830	-43.056	-0.297	0.149
-233.815	800.000	0.060	-0.249
-232.800	35.942	-0.249	0.217
-231.786	76.345	0.229	-0.240
-230.771	-48.988	-0.159	-0.076
-229.757	-200.000	-0.020	0.155
-228.742	130.196	0.071	-0.090
-227.727	-61.401	0.333	-0.139
-226.713	-166.413	-0.118	0.005
-225.698	800.000	-0.058	-0.233
-224.684	-4.920	-0.115	-0.078
-223.669	480.330	-0.079	-0.178
-222.655	246.197	0.058	0.098
-221.640	-43.829	-0.063	-0.031
-220.625	-123.302	-0.198	-0.031
-219.611	800.000	-0.058	0.246
-218.596	27.809	-0.152	-0.127
-217.582	-200.000	-0.025	-0.253
-216.567	-200.000	-0.013	-0.211
-215.552	-200.000	0.014	0.189
-214.538	800.000	0.028	-0.103
-213.523	46.714	-0.119	-0.110
-212.509	29.339	0.245	0.206
-211.494	404.436	0.083	0.172
-210.479	-96.423	-0.092	0.024
-209.465	737.536	-0.058	-0.154
-208.450	-200.000	0.053	0.230
-207.436	47.459	-0.314	0.289
-206.421	-57.537	-0.143	0.062
-205.406	-200.000	0.000	-0.259
-204.392	90.196	-0.028	-0.031
-203.377	-117.664	-0.188	-0.034
-202.363	800.000	-0.103	0.365
-201.348	100.978	-0.202	-0.232
-200.333	69.467	-0.353	0.359
-199.319	130.381	0.367	0.466
-198.304	-67.913	-0.279	-0.108
-197.290	20.787	-0.148	0.119
-196.275	-119.740	0.183	0.031
-195.260	-127.668	0.519	-0.074
-194.246	-96.772	0.424	0.110
-193.231	-129.693	-0.344	0.047
-192.217	-31.107	0.376	0.210
-191.202	800.000	-0.047	-0.187
-190.187	-17.490	0.297	0.185
-189.173	132.387	0.079	-0.101
-188.158	596.002	-0.230	0.564
-187.144	320.362	0.150	-0.282
-186.129	-64.630	-0.232	-0.093
-185.114	-110.387	0.096	-0.020
-184.100	-109.481	-0.315	-0.066
-183.085	-30.183	0.106	-0.060
-182.071	8.917	0.080	-0.060
-181.056	-200.000	0.082	0.417
-180.042	-100.357	-0.058	-0.014
-179.027	63.718	0.273	-0.271
-178.012	-28.049	-0.161	-0.092
-176.998	-131.288	-0.395	0.052
-175.983	-69.597	0.011	0.004
-174.969	61.478	0.073	-0.072
-173.954	-29.044	0.097	0.055
-172.939	-99.070	-0.106	-0.027
-171.925	800.000	0.081	-0.230
-170.910	-8.656	-0.163	0.108
-169.896	-61.566	-0.032	-0.013
-168.881	800.000	-0.035	-0.124
-167.866	329.345	0.111	-0.210
-166.852	159.018	-0.013	-0.017
-165.837	180.375	0.147	-0.213
-164.823	267.469	-0.010	0.017
-163.808	0.684	0.388	-0.274
-162.793	-30.031	0.297	0.167
-161.779	-124.257	-0.231	0.036
-160.764	-16.718	-0.341	-0.213
-159.750	96.508	0.379	-0.428
-158.735	-51.279	0.113	0.052
-157.720	-200.000	0.065	0.320
-156.706	-83.728	-0.196	0.062
-155.691	-33.145	-0.162	0.089
-154.677	-200.000	0.030	-0.191
-153.662	401.295	-0.203	0.422
-152.647	-95.318	0.055	-0.015
-151.633	-74.689	0.150	0.053
-150.618	26.188	-0.075	0.062
-149.604	-81.450	0.217	0.071
-148.589	669.473	-0.164	-0.419
-147.574	-200.000	-0.014	-0.091
-146.560	800.000	-0.058	0.174
-145.545	-200.000	-0.059	-0.521
-144.531	-28.454	-0.290	0.165
-143.516	630.997	0.026	-0.065
-142.502	237.885	-0.258	-0.423
-141.487	-86.946	0.210	0.063
-140.472	12.213	0.078	0.060
-139.458	-200.000	-0.017	0.342
-138.443	-127.172	0.295	0.043
-137.429	107.309	0.111	0.131
-136.414	800.000	0.038	-0.123
-135.399	-80.779	0.234	-0.077
-134.385	165.782	0.032	-0.045
-133.370	-175.147	0.412	0.011
-132.356	-200.000	0.002	0.115
-131.341	-200.000	0.002	0.171
-130.326	-91.043	-0.274	0.078
-129.312	-43.531	0.316	-0.158
-128.297	-200.000	0.011	-0.052
-127.283	-200.000	-0.015	0.112
-126.268	51.764	-0.137	-0.129
-125.253	800.000	-0.058	-0.189
-124.239	94.481	0.218	0.245
-123.224	55.467	0.061	0.059
-122.210	-162.073	0.309	-0.015
-121.195	800.000	0.089	0.242
-120.180	800.000	0.074	0.261
-119.166	-78.453	0.214	0.072
-118.151	-200.000	-0.022	0.184
-117.137	226.353	0.193	-0.308
-116.122	66.959	0.265	-0.266
-115.107	64.461	0.266	0.264
-114.093	-110.472	0.076	-0.015
-113.078	603.574	-0.120	-0.294
-112.064	34.799	0.264	-0.228
-111.049	163.542	-0.110	-0.152
-110.034	-200.000	0.003	-0.220
-109.020	-200.000	-0.049	0.306
-108.005	34.660	0.256	0.220
-106.991	-65.928	0.265	0.104
-105.976	-200.000	-0.018	-0.128
-104.962	61.201	-0.266	0.261
-103.947	159.259	0.113	-0.155
-102.932	-105.715	-0.144	-0.032
-101.918	231.250	0.095	0.154
-100.903	245.096	0.066	-0.109
-99.889	800.000	-0.015	-0.059
-98.874	-200.000	-0.001	0.076
-97.859	177.479	-0.053	0.076
-96.845	-200.000	0.041	0.254
-95.830	-200.000	-0.012	-0.125
-94.816	273.691	0.072	0.126
-93.801	-79.321	-0.199	-0.066
-92.786	-159.721	0.216	0.012
-91.772	394.974	-0.045	0.092
-90.757	18.397	0.233	0.183
-89.743	-15.898	0.319	0.200
-88.728	215.727	-0.038	0.059
-87.713	-132.610	0.085	-0.011
-86.699	-90.460	0.287	-0.082
-85.684	-3.511	0.243	0.166
-84.670	-129.502	-0.120	-0.016
-83.655	9.906	-0.088	-0.066
-82.640	-200.000	-0.006	0.175
-81.626	229.182	0.024	-0.038
-80.611	-200.000	0.011	-0.066
-79.597	40.255	-0.124	0.110
-78.582	-49.238	-0.237	0.111
-77.567	28.658	-0.269	-0.225
-76.553	-42.700	0.158	0.079
-75.538	800.000	0.090	0.377
-74.524	-41.966	-0.107	-0.054
-73.509	-200.000	-0.010	0.152
-72.494	11.728	-0.104	0.079
-71.480	-200.000	0.017	0.121
-70.465	130.861	-0.116	-0.147
-69.451	236.423	0.129	0.210
-68.436	-200.000	0.009	0.341
-67.422	4.416	-0.213	-0.154
-66.407	75.667	0.109	0.113
-65.392	4.158	0.155	0.112
-64.378	754.594	0.100	-0.267
-63.363	800.000	0.059	0.225
-62.349	-160.584	-0.249	-0.013
-61.334	147.804	-0.904	-1.200
-60.319	44.350	0.469	0.423
-59.305	222.587	-0.529	-0.839
-58.290	591.818	0.516	1.253
-57.276	800.000	0.498	1.686
-56.261	-200.000	95.706	567.587
-55.246	517.243	1423.156	3276.014
-54.232	152.024	2609.772	3503.242
-53.217	111.412	2190.612	2599.490
-52.203	44.237	1634.607	1476.092
-51.188	35.787	1366.508	1182.286
-50.173	32.557	1323.947	1126.141
-49.159	54.793	1369.559	1300.422
-48.144	56.726	1386.290	1327.978
-47.130	35.945	1346.336	1165.602
-46.115	32.482	1328.774	1129.619
-45.100	32.312	1323.647	1124.201
-44.086	32.124	1321.395	1121.119
-43.071	32.152	1318.936	1119.156
-42.057	32.086	1316.952	1117.037
-41.042	32.221	1315.139	1116.251
-40.027	32.221	1313.380	1114.716
-39.013	32.171	1311.729	1112.972
-37.998	32.222	1309.766	1111.570
-36.984	32.209	1308.364	1110.257
-35.969	32.245	1306.691	1109.007
-34.954	32.312	1304.476	1107.474
-33.940	32.375	1302.999	1106.549
-32.925	32.394	1301.776	1105.578
-31.911	32.418	1300.150	1104.292
-30.896	32.380	1298.477	1102.604
-29.881	32.393	1297.207	1101.561
-28.867	32.383	1295.825	1100.285
-27.852	32.309	1294.549	1098.725
-26.838	32.405	1293.108	1098.021
-25.823	32.377	1291.454	1096.409
-24.809	32.319	1290.601	1095.299
-23.794	32.433	1288.636	1094.254
-22.779	32.370	1288.046	1093.342
-21.765	32.412	1286.531	1092.259
-20.750	32.300	1284.938	1090.212
-19.736	32.191	1283.611	1088.410
-18.721	32.231	1282.800	1087.913
-17.706	32.260	1281.582	1087.004
-16.692	32.157	1280.473	1085.422
-15.677	32.206	1279.368	1084.730
-14.663	32.280	1277.880	1083.850
-13.648	32.200	1276.774	1082.408
-12.633	32.244	1275.835	1081.822
-11.619	32.212	1275.178	1081.036
-10.604	32.226	1274.109	1080.170
-9.590	32.155	1273.358	1079.083
-8.575	32.117	1272.100	1077.753
-7.560	32.112	1271.888	1077.506
-6.546	32.136	1270.969	1076.821
-5.531	32.110	1269.836	1075.667
-4.517	32.129	1268.798	1074.855
-3.502	32.222	1267.987	1074.658
-2.487	32.124	1266.925	1073.156
-1.473	32.293	1262.713	1070.508
-0.458	31.532	1248.718	1054.311
0.556	27.287	1233.092	1022.493
1.571	24.123	1240.583	1010.687
2.586	23.141	1256.146	1017.631
3.600	22.616	1245.413	1005.855
4.615	19.742	1176.789	934.826
5.629	14.896	1106.105	853.912
6.644	12.429	1086.882	826.605
7.659	12.276	1084.654	824.069
8.673	12.155	1083.433	822.458
9.688	12.150	1082.170	821.403
10.702	12.514	1080.299	821.731
11.717	15.559	1084.811	840.346
12.731	19.266	1088.361	861.591
13.746	18.848	1088.389	859.446
14.761	17.774	1085.501	851.728
15.775	16.598	1083.560	844.263
16.790	15.394	1081.230	836.377
17.804	14.740	1079.792	831.936
18.819	14.336	1078.414	828.788
19.834	14.079	1077.479	826.722
20.848	13.836	1076.211	824.468
21.863	13.565	1075.447	822.465
22.877	13.302	1074.941	820.698
23.892	13.401	1074.039	820.429
24.907	13.473	1073.193	820.067
25.921	13.459	1072.036	819.040
26.936	13.394	1071.022	817.872
27.950	13.555	1069.376	817.335
28.965	13.649	1067.823	816.543
29.980	13.580	1066.409	815.050
30.994	13.694	1065.411	814.772
32.009	13.679	1064.578	813.991
33.023	13.737	1062.918	812.935
34.038	13.553	1062.101	811.337
35.053	13.664	1060.826	810.832
36.067	13.674	1060.115	810.266
37.082	13.636	1059.315	809.395
38.096	13.734	1058.693	809.329
39.111	13.710	1057.992	808.606
40.126	13.560	1057.036	807.072
41.140	13.402	1055.608	805.141
42.155	13.317	1054.315	803.669
43.169	13.369	1053.291	803.073
44.184	13.342	1051.924	801.827
45.199	13.398	1051.284	801.541
46.213	13.514	1049.815	800.912
47.228	13.574	1048.833	800.379
48.242	13.601	1048.011	799.812
49.257	13.453	1046.960	798.227
50.271	13.507	1046.236	797.862
51.286	13.422	1045.364	796.717
52.301	13.583	1044.359	796.656
53.315	13.528	1043.242	795.472
54.330	13.447	1042.023	794.083
55.344	13.528	1041.195	793.767
56.359	13.449	1040.356	792.679
57.374	13.409	1039.296	791.608
58.388	13.427	1038.573	791.078
59.403	13.439	1037.784	790.461
60.417	13.373	1037.099	789.557
61.432	13.413	1035.840	788.718
62.447	13.258	1035.309	787.507
63.461	13.290	1034.531	786.997
64.476	13.383	1033.538	786.614
65.490	13.333	1032.763	785.717
66.505	13.283	1032.151	784.944
67.520	13.312	1031.533	784.543
68.534	13.320	1031.010	784.115
69.549	13.385	1030.230	783.757
70.563	13.307	1028.878	782.289
71.578	13.302	1028.297	781.756
72.593	13.151	1027.942	780.704
73.607	13.170	1027.061	780.054
74.622	13.219	1026.494	779.789
75.636	13.319	1025.241	779.240
76.651	13.236	1024.634	778.315
77.666	13.282	1023.807	777.834
78.680	13.387	1023.080	777.708
79.695	13.400	1022.689	777.405
80.709	13.285	1022.518	776.662
81.724	13.253	1021.779	775.886
82.739	13.430	1020.678	775.811
83.753	13.565	1019.473	775.457
84.768	13.580	1018.661	774.838
85.782	13.651	1018.086	774.668
86.797	13.547	1017.324	773.534
87.812	13.647	1016.233	773.100
88.826	13.651	1015.147	772.224
89.841	13.575	1014.325	771.179
90.855	13.640	1013.522	770.802
91.870	13.559	1012.688	769.724
92.884	13.659	1011.485	769.203
93.899	13.619	1010.821	768.446
94.914	13.696	1009.714	767.893
95.928	13.712	1008.733	767.154
96.943	13.594	1008.253	766.172
97.957	13.590	1007.227	765.307
98.972	13.574	1006.432	764.562
99.987	13.657	1005.654	764.288
101.001	13.694	1004.858	763.785
102.016	13.581	1003.980	762.532
103.030	13.652	1003.066	762.095
104.045	13.510	1002.760	761.143
105.060	13.554	1001.554	760.359
106.074	13.498	1000.725	759.408
107.089	13.542	999.191	758.380
108.103	13.432	998.776	757.491
109.118	13.505	997.494	756.786
110.133	13.439	997.052	756.083
111.147	13.466	995.798	755.188
112.162	13.540	994.939	754.808
113.176	13.415	994.754	754.031
114.191	13.487	993.545	753.376
115.206	13.565	992.841	753.129
116.220	13.605	991.539	752.258
117.235	13.482	990.750	751.033
118.249	13.559	990.237	750.925
119.264	13.456	989.597	749.908
120.279	13.332	989.323	749.073
121.293	13.472	987.802	748.490
122.308	13.467	986.988	747.785
123.322	13.370	985.777	746.359
124.337	13.428	984.664	745.713
125.352	13.416	983.645	744.824
126.366	13.609	982.105	744.459
127.381	13.419	981.705	743.237
128.395	13.580	980.419	742.917
129.410	13.438	979.868	741.799
130.424	13.547	979.261	741.762
131.439	13.462	978.605	740.817
132.454	13.479	977.698	740.140
133.468	13.654	976.572	740.008
134.483	13.548	975.516	738.669
135.497	13.671	974.892	738.677
136.512	13.617	974.056	737.741
137.527	13.575	972.900	736.610
138.541	13.709	972.291	736.679
139.556	13.563	972.063	735.795
140.570	13.646	971.013	735.301
141.585	13.747	970.128	735.013
142.600	13.894	968.855	734.638
143.614	13.765	968.330	733.601
144.629	13.843	967.771	733.458
145.643	13.742	967.012	732.374
146.658	13.667	965.817	731.073
147.673	13.693	964.808	730.359
148.687	13.605	964.094	729.363
149.702	13.607	963.084	728.545
150.716	13.807	962.292	728.758
151.731	13.595	961.961	727.515
152.746	13.685	960.895	727.039
153.760	13.727	960.560	726.903
154.775	13.834	959.702	726.658
155.789	13.753	959.438	726.039
156.804	13.786	958.518	725.425
157.819	13.838	957.976	725.176
158.833	13.795	957.684	724.704
159.848	13.911	956.535	724.279
160.862	13.860	955.516	723.218
161.877	13.771	954.531	722.021
162.892	13.774	953.531	721.213
163.906	13.687	952.548	720.031
164.921	13.761	951.973	719.852
165.935	13.808	951.377	719.540
166.950	13.931	949.962	718.939
167.964	13.750	949.243	717.551
168.979	13.737	948.188	716.635
169.994	13.813	947.188	716.140
171.008	13.863	946.758	715.971
172.023	13.860	945.980	715.303
173.037	14.014	945.488	715.532
174.052	13.952	944.891	714.749
175.067	13.817	944.372	713.714
176.081	13.819	943.700	713.153
177.096	13.859	942.947	712.689
178.110	13.801	942.700	712.195
179.125	13.989	942.087	712.472
180.140	13.968	941.536	711.905
181.154	13.956	941.072	711.436
182.169	13.954	940.128	710.654
183.183	14.035	939.528	710.482
184.198	14.003	938.950	709.846
185.213	14.173	938.181	709.928
186.227	14.174	937.506	709.357
187.242	14.191	936.180	708.362
188.256	14.183	936.275	708.340
189.271	14.227	935.426	707.819
190.286	14.136	934.439	706.624
191.300	13.945	933.756	705.233
192.315	13.997	933.185	704.962
193.329	13.839	932.739	703.893
194.344	14.046	931.988	704.142
195.359	14.081	931.428	703.806
196.373	14.017	931.103	703.224
197.388	14.189	930.788	703.654
198.402	14.183	930.337	703.223
199.417	14.364	929.185	703.056
200.432	14.469	928.634	703.020
201.446	14.442	928.342	702.623
202.461	14.482	927.772	702.296
203.475	14.486	927.064	701.717
204.490	14.335	926.587	700.657
205.504	14.339	925.740	699.973
206.519	14.370	924.517	699.114
207.534	14.347	924.282	698.778
208.548	14.241	923.780	697.892
209.563	14.324	923.225	697.761
210.577	14.330	922.341	697.056
211.592	14.487	921.486	697.002
212.607	14.419	920.942	696.246
213.621	14.396	920.261	695.575
214.636	14.566	919.478	695.628
215.650	14.550	918.414	694.698
216.665	14.569	917.565	694.071
217.680	14.714	917.115	694.273
218.694	14.643	917.057	693.871
219.709	14.604	916.319	693.088
220.723	14.636	915.476	692.525
221.738	14.481	914.905	691.389
222.753	14.668	914.292	691.637
223.767	14.780	913.489	691.433
224.782	14.678	913.042	690.614
225.796	14.695	912.143	689.942
226.811	14.722	912.066	689.935
227.826	14.691	911.048	688.975
228.840	14.686	909.949	688.059
229.855	14.806	909.392	688.076
230.869	14.579	908.978	686.765
231.884	14.710	907.961	686.473
232.899	14.701	907.392	685.949
233.913	14.519	907.255	685.037
234.928	14.646	906.032	684.571
235.942	14.600	905.408	683.851
236.957	14.720	904.906	683.904
237.972	14.632	904.153	682.912
238.986	14.613	903.637	682.386
240.001	14.646	903.237	682.159
241.015	14.620	902.334	681.309
242.030	14.708	901.693	681.123
243.045	14.837	901.304	681.297
244.059	14.846	900.153	680.402
245.074	14.815	899.774	679.931
246.088	14.773	899.429	679.436
247.103	15.021	898.172	679.434
248.117	15.010	898.042	679.230
249.132	14.949	897.729	678.687
250.147	15.170	896.795	678.817
251.161	15.150	896.466	678.428
252.176	15.129	895.820	677.795
253.190	15.147	894.914	677.120
254.205	15.320	894.009	677.074
255.220	15.114	893.317	675.660
256.234	15.302	892.850	676.005
257.249	15.240	892.402	675.354
258.263	15.235	891.366	674.490
259.278	15.170	890.972	673.874
260.293	15.239	890.528	673.753
261.307	15.355	890.025	673.782
262.322	15.356	889.159	673.070
263.336	15.438	888.113	672.547
264.351	15.334	887.763	671.804
265.366	15.434	886.946	671.529
266.380	15.434	886.124	670.848
267.395	15.458	885.457	670.378
268.409	15.500	884.393	669.680
269.424	15.421	884.025	669.029
270.439	15.423	883.424	668.522
271.453	15.513	882.833	668.374
272.468	15.358	882.555	667.488
273.482	15.444	881.982	667.337
274.497	15.333	881.385	666.383
275.512	15.385	880.733	666.039
276.526	15.532	880.190	666.154
277.541	15.472	879.643	665.442
278.555	15.576	878.666	665.054
279.570	15.644	878.402	665.066
280.585	15.576	877.640	664.160
281.599	15.556	876.838	663.418
282.614	15.625	876.000	662.997
283.628	15.588	875.300	662.262
284.643	15.563	874.819	661.741
285.657	15.612	874.156	661.375
286.672	15.724	873.506	661.264
287.687	15.694	873.375	660.988
288.701	15.766	872.405	660.477
289.716	15.647	872.364	659.923
290.730	15.677	871.706	659.484
291.745	15.731	870.928	659.048
292.760	15.724	870.571	658.693
293.774	15.840	869.804	658.508
294.789	15.919	868.705	657.927
295.803	15.813	868.101	656.998
296.818	15.779	867.551	656.389
297.833	15.727	867.339	655.968
298.847	15.803	866.184	655.333
299.862	15.802	865.717	654.917
300.876	15.862	865.357	654.820
301.891	15.764	865.025	654.131
302.906	15.991	864.477	654.541
303.920	16.051	863.310	653.830
304.935	16.099	863.028	653.747
305.949	16.009	862.315	652.799
306.964	16.044	861.807	652.490
307.979	16.033	861.131	651.880
308.993	15.995	860.609	651.282
310.008	16.049	860.129	651.070
311.022	16.140	859.573	650.941
312.037	15.946	859.286	649.916
313.052	15.964	858.384	649.247
314.066	15.867	857.928	648.472
315.081	15.831	857.576	648.010
316.095	15.992	856.713	647.918
317.110	16.010	856.212	647.551
318.125	16.011	855.768	647.162
319.139	16.081	855.109	646.877
320.154	16.039	854.749	646.385
321.168	16.108	853.983	646.014
322.183	16.120	853.309	645.490
323.197	16.204	852.753	645.336
324.212	16.253	852.343	645.156
325.227	16.094	851.624	643.945
326.241	16.183	850.826	643.627
327.256	16.265	850.527	643.653
328.270	16.129	850.096	642.754
329.285	16.173	849.132	642.135
330.300	16.026	849.204	641.574
331.314	16.178	848.491	641.555
332.329	16.267	848.024	641.484
333.343	16.240	847.577	640.987
334.358	16.312	847.321	641.009
335.373	16.283	847.079	640.659
336.387	16.328	846.621	640.429
337.402	16.492	846.076	640.580
338.416	16.503	845.654	640.247
339.431	16.393	845.424	639.598
340.446	16.561	844.967	639.832
341.460	16.518	844.822	639.501
342.475	16.655	844.085	639.408
343.489	16.676	843.673	639.116
344.504	16.579	843.353	638.452
345.519	16.517	843.072	637.948
346.533	16.552	842.360	637.486
347.548	16.507	841.739	636.789
348.562	16.513	840.977	636.180
349.577	16.598	840.418	636.020
350.592	16.528	840.087	635.448
351.606	16.564	839.191	634.850
352.621	16.537	838.650	634.283
353.635	16.647	838.069	634.201
354.650	16.647	837.259	633.533
355.665	16.619	836.880	633.083
356.679	16.803	836.313	633.287
357.694	16.667	835.238	631.909
358.708	16.710	834.872	631.738
359.723	16.806	833.951	631.341
360.738	16.808	833.450	630.914
361.752	16.806	832.959	630.479
362.767	16.813	832.607	630.183
363.781	16.726	832.150	629.458
364.796	16.904	831.816	629.811
365.810	16.960	831.510	629.729
366.825	16.905	830.752	628.898
367.840	16.943	830.549	628.828
368.854	16.888	829.998	628.154
369.869	16.962	829.327	627.862
370.883	16.990	829.253	627.857
371.898	16.946	828.577	627.124
372.913	17.193	828.298	627.771
373.927	17.012	827.920	626.759
374.942	16.950	827.390	626.077
375.956	17.169	826.576	626.210
376.971	17.148	826.681	626.157
377.986	17.074	826.074	625.371
379.000	17.247	825.720	625.683
380.015	17.248	824.898	625.009
381.029	17.328	824.264	624.766
382.044	17.151	823.995	623.858
383.059	17.281	823.319	623.768
384.073	17.197	822.932	623.112
385.088	17.325	821.835	622.694
386.102	17.231	821.264	621.864
387.117	17.096	821.078	621.173
388.132	17.098	820.274	620.517
389.146	17.104	820.243	620.462
390.161	17.352	819.364	620.646
391.175	17.286	819.040	620.104
392.190	17.423	818.242	619.946
393.205	17.263	817.707	618.904
394.219	17.292	817.813	619.034
395.234	17.211	817.448	618.409
396.248	17.255	816.566	617.844
397.263	17.206	816.339	617.443
398.278	17.157	816.170	617.082
399.292	17.184	815.555	616.660
400.307	17.296	814.792	616.434
401.321	17.371	814.293	616.274
402.336	17.268	814.014	615.637
403.350	17.391	813.642	615.743
404.365	17.403	813.296	615.471
405.380	17.468	812.737	615.228
406.394	17.431	812.256	614.675
407.409	17.718	811.729	615.261
408.423	17.546	811.743	614.595
409.438	17.727	811.114	614.717
410.453	17.685	810.760	614.244
411.467	17.720	810.187	613.881
412.482	17.739	809.889	613.667
413.496	17.738	809.520	613.331
414.511	17.507	809.219	612.218
415.526	17.757	808.782	612.733
416.540	17.750	807.855	611.949
417.555	17.696	807.279	611.266
418.569	17.774	806.925	611.224
419.584	17.730	806.687	610.830
420.599	17.657	806.381	610.285
421.613	106.862	1288.294	1455.214
422.628	92.076	1358.472	1455.340
