DTS Sentinel unit serial number:	SN413079Multiplexer serial number:	ORYXHardware model number:	OX4-SRSoftware version number:	ORYX F/W v4.00 Oryx Data Collector v3.7.2.0data status	okinstallation	princeton_trtdifferential loss correction	single-endedforward channel	channel 1reverse channel	N/Adate	2019/09/19time	10:10:35forward acquisition time	60.00reverse acquisition time	0.00gamma	496.2192k internal	0.2339k external	0.2339temperature offset calibration	1.0010default loss term (dB/km)	0.3790temperature slope calibration	1.0000multiplexer offset coefficient	1.0000multiplexer slope coefficient	1.0000fibre end	0.00T internal ref (°C)	23.95T ext. ref 1 (°C)	0.68T ext. ref 2 (°C)	19.75length (m)	temperature (°C)	Stokes	anti-Stokes-747.200	-200.000	-0.012	-0.245
-746.185	-32.537	-0.273	-0.153
-745.171	-9.347	-0.301	-0.202
-744.156	-200.000	-0.062	0.478
-743.142	257.696	0.098	0.170
-742.127	498.679	-0.181	0.419
-741.112	-10.585	-0.265	0.176
-740.098	57.455	-0.175	0.172
-739.083	40.087	-0.157	-0.141
-738.069	-40.543	0.318	0.165
-737.054	800.000	0.034	0.125
-736.039	150.819	-0.235	0.320
-735.025	-97.950	0.443	0.114
-734.010	189.158	-0.301	-0.452
-732.996	-138.797	-0.237	0.026
-731.981	195.072	-0.060	-0.091
-730.966	-200.000	-0.025	-0.310
-729.952	-9.412	-0.278	-0.186
-728.937	15.338	-0.300	0.236
-727.923	-25.976	0.287	0.169
-726.908	325.860	-0.055	-0.105
-725.894	-200.000	0.039	-0.170
-724.879	-14.527	-0.177	0.114
-723.864	800.000	0.050	0.141
-722.850	-200.000	0.010	0.145
-721.835	-200.000	0.023	0.120
-720.821	-38.511	-0.138	0.073
-719.806	-18.639	0.251	-0.157
-718.791	116.596	0.062	-0.076
-717.777	-200.000	-0.030	-0.199
-716.762	311.029	-0.119	-0.223
-715.748	800.000	0.030	0.098
-714.733	204.419	-0.212	-0.329
-713.718	800.000	0.048	0.156
-712.704	-55.922	-0.236	-0.106
-711.689	-200.000	0.021	-0.194
-710.675	120.833	-0.029	-0.036
-709.660	594.539	-0.066	0.164
-708.645	-200.000	0.381	0.000
-707.631	-200.000	0.010	0.088
-706.616	-47.667	0.211	-0.103
-705.602	332.348	0.113	-0.219
-704.587	-164.319	0.477	0.022
-703.572	-12.541	0.280	0.183
-702.558	-200.000	-0.013	0.143
-701.543	-124.676	-0.174	0.027
-700.529	-120.843	-0.033	-0.006
-699.514	-200.000	0.006	-0.143
-698.499	151.950	-0.154	-0.210
-697.485	271.062	-0.104	0.184
-696.470	637.923	-0.048	0.123
-695.456	-99.787	0.326	-0.082
-694.441	250.332	0.016	-0.027
-693.426	-37.029	-0.303	-0.162
-692.412	800.000	0.128	-0.457
-691.397	-43.500	-0.116	0.059
-690.383	-17.028	0.180	0.113
-689.368	-200.000	-0.052	0.308
-688.354	124.921	0.112	-0.141
-687.339	-89.438	-0.367	-0.108
-686.324	800.000	0.027	-0.112
-685.310	800.000	-0.078	0.247
-684.295	-6.494	-0.090	-0.061
-683.281	-100.465	0.251	-0.062
-682.266	800.000	-0.105	-0.420
-681.251	609.770	0.180	-0.449
-680.237	-14.461	-0.118	-0.076
-679.222	-68.574	-0.448	-0.173
-678.208	-200.000	0.045	0.240
-677.193	-200.000	-0.163	0.000
-676.178	-200.000	0.031	-0.344
-675.164	320.913	-0.137	-0.261
-674.149	27.100	-0.103	0.086
-673.135	-200.000	0.031	-0.202
-672.120	-200.000	0.017	0.211
-671.105	-114.381	0.398	-0.077
-670.091	13.888	-0.046	-0.036
-669.076	53.429	0.262	-0.251
-668.062	-125.526	-0.149	0.023
-667.047	-2.815	0.189	-0.132
-666.032	-200.000	-0.051	-0.281
-665.018	-44.200	0.159	0.080
-664.003	-127.310	-0.279	-0.041
-662.989	-110.756	0.305	-0.063
-661.974	800.000	0.100	0.296
-660.959	800.000	-0.038	-0.132
-659.945	40.028	-0.114	-0.103
-658.930	-200.000	-0.008	0.034
-657.916	-200.000	0.028	0.190
-656.901	-85.647	0.106	-0.033
-655.886	-49.604	0.217	0.103
-654.872	-13.448	-0.127	-0.082
-653.857	-200.000	-0.023	0.146
-652.843	-68.761	-0.351	0.136
-651.828	18.745	-0.171	0.137
-650.814	-200.000	0.007	0.153
-649.799	315.945	0.092	-0.174
-648.784	518.505	-0.054	0.127
-647.770	-200.000	-0.032	-0.173
-646.755	-170.360	0.370	-0.013
-645.741	-200.000	0.027	-0.388
-644.726	800.000	0.097	-0.388
-643.711	-200.000	-0.006	0.225
-642.697	311.641	0.072	0.135
-641.682	691.935	-0.064	-0.167
-640.668	-49.481	0.017	-0.008
-639.653	800.000	0.062	-0.174
-638.638	-22.285	-0.060	-0.036
-637.624	-46.471	-0.104	0.051
-636.609	800.000	0.069	-0.264
-635.595	485.505	0.063	-0.143
-634.580	41.691	-0.180	0.163
-633.565	-133.411	0.279	-0.035
-632.551	1.583	-0.311	-0.223
-631.536	-120.479	-0.074	-0.013
-630.522	147.109	0.246	0.331
-629.507	171.528	-0.202	-0.289
-628.492	-195.533	0.317	0.002
-627.478	800.000	-0.037	0.115
-626.463	374.106	0.080	-0.162
-625.449	-60.556	-0.038	-0.016
-624.434	-200.000	0.051	-0.238
-623.419	-39.179	-0.242	-0.127
-622.405	-144.970	-0.153	0.014
-621.390	-200.000	0.015	-0.259
-620.376	39.725	-0.273	-0.245
-619.361	53.795	-0.213	-0.204
-618.346	-2.747	0.274	0.191
-617.332	-108.643	-0.226	0.048
-616.317	-84.796	-0.050	0.016
-615.303	108.341	0.121	-0.144
-614.288	224.330	0.273	-0.441
-613.273	-59.893	0.028	-0.012
-612.259	800.000	0.036	-0.151
-611.244	-6.571	-0.144	-0.098
-610.230	30.399	-0.073	0.062
-609.215	19.485	-0.071	-0.057
-608.201	-200.000	0.090	0.399
-607.186	584.531	0.038	-0.092
-606.171	129.165	-0.059	0.075
-605.157	-200.000	0.050	0.259
-604.142	-39.678	-0.161	0.084
-603.128	800.000	0.077	-0.263
-602.113	134.002	0.125	-0.162
-601.098	-139.578	-0.087	0.009
-600.084	-68.610	0.320	-0.123
-599.069	-52.705	-0.156	0.072
-598.055	107.935	-0.068	-0.081
-597.040	13.418	-0.045	-0.035
-596.025	-200.000	0.025	0.256
-595.011	-95.212	0.029	-0.008
-593.996	634.845	0.112	-0.284
-592.982	99.928	0.018	-0.021
-591.967	75.588	-0.147	-0.155
-590.952	113.732	-0.160	-0.194
-589.938	-102.881	-0.231	-0.055
-588.923	289.972	0.114	-0.207
-587.909	800.000	-0.058	0.250
-586.894	338.345	0.331	-0.643
-585.879	-200.000	0.068	-0.307
-584.865	57.455	-0.091	0.089
-583.850	398.166	-0.118	0.246
-582.836	-155.064	-0.353	0.023
-581.821	-39.816	0.035	-0.018
-580.806	10.024	0.097	-0.073
-579.792	-172.621	-0.084	0.003
-578.777	-200.000	-0.029	0.141
-577.763	-63.943	0.136	-0.055
-576.748	-12.098	0.169	0.110
-575.733	-200.000	-0.038	-0.328
-574.719	170.274	0.070	0.100
-573.704	218.795	0.066	-0.105
-572.690	-97.345	0.343	0.089
-571.675	27.218	0.226	0.189
-570.661	61.667	-0.250	0.248
-569.646	-122.371	-0.215	-0.035
-568.631	247.537	-0.035	0.059
-567.617	-200.000	-0.016	-0.100
-566.602	673.667	-0.044	-0.113
-565.588	-110.218	0.265	-0.055
-564.573	-143.795	-0.232	-0.022
-563.558	10.792	0.115	-0.087
-562.544	20.984	0.274	0.221
-561.529	-200.000	-0.021	0.160
-560.515	129.170	0.219	0.278
-559.500	145.217	0.073	0.097
-558.485	61.023	-0.180	0.178
-557.471	75.242	0.225	0.236
-556.456	257.222	0.184	0.315
-555.442	658.202	0.022	0.057
-554.427	163.061	0.206	-0.288
-553.412	800.000	-0.078	0.244
-552.398	-115.323	-0.315	0.059
-551.383	-158.611	0.110	-0.006
-550.369	-109.111	-0.184	0.039
-549.354	800.000	0.066	0.230
-548.339	-107.693	-0.103	-0.022
-547.325	62.221	-0.006	0.006
-546.310	-126.252	0.326	0.048
-545.296	-25.038	-0.099	-0.059
-544.281	-124.640	0.255	-0.039
-543.266	116.231	-0.174	-0.213
-542.252	-46.515	-0.080	0.039
-541.237	-200.000	-0.011	-0.165
-540.223	0.353	0.232	-0.165
-539.208	-28.851	0.159	-0.091
-538.193	79.168	-0.186	-0.198
-537.179	-70.417	0.078	-0.029
-536.164	38.625	0.243	0.216
-535.150	-200.000	0.023	0.171
-534.135	-95.909	-0.044	-0.012
-533.121	55.429	0.105	0.101
-532.106	-119.674	-0.113	-0.020
-531.091	-32.749	0.291	0.161
-530.077	132.575	-0.128	0.165
-529.062	-113.663	-0.071	-0.014
-528.048	7.220	-0.513	0.381
-527.033	800.000	0.064	0.247
-526.018	-200.000	-0.075	0.415
-525.004	800.000	0.086	0.340
-523.989	199.435	0.104	-0.158
-522.975	-3.096	-0.180	-0.125
-521.960	-99.305	0.253	0.064
-520.945	77.924	0.130	0.138
-519.931	573.402	-0.098	-0.237
-518.916	-134.378	-0.116	-0.014
-517.902	-163.442	-0.183	-0.009
-516.887	38.142	0.159	-0.141
-515.872	13.936	0.296	-0.229
-514.858	325.671	0.122	-0.232
-513.843	38.701	0.382	0.339
-512.829	-114.409	0.199	-0.038
-511.814	-40.761	0.084	-0.043
-510.799	586.056	-0.131	0.319
-509.785	-13.173	0.190	-0.123
-508.770	13.655	-0.112	-0.086
-507.756	188.744	0.095	-0.141
-506.741	800.000	0.091	-0.292
-505.726	-69.794	0.101	-0.038
-504.712	149.133	-0.096	0.128
-503.697	474.685	-0.011	0.025
-502.683	-85.541	-0.006	0.002
-501.668	800.000	0.067	-0.252
-500.653	-200.000	0.067	0.303
-499.639	-135.207	0.289	0.035
-498.624	-50.254	-0.176	0.083
-497.610	-138.688	-0.245	0.027
-496.595	15.436	-0.131	0.102
-495.581	-2.712	0.182	-0.126
-494.566	-108.739	-0.083	-0.018
-493.551	-28.344	-0.254	-0.146
-492.537	80.321	-0.216	-0.231
-491.522	19.643	-0.353	-0.282
-490.508	-81.977	-0.079	0.026
-489.493	-168.023	-0.097	-0.004
-488.478	789.683	-0.034	0.094
-487.464	51.084	0.266	-0.251
-486.449	181.992	-0.101	0.148
-485.435	-103.314	-0.062	0.015
-484.420	-158.966	-0.128	0.007
-483.405	-200.000	0.014	-0.119
-482.391	-25.216	-0.070	0.041
-481.376	-200.000	-0.015	0.118
-480.362	-23.279	-0.069	-0.041
-479.347	-74.059	-0.176	0.063
-478.332	252.886	-0.075	0.127
-477.318	91.904	0.239	0.267
-476.303	-200.000	-0.058	0.301
-475.289	291.200	-0.135	-0.243
-474.274	-200.000	0.050	-0.513
-473.259	431.638	0.052	-0.113
-472.245	182.598	-0.070	0.103
-471.230	-101.036	-0.203	0.049
-470.216	-97.151	-0.238	0.062
-469.201	143.154	0.064	-0.085
-468.186	-65.064	0.234	-0.094
-467.172	-160.431	-0.207	-0.011
-466.157	-200.000	-0.011	-0.160
-465.143	-200.000	-0.009	-0.261
-464.128	-200.000	-0.014	-0.206
-463.113	25.442	-0.133	-0.110
-462.099	-161.175	0.157	0.008
-461.084	83.993	-0.162	-0.175
-460.070	-83.329	-0.082	0.026
-459.055	252.597	0.052	-0.088
-458.040	-110.845	-0.220	-0.045
-457.026	800.000	-0.093	-0.318
-456.011	-106.002	-0.222	-0.050
-454.997	-106.077	0.308	-0.069
-453.982	-65.249	0.116	-0.046
-452.968	-59.450	0.312	0.133
-451.953	545.016	0.070	-0.167
-450.938	-58.311	0.020	-0.009
-449.924	742.531	-0.051	0.136
-448.909	71.656	0.194	0.200
-447.895	81.048	-0.057	0.060
-446.880	800.000	-0.043	0.165
-445.865	-33.312	-0.352	-0.193
-444.851	104.528	0.116	0.135
-443.836	-68.482	-0.450	0.173
-442.822	198.409	-0.166	-0.251
-441.807	-172.442	0.168	0.005
-440.792	214.113	0.041	0.064
-439.778	-5.742	-0.218	-0.148
-438.763	-159.571	-0.142	0.008
-437.749	58.212	-0.117	-0.113
-436.734	-200.000	-0.000	-0.219
-435.719	-200.000	-0.078	0.450
-434.705	800.000	0.082	0.254
-433.690	-88.174	-0.111	-0.033
-432.676	-122.674	-0.250	0.040
-431.661	-200.000	0.000	-0.352
-430.646	-200.000	-0.006	-0.178
-429.632	-19.140	-0.177	-0.109
-428.617	97.565	0.083	0.095
-427.603	346.996	-0.061	-0.119
-426.588	-160.922	0.169	0.009
-425.573	17.479	-0.254	0.200
-424.559	-94.828	0.360	-0.097
-423.544	-109.628	-0.204	-0.042
-422.530	-200.000	-0.081	-0.367
-421.515	-71.204	-0.322	-0.120
-420.500	600.917	-0.013	-0.033
-419.486	305.042	0.112	0.206
-418.471	-200.000	-0.004	0.170
-417.457	-200.000	0.031	0.157
-416.442	-200.000	0.016	0.154
-415.428	-200.000	-0.269	0.001
-414.413	323.347	0.050	0.094
-413.398	-200.000	0.016	0.133
-412.384	193.066	0.052	-0.078
-411.369	-33.637	0.279	0.152
-410.355	800.000	0.050	0.152
-409.340	800.000	-0.136	-0.449
-408.325	338.835	-0.167	-0.322
-407.311	569.801	-0.049	0.118
-406.296	138.036	0.047	0.060
-405.282	-126.399	0.381	0.056
-404.267	-64.838	0.212	0.085
-403.252	-200.000	-0.399	-0.001
-402.238	-97.047	0.175	-0.045
-401.223	-27.246	-0.265	-0.153
-400.209	-200.000	-0.032	0.295
-399.194	72.684	-0.166	-0.172
-398.179	120.363	0.127	0.156
-397.165	-41.303	-0.148	-0.075
-396.150	-161.463	-0.150	-0.008
-395.136	-141.843	0.266	0.026
-394.121	64.525	0.030	0.030
-393.106	63.671	-0.350	-0.347
-392.092	-91.027	-0.375	0.106
-391.077	800.000	0.089	-0.279
-390.063	58.543	-0.226	-0.220
-389.048	-119.312	0.143	-0.025
-388.033	-200.000	-0.048	0.233
-387.019	100.554	0.237	-0.272
-386.004	297.591	0.207	-0.376
-384.990	-78.532	-0.098	-0.033
-383.975	-145.262	0.215	0.019
-382.960	-200.000	0.014	0.323
-381.946	-70.729	0.190	0.071
-380.931	156.343	0.209	-0.286
-379.917	-23.895	-0.278	0.165
-378.902	-54.829	-0.293	-0.131
-377.888	-64.940	0.087	-0.035
-376.873	-87.990	-0.191	-0.057
-375.858	13.458	0.171	0.131
-374.844	95.523	0.121	0.136
-373.829	-89.007	0.153	-0.045
-372.815	-200.000	0.026	0.126
-371.800	-10.891	-0.083	0.054
-370.785	-129.448	0.188	0.026
-369.771	-200.000	-0.016	-0.353
-368.756	79.331	0.153	0.163
-367.742	-200.000	0.025	0.282
-366.727	-200.000	-0.014	0.208
-365.712	-9.643	-0.125	-0.083
-364.698	319.886	-0.268	-0.503
-363.683	291.058	-0.187	0.336
-362.669	-119.696	0.199	0.034
-361.654	-200.000	0.005	-0.245
-360.639	-75.034	0.150	0.053
-359.625	-148.592	0.480	-0.039
-358.610	-194.994	0.066	-0.000
-357.596	119.413	0.254	-0.310
-356.581	-200.000	0.014	-0.199
-355.566	-153.171	0.286	0.020
-354.552	-51.847	0.242	-0.111
-353.537	-153.314	-0.243	0.017
-352.523	107.486	0.160	0.188
-351.508	-105.653	-0.207	-0.046
-350.493	276.367	-0.111	0.194
-349.479	-200.000	0.031	0.173
-348.464	-132.514	-0.225	0.029
-347.450	-186.374	0.109	-0.002
-346.435	800.000	0.167	0.458
-345.420	800.000	-0.115	-0.364
-344.406	-81.610	0.231	0.075
-343.391	-118.675	-0.133	0.023
-342.377	-43.628	-0.093	0.046
-341.362	-147.547	0.167	0.014
-340.348	116.038	0.072	0.086
-339.333	384.199	0.019	0.039
-338.318	-149.385	0.201	-0.016
-337.304	-143.789	-0.141	0.013
-336.289	62.889	-0.234	0.231
-335.275	9.974	-0.139	-0.105
-334.260	72.194	0.306	-0.314
-333.245	-68.525	0.120	-0.046
-332.231	-75.064	-0.295	-0.104
-331.216	800.000	-0.087	-0.301
-330.202	-200.000	-0.044	-0.305
-329.187	85.718	-0.309	0.336
-328.172	586.810	0.176	0.427
-327.158	241.239	0.200	0.330
-326.143	-62.936	0.300	-0.122
-325.129	88.946	0.061	0.067
-324.114	223.450	-0.206	0.328
-323.099	800.000	0.092	0.268
-322.085	-77.407	-0.241	0.082
-321.070	-129.405	-0.503	-0.069
-320.056	-85.465	-0.204	-0.063
-319.041	-55.823	0.098	-0.043
-318.026	-200.000	0.016	0.281
-317.012	239.093	-0.056	-0.092
-315.997	570.216	-0.118	-0.283
-314.983	144.045	-0.168	-0.221
-313.968	800.000	0.082	-0.292
-312.953	800.000	-0.016	-0.056
-311.939	-200.000	-0.012	0.222
-310.924	-135.531	0.160	-0.019
-309.910	800.000	0.020	0.063
-308.895	-96.900	-0.219	0.057
-307.880	130.940	0.168	-0.213
-306.866	348.712	-0.081	0.158
-305.851	260.968	0.187	-0.319
-304.837	-162.368	0.231	-0.011
-303.822	-200.000	-0.013	-0.095
-302.807	-32.024	-0.056	-0.031
-301.793	522.841	-0.079	0.184
-300.778	-11.284	-0.032	-0.021
-299.764	800.000	0.065	-0.253
-298.749	-184.773	0.183	-0.003
-297.735	-19.947	0.064	0.039
-296.720	-170.340	0.092	0.003
-295.705	-58.413	0.185	-0.079
-294.691	48.224	-0.018	0.016
-293.676	445.889	0.131	0.285
-292.662	-200.000	0.033	0.515
-291.647	-200.000	0.005	0.170
-290.632	86.428	-0.120	0.131
-289.618	13.254	0.270	-0.206
-288.603	-200.000	0.018	0.174
-287.589	-103.761	0.200	-0.046
-286.574	81.313	-0.192	-0.205
-285.559	-38.892	0.331	-0.172
-284.545	31.483	-0.028	0.024
-283.530	-39.551	-0.240	0.124
-282.516	139.317	0.082	-0.107
-281.501	-138.298	-0.021	-0.002
-280.486	59.111	0.061	-0.059
-279.472	424.114	-0.139	-0.294
-278.457	-81.122	-0.168	0.055
-277.443	-0.834	0.091	0.063
-276.428	800.000	-0.104	0.348
-275.413	-162.377	0.123	0.006
-274.399	800.000	-0.040	-0.132
-273.384	118.746	0.057	0.069
-272.370	-68.364	0.268	0.102
-271.355	315.096	0.066	-0.122
-270.340	55.525	0.186	0.177
-269.326	245.325	-0.187	-0.310
-268.311	-96.789	0.172	-0.045
-267.297	-65.775	-0.247	-0.097
-266.282	-87.917	-0.120	0.035
-265.267	-6.744	0.249	0.166
-264.253	249.846	0.146	-0.245
-263.238	313.659	-0.206	0.381
-262.224	68.127	0.325	0.327
-261.209	-19.781	0.136	0.083
-260.195	-19.140	0.384	0.235
-259.180	-60.863	-0.204	-0.085
-258.165	128.745	0.093	-0.117
-257.151	-118.636	0.192	0.033
-256.136	-91.203	-0.268	-0.076
-255.122	-200.000	0.037	-0.226
-254.107	64.778	0.138	-0.137
-253.092	705.006	-0.040	0.104
-252.078	-200.000	0.039	0.251
-251.063	236.142	-0.072	-0.117
-250.049	-31.109	0.146	0.081
-249.034	-93.208	0.384	0.105
-248.019	-160.189	-0.193	-0.010
-247.005	18.036	0.074	0.058
-245.990	-200.000	-0.011	0.176
-244.976	274.921	-0.070	0.123
-243.961	-93.499	-0.184	-0.050
-242.946	317.910	0.104	-0.194
-241.932	-200.000	0.004	0.271
-240.917	-49.303	-0.325	0.152
-239.903	93.072	0.074	-0.082
-238.888	321.531	-0.117	-0.219
-237.873	280.727	-0.039	0.069
-236.859	-200.000	-0.018	-0.235
-235.844	-118.714	0.339	0.059
-234.830	69.900	-0.174	-0.176
-233.815	-98.362	0.185	-0.047
-232.800	642.643	0.122	0.306
-231.786	800.000	0.110	0.316
-230.771	-77.023	0.132	-0.045
-229.757	-83.313	-0.128	0.040
-228.742	800.000	0.094	0.317
-227.727	-8.401	-0.200	-0.132
-226.713	800.000	0.062	0.197
-225.698	800.000	-0.070	0.211
-224.684	-200.000	0.033	-0.214
-223.669	-79.179	0.216	0.072
-222.655	-67.074	-0.086	-0.033
-221.640	-200.000	-0.011	-0.483
-220.625	186.587	-0.090	-0.132
-219.611	800.000	0.058	0.233
-218.596	-121.954	-0.113	-0.018
-217.582	132.531	-0.212	-0.269
-216.567	169.137	-0.194	0.272
-215.552	-200.000	-0.013	-0.276
-214.538	-107.027	-0.356	-0.077
-213.523	800.000	-0.061	0.195
-212.509	-200.000	0.033	0.259
-211.494	159.079	-0.096	0.131
-210.479	191.176	-0.208	0.308
-209.465	-27.626	-0.079	-0.045
-208.450	-200.000	-0.005	-0.130
-207.436	-113.424	0.195	-0.038
-206.421	406.186	0.130	0.269
-205.406	688.356	-0.072	0.184
-204.392	55.900	-0.234	0.223
-203.377	-106.781	-0.454	0.099
-202.363	-42.556	0.260	-0.130
-201.348	800.000	0.070	0.281
-200.333	-200.000	-0.036	0.188
-199.319	175.111	0.066	0.094
-198.304	165.128	-0.052	-0.073
-197.290	-94.867	0.256	0.068
-196.275	800.000	0.024	-0.095
-195.260	-111.869	-0.188	-0.037
-194.246	235.929	0.036	0.059
-193.231	800.000	-0.086	0.293
-192.217	-200.000	-0.003	0.102
-191.202	87.800	0.023	0.025
-190.187	-46.743	-0.082	0.039
-189.173	-46.528	0.252	0.121
-188.158	24.181	-0.173	-0.140
-187.144	265.417	0.114	0.196
-186.129	95.636	-0.009	-0.010
-185.114	-175.081	0.046	-0.001
-184.100	340.106	0.055	-0.105
-183.085	483.416	-0.108	-0.240
-182.071	43.927	-0.206	-0.185
-181.056	17.656	-0.164	0.128
-180.042	138.378	0.144	0.185
-179.027	-86.643	0.212	-0.064
-178.012	-200.000	-0.010	0.104
-176.998	-20.136	-0.155	0.094
-175.983	-16.195	0.229	-0.143
-174.969	-83.664	-0.119	0.037
-173.954	-123.534	-0.087	0.014
-172.939	-110.639	0.306	-0.062
-171.925	-200.000	0.024	0.159
-170.910	43.550	-0.236	-0.212
-169.896	229.112	0.130	-0.207
-168.881	-153.361	-0.223	0.015
-167.866	-70.703	0.211	0.078
-166.852	-15.327	-0.271	-0.170
-165.837	384.853	0.082	0.165
-164.823	-200.000	0.004	-0.174
-163.808	70.155	-0.222	-0.225
-162.793	-66.994	-0.205	0.079
-161.779	68.013	0.014	-0.014
-160.764	212.375	-0.209	0.323
-159.750	-23.034	0.127	0.075
-158.735	-172.179	0.115	-0.004
-157.720	153.545	0.217	0.291
-156.706	114.429	-0.222	0.265
-155.691	800.000	0.039	0.163
-154.677	82.737	-0.164	0.174
-153.662	-200.000	-0.043	0.329
-152.647	274.721	-0.087	-0.150
-151.633	-129.129	0.438	-0.060
-150.618	-54.475	-0.199	0.089
-149.604	-118.981	0.257	-0.044
-148.589	-1.598	0.204	0.141
-147.574	-84.941	-0.095	-0.029
-146.560	-200.000	-0.002	0.105
-145.545	-143.456	0.199	0.019
-144.531	88.782	-0.067	-0.073
-143.516	-167.958	-0.125	-0.005
-142.502	800.000	0.055	0.181
-141.487	-22.516	-0.359	0.213
-140.472	79.488	-0.037	-0.039
-139.458	-69.563	-0.172	0.064
-138.443	-34.315	0.296	0.159
-137.429	283.289	0.203	-0.357
-136.414	16.356	0.239	-0.185
-135.399	116.819	0.190	-0.229
-134.385	-68.186	-0.217	-0.083
-133.370	128.474	0.145	-0.181
-132.356	10.974	0.261	-0.195
-131.341	8.870	-0.059	-0.044
-130.326	-200.000	0.013	-0.168
-129.312	-133.773	0.179	-0.022
-128.297	-198.545	0.413	-0.002
-127.283	405.760	0.067	0.139
-126.268	544.133	0.082	0.193
-125.253	800.000	-0.079	0.219
-124.239	-16.273	-0.172	-0.107
-123.224	114.098	0.057	-0.068
-122.210	36.904	0.081	-0.070
-121.195	84.321	-0.246	-0.263
-120.180	-21.300	-0.130	-0.078
-119.166	800.000	-0.048	0.154
-118.151	65.183	0.091	0.090
-117.137	286.144	-0.190	-0.336
-116.122	-66.611	-0.244	0.095
-115.107	-200.000	0.001	0.207
-114.093	234.815	-0.086	0.139
-113.078	-172.537	-0.281	0.009
-112.064	-127.969	-0.181	0.025
-111.049	14.618	-0.085	0.065
-110.034	-83.172	-0.463	-0.146
-109.020	-200.000	-0.004	-0.384
-108.005	680.822	0.049	0.124
-106.991	87.614	0.066	-0.072
-105.976	-172.439	0.590	0.018
-104.962	140.456	0.158	-0.203
-103.947	-62.468	-0.283	-0.115
-102.932	-191.556	0.252	0.002
-101.918	-35.409	-0.100	0.053
-100.903	-17.567	0.109	-0.067
-99.889	584.956	0.027	0.064
-98.874	-137.290	0.204	0.023
-97.859	-110.204	0.158	0.032
-96.845	800.000	-0.038	0.122
-95.830	-200.000	-0.002	-0.045
-94.816	-200.000	-0.004	0.246
-93.801	-96.854	0.172	0.044
-92.786	-83.545	0.178	-0.056
-91.772	424.597	-0.037	0.078
-90.757	-200.000	0.069	0.438
-89.743	-53.714	-0.116	-0.052
-88.728	-169.366	0.386	-0.014
-87.713	27.965	0.276	0.227
-86.699	-82.853	0.224	0.071
-85.684	-92.488	0.122	0.033
-84.670	118.453	0.158	-0.190
-83.655	150.442	-0.165	0.220
-82.640	355.348	0.095	0.184
-81.626	-200.000	0.010	-0.230
-80.611	242.928	0.082	-0.134
-79.597	-200.000	0.080	0.490
-78.582	-66.271	0.251	-0.098
-77.567	-200.000	0.013	0.093
-76.553	5.856	0.185	0.134
-75.538	151.115	-0.085	-0.112
-74.524	491.789	-0.054	0.120
-73.509	-76.979	0.345	0.118
-72.494	253.300	-0.107	-0.178
-71.480	-38.240	0.427	0.221
-70.465	-63.364	-0.383	0.154
-69.451	-200.000	0.039	0.232
-68.436	-24.520	0.541	0.315
-67.422	106.881	-0.227	0.264
-66.407	5.473	-0.174	0.125
-65.392	-158.250	0.150	0.009
-64.378	-83.858	-0.424	-0.132
-63.363	800.000	0.113	-0.368
-62.349	-62.295	0.183	0.074
-61.334	127.933	-0.985	-1.223
-60.319	82.235	0.512	0.543
-59.305	289.027	-0.740	-1.310
-58.290	265.909	0.677	1.153
-57.276	653.855	0.513	1.284
-56.261	-200.000	121.975	615.820
-55.246	382.926	1569.816	3151.849
-54.232	140.413	2742.301	3533.427
-53.217	94.547	2183.039	2421.728
-52.203	35.644	1611.094	1381.557
-51.188	27.203	1352.942	1108.908
-50.173	24.506	1315.793	1062.393
-49.159	50.480	1382.312	1275.838
-48.144	48.020	1394.748	1272.233
-47.130	27.347	1343.018	1101.475
-46.115	24.151	1323.970	1066.703
-45.100	23.983	1319.085	1061.724
-44.086	23.927	1316.735	1059.452
-43.071	23.867	1314.620	1057.354
-42.057	23.816	1312.313	1055.154
-41.042	23.781	1310.745	1053.644
-40.027	23.876	1309.248	1052.959
-39.013	23.819	1307.536	1051.205
-37.998	23.938	1305.109	1049.915
-36.984	23.883	1303.814	1048.506
-35.969	23.999	1301.747	1047.488
-34.954	24.027	1300.349	1046.485
-33.940	23.920	1299.575	1045.190
-32.925	23.946	1298.024	1044.056
-31.911	23.936	1296.457	1042.693
-30.896	24.107	1294.794	1042.318
-29.881	23.963	1294.203	1040.959
-28.867	24.137	1292.255	1040.365
-27.852	24.185	1290.381	1039.096
-26.838	24.103	1289.614	1037.960
-25.823	24.070	1288.634	1036.937
-24.809	24.211	1286.258	1035.801
-23.794	24.048	1285.687	1034.355
-22.779	24.028	1284.039	1032.871
-21.765	24.041	1282.715	1031.839
-20.750	23.987	1281.884	1030.819
-19.736	23.875	1280.428	1028.960
-18.721	23.944	1279.167	1028.303
-17.706	23.900	1278.485	1027.460
-16.692	23.933	1277.048	1026.455
-15.677	23.998	1276.039	1025.976
-14.663	23.839	1274.972	1024.166
-13.648	23.853	1273.683	1023.169
-12.633	23.936	1272.727	1022.835
-11.619	23.796	1272.276	1021.632
-10.604	23.872	1270.929	1020.946
-9.590	23.877	1270.409	1020.513
-8.575	23.875	1268.804	1019.174
-7.560	23.875	1268.315	1018.742
-6.546	23.867	1267.467	1017.976
-5.531	23.832	1266.762	1017.168
-4.517	23.993	1265.380	1016.938
-3.502	23.981	1264.635	1016.225
-2.487	23.969	1263.806	1015.451
-1.473	23.985	1259.241	1011.835
-0.458	22.728	1244.418	992.815
0.556	18.487	1228.788	957.199
1.571	15.108	1235.928	943.670
2.586	14.308	1251.087	950.591
3.600	14.158	1238.900	940.404
4.615	10.533	1166.460	866.009
5.629	4.081	1093.770	779.580
6.644	0.916	1076.279	751.353
7.659	0.584	1074.834	748.631
8.673	0.671	1073.782	748.267
9.688	0.560	1072.526	746.775
10.702	0.938	1070.108	746.892
11.717	4.880	1074.621	769.474
12.731	11.632	1083.910	809.602
13.746	16.072	1089.000	835.378
14.761	17.177	1090.514	841.946
15.775	16.598	1088.462	837.423
16.790	15.546	1086.929	830.968
17.804	14.864	1085.144	826.162
18.819	14.467	1083.884	823.169
19.834	14.243	1083.048	821.357
20.848	13.919	1082.353	819.156
21.863	13.860	1080.684	817.533
22.877	13.624	1080.413	816.094
23.892	13.452	1079.887	814.774
24.907	13.636	1078.963	814.913
25.921	13.640	1078.167	814.260
26.936	13.743	1077.219	813.977
27.950	13.727	1076.035	812.932
28.965	13.717	1075.056	812.068
29.980	13.944	1073.334	811.808
30.994	13.913	1072.450	810.916
32.009	13.827	1072.151	810.200
33.023	13.865	1070.527	809.085
34.038	13.828	1069.632	808.154
35.053	13.648	1068.519	806.370
36.067	13.806	1067.594	806.368
37.082	13.708	1067.308	805.601
38.096	13.732	1065.735	804.462
39.111	13.804	1065.327	804.433
40.126	13.791	1063.944	803.255
41.140	13.611	1063.019	801.610
42.155	13.704	1061.862	801.118
43.169	13.612	1060.913	799.889
44.184	13.555	1059.886	798.769
45.199	13.567	1058.818	797.949
46.213	13.637	1057.732	797.399
47.228	13.746	1056.464	796.895
48.242	13.630	1055.090	795.233
49.257	13.708	1054.260	794.909
50.271	13.761	1053.078	794.202
51.286	13.668	1052.695	793.399
52.301	13.706	1051.671	792.738
53.315	13.646	1050.741	791.678
54.330	13.583	1049.483	790.363
55.344	13.620	1048.845	789.987
56.359	13.681	1047.758	789.387
57.374	13.453	1047.492	788.035
58.388	13.610	1046.029	787.607
59.403	13.460	1045.164	786.174
60.417	13.462	1044.474	785.598
61.432	13.593	1043.376	785.322
62.447	13.607	1042.825	784.905
63.461	13.491	1042.147	783.775
64.476	13.523	1040.808	782.852
65.490	13.478	1040.297	782.185
66.505	13.535	1039.268	781.609
67.520	13.635	1038.999	781.811
68.534	13.611	1038.539	781.280
69.549	13.576	1037.526	780.287
70.563	13.547	1036.750	779.496
71.578	13.544	1035.811	778.707
72.593	13.523	1034.876	777.839
73.607	13.419	1034.497	776.996
74.622	13.523	1033.688	776.809
75.636	13.410	1033.195	775.837
76.651	13.559	1031.751	775.381
77.666	13.586	1031.416	775.187
78.680	13.589	1030.761	774.643
79.695	13.615	1029.608	773.826
80.709	13.614	1029.191	773.442
81.724	13.638	1028.717	773.130
82.739	13.580	1028.093	772.323
83.753	13.648	1026.860	771.645
84.768	13.716	1026.244	771.430
85.782	13.718	1025.152	770.549
86.797	13.754	1024.246	769.966
87.812	13.622	1023.812	768.960
88.826	13.642	1022.397	767.922
89.841	13.671	1021.436	767.267
90.855	13.638	1020.711	766.500
91.870	13.765	1019.943	766.443
92.884	13.653	1019.748	765.711
93.899	13.713	1018.365	764.882
94.914	13.828	1017.316	764.556
95.928	13.676	1016.766	763.373
96.943	13.710	1015.520	762.529
97.957	13.727	1015.239	762.328
98.972	13.864	1013.597	761.658
99.987	13.695	1013.386	760.657
101.001	13.678	1012.014	759.480
102.016	13.632	1011.503	758.822
103.030	13.678	1010.681	758.345
104.045	13.772	1009.596	757.892
105.060	13.754	1008.906	757.225
106.074	13.847	1007.576	756.585
107.089	13.727	1006.760	755.359
108.103	13.655	1006.020	754.411
109.118	13.733	1004.947	753.895
110.133	13.674	1004.317	753.085
111.147	13.711	1003.448	752.536
112.162	13.720	1002.517	751.810
113.176	13.689	1001.598	750.916
114.191	13.704	1000.754	750.283
115.206	13.834	999.973	750.220
116.220	13.742	999.254	749.197
117.235	13.831	997.962	748.566
118.249	13.730	997.306	747.549
119.264	13.716	996.804	747.045
120.279	13.745	995.873	746.412
121.293	13.536	995.108	744.834
122.308	13.619	994.466	744.658
123.322	13.686	993.345	744.057
124.337	13.680	992.151	743.067
125.352	13.603	991.228	741.966
126.366	13.686	989.883	741.266
127.381	13.618	989.451	740.573
128.395	13.755	987.859	739.928
129.410	13.673	987.314	739.087
130.424	13.808	986.599	739.086
131.439	13.914	985.362	738.568
132.454	13.816	984.681	737.556
133.468	13.732	983.980	736.593
134.483	13.799	982.719	735.880
135.497	13.771	981.905	735.080
136.512	13.747	981.377	734.517
137.527	13.656	980.556	733.433
138.541	13.763	979.822	733.291
139.556	13.678	979.346	732.494
140.570	13.823	978.539	732.466
141.585	13.898	977.381	731.867
142.600	13.986	976.238	731.331
143.614	13.946	975.710	730.697
144.629	13.957	975.427	730.468
145.643	13.962	973.667	729.107
146.658	13.943	973.017	728.473
147.673	13.808	972.066	727.107
148.687	13.991	971.254	727.236
149.702	14.051	970.313	726.728
150.716	13.912	969.639	725.550
151.731	13.763	969.144	724.466
152.746	13.942	968.407	724.634
153.760	13.880	967.475	723.599
154.775	14.156	966.777	724.217
155.789	13.935	966.520	722.999
156.804	14.051	965.689	722.818
157.819	13.999	964.891	721.929
158.833	13.994	964.381	721.462
159.848	14.112	963.016	720.888
160.862	14.134	962.363	720.431
161.877	14.049	961.192	719.123
162.892	14.111	960.243	718.616
163.906	13.929	959.740	717.390
164.921	13.956	958.830	716.765
165.935	14.101	957.453	716.297
166.950	14.041	957.098	715.708
167.964	14.126	956.154	715.304
168.979	14.002	955.391	714.140
169.994	14.057	954.301	713.499
171.008	14.167	953.456	713.272
172.023	14.274	952.879	713.237
173.037	14.357	952.224	713.037
174.052	14.335	951.355	712.231
175.067	14.103	951.159	711.028
176.081	14.108	950.177	710.254
177.096	14.084	949.841	709.837
178.110	14.165	949.070	709.543
179.125	14.042	948.867	708.806
180.140	14.150	948.312	708.790
181.154	14.255	947.650	708.678
182.169	14.321	946.804	708.265
183.183	14.205	946.314	707.339
184.198	14.332	945.614	707.294
185.213	14.276	945.089	706.602
186.227	14.420	944.117	706.422
187.242	14.493	943.297	706.055
188.256	14.422	943.174	705.600
189.271	14.331	942.057	704.316
190.286	14.270	941.376	703.489
191.300	14.284	940.920	703.146
192.315	14.190	939.922	701.941
193.329	14.181	939.623	701.618
194.344	14.381	938.394	701.478
195.359	14.332	937.877	700.823
196.373	14.158	937.867	700.021
197.388	14.342	937.372	700.367
198.402	14.441	936.726	700.235
199.417	14.512	936.074	699.985
200.432	14.550	935.268	699.479
201.446	14.554	934.716	699.020
202.461	14.589	934.569	698.996
203.475	14.637	933.331	698.209
204.490	14.567	932.479	697.217
205.504	14.495	931.986	696.485
206.519	14.634	930.846	696.152
207.534	14.750	930.400	696.242
208.548	14.570	929.852	695.021
209.563	14.559	929.428	694.596
210.577	14.600	928.372	693.914
211.592	14.702	927.261	693.447
212.607	14.697	927.179	693.305
213.621	14.772	926.387	692.960
214.636	14.665	925.552	691.830
215.650	14.783	924.524	691.493
216.665	14.676	924.120	690.685
217.680	14.652	923.770	690.263
218.694	14.810	922.760	690.101
219.709	14.824	922.424	689.847
220.723	14.887	920.994	688.976
221.738	14.953	920.689	688.959
222.753	14.850	920.148	688.067
223.767	14.715	919.914	687.275
224.782	14.881	919.240	687.394
225.796	15.054	918.117	687.206
226.811	14.959	917.486	686.281
227.826	14.819	917.161	685.403
228.840	14.816	916.178	684.595
229.855	14.973	915.107	684.378
230.869	14.968	914.314	683.705
231.884	14.992	913.715	683.291
232.899	14.934	913.260	682.657
233.913	14.854	912.705	681.853
234.928	14.880	912.119	681.462
235.942	14.949	911.255	681.037
236.957	15.003	910.477	680.615
237.972	14.925	909.945	679.839
238.986	14.891	909.588	679.373
240.001	15.043	908.815	679.355
241.015	15.008	907.967	678.518
242.030	14.958	907.453	677.872
243.045	15.127	906.469	677.762
244.059	15.006	906.397	677.158
245.074	15.027	905.638	676.616
246.088	15.140	904.865	676.434
247.103	15.257	904.166	676.324
248.117	15.285	903.607	675.957
249.132	15.208	903.157	675.253
250.147	15.273	902.371	674.865
251.161	15.218	901.474	673.914
252.176	15.405	900.842	674.133
253.190	15.359	899.997	673.258
254.205	15.376	899.771	673.097
255.220	15.373	899.040	672.477
256.234	15.386	898.583	672.130
257.249	15.408	897.694	671.492
258.263	15.444	896.918	670.996
259.278	15.509	896.345	670.770
260.293	15.591	895.601	670.478
261.307	15.520	894.829	669.560
262.322	15.461	894.730	669.190
263.336	15.365	893.963	668.174
264.351	15.547	892.875	668.029
265.366	15.717	892.475	668.346
266.380	15.605	891.715	667.269
267.395	15.569	891.350	666.796
268.409	15.665	890.319	666.346
269.424	15.593	889.665	665.513
270.439	15.575	889.021	664.900
271.453	15.621	888.143	664.367
272.468	15.632	887.612	663.954
273.482	15.629	887.168	663.551
274.497	15.649	886.725	663.239
275.512	15.602	886.207	662.609
276.526	15.610	885.761	662.249
277.541	15.715	884.701	661.810
278.555	15.805	884.354	661.845
279.570	15.835	883.434	661.220
280.585	15.748	883.139	660.599
281.599	15.799	882.237	660.065
282.614	15.967	880.990	659.732
283.628	15.930	880.631	659.257
284.643	15.913	880.467	659.012
285.657	15.950	879.529	658.395
286.672	15.892	878.926	657.660
287.687	15.816	878.387	656.902
288.701	15.920	877.715	656.746
289.716	15.904	877.070	656.144
290.730	16.113	876.352	656.362
291.745	15.887	875.880	655.070
292.760	16.036	875.362	655.203
293.774	16.135	874.307	654.742
294.789	16.082	873.824	654.116
295.803	16.095	873.471	653.842
296.818	16.088	872.581	653.093
297.833	16.120	871.859	652.620
298.847	15.966	871.479	651.682
299.862	16.153	871.028	652.010
300.876	16.011	870.303	650.858
301.891	16.283	869.346	651.137
302.906	16.143	869.284	650.490
303.920	16.247	868.478	650.233
304.935	16.327	867.903	650.053
305.949	16.327	867.210	649.474
306.964	16.318	866.969	649.203
307.979	16.159	866.541	648.214
308.993	16.155	866.042	647.769
310.008	16.369	864.841	647.634
311.022	16.377	864.255	647.166
312.037	16.195	864.089	646.290
313.052	16.328	863.166	646.051
314.066	16.230	862.568	645.168
315.081	16.277	862.413	645.178
316.095	16.227	861.572	644.300
317.110	16.337	861.079	644.292
318.125	16.258	860.596	643.572
319.139	16.358	860.036	643.479
320.154	16.300	859.615	642.886
321.168	16.447	858.879	642.838
322.183	16.348	858.406	642.053
323.197	16.469	857.788	641.992
324.212	16.443	857.107	641.325
325.227	16.446	856.785	641.040
326.241	16.413	856.245	640.454
327.256	16.325	855.516	639.521
328.270	16.453	855.153	639.675
329.285	16.491	854.677	639.407
330.300	16.471	853.853	638.659
331.314	16.529	853.731	638.729
332.329	16.436	853.099	637.849
333.343	16.585	852.527	637.926
334.358	16.697	851.986	637.887
335.373	16.532	851.797	637.067
336.387	16.610	851.182	636.847
337.402	16.717	850.767	636.880
338.416	16.701	850.867	636.840
339.431	16.658	850.640	636.451
340.446	16.748	849.974	636.236
341.460	16.779	849.256	635.758
342.475	16.815	848.958	635.612
343.489	16.746	848.644	635.062
344.504	16.793	848.203	634.854
345.519	16.834	847.810	634.658
346.533	16.835	847.227	634.167
347.548	16.794	846.700	633.564
348.562	16.886	845.848	633.214
349.577	16.823	845.426	632.605
350.592	16.807	844.846	632.056
351.606	16.789	844.475	631.655
352.621	16.894	843.644	631.368
353.635	16.920	842.489	630.546
354.650	16.770	842.471	629.919
355.665	16.908	841.582	629.711
356.679	16.856	841.210	629.186
357.694	16.963	840.660	629.113
358.708	16.939	840.129	628.573
359.723	16.954	839.396	628.022
360.738	17.028	838.794	627.790
361.752	17.020	838.327	627.356
362.767	16.934	837.756	626.557
363.781	17.011	837.239	626.399
364.796	17.062	836.442	625.934
365.810	17.078	836.259	625.801
366.825	17.158	835.905	625.777
367.840	17.243	835.127	625.451
368.854	17.040	835.050	624.591
369.869	17.120	833.996	624.042
370.883	17.120	833.927	623.936
371.898	17.306	833.252	624.056
372.913	17.345	833.198	624.105
373.927	17.235	832.526	623.142
374.942	17.284	832.296	623.096
375.956	17.318	831.807	622.800
376.971	17.516	830.770	622.691
377.986	17.414	831.138	622.538
379.000	17.517	830.202	622.157
380.015	17.414	829.579	621.259
381.029	17.396	829.030	620.728
382.044	17.442	828.610	620.528
383.059	17.388	828.187	619.960
384.073	17.522	827.841	620.133
385.088	17.409	826.947	618.999
386.102	17.453	826.394	618.688
387.117	17.302	826.041	617.821
388.132	17.570	825.015	617.971
389.146	17.602	824.513	617.655
390.161	17.620	823.805	617.138
391.175	17.495	823.749	616.586
392.190	17.452	823.106	615.895
393.205	17.465	823.042	615.840
394.219	17.546	822.347	615.557
395.234	17.477	822.070	615.047
396.248	17.646	821.591	615.246
397.263	17.599	821.296	614.799
398.278	17.604	821.139	614.647
399.292	17.444	820.322	613.404
400.307	17.640	819.749	613.629
401.321	17.548	819.185	612.818
402.336	17.626	818.740	612.712
403.350	17.565	818.396	612.181
404.365	17.671	817.857	612.104
405.380	17.665	817.566	611.812
406.394	17.944	816.672	612.089
407.409	17.802	816.319	611.261
408.423	17.862	816.074	611.240
409.438	17.797	816.007	610.902
410.453	17.988	815.158	610.893
411.467	17.914	814.778	610.293
412.482	17.849	814.676	609.930
413.496	17.911	814.135	609.693
414.511	18.003	813.533	609.513
415.526	18.005	813.147	609.179
416.540	17.785	812.795	608.078
417.555	17.939	812.234	608.151
418.569	18.061	811.861	608.252
419.584	18.002	811.377	607.628
420.599	18.167	810.571	607.558
421.613	114.520	1298.764	1486.451
422.628	99.056	1369.884	1486.517
