DTS Sentinel unit serial number:	SN413079Multiplexer serial number:	ORYXHardware model number:	OX4-SRSoftware version number:	ORYX F/W v4.00 Oryx Data Collector v3.7.2.0data status	okinstallation	princeton_trtdifferential loss correction	single-endedforward channel	channel 1reverse channel	N/Adate	2019/09/12time	15:48:11forward acquisition time	60.00reverse acquisition time	0.00gamma	496.2192k internal	0.2297k external	0.2297temperature offset calibration	1.0081default loss term (dB/km)	0.3790temperature slope calibration	1.0000multiplexer offset coefficient	1.0000multiplexer slope coefficient	1.0000fibre end	0.00T internal ref (°C)	39.70T ext. ref 1 (°C)	2.47T ext. ref 2 (°C)	32.41length (m)	temperature (°C)	Stokes	anti-Stokes-747.200	-73.238	0.275	0.103
-746.185	161.833	0.231	0.331
-745.171	-61.176	0.323	0.139
-744.156	-43.281	0.058	0.030
-743.142	168.294	-0.250	0.363
-742.127	-200.000	0.027	0.127
-741.112	208.899	-0.137	0.220
-740.098	445.494	0.143	-0.321
-739.083	-24.016	-0.147	0.089
-738.069	5.299	-0.168	0.127
-737.054	-151.169	0.200	-0.015
-736.039	-9.617	-0.183	0.124
-735.025	-200.000	-0.008	-0.122
-734.010	-103.845	-0.417	0.099
-732.996	-200.000	0.000	0.068
-731.981	-174.055	0.217	-0.006
-730.966	398.995	0.020	-0.042
-729.952	-44.277	0.206	-0.105
-728.937	-200.000	0.077	0.401
-727.923	149.512	-0.133	-0.184
-726.908	60.858	0.078	0.079
-725.894	102.207	-0.029	0.035
-724.879	800.000	-0.087	-0.385
-723.864	-200.000	0.022	-0.111
-722.850	-58.964	-0.139	-0.061
-721.835	-200.000	0.002	0.607
-720.821	78.455	0.081	0.089
-719.806	-25.928	-0.138	-0.083
-718.791	91.132	-0.243	0.278
-717.777	-169.089	-0.101	-0.004
-716.762	23.540	-0.120	-0.101
-715.748	50.825	0.095	-0.092
-714.733	-106.085	0.138	0.032
-713.718	122.384	0.197	-0.252
-712.704	800.000	-0.045	0.171
-711.689	511.508	-0.139	0.329
-710.675	-42.629	0.167	0.087
-709.660	5.538	-0.098	-0.074
-708.645	193.572	0.050	0.078
-707.631	147.194	-0.155	-0.212
-706.616	333.006	-0.097	0.191
-705.602	-139.212	0.092	0.010
-704.587	-28.165	-0.171	-0.101
-703.572	-112.591	0.343	-0.070
-702.558	-119.248	-0.405	-0.072
-701.543	-65.374	0.154	0.063
-700.529	69.199	-0.108	0.113
-699.514	-42.637	-0.089	0.046
-698.499	722.575	0.028	0.077
-697.485	102.570	-0.057	0.068
-696.470	305.270	0.196	-0.371
-695.456	-133.086	0.189	-0.024
-694.441	120.049	-0.166	0.210
-693.426	366.855	-0.096	-0.197
-692.412	800.000	0.081	-0.270
-691.397	-157.147	-0.350	0.022
-690.383	-4.337	-0.074	-0.052
-689.368	-200.000	0.030	-0.232
-688.354	-109.934	-0.120	0.026
-687.339	-157.744	-0.281	-0.017
-686.324	253.298	0.091	0.159
-685.310	-47.325	-0.207	0.103
-684.295	-71.237	-0.267	-0.102
-683.281	-143.335	-0.167	0.016
-682.266	167.329	-0.068	-0.098
-681.251	-40.673	-0.570	0.301
-680.237	7.483	0.195	-0.149
-679.222	-200.000	0.009	-0.152
-678.208	58.367	-0.261	0.260
-677.193	6.302	0.244	0.184
-676.178	-200.000	0.037	0.347
-675.164	227.084	-0.138	-0.228
-674.149	-135.865	-0.209	-0.025
-673.135	-98.732	0.025	0.007
-672.120	424.593	0.036	0.080
-671.105	-164.845	-0.202	0.009
-670.091	-77.554	-0.255	0.090
-669.076	-35.219	0.140	-0.077
-668.062	-144.766	0.151	-0.014
-667.047	653.183	0.111	0.289
-666.032	114.088	-0.156	-0.193
-665.018	232.455	0.053	-0.088
-664.003	-77.205	-0.363	-0.129
-662.989	441.370	-0.161	0.359
-661.974	9.806	-0.045	0.035
-660.959	-72.961	-0.188	-0.070
-659.945	-81.383	0.243	0.082
-658.930	-147.031	-0.162	0.014
-657.916	-102.614	-0.101	0.025
-656.901	208.354	0.191	0.305
-655.886	-200.000	0.032	0.335
-654.872	4.917	-0.105	0.079
-653.857	-27.430	0.117	0.069
-652.843	-20.719	-0.182	0.114
-651.828	151.712	0.295	0.409
-650.814	65.092	-0.114	0.117
-649.799	688.649	0.159	-0.424
-648.784	11.654	0.203	-0.159
-647.770	-93.451	0.176	0.050
-646.755	-115.675	-0.241	-0.046
-645.741	73.938	-0.039	-0.042
-644.726	-200.000	0.007	0.151
-643.711	161.993	0.027	0.039
-642.697	-191.589	-0.392	-0.004
-641.682	-200.000	-0.031	-0.172
-640.668	-200.000	-0.007	-0.124
-639.653	-58.965	-0.337	-0.148
-638.638	-200.000	-0.009	-0.240
-637.624	-44.749	-0.230	0.117
-636.609	-95.058	0.175	-0.048
-635.595	317.984	-0.134	0.259
-634.580	-133.410	-0.343	-0.044
-633.565	31.271	0.230	-0.201
-632.551	7.272	0.302	-0.230
-631.536	435.089	-0.160	-0.355
-630.522	-91.830	-0.273	0.079
-629.507	800.000	0.059	0.174
-628.492	169.451	-0.124	0.180
-627.478	-157.423	0.300	0.018
-626.463	40.138	0.082	-0.075
-625.449	281.639	0.098	0.178
-624.434	-34.410	0.437	0.243
-623.419	-200.000	-0.029	-0.307
-622.405	9.944	-0.201	-0.155
-621.390	38.559	-0.099	0.090
-620.376	-74.588	-0.403	0.147
-619.361	-64.216	0.214	0.089
-618.346	37.327	-0.091	-0.082
-617.332	8.154	0.281	-0.214
-616.317	2.075	-0.047	-0.035
-615.303	-200.000	0.005	0.334
-614.288	-130.267	0.336	0.046
-613.273	-127.030	0.237	-0.035
-612.259	107.881	-0.143	-0.173
-611.244	800.000	0.121	0.383
-610.230	-133.453	-0.436	0.056
-609.215	247.005	0.103	-0.177
-608.201	86.532	0.386	0.433
-607.186	-200.000	-0.045	0.361
-606.171	98.094	-0.080	-0.093
-605.157	29.853	0.151	-0.131
-604.142	-200.000	0.023	0.123
-603.128	-200.000	-0.020	-0.118
-602.113	121.967	-0.196	-0.248
-601.098	-97.267	0.244	0.065
-600.084	-104.697	0.265	-0.062
-599.069	-200.000	0.011	-0.181
-598.055	-200.000	-0.019	0.345
-597.040	800.000	-0.040	0.141
-596.025	-97.467	0.031	-0.008
-595.011	-200.000	-0.022	-0.114
-593.996	-84.006	0.033	-0.011
-592.982	-65.263	0.089	0.036
-591.967	11.315	0.172	0.134
-590.952	-18.217	0.217	0.138
-589.938	293.381	0.097	-0.179
-588.923	-127.581	-0.211	-0.031
-587.909	12.353	0.152	0.119
-586.894	99.200	0.084	-0.098
-585.879	322.803	0.161	0.311
-584.865	-69.547	0.145	-0.056
-583.850	-200.000	-0.004	-0.122
-582.836	-200.000	0.032	-0.248
-581.821	-80.711	-0.158	0.053
-580.806	-105.624	0.196	-0.045
-579.792	212.955	0.201	-0.322
-578.777	-87.663	-0.347	0.106
-577.763	-120.721	0.173	-0.030
-576.748	-113.612	0.152	0.030
-575.733	71.025	0.131	-0.138
-574.719	23.073	0.063	0.053
-573.704	-63.405	-0.409	-0.171
-572.690	189.539	-0.207	0.315
-571.675	-200.000	-0.024	0.122
-570.661	10.351	-0.203	-0.157
-569.646	234.159	-0.138	-0.231
-568.631	-200.000	-0.043	-0.258
-567.617	-126.013	-0.168	0.026
-566.602	430.920	0.083	0.183
-565.588	621.194	-0.043	-0.109
-564.573	366.565	0.097	0.199
-563.558	27.878	0.185	-0.158
-562.544	-80.188	0.369	-0.125
-561.529	-124.553	0.361	0.057
-560.515	-131.546	-0.225	0.030
-559.500	-4.883	-0.050	0.035
-558.485	-165.240	0.172	0.008
-557.471	41.912	-0.178	0.164
-556.456	800.000	0.021	-0.079
-555.442	297.463	-0.074	-0.139
-554.427	-107.544	0.149	-0.033
-553.412	711.322	-0.017	0.046
-552.398	-118.542	0.132	0.024
-551.383	316.677	0.074	0.142
-550.369	-50.325	0.244	-0.117
-549.354	-150.896	0.132	0.010
-548.339	-85.333	-0.203	-0.064
-547.325	-102.445	-0.256	0.062
-546.310	6.801	-0.522	-0.394
-545.296	-200.000	0.064	0.362
-544.281	-200.000	0.036	0.227
-543.266	432.387	-0.098	0.216
-542.252	-200.000	0.013	0.314
-541.237	-200.000	0.034	0.186
-540.223	-11.167	-0.380	-0.254
-539.208	528.059	0.083	-0.199
-538.193	-200.000	-0.001	0.017
-537.179	60.880	0.199	-0.200
-536.164	30.285	-0.248	0.215
-535.150	-200.000	-0.034	0.187
-534.135	-34.872	0.204	-0.113
-533.121	-200.000	-0.002	-0.076
-532.106	130.664	0.125	-0.162
-531.091	-90.990	-0.209	-0.061
-530.077	75.263	-0.066	0.071
-529.062	318.409	-0.089	0.170
-528.048	-30.138	-0.410	0.236
-527.033	149.046	0.083	0.114
-526.018	360.674	-0.038	-0.076
-525.004	-1.210	0.065	0.046
-523.989	-200.000	0.000	-0.056
-522.975	120.605	0.015	-0.019
-521.960	-200.000	-0.027	0.164
-520.945	154.134	0.136	-0.188
-519.931	-60.529	0.152	-0.065
-518.916	-200.000	0.002	-0.168
-517.902	800.000	0.114	0.348
-516.887	376.669	0.172	0.356
-515.872	45.515	0.289	-0.270
-514.858	220.061	-0.104	0.168
-513.843	-200.000	0.012	0.055
-512.829	125.304	-0.232	0.296
-511.814	5.118	-0.129	0.096
-510.799	-7.422	-0.230	-0.158
-509.785	318.490	-0.087	-0.167
-508.770	800.000	0.059	-0.172
-507.756	-173.859	0.079	0.002
-506.741	800.000	0.063	-0.245
-505.726	-7.296	0.273	-0.187
-504.712	-133.145	-0.023	-0.003
-503.697	-8.503	0.134	-0.091
-502.683	-109.240	0.088	0.019
-501.668	-200.000	-0.011	-0.228
-500.653	14.275	0.274	-0.216
-499.639	-27.114	-0.360	-0.212
-498.624	26.578	-0.119	0.101
-497.610	-68.585	0.349	-0.137
-496.595	58.806	-0.216	-0.214
-495.581	7.484	0.151	0.114
-494.566	800.000	-0.070	-0.284
-493.551	-139.568	-0.166	0.018
-492.537	-10.122	-0.051	-0.034
-491.522	-200.000	0.013	0.078
-490.508	-109.237	-0.242	0.052
-489.493	-136.765	-0.444	0.052
-488.478	-160.071	0.331	-0.018
-487.464	-200.000	0.066	-0.365
-486.449	162.839	-0.119	0.169
-485.435	639.619	-0.135	-0.346
-484.420	-123.398	0.227	-0.037
-483.405	104.769	-0.075	-0.089
-482.391	-200.000	-0.043	-0.229
-481.376	-192.318	-0.324	0.003
-480.362	-41.724	0.154	-0.080
-479.347	-166.171	-0.423	-0.018
-478.332	94.520	0.222	0.255
-477.318	-200.000	0.023	0.159
-476.303	800.000	-0.077	-0.334
-475.289	-200.000	0.015	0.103
-474.274	226.935	-0.155	-0.254
-473.259	25.883	0.183	-0.154
-472.245	-70.576	-0.089	-0.034
-471.230	-9.138	-0.277	0.187
-470.216	268.991	0.123	-0.217
-469.201	800.000	0.011	-0.041
-468.186	800.000	0.047	-0.150
-467.172	-89.990	0.291	-0.086
-466.157	-32.945	-0.329	-0.185
-465.143	506.251	-0.076	-0.177
-464.128	-144.829	-0.234	-0.022
-463.113	63.403	0.166	-0.168
-462.099	118.053	0.168	-0.209
-461.084	303.176	0.207	0.387
-460.070	-121.677	0.086	0.014
-459.055	-71.340	-0.331	0.125
-458.040	-85.555	-0.108	0.034
-457.026	643.947	0.043	-0.111
-456.011	585.217	0.108	-0.269
-454.997	-49.823	-0.261	0.125
-453.982	-144.758	0.361	-0.034
-452.968	51.609	-0.135	-0.129
-451.953	-110.737	-0.104	-0.022
-450.938	800.000	-0.032	0.106
-449.924	167.003	-0.168	-0.240
-448.909	-127.905	0.346	0.050
-447.895	206.148	0.084	0.132
-446.880	474.030	-0.094	0.215
-445.865	174.350	-0.094	0.137
-444.851	288.587	0.048	0.089
-443.836	-99.992	0.118	-0.030
-442.822	-65.487	0.112	0.045
-441.807	-144.436	0.252	-0.024
-440.792	-200.000	0.034	-0.327
-439.778	66.700	0.154	0.158
-438.763	136.825	0.234	-0.308
-437.749	-124.554	-0.091	0.014
-436.734	800.000	0.013	0.038
-435.719	-200.000	0.024	0.143
-434.705	25.057	-0.040	-0.033
-433.690	50.785	0.181	0.172
-432.676	-114.747	-0.380	-0.073
-431.661	-60.729	-0.182	-0.078
-430.646	-200.000	-0.013	-0.207
-429.632	-29.861	0.206	-0.119
-428.617	289.846	-0.129	0.236
-427.603	-87.043	-0.204	0.063
-426.588	-33.112	-0.231	0.129
-425.573	-125.415	-0.262	-0.040
-424.559	371.920	0.022	0.044
-423.544	-198.810	-0.287	-0.002
-422.530	-123.963	-0.118	-0.019
-421.515	-103.303	-0.039	0.009
-420.500	-69.608	0.025	0.009
-419.486	-200.000	0.001	-0.199
-418.471	-65.200	-0.331	-0.134
-417.457	-200.000	0.046	-0.204
-416.442	-150.717	-0.149	0.011
-415.428	138.055	0.160	0.211
-414.413	-142.858	-0.214	-0.021
-413.398	328.180	0.073	-0.142
-412.384	-200.000	0.020	0.186
-411.369	800.000	-0.047	-0.202
-410.355	565.394	0.048	0.118
-409.340	-43.268	0.362	0.185
-408.325	112.252	-0.140	0.171
-407.311	-59.593	-0.147	-0.064
-406.296	-200.000	0.027	-0.401
-405.282	536.069	0.030	-0.073
-404.267	-45.424	0.234	-0.117
-403.252	-200.000	-0.051	-0.334
-402.238	-71.432	0.073	-0.028
-401.223	-200.000	-0.004	-0.087
-400.209	130.149	-0.127	0.164
-399.194	640.785	0.085	0.218
-398.179	190.275	-0.109	0.164
-397.165	11.168	-0.134	0.103
-396.150	-93.673	-0.274	0.076
-395.136	10.111	0.208	0.159
-394.121	-200.000	0.007	-0.071
-393.106	800.000	-0.067	-0.186
-392.092	800.000	-0.020	-0.065
-391.077	-83.489	0.223	-0.072
-390.063	129.411	0.078	-0.100
-389.048	-115.354	0.091	-0.017
-388.033	800.000	-0.029	0.100
-387.019	-171.698	-0.232	-0.008
-386.004	-27.205	0.076	0.045
-384.990	90.408	0.116	-0.131
-383.975	800.000	0.099	-0.295
-382.960	-104.447	-0.110	0.026
-381.946	83.815	0.053	0.058
-380.931	6.737	0.113	0.085
-379.917	-18.854	-0.141	-0.088
-378.902	390.794	-0.062	0.129
-377.888	8.453	0.103	-0.078
-376.873	-200.000	0.022	0.140
-375.858	-177.570	-0.187	0.005
-374.844	6.411	0.193	-0.144
-373.829	-200.000	0.023	-0.259
-372.815	-61.750	-0.231	0.097
-371.800	-19.642	0.085	-0.053
-370.785	-200.000	0.046	0.427
-369.771	74.682	0.089	0.095
-368.756	-140.180	-0.184	-0.019
-367.742	166.413	-0.066	-0.095
-366.727	-71.515	0.200	-0.075
-365.712	-58.329	-0.087	-0.038
-364.698	800.000	0.063	-0.188
-363.683	-9.384	-0.205	-0.137
-362.669	-200.000	0.044	-0.265
-361.654	-122.594	-0.343	0.056
-360.639	-200.000	-0.024	0.306
-359.625	155.237	-0.206	0.285
-358.610	-170.209	-0.496	-0.018
-357.596	-200.000	0.029	-0.157
-356.581	260.196	-0.082	-0.143
-355.566	-88.468	-0.149	0.045
-354.552	601.443	-0.105	0.263
-353.537	23.525	0.097	0.080
-352.523	800.000	0.150	0.557
-351.508	-54.990	-0.343	-0.155
-350.493	61.989	-0.222	0.223
-349.479	800.000	-0.049	-0.161
-348.464	101.003	0.137	0.160
-347.450	400.013	-0.083	0.176
-346.435	-143.085	-0.150	0.015
-345.420	-29.533	-0.245	-0.141
-344.406	211.422	-0.041	-0.065
-343.391	39.313	0.281	0.253
-342.377	18.371	0.317	-0.254
-341.362	800.000	0.005	0.021
-340.348	39.435	-0.141	-0.127
-339.333	44.086	-0.240	0.221
-338.318	-80.386	0.064	-0.022
-337.304	-119.021	-0.085	-0.015
-336.289	241.613	0.095	0.160
-335.275	-75.364	0.193	0.069
-334.260	17.202	0.112	0.089
-333.245	-143.760	-0.231	0.022
-332.231	-161.396	0.157	-0.008
-331.216	-116.097	-0.209	0.039
-330.202	-127.093	0.334	-0.049
-329.187	-82.546	0.172	0.056
-328.172	-147.062	0.145	-0.012
-327.158	222.394	0.140	0.226
-326.143	156.050	-0.073	0.102
-325.129	-21.391	0.186	0.114
-324.114	295.533	0.135	0.249
-323.099	42.471	0.359	0.328
-322.085	736.636	0.089	0.239
-321.070	-200.000	0.020	-0.127
-320.056	-146.536	0.098	-0.009
-319.041	-200.000	-0.028	0.478
-318.026	167.642	-0.085	0.121
-317.012	-200.000	0.002	0.230
-315.997	-200.000	-0.000	0.157
-314.983	-200.000	0.017	0.154
-313.968	-200.000	0.006	0.392
-312.953	-33.014	0.125	0.070
-311.939	645.533	0.060	0.154
-310.924	-200.000	0.002	-0.034
-309.910	55.996	0.208	0.203
-308.895	-200.000	-0.007	0.041
-307.880	-191.797	0.108	0.001
-306.866	-34.283	-0.214	-0.118
-305.851	-101.128	0.300	-0.074
-304.837	800.000	-0.051	-0.191
-303.822	-200.000	0.030	-0.222
-302.807	-127.445	-0.086	-0.012
-301.793	-30.032	0.216	-0.123
-300.778	20.832	0.224	0.183
-299.764	39.696	-0.288	-0.260
-298.749	242.504	-0.168	-0.283
-297.735	-28.768	0.087	0.050
-296.720	-23.322	0.272	-0.164
-295.705	-1.573	-0.196	0.139
-294.691	-80.706	0.311	-0.104
-293.676	-43.703	0.118	0.060
-292.662	110.504	-0.147	0.177
-291.647	124.745	-0.109	0.138
-290.632	-43.907	0.173	-0.087
-289.618	130.031	0.171	-0.220
-288.603	13.206	0.043	-0.033
-287.589	136.526	0.067	0.088
-286.574	-7.069	0.375	0.255
-285.559	197.137	0.021	-0.032
-284.545	-103.113	0.271	-0.064
-283.530	-86.907	-0.279	0.086
-282.516	-87.212	-0.308	-0.094
-281.501	-200.000	-0.038	-0.239
-280.486	139.664	0.112	-0.148
-279.472	-74.250	0.097	-0.035
-278.457	-129.954	0.322	-0.044
-277.443	48.130	-0.194	0.182
-276.428	-200.000	-0.031	-0.299
-275.413	-42.084	0.097	0.050
-274.399	-158.890	0.320	-0.018
-273.384	122.511	0.134	-0.168
-272.370	285.438	0.037	-0.066
-271.355	-200.000	-0.033	0.260
-270.340	12.129	-0.139	-0.107
-269.326	-200.000	0.011	-0.097
-268.311	387.053	0.161	-0.333
-267.297	197.227	0.257	-0.392
-266.282	-146.691	-0.108	-0.009
-265.267	-200.000	-0.030	0.269
-264.253	6.333	-0.093	0.069
-263.238	193.624	0.033	-0.050
-262.224	231.966	0.098	-0.162
-261.209	298.800	0.110	-0.203
-260.195	-61.474	-0.216	0.091
-259.180	75.082	-0.240	0.253
-258.165	-58.796	0.316	0.137
-257.151	-42.676	-0.104	0.053
-256.136	349.748	0.170	-0.336
-255.122	-63.777	-0.320	-0.131
-254.107	166.975	0.139	-0.198
-253.092	-139.714	0.063	0.007
-252.078	-25.151	0.064	0.038
-251.063	-161.001	0.296	-0.016
-250.049	-200.000	0.025	0.413
-249.034	48.871	-0.148	-0.139
-248.019	-20.258	-0.322	0.199
-247.005	50.654	-0.102	-0.097
-245.990	436.091	-0.080	-0.175
-244.976	800.000	0.093	-0.262
-243.961	132.632	-0.082	-0.106
-242.946	338.287	0.158	0.309
-241.932	-38.233	0.245	0.130
-240.917	73.023	-0.186	-0.195
-239.903	171.595	0.081	-0.116
-238.888	-200.000	0.038	-0.341
-237.873	800.000	-0.009	0.034
-236.859	-140.976	-0.220	0.023
-235.844	-88.890	0.198	-0.059
-234.830	290.688	-0.056	-0.102
-233.815	-73.890	0.183	-0.067
-232.800	197.660	-0.259	0.397
-231.786	-200.000	0.053	-0.283
-230.771	297.924	-0.078	-0.143
-229.757	362.904	-0.086	0.172
-228.742	-178.847	-0.047	0.001
-227.727	90.074	-0.271	-0.303
-226.713	142.879	-0.278	0.370
-225.698	-200.000	-0.032	0.177
-224.684	258.467	0.097	0.167
-223.669	-57.108	0.182	-0.080
-222.655	-176.172	0.221	0.006
-221.640	756.443	-0.107	0.289
-220.625	-68.612	0.146	0.057
-219.611	-77.926	-0.268	-0.093
-218.596	-13.199	0.045	0.029
-217.582	135.505	0.226	0.294
-216.567	277.260	-0.067	-0.119
-215.552	-60.891	0.283	0.120
-214.538	163.765	-0.156	0.220
-213.523	-200.000	-0.012	-0.144
-212.509	23.496	0.151	0.124
-211.494	-200.000	-0.010	0.467
-210.479	-200.000	0.014	0.322
-209.465	800.000	-0.111	0.369
-208.450	800.000	-0.038	-0.112
-207.436	-135.825	0.250	0.030
-206.421	384.831	-0.135	-0.278
-205.406	100.017	0.156	0.181
-204.392	9.383	-0.034	0.026
-203.377	281.191	-0.146	-0.261
-202.363	800.000	0.039	-0.112
-201.348	-25.783	-0.230	-0.136
-200.333	-200.000	0.007	-0.071
-199.319	800.000	-0.036	-0.154
-198.304	-200.000	-0.016	-0.196
-197.290	256.585	-0.119	0.204
-196.275	-200.000	-0.037	-0.165
-195.260	-106.755	-0.412	0.091
-194.246	-95.435	0.209	-0.056
-193.231	269.473	0.132	-0.232
-192.217	-33.840	0.057	0.031
-191.202	-200.000	-0.030	0.173
-190.187	25.027	-0.147	-0.122
-189.173	403.919	-0.076	-0.159
-188.158	65.103	-0.094	-0.095
-187.144	800.000	0.137	0.407
-186.129	17.176	0.049	0.039
-185.114	267.872	0.056	-0.097
-184.100	800.000	0.016	0.045
-183.085	50.473	-0.064	0.060
-182.071	-45.538	-0.301	0.149
-181.056	228.684	0.164	0.267
-180.042	-200.000	0.013	0.074
-179.027	-37.736	0.253	0.134
-178.012	-200.000	-0.041	0.249
-176.998	117.079	0.056	0.069
-175.983	354.239	-0.123	0.245
-174.969	129.906	-0.296	0.379
-173.954	212.815	0.130	0.205
-172.939	3.135	-0.168	-0.122
-171.925	-61.525	-0.285	-0.119
-170.910	-150.221	0.228	0.018
-169.896	-77.044	0.152	0.053
-168.881	-200.000	0.039	-0.464
-167.866	800.000	-0.014	-0.051
-166.852	-195.534	0.206	-0.002
-165.837	-96.224	0.557	-0.147
-164.823	263.131	0.107	0.185
-163.808	45.233	0.062	0.057
-162.793	-85.452	-0.128	0.040
-161.779	51.213	-0.162	0.153
-160.764	800.000	0.018	-0.070
-159.750	-80.116	-0.125	0.042
-158.735	-200.000	0.007	0.066
-157.720	30.987	-0.373	-0.319
-156.706	-200.000	-0.064	0.343
-155.691	128.707	-0.082	0.104
-154.677	-119.748	-0.335	-0.058
-153.662	-93.328	-0.105	0.029
-152.647	-45.512	0.159	-0.079
-151.633	-13.028	0.099	-0.064
-150.618	-200.000	0.028	0.145
-149.604	800.000	0.074	0.263
-148.589	-102.828	0.345	-0.082
-147.574	-200.000	0.027	0.262
-146.560	-200.000	0.073	0.325
-145.545	-140.973	0.073	0.007
-144.531	299.293	-0.083	0.153
-143.516	-58.671	0.094	-0.041
-142.502	3.030	0.132	-0.096
-141.487	-96.619	0.046	-0.012
-140.472	-11.540	0.178	0.117
-139.458	800.000	0.014	0.046
-138.443	-71.159	0.162	0.061
-137.429	800.000	0.064	-0.205
-136.414	213.767	-0.174	0.275
-135.399	-15.142	0.169	0.108
-134.385	-16.151	-0.176	0.112
-133.370	-179.716	0.504	0.011
-132.356	-200.000	-0.021	-0.197
-131.341	800.000	-0.082	-0.349
-130.326	-48.042	0.169	-0.081
-129.312	-17.731	0.087	0.054
-128.297	403.915	0.226	0.475
-127.283	-33.084	0.155	-0.086
-126.268	136.672	0.123	0.160
-125.253	-200.000	0.013	-0.154
-124.239	223.459	0.187	-0.301
-123.224	-76.888	0.187	0.065
-122.210	368.186	-0.162	0.326
-121.195	156.281	0.076	0.104
-120.180	-58.855	0.083	-0.036
-119.166	800.000	-0.021	0.087
-118.151	-200.000	-0.009	-0.137
-117.137	-16.440	-0.109	-0.069
-116.122	154.859	-0.026	-0.036
-115.107	-108.750	0.258	0.055
-114.093	-80.708	-0.096	0.032
-113.078	593.070	0.018	0.045
-112.064	-126.261	-0.131	0.020
-111.049	52.437	0.275	0.262
-110.034	800.000	-0.089	0.282
-109.020	-200.000	-0.020	-0.391
-108.005	18.359	0.168	-0.134
-106.991	57.849	0.300	0.292
-105.976	-200.000	-0.027	0.159
-104.962	164.517	0.223	-0.314
-103.947	168.077	-0.143	0.203
-102.932	259.432	-0.109	-0.188
-101.918	-94.934	-0.173	-0.047
-100.903	-42.920	-0.157	0.079
-99.889	148.269	-0.089	-0.119
-98.874	800.000	-0.088	0.329
-97.859	156.155	0.239	-0.328
-96.845	-76.571	0.089	0.031
-95.830	-87.321	0.118	0.036
-94.816	800.000	0.068	0.233
-93.801	-101.670	-0.153	-0.037
-92.786	-43.735	0.096	0.048
-91.772	69.358	-0.403	0.413
-90.757	489.614	0.146	0.332
-89.743	57.475	0.046	0.045
-88.728	-40.031	-0.030	0.016
-87.713	24.499	-0.138	-0.114
-86.699	576.597	-0.043	-0.105
-85.684	77.493	-0.169	0.179
-84.670	-69.313	0.278	-0.106
-83.655	75.065	-0.173	-0.181
-82.640	54.462	-0.081	0.077
-81.626	-178.101	-0.194	0.005
-80.611	1.384	-0.151	0.108
-79.597	177.147	0.015	0.022
-78.582	800.000	-0.026	0.075
-77.567	-79.527	0.219	0.074
-76.553	163.086	0.148	-0.207
-75.538	-200.000	-0.007	-0.244
-74.524	-81.277	0.066	0.022
-73.509	-2.040	0.140	0.098
-72.494	-77.956	0.108	-0.037
-71.480	45.026	-0.049	0.045
-70.465	-200.000	-0.025	0.245
-69.451	800.000	-0.099	-0.281
-68.436	-113.263	0.457	0.089
-67.422	629.476	0.125	-0.315
-66.407	-170.859	-0.156	-0.005
-65.392	65.112	0.172	-0.173
-64.378	800.000	0.075	-0.284
-63.363	153.174	0.160	-0.217
-62.349	452.163	-0.202	0.444
-61.334	98.691	-0.627	-0.719
-60.319	-94.834	0.478	0.129
-59.305	-200.000	-0.133	-0.684
-58.290	407.356	0.368	0.773
-57.276	623.755	0.643	1.610
-56.261	-200.000	81.419	506.477
-55.246	516.208	1339.068	3110.572
-54.232	150.281	2554.489	3446.573
-53.217	114.193	2215.631	2680.073
-52.203	50.758	1677.521	1578.842
-51.188	43.155	1411.398	1280.295
-50.173	39.810	1367.360	1219.673
-49.159	57.691	1406.643	1366.930
-48.144	63.457	1425.496	1421.243
-47.130	43.621	1385.350	1259.373
-46.115	39.899	1368.609	1221.146
-45.100	39.668	1363.915	1215.484
-44.086	39.550	1361.545	1212.603
-43.071	39.403	1359.488	1209.818
-42.057	39.493	1357.261	1208.338
-41.042	39.531	1355.397	1206.865
-40.027	39.587	1354.172	1206.069
-39.013	39.554	1352.211	1204.073
-37.998	39.637	1349.993	1202.557
-36.984	39.722	1348.559	1201.751
-35.969	39.772	1346.550	1200.215
-34.954	39.735	1344.820	1198.400
-33.940	39.819	1343.295	1197.505
-32.925	39.877	1342.114	1196.757
-31.911	39.789	1340.965	1195.150
-30.896	39.783	1338.855	1193.183
-29.881	39.755	1337.946	1192.159
-28.867	39.716	1336.408	1190.503
-27.852	39.853	1334.493	1189.576
-26.838	39.748	1333.427	1187.950
-25.823	39.723	1331.876	1186.371
-24.809	39.758	1330.366	1185.190
-23.794	39.656	1329.478	1183.736
-22.779	39.796	1327.546	1182.808
-21.765	39.832	1325.952	1181.558
-20.750	39.765	1324.638	1179.937
-19.736	39.813	1323.135	1178.840
-18.721	39.616	1322.384	1176.949
-17.706	39.650	1321.183	1176.035
-16.692	39.795	1319.707	1175.537
-15.677	39.585	1318.850	1173.481
-14.663	39.612	1317.867	1172.721
-13.648	39.655	1316.311	1171.540
-12.633	39.642	1315.787	1170.950
-11.619	39.576	1315.275	1170.061
-10.604	39.691	1314.073	1169.624
-9.590	39.619	1313.133	1168.313
-8.575	39.617	1311.936	1167.190
-7.560	39.669	1310.983	1166.603
-6.546	39.676	1310.399	1166.078
-5.531	39.641	1309.328	1164.878
-4.517	39.636	1308.745	1164.278
-3.502	39.605	1307.668	1163.094
-2.487	39.608	1306.539	1162.058
-1.473	39.572	1302.149	1157.896
-0.458	37.679	1285.668	1132.202
0.556	33.313	1264.494	1081.433
1.571	28.471	1267.117	1055.778
2.586	27.082	1282.065	1060.039
3.600	25.882	1270.847	1043.725
4.615	18.771	1194.721	942.248
5.629	7.778	1112.690	821.005
6.644	2.943	1089.656	779.450
7.659	2.427	1086.907	774.805
8.673	2.315	1085.225	772.970
9.688	2.198	1083.895	771.367
10.702	2.708	1082.454	772.845
11.717	9.176	1092.653	812.873
12.731	19.847	1108.266	878.915
13.746	25.117	1115.129	911.140
14.761	25.907	1115.326	915.233
15.775	25.762	1115.083	914.215
16.790	25.656	1114.441	913.070
17.804	25.469	1113.978	911.665
18.819	25.774	1113.064	912.378
19.834	25.807	1112.825	912.269
20.848	25.898	1112.388	912.293
21.863	25.866	1111.763	911.535
22.877	25.835	1110.719	910.445
23.892	25.828	1110.383	910.051
24.907	25.818	1109.271	909.011
25.921	25.799	1108.276	908.017
26.936	25.726	1107.151	906.646
27.950	25.658	1105.396	904.789
28.965	25.523	1103.868	902.779
29.980	25.672	1102.519	902.344
30.994	25.906	1101.381	902.506
32.009	25.861	1100.641	901.592
33.023	25.616	1099.308	899.199
34.038	25.788	1098.567	899.369
35.053	25.853	1098.123	899.254
36.067	25.780	1096.931	897.832
37.082	25.845	1096.453	897.686
38.096	26.032	1095.565	897.810
39.111	26.123	1094.669	897.451
40.126	25.844	1093.682	895.175
41.140	25.562	1091.812	892.166
42.155	25.351	1090.513	889.979
43.169	25.257	1089.544	888.646
44.184	25.417	1088.446	888.462
45.199	25.390	1087.356	887.361
46.213	25.424	1086.844	887.030
47.228	25.555	1086.136	887.023
48.242	25.673	1085.265	886.815
49.257	25.651	1084.536	886.032
50.271	25.838	1083.657	886.157
51.286	25.878	1082.854	885.616
52.301	25.893	1081.554	884.549
53.315	25.722	1081.007	883.183
54.330	25.577	1080.371	881.874
55.344	25.747	1079.691	882.073
56.359	25.690	1078.417	880.676
57.374	25.457	1077.246	878.502
58.388	25.412	1076.568	877.653
59.403	25.390	1075.857	876.887
60.417	25.289	1074.976	875.598
61.432	25.458	1074.207	875.718
62.447	25.512	1073.301	875.169
63.461	25.493	1073.023	874.770
64.476	25.607	1071.535	874.036
65.490	25.344	1070.745	872.036
66.505	25.423	1070.526	872.165
67.520	25.481	1069.894	871.855
68.534	25.264	1068.740	869.786
69.549	25.000	1067.328	867.280
70.563	25.076	1066.904	867.225
71.578	24.858	1066.032	865.384
72.593	24.928	1064.759	864.613
73.607	24.963	1064.296	864.330
74.622	25.207	1063.994	865.186
75.636	25.233	1063.815	865.091
76.651	25.258	1062.116	863.752
77.666	25.021	1061.857	862.324
78.680	25.259	1060.627	862.391
79.695	25.228	1060.439	862.017
80.709	25.410	1059.493	862.044
81.724	25.343	1058.766	861.056
82.739	25.431	1058.149	860.899
83.753	25.886	1057.085	862.134
84.768	26.116	1056.671	862.817
85.782	26.202	1055.663	862.332
86.797	25.985	1055.227	860.863
87.812	25.924	1053.877	859.395
88.826	26.037	1052.696	858.894
89.841	26.136	1051.972	858.699
90.855	26.079	1051.026	857.578
91.870	26.063	1050.021	856.606
92.884	25.922	1049.492	855.432
93.899	25.749	1048.553	853.768
94.914	26.035	1047.328	854.048
95.928	25.915	1046.203	852.491
96.943	25.720	1044.589	850.177
97.957	25.419	1043.782	848.026
98.972	25.372	1042.288	846.517
99.987	25.531	1042.287	847.188
101.001	25.690	1041.315	847.071
102.016	25.679	1040.470	846.258
103.030	25.608	1039.594	845.136
104.045	25.530	1038.272	843.623
105.060	25.349	1037.476	842.050
106.074	25.465	1036.992	842.128
107.089	25.779	1036.560	843.172
108.103	25.607	1035.717	841.607
109.118	25.558	1033.645	839.619
110.133	25.525	1032.745	838.663
111.147	25.308	1031.679	836.710
112.162	25.181	1030.756	835.296
113.176	25.360	1030.637	835.960
114.191	25.325	1029.445	834.757
115.206	25.052	1028.269	832.460
116.220	24.956	1027.847	831.599
117.235	25.138	1026.923	831.621
118.249	25.245	1025.878	831.199
119.264	25.188	1025.082	830.217
120.279	25.155	1024.254	829.320
121.293	25.093	1023.615	828.443
122.308	25.128	1022.774	827.851
123.322	25.042	1021.742	826.544
124.337	25.016	1020.073	825.002
125.352	24.429	1018.407	820.880
126.366	24.375	1017.920	820.168
127.381	25.151	1017.528	823.345
128.395	25.665	1017.283	825.430
129.410	25.779	1016.320	825.099
130.424	25.622	1015.663	823.775
131.439	25.651	1014.581	822.955
132.454	25.730	1013.272	822.185
133.468	25.645	1012.678	821.239
134.483	25.821	1012.057	821.467
135.497	25.987	1011.537	821.730
136.512	25.985	1010.522	820.821
137.527	26.054	1009.589	820.305
138.541	25.890	1008.779	818.830
139.556	26.047	1007.855	818.720
140.570	26.037	1007.158	818.037
141.585	26.043	1006.127	817.155
142.600	26.050	1004.777	816.015
143.614	26.290	1004.150	816.518
144.629	26.356	1003.675	816.360
145.643	26.136	1002.374	814.236
146.658	25.966	1000.943	812.236
147.673	25.881	1000.102	811.097
148.687	25.877	998.926	810.055
149.702	25.601	997.814	807.845
150.716	25.637	997.248	807.473
151.731	25.772	996.919	807.743
152.746	26.021	996.380	808.352
153.760	26.140	995.367	807.992
154.775	26.266	994.481	807.761
155.789	26.093	993.645	806.241
156.804	26.106	992.798	805.538
157.819	26.166	992.478	805.476
158.833	26.230	991.766	805.110
159.848	26.338	990.371	804.391
160.862	26.072	989.445	802.385
161.877	26.120	987.996	801.349
162.892	26.194	986.838	800.667
163.906	26.041	986.155	799.364
164.921	25.980	985.344	798.365
165.935	26.143	984.220	798.107
166.950	26.218	983.063	797.427
167.964	26.050	982.760	796.372
168.979	25.961	981.298	794.725
169.994	25.912	980.302	793.630
171.008	26.103	980.126	794.260
172.023	26.026	979.329	793.203
173.037	25.878	978.415	791.745
174.052	25.802	976.760	790.002
175.067	25.893	976.078	789.780
176.081	25.908	975.720	789.484
177.096	25.900	975.544	789.238
178.110	25.561	974.450	786.797
179.125	25.351	973.637	785.155
180.140	25.556	972.597	785.143
181.154	25.739	972.552	785.835
182.169	25.870	973.312	786.953
183.183	26.130	972.309	787.204
184.198	25.995	971.179	785.631
185.213	25.955	970.138	784.548
186.227	26.098	969.901	784.906
187.242	26.134	969.317	784.521
188.256	26.108	968.267	783.491
189.271	26.111	967.868	783.113
190.286	25.869	966.388	780.798
191.300	25.192	964.965	776.648
192.315	24.415	963.325	771.899
193.329	24.204	963.194	770.813
194.344	25.279	963.626	775.738
195.359	25.804	963.604	777.920
196.373	26.006	962.906	778.159
197.388	25.901	962.704	777.477
198.402	25.894	961.904	776.732
199.417	25.998	961.120	776.476
200.432	25.626	960.079	773.965
201.446	25.625	959.085	773.092
202.461	25.650	958.849	772.942
203.475	24.796	957.121	767.816
204.490	23.999	955.240	762.825
205.504	24.885	955.869	767.059
206.519	25.452	955.818	769.378
207.534	25.640	955.197	769.615
208.548	26.029	954.995	771.046
209.563	25.817	953.989	769.261
210.577	25.810	953.545	768.805
211.592	26.070	953.252	769.608
212.607	26.331	952.219	769.820
213.621	26.250	951.660	768.954
214.636	26.201	951.198	768.302
215.650	26.064	950.005	766.692
216.665	26.184	949.790	766.957
217.680	26.176	948.854	766.103
218.694	25.777	947.681	763.397
219.709	25.520	946.852	761.569
220.723	25.841	946.513	762.589
221.738	25.891	945.908	762.248
222.753	25.884	945.294	761.657
223.767	26.022	944.566	761.583
224.782	26.227	944.351	762.210
225.796	26.184	944.299	761.920
226.811	25.686	942.447	758.257
227.826	24.950	941.322	754.187
228.840	25.124	940.761	754.404
229.855	25.172	940.112	754.019
230.869	24.851	938.839	751.584
231.884	25.182	939.154	753.157
232.899	25.893	939.010	755.960
233.913	25.829	938.062	754.863
234.928	25.901	937.696	754.803
235.942	25.771	937.110	753.718
236.957	25.473	936.326	751.775
237.972	25.504	935.901	751.499
238.986	25.668	934.885	751.301
240.001	25.597	934.189	750.379
241.015	25.677	933.706	750.256
242.030	25.856	933.624	750.873
243.045	26.055	932.969	751.106
244.059	26.030	932.664	750.690
245.074	25.874	931.799	749.278
246.088	25.639	930.518	747.207
247.103	25.905	930.132	747.936
248.117	26.320	930.653	750.010
249.132	26.677	929.889	750.808
250.147	26.749	929.457	750.692
251.161	26.998	928.969	751.260
252.176	26.789	928.353	749.831
253.190	26.833	928.373	749.963
254.205	27.023	927.461	749.944
255.220	27.074	926.565	749.365
256.234	26.895	925.800	747.942
257.249	26.770	924.947	746.673
258.263	26.762	924.630	746.315
259.278	26.911	923.848	746.234
260.293	26.777	923.142	745.047
261.307	26.813	922.481	744.596
262.322	26.621	921.716	743.125
263.336	25.757	919.857	738.019
264.351	24.995	917.426	732.889
265.366	24.980	917.143	732.537
266.380	26.043	918.306	737.748
267.395	26.550	917.899	739.427
268.409	26.589	916.984	738.784
269.424	26.566	916.950	738.598
270.439	26.704	916.065	738.383
271.453	26.688	915.614	737.888
272.468	26.799	915.415	738.116
273.482	26.944	914.531	737.925
274.497	26.626	913.323	735.594
275.512	26.238	912.461	733.261
276.526	26.564	912.756	734.758
277.541	26.820	911.922	735.058
278.555	26.541	911.348	733.400
279.570	26.310	910.849	731.997
280.585	26.445	909.929	731.740
281.599	26.550	909.092	731.426
282.614	25.880	907.740	727.569
283.628	25.927	907.616	727.595
284.643	26.272	907.307	728.676
285.657	25.933	905.949	726.154
286.672	25.614	905.124	724.145
287.687	26.114	905.454	726.357
288.701	26.221	904.784	726.187
289.716	25.941	903.542	724.000
290.730	25.856	902.717	722.935
291.745	25.606	901.725	721.075
292.760	25.885	901.741	722.143
293.774	26.870	902.514	726.646
294.789	27.245	902.211	727.838
295.803	27.177	901.686	727.079
296.818	27.278	900.990	726.855
297.833	26.704	899.948	723.660
298.847	26.606	898.989	722.434
299.862	26.871	899.203	723.598
300.876	27.259	898.661	724.644
301.891	27.172	897.705	723.464
302.906	26.689	896.922	720.846
303.920	26.739	896.952	721.005
304.935	27.262	896.478	722.639
305.949	27.229	895.173	721.394
306.964	26.815	894.545	719.181
307.979	26.810	894.533	719.088
308.993	27.211	894.126	720.289
310.008	27.413	893.162	720.246
311.022	27.125	892.452	718.472
312.037	26.869	892.035	717.061
313.052	26.604	891.036	715.147
314.066	25.751	889.091	710.158
315.081	25.474	888.460	708.502
316.095	26.425	889.201	712.780
317.110	26.890	888.744	714.181
318.125	25.915	887.371	709.181
319.139	24.861	885.787	703.711
320.154	24.932	885.378	703.604
321.168	25.732	885.894	707.095
322.183	26.529	886.013	710.256
323.197	26.659	885.781	710.518
324.212	26.914	885.042	710.860
325.227	26.911	884.910	710.679
326.241	26.874	883.839	709.612
327.256	26.718	883.240	708.456
328.270	26.547	882.386	707.041
329.285	26.449	881.829	706.150
330.300	26.194	880.648	704.147
331.314	26.416	880.780	705.056
332.329	26.915	880.506	706.720
333.343	27.035	880.128	706.822
334.358	26.959	879.923	706.297
335.373	27.061	879.424	706.232
336.387	27.590	878.921	707.821
337.402	27.560	878.905	707.626
338.416	27.362	878.776	706.691
339.431	27.447	878.486	706.728
340.446	27.729	877.657	707.090
341.460	27.540	877.470	706.146
342.475	27.395	876.746	704.939
343.489	27.447	876.621	704.975
344.504	27.716	876.101	705.536
345.519	27.880	875.776	705.846
346.533	27.927	875.500	705.744
347.548	28.069	874.698	705.581
348.562	27.905	874.043	704.359
349.577	27.665	873.583	703.002
350.592	27.727	872.795	702.542
351.606	27.789	871.977	702.061
352.621	27.561	871.446	700.695
353.635	27.489	870.366	699.490
354.650	26.973	868.846	696.224
355.665	26.010	867.198	691.157
356.679	26.374	867.110	692.420
357.694	26.747	866.845	693.575
358.708	26.723	866.115	692.834
359.723	27.087	866.169	694.209
360.738	27.452	865.865	695.299
361.752	27.667	864.927	695.302
362.767	27.873	865.210	696.255
363.781	28.113	864.974	696.920
364.796	28.117	864.686	696.639
365.810	28.273	863.891	696.532
366.825	28.176	863.410	695.715
367.840	27.935	862.677	694.145
368.854	27.631	861.453	691.945
369.869	27.434	861.300	691.015
370.883	27.608	860.625	691.070
371.898	27.468	860.099	690.056
372.913	27.631	860.026	690.554
373.927	27.839	859.148	690.576
374.942	27.819	858.897	690.239
375.956	27.899	858.825	690.421
376.971	28.079	858.349	690.656
377.986	28.122	858.213	690.649
379.000	28.128	857.407	689.961
380.015	28.009	856.750	688.923
381.029	28.054	856.261	688.637
382.044	28.155	855.748	688.545
383.059	28.111	854.935	687.666
384.073	28.160	854.421	687.375
385.088	28.055	854.122	686.680
386.102	27.913	853.307	685.428
387.117	27.935	852.140	684.514
388.132	27.495	851.208	682.059
389.146	26.999	850.256	679.379
390.161	27.418	850.498	681.078
391.175	27.881	850.343	682.626
392.190	27.524	849.103	680.238
393.205	26.198	847.030	673.575
394.219	24.728	844.891	666.341
395.234	24.587	844.704	665.611
396.248	26.104	846.570	672.681
397.263	27.672	847.364	679.097
398.278	27.627	846.782	678.403
399.292	27.275	846.409	676.732
400.307	27.413	845.843	676.735
401.321	27.475	845.315	676.484
402.336	27.720	845.493	677.473
403.350	28.393	845.245	679.714
404.365	28.562	845.113	680.173
405.380	28.942	844.541	681.061
406.394	28.971	844.207	680.839
407.409	28.875	843.564	679.904
408.423	28.935	843.229	679.796
409.438	28.898	842.868	679.308
410.453	28.987	842.392	679.192
411.467	28.932	841.438	678.162
412.482	28.950	841.214	677.987
413.496	28.789	841.436	677.511
414.511	28.856	840.528	676.969
415.526	28.922	840.296	676.964
416.540	28.574	839.572	675.041
417.555	28.517	838.638	674.022
418.569	28.558	838.440	673.952
419.584	28.544	837.607	673.173
420.599	28.434	836.781	672.044
421.613	99.211	1273.800	1398.538
422.628	86.105	1337.488	1398.653
