DTS Sentinel unit serial number:	SN413079Multiplexer serial number:	ORYXHardware model number:	OX4-SRSoftware version number:	ORYX F/W v4.00 Oryx Data Collector v3.7.2.0data status	okinstallation	princeton_trtdifferential loss correction	single-endedforward channel	channel 1reverse channel	N/Adate	2019/09/18time	21:06:35forward acquisition time	60.00reverse acquisition time	0.00gamma	496.2192k internal	0.2340k external	0.2340temperature offset calibration	1.0038default loss term (dB/km)	0.3790temperature slope calibration	1.0000multiplexer offset coefficient	1.0000multiplexer slope coefficient	1.0000fibre end	0.00T internal ref (°C)	26.23T ext. ref 1 (°C)	1.08T ext. ref 2 (°C)	18.04length (m)	temperature (°C)	Stokes	anti-Stokes-747.200	-54.917	0.332	0.150
-746.185	-200.000	0.095	0.525
-745.171	-200.000	-0.054	0.336
-744.156	95.940	-0.160	-0.184
-743.142	-200.000	-0.068	0.491
-742.127	-91.933	0.166	-0.047
-741.112	-127.153	-0.319	-0.047
-740.098	-21.725	-0.291	0.177
-739.083	-5.284	-0.179	0.123
-738.069	-108.394	0.055	-0.012
-737.054	22.020	-0.201	0.164
-736.039	-200.000	-0.016	0.260
-735.025	618.264	0.056	0.140
-734.010	82.173	-0.193	-0.210
-732.996	-41.118	-0.342	0.177
-731.981	-200.000	-0.025	0.255
-730.966	40.962	-0.111	0.101
-729.952	-200.000	0.027	-0.537
-728.937	644.336	0.051	0.130
-727.923	406.261	-0.128	-0.272
-726.908	100.748	-0.190	0.222
-725.894	146.480	-0.086	0.116
-724.879	-200.000	-0.054	-0.314
-723.864	-47.593	0.183	0.089
-722.850	-87.203	-0.308	0.094
-721.835	135.038	-0.041	-0.054
-720.821	262.734	0.143	-0.248
-719.806	4.903	-0.096	0.071
-718.791	-119.605	-0.188	0.033
-717.777	800.000	-0.115	0.354
-716.762	-179.148	-0.213	0.005
-715.748	-39.234	0.193	-0.102
-714.733	73.025	0.046	-0.049
-713.718	329.614	-0.112	-0.216
-712.704	-47.706	-0.187	0.091
-711.689	-32.941	-0.145	0.081
-710.675	-193.587	0.240	-0.002
-709.660	-200.000	0.051	-0.395
-708.645	132.167	-0.216	0.278
-707.631	-200.000	-0.024	-0.190
-706.616	196.591	0.173	-0.264
-705.602	-200.000	-0.025	0.259
-704.587	-200.000	0.001	0.016
-703.572	800.000	-0.048	0.176
-702.558	-59.039	-0.087	-0.038
-701.543	-200.000	-0.001	-0.362
-700.529	191.812	-0.061	-0.093
-699.514	-200.000	0.009	-0.078
-698.499	6.701	0.194	-0.144
-697.485	-137.632	-0.077	-0.009
-696.470	144.990	0.195	-0.261
-695.456	-42.909	-0.126	-0.064
-694.441	-200.000	-0.004	-0.205
-693.426	-200.000	0.028	0.311
-692.412	-200.000	0.067	0.402
-691.397	189.746	0.064	-0.096
-690.383	800.000	-0.006	-0.019
-689.368	166.935	0.044	-0.062
-688.354	420.041	-0.086	-0.185
-687.339	289.447	0.172	-0.312
-686.324	208.495	-0.055	-0.087
-685.310	-75.812	0.323	0.115
-684.295	-92.656	-0.148	0.041
-683.281	-21.260	-0.035	-0.021
-682.266	175.857	0.061	-0.089
-681.251	64.644	-0.201	0.203
-680.237	432.424	0.207	0.450
-679.222	-2.924	-0.288	0.201
-678.208	147.704	0.175	-0.236
-677.193	62.955	-0.242	0.243
-676.178	-200.000	-0.008	0.188
-675.164	-200.000	-0.026	0.163
-674.149	-181.624	-0.221	-0.004
-673.135	635.893	-0.126	-0.319
-672.120	-76.511	-0.360	-0.127
-671.105	-5.122	-0.033	-0.023
-670.091	56.822	-0.104	0.101
-669.076	186.529	-0.213	-0.317
-668.062	-200.000	-0.024	0.150
-667.047	80.434	0.231	0.248
-666.032	800.000	-0.058	0.191
-665.018	4.008	-0.171	-0.125
-664.003	-108.437	0.148	0.032
-662.989	562.969	0.003	0.008
-661.974	-167.718	-0.166	0.007
-660.959	55.928	0.051	0.050
-659.945	-61.049	0.122	0.051
-658.930	753.837	0.039	-0.107
-657.916	149.244	-0.045	-0.061
-656.901	-126.734	0.215	0.032
-655.886	800.000	-0.092	0.267
-654.872	-94.844	-0.114	-0.031
-653.857	-88.049	0.192	0.058
-652.843	-114.299	0.489	0.094
-651.828	-200.000	-0.008	-0.073
-650.814	-43.894	0.228	-0.115
-649.799	-24.258	0.177	-0.106
-648.784	-50.537	0.393	-0.185
-647.770	358.079	0.069	-0.137
-646.755	-200.000	0.049	-0.238
-645.741	-63.388	-0.091	-0.037
-644.726	-200.000	0.008	-0.116
-643.711	-133.443	0.364	0.046
-642.697	-129.546	0.180	0.025
-641.682	-200.000	0.014	-0.221
-640.668	135.595	0.054	-0.070
-639.653	-200.000	0.012	-0.303
-638.638	57.961	0.089	0.087
-637.624	119.947	-0.204	-0.253
-636.609	265.702	0.126	-0.220
-635.595	493.339	-0.135	-0.309
-634.580	28.874	-0.300	0.254
-633.565	-150.524	-0.157	-0.012
-632.551	-200.000	0.016	0.188
-631.536	219.922	0.057	-0.091
-630.522	-19.446	-0.220	-0.136
-629.507	325.989	0.216	-0.414
-628.492	337.226	-0.042	0.081
-627.478	222.217	-0.075	0.121
-626.463	149.787	0.010	-0.014
-625.449	-200.000	-0.022	-0.142
-624.434	9.493	0.412	-0.311
-623.419	-200.000	0.012	-0.072
-622.405	-95.534	-0.062	0.017
-621.390	-200.000	-0.008	-0.045
-620.376	-112.301	0.249	0.050
-619.361	-107.384	0.234	-0.051
-618.346	406.702	-0.170	-0.358
-617.332	-18.961	-0.169	0.105
-616.317	70.982	0.171	-0.176
-615.303	-116.070	-0.101	0.019
-614.288	-178.717	0.234	0.005
-613.273	209.036	-0.111	0.174
-612.259	800.000	-0.032	0.121
-611.244	800.000	-0.046	-0.135
-610.230	772.263	0.102	-0.276
-609.215	-105.520	0.179	-0.041
-608.201	218.034	-0.313	-0.499
-607.186	-200.000	-0.018	-0.188
-606.171	-186.526	0.323	0.005
-605.157	56.268	-0.211	0.204
-604.142	-107.059	-0.044	-0.010
-603.128	206.535	0.161	0.250
-602.113	320.572	-0.100	-0.190
-601.098	-200.000	0.012	0.225
-600.084	179.426	0.215	-0.314
-599.069	-81.791	-0.164	0.054
-598.055	19.419	-0.114	0.091
-597.040	100.966	0.250	0.290
-596.025	-200.000	-0.007	0.228
-595.011	-68.122	0.026	-0.010
-593.996	20.378	-0.186	-0.150
-592.982	-98.447	-0.066	0.017
-591.967	-200.000	-0.032	-0.292
-590.952	272.387	-0.131	-0.231
-589.938	-15.114	-0.115	0.073
-588.923	-159.475	-0.161	0.009
-587.909	436.750	-0.033	0.072
-586.894	800.000	0.096	0.350
-585.879	-75.939	0.201	0.071
-584.865	325.096	-0.184	0.350
-583.850	588.702	0.104	0.255
-582.836	-112.068	0.019	0.004
-581.821	-151.196	0.187	-0.014
-580.806	-55.667	-0.050	0.022
-579.792	-110.379	-0.390	-0.081
-578.777	320.980	0.079	-0.150
-577.763	371.956	0.100	-0.203
-576.748	-200.000	0.057	-0.298
-575.733	-30.051	-0.348	-0.197
-574.719	630.256	-0.179	-0.451
-573.704	303.767	0.158	0.291
-572.690	84.683	0.136	0.148
-571.675	164.677	-0.086	0.121
-570.661	-193.836	0.211	-0.002
-569.646	-153.939	-0.099	-0.007
-568.631	800.000	-0.064	0.176
-567.617	-26.389	-0.181	0.106
-566.602	-52.770	0.199	-0.091
-565.588	-200.000	-0.038	0.217
-564.573	-83.949	-0.092	-0.029
-563.558	294.380	0.123	-0.224
-562.544	210.472	0.119	-0.187
-561.529	185.596	0.085	-0.126
-560.515	-4.710	-0.129	0.088
-559.500	800.000	-0.038	-0.110
-558.485	67.294	0.151	-0.154
-557.471	105.285	0.069	-0.081
-556.456	43.283	0.167	-0.152
-555.442	-200.000	-0.001	0.177
-554.427	-176.669	-0.193	0.005
-553.412	-112.630	0.045	0.009
-552.398	-73.742	0.050	-0.018
-551.383	-113.332	-0.103	0.020
-550.369	315.085	0.101	0.189
-549.354	153.644	0.107	0.145
-548.339	-18.756	-0.268	0.166
-547.325	-21.417	0.299	-0.181
-546.310	-97.379	0.166	0.043
-545.296	459.422	-0.115	0.254
-544.281	523.126	-0.121	-0.284
-543.266	-33.728	0.177	0.097
-542.252	-200.000	-0.082	-0.415
-541.237	-200.000	-0.007	0.119
-540.223	-200.000	0.032	0.163
-539.208	-200.000	0.004	0.101
-538.193	800.000	0.089	0.319
-537.179	-57.271	-0.397	0.174
-536.164	-127.091	0.084	-0.012
-535.150	630.320	0.058	0.146
-534.135	-107.476	-0.058	0.013
-533.121	588.430	-0.101	0.248
-532.106	-52.280	0.327	0.151
-531.091	108.868	0.068	0.081
-530.077	-19.226	-0.451	0.278
-529.062	112.447	0.185	-0.223
-528.048	241.243	0.061	-0.101
-527.033	-163.364	-0.028	0.001
-526.018	-56.292	-0.306	-0.135
-525.004	38.994	-0.223	0.198
-523.989	51.109	0.234	0.220
-522.975	-22.929	-0.080	0.048
-521.960	379.495	-0.160	-0.326
-520.945	-102.265	0.304	0.073
-519.931	-107.191	-0.227	0.050
-518.916	-200.000	-0.049	-0.277
-517.902	-118.701	-0.306	-0.054
-516.887	-135.083	0.341	-0.041
-515.872	-200.000	0.049	-0.383
-514.858	13.011	0.180	0.138
-513.843	800.000	-0.028	0.091
-512.829	289.776	0.047	-0.084
-511.814	-200.000	0.046	-0.340
-510.799	-141.799	0.340	0.034
-509.785	330.648	-0.029	0.056
-508.770	-200.000	0.011	-0.290
-507.756	-142.428	-0.193	0.019
-506.741	-200.000	-0.002	0.258
-505.726	-179.706	0.144	-0.003
-504.712	-200.000	-0.016	-0.287
-503.697	459.424	-0.134	-0.296
-502.683	118.516	0.064	0.079
-501.668	-200.000	-0.007	-0.440
-500.653	303.198	0.138	-0.253
-499.639	348.659	0.144	-0.281
-498.624	-5.394	0.384	0.262
-497.610	207.498	0.079	-0.123
-496.595	-200.000	-0.040	-0.387
-495.581	-63.417	-0.055	0.023
-494.566	-150.088	-0.406	0.031
-493.551	206.795	-0.079	-0.122
-492.537	202.198	-0.158	0.241
-491.522	255.089	-0.050	-0.084
-490.508	271.026	0.113	0.197
-489.493	-63.122	-0.181	-0.074
-488.478	-87.014	-0.198	0.060
-487.464	-200.000	0.011	0.160
-486.449	67.883	0.094	0.095
-485.435	317.269	0.088	0.166
-484.420	800.000	0.047	-0.137
-483.405	-74.524	0.201	-0.072
-482.391	-83.983	0.151	-0.048
-481.376	-200.000	0.108	-0.486
-480.362	-68.027	0.221	0.086
-479.347	-0.325	-0.138	-0.097
-478.332	172.865	-0.046	-0.066
-477.318	-99.897	-0.126	0.031
-476.303	800.000	-0.043	-0.134
-475.289	-200.000	0.023	0.451
-474.274	193.374	-0.109	0.164
-473.259	98.093	-0.128	0.146
-472.245	-60.503	-0.055	0.023
-471.230	-134.891	-0.299	-0.036
-470.216	800.000	-0.087	0.254
-469.201	-200.000	0.024	-0.319
-468.186	565.816	0.147	-0.354
-467.172	266.779	-0.055	-0.096
-466.157	-70.385	0.283	-0.106
-465.143	-18.882	-0.027	-0.016
-464.128	800.000	0.045	0.181
-463.113	512.921	0.042	-0.097
-462.099	-48.295	0.127	-0.061
-461.084	-133.449	-0.188	-0.023
-460.070	-62.753	-0.205	-0.084
-459.055	-128.082	0.336	0.048
-458.040	792.179	-0.032	0.086
-457.026	576.083	-0.233	0.565
-456.011	-29.783	-0.091	0.052
-454.997	-174.615	0.106	0.003
-453.982	36.986	0.171	-0.150
-452.968	-132.411	0.302	-0.039
-451.953	-112.025	0.348	-0.069
-450.938	12.020	-0.370	-0.282
-449.924	-124.827	-0.470	0.072
-448.909	-23.841	0.158	0.093
-447.895	-127.307	0.038	0.005
-446.880	93.620	-0.138	0.155
-445.865	116.758	0.166	0.202
-444.851	56.324	0.249	0.239
-443.836	-18.756	-0.182	-0.112
-442.822	-48.391	-0.227	0.108
-441.807	-200.000	0.015	-0.170
-440.792	89.927	0.133	-0.147
-439.778	-200.000	0.046	-0.288
-438.763	67.594	0.158	-0.160
-437.749	-45.153	0.289	0.142
-436.734	-41.825	0.194	0.098
-435.719	-200.000	0.019	0.193
-434.705	57.963	0.174	-0.168
-433.690	-106.140	0.278	0.062
-432.676	800.000	-0.035	-0.101
-431.661	-167.185	0.077	0.003
-430.646	-200.000	-0.046	-0.316
-429.632	9.600	-0.141	-0.106
-428.617	800.000	-0.115	-0.391
-427.603	-200.000	-0.066	0.318
-426.588	-200.000	0.002	0.364
-425.573	800.000	0.078	-0.219
-424.559	662.074	-0.049	0.125
-423.544	56.455	-0.109	0.105
-422.530	-127.713	0.075	-0.011
-421.515	800.000	-0.104	0.348
-420.500	132.908	0.150	0.192
-419.486	-144.397	0.349	-0.032
-418.471	-64.100	-0.213	-0.086
-417.457	-100.314	0.143	0.035
-416.442	391.691	-0.087	-0.178
-415.428	66.156	-0.278	-0.279
-414.413	97.605	0.128	-0.146
-413.398	524.282	-0.074	-0.171
-412.384	64.444	-0.277	0.276
-411.369	178.933	0.101	-0.146
-410.355	-200.000	-0.008	0.262
-409.340	618.053	0.064	-0.160
-408.325	138.054	-0.265	-0.344
-407.311	-200.000	-0.092	-0.440
-406.296	98.064	-0.046	-0.053
-405.282	227.501	-0.134	-0.215
-404.267	800.000	-0.076	0.214
-403.252	-132.272	-0.453	-0.058
-402.238	17.629	-0.234	-0.184
-401.223	800.000	-0.045	0.155
-400.209	-15.229	-0.127	0.081
-399.194	21.977	-0.533	0.430
-398.179	-160.356	0.274	0.015
-397.165	-200.000	-0.036	0.185
-396.150	148.934	0.101	-0.135
-395.136	651.067	-0.067	0.169
-394.121	-51.163	-0.074	0.034
-393.106	-136.748	0.138	-0.016
-392.092	61.883	0.105	-0.104
-391.077	800.000	0.110	0.415
-390.063	316.472	0.023	-0.044
-389.048	-128.903	0.128	0.018
-388.033	-23.305	0.184	0.109
-387.019	-168.195	-0.605	-0.023
-386.004	126.686	-0.078	0.098
-384.990	61.228	-0.152	-0.149
-383.975	-91.310	-0.248	-0.070
-382.960	800.000	0.072	0.289
-381.946	127.593	-0.077	-0.097
-380.931	800.000	0.121	0.362
-379.917	-200.000	-0.025	-0.171
-378.902	404.449	0.051	-0.106
-377.888	-200.000	-0.104	0.561
-376.873	59.731	0.236	-0.230
-375.858	-39.991	0.112	-0.058
-374.844	-200.000	0.019	-0.153
-373.829	315.317	-0.116	0.216
-372.815	800.000	0.073	0.234
-371.800	22.058	-0.302	-0.244
-370.785	-200.000	0.011	0.057
-369.771	-108.910	-0.389	-0.082
-368.756	-86.130	0.065	-0.020
-367.742	-158.853	0.400	-0.023
-366.727	800.000	0.118	-0.398
-365.712	-65.596	0.143	0.057
-364.698	-42.422	-0.406	-0.205
-363.683	342.750	-0.061	0.117
-362.669	-146.086	0.455	0.040
-361.654	-200.000	-0.010	0.065
-360.639	-200.000	-0.014	-0.091
-359.625	-41.590	-0.207	-0.105
-358.610	142.986	0.059	-0.077
-357.596	-161.550	0.109	0.006
-356.581	18.658	0.295	0.233
-355.566	166.348	-0.042	0.059
-354.552	-200.000	-0.041	-0.223
-353.537	604.399	-0.134	0.330
-352.523	-200.000	-0.089	0.466
-351.508	-27.926	0.330	-0.189
-350.493	-200.000	-0.008	0.055
-349.479	149.025	-0.078	0.104
-348.464	-128.645	-0.382	-0.053
-347.450	5.857	0.191	-0.139
-346.435	-100.051	0.133	-0.033
-345.420	-200.000	0.013	-0.228
-344.406	-41.520	-0.063	0.032
-343.391	63.723	-0.042	0.042
-342.377	-143.330	0.311	0.029
-341.362	-200.000	0.051	0.274
-340.348	-173.734	0.081	-0.002
-339.333	40.888	0.121	0.108
-338.318	-68.754	-0.402	-0.153
-337.304	-46.638	-0.148	-0.072
-336.289	20.743	-0.252	0.202
-335.275	-200.000	-0.014	-0.241
-334.260	800.000	-0.025	0.079
-333.245	140.480	-0.142	0.185
-332.231	-71.004	-0.137	-0.051
-331.216	-200.000	-0.035	-0.181
-330.202	-111.643	-0.257	0.051
-329.187	-162.430	0.619	-0.030
-328.172	110.036	-0.185	-0.219
-327.158	118.884	-0.165	0.201
-326.143	-39.791	0.162	-0.084
-325.129	-200.000	0.010	0.107
-324.114	800.000	0.076	-0.269
-323.099	-200.000	0.004	0.159
-322.085	83.377	0.119	0.128
-321.070	78.995	-0.091	-0.096
-320.056	-48.894	0.050	-0.024
-319.041	-125.505	-0.304	0.046
-318.026	-200.000	-0.066	-0.381
-317.012	93.664	0.113	0.126
-315.997	-82.487	-0.281	0.090
-314.983	800.000	0.032	-0.096
-313.968	-200.000	-0.006	-0.043
-312.953	312.112	0.201	-0.372
-311.939	800.000	0.058	0.164
-310.924	800.000	-0.124	0.367
-309.910	-115.274	-0.507	-0.094
-308.895	204.403	0.241	0.369
-307.880	-200.000	0.010	0.243
-306.866	-150.792	0.074	0.006
-305.851	-77.049	-0.150	-0.052
-304.837	-200.000	0.020	0.235
-303.822	319.565	-0.077	0.144
-302.807	56.935	-0.192	0.184
-301.793	106.728	-0.157	-0.183
-300.778	33.706	0.325	0.278
-299.764	10.422	-0.221	0.166
-298.749	-200.000	0.002	-0.129
-297.735	66.098	-0.219	-0.219
-296.720	537.791	-0.113	0.265
-295.705	-46.242	0.306	0.148
-294.691	-15.317	0.164	-0.104
-293.676	-200.000	0.061	0.322
-292.662	27.745	0.050	-0.042
-291.647	-200.000	0.060	0.409
-290.632	-200.000	-0.015	-0.203
-289.618	-200.000	0.036	-0.184
-288.603	-112.246	-0.232	-0.046
-287.589	-159.263	-0.113	0.006
-286.574	-45.098	0.145	0.071
-285.559	-146.937	-0.133	0.011
-284.545	278.059	-0.187	0.328
-283.530	-171.828	0.226	0.007
-282.516	-116.991	0.218	-0.039
-281.501	271.668	0.114	0.198
-280.486	800.000	0.193	0.557
-279.472	-63.114	-0.285	0.116
-278.457	451.229	-0.170	0.371
-277.443	-60.546	0.034	0.014
-276.428	-73.899	0.603	-0.215
-275.413	-200.000	0.027	0.170
-274.399	800.000	0.082	0.227
-273.384	759.541	0.065	0.173
-272.370	-114.820	-0.160	0.030
-271.355	-100.445	-0.396	-0.097
-270.340	-113.957	-0.142	-0.027
-269.326	12.995	0.113	0.086
-268.311	800.000	0.084	0.272
-267.297	226.203	-0.030	0.048
-266.282	-168.679	0.172	0.006
-265.267	-119.293	0.566	0.097
-264.253	800.000	-0.025	0.097
-263.238	-97.303	-0.255	0.065
-262.224	110.027	0.217	0.256
-261.209	800.000	0.028	0.096
-260.195	800.000	0.095	-0.385
-259.180	-17.585	-0.091	0.056
-258.165	110.082	-0.075	0.089
-257.151	-97.682	-0.186	0.048
-256.136	-183.939	-0.297	0.005
-255.122	-194.445	0.171	-0.001
-254.107	-200.000	0.043	0.380
-253.092	145.893	-0.164	0.216
-252.078	800.000	0.123	0.402
-251.063	388.472	0.016	0.033
-250.049	-97.705	0.215	-0.055
-249.034	-153.458	0.113	0.008
-248.019	-132.784	0.179	0.022
-247.005	-26.464	-0.090	0.052
-245.990	-21.592	0.090	0.054
-244.976	106.918	-0.118	0.138
-243.961	800.000	-0.113	0.328
-242.946	32.907	0.313	-0.266
-241.932	-106.058	-0.221	0.049
-240.917	-63.286	-0.082	-0.033
-239.903	25.624	-0.141	0.115
-238.888	87.787	0.079	-0.086
-237.873	264.015	0.155	-0.265
-236.859	115.513	-0.163	-0.196
-235.844	-53.646	0.040	-0.018
-234.830	4.056	0.255	0.183
-233.815	-6.098	-0.360	-0.242
-232.800	70.179	0.206	0.209
-231.786	47.199	-0.301	-0.275
-230.771	-143.863	-0.144	-0.013
-229.757	-200.000	-0.002	0.025
-228.742	-200.000	0.001	-0.059
-227.727	377.729	-0.087	0.175
-226.713	132.980	0.079	-0.101
-225.698	-135.082	-0.263	0.031
-224.684	329.606	0.085	0.160
-223.669	92.907	0.386	0.428
-222.655	362.195	-0.066	0.130
-221.640	-200.000	-0.023	-0.105
-220.625	800.000	-0.064	0.190
-219.611	-23.166	0.470	0.278
-218.596	-103.972	0.086	-0.020
-217.582	-68.743	-0.385	-0.146
-216.567	133.540	-0.078	0.100
-215.552	193.279	0.171	0.255
-214.538	45.364	-0.140	0.127
-213.523	-87.392	-0.177	-0.053
-212.509	113.221	0.105	-0.126
-211.494	48.513	-0.164	-0.151
-210.479	-200.000	-0.035	-0.190
-209.465	-10.897	-0.059	0.038
-208.450	105.553	0.020	0.023
-207.436	31.546	-0.258	0.218
-206.421	-36.558	-0.033	-0.018
-205.406	140.980	0.088	0.114
-204.392	-200.000	0.032	0.251
-203.377	-111.139	0.250	-0.050
-202.363	208.501	0.112	-0.172
-201.348	-77.125	-0.142	-0.048
-200.333	-140.464	-0.583	0.060
-199.319	800.000	-0.055	0.184
-198.304	-89.573	0.301	0.087
-197.290	-96.048	0.248	-0.065
-196.275	-200.000	-0.067	-0.404
-195.260	-96.530	-0.580	-0.150
-194.246	-110.269	0.318	0.065
-193.231	199.045	-0.071	-0.106
-192.217	56.100	-0.129	0.123
-191.202	800.000	-0.075	-0.231
-190.187	327.616	0.072	-0.135
-189.173	-200.000	0.008	-0.047
-188.158	-200.000	-0.018	-0.422
-187.144	467.649	0.032	0.071
-186.129	76.042	0.108	0.112
-185.114	-153.970	0.103	0.007
-184.100	288.594	0.079	0.139
-183.085	-27.916	0.263	0.149
-182.071	179.104	0.118	-0.169
-181.056	-117.498	0.235	0.042
-180.042	-96.643	0.121	0.031
-179.027	338.567	-0.136	-0.260
-178.012	78.241	-0.129	-0.135
-176.998	-94.704	-0.582	-0.155
-175.983	69.829	0.156	-0.158
-174.969	-128.162	0.177	-0.025
-173.954	1.144	-0.095	-0.067
-172.939	47.665	0.079	-0.072
-171.925	800.000	0.025	0.069
-170.910	-200.000	0.001	0.014
-169.896	91.829	0.055	0.061
-168.881	-200.000	-0.032	-0.294
-167.866	6.294	0.100	-0.073
-166.852	-200.000	-0.020	-0.233
-165.837	-63.601	-0.059	-0.024
-164.823	-108.682	0.067	-0.014
-163.808	7.359	-0.041	0.030
-162.793	-48.067	0.256	0.121
-161.779	-39.786	-0.310	0.159
-160.764	-73.846	0.367	-0.131
-159.750	-200.000	-0.027	-0.170
-158.735	94.795	-0.096	-0.107
-157.720	-79.598	-0.133	-0.044
-156.706	-80.086	0.244	0.080
-155.691	-167.568	0.069	-0.003
-154.677	113.005	0.174	0.207
-153.662	-98.127	-0.099	0.025
-152.647	-85.957	0.401	-0.121
-151.633	-35.963	-0.216	-0.115
-150.618	-122.891	0.296	0.047
-149.604	3.707	0.066	-0.047
-148.589	-200.000	-0.120	-0.624
-147.574	-200.000	-0.075	-0.375
-146.560	-168.102	-0.085	-0.003
-145.545	-46.093	-0.331	-0.160
-144.531	561.294	-0.133	0.314
-143.516	677.162	0.056	0.143
-142.502	-47.288	-0.125	-0.059
-141.487	-56.978	0.248	-0.107
-140.472	800.000	0.079	-0.245
-139.458	317.701	0.120	-0.222
-138.443	410.637	0.092	0.192
-137.429	193.660	-0.128	0.189
-136.414	6.615	-0.075	-0.054
-135.399	261.201	0.035	-0.059
-134.385	-120.561	-0.016	-0.003
-133.370	-71.561	-0.219	-0.080
-132.356	-170.236	-0.227	-0.008
-131.341	-79.894	0.186	-0.061
-130.326	-200.000	-0.039	0.264
-129.312	-89.838	0.338	0.097
-128.297	-120.035	-0.144	-0.024
-127.283	-57.960	0.069	0.030
-126.268	416.172	0.145	0.303
-125.253	161.001	0.018	-0.024
-124.239	-200.000	-0.047	-0.303
-123.224	-92.844	0.196	-0.053
-122.210	350.543	0.073	-0.140
-121.195	-200.000	0.077	-0.391
-120.180	-96.579	0.154	-0.040
-119.166	-21.265	-0.339	0.203
-118.151	55.981	-0.130	0.123
-117.137	-200.000	0.021	-0.192
-116.122	265.863	0.132	0.226
-115.107	-200.000	-0.006	0.226
-114.093	-200.000	0.000	0.049
-113.078	137.816	-0.231	0.295
-112.064	-200.000	-0.038	0.296
-111.049	-118.516	-0.115	-0.020
-110.034	75.998	0.150	0.155
-109.020	-67.681	-0.212	0.081
-108.005	47.152	0.146	0.133
-106.991	-135.636	0.223	0.026
-105.976	800.000	0.079	0.255
-104.962	-200.000	0.020	-0.105
-103.947	243.702	0.247	0.405
-102.932	705.706	-0.095	0.245
-101.918	23.576	-0.213	0.171
-100.903	239.548	0.071	-0.115
-99.889	-200.000	-0.033	0.236
-98.874	61.287	-0.220	-0.213
-97.859	154.010	0.064	-0.086
-96.845	47.606	0.046	0.042
-95.830	-47.442	0.071	-0.034
-94.816	327.920	0.104	-0.195
-93.801	-37.243	0.263	0.137
-92.786	800.000	0.094	0.255
-91.772	-31.494	-0.197	-0.108
-90.757	-190.899	-0.059	-0.001
-89.743	97.754	-0.055	0.062
-88.728	42.501	-0.192	-0.170
-87.713	-180.809	0.128	0.003
-86.699	-150.411	-0.320	-0.024
-85.684	177.874	0.096	0.137
-84.670	-152.145	0.318	0.023
-83.655	356.246	0.065	0.126
-82.640	800.000	0.058	-0.165
-81.626	72.294	-0.131	0.133
-80.611	471.971	-0.021	-0.046
-79.597	-44.971	0.298	-0.145
-78.582	74.112	-0.163	-0.167
-77.567	440.841	-0.058	0.124
-76.553	-112.096	0.380	-0.075
-75.538	-50.166	-0.134	-0.062
-74.524	-200.000	0.017	0.170
-73.509	138.274	0.169	0.217
-72.494	223.479	-0.096	0.152
-71.480	-176.016	0.173	0.004
-70.465	640.702	-0.095	0.237
-69.451	-37.285	0.275	0.143
-68.436	8.762	-0.177	0.131
-67.422	308.436	0.103	0.189
-66.407	-198.314	-0.081	-0.000
-65.392	-1.719	-0.111	-0.076
-64.378	-132.736	-0.117	-0.015
-63.363	-39.856	0.174	0.089
-62.349	596.149	0.073	-0.176
-61.334	18.013	-1.236	-0.962
-60.319	8.432	0.910	0.668
-59.305	271.260	-0.780	-1.341
-58.290	316.800	0.839	1.547
-57.276	800.000	0.367	1.567
-56.261	-200.000	118.858	623.671
-55.246	423.037	1526.487	3199.979
-54.232	148.639	2679.108	3532.210
-53.217	98.613	2128.060	2394.799
-52.203	37.241	1572.045	1358.675
-51.188	29.649	1317.599	1093.977
-50.173	26.770	1279.495	1045.718
-49.159	51.043	1343.335	1242.630
-48.144	49.404	1356.210	1244.772
-47.130	29.458	1307.468	1084.270
-46.115	26.477	1288.393	1051.120
-45.100	26.177	1283.991	1045.751
-44.086	26.181	1281.054	1043.343
-43.071	25.918	1279.322	1040.369
-42.057	26.058	1276.764	1039.056
-41.042	26.075	1275.196	1037.838
-40.027	26.067	1273.742	1036.563
-39.013	26.133	1271.994	1035.483
-37.998	26.134	1270.673	1034.370
-36.984	26.253	1268.250	1033.037
-35.969	26.209	1266.618	1031.414
-34.954	26.195	1265.488	1030.377
-33.940	26.331	1263.500	1029.488
-32.925	26.252	1262.572	1028.241
-31.911	26.168	1261.289	1026.681
-30.896	26.252	1260.092	1026.144
-29.881	26.442	1258.096	1025.552
-28.867	26.385	1256.975	1024.276
-27.852	26.391	1255.534	1023.094
-26.838	26.355	1254.368	1021.901
-25.823	26.131	1253.762	1020.099
-24.809	26.227	1251.915	1019.100
-23.794	26.390	1250.351	1018.706
-22.779	26.426	1249.296	1018.008
-21.765	26.269	1248.131	1016.133
-20.750	26.298	1247.069	1015.392
-19.736	26.316	1245.115	1013.862
-18.721	26.148	1244.380	1012.281
-17.706	26.204	1243.052	1011.472
-16.692	26.284	1241.634	1010.730
-15.677	26.224	1240.918	1009.770
-14.663	26.313	1239.765	1009.285
-13.648	26.189	1238.980	1007.914
-12.633	26.088	1237.980	1006.501
-11.619	26.204	1237.278	1006.533
-10.604	26.148	1236.322	1005.404
-9.590	26.211	1234.904	1004.565
-8.575	26.067	1234.325	1003.250
-7.560	26.197	1233.159	1002.989
-6.546	26.259	1232.252	1002.552
-5.531	26.104	1231.979	1001.431
-4.517	26.200	1231.257	1001.337
-3.502	26.210	1230.243	1000.528
-2.487	26.260	1228.679	999.491
-1.473	26.034	1224.789	995.041
-0.458	23.958	1209.079	970.922
0.556	19.264	1192.212	929.909
1.571	14.850	1198.297	910.580
2.586	13.914	1212.759	916.324
3.600	13.748	1200.920	906.392
4.615	10.421	1131.943	837.096
5.629	4.178	1062.236	755.136
6.644	1.167	1045.232	728.531
7.659	1.044	1043.193	726.457
8.673	1.068	1042.415	725.967
9.688	1.041	1041.079	724.843
10.702	1.241	1038.691	724.069
11.717	5.010	1042.951	745.011
12.731	11.939	1051.977	784.684
13.746	16.651	1057.717	811.542
14.761	17.750	1058.706	817.503
15.775	17.005	1057.143	812.653
16.790	15.968	1055.263	806.177
17.804	15.270	1053.338	801.301
18.819	15.033	1052.658	799.580
19.834	14.613	1051.976	796.986
20.848	14.590	1050.397	795.610
21.863	14.277	1049.688	793.510
22.877	14.137	1049.091	792.323
23.892	14.115	1048.023	791.340
24.907	14.034	1047.764	790.691
25.921	13.999	1046.963	789.849
26.936	14.159	1046.167	789.939
27.950	14.309	1044.931	789.646
28.965	14.179	1043.963	788.229
29.980	14.356	1042.226	787.685
30.994	14.168	1041.751	786.365
32.009	14.217	1040.573	785.642
33.023	14.291	1039.604	785.187
34.038	14.211	1038.857	784.176
35.053	14.176	1037.448	782.877
36.067	14.228	1036.716	782.503
37.082	14.220	1036.331	782.105
38.096	14.404	1035.097	781.967
39.111	14.256	1034.304	780.604
40.126	14.213	1033.526	779.747
41.140	14.208	1032.121	778.594
42.155	13.996	1031.545	777.103
43.169	13.956	1030.523	776.074
44.184	13.954	1029.163	774.972
45.199	14.178	1028.215	775.234
46.213	14.106	1026.779	773.750
47.228	14.176	1026.286	773.632
48.242	14.206	1024.804	772.590
49.257	14.251	1023.986	772.110
50.271	14.251	1023.032	771.322
51.286	14.248	1022.301	770.691
52.301	14.199	1021.282	769.626
53.315	14.104	1020.610	768.614
54.330	14.148	1019.564	767.963
55.344	14.084	1018.631	766.898
56.359	14.213	1017.371	766.473
57.374	14.048	1017.005	765.372
58.388	14.193	1015.657	764.956
59.403	14.089	1015.490	764.282
60.417	14.078	1014.160	763.165
61.432	14.048	1013.475	762.444
62.447	14.047	1013.003	762.018
63.461	14.007	1012.140	761.116
64.476	13.935	1011.263	760.061
65.490	13.951	1010.617	759.581
66.505	14.121	1009.810	759.683
67.520	14.082	1009.199	758.981
68.534	13.967	1008.586	757.924
69.549	14.019	1007.711	757.438
70.563	13.985	1006.884	756.594
71.578	14.093	1005.915	756.289
72.593	14.017	1005.131	755.290
73.607	13.907	1004.965	754.597
74.622	14.033	1004.232	754.553
75.636	13.909	1003.190	753.139
76.651	13.953	1002.468	752.731
77.666	13.981	1001.816	752.302
78.680	14.030	1001.303	752.072
79.695	14.066	1000.495	751.563
80.709	14.103	1000.241	751.469
81.724	14.050	999.570	750.663
82.739	14.166	998.905	750.617
83.753	14.225	997.727	749.934
84.768	14.299	996.981	749.637
85.782	14.261	995.761	748.484
86.797	14.285	995.210	748.112
87.812	14.079	994.766	746.786
88.826	14.249	993.466	746.506
89.841	14.288	992.555	745.930
90.855	14.245	991.565	744.927
91.870	14.281	990.719	744.388
92.884	14.338	989.848	743.921
93.899	14.250	989.511	743.209
94.914	14.301	988.297	742.463
95.928	14.273	987.642	741.779
96.943	14.282	986.559	740.940
97.957	14.396	985.769	740.788
98.972	14.282	985.120	739.727
99.987	14.208	984.547	738.902
101.001	14.266	983.439	738.262
102.016	14.262	982.027	737.121
103.030	14.251	982.034	737.011
104.045	14.211	980.886	735.908
105.060	14.344	980.078	735.824
106.074	14.120	979.404	734.263
107.089	14.180	978.328	733.658
108.103	14.135	977.312	732.631
109.118	14.154	976.698	732.192
110.133	14.152	975.634	731.319
111.147	14.176	974.773	730.714
112.162	14.129	974.033	729.889
113.176	14.287	972.836	729.620
114.191	14.202	972.005	728.561
115.206	14.238	971.937	728.604
116.220	14.211	970.961	727.688
117.235	14.318	970.131	727.470
118.249	14.200	969.216	726.205
119.264	14.246	968.635	725.906
120.279	14.246	967.422	724.931
121.293	14.213	966.657	724.152
122.308	14.247	965.753	723.555
123.322	14.178	965.179	722.763
124.337	14.210	963.944	721.914
125.352	14.178	963.112	721.087
126.366	14.185	961.881	720.133
127.381	14.119	960.985	719.113
128.395	14.164	960.551	718.921
129.410	14.254	958.997	718.081
130.424	14.342	958.083	717.710
131.439	14.247	957.669	716.930
132.454	14.244	956.902	716.280
133.468	14.272	956.144	715.768
134.483	14.293	955.364	715.209
135.497	14.328	954.768	714.852
136.512	14.222	954.028	713.780
137.527	14.332	952.859	713.314
138.541	14.289	952.183	712.558
139.556	14.292	951.779	712.209
140.570	14.423	950.858	712.015
141.585	14.526	949.635	711.474
142.600	14.355	949.301	710.434
143.614	14.412	948.684	710.150
144.629	14.517	947.293	709.492
145.643	14.332	946.838	708.303
146.658	14.404	945.542	707.580
147.673	14.452	944.452	706.904
148.687	14.435	944.114	706.517
149.702	14.381	942.959	705.361
150.716	14.466	942.372	705.220
151.731	14.401	942.071	704.657
152.746	14.386	941.450	704.064
153.760	14.606	940.362	704.119
154.775	14.513	940.218	703.555
155.789	14.582	939.561	703.293
156.804	14.486	938.895	702.325
157.819	14.743	937.661	702.424
158.833	14.627	937.441	701.709
159.848	14.684	936.467	701.154
160.862	14.591	935.077	699.665
161.877	14.615	934.121	698.988
162.892	14.608	933.221	698.225
163.906	14.573	932.775	697.682
164.921	14.537	932.183	697.028
165.935	14.510	931.410	696.275
166.950	14.523	930.558	695.630
167.964	14.666	929.155	695.114
168.979	14.638	928.262	694.268
169.994	14.713	927.580	694.009
171.008	14.560	927.149	692.988
172.023	14.597	926.459	692.567
173.037	14.671	925.879	692.379
174.052	14.646	925.218	691.717
175.067	14.753	924.402	691.489
176.081	14.699	923.912	690.841
177.096	14.716	923.354	690.429
178.110	14.556	922.793	689.289
179.125	14.550	922.694	689.131
180.140	14.764	921.493	689.053
181.154	14.831	920.658	688.646
182.169	14.922	920.519	688.855
183.183	14.805	920.010	687.930
184.198	14.734	919.314	687.060
185.213	14.963	918.216	687.117
186.227	14.930	917.891	686.678
187.242	14.993	917.085	686.271
188.256	14.954	916.224	685.409
189.271	14.869	915.703	684.610
190.286	14.811	914.989	683.780
191.300	14.792	914.244	683.085
192.315	14.744	913.737	682.447
193.329	14.711	913.113	681.785
194.344	14.690	912.403	681.111
195.359	14.836	911.724	681.139
196.373	14.982	910.679	680.891
197.388	15.006	910.738	680.971
198.402	15.033	909.882	680.383
199.417	15.095	909.360	680.184
200.432	15.100	908.832	679.751
201.446	15.032	908.651	679.279
202.461	15.051	907.904	678.737
203.475	15.074	907.575	678.523
204.490	15.214	906.427	678.172
205.504	15.042	905.825	676.965
206.519	14.983	905.284	676.262
207.534	15.103	904.342	675.984
208.548	15.132	903.672	675.539
209.563	15.124	903.450	675.284
210.577	15.141	902.729	674.754
211.592	15.241	901.756	674.368
212.607	15.257	900.968	673.782
213.621	15.188	900.366	672.997
214.636	15.322	899.389	672.746
215.650	15.403	898.487	672.333
216.665	15.310	898.162	671.657
217.680	15.313	897.679	671.250
218.694	15.394	897.132	671.106
219.709	15.407	896.215	670.413
220.723	15.178	895.925	669.222
221.738	15.205	895.175	668.712
222.753	15.263	894.182	668.139
223.767	15.319	894.019	668.181
224.782	15.476	893.496	668.357
225.796	15.684	892.061	668.053
226.811	15.497	891.698	666.979
227.826	15.449	891.357	666.474
228.840	15.435	890.540	665.747
229.855	15.537	889.130	665.041
230.869	15.400	888.938	664.295
231.884	15.404	888.616	664.008
232.899	15.369	887.785	663.190
233.913	15.597	886.546	663.107
234.928	15.424	886.283	662.170
235.942	15.496	885.750	661.997
236.957	15.387	885.356	661.213
237.972	15.444	884.825	660.984
238.986	15.437	884.003	660.283
240.001	15.499	883.367	659.994
241.015	15.517	882.775	659.563
242.030	15.582	882.000	659.181
243.045	15.738	881.165	659.112
244.059	15.657	880.760	658.433
245.074	15.678	880.107	657.967
246.088	15.670	879.473	657.403
247.103	15.623	879.054	656.849
248.117	15.792	878.456	657.002
249.132	15.619	878.224	656.097
250.147	15.751	877.301	655.863
251.161	15.749	876.725	655.367
252.176	15.861	876.045	655.238
253.190	15.799	875.335	654.409
254.205	15.844	874.933	654.224
255.220	15.925	873.931	653.731
256.234	15.906	873.207	653.060
257.249	16.082	872.455	653.120
258.263	16.122	871.640	652.608
259.278	15.996	871.286	651.797
260.293	16.090	870.497	651.511
261.307	15.994	870.489	651.077
262.322	16.144	869.207	650.640
263.336	15.960	868.990	649.709
264.351	16.150	868.146	649.754
265.366	16.225	867.206	649.280
266.380	15.984	866.986	648.133
267.395	16.109	866.645	648.300
268.409	16.153	865.363	647.453
269.424	16.057	864.761	646.576
270.439	16.196	863.937	646.437
271.453	16.160	863.455	645.882
272.468	16.204	862.955	645.618
273.482	16.167	862.391	644.999
274.497	16.234	861.903	644.830
275.512	16.083	861.496	643.894
276.526	16.192	860.885	643.794
277.541	16.239	860.643	643.735
278.555	16.270	859.593	643.014
279.570	16.335	858.791	642.604
280.585	16.139	858.328	641.456
281.599	16.414	857.349	641.710
282.614	16.387	856.781	641.124
283.628	16.379	856.140	640.558
284.643	16.515	855.457	640.506
285.657	16.369	855.075	639.612
286.672	16.345	854.641	639.141
287.687	16.350	854.202	638.775
288.701	16.488	853.276	638.548
289.716	16.465	852.570	637.875
290.730	16.460	852.319	637.613
291.745	16.456	851.474	636.909
292.760	16.636	851.012	637.183
293.774	16.557	850.407	636.377
294.789	16.459	850.359	635.917
295.803	16.407	849.346	634.904
296.818	16.615	848.444	634.958
297.833	16.581	847.558	634.108
298.847	16.617	847.125	633.866
299.862	16.664	846.608	633.600
300.876	16.620	846.283	633.132
301.891	16.672	845.599	632.761
302.906	16.684	844.818	632.166
303.920	16.744	844.026	631.739
304.935	16.907	843.421	631.839
305.949	16.839	843.454	631.554
306.964	16.819	842.689	630.851
307.979	16.769	842.254	630.284
308.993	16.924	841.399	630.164
310.008	16.896	840.942	629.660
311.022	16.754	840.605	628.826
312.037	16.816	839.846	628.435
313.052	16.757	839.524	627.919
314.066	16.741	839.108	627.494
315.081	16.846	838.185	627.135
316.095	16.897	837.804	626.981
317.110	16.836	837.018	626.114
318.125	16.850	836.562	625.768
319.139	17.001	836.180	625.985
320.154	16.956	835.555	625.295
321.168	16.916	835.276	624.883
322.183	16.859	834.317	623.903
323.197	16.840	834.147	623.649
324.212	16.976	833.536	623.639
325.227	16.891	833.156	622.986
326.241	17.043	832.251	622.812
327.256	17.055	831.738	622.416
328.270	17.010	831.199	621.795
329.285	16.887	830.535	620.791
330.300	16.992	829.602	620.423
331.314	16.961	829.615	620.265
332.329	17.102	829.232	620.438
333.343	17.095	828.757	620.003
334.358	17.023	828.137	619.223
335.373	17.047	828.219	619.317
336.387	16.990	827.907	618.821
337.402	17.222	827.143	619.041
338.416	17.250	826.785	618.817
339.431	17.215	826.742	618.604
340.446	17.238	826.421	618.393
341.460	17.176	826.273	618.001
342.475	17.335	825.417	617.884
343.489	17.348	824.536	617.219
344.504	17.339	824.604	617.183
345.519	17.477	823.844	617.056
346.533	17.448	823.509	616.647
347.548	17.322	823.196	615.902
348.562	17.361	822.711	615.624
349.577	17.431	821.810	615.150
350.592	17.216	821.279	613.922
351.606	17.368	820.509	613.842
352.621	17.387	819.836	613.352
353.635	17.466	819.355	613.221
354.650	17.374	819.139	612.675
355.665	17.347	818.053	611.710
356.679	17.448	817.817	611.843
357.694	17.650	816.774	611.734
358.708	17.621	816.045	611.028
359.723	17.611	815.796	610.754
360.738	17.593	815.138	610.143
361.752	17.505	815.001	609.669
362.767	17.493	814.032	608.849
363.781	17.667	813.619	609.108
364.796	17.775	812.813	608.836
365.810	17.729	812.623	608.477
366.825	17.737	812.603	608.437
367.840	17.699	812.129	607.890
368.854	17.743	811.261	607.345
369.869	17.747	811.006	607.114
370.883	17.634	810.799	606.504
371.898	17.813	810.457	606.832
372.913	17.818	810.068	606.505
373.927	17.902	809.451	606.286
374.942	17.848	809.082	605.765
375.956	17.914	808.614	605.595
376.971	17.996	807.924	605.313
377.986	17.990	807.524	604.942
379.000	18.349	806.695	605.534
380.015	18.050	806.523	604.297
381.029	18.020	805.946	603.703
382.044	18.023	805.749	603.513
383.059	17.955	804.883	602.573
384.073	18.021	804.269	602.289
385.088	18.052	803.650	601.882
386.102	18.098	803.554	601.922
387.117	18.024	802.658	600.937
388.132	18.133	801.945	600.732
389.146	18.075	801.334	600.019
390.161	18.137	800.982	599.917
391.175	18.216	800.419	599.719
392.190	18.142	799.981	599.079
393.205	18.078	799.947	598.775
394.219	18.005	799.682	598.271
395.234	18.054	799.028	597.901
396.248	18.209	798.352	597.884
397.263	17.977	798.212	596.914
398.278	18.096	797.773	596.948
399.292	18.118	797.347	596.654
400.307	18.054	797.074	596.174
401.321	18.178	796.121	595.839
402.336	18.283	795.851	595.951
403.350	18.171	795.327	595.117
404.365	18.365	794.798	595.342
405.380	18.328	794.482	594.925
406.394	18.423	793.784	594.678
407.409	18.302	793.727	594.161
408.423	18.310	793.518	593.983
409.438	18.406	792.925	593.817
410.453	18.357	792.700	593.426
411.467	18.519	792.016	593.423
412.482	18.445	791.834	592.977
413.496	18.509	791.521	592.913
414.511	18.501	790.933	592.391
415.526	18.628	790.241	592.259
416.540	18.562	790.039	591.830
417.555	18.449	789.523	591.000
418.569	18.577	789.143	591.105
419.584	18.507	788.919	590.643
420.599	18.539	788.556	590.429
421.613	115.904	1295.982	1485.229
422.628	99.731	1369.892	1485.307
