DTS Sentinel unit serial number:	SN413079Multiplexer serial number:	ORYXHardware model number:	OX4-SRSoftware version number:	ORYX F/W v4.00 Oryx Data Collector v3.7.2.0data status	okinstallation	princeton_trtdifferential loss correction	single-endedforward channel	channel 1reverse channel	N/Adate	2019/09/16time	16:54:35forward acquisition time	60.00reverse acquisition time	0.00gamma	496.2192k internal	0.2296k external	0.2296temperature offset calibration	0.9960default loss term (dB/km)	0.3790temperature slope calibration	1.0000multiplexer offset coefficient	1.0000multiplexer slope coefficient	1.0000fibre end	0.00T internal ref (°C)	39.45T ext. ref 1 (°C)	15.25T ext. ref 2 (°C)	33.75length (m)	temperature (°C)	Stokes	anti-Stokes-747.200	60.206	-0.135	0.136
-746.185	105.372	-0.014	0.016
-745.171	-68.837	0.350	-0.138
-744.156	-200.000	0.014	-0.306
-743.142	-74.073	-0.184	0.068
-742.127	188.386	-0.204	0.311
-741.112	-200.000	-0.014	-0.291
-740.098	-44.789	-0.340	0.173
-739.083	-165.986	0.152	0.007
-738.069	60.821	-0.377	0.382
-737.054	608.172	-0.085	-0.217
-736.039	-114.527	-0.065	-0.013
-735.025	-200.000	0.005	0.127
-734.010	800.000	-0.065	-0.189
-732.996	50.611	0.151	0.145
-731.981	193.345	0.084	0.129
-730.966	-128.080	0.242	-0.035
-729.952	-200.000	-0.171	0.000
-728.937	39.740	-0.245	0.224
-727.923	106.687	0.179	0.217
-726.908	-200.000	-0.022	0.241
-725.894	-164.195	-0.268	-0.013
-724.879	-200.000	0.020	-0.390
-723.864	800.000	-0.028	-0.118
-722.850	747.887	-0.036	-0.099
-721.835	202.794	-0.284	-0.448
-720.821	-21.408	-0.354	-0.221
-719.806	36.063	0.130	0.117
-718.791	-37.248	0.324	-0.177
-717.777	108.376	0.215	0.261
-716.762	800.000	0.102	-0.345
-715.748	-148.800	-0.415	0.034
-714.733	-200.000	0.013	-0.091
-713.718	-99.051	0.146	0.038
-712.704	197.573	0.171	-0.267
-711.689	800.000	-0.065	0.202
-710.675	169.398	0.033	0.048
-709.660	116.592	-0.068	-0.085
-708.645	-24.147	-0.066	-0.040
-707.631	800.000	0.003	0.009
-706.616	-41.695	0.164	-0.086
-705.602	-200.000	0.043	-0.193
-704.587	-200.000	0.022	-0.199
-703.572	710.129	-0.046	-0.124
-702.558	4.245	0.312	0.233
-701.543	-37.918	-0.292	0.158
-700.529	-111.451	-0.251	-0.052
-699.514	375.942	-0.072	-0.149
-698.499	-81.787	0.168	-0.056
-697.485	800.000	0.064	0.262
-696.470	-79.025	-0.435	0.151
-695.456	-97.632	0.176	-0.046
-694.441	157.135	0.127	-0.179
-693.426	515.904	0.060	0.144
-692.412	-133.632	-0.139	0.018
-691.397	-136.862	0.015	-0.002
-690.383	36.478	-0.181	0.163
-689.368	219.962	-0.128	0.208
-688.354	800.000	0.014	0.062
-687.339	-200.000	-0.015	-0.144
-686.324	214.399	0.037	-0.060
-685.310	-200.000	-0.042	0.205
-684.295	150.650	0.056	-0.078
-683.281	428.483	0.063	0.138
-682.266	-200.000	0.032	-0.220
-681.251	-200.000	-0.000	0.214
-680.237	215.349	0.106	-0.171
-679.222	-111.630	-0.401	-0.083
-678.208	105.341	0.230	-0.277
-677.193	-22.936	0.198	0.122
-676.178	-131.973	0.234	0.031
-675.164	287.991	-0.072	0.132
-674.149	170.776	0.215	-0.313
-673.135	242.893	0.125	0.214
-672.120	800.000	0.121	0.348
-671.105	-200.000	-0.006	-0.167
-670.091	-41.214	0.037	-0.019
-669.076	177.234	-0.080	-0.119
-668.062	182.808	0.209	-0.314
-667.047	-200.000	-0.032	-0.367
-666.032	497.383	0.084	-0.197
-665.018	-199.074	-0.376	0.002
-664.003	800.000	-0.046	-0.160
-662.989	-149.014	-0.245	-0.020
-661.974	-108.902	-0.304	0.066
-660.959	-53.951	-0.292	0.136
-659.945	-54.871	0.292	-0.134
-658.930	0.866	-0.089	-0.065
-657.916	620.062	0.074	-0.188
-656.901	-180.249	-0.195	-0.004
-655.886	-106.967	0.157	-0.035
-654.872	-141.778	-0.144	0.015
-653.857	-200.000	-0.063	0.326
-652.843	800.000	-0.011	0.037
-651.828	-17.217	-0.317	-0.203
-650.814	-131.270	-0.104	0.014
-649.799	112.733	0.287	-0.353
-648.784	211.748	0.206	-0.330
-647.770	217.138	0.095	-0.153
-646.755	19.513	-0.112	0.092
-645.741	-31.003	-0.078	0.045
-644.726	800.000	-0.099	-0.423
-643.711	32.012	-0.102	0.089
-642.697	151.080	0.041	0.057
-641.682	800.000	-0.109	0.429
-640.668	-96.245	-0.082	0.022
-639.653	19.807	-0.176	-0.144
-638.638	4.530	-0.233	0.174
-637.624	182.642	-0.083	0.124
-636.609	-29.955	-0.364	0.211
-635.595	-16.995	0.387	-0.249
-634.580	398.320	0.154	-0.327
-633.565	206.573	0.056	-0.088
-632.551	-64.558	0.078	0.032
-631.536	-200.000	-0.013	-0.235
-630.522	-83.364	0.334	0.109
-629.507	-52.169	0.119	-0.056
-628.492	-11.145	-0.326	-0.219
-627.478	19.288	-0.014	0.012
-626.463	152.473	-0.032	0.044
-625.449	-200.000	-0.009	-0.216
-624.434	272.842	-0.260	0.467
-623.419	215.397	-0.167	0.269
-622.405	167.787	0.075	0.109
-621.390	310.983	0.154	-0.294
-620.376	-200.000	-0.049	0.265
-619.361	58.044	-0.120	0.120
-618.346	645.710	0.094	0.244
-617.332	498.958	-0.096	0.226
-616.317	20.184	0.314	0.257
-615.303	526.214	-0.059	0.142
-614.288	-159.993	-0.150	-0.008
-613.273	185.808	-0.124	0.188
-612.259	800.000	-0.076	-0.318
-611.244	123.058	0.035	0.045
-610.230	27.266	0.354	0.302
-609.215	-126.612	-0.089	-0.013
-608.201	-200.000	0.035	-0.180
-607.186	-200.000	-0.032	-0.264
-606.171	184.827	-0.064	-0.096
-605.157	-24.102	-0.054	-0.033
-604.142	-15.997	-0.218	-0.141
-603.128	-7.107	-0.246	-0.170
-602.113	-38.713	0.010	0.005
-601.098	235.073	-0.070	0.117
-600.084	436.018	-0.010	0.021
-599.069	384.480	0.018	0.037
-598.055	261.693	-0.151	0.265
-597.040	-200.000	-0.022	0.283
-596.025	296.085	-0.064	-0.120
-595.011	-3.531	0.186	-0.132
-593.996	-99.401	0.323	-0.083
-592.982	-4.281	-0.258	-0.181
-591.967	-147.804	-0.148	0.013
-590.952	-200.000	-0.017	0.116
-589.938	-200.000	0.058	-0.448
-588.923	-200.000	0.003	0.030
-587.909	-31.089	0.292	0.167
-586.894	29.454	-0.066	-0.057
-585.879	-200.000	-0.049	-0.221
-584.865	180.724	0.186	-0.278
-583.850	800.000	-0.038	0.118
-582.836	-173.733	0.247	-0.007
-581.821	-69.167	0.067	0.026
-580.806	-157.775	0.301	-0.018
-579.792	57.768	-0.298	0.296
-578.777	800.000	-0.040	-0.118
-577.763	151.335	-0.045	-0.062
-576.748	-200.000	-0.044	-0.293
-575.733	-108.301	0.251	-0.055
-574.719	-154.949	-0.198	-0.013
-573.704	-118.106	-0.096	-0.017
-572.690	-109.744	-0.080	-0.017
-571.675	50.360	-0.116	-0.112
-570.661	120.302	0.175	-0.221
-569.646	-85.497	-0.403	-0.127
-568.631	-138.725	-0.113	0.013
-567.617	262.341	-0.102	-0.180
-566.602	-133.184	-0.245	0.031
-565.588	68.901	-0.131	-0.136
-564.573	14.567	0.166	-0.131
-563.558	286.896	0.139	-0.255
-562.544	800.000	0.094	0.309
-561.529	645.063	0.100	-0.258
-560.515	126.590	-0.059	0.076
-559.500	-38.240	-0.423	0.227
-558.485	-200.000	0.001	0.106
-557.471	-156.790	-0.081	-0.005
-556.456	266.195	0.125	-0.221
-555.442	-176.134	0.106	-0.003
-554.427	38.614	0.196	0.178
-553.412	266.273	0.080	-0.141
-552.398	361.556	0.151	-0.306
-551.383	-88.592	0.117	0.035
-550.369	-71.300	0.149	-0.057
-549.354	-144.005	-0.159	0.015
-548.339	-200.000	0.017	-0.205
-547.325	83.113	0.118	0.130
-546.310	-102.807	0.276	0.066
-545.296	800.000	0.088	0.252
-544.281	74.339	-0.135	-0.144
-543.266	303.947	0.027	0.051
-542.252	98.374	-0.026	-0.030
-541.237	-200.000	-0.008	0.245
-540.223	147.233	0.098	0.133
-539.208	-2.533	-0.485	0.344
-538.193	199.971	0.054	0.085
-537.179	210.158	0.116	-0.184
-536.164	31.073	0.275	0.239
-535.150	-40.694	-0.141	0.074
-534.135	-98.907	-0.161	-0.041
-533.121	177.025	-0.094	-0.138
-532.106	281.722	-0.108	-0.196
-531.091	-59.847	-0.142	-0.061
-530.077	74.457	-0.154	0.164
-529.062	75.466	-0.079	0.084
-528.048	-192.017	0.420	0.004
-527.033	-200.000	-0.028	0.157
-526.018	573.350	0.198	-0.490
-525.004	39.436	0.269	-0.244
-523.989	-109.652	0.062	0.013
-522.975	178.542	-0.116	-0.172
-521.960	-21.170	0.164	-0.102
-520.945	-200.000	-0.057	-0.319
-519.931	800.000	-0.064	0.191
-518.916	-60.678	0.095	-0.041
-517.902	-169.240	-0.132	-0.005
-516.887	-200.000	-0.013	-0.110
-515.872	-83.958	0.167	-0.054
-514.858	-160.485	-0.312	-0.017
-513.843	316.701	-0.048	-0.092
-512.829	14.902	0.215	0.170
-511.814	-120.862	-0.193	-0.033
-510.799	800.000	0.041	-0.123
-509.785	-200.000	0.070	0.367
-508.770	170.535	-0.030	-0.043
-507.756	558.819	-0.014	0.033
-506.741	-169.905	0.234	-0.008
-505.726	-94.446	-0.132	-0.037
-504.712	-2.767	0.178	-0.126
-503.697	514.380	-0.206	0.486
-502.683	546.580	-0.106	0.258
-501.668	-47.725	0.115	0.057
-500.653	-200.000	0.074	-0.410
-499.639	247.490	0.013	-0.023
-498.624	98.486	-0.071	-0.083
-497.610	39.861	0.046	0.041
-496.595	-175.520	0.103	-0.003
-495.581	103.527	-0.266	0.316
-494.566	-200.000	0.050	0.301
-493.551	-200.000	-0.017	0.247
-492.537	642.222	-0.088	-0.228
-491.522	-18.472	-0.187	0.118
-490.508	-173.238	0.241	-0.007
-489.493	-44.590	-0.044	0.022
-488.478	279.066	0.159	-0.287
-487.464	-37.266	0.163	0.088
-486.449	620.153	-0.145	-0.368
-485.435	-200.000	-0.014	-0.170
-484.420	-144.679	-0.466	-0.043
-483.405	-200.000	-0.038	0.193
-482.391	-40.166	-0.162	-0.085
-481.376	68.111	0.167	-0.173
-480.362	-200.000	-0.018	-0.215
-479.347	-200.000	0.002	-0.081
-478.332	87.124	-0.088	-0.099
-477.318	800.000	-0.017	-0.052
-476.303	133.579	-0.080	-0.105
-475.289	43.491	0.034	0.031
-474.274	800.000	0.042	-0.160
-473.259	-105.404	-0.111	-0.026
-472.245	-200.000	-0.012	0.158
-471.230	-48.899	0.189	0.092
-470.216	-112.666	0.128	0.026
-469.201	65.675	0.096	-0.098
-468.186	-200.000	-0.031	-0.177
-467.172	-200.000	-0.034	0.153
-466.157	-200.000	0.024	0.185
-465.143	389.035	0.186	-0.390
-464.128	-50.807	-0.372	-0.177
-463.113	499.653	-0.113	0.263
-462.099	-200.000	-0.019	0.225
-461.084	200.807	-0.191	0.297
-460.070	181.663	-0.167	0.249
-459.055	-117.300	-0.527	-0.097
-458.040	298.690	-0.129	-0.241
-457.026	88.664	0.110	0.123
-456.011	498.342	-0.102	0.238
-454.997	-128.347	0.162	0.023
-453.982	75.971	-0.199	0.213
-452.968	147.654	0.071	0.097
-451.953	167.215	0.160	0.230
-450.938	-149.647	0.249	-0.020
-449.924	-151.187	0.287	-0.022
-448.909	-128.773	-0.249	-0.035
-447.895	-23.238	-0.306	-0.186
-446.880	-45.499	-0.285	0.142
-445.865	-80.519	-0.448	0.151
-444.851	-47.335	-0.215	-0.106
-443.836	-60.683	0.051	0.022
-442.822	-54.499	0.262	0.120
-441.807	-104.593	-0.268	-0.062
-440.792	-200.000	-0.062	0.302
-439.778	-113.510	0.258	-0.051
-438.763	-44.698	-0.357	0.180
-437.749	-200.000	0.013	-0.099
-436.734	800.000	0.072	0.288
-435.719	139.383	-0.122	-0.162
-434.705	-49.279	0.088	-0.042
-433.690	-133.063	0.126	0.016
-432.676	24.711	-0.191	-0.160
-431.661	800.000	0.056	-0.159
-430.646	-200.000	-0.009	0.064
-429.632	472.987	-0.110	-0.251
-428.617	-118.812	0.254	0.045
-427.603	-134.345	0.124	-0.015
-426.588	-71.999	-0.214	-0.080
-425.573	-151.752	-0.108	0.008
-424.559	12.579	-0.090	0.070
-423.544	61.858	-0.256	0.257
-422.530	-1.226	0.346	0.247
-421.515	338.559	0.165	0.324
-420.500	113.275	0.174	0.213
-419.486	571.324	-0.059	0.144
-418.471	-200.000	-0.038	0.239
-417.457	157.927	0.052	0.072
-416.442	800.000	0.049	0.176
-415.428	-45.437	-0.088	-0.044
-414.413	644.717	0.093	0.239
-413.398	-26.700	0.167	0.099
-412.384	289.511	0.068	0.124
-411.369	111.628	-0.203	0.247
-410.355	451.788	-0.163	0.364
-409.340	-97.461	0.241	-0.063
-408.325	85.872	-0.095	0.105
-407.311	-0.003	0.227	0.163
-406.296	180.087	0.198	0.292
-405.282	637.686	0.140	0.359
-404.267	152.587	0.228	0.314
-403.252	110.931	-0.104	-0.127
-402.238	426.754	0.088	-0.192
-401.223	-200.000	0.008	-0.207
-400.209	-140.165	-0.346	-0.037
-399.194	-200.000	0.001	0.171
-398.179	-200.000	0.003	-0.147
-397.165	-44.034	-0.079	0.040
-396.150	-200.000	-0.024	-0.152
-395.136	-124.317	0.062	0.010
-394.121	800.000	0.045	-0.174
-393.106	44.188	0.218	0.202
-392.092	800.000	-0.095	0.344
-391.077	25.419	0.087	-0.073
-390.063	-130.279	0.236	0.032
-389.048	-31.770	-0.080	0.045
-388.033	800.000	0.109	-0.445
-387.019	63.472	-0.039	0.039
-386.004	800.000	-0.082	-0.322
-384.990	-200.000	-0.006	0.105
-383.975	-9.417	0.095	-0.064
-382.960	800.000	-0.055	-0.238
-381.946	-200.000	0.014	0.254
-380.931	137.873	-0.107	0.141
-379.917	89.138	-0.311	-0.349
-378.902	800.000	-0.066	0.242
-377.888	-36.644	0.150	-0.081
-376.873	-84.930	-0.106	-0.033
-375.858	-200.000	0.018	0.159
-374.844	-200.000	0.000	0.022
-373.829	800.000	-0.028	0.097
-372.815	-103.377	0.050	0.012
-371.800	-200.000	0.109	-0.501
-370.785	25.818	-0.047	-0.040
-369.771	19.898	-0.295	-0.239
-368.756	114.503	-0.037	-0.045
-367.742	-104.349	0.104	0.024
-366.727	751.140	-0.093	-0.253
-365.712	-200.000	-0.027	-0.303
-364.698	365.426	0.086	0.175
-363.683	800.000	-0.091	-0.317
-362.669	-200.000	-0.012	-0.252
-361.654	132.997	-0.104	0.135
-360.639	-200.000	-0.002	0.093
-359.625	11.492	-0.378	0.291
-358.610	156.820	-0.052	-0.072
-357.596	408.211	0.087	-0.186
-356.581	-200.000	0.026	0.144
-355.566	-38.708	0.219	0.116
-354.552	6.772	0.069	0.052
-353.537	355.435	-0.027	0.055
-352.523	-66.047	-0.175	-0.070
-351.508	67.452	-0.144	-0.147
-350.493	-142.033	0.345	0.035
-349.479	-44.887	0.199	0.100
-348.464	237.943	-0.094	0.158
-347.450	-88.160	0.073	-0.022
-346.435	800.000	0.057	0.171
-345.420	-96.843	-0.172	0.046
-344.406	-59.401	0.086	-0.037
-343.391	-114.724	-0.465	0.089
-342.377	-121.586	0.119	0.020
-341.362	689.197	0.054	0.142
-340.348	800.000	-0.037	-0.147
-339.333	-44.401	-0.070	0.035
-338.318	190.024	-0.094	-0.142
-337.304	-31.205	-0.154	0.087
-336.289	-114.758	0.047	-0.009
-335.275	-17.270	0.197	-0.125
-334.260	10.209	0.086	0.066
-333.245	111.990	-0.156	0.190
-332.231	-54.940	0.118	0.053
-331.216	397.204	-0.059	0.125
-330.202	-123.786	0.166	0.026
-329.187	94.848	0.143	-0.164
-328.172	96.671	0.221	-0.254
-327.158	571.054	-0.069	0.169
-326.143	800.000	-0.051	0.183
-325.129	118.060	0.072	-0.090
-324.114	44.652	0.193	-0.179
-323.099	-200.000	0.020	-0.175
-322.085	-200.000	0.030	-0.290
-321.070	246.526	-0.165	0.280
-320.056	87.674	-0.215	0.240
-319.041	102.229	0.020	-0.023
-318.026	5.950	-0.291	-0.217
-317.012	-46.620	0.101	-0.050
-315.997	-200.000	0.044	-0.241
-314.983	61.384	-0.176	0.175
-313.968	800.000	0.094	0.311
-312.953	-95.294	0.066	0.018
-311.939	800.000	0.166	0.568
-310.924	-200.000	-0.020	-0.130
-309.910	800.000	-0.061	0.203
-308.895	-181.368	0.438	-0.009
-307.880	166.777	0.198	-0.283
-306.866	42.731	-0.288	0.263
-305.851	133.912	0.160	-0.208
-304.837	800.000	-0.048	0.145
-303.822	-69.500	0.287	-0.110
-302.807	800.000	-0.077	-0.213
-301.793	-200.000	-0.169	0.000
-300.778	-136.525	0.247	0.029
-299.764	-121.013	0.565	-0.095
-298.749	-200.000	0.054	-0.305
-297.735	2.629	0.119	-0.086
-296.720	-121.958	0.025	0.004
-295.705	-0.361	0.264	-0.188
-294.691	127.040	-0.214	0.272
-293.676	12.296	0.164	-0.127
-292.662	-200.000	0.014	-0.233
-291.647	200.133	-0.135	0.209
-290.632	23.978	-0.055	-0.046
-289.618	800.000	0.057	0.211
-288.603	-68.270	-0.354	-0.138
-287.589	305.905	-0.057	-0.106
-286.574	-119.711	0.182	0.032
-285.559	-200.000	-0.051	0.375
-284.545	800.000	-0.057	0.247
-283.530	-200.000	-0.003	-0.163
-282.516	40.174	-0.139	0.125
-281.501	338.168	0.065	-0.126
-280.486	-129.746	0.197	-0.027
-279.472	-123.586	0.391	-0.062
-278.457	204.354	0.149	-0.231
-277.443	-200.000	0.033	-0.194
-276.428	250.763	0.083	-0.141
-275.413	800.000	-0.048	0.186
-274.399	39.732	-0.211	0.190
-273.384	-200.000	-0.022	-0.299
-272.370	196.701	0.245	-0.374
-271.355	528.259	0.154	0.364
-270.340	50.051	-0.129	0.122
-269.326	-200.000	-0.013	0.296
-268.311	298.589	0.109	-0.202
-267.297	-200.000	-0.006	-0.055
-266.282	171.337	-0.192	-0.276
-265.267	363.391	0.051	0.103
-264.253	-200.000	0.075	-0.365
-263.238	181.108	0.162	-0.238
-262.224	2.275	0.256	0.186
-261.209	82.828	-0.148	0.162
-260.195	-120.820	0.248	-0.042
-259.180	-15.364	0.279	0.179
-258.165	-200.000	-0.056	0.251
-257.151	144.829	0.198	-0.266
-256.136	-27.390	0.070	0.041
-255.122	-76.043	-0.083	-0.029
-254.107	-200.000	-0.022	-0.135
-253.092	-200.000	-0.003	0.117
-252.078	-10.638	-0.223	-0.148
-251.063	-66.541	-0.177	-0.070
-250.049	-77.065	-0.046	0.016
-249.034	-200.000	0.025	-0.230
-248.019	141.364	0.157	-0.208
-247.005	-163.629	-0.085	-0.004
-245.990	-200.000	-0.011	-0.270
-244.976	-125.381	-0.193	0.030
-243.961	77.508	-0.355	0.379
-242.946	-113.869	0.235	-0.046
-241.932	724.191	-0.039	0.104
-240.917	-200.000	-0.063	-0.368
-239.903	35.323	-0.175	0.154
-238.888	-200.000	0.001	0.094
-237.873	236.788	0.123	0.203
-236.859	160.911	-0.179	-0.250
-235.844	103.745	0.196	0.231
-234.830	53.594	-0.046	0.045
-233.815	-80.359	0.095	0.032
-232.800	-110.762	-0.317	0.065
-231.786	-200.000	-0.015	-0.094
-230.771	63.067	0.104	0.104
-229.757	-148.779	-0.149	-0.012
-228.742	-56.829	0.106	0.047
-227.727	72.219	0.154	-0.161
-226.713	58.879	0.291	-0.286
-225.698	20.611	-0.126	0.102
-224.684	-17.093	-0.147	-0.093
-223.669	-132.433	-0.313	0.040
-222.655	88.001	-0.075	-0.084
-221.640	12.045	0.376	0.289
-220.625	202.667	-0.205	0.317
-219.611	-112.774	-0.137	-0.027
-218.596	-107.578	-0.157	0.034
-217.582	-188.778	-0.464	-0.006
-216.567	-36.943	-0.436	-0.234
-215.552	800.000	0.086	-0.260
-214.538	800.000	0.116	0.324
-213.523	-152.017	0.249	-0.018
-212.509	-98.638	0.294	0.075
-211.494	-200.000	-0.016	-0.264
-210.479	-162.834	-0.125	0.006
-209.465	-200.000	0.031	0.233
-208.450	693.311	-0.101	-0.266
-207.436	674.899	0.136	-0.354
-206.421	3.673	0.184	0.134
-205.406	-101.668	-0.073	0.018
-204.392	-200.000	0.022	0.528
-203.377	-127.548	-0.141	0.020
-202.363	4.178	0.017	0.012
-201.348	-200.000	0.030	0.276
-200.333	18.980	0.291	-0.233
-199.319	621.404	-0.062	-0.155
-198.304	17.294	-0.034	-0.027
-197.290	-98.018	0.178	0.046
-196.275	29.003	-0.177	0.150
-195.260	-16.470	0.104	-0.066
-194.246	-117.823	0.092	0.016
-193.231	-68.880	-0.376	-0.145
-192.217	11.261	-0.065	-0.050
-191.202	800.000	-0.040	-0.128
-190.187	163.963	-0.244	-0.343
-189.173	22.035	0.363	0.296
-188.158	73.035	-0.126	-0.132
-187.144	-200.000	-0.046	-0.213
-186.129	800.000	0.039	-0.120
-185.114	-89.149	-0.216	-0.064
-184.100	-128.479	-0.057	-0.008
-183.085	195.987	0.172	0.261
-182.071	-86.293	0.218	0.067
-181.056	800.000	0.089	-0.339
-180.042	800.000	0.092	0.301
-179.027	800.000	0.097	0.322
-178.012	241.804	0.147	0.245
-176.998	458.034	0.176	-0.390
-175.983	800.000	-0.066	0.260
-174.969	433.476	0.066	-0.144
-173.954	220.536	0.117	-0.188
-172.939	194.380	0.071	-0.108
-171.925	-113.428	0.412	0.081
-170.910	31.385	0.235	0.201
-169.896	72.499	0.228	0.238
-168.881	-200.000	-0.040	-0.361
-167.866	-200.000	-0.003	-0.029
-166.852	-39.560	-0.162	0.085
-165.837	-61.573	-0.121	-0.051
-164.823	670.906	0.089	0.230
-163.808	-200.000	-0.007	0.158
-162.793	-200.000	-0.017	0.200
-161.779	800.000	0.031	-0.109
-160.764	-116.637	-0.091	-0.017
-159.750	-6.513	-0.175	0.119
-158.735	-108.069	-0.226	-0.049
-157.720	-86.786	0.150	0.046
-156.706	-200.000	-0.006	-0.311
-155.691	-64.680	0.093	0.038
-154.677	-25.713	0.279	0.164
-153.662	-200.000	0.017	0.248
-152.647	-200.000	0.015	-0.440
-151.633	-52.392	-0.207	-0.096
-150.618	116.736	-0.069	-0.085
-149.604	-103.344	0.184	-0.043
-148.589	-200.000	-0.038	0.293
-147.574	-200.000	-0.014	0.103
-146.560	44.362	-0.173	0.159
-145.545	-77.530	0.457	-0.158
-144.531	798.569	-0.037	-0.103
-143.516	-200.000	0.020	0.114
-142.502	-155.864	-0.433	-0.028
-141.487	11.656	0.175	0.134
-140.472	-3.274	-0.195	0.136
-139.458	203.093	-0.078	0.121
-138.443	-200.000	-0.014	0.111
-137.429	-36.219	-0.050	0.027
-136.414	773.764	-0.150	0.409
-135.399	235.022	-0.087	0.143
-134.385	313.892	-0.099	0.185
-133.370	-138.834	0.239	-0.026
-132.356	-200.000	-0.022	-0.271
-131.341	-45.419	0.315	0.156
-130.326	0.394	-0.021	-0.015
-129.312	-200.000	0.131	0.599
-128.297	360.405	0.090	0.180
-127.283	-167.207	-0.143	0.006
-126.268	137.433	-0.121	0.158
-125.253	-39.854	-0.267	0.139
-124.239	-52.441	0.030	0.014
-123.224	95.818	0.042	0.048
-122.210	-191.812	0.338	-0.003
-121.195	782.527	-0.023	0.064
-120.180	-200.000	-0.035	-0.284
-119.166	-200.000	-0.005	0.305
-118.151	-107.208	0.165	0.036
-117.137	316.267	0.074	-0.139
-116.122	-200.000	-0.026	-0.116
-115.107	-11.886	0.110	-0.072
-114.093	376.957	0.098	-0.199
-113.078	-200.000	0.103	-0.519
-112.064	187.369	-0.062	-0.092
-111.049	-72.982	-0.226	0.083
-110.034	24.386	0.322	-0.265
-109.020	127.222	-0.052	0.066
-108.005	-200.000	-0.061	0.291
-106.991	24.601	0.078	0.064
-105.976	800.000	0.087	0.279
-104.962	209.085	-0.216	-0.338
-103.947	251.114	0.128	-0.217
-102.932	-94.933	-0.193	-0.052
-101.918	26.377	-0.025	0.021
-100.903	109.651	-0.164	-0.195
-99.889	301.868	0.143	-0.263
-98.874	-125.871	0.169	0.025
-97.859	-85.809	-0.073	-0.023
-96.845	79.000	0.212	0.226
-95.830	800.000	0.020	-0.082
-94.816	57.798	0.121	-0.118
-93.801	-63.264	-0.106	-0.044
-92.786	146.346	0.161	0.215
-91.772	28.693	0.090	-0.075
-90.757	-124.716	-0.302	-0.047
-89.743	87.900	-0.026	-0.029
-88.728	610.914	-0.071	-0.177
-87.713	-91.506	0.200	-0.057
-86.699	-35.839	0.268	0.144
-85.684	455.280	-0.127	-0.281
-84.670	56.722	-0.054	0.052
-83.655	199.823	0.053	0.081
-82.640	-78.168	-0.330	-0.113
-81.626	120.129	0.328	-0.405
-80.611	235.778	-0.105	-0.172
-79.597	-128.599	-0.267	0.038
-78.582	-109.252	-0.105	0.022
-77.567	800.000	0.212	-0.612
-76.553	-115.034	-0.262	0.050
-75.538	-200.000	-0.019	0.148
-74.524	44.669	-0.221	0.202
-73.509	170.329	0.218	-0.310
-72.494	-82.461	-0.116	-0.038
-71.480	-36.269	0.221	0.119
-70.465	539.868	-0.034	0.081
-69.451	800.000	-0.028	0.084
-68.436	800.000	-0.020	0.081
-67.422	-200.000	-0.024	-0.309
-66.407	157.057	0.047	0.065
-65.392	95.972	-0.065	-0.074
-64.378	-25.650	0.178	-0.104
-63.363	800.000	-0.072	0.281
-62.349	233.388	0.011	0.018
-61.334	176.202	-0.685	-0.990
-60.319	49.328	0.345	0.323
-59.305	-200.000	0.055	-0.631
-58.290	276.297	0.487	0.860
-57.276	309.170	0.643	1.195
-56.261	-200.000	81.154	516.300
-55.246	523.641	1327.966	3104.338
-54.232	151.528	2542.798	3444.192
-53.217	115.053	2215.663	2688.952
-52.203	50.650	1675.742	1577.076
-51.188	42.829	1408.546	1276.223
-50.173	39.591	1364.252	1216.108
-49.159	57.779	1403.681	1365.213
-48.144	63.503	1423.358	1420.039
-47.130	43.437	1383.090	1256.747
-46.115	39.650	1365.833	1217.687
-45.100	39.386	1361.238	1211.919
-44.086	39.256	1358.896	1208.982
-43.071	39.282	1356.770	1207.203
-42.057	39.320	1353.872	1204.814
-41.042	39.291	1352.778	1203.610
-40.027	39.380	1351.056	1202.573
-39.013	39.373	1349.477	1201.078
-37.998	39.445	1347.389	1199.615
-36.984	39.357	1345.920	1197.724
-35.969	39.532	1343.851	1196.897
-34.954	39.492	1342.242	1195.171
-33.940	39.492	1340.526	1193.597
-32.925	39.600	1339.423	1193.223
-31.911	39.553	1338.107	1191.719
-30.896	39.652	1336.654	1190.974
-29.881	39.453	1335.691	1188.867
-28.867	39.580	1333.662	1187.777
-27.852	39.505	1332.267	1186.042
-26.838	39.632	1330.591	1185.266
-25.823	39.464	1329.293	1183.052
-24.809	39.582	1327.162	1181.813
-23.794	39.544	1326.641	1181.077
-22.779	39.513	1324.919	1179.311
-21.765	39.462	1323.453	1177.656
-20.750	39.544	1322.056	1176.855
-19.736	39.421	1321.435	1175.519
-18.721	39.383	1319.929	1173.907
-17.706	39.395	1319.079	1173.179
-16.692	39.381	1317.606	1171.735
-15.677	39.400	1316.853	1171.133
-14.663	39.524	1315.040	1170.212
-13.648	39.339	1314.759	1168.819
-12.633	39.424	1313.496	1168.150
-11.619	39.355	1312.715	1167.004
-10.604	39.413	1311.582	1166.289
-9.590	39.393	1310.340	1165.020
-8.575	39.315	1309.597	1163.853
-7.560	39.350	1308.848	1163.351
-6.546	39.410	1308.338	1163.207
-5.531	39.366	1307.126	1161.822
-4.517	39.433	1306.303	1161.441
-3.502	39.395	1305.269	1160.250
-2.487	39.408	1304.272	1159.396
-1.473	39.329	1300.508	1155.535
-0.458	37.788	1284.725	1132.520
0.556	31.831	1264.605	1086.522
1.571	27.365	1268.581	1063.806
2.586	25.917	1283.631	1067.763
3.600	25.132	1273.732	1054.814
4.615	22.824	1204.950	984.907
5.629	18.028	1132.148	900.114
6.644	15.416	1111.512	870.106
7.659	15.286	1108.672	867.131
8.673	15.071	1107.283	864.858
9.688	15.217	1105.659	864.268
10.702	15.402	1104.456	864.203
11.717	18.325	1108.129	882.081
12.731	21.250	1111.749	899.981
13.746	19.943	1108.917	890.884
14.761	17.758	1104.963	876.414
15.775	16.556	1102.267	868.032
16.790	15.432	1100.101	860.489
17.804	14.645	1098.511	855.143
18.819	14.160	1097.144	851.517
19.834	13.802	1096.021	848.743
20.848	13.621	1095.416	847.273
21.863	13.259	1094.250	844.448
22.877	13.185	1093.798	843.644
23.892	13.250	1092.942	843.240
24.907	13.111	1092.515	842.129
25.921	13.260	1091.103	841.727
26.936	13.205	1089.879	840.426
27.950	13.226	1088.580	839.459
28.965	13.334	1086.672	838.461
29.980	13.498	1085.229	838.100
30.994	13.379	1083.925	836.420
32.009	13.462	1082.864	835.944
33.023	13.453	1081.635	834.877
34.038	13.468	1080.581	834.066
35.053	13.314	1079.972	832.749
36.067	13.310	1078.718	831.688
37.082	13.471	1077.940	831.824
38.096	13.459	1077.155	831.080
39.111	13.420	1076.422	830.248
40.126	13.344	1075.359	828.975
41.140	13.185	1073.943	827.012
42.155	13.232	1072.404	825.989
43.169	13.229	1071.440	825.159
44.184	13.188	1070.764	824.360
45.199	13.099	1070.075	823.312
46.213	13.263	1068.473	822.822
47.228	13.285	1067.092	821.796
48.242	13.180	1066.399	820.667
49.257	13.407	1064.781	820.478
50.271	13.294	1064.689	819.773
51.286	13.368	1063.138	818.872
52.301	13.278	1062.834	818.121
53.315	13.343	1061.280	817.175
54.330	13.244	1060.114	815.717
55.344	13.183	1059.442	814.827
56.359	13.218	1058.551	814.241
57.374	13.237	1057.781	813.672
58.388	13.222	1056.889	812.836
59.403	13.128	1055.829	811.489
60.417	13.072	1055.495	810.886
61.432	13.077	1054.693	810.221
62.447	13.018	1053.605	809.027
63.461	13.131	1052.861	808.935
64.476	13.077	1051.749	807.745
65.490	13.016	1051.191	806.947
66.505	13.036	1050.428	806.389
67.520	13.129	1049.546	806.093
68.534	13.097	1049.175	805.582
69.549	13.065	1048.117	804.542
70.563	13.079	1047.236	803.861
71.578	13.110	1046.397	803.298
72.593	13.127	1045.660	802.746
73.607	13.017	1045.321	801.878
74.622	12.971	1044.544	800.988
75.636	12.993	1043.999	800.605
76.651	13.056	1043.309	800.313
77.666	13.067	1042.555	799.718
78.680	13.046	1041.819	798.976
79.695	13.035	1040.846	798.107
80.709	13.173	1040.465	798.410
81.724	13.234	1039.526	797.918
82.739	13.194	1038.839	797.126
83.753	13.226	1038.049	796.604
84.768	13.391	1037.083	796.584
85.782	13.543	1036.346	796.681
86.797	13.398	1035.567	795.316
87.812	13.347	1034.300	794.025
88.826	13.350	1033.242	793.158
89.841	13.326	1032.161	792.141
90.855	13.399	1031.343	791.794
91.870	13.463	1030.287	791.219
92.884	13.390	1029.975	790.558
93.899	13.447	1028.554	789.672
94.914	13.461	1028.083	789.308
95.928	13.460	1027.170	788.533
96.943	13.341	1026.645	787.490
97.957	13.386	1025.715	786.922
98.972	13.408	1024.838	786.286
99.987	13.338	1023.970	785.216
101.001	13.269	1022.845	783.959
102.016	13.336	1021.695	783.324
103.030	13.514	1020.463	783.153
104.045	13.376	1020.186	782.217
105.060	13.375	1019.315	781.474
106.074	13.326	1017.950	780.132
107.089	13.170	1016.994	778.592
108.103	13.146	1016.590	778.100
109.118	13.244	1015.325	777.527
110.133	13.253	1014.393	776.787
111.147	13.206	1013.612	775.900
112.162	13.259	1012.671	775.357
113.176	13.307	1011.925	774.941
114.191	13.223	1011.123	773.868
115.206	13.350	1010.376	773.818
116.220	13.363	1009.389	773.058
117.235	13.323	1008.373	772.025
118.249	13.332	1007.715	771.494
119.264	13.324	1006.565	770.509
120.279	13.344	1005.905	770.026
121.293	13.258	1005.257	769.062
122.308	13.122	1004.565	767.832
123.322	13.325	1003.229	767.687
124.337	13.121	1002.442	766.069
125.352	13.127	1001.522	765.329
126.366	13.194	1000.274	764.618
127.381	13.357	999.068	764.380
128.395	13.313	998.347	763.558
129.410	13.289	997.368	762.631
130.424	13.370	996.364	762.167
131.439	13.379	995.505	761.485
132.454	13.358	994.777	760.765
133.468	13.409	994.139	760.442
134.483	13.402	993.205	759.630
135.497	13.330	992.546	758.728
136.512	13.390	991.147	757.865
137.527	13.403	990.797	757.590
138.541	13.365	990.039	756.773
139.556	13.451	989.790	756.909
140.570	13.569	988.728	756.568
141.585	13.595	987.335	755.551
142.600	13.465	986.843	754.518
143.614	13.654	985.627	754.381
144.629	13.613	984.913	753.580
145.643	13.671	983.637	752.803
146.658	13.582	982.772	751.671
147.673	13.576	981.926	750.929
148.687	13.448	981.552	749.996
149.702	13.546	979.904	749.111
150.716	13.474	979.445	748.369
151.731	13.445	978.781	747.665
152.746	13.409	977.940	746.797
153.760	13.512	977.244	746.662
154.775	13.507	976.733	746.184
155.789	13.629	976.133	746.208
156.804	13.562	974.966	744.951
157.819	13.597	974.663	744.807
158.833	13.685	973.957	744.598
159.848	13.716	972.955	743.904
160.862	13.581	972.101	742.583
161.877	13.583	970.954	741.650
162.892	13.469	970.169	740.474
163.906	13.508	969.249	739.880
164.921	13.591	968.433	739.564
165.935	13.557	967.051	738.292
166.950	13.493	966.460	737.489
167.964	13.383	965.659	736.323
168.979	13.608	964.630	736.471
169.994	13.619	963.357	735.483
171.008	13.694	962.936	735.430
172.023	13.712	962.515	735.123
173.037	13.720	961.819	734.563
174.052	13.692	961.193	733.897
175.067	13.576	960.232	732.582
176.081	13.731	959.527	732.668
177.096	13.504	959.189	731.343
178.110	13.627	958.586	731.359
179.125	13.680	958.174	731.216
180.140	13.652	957.667	730.639
181.154	13.524	957.470	729.860
182.169	13.728	956.952	730.297
183.183	13.748	955.627	729.313
184.198	13.746	955.031	728.782
185.213	13.776	954.292	728.284
186.227	13.962	953.589	728.502
187.242	13.972	953.138	728.135
188.256	14.012	952.480	727.745
189.271	13.935	951.946	726.935
190.286	13.819	950.702	725.414
191.300	13.708	950.575	724.766
192.315	13.651	949.870	723.917
193.329	13.673	949.295	723.512
194.344	13.690	948.763	723.114
195.359	13.816	948.118	723.108
196.373	13.918	947.049	722.674
197.388	13.819	947.091	722.208
198.402	14.071	945.929	722.355
199.417	14.131	945.504	722.226
200.432	14.039	945.107	721.461
201.446	14.139	944.613	721.454
202.461	14.273	943.844	721.382
203.475	14.215	942.917	720.361
204.490	14.058	942.662	719.421
205.504	14.053	941.501	718.452
206.519	14.148	940.947	718.376
207.534	14.126	940.375	717.777
208.548	14.075	939.898	717.129
209.563	14.137	938.949	716.612
210.577	14.261	938.217	716.522
211.592	14.245	937.762	716.041
212.607	14.211	937.061	715.297
213.621	14.376	936.168	715.260
214.636	14.235	935.280	713.914
215.650	14.342	934.657	713.835
216.665	14.460	933.931	713.724
217.680	14.330	933.226	712.567
218.694	14.352	932.697	712.190
219.709	14.457	931.920	711.982
220.723	14.474	931.120	711.382
221.738	14.373	930.889	710.712
222.753	14.321	930.433	710.079
223.767	14.422	929.622	709.828
224.782	14.421	929.756	709.862
225.796	14.527	928.342	709.173
226.811	14.459	927.818	708.420
227.826	14.423	927.125	707.674
228.840	14.314	926.623	706.768
229.855	14.417	925.471	706.261
230.869	14.492	924.772	705.985
231.884	14.407	924.285	705.192
232.899	14.426	923.408	704.538
233.913	14.340	922.879	703.709
234.928	14.443	922.105	703.494
235.942	14.409	921.317	702.685
236.957	14.401	920.960	702.316
237.972	14.488	920.502	702.271
238.986	14.409	920.046	701.529
240.001	14.499	919.296	701.275
241.015	14.559	918.314	700.715
242.030	14.578	918.025	700.511
243.045	14.519	917.392	699.718
244.059	14.498	917.080	699.332
245.074	14.552	915.985	698.661
246.088	14.583	915.261	698.178
247.103	14.592	914.916	697.888
248.117	14.678	914.019	697.502
249.132	14.781	913.304	697.326
250.147	14.801	912.893	697.031
251.161	14.774	912.848	696.824
252.176	14.877	911.774	696.373
253.190	14.943	910.682	695.753
254.205	14.918	910.355	695.336
255.220	15.014	909.445	694.978
256.234	15.023	908.898	694.536
257.249	14.951	908.288	693.709
258.263	15.065	907.671	693.650
259.278	14.968	906.807	692.528
260.293	15.001	906.376	692.274
261.307	15.070	905.675	691.961
262.322	15.078	904.959	691.385
263.336	15.061	904.374	690.806
264.351	15.113	903.384	690.206
265.366	15.246	902.860	690.291
266.380	15.286	902.394	690.038
267.395	15.097	901.623	688.609
268.409	15.096	901.179	688.207
269.424	15.112	899.885	687.220
270.439	15.156	899.511	687.055
271.453	15.103	898.756	686.204
272.468	15.104	898.123	685.663
273.482	15.304	897.021	685.578
274.497	15.237	896.792	685.069
275.512	15.134	896.360	684.257
276.526	15.160	895.733	683.822
277.541	15.409	894.892	684.135
278.555	15.320	894.709	683.571
279.570	15.325	894.048	683.028
280.585	15.377	893.267	682.582
281.599	15.370	892.448	681.868
282.614	15.320	891.498	680.879
283.628	15.306	891.333	680.635
284.643	15.347	890.432	680.054
285.657	15.357	889.867	679.604
286.672	15.394	889.195	679.178
287.687	15.434	888.351	678.635
288.701	15.540	887.963	678.708
289.716	15.486	887.139	677.799
290.730	15.506	886.762	677.534
291.745	15.336	886.162	676.327
292.760	15.550	885.552	676.665
293.774	15.597	885.076	676.430
294.789	15.699	884.181	676.099
295.803	15.508	883.459	674.717
296.818	15.487	882.857	674.114
297.833	15.601	882.600	674.315
298.847	15.592	881.245	673.183
299.862	15.700	880.657	673.109
300.876	15.671	880.408	672.744
301.891	15.721	879.703	672.346
302.906	15.735	879.412	672.119
303.920	15.861	878.901	672.171
304.935	15.760	878.401	671.328
305.949	15.819	877.466	670.786
306.964	15.881	876.836	670.494
307.979	15.840	876.089	669.701
308.993	15.808	875.507	669.070
310.008	15.827	875.340	668.958
311.022	15.736	874.426	667.840
312.037	15.780	874.001	667.629
313.052	15.672	873.536	666.789
314.066	15.665	873.036	666.319
315.081	15.646	872.445	665.735
316.095	15.808	871.272	665.419
317.110	15.865	870.921	665.319
318.125	15.752	870.685	664.634
319.139	15.661	870.503	664.075
320.154	15.774	869.443	663.653
321.168	15.972	868.234	663.451
322.183	15.892	868.179	663.037
323.197	15.775	868.064	662.430
324.212	15.893	867.491	662.397
325.227	15.961	866.736	662.031
326.241	15.871	866.006	661.060
327.256	15.818	865.693	660.555
328.270	15.802	865.074	659.960
329.285	15.924	864.093	659.633
330.300	15.996	863.612	659.490
331.314	15.796	863.346	658.445
332.329	15.954	862.558	658.404
333.343	16.047	862.311	658.519
334.358	16.047	861.931	658.172
335.373	15.980	861.622	657.616
336.387	16.142	861.013	657.724
337.402	16.093	861.025	657.484
338.416	16.185	860.551	657.423
339.431	16.166	860.152	656.986
340.446	16.244	859.665	656.858
341.460	16.264	859.001	656.370
342.475	16.241	858.898	656.143
343.489	16.286	858.576	656.015
344.504	16.359	857.907	655.729
345.519	16.329	857.546	655.278
346.533	16.379	856.813	654.855
347.548	16.400	856.143	654.368
348.562	16.357	855.761	653.851
349.577	16.182	855.156	652.652
350.592	16.171	854.135	651.775
351.606	16.290	853.820	651.935
352.621	16.288	852.750	651.055
353.635	16.474	852.355	651.411
354.650	16.316	851.701	650.244
355.665	16.337	851.324	649.981
356.679	16.406	850.595	649.632
357.694	16.436	849.903	649.163
358.708	16.446	849.482	648.820
359.723	16.427	848.812	648.178
360.738	16.381	848.291	647.548
361.752	16.460	847.641	647.295
362.767	16.587	846.947	647.193
363.781	16.544	846.286	646.468
364.796	16.591	845.951	646.334
365.810	16.647	845.416	646.081
366.825	16.677	845.460	646.174
367.840	16.707	844.704	645.651
368.854	16.693	843.880	644.913
369.869	16.622	843.850	644.561
370.883	16.733	843.226	644.449
371.898	16.649	842.748	643.708
372.913	16.754	842.525	643.881
373.927	16.797	841.661	643.324
374.942	16.849	841.428	643.290
375.956	16.787	841.176	642.805
376.971	16.906	840.394	642.601
377.986	16.951	840.295	642.637
379.000	16.827	839.679	641.641
380.015	16.942	839.274	641.711
381.029	16.949	838.468	641.063
382.044	16.922	837.966	640.519
383.059	17.034	837.331	640.401
384.073	16.930	836.928	639.645
385.088	16.920	836.031	638.866
386.102	16.921	835.600	638.480
387.117	16.939	834.965	638.007
388.132	16.952	834.115	637.351
389.146	16.908	833.845	636.923
390.161	17.027	833.466	637.025
391.175	17.137	833.021	637.039
392.190	17.054	832.386	636.188
393.205	16.993	831.784	635.442
394.219	17.016	831.925	635.579
395.234	17.003	831.263	634.968
396.248	17.071	830.538	634.614
397.263	16.813	830.574	633.619
398.278	16.998	830.073	633.872
399.292	16.894	829.811	633.229
400.307	16.932	829.219	632.861
401.321	17.057	828.574	632.780
402.336	17.242	827.852	632.862
403.350	17.148	827.393	632.105
404.365	17.136	827.133	631.808
405.380	17.121	826.570	631.265
406.394	17.115	826.184	630.891
407.409	17.388	825.301	631.176
408.423	17.322	825.209	630.804
409.438	17.232	825.090	630.322
410.453	17.400	824.271	630.265
411.467	17.415	823.820	629.919
412.482	17.472	823.603	629.907
413.496	17.545	823.179	629.796
414.511	17.449	823.002	629.250
415.526	17.491	822.139	628.690
416.540	17.387	821.979	628.130
417.555	17.455	821.409	627.890
418.569	17.629	820.411	627.713
419.584	17.634	820.414	627.677
420.599	17.521	820.120	626.980
421.613	95.243	1274.022	1396.156
422.628	81.949	1340.154	1396.283
