DTS Sentinel unit serial number:	SN413079Multiplexer serial number:	ORYXHardware model number:	OX4-SRSoftware version number:	ORYX F/W v4.00 Oryx Data Collector v3.7.2.0data status	okinstallation	princeton_trtdifferential loss correction	single-endedforward channel	channel 1reverse channel	N/Adate	2019/09/13time	07:18:35forward acquisition time	60.00reverse acquisition time	0.00gamma	496.2192k internal	0.2335k external	0.2335temperature offset calibration	1.0160default loss term (dB/km)	0.3790temperature slope calibration	1.0000multiplexer offset coefficient	1.0000multiplexer slope coefficient	1.0000fibre end	0.00T internal ref (°C)	26.06T ext. ref 1 (°C)	4.16T ext. ref 2 (°C)	21.50length (m)	temperature (°C)	Stokes	anti-Stokes-747.200	63.948	-0.148	0.149
-746.185	386.869	-0.110	0.229
-745.171	-52.862	0.146	-0.068
-744.156	14.387	0.167	0.131
-743.142	336.535	0.073	-0.142
-742.127	-200.000	0.039	-0.322
-741.112	-86.223	0.093	0.029
-740.098	-57.790	-0.023	-0.010
-739.083	593.086	0.046	-0.115
-738.069	-44.798	0.019	-0.009
-737.054	-20.630	-0.234	-0.144
-736.039	-48.716	-0.168	0.081
-735.025	685.219	-0.053	0.138
-734.010	10.788	-0.194	-0.149
-732.996	-31.294	-0.042	0.024
-731.981	-84.134	-0.109	-0.035
-730.966	276.201	-0.280	0.499
-729.952	-74.054	0.037	-0.013
-728.937	19.492	-0.181	0.146
-727.923	100.202	-0.210	-0.244
-726.908	-200.000	0.049	-0.261
-725.894	96.905	-0.076	0.088
-724.879	-200.000	0.020	-0.130
-723.864	800.000	-0.053	0.152
-722.850	118.300	0.042	0.052
-721.835	584.683	0.043	-0.106
-720.821	-81.096	0.129	-0.043
-719.806	-158.724	-0.599	0.034
-718.791	36.910	-0.270	0.240
-717.777	305.370	-0.096	0.180
-716.762	-200.000	-0.025	0.140
-715.748	-13.442	0.105	-0.069
-714.733	-11.636	-0.171	-0.113
-713.718	-200.000	-0.022	-0.394
-712.704	58.691	0.053	-0.052
-711.689	-200.000	0.039	0.204
-710.675	184.773	-0.168	-0.250
-709.660	-34.718	0.274	-0.150
-708.645	-43.466	0.195	-0.099
-707.631	-51.234	-0.196	-0.092
-706.616	-173.637	-0.271	-0.008
-705.602	-80.881	-0.159	0.053
-704.587	-140.203	0.236	0.025
-703.572	-200.000	-0.023	0.168
-702.558	197.262	0.218	-0.334
-701.543	4.998	-0.089	0.066
-700.529	800.000	-0.072	-0.208
-699.514	-196.851	0.013	0.000
-698.499	-200.000	0.006	-0.112
-697.485	195.437	0.205	0.313
-696.470	800.000	0.012	-0.040
-695.456	-7.591	-0.093	-0.063
-694.441	-9.934	-0.115	-0.077
-693.426	-16.624	0.083	-0.052
-692.412	800.000	0.049	-0.203
-691.397	282.552	0.140	-0.252
-690.383	51.810	-0.094	-0.090
-689.368	-80.581	-0.190	0.064
-688.354	131.454	0.131	-0.168
-687.339	-184.644	-0.261	0.004
-686.324	-127.268	-0.334	0.049
-685.310	251.806	-0.035	-0.060
-684.295	-106.404	-0.230	-0.052
-683.281	450.399	-0.112	-0.248
-682.266	13.360	-0.220	-0.171
-681.251	-200.000	-0.002	0.076
-680.237	-37.374	-0.176	-0.094
-679.222	800.000	-0.053	-0.206
-678.208	-40.817	0.114	-0.059
-677.193	-43.391	0.137	0.069
-676.178	109.265	-0.129	-0.155
-675.164	-18.857	0.103	-0.064
-674.149	3.875	-0.032	-0.024
-673.135	-28.360	0.273	0.158
-672.120	76.894	-0.133	0.142
-671.105	-87.154	0.098	0.030
-670.091	187.282	-0.102	-0.152
-669.076	116.793	0.185	-0.227
-668.062	-200.000	-0.043	-0.227
-667.047	428.805	0.081	-0.175
-666.032	-157.495	-0.138	-0.008
-665.018	36.404	-0.284	0.251
-664.003	-15.389	-0.228	-0.146
-662.989	-25.655	0.237	0.140
-661.974	149.463	-0.150	0.204
-660.959	-200.000	-0.016	-0.098
-659.945	297.596	0.079	0.146
-658.930	-200.000	0.017	0.136
-657.916	94.367	0.104	-0.118
-656.901	-200.000	0.039	0.222
-655.886	-101.650	-0.484	-0.117
-654.872	-81.712	-0.269	0.088
-653.857	226.257	-0.078	-0.127
-652.843	169.611	0.120	0.171
-651.828	-129.297	-0.377	-0.052
-650.814	-148.822	-0.281	0.023
-649.799	716.823	0.028	0.075
-648.784	800.000	-0.061	0.256
-647.770	4.340	0.221	0.162
-646.755	-129.563	0.146	-0.020
-645.741	349.036	-0.136	0.270
-644.726	-150.295	0.245	-0.019
-643.711	800.000	0.042	-0.183
-642.697	-46.904	-0.387	-0.189
-641.682	19.559	-0.233	-0.187
-640.668	800.000	-0.060	0.192
-639.653	445.743	0.016	-0.034
-638.638	31.574	0.083	0.072
-637.624	67.116	-0.046	0.047
-636.609	-36.688	0.064	-0.034
-635.595	595.239	-0.095	0.236
-634.580	113.049	0.062	0.075
-633.565	-183.974	-0.326	-0.005
-632.551	-127.277	-0.161	-0.024
-631.536	18.492	0.154	-0.123
-630.522	172.406	-0.089	-0.128
-629.507	503.029	0.044	-0.101
-628.492	411.877	0.099	-0.211
-627.478	39.454	-0.235	-0.211
-626.463	-107.763	0.112	0.024
-625.449	-68.322	0.109	-0.042
-624.434	4.109	-0.264	-0.193
-623.419	140.435	0.153	0.202
-622.405	800.000	-0.096	0.352
-621.390	800.000	-0.067	0.273
-620.376	-87.441	-0.183	0.055
-619.361	800.000	-0.068	0.195
-618.346	-41.695	0.418	-0.214
-617.332	-200.000	0.029	0.166
-616.317	327.395	0.094	0.180
-615.303	-14.750	-0.239	0.153
-614.288	-21.953	0.187	-0.114
-613.273	-70.034	0.234	0.089
-612.259	-129.469	-0.308	-0.043
-611.244	-156.132	-0.257	0.016
-610.230	-72.082	0.107	-0.040
-609.215	800.000	-0.067	-0.246
-608.201	-161.659	-0.164	0.008
-607.186	800.000	-0.116	-0.373
-606.171	-60.062	-0.147	-0.063
-605.157	-200.000	-0.005	-0.074
-604.142	-165.753	0.149	0.006
-603.128	112.776	-0.081	0.098
-602.113	-106.525	-0.062	-0.014
-601.098	800.000	-0.099	0.361
-600.084	-57.581	-0.286	0.125
-599.069	27.382	0.106	-0.089
-598.055	-84.131	0.212	-0.067
-597.040	214.936	-0.177	-0.281
-596.025	-200.000	0.424	0.000
-595.011	800.000	-0.020	0.071
-593.996	-200.000	-0.016	0.205
-592.982	-49.145	0.224	0.107
-591.967	-181.724	0.235	0.005
-590.952	607.154	-0.025	-0.062
-589.938	187.722	0.110	-0.164
-588.923	492.697	-0.075	-0.171
-587.909	75.190	0.142	0.149
-586.894	-121.519	0.155	0.026
-585.879	-155.928	-0.436	-0.028
-584.865	284.874	0.127	0.228
-583.850	-139.751	-0.089	0.009
-582.836	506.650	-0.141	0.327
-581.821	55.043	0.323	0.311
-580.806	558.646	-0.040	0.097
-579.792	-149.836	0.200	0.016
-578.777	46.844	-0.302	-0.280
-577.763	-200.000	-0.019	0.386
-576.748	-200.000	0.041	0.219
-575.733	306.157	0.150	-0.278
-574.719	-79.437	-0.101	-0.034
-573.704	93.283	-0.164	-0.185
-572.690	-74.053	0.360	0.130
-571.675	-42.307	0.197	-0.100
-570.661	-65.690	0.289	0.116
-569.646	800.000	-0.010	-0.030
-568.631	-200.000	0.021	0.104
-567.617	124.117	0.048	-0.060
-566.602	114.201	0.079	0.096
-565.588	48.817	0.077	-0.072
-564.573	36.591	-0.108	0.095
-563.558	-200.000	-0.021	0.111
-562.544	-21.494	-0.110	-0.067
-561.529	-45.131	-0.260	0.129
-560.515	524.230	0.127	-0.297
-559.500	800.000	0.046	-0.148
-558.485	17.955	-0.294	-0.234
-557.471	-200.000	-0.003	-0.058
-556.456	-158.196	-0.369	-0.021
-555.442	8.981	-0.104	0.078
-554.427	800.000	-0.046	-0.169
-553.412	99.418	-0.142	0.163
-552.398	663.206	0.171	0.439
-551.383	37.301	-0.107	0.094
-550.369	40.630	-0.108	-0.097
-549.354	-21.348	-0.450	-0.274
-548.339	41.928	0.079	-0.072
-547.325	-200.000	-0.049	0.252
-546.310	-83.077	0.242	-0.078
-545.296	673.466	0.088	0.228
-544.281	-51.311	0.304	0.142
-543.266	82.382	-0.219	-0.237
-542.252	721.212	0.047	-0.125
-541.237	179.533	0.096	-0.140
-540.223	-179.181	0.066	-0.001
-539.208	-64.991	0.195	-0.078
-538.193	800.000	-0.050	-0.150
-537.179	-150.076	-0.133	0.010
-536.164	-200.000	0.023	0.122
-535.150	800.000	0.048	0.153
-534.135	-200.000	0.008	0.168
-533.121	-200.000	0.066	-0.296
-532.106	-84.475	-0.152	0.048
-531.091	59.570	-0.207	-0.204
-530.077	-19.033	-0.083	-0.051
-529.062	34.763	0.144	-0.126
-528.048	-19.634	0.168	-0.104
-527.033	-132.686	-0.096	0.012
-526.018	84.358	-0.201	0.219
-525.004	115.130	-0.063	0.076
-523.989	11.725	0.174	-0.133
-522.975	488.070	0.036	-0.081
-521.960	-200.000	-0.005	-0.105
-520.945	-200.000	0.073	0.364
-519.931	-166.724	-0.083	0.003
-518.916	191.992	0.105	0.158
-517.902	460.987	0.071	0.158
-516.887	800.000	0.008	-0.025
-515.872	-96.392	-0.304	-0.080
-514.858	-47.912	0.036	-0.017
-513.843	-200.000	-0.030	-0.215
-512.829	74.640	-0.234	-0.245
-511.814	110.014	-0.167	-0.199
-510.799	-90.178	-0.140	-0.040
-509.785	-200.000	0.015	0.097
-508.770	-92.682	-0.329	0.092
-507.756	244.176	-0.187	0.312
-506.741	93.914	0.160	-0.181
-505.726	710.786	-0.074	-0.195
-504.712	218.561	-0.111	-0.176
-503.697	73.612	0.052	-0.054
-502.683	-118.007	0.204	-0.036
-501.668	-200.000	-0.046	0.307
-500.653	-66.721	-0.294	0.116
-499.639	-159.892	0.250	-0.014
-498.624	800.000	0.085	-0.249
-497.610	-121.473	0.223	0.037
-496.595	-77.726	-0.159	-0.055
-495.581	800.000	0.065	-0.257
-494.566	-159.113	-0.189	-0.011
-493.551	-49.396	-0.113	0.053
-492.537	53.929	0.144	0.137
-491.522	-98.916	-0.108	0.027
-490.508	13.959	-0.182	0.141
-489.493	-131.809	0.040	0.005
-488.478	-103.456	-0.379	-0.089
-487.464	-29.015	0.116	0.066
-486.449	-13.455	0.209	0.135
-485.435	-26.514	0.418	0.244
-484.420	542.135	-0.083	-0.198
-483.405	-138.239	-0.171	-0.019
-482.391	-12.366	-0.181	-0.117
-481.376	39.786	0.059	0.053
-480.362	119.814	0.228	-0.281
-479.347	-200.000	0.066	0.368
-478.332	-62.147	0.185	0.077
-477.318	-154.698	-0.458	-0.030
-476.303	-174.179	-0.330	0.010
-475.289	543.770	0.122	0.289
-474.274	-122.493	-0.136	-0.022
-473.259	118.370	0.178	-0.219
-472.245	-170.371	-0.109	-0.004
-471.230	115.016	-0.031	-0.037
-470.216	-200.000	0.000	0.137
-469.201	-47.200	-0.139	-0.067
-468.186	800.000	-0.087	-0.370
-467.172	-44.109	-0.116	0.058
-466.157	740.301	0.061	-0.163
-465.143	-169.029	0.405	0.015
-464.128	-90.313	-0.381	-0.110
-463.113	224.590	0.057	0.092
-462.099	-53.296	-0.221	0.101
-461.084	9.648	0.255	0.192
-460.070	91.078	-0.109	-0.122
-459.055	137.961	-0.155	-0.202
-458.040	-141.464	0.063	0.006
-457.026	597.845	0.070	-0.171
-456.011	800.000	0.029	-0.092
-454.997	-200.000	0.000	-0.150
-453.982	-116.566	-0.235	0.043
-452.968	-52.899	0.234	0.107
-451.953	-72.741	0.292	0.107
-450.938	652.452	-0.030	0.076
-449.924	38.053	-0.318	0.281
-448.909	-6.793	-0.128	-0.086
-447.895	148.249	0.085	-0.114
-446.880	-200.000	-0.093	-0.537
-445.865	121.859	-0.199	-0.247
-444.851	79.367	0.128	-0.136
-443.836	-99.417	-0.108	-0.027
-442.822	800.000	-0.010	-0.032
-441.807	15.587	-0.188	0.147
-440.792	800.000	0.062	-0.208
-439.778	-200.000	-0.010	0.047
-438.763	440.790	0.018	-0.039
-437.749	-137.711	0.057	-0.006
-436.734	206.771	0.077	0.119
-435.719	4.629	-0.197	-0.144
-434.705	37.060	-0.117	0.103
-433.690	-159.227	-0.113	-0.006
-432.676	-200.000	0.024	-0.159
-431.661	-117.551	-0.214	0.038
-430.646	172.106	0.134	-0.191
-429.632	-110.037	0.075	0.016
-428.617	39.823	-0.163	0.145
-427.603	-47.120	-0.200	0.097
-426.588	800.000	0.035	0.143
-425.573	-59.019	-0.117	-0.050
-424.559	303.350	-0.152	-0.280
-423.544	302.851	-0.127	-0.233
-422.530	-155.522	0.116	-0.007
-421.515	-125.844	0.357	-0.053
-420.500	65.679	0.208	-0.209
-419.486	-121.246	-0.069	0.011
-418.471	-8.379	-0.300	-0.200
-417.457	-150.278	-0.189	-0.014
-416.442	-200.000	-0.001	0.083
-415.428	-33.042	-0.176	-0.097
-414.413	-106.161	0.061	0.014
-413.398	-200.000	-0.012	-0.387
-412.384	-200.000	-0.007	-0.426
-411.369	-49.823	0.294	0.139
-410.355	263.052	0.203	0.349
-409.340	-200.000	-0.031	0.145
-408.325	307.552	-0.034	-0.064
-407.311	-129.426	-0.429	0.059
-406.296	422.887	0.043	-0.092
-405.282	81.046	0.141	-0.151
-404.267	134.025	0.158	0.203
-403.252	-85.776	0.246	-0.076
-402.238	-104.348	0.235	-0.054
-401.223	800.000	0.088	-0.294
-400.209	800.000	0.036	-0.111
-399.194	-22.355	-0.115	0.069
-398.179	124.422	-0.144	0.179
-397.165	-10.122	0.063	0.041
-396.150	209.399	-0.026	-0.041
-395.136	308.293	-0.155	0.286
-394.121	66.218	-0.268	0.269
-393.106	-200.000	-0.029	0.343
-392.092	-103.593	-0.172	0.040
-391.077	141.131	0.115	-0.151
-390.063	99.004	-0.159	0.183
-389.048	31.866	0.118	0.101
-388.033	161.598	0.221	0.307
-387.019	686.381	-0.012	0.032
-386.004	190.722	0.164	0.245
-384.990	800.000	0.098	0.268
-383.975	-17.691	0.137	0.085
-382.960	55.106	0.307	0.294
-381.946	488.337	-0.135	0.306
-380.931	45.450	-0.080	-0.074
-379.917	174.300	0.146	0.209
-378.902	358.829	-0.060	-0.120
-377.888	-200.000	0.026	0.126
-376.873	13.833	0.207	-0.160
-375.858	800.000	-0.014	0.052
-374.844	-189.434	0.097	-0.001
-373.829	433.177	-0.099	-0.214
-372.815	-121.862	-0.258	-0.042
-371.800	85.498	-0.225	-0.245
-370.785	-141.411	-0.212	-0.021
-369.771	-120.617	-0.023	0.004
-368.756	-95.016	-0.330	0.088
-367.742	-73.151	0.165	-0.060
-366.727	57.998	-0.239	-0.232
-365.712	-200.000	0.052	0.237
-364.698	411.947	-0.120	-0.252
-363.683	-69.988	-0.499	-0.188
-362.669	252.183	-0.044	-0.074
-361.654	-32.167	0.323	-0.179
-360.639	-7.190	-0.215	-0.144
-359.625	-84.558	-0.099	-0.031
-358.610	-111.003	-0.128	0.026
-357.596	213.900	0.125	0.196
-356.581	-64.813	0.066	0.027
-355.566	5.521	-0.233	-0.170
-354.552	-200.000	0.002	-0.025
-353.537	-33.689	0.245	0.134
-352.523	79.290	0.232	0.246
-351.508	-200.000	0.071	0.339
-350.493	118.498	0.243	0.296
-349.479	-67.897	-0.040	0.015
-348.464	7.489	-0.275	-0.203
-347.450	197.754	0.187	-0.282
-346.435	81.879	0.037	-0.039
-345.420	-200.000	0.008	0.208
-344.406	414.803	-0.133	0.279
-343.391	-94.702	0.242	0.065
-342.377	-174.433	0.280	-0.008
-341.362	32.275	-0.275	-0.234
-340.348	-50.576	0.344	0.161
-339.333	51.904	0.195	0.183
-338.318	83.885	-0.197	-0.213
-337.304	-98.045	0.137	-0.035
-336.289	61.270	0.114	0.112
-335.275	80.285	-0.034	-0.037
-334.260	800.000	-0.034	-0.143
-333.245	-116.495	0.291	-0.053
-332.231	39.849	0.198	0.176
-331.216	-23.742	0.291	0.172
-330.202	251.076	-0.024	0.040
-329.187	34.066	0.192	-0.165
-328.172	-191.619	0.112	0.001
-327.158	800.000	-0.028	-0.086
-326.143	24.642	0.048	-0.039
-325.129	-29.106	0.144	-0.082
-324.114	-200.000	-0.021	-0.137
-323.099	-200.000	0.019	-0.259
-322.085	214.010	0.148	-0.231
-321.070	13.342	0.170	0.131
-320.056	800.000	0.038	-0.141
-319.041	48.696	0.148	-0.137
-318.026	-111.069	-0.232	-0.047
-317.012	-122.707	-0.377	-0.060
-315.997	-118.219	0.215	0.038
-314.983	7.014	-0.076	-0.056
-313.968	-91.795	-0.178	0.050
-312.953	-41.323	0.088	-0.045
-311.939	3.302	0.233	-0.168
-310.924	-69.348	0.154	-0.058
-309.910	-5.327	0.230	0.156
-308.895	-7.392	0.077	0.052
-307.880	-46.568	0.311	-0.151
-306.866	800.000	-0.089	0.273
-305.851	-120.331	0.411	-0.069
-304.837	7.764	-0.385	0.284
-303.822	273.567	-0.016	0.028
-302.807	-49.518	0.141	-0.066
-301.793	-37.300	0.257	0.136
-300.778	313.522	-0.130	0.242
-299.764	714.418	0.049	0.129
-298.749	-85.858	-0.109	-0.033
-297.735	-47.139	0.248	0.119
-296.720	50.204	0.256	0.239
-295.705	-156.247	-0.210	-0.013
-294.691	-132.527	-0.386	-0.049
-293.676	-123.639	0.330	0.052
-292.662	-200.000	-0.001	-0.178
-291.647	-51.631	0.109	0.050
-290.632	-28.779	-0.061	0.034
-289.618	187.789	0.106	-0.156
-288.603	46.486	-0.230	-0.211
-287.589	-200.000	-0.038	0.261
-286.574	800.000	-0.034	-0.139
-285.559	190.394	-0.144	0.214
-284.545	407.916	-0.068	-0.143
-283.530	374.009	-0.095	0.190
-282.516	-200.000	0.004	-0.073
-281.501	-109.600	0.152	0.032
-280.486	49.170	0.242	0.225
-279.472	-107.175	0.138	0.030
-278.457	800.000	0.094	0.287
-277.443	-13.707	-0.257	0.164
-276.428	-200.000	0.030	0.388
-275.413	-98.204	0.171	0.043
-274.399	-19.982	0.067	0.041
-273.384	-200.000	0.005	-0.096
-272.370	-84.795	-0.186	-0.058
-271.355	311.715	-0.227	-0.420
-270.340	-42.822	-0.112	-0.056
-269.326	-7.470	0.147	0.098
-268.311	-200.000	-0.025	0.616
-267.297	53.329	-0.085	0.081
-266.282	-48.738	-0.179	-0.085
-265.267	57.770	-0.048	-0.046
-264.253	-53.559	-0.042	0.019
-263.238	155.392	-0.233	-0.316
-262.224	800.000	0.050	-0.184
-261.209	-96.677	0.309	0.080
-260.195	-161.944	-0.221	0.011
-259.180	-6.825	0.227	0.152
-258.165	-63.120	0.366	-0.149
-257.151	-200.000	-0.026	-0.336
-256.136	112.687	0.204	-0.243
-255.122	800.000	-0.099	0.271
-254.107	520.192	0.055	0.127
-253.092	51.192	0.099	-0.093
-252.078	800.000	0.027	0.103
-251.063	-126.842	0.207	0.030
-250.049	91.024	-0.203	-0.224
-249.034	116.386	-0.047	-0.057
-248.019	-37.538	-0.148	-0.078
-247.005	-2.141	-0.194	-0.134
-245.990	800.000	-0.076	0.218
-244.976	-200.000	0.016	0.116
-243.961	-200.000	-0.010	0.049
-242.946	-200.000	0.019	-0.403
-241.932	-43.494	0.182	-0.091
-240.917	2.971	-0.095	0.068
-239.903	-200.000	0.030	0.231
-238.888	209.707	-0.070	0.107
-237.873	93.197	0.158	0.176
-236.859	-63.273	0.194	0.079
-235.844	16.020	-0.264	0.205
-234.830	791.634	0.011	-0.031
-233.815	49.321	0.115	-0.106
-232.800	253.071	0.074	0.124
-231.786	800.000	0.047	-0.162
-230.771	104.886	-0.102	0.118
-229.757	-200.000	-0.044	-0.351
-228.742	-19.755	-0.173	0.105
-227.727	-200.000	-0.063	0.349
-226.713	-162.625	-0.232	-0.011
-225.698	105.177	0.207	-0.240
-224.684	56.714	0.258	0.247
-223.669	800.000	-0.054	0.231
-222.655	-200.000	-0.018	0.300
-221.640	308.041	-0.106	-0.195
-220.625	95.999	0.062	-0.069
-219.611	196.704	0.295	-0.442
-218.596	498.394	0.051	-0.116
-217.582	38.040	-0.262	-0.229
-216.567	211.894	0.068	0.106
-215.552	-200.000	-0.021	0.265
-214.538	-52.820	-0.174	-0.079
-213.523	-93.991	-0.417	-0.113
-212.509	-113.614	-0.195	-0.037
-211.494	-200.000	-0.044	-0.197
-210.479	-106.583	-0.288	0.063
-209.465	37.577	-0.177	-0.154
-208.450	149.932	0.106	0.141
-207.436	-133.484	0.310	0.038
-206.421	-50.803	-0.130	0.060
-205.406	-36.698	0.175	0.092
-204.392	-98.887	0.281	-0.070
-203.377	-1.403	-0.122	-0.085
-202.363	-200.000	-0.011	-0.255
-201.348	414.934	-0.069	0.144
-200.333	8.932	0.235	-0.174
-199.319	-102.811	-0.391	-0.092
-198.304	-92.345	0.424	-0.117
-197.290	-184.756	0.124	0.002
-196.275	-124.358	0.100	0.015
-195.260	-200.000	0.014	-0.277
-194.246	800.000	-0.116	0.374
-193.231	-160.155	0.318	0.017
-192.217	165.412	-0.169	0.235
-191.202	-200.000	-0.013	-0.290
-190.187	-169.973	0.234	0.008
-189.173	69.669	-0.128	0.130
-188.158	69.198	0.118	-0.119
-187.144	-9.666	-0.096	-0.063
-186.129	346.779	-0.099	0.191
-185.114	567.967	-0.054	-0.128
-184.100	92.542	0.148	0.164
-183.085	-124.891	0.164	0.025
-182.071	349.855	0.126	0.244
-181.056	-200.000	-0.016	0.119
-180.042	-200.000	0.027	-0.315
-179.027	-83.303	-0.316	0.100
-178.012	-54.158	0.227	0.101
-176.998	800.000	0.093	-0.289
-175.983	-14.591	-0.141	0.089
-174.969	-167.857	0.376	-0.015
-173.954	-47.968	-0.220	0.104
-172.939	570.952	-0.033	-0.079
-171.925	-62.149	0.242	-0.099
-170.910	178.637	0.023	0.032
-169.896	-0.186	0.263	0.184
-168.881	-200.000	-0.061	-0.481
-167.866	-110.122	-0.098	-0.020
-166.852	229.561	-0.065	-0.104
-165.837	-125.524	0.311	-0.046
-164.823	800.000	-0.102	0.385
-163.808	-161.673	0.150	-0.008
-162.793	-200.000	0.057	0.291
-161.779	-93.229	0.069	0.019
-160.764	-200.000	-0.051	-0.275
-159.750	229.891	-0.077	-0.123
-158.735	-22.363	-0.053	0.031
-157.720	-129.749	-0.135	0.018
-156.706	800.000	0.015	0.060
-155.691	102.049	0.047	0.054
-154.677	-200.000	0.074	-0.414
-153.662	-186.725	0.348	0.005
-152.647	321.719	-0.072	-0.134
-151.633	-130.579	-0.065	0.009
-150.618	266.467	-0.149	-0.255
-149.604	260.926	0.205	0.349
-148.589	372.189	0.175	0.350
-147.574	381.525	-0.092	-0.185
-146.560	-71.321	-0.238	-0.088
-145.545	186.291	-0.058	-0.085
-144.531	800.000	0.048	0.188
-143.516	-51.717	0.224	-0.102
-142.502	262.812	0.122	-0.207
-141.487	104.199	-0.149	0.172
-140.472	717.194	0.108	0.283
-139.458	-150.827	-0.211	-0.016
-138.443	-85.273	-0.168	0.052
-137.429	800.000	0.111	0.328
-136.414	42.702	0.197	0.176
-135.399	-96.133	0.139	-0.036
-134.385	-6.585	-0.366	0.244
-133.370	113.739	-0.145	-0.173
-132.356	406.010	-0.017	0.036
-131.341	800.000	0.041	0.122
-130.326	563.142	0.057	-0.136
-129.312	-98.581	0.206	-0.052
-128.297	-200.000	-0.019	-0.157
-127.283	-50.397	-0.194	0.090
-126.268	-39.447	-0.102	0.052
-125.253	-200.000	0.004	-0.170
-124.239	-20.651	-0.164	-0.099
-123.224	-200.000	-0.011	0.155
-122.210	289.798	-0.050	-0.089
-121.195	-200.000	0.039	-0.362
-120.180	800.000	-0.119	-0.354
-119.166	95.525	-0.048	-0.054
-118.151	-132.733	0.298	0.037
-117.137	43.040	0.426	0.380
-116.122	-17.839	-0.059	0.036
-115.107	-57.818	0.189	0.081
-114.093	214.167	-0.083	-0.129
-113.078	-156.055	-0.046	0.003
-112.064	377.054	-0.088	0.175
-111.049	-200.000	0.000	0.019
-110.034	-200.000	-0.015	0.178
-109.020	29.871	-0.261	0.218
-108.005	-157.518	-0.237	-0.014
-106.991	-200.000	0.042	-0.213
-105.976	-157.018	-0.149	0.009
-104.962	-107.709	0.383	-0.082
-103.947	-200.000	0.032	0.181
-102.932	155.254	0.108	-0.145
-101.918	800.000	0.086	0.257
-100.903	-200.000	0.040	0.179
-99.889	93.703	-0.030	-0.033
-98.874	242.475	-0.101	-0.166
-97.859	67.331	-0.192	0.192
-96.845	228.442	0.197	0.315
-95.830	26.760	-0.235	0.192
-94.816	-200.000	0.022	-0.402
-93.801	53.021	0.076	-0.071
-92.786	152.660	-0.094	0.126
-91.772	-200.000	-0.023	0.341
-90.757	67.765	-0.214	0.215
-89.743	-83.820	-0.143	-0.045
-88.728	800.000	0.031	-0.098
-87.713	19.897	-0.191	-0.151
-86.699	-200.000	-0.031	-0.151
-85.684	95.574	-0.165	0.185
-84.670	-101.689	-0.250	-0.059
-83.655	516.402	0.062	0.142
-82.640	70.659	0.145	-0.147
-81.626	28.958	0.161	0.134
-80.611	-12.540	0.116	-0.074
-79.597	-25.204	0.190	0.110
-78.582	-200.000	0.273	0.001
-77.567	-94.944	-0.400	-0.106
-76.553	-153.100	-0.070	-0.005
-75.538	87.456	0.063	0.068
-74.524	-67.838	-0.192	-0.073
-73.509	-81.064	-0.399	0.129
-72.494	-200.000	-0.008	-0.255
-71.480	-24.023	0.145	0.085
-70.465	-43.792	0.398	0.196
-69.451	183.320	0.278	-0.401
-68.436	82.967	-0.168	-0.178
-67.422	-112.536	-0.136	0.027
-66.407	-110.448	0.431	0.087
-65.392	-81.316	-0.155	0.050
-64.378	-200.000	-0.034	0.195
-63.363	580.227	-0.073	0.176
-62.349	-64.674	0.252	-0.100
-61.334	182.371	-0.966	-1.393
-60.319	111.790	0.585	0.691
-59.305	800.000	-0.371	-1.168
-58.290	117.822	0.732	0.882
-57.276	767.119	0.616	1.639
-56.261	-200.000	117.511	647.205
-55.246	488.343	1553.812	3470.021
-54.232	173.487	2723.303	3841.581
-53.217	105.327	2156.874	2490.732
-52.203	37.765	1587.444	1378.645
-51.188	29.364	1330.011	1104.950
-50.173	26.513	1291.338	1056.168
-49.159	52.930	1351.026	1263.574
-48.144	50.937	1363.864	1263.649
-47.130	29.423	1317.674	1094.877
-46.115	26.107	1299.801	1060.533
-45.100	26.000	1294.351	1055.421
-44.086	25.865	1291.965	1052.646
-43.071	25.873	1289.614	1050.730
-42.057	25.965	1287.354	1049.388
-41.042	25.958	1285.871	1048.096
-40.027	25.942	1284.139	1046.548
-39.013	25.874	1282.725	1044.961
-37.998	25.971	1280.202	1043.425
-36.984	26.018	1278.781	1042.498
-35.969	26.052	1277.028	1041.220
-34.954	26.126	1274.715	1039.719
-33.940	26.046	1274.073	1038.699
-32.925	26.056	1272.213	1037.193
-31.911	26.061	1271.068	1036.248
-30.896	26.021	1269.482	1034.684
-29.881	26.182	1268.280	1034.585
-28.867	26.295	1266.657	1033.869
-27.852	26.145	1265.698	1032.189
-26.838	26.285	1263.878	1031.463
-25.823	26.176	1263.174	1030.225
-24.809	26.175	1261.420	1028.747
-23.794	26.261	1260.150	1028.160
-22.779	26.147	1258.863	1026.424
-21.765	26.184	1257.509	1025.486
-20.750	26.142	1256.742	1024.580
-19.736	25.978	1255.416	1022.531
-18.721	26.002	1254.024	1021.495
-17.706	25.976	1252.866	1020.363
-16.692	26.128	1251.655	1020.194
-15.677	26.026	1250.529	1018.660
-14.663	26.118	1249.179	1018.037
-13.648	26.008	1248.268	1016.637
-12.633	26.030	1247.490	1016.087
-11.619	25.944	1246.854	1015.041
-10.604	26.036	1245.928	1014.765
-9.590	25.983	1245.008	1013.677
-8.575	26.025	1243.598	1012.727
-7.560	25.979	1242.957	1011.906
-6.546	25.965	1242.413	1011.347
-5.531	25.928	1241.611	1010.442
-4.517	25.892	1240.380	1009.199
-3.502	26.038	1239.343	1009.136
-2.487	26.108	1238.127	1008.497
-1.473	26.009	1234.283	1004.770
-0.458	24.518	1220.222	985.067
0.556	22.954	1204.151	949.783
1.571	19.424	1210.228	935.386
2.586	18.794	1224.868	943.160
3.600	18.538	1213.362	932.827
4.615	14.303	1141.717	855.944
5.629	7.390	1070.558	769.100
6.644	4.476	1053.112	742.587
7.659	4.161	1051.033	739.552
8.673	4.003	1049.626	737.742
9.688	3.981	1048.158	736.539
10.702	4.369	1046.342	737.040
11.717	8.908	1052.305	762.815
12.731	16.412	1062.862	806.336
13.746	21.226	1068.604	833.658
14.761	22.056	1069.732	838.430
15.775	21.444	1067.490	833.682
16.790	20.452	1065.893	827.636
17.804	19.855	1064.734	823.821
18.819	19.446	1063.953	821.195
19.834	19.617	1062.781	821.034
20.848	19.534	1062.293	820.188
21.863	19.223	1062.124	818.511
22.877	19.053	1061.139	816.870
23.892	19.204	1060.078	816.698
24.907	19.106	1059.006	815.335
25.921	18.949	1058.281	813.963
26.936	18.992	1056.899	813.029
27.950	19.115	1055.595	812.536
28.965	19.177	1054.421	811.853
29.980	19.309	1053.355	811.581
30.994	19.435	1052.040	811.087
32.009	19.396	1051.279	810.245
33.023	19.278	1050.539	809.052
34.038	19.302	1048.807	807.758
35.053	19.182	1047.964	806.476
36.067	19.131	1047.641	805.919
37.082	19.318	1046.497	805.842
38.096	19.278	1046.341	805.463
39.111	19.307	1045.856	805.154
40.126	19.094	1043.960	802.626
41.140	18.872	1042.343	800.280
42.155	18.717	1041.141	798.568
43.169	18.671	1039.737	797.205
44.184	18.575	1039.191	796.271
45.199	18.654	1038.139	795.760
46.213	18.890	1037.080	795.969
47.228	19.058	1036.970	796.594
48.242	19.098	1035.747	795.771
49.257	19.083	1034.751	794.861
50.271	19.074	1034.332	794.431
51.286	19.301	1033.242	794.569
52.301	19.151	1031.810	792.709
53.315	18.907	1031.112	790.979
54.330	18.966	1029.838	790.203
55.344	18.827	1028.652	788.583
56.359	18.943	1028.321	788.794
57.374	18.842	1027.591	787.698
58.388	18.726	1026.507	786.268
59.403	18.648	1025.477	785.051
60.417	18.613	1024.727	784.252
61.432	18.511	1024.002	783.159
62.447	18.549	1022.891	782.415
63.461	18.505	1022.221	781.630
64.476	18.481	1021.090	780.590
65.490	18.499	1020.473	780.128
66.505	18.558	1019.802	779.814
67.520	18.509	1019.491	779.287
68.534	18.512	1018.702	778.627
69.549	18.326	1017.956	777.145
70.563	18.306	1017.140	776.361
71.578	18.181	1016.042	774.889
72.593	18.185	1015.077	774.105
73.607	18.176	1014.513	773.563
74.622	18.327	1014.002	773.789
75.636	18.340	1013.567	773.448
76.651	18.507	1012.471	773.292
77.666	18.212	1012.444	771.874
78.680	18.370	1011.547	771.836
79.695	18.423	1010.938	771.538
80.709	18.520	1010.564	771.622
81.724	18.790	1009.626	772.054
82.739	18.823	1008.962	771.622
83.753	19.115	1008.629	772.614
84.768	19.480	1007.664	773.439
85.782	19.541	1007.579	773.583
86.797	19.436	1006.347	772.094
87.812	19.240	1005.010	770.127
88.826	19.191	1004.434	769.399
89.841	19.429	1003.487	769.667
90.855	19.424	1002.796	769.048
91.870	19.415	1002.088	768.394
92.884	19.412	1001.115	767.567
93.899	19.415	1000.023	766.677
94.914	19.512	999.001	766.255
95.928	19.558	998.307	765.861
96.943	19.351	997.333	764.125
97.957	19.239	996.772	763.132
98.972	19.296	995.960	762.696
99.987	19.373	995.159	762.355
101.001	19.361	994.037	761.374
102.016	19.279	992.852	760.041
103.030	19.342	992.772	760.190
104.045	19.429	991.508	759.537
105.060	19.311	990.242	757.979
106.074	18.721	989.839	755.012
107.089	18.678	988.184	753.492
108.103	18.582	987.495	752.482
109.118	18.467	986.443	751.108
110.133	18.503	985.330	750.352
111.147	18.474	984.405	749.454
112.162	18.612	984.226	749.853
113.176	18.753	983.272	749.675
114.191	18.808	982.587	749.330
115.206	18.718	982.039	748.450
116.220	18.668	980.796	747.218
117.235	18.816	979.858	747.085
118.249	18.423	979.611	745.122
119.264	18.485	978.935	744.808
120.279	18.488	977.813	743.902
121.293	18.495	976.710	743.029
122.308	18.437	975.534	741.816
123.322	18.260	974.854	740.468
124.337	18.322	973.460	739.611
125.352	18.245	972.792	738.707
126.366	18.246	971.651	737.780
127.381	18.326	970.791	737.406
128.395	18.273	970.228	736.683
129.410	18.427	969.228	736.521
130.424	18.527	968.291	736.173
131.439	18.621	967.928	736.238
132.454	18.691	967.098	735.840
133.468	18.824	966.042	735.542
134.483	18.853	965.281	735.020
135.497	18.717	964.949	734.122
136.512	18.840	963.794	733.701
137.527	18.833	962.824	732.869
138.541	18.957	962.421	733.026
139.556	18.821	961.781	731.895
140.570	18.943	961.485	732.123
141.585	19.126	960.661	732.212
142.600	19.309	959.287	731.875
143.614	19.464	958.486	731.860
144.629	19.398	958.232	731.317
145.643	19.263	957.553	730.165
146.658	19.199	955.450	728.224
147.673	19.019	954.794	726.902
148.687	18.892	953.948	725.655
149.702	18.791	953.222	724.611
150.716	18.784	952.327	723.838
151.731	18.822	951.892	723.606
152.746	18.881	951.288	723.329
153.760	18.973	950.216	722.837
154.775	19.003	949.729	722.530
155.789	19.125	949.317	722.666
156.804	19.133	948.435	721.961
157.819	19.257	948.095	722.160
158.833	19.296	947.478	721.788
159.848	19.428	946.738	721.715
160.862	19.402	945.121	720.306
161.877	18.982	943.819	717.502
162.892	18.916	942.360	716.052
163.906	18.711	941.985	714.850
164.921	18.792	941.338	714.635
165.935	18.880	940.615	714.386
166.950	19.050	939.822	714.427
167.964	19.000	938.801	713.382
168.979	18.870	937.809	712.028
169.994	18.925	936.993	711.573
171.008	18.939	936.648	711.304
172.023	19.243	935.922	711.945
173.037	19.361	935.807	712.282
174.052	19.193	934.453	710.498
175.067	18.874	933.756	708.589
176.081	18.873	932.854	707.836
177.096	18.856	932.488	707.429
178.110	18.841	931.861	706.828
179.125	19.073	930.873	706.969
180.140	19.143	930.540	706.939
181.154	19.302	930.433	707.450
182.169	19.432	929.847	707.474
183.183	19.465	929.560	707.328
184.198	19.268	928.931	705.981
185.213	19.326	927.953	705.413
186.227	19.493	927.362	705.581
187.242	19.614	926.706	705.518
188.256	19.690	926.412	705.540
189.271	19.642	925.243	704.392
190.286	19.156	924.375	701.689
191.300	18.766	923.136	699.096
192.315	18.515	922.650	697.646
193.329	18.619	922.373	697.799
194.344	19.074	921.721	699.092
195.359	19.096	921.041	698.606
196.373	19.215	920.805	698.846
197.388	19.454	920.320	699.386
198.402	19.509	920.167	699.428
199.417	19.646	919.607	699.496
200.432	19.894	918.755	699.791
201.446	19.930	918.821	699.924
202.461	19.972	918.464	699.761
203.475	19.916	917.195	698.506
204.490	19.562	916.438	696.439
205.504	19.416	915.790	695.296
206.519	19.384	914.806	694.359
207.534	19.447	913.764	693.761
208.548	19.524	913.719	693.976
209.563	19.342	913.278	692.846
210.577	19.474	912.678	692.859
211.592	19.896	911.759	693.795
212.607	19.957	910.982	693.385
213.621	19.813	910.321	692.246
214.636	19.649	909.881	691.194
215.650	19.713	908.879	690.627
216.665	19.977	908.086	691.016
217.680	19.868	907.811	690.309
218.694	20.092	906.936	690.476
219.709	19.823	906.672	689.144
220.723	19.845	905.871	688.563
221.738	19.839	905.254	688.008
222.753	19.716	904.677	687.021
223.767	19.882	904.332	687.355
224.782	20.106	903.635	687.656
225.796	20.135	903.196	687.374
226.811	20.070	902.399	686.451
227.826	19.832	901.217	684.548
228.840	19.829	900.638	684.036
229.855	19.717	900.112	683.132
230.869	19.723	899.457	682.599
231.884	19.730	898.726	682.010
232.899	19.591	897.828	680.723
233.913	19.610	897.038	680.138
234.928	19.421	896.619	679.017
235.942	19.314	895.988	678.058
236.957	19.238	895.641	677.433
237.972	19.458	894.586	677.443
238.986	19.551	893.917	677.240
240.001	19.572	893.207	676.725
241.015	19.726	892.802	676.959
242.030	19.877	891.952	676.848
243.045	19.686	891.907	676.006
244.059	19.652	891.508	675.511
245.074	19.837	890.670	675.538
246.088	19.886	890.242	675.344
247.103	20.101	889.212	675.341
248.117	20.230	889.660	676.125
249.132	20.437	889.506	676.756
250.147	20.792	888.486	677.298
251.161	20.715	888.300	676.799
252.176	20.804	887.480	676.461
253.190	20.936	886.723	676.334
254.205	20.913	885.818	675.495
255.220	20.802	885.737	674.946
256.234	20.739	885.264	674.282
257.249	20.812	884.130	673.639
258.263	20.780	883.260	672.793
259.278	20.663	883.113	672.171
260.293	21.007	882.305	672.821
261.307	20.842	881.917	671.832
262.322	20.909	881.156	671.449
263.336	20.989	880.338	671.076
264.351	20.904	879.909	670.360
265.366	21.071	878.855	670.143
266.380	20.950	878.611	669.431
267.395	20.638	878.176	667.841
268.409	20.758	876.902	667.275
269.424	20.749	876.024	666.514
270.439	20.645	875.571	665.710
271.453	20.459	874.853	664.394
272.468	20.634	874.089	664.426
273.482	20.645	873.549	663.998
274.497	20.649	873.057	663.582
275.512	20.529	872.730	662.816
276.526	20.663	872.118	662.804
277.541	20.607	871.926	662.386
278.555	20.843	871.430	662.846
279.570	21.116	870.394	663.037
280.585	20.928	870.269	662.169
281.599	20.758	868.557	660.164
282.614	20.653	868.041	659.314
283.628	20.686	867.834	659.223
284.643	20.617	867.035	658.300
285.657	20.739	866.431	658.245
286.672	20.739	865.781	657.691
287.687	20.839	865.193	657.564
288.701	20.661	864.316	656.166
289.716	20.764	864.041	656.289
290.730	20.875	863.369	656.138
291.745	20.803	863.262	655.727
292.760	20.853	862.495	655.277
293.774	21.103	862.081	655.843
294.789	21.031	861.593	655.143
295.803	20.699	860.632	653.108
296.818	20.825	859.614	652.749
297.833	20.827	858.989	652.228
298.847	20.853	858.619	651.984
299.862	20.891	857.911	651.531
300.876	21.138	857.483	652.071
301.891	21.105	857.182	651.663
302.906	21.296	856.915	652.115
303.920	21.380	856.247	651.862
304.935	21.480	855.948	651.949
305.949	21.450	854.782	650.892
306.964	21.260	854.164	649.658
307.979	21.267	853.543	649.153
308.993	21.290	853.630	649.248
310.008	21.413	852.749	648.977
311.022	21.204	852.493	647.947
312.037	21.013	851.395	646.350
313.052	20.625	850.878	644.459
314.066	20.680	850.440	644.278
315.081	20.710	849.703	643.773
316.095	20.767	848.904	643.320
317.110	20.766	848.390	642.872
318.125	20.652	848.054	642.138
319.139	20.898	847.100	642.267
320.154	20.818	846.849	641.725
321.168	20.904	846.418	641.659
322.183	20.998	845.713	641.413
323.197	21.062	845.176	641.183
324.212	20.919	845.168	640.593
325.227	21.043	844.019	640.121
326.241	20.879	843.240	638.874
327.256	20.959	842.843	638.810
328.270	20.915	842.276	638.161
329.285	20.834	841.425	637.164
330.300	20.857	841.152	636.985
331.314	20.990	840.799	637.149
332.329	21.116	840.444	637.281
333.343	21.107	839.989	636.847
334.358	21.261	839.471	636.959
335.373	21.227	839.441	636.757
336.387	21.452	838.720	636.972
337.402	21.404	838.778	636.785
338.416	21.692	838.538	637.596
339.431	21.670	838.387	637.346
340.446	21.800	838.206	637.623
341.460	21.807	837.611	637.142
342.475	21.982	837.359	637.529
343.489	21.843	837.147	636.807
344.504	22.042	836.510	636.987
345.519	22.056	835.904	636.520
346.533	22.064	835.092	635.874
347.548	21.666	834.394	633.847
348.562	21.429	833.752	632.443
349.577	21.444	832.811	631.730
350.592	21.235	832.610	630.767
351.606	21.308	831.913	630.446
352.621	21.277	831.553	630.006
353.635	21.461	830.594	629.885
354.650	21.493	829.744	629.299
355.665	21.542	828.997	628.854
356.679	21.783	828.412	629.219
357.694	21.566	827.895	627.993
358.708	21.516	827.476	627.440
359.723	21.555	827.003	627.167
360.738	21.596	826.397	626.797
361.752	21.604	826.286	626.688
362.767	21.935	825.499	627.217
363.781	22.033	825.024	627.153
364.796	22.247	824.619	627.554
365.810	22.265	824.521	627.486
366.825	22.334	824.019	627.296
367.840	22.263	823.666	626.719
368.854	21.943	823.016	625.026
369.869	21.882	822.753	624.556
370.883	22.030	821.973	624.434
371.898	22.313	821.831	625.279
372.913	22.220	821.587	624.706
373.927	22.045	820.847	623.466
374.942	22.008	820.404	622.944
375.956	22.272	819.915	623.455
376.971	22.419	819.696	623.753
377.986	22.569	819.376	623.984
379.000	22.458	818.912	623.184
380.015	22.451	818.304	622.641
381.029	22.394	817.634	621.874
382.044	22.380	817.003	621.293
383.059	22.422	816.118	620.712
384.073	22.217	815.532	619.487
385.088	22.120	814.993	618.683
386.102	21.995	814.186	617.574
387.117	21.979	813.630	617.041
388.132	21.954	812.828	616.292
389.146	22.026	812.577	616.298
390.161	22.383	812.164	617.184
391.175	22.402	811.842	616.953
392.190	22.240	811.184	615.829
393.205	22.140	810.505	614.909
394.219	21.950	810.251	613.999
395.234	21.956	809.885	613.687
396.248	21.837	809.381	612.835
397.263	21.716	809.031	612.093
398.278	21.852	808.100	611.809
399.292	21.757	807.896	611.269
400.307	21.909	807.196	611.214
401.321	21.952	806.906	611.091
402.336	21.987	806.554	610.892
403.350	21.970	806.697	610.888
404.365	22.263	805.863	611.221
405.380	22.646	805.180	611.976
406.394	22.494	805.151	611.374
407.409	22.677	804.897	611.760
408.423	22.707	804.633	611.611
409.438	22.913	803.910	611.721
410.453	22.698	803.720	610.779
411.467	22.832	803.215	610.804
412.482	22.856	802.829	610.539
413.496	23.122	802.477	611.137
414.511	22.818	802.184	609.807
415.526	22.853	801.625	609.452
416.540	22.736	801.321	608.761
417.555	22.797	800.789	608.514
418.569	22.794	800.080	607.911
419.584	22.823	799.463	607.488
420.599	22.817	799.333	607.317
421.613	165.303	1371.317	1796.442
422.628	143.631	1454.624	1796.511
