DTS Sentinel unit serial number:	SN413079Multiplexer serial number:	ORYXHardware model number:	OX4-SRSoftware version number:	ORYX F/W v4.00 Oryx Data Collector v3.7.2.0data status	okinstallation	princeton_trtdifferential loss correction	single-endedforward channel	channel 1reverse channel	N/Adate	2019/09/12time	14:16:11forward acquisition time	60.00reverse acquisition time	0.00gamma	496.2192k internal	0.2294k external	0.2294temperature offset calibration	1.0058default loss term (dB/km)	0.3790temperature slope calibration	1.0000multiplexer offset coefficient	1.0000multiplexer slope coefficient	1.0000fibre end	0.00T internal ref (°C)	40.25T ext. ref 1 (°C)	2.24T ext. ref 2 (°C)	35.20length (m)	temperature (°C)	Stokes	anti-Stokes-747.200	-120.699	-0.081	0.014
-746.185	800.000	0.151	0.622
-745.171	213.033	-0.104	0.168
-744.156	275.528	0.109	0.198
-743.142	-21.822	0.296	-0.184
-742.127	-200.000	0.062	0.296
-741.112	-200.000	0.039	0.286
-740.098	387.796	-0.092	0.195
-739.083	-200.000	0.008	0.129
-738.069	-200.000	0.014	0.356
-737.054	-0.784	0.093	0.067
-736.039	32.795	-0.287	0.254
-735.025	800.000	0.063	-0.190
-734.010	244.089	-0.124	-0.213
-732.996	-200.000	-0.024	-0.423
-731.981	-118.652	-0.287	-0.052
-730.966	-200.000	-0.025	-0.353
-729.952	-57.195	-0.104	-0.047
-728.937	-51.963	0.136	-0.065
-727.923	-200.000	-0.038	0.341
-726.908	115.081	-0.247	0.308
-725.894	371.029	0.079	-0.163
-724.879	-200.000	-0.030	0.407
-723.864	636.568	-0.087	0.227
-722.850	200.615	-0.095	-0.150
-721.835	142.085	-0.268	-0.363
-720.821	-200.000	-0.002	-0.114
-719.806	-51.055	0.314	-0.150
-718.791	-200.000	-0.044	0.220
-717.777	800.000	0.085	0.247
-716.762	800.000	0.082	-0.288
-715.748	-200.000	-0.073	-0.415
-714.733	-140.326	0.107	0.011
-713.718	57.216	0.037	-0.037
-712.704	166.027	-0.335	0.484
-711.689	-19.941	-0.250	0.158
-710.675	-200.000	0.028	0.200
-709.660	800.000	0.035	-0.135
-708.645	-200.000	0.059	0.324
-707.631	10.200	-0.136	-0.105
-706.616	-32.724	0.223	-0.127
-705.602	90.752	-0.045	0.052
-704.587	-81.125	-0.179	-0.060
-703.572	-101.867	0.201	-0.050
-702.558	-40.628	-0.066	-0.035
-701.543	-82.570	-0.276	0.091
-700.529	-7.953	0.114	-0.079
-699.514	71.583	0.251	-0.266
-698.499	242.749	-0.195	-0.333
-697.485	-51.073	0.021	0.010
-696.470	-178.370	-0.151	-0.004
-695.456	-136.360	0.098	0.012
-694.441	-200.000	-0.003	0.018
-693.426	-133.242	-0.173	-0.022
-692.412	275.873	0.167	-0.303
-691.397	12.264	-0.018	-0.014
-690.383	-84.812	-0.203	-0.065
-689.368	165.389	-0.031	-0.045
-688.354	-119.661	-0.108	-0.019
-687.339	32.737	-0.202	-0.178
-686.324	6.097	-0.221	0.167
-685.310	98.542	-0.281	-0.331
-684.295	111.027	-0.041	0.051
-683.281	-97.726	-0.222	0.059
-682.266	-200.000	-0.035	0.163
-681.251	800.000	0.084	-0.241
-680.237	6.331	0.140	-0.106
-679.222	-112.397	0.154	0.031
-678.208	800.000	-0.060	0.183
-677.193	-200.000	-0.051	-0.265
-676.178	100.733	0.150	0.178
-675.164	-74.416	-0.208	0.076
-674.149	-72.127	-0.188	0.071
-673.135	-15.383	0.114	0.075
-672.120	-42.028	0.066	0.034
-671.105	660.408	0.082	-0.216
-670.091	-200.000	0.048	-0.241
-669.076	-200.000	0.006	0.051
-668.062	445.809	-0.101	0.226
-667.047	-119.953	-0.293	0.051
-666.032	177.717	-0.190	0.282
-665.018	36.264	-0.189	-0.170
-664.003	4.436	0.265	-0.198
-662.989	173.096	0.042	-0.061
-661.974	-92.942	0.210	0.060
-660.959	-73.168	0.209	-0.078
-659.945	-200.000	-0.008	-0.191
-658.930	162.059	-0.049	0.069
-657.916	-17.844	0.208	-0.133
-656.901	-25.006	0.193	-0.117
-655.886	-150.620	-0.160	0.012
-654.872	-131.728	-0.332	-0.044
-653.857	443.875	-0.056	-0.126
-652.843	-200.000	0.018	-0.194
-651.828	97.969	0.126	-0.148
-650.814	-200.000	0.052	0.234
-649.799	-51.833	0.343	0.163
-648.784	46.158	0.042	-0.039
-647.770	-130.921	-0.542	0.074
-646.755	-11.024	-0.163	0.110
-645.741	37.500	0.083	-0.075
-644.726	-170.029	-0.130	-0.005
-643.711	-200.000	0.037	-0.210
-642.697	-108.077	-0.104	0.023
-641.682	-5.803	-0.224	0.156
-640.668	223.488	0.058	-0.096
-639.653	231.711	-0.076	0.128
-638.638	-200.000	0.034	0.214
-637.624	-131.168	0.363	0.049
-636.609	51.015	0.241	-0.233
-635.595	-200.000	-0.018	0.094
-634.580	-23.292	-0.103	-0.063
-633.565	34.843	-0.212	-0.189
-632.551	-1.132	-0.251	0.181
-631.536	165.099	-0.170	0.245
-630.522	-50.824	-0.127	-0.061
-629.507	800.000	0.119	-0.434
-628.492	-36.732	-0.378	-0.207
-627.478	-132.686	0.035	0.005
-626.463	-99.260	0.211	-0.054
-625.449	-200.000	-0.032	0.194
-624.434	-181.683	-0.119	-0.002
-623.419	-200.000	0.029	-0.221
-622.405	167.463	-0.066	0.096
-621.390	76.402	-0.079	0.085
-620.376	93.562	-0.196	0.225
-619.361	-200.000	-0.020	0.252
-618.346	-200.000	-0.009	0.213
-617.332	682.777	0.069	-0.182
-616.317	-132.810	0.363	-0.047
-615.303	-98.795	0.283	0.073
-614.288	129.259	0.054	0.070
-613.273	-200.000	-0.015	-0.218
-612.259	10.383	0.076	-0.059
-611.244	-104.165	-0.452	-0.107
-610.230	15.579	-0.168	0.135
-609.215	-38.420	-0.055	-0.030
-608.201	-200.000	0.042	0.234
-607.186	-104.798	-0.291	0.068
-606.171	800.000	0.053	0.171
-605.157	-200.000	0.042	-0.196
-604.142	-116.141	-0.270	-0.051
-603.128	-153.443	-0.148	-0.010
-602.113	-98.141	0.284	0.074
-601.098	-97.949	0.057	-0.015
-600.084	-96.902	0.149	-0.040
-599.069	-86.060	0.172	0.054
-598.055	-200.000	-0.009	0.206
-597.040	-72.504	-0.220	-0.083
-596.025	257.742	0.128	-0.224
-595.011	50.884	0.165	-0.159
-593.996	-200.000	0.024	-0.297
-592.982	-200.000	-0.004	0.073
-591.967	800.000	-0.027	0.092
-590.952	37.585	0.148	-0.134
-589.938	-72.434	0.493	-0.186
-588.923	-16.883	-0.181	-0.116
-587.909	-39.399	0.177	0.095
-586.894	-96.797	0.067	-0.018
-585.879	-115.611	-0.140	0.027
-584.865	64.353	-0.229	0.235
-583.850	800.000	-0.203	0.572
-582.836	-68.668	-0.188	-0.074
-581.821	357.788	0.130	-0.264
-580.806	194.458	0.111	-0.170
-579.792	243.382	-0.117	-0.199
-578.777	-147.931	0.162	-0.014
-577.763	361.338	-0.034	0.069
-576.748	800.000	-0.031	0.119
-575.733	426.716	0.044	0.096
-574.719	-200.000	0.004	-0.103
-573.704	-60.632	-0.206	-0.089
-572.690	-154.528	0.178	-0.012
-571.675	144.058	-0.087	-0.118
-570.661	99.125	0.057	0.067
-569.646	142.170	0.148	0.200
-568.631	96.366	0.208	0.242
-567.617	-200.000	0.031	0.159
-566.602	94.566	-0.200	-0.231
-565.588	-48.549	-0.168	0.082
-564.573	334.399	-0.086	0.169
-563.558	-163.912	-0.155	0.007
-562.544	800.000	0.026	-0.100
-561.529	800.000	0.083	0.359
-560.515	41.275	-0.080	-0.073
-559.500	-126.652	-0.311	-0.047
-558.485	320.903	0.046	0.090
-557.471	-38.934	-0.182	-0.097
-556.456	-200.000	-0.017	0.156
-555.442	128.617	0.089	0.115
-554.427	-200.000	0.000	-0.024
-553.412	-105.751	0.180	0.041
-552.398	-11.569	-0.278	-0.186
-551.383	800.000	-0.016	-0.046
-550.369	-200.000	0.025	-0.249
-549.354	800.000	0.086	-0.315
-548.339	-200.000	0.014	-0.279
-547.325	800.000	-0.053	-0.193
-546.310	800.000	0.055	-0.178
-545.296	800.000	-0.050	0.159
-544.281	-116.234	0.057	-0.011
-543.266	-200.000	0.061	-0.484
-542.252	-179.324	-0.084	0.002
-541.237	-200.000	-0.002	-0.188
-540.223	-46.246	-0.053	-0.027
-539.208	-200.000	-0.027	0.136
-538.193	-200.000	-0.015	-0.147
-537.179	800.000	0.092	0.352
-536.164	74.442	-0.181	0.193
-535.150	-57.530	-0.149	-0.066
-534.135	-94.324	0.187	0.052
-533.121	800.000	-0.030	0.102
-532.106	-164.068	-0.201	0.009
-531.091	39.913	-0.110	-0.100
-530.077	146.593	0.152	0.207
-529.062	-143.108	0.086	-0.008
-528.048	800.000	-0.183	-0.534
-527.033	407.767	-0.184	-0.395
-526.018	469.022	-0.077	0.175
-525.004	193.463	0.161	0.247
-523.989	198.013	-0.122	0.190
-522.975	33.240	0.269	-0.236
-521.960	800.000	0.082	-0.331
-520.945	800.000	-0.024	-0.084
-519.931	52.506	-0.071	0.069
-518.916	213.370	-0.179	-0.287
-517.902	-84.088	0.070	-0.022
-516.887	-49.275	-0.444	0.215
-515.872	-1.663	-0.312	-0.223
-514.858	-200.000	-0.045	0.226
-513.843	-200.000	0.014	0.321
-512.829	157.165	-0.266	-0.373
-511.814	220.558	0.111	-0.181
-510.799	60.888	-0.146	-0.146
-509.785	-116.673	-0.104	-0.019
-508.770	-146.917	-0.393	-0.034
-507.756	-90.455	0.213	0.063
-506.741	-181.229	0.172	0.003
-505.726	-134.919	-0.199	-0.024
-504.712	168.443	0.088	-0.127
-503.697	-134.549	0.305	-0.038
-502.683	14.219	-0.098	0.078
-501.668	57.705	0.138	-0.137
-500.653	173.496	0.195	0.285
-499.639	90.918	-0.126	-0.143
-498.624	-200.000	-0.019	-0.193
-497.610	-111.831	0.157	-0.032
-496.595	-41.621	0.210	-0.109
-495.581	-156.112	-0.133	-0.009
-494.566	183.300	0.165	0.247
-493.551	495.527	0.046	0.107
-492.537	800.000	-0.019	0.053
-491.522	-163.330	-0.357	-0.017
-490.508	800.000	-0.094	0.265
-489.493	-200.000	0.010	-0.121
-488.478	-126.725	0.285	-0.043
-487.464	-200.000	-0.026	-0.247
-486.449	83.447	0.099	-0.110
-485.435	116.373	0.125	-0.156
-484.420	-81.662	-0.218	-0.073
-483.405	-200.000	-0.028	0.183
-482.391	-89.100	0.113	-0.034
-481.376	-44.542	-0.113	0.057
-480.362	-177.129	0.245	-0.006
-479.347	92.710	-0.063	0.072
-478.332	-99.970	-0.164	0.041
-477.318	187.173	-0.025	-0.038
-476.303	49.132	0.131	0.125
-475.289	73.827	0.341	-0.362
-474.274	511.028	0.142	-0.334
-473.259	-200.000	0.030	0.163
-472.245	-200.000	0.026	0.140
-471.230	-200.000	0.034	-0.258
-470.216	-136.490	0.216	-0.025
-469.201	-81.920	0.055	0.018
-468.186	-196.679	0.104	-0.001
-467.172	-200.000	0.017	0.143
-466.157	266.628	-0.101	-0.178
-465.143	316.586	0.043	0.083
-464.128	111.777	0.156	0.190
-463.113	24.660	0.382	0.320
-462.099	34.283	0.092	0.082
-461.084	27.216	0.065	-0.055
-460.070	-177.988	-0.390	0.009
-459.055	800.000	0.080	0.308
-458.040	36.386	-0.207	-0.185
-457.026	147.862	0.119	0.163
-456.011	215.168	-0.079	0.126
-454.997	135.593	-0.100	-0.131
-453.982	51.848	-0.098	-0.094
-452.968	151.650	-0.227	0.313
-451.953	-44.553	-0.242	-0.122
-450.938	99.926	-0.241	0.283
-449.924	135.487	-0.010	-0.014
-448.909	69.144	-0.100	0.104
-447.895	-200.000	0.034	-0.191
-446.880	-33.652	0.292	0.163
-445.865	111.402	-0.077	0.093
-444.851	-200.000	-0.019	-0.184
-443.836	-126.922	-0.045	-0.007
-442.822	73.608	-0.162	-0.171
-441.807	-56.647	0.331	-0.148
-440.792	145.275	-0.112	-0.152
-439.778	-161.899	-0.178	0.009
-438.763	-7.962	0.074	0.051
-437.749	-179.491	0.240	-0.005
-436.734	113.010	0.094	-0.115
-435.719	601.955	0.051	-0.127
-434.705	570.226	0.149	0.367
-433.690	-200.000	0.000	0.030
-432.676	-141.011	-0.185	0.019
-431.661	99.644	0.149	-0.174
-430.646	-44.641	0.106	0.053
-429.632	-50.563	-0.279	-0.133
-428.617	-200.000	0.039	-0.335
-427.603	191.059	-0.128	0.194
-426.588	72.805	-0.180	-0.190
-425.573	-28.513	0.271	-0.158
-424.559	-137.693	0.257	-0.029
-423.544	799.319	0.078	-0.217
-422.530	-200.000	0.034	-0.232
-421.515	450.389	0.020	0.045
-420.500	102.656	-0.138	-0.163
-419.486	-159.788	0.343	0.019
-418.471	-109.568	0.198	0.042
-417.457	800.000	0.116	-0.438
-416.442	470.460	0.100	0.227
-415.428	-36.607	-0.136	-0.074
-414.413	-120.996	-0.062	0.011
-413.398	-200.000	-0.004	0.041
-412.384	237.132	0.075	-0.126
-411.369	-56.487	-0.228	0.102
-410.355	-200.000	-0.013	-0.371
-409.340	-200.000	-0.005	-0.024
-408.325	-157.579	0.149	0.009
-407.311	505.690	0.137	0.320
-406.296	-200.000	-0.012	0.104
-405.282	-103.196	0.191	-0.046
-404.267	771.012	-0.039	-0.106
-403.252	-90.820	-0.285	0.083
-402.238	385.941	-0.097	-0.202
-401.223	-136.631	-0.136	-0.016
-400.209	800.000	-0.023	-0.086
-399.194	800.000	-0.106	-0.307
-398.179	-200.000	-0.014	-0.101
-397.165	-129.657	-0.090	-0.013
-396.150	133.407	-0.225	-0.293
-395.136	-46.529	-0.116	0.057
-394.121	24.991	-0.203	-0.170
-393.106	-142.620	-0.251	-0.025
-392.092	-200.000	-0.056	-0.276
-391.077	-25.209	0.375	0.224
-390.063	481.472	0.042	0.096
-389.048	-32.737	0.111	-0.062
-388.033	87.661	-0.271	0.303
-387.019	86.773	-0.134	-0.149
-386.004	-3.453	0.082	-0.057
-384.990	-200.000	0.092	0.420
-383.975	-124.036	0.047	0.007
-382.960	800.000	-0.061	0.192
-381.946	-200.000	0.007	-0.063
-380.931	800.000	-0.126	0.431
-379.917	10.490	-0.187	0.144
-378.902	800.000	0.061	0.208
-377.888	275.399	-0.143	0.256
-376.873	-24.730	0.275	-0.165
-375.858	108.452	0.117	0.141
-374.844	800.000	-0.086	-0.259
-373.829	-26.469	-0.219	-0.130
-372.815	25.917	0.118	0.100
-371.800	355.335	-0.192	-0.385
-370.785	215.699	-0.110	0.177
-369.771	598.842	-0.120	0.301
-368.756	-200.000	0.071	0.385
-367.742	199.296	0.031	0.048
-366.727	371.097	0.125	0.256
-365.712	-36.598	-0.174	-0.094
-364.698	-63.395	-0.081	-0.034
-363.683	245.846	0.143	0.242
-362.669	255.029	0.107	0.185
-361.654	800.000	-0.074	0.207
-360.639	33.537	-0.086	0.075
-359.625	17.604	-0.218	0.175
-358.610	-68.211	-0.259	-0.101
-357.596	-200.000	0.004	-0.089
-356.581	-60.280	-0.276	0.118
-355.566	400.522	0.064	-0.135
-354.552	449.476	0.074	0.165
-353.537	-200.000	-0.063	-0.291
-352.523	-161.924	0.229	-0.012
-351.508	-39.066	-0.342	0.181
-350.493	-200.000	-0.012	-0.149
-349.479	-8.646	0.320	0.216
-348.464	144.301	-0.050	0.067
-347.450	55.374	-0.187	0.183
-346.435	-200.000	-0.025	0.444
-345.420	-200.000	-0.028	0.249
-344.406	57.853	-0.159	-0.157
-343.391	-200.000	-0.312	-0.001
-342.377	-114.419	0.228	-0.044
-341.362	800.000	-0.084	-0.354
-340.348	127.386	-0.157	-0.201
-339.333	-137.550	-0.192	0.022
-338.318	800.000	0.081	-0.243
-337.304	138.919	-0.191	0.253
-336.289	215.719	-0.132	0.211
-335.275	290.721	0.154	0.282
-334.260	800.000	-0.028	-0.105
-333.245	259.245	-0.041	0.071
-332.231	800.000	-0.048	-0.190
-331.216	-141.209	0.297	-0.030
-330.202	-200.000	-0.063	0.374
-329.187	-83.907	0.294	-0.094
-328.172	16.096	-0.044	-0.035
-327.158	790.797	0.061	0.168
-326.143	107.268	-0.043	0.051
-325.129	-111.513	0.206	-0.042
-324.114	235.621	0.087	0.145
-323.099	-134.951	0.141	-0.017
-322.085	350.641	-0.110	0.219
-321.070	-200.000	0.013	0.137
-320.056	275.868	-0.082	0.147
-319.041	-147.026	-0.159	-0.014
-318.026	-2.676	-0.400	-0.281
-317.012	-200.000	0.062	-0.377
-315.997	-164.202	0.142	0.007
-314.983	-200.000	-0.033	0.259
-313.968	-152.090	0.149	0.011
-312.953	-24.759	0.394	-0.236
-311.939	-78.244	0.084	-0.029
-310.924	183.345	0.142	-0.211
-309.910	-46.153	0.090	0.044
-308.895	-112.461	-0.315	-0.063
-307.880	-200.000	0.043	-0.201
-306.866	-143.860	0.108	-0.010
-305.851	800.000	0.004	-0.015
-304.837	-200.000	0.050	0.263
-303.822	173.293	0.285	0.414
-302.807	204.389	0.153	-0.238
-301.793	78.687	0.105	-0.113
-300.778	-65.523	0.273	0.110
-299.764	-100.871	0.148	0.037
-298.749	84.996	-0.262	0.289
-297.735	-11.752	0.165	-0.109
-296.720	441.015	0.054	-0.118
-295.705	-17.678	-0.335	0.211
-294.691	123.137	0.133	-0.167
-293.676	-200.000	0.057	-0.482
-292.662	-63.484	-0.109	0.045
-291.647	92.593	0.189	0.214
-290.632	-26.091	0.332	0.196
-289.618	-188.895	0.399	-0.005
-288.603	-20.391	0.087	0.054
-287.589	-200.000	-0.044	0.198
-286.574	-200.000	0.074	0.342
-285.559	248.256	0.112	0.191
-284.545	800.000	-0.055	-0.223
-283.530	-111.705	0.241	-0.049
-282.516	2.788	0.265	0.193
-281.501	-125.885	-0.418	-0.063
-280.486	800.000	-0.046	-0.161
-279.472	216.982	0.076	-0.121
-278.457	-57.313	-0.203	0.090
-277.443	-0.287	0.354	-0.253
-276.428	-200.000	0.012	-0.155
-275.413	-149.812	0.143	-0.011
-274.399	-13.107	0.324	0.212
-273.384	-75.941	0.211	-0.075
-272.370	800.000	-0.008	0.034
-271.355	-13.900	0.100	0.065
-270.340	73.343	-0.237	0.249
-269.326	85.298	-0.052	0.058
-268.311	-200.000	0.001	0.243
-267.297	251.530	0.080	-0.137
-266.282	355.432	0.112	0.224
-265.267	-200.000	-0.010	-0.164
-264.253	303.352	-0.069	0.129
-263.238	-200.000	0.026	-0.216
-262.224	121.502	0.083	0.104
-261.209	-86.173	0.103	-0.032
-260.195	-102.743	0.561	0.134
-259.180	-117.490	0.186	-0.034
-258.165	60.770	-0.186	0.186
-257.151	-170.393	0.069	0.002
-256.136	41.572	0.270	0.245
-255.122	800.000	-0.052	0.151
-254.107	-67.190	-0.150	0.059
-253.092	-158.932	-0.274	0.016
-252.078	-10.118	0.303	0.202
-251.063	-153.930	0.127	0.009
-250.049	99.248	-0.108	0.125
-249.034	800.000	-0.073	-0.212
-248.019	-200.000	0.077	-0.496
-247.005	-96.630	-0.116	0.031
-245.990	220.409	0.213	-0.342
-244.976	442.419	0.075	0.165
-243.961	-200.000	-0.033	-0.177
-242.946	-200.000	0.000	0.028
-241.932	800.000	-0.011	-0.047
-240.917	-66.942	-0.109	-0.043
-239.903	48.789	-0.272	0.256
-238.888	71.661	0.249	-0.259
-237.873	-76.751	0.181	0.064
-236.859	228.742	-0.128	0.208
-235.844	-200.000	0.042	0.239
-234.830	48.044	-0.279	-0.261
-233.815	217.286	0.110	-0.176
-232.800	-6.505	0.114	-0.078
-231.786	-200.000	-0.040	0.436
-230.771	-98.547	-0.239	-0.061
-229.757	800.000	-0.097	-0.302
-228.742	310.151	-0.128	0.240
-227.727	-200.000	-0.027	-0.125
-226.713	800.000	-0.125	0.442
-225.698	680.940	-0.125	-0.326
-224.684	-2.186	0.078	-0.055
-223.669	-200.000	0.084	-0.369
-222.655	171.449	0.091	0.132
-221.640	-194.467	-0.218	0.002
-220.625	-0.388	0.385	0.274
-219.611	-113.353	-0.309	-0.061
-218.596	94.380	0.261	0.297
-217.582	-59.919	0.388	-0.166
-216.567	-200.000	0.058	-0.283
-215.552	-173.641	0.338	-0.010
-214.538	-47.879	0.239	-0.116
-213.523	391.723	-0.158	-0.328
-212.509	645.575	0.146	-0.373
-211.494	-110.831	-0.175	0.036
-210.479	105.109	-0.131	0.155
-209.465	25.390	-0.381	0.317
-208.450	800.000	0.044	-0.125
-207.436	-110.229	0.059	-0.012
-206.421	-48.557	-0.256	-0.123
-205.406	551.558	0.107	-0.257
-204.392	-27.095	-0.115	0.067
-203.377	-200.000	0.016	0.245
-202.363	-200.000	0.027	0.153
-201.348	-200.000	0.017	-0.221
-200.333	3.566	-0.319	-0.233
-199.319	-99.788	0.407	0.102
-198.304	117.928	0.191	0.235
-197.290	45.714	0.294	-0.272
-196.275	-200.000	0.014	0.111
-195.260	-93.843	-0.202	-0.056
-194.246	371.178	-0.045	0.092
-193.231	-99.816	0.245	0.061
-192.217	85.935	-0.148	0.163
-191.202	-200.000	-0.022	0.194
-190.187	-109.198	0.231	-0.049
-189.173	106.258	0.040	-0.047
-188.158	-97.515	0.376	-0.098
-187.144	-70.919	-0.287	0.108
-186.129	366.930	-0.082	-0.165
-185.114	-107.015	-0.032	-0.007
-184.100	459.811	0.082	-0.183
-183.085	800.000	-0.052	0.155
-182.071	499.830	-0.033	0.076
-181.056	69.948	-0.123	0.127
-180.042	-89.939	-0.331	-0.097
-179.027	-200.000	0.014	0.072
-178.012	-130.212	-0.107	-0.015
-176.998	187.305	-0.147	-0.219
-175.983	14.327	-0.196	-0.153
-174.969	339.045	0.053	-0.104
-173.954	-200.000	-0.050	-0.223
-172.939	157.001	0.081	0.112
-171.925	238.453	0.107	-0.178
-170.910	-162.153	0.170	-0.009
-169.896	133.956	-0.022	-0.028
-168.881	688.656	0.068	-0.178
-167.866	-123.980	0.407	0.064
-166.852	-200.000	0.001	0.225
-165.837	203.435	-0.178	-0.275
-164.823	-200.000	-0.039	0.274
-163.808	-24.446	0.063	-0.037
-162.793	-78.839	0.176	0.060
-161.779	-125.178	-0.411	-0.063
-160.764	94.100	-0.231	0.262
-159.750	800.000	-0.092	0.323
-158.735	21.481	0.065	0.053
-157.720	-9.730	0.169	-0.113
-156.706	800.000	0.046	0.152
-155.691	-92.698	-0.216	-0.060
-154.677	510.136	0.102	0.238
-153.662	65.450	-0.276	-0.279
-152.647	-200.000	-0.019	-0.173
-151.633	222.524	0.184	0.296
-150.618	-116.074	-0.240	0.045
-149.604	-58.435	0.200	0.087
-148.589	452.955	-0.145	-0.321
-147.574	43.758	-0.184	-0.168
-146.560	800.000	0.049	0.203
-145.545	-144.569	0.109	-0.010
-144.531	442.625	0.149	-0.325
-143.516	-137.350	-0.585	0.066
-142.502	-200.000	-0.015	0.290
-141.487	-55.929	0.389	0.173
-140.472	80.573	0.023	0.025
-139.458	-30.424	0.119	0.068
-138.443	230.992	-0.101	0.165
-137.429	-6.922	-0.331	0.224
-136.414	-29.763	0.175	0.100
-135.399	-98.175	0.195	-0.050
-134.385	-98.294	0.456	0.117
-133.370	-70.363	-0.024	0.009
-132.356	309.170	0.038	0.070
-131.341	-0.547	0.188	0.133
-130.326	-200.000	0.034	0.166
-129.312	-96.968	-0.233	-0.061
-128.297	-200.000	-0.026	0.182
-127.283	-55.844	-0.156	0.070
-126.268	-200.000	-0.047	0.244
-125.253	21.722	0.102	0.083
-124.239	-81.594	0.112	-0.037
-123.224	154.984	0.149	-0.205
-122.210	-141.892	-0.239	-0.024
-121.195	-200.000	-0.088	-0.422
-120.180	546.855	0.119	0.284
-119.166	800.000	0.059	0.229
-118.151	-128.534	0.243	-0.034
-117.137	349.806	-0.090	-0.178
-116.122	103.452	-0.103	0.121
-115.107	149.242	-0.083	0.112
-114.093	420.891	-0.070	0.150
-113.078	-52.819	0.042	0.020
-112.064	490.346	-0.164	-0.374
-111.049	337.854	-0.088	-0.171
-110.034	-121.809	0.381	-0.063
-109.020	800.000	-0.027	0.084
-108.005	-177.405	-0.201	-0.005
-106.991	-93.590	-0.296	0.082
-105.976	28.118	0.195	0.164
-104.962	-200.000	-0.039	0.214
-103.947	-200.000	-0.018	0.137
-102.932	-89.891	-0.126	0.037
-101.918	405.074	0.093	0.195
-100.903	86.431	0.096	-0.105
-99.889	-9.949	0.153	0.101
-98.874	-200.000	0.002	-0.060
-97.859	-200.000	-0.060	-0.323
-96.845	241.030	0.088	0.146
-95.830	54.468	0.103	0.099
-94.816	-47.587	0.314	-0.152
-93.801	-4.548	-0.177	0.122
-92.786	189.475	-0.080	0.120
-91.772	-200.000	0.052	0.252
-90.757	267.772	0.094	0.165
-89.743	800.000	0.013	0.046
-88.728	-138.742	0.361	0.039
-87.713	-23.890	0.038	-0.023
-86.699	-18.547	0.096	0.059
-85.684	-145.556	0.359	0.032
-84.670	-200.000	0.016	0.166
-83.655	-81.460	0.081	0.027
-82.640	154.432	0.058	-0.080
-81.626	771.063	-0.045	0.123
-80.611	13.718	0.285	0.221
-79.597	175.851	-0.252	-0.364
-78.582	-98.411	-0.379	0.097
-77.567	38.354	0.080	-0.071
-76.553	98.662	-0.225	0.258
-75.538	-200.000	-0.021	0.163
-74.524	-71.421	-0.442	-0.165
-73.509	-200.000	0.037	-0.295
-72.494	-173.873	0.135	-0.004
-71.480	323.563	-0.037	-0.071
-70.465	-23.611	-0.035	-0.021
-69.451	-75.117	-0.270	-0.096
-68.436	-200.000	0.012	-0.080
-67.422	-4.151	0.164	-0.113
-66.407	34.469	-0.266	-0.232
-65.392	-70.515	0.123	0.046
-64.378	-200.000	-0.004	-0.115
-63.363	339.525	-0.079	-0.153
-62.349	800.000	0.022	0.067
-61.334	41.662	-0.917	-0.827
-60.319	13.023	0.493	0.380
-59.305	-200.000	-0.107	-0.707
-58.290	355.105	0.369	0.731
-57.276	-200.000	0.248	1.560
-56.261	-200.000	78.115	511.416
-55.246	509.509	1332.586	3083.626
-54.232	148.319	2556.841	3436.244
-53.217	115.111	2223.953	2702.436
-52.203	51.594	1678.092	1588.051
-51.188	43.883	1406.393	1282.321
-50.173	40.439	1361.255	1219.963
-49.159	58.548	1397.940	1365.838
-48.144	65.015	1416.796	1424.376
-47.130	44.363	1378.557	1259.720
-46.115	40.491	1361.482	1220.295
-45.100	40.148	1357.062	1214.181
-44.086	40.057	1354.797	1211.547
-43.071	40.100	1352.612	1209.812
-42.057	39.913	1350.443	1206.683
-41.042	40.041	1348.462	1205.640
-40.027	40.200	1346.951	1205.211
-39.013	40.205	1344.860	1203.324
-37.998	40.121	1343.332	1201.398
-36.984	40.123	1341.116	1199.381
-35.969	40.267	1339.490	1198.750
-34.954	40.229	1338.028	1197.164
-33.940	40.352	1336.054	1196.094
-32.925	40.413	1335.288	1195.731
-31.911	40.391	1333.890	1194.295
-30.896	40.408	1331.797	1192.482
-29.881	40.307	1330.799	1190.930
-28.867	40.381	1329.065	1189.777
-27.852	40.317	1327.797	1188.211
-26.838	40.359	1326.191	1186.979
-25.823	40.279	1324.736	1185.149
-24.809	40.247	1323.557	1183.858
-23.794	40.416	1321.972	1183.399
-22.779	40.346	1320.627	1181.731
-21.765	40.289	1319.851	1180.648
-20.750	40.376	1317.882	1179.358
-19.736	40.245	1316.279	1177.103
-18.721	40.128	1315.529	1175.689
-17.706	40.197	1314.220	1174.878
-16.692	40.255	1312.651	1173.775
-15.677	40.195	1311.991	1172.784
-14.663	40.205	1310.807	1171.739
-13.648	40.148	1309.985	1170.617
-12.633	40.239	1308.464	1169.753
-11.619	40.110	1308.275	1168.772
-10.604	40.193	1307.255	1168.307
-9.590	40.168	1306.399	1167.344
-8.575	40.231	1305.128	1166.533
-7.560	40.217	1304.228	1165.606
-6.546	40.322	1303.413	1165.448
-5.531	40.074	1302.691	1163.298
-4.517	40.227	1301.290	1162.895
-3.502	40.241	1300.721	1162.428
-2.487	40.339	1298.992	1161.409
-1.473	40.212	1295.225	1157.250
-0.458	38.894	1280.010	1135.990
0.556	35.048	1259.591	1091.252
1.571	30.794	1263.179	1069.879
2.586	29.551	1278.936	1075.890
3.600	28.245	1268.367	1059.351
4.615	20.582	1190.999	952.829
5.629	8.365	1106.533	822.599
6.644	2.773	1082.051	776.106
7.659	2.205	1079.541	771.370
8.673	2.103	1078.149	769.790
9.688	1.872	1077.113	767.820
10.702	2.410	1075.895	769.588
11.717	9.158	1086.652	811.402
12.731	20.263	1102.226	879.568
13.746	25.241	1108.134	909.507
14.761	25.746	1107.989	911.864
15.775	25.675	1107.541	911.056
16.790	25.428	1106.820	909.132
17.804	25.326	1106.256	908.074
18.819	25.514	1105.850	908.608
19.834	25.562	1105.425	908.424
20.848	25.556	1105.357	908.253
21.863	25.582	1104.157	907.319
22.877	25.486	1103.713	906.390
23.892	25.440	1103.096	905.573
24.907	25.547	1102.376	905.437
25.921	25.406	1101.173	903.663
26.936	25.506	1099.792	902.952
27.950	25.344	1098.363	900.887
28.965	25.239	1096.263	898.558
29.980	25.335	1095.344	898.203
30.994	25.579	1094.102	898.325
32.009	25.578	1093.383	897.651
33.023	25.343	1091.864	895.156
34.038	25.326	1091.487	894.682
35.053	25.524	1090.853	895.070
36.067	25.574	1089.726	894.310
37.082	25.603	1088.902	893.703
38.096	25.666	1088.265	893.413
39.111	25.675	1088.099	893.240
40.126	25.674	1086.242	891.635
41.140	25.304	1084.444	888.246
42.155	25.072	1083.133	885.950
43.169	25.039	1082.368	885.083
44.184	25.070	1081.478	884.429
45.199	25.049	1080.034	883.064
46.213	25.116	1079.204	882.640
47.228	25.216	1078.685	882.627
48.242	25.352	1077.427	882.189
49.257	25.354	1076.788	881.599
50.271	25.473	1076.178	881.607
51.286	25.518	1075.573	881.252
52.301	25.579	1074.571	880.653
53.315	25.435	1073.422	878.928
54.330	25.374	1072.414	877.727
55.344	25.403	1072.023	877.470
56.359	25.458	1070.905	876.747
57.374	25.047	1070.548	874.368
58.388	25.263	1069.347	874.367
59.403	25.215	1068.293	873.191
60.417	25.043	1067.450	871.589
61.432	24.959	1066.918	870.668
62.447	25.202	1066.451	871.392
63.461	25.234	1065.597	870.772
64.476	25.213	1064.509	869.704
65.490	25.084	1063.536	868.209
66.505	25.208	1062.909	868.221
67.520	25.218	1062.442	867.807
68.534	24.893	1061.732	865.583
69.549	24.743	1060.163	863.503
70.563	24.636	1059.636	862.481
71.578	24.798	1058.334	862.125
72.593	24.584	1057.480	860.320
73.607	24.491	1057.410	859.742
74.622	24.881	1057.029	861.234
75.636	25.131	1055.701	861.274
76.651	24.859	1054.953	859.285
77.666	24.933	1053.980	858.769
78.680	24.788	1053.928	857.957
79.695	24.980	1053.158	858.174
80.709	25.177	1052.093	858.170
81.724	25.171	1051.191	857.334
82.739	25.146	1050.822	856.835
83.753	25.435	1050.266	857.688
84.768	25.677	1049.468	858.114
85.782	25.769	1048.510	857.690
86.797	25.729	1047.663	856.733
87.812	25.646	1046.486	855.301
88.826	25.683	1045.830	854.863
89.841	25.713	1045.009	854.259
90.855	25.698	1044.057	853.334
91.870	25.683	1042.850	852.203
92.884	25.505	1041.773	850.404
93.899	25.503	1040.865	849.575
94.914	25.811	1039.809	850.094
95.928	25.476	1038.838	847.645
96.943	25.246	1038.007	845.808
97.957	25.109	1036.842	844.138
98.972	24.950	1035.405	842.149
99.987	25.163	1034.950	842.702
101.001	25.431	1034.049	843.153
102.016	25.395	1033.194	842.211
103.030	25.422	1032.320	841.552
104.045	25.260	1030.962	839.613
105.060	25.024	1030.403	837.982
106.074	25.190	1029.341	837.819
107.089	25.477	1029.057	838.852
108.103	25.353	1028.114	837.429
109.118	25.232	1026.683	835.629
110.133	25.312	1025.701	835.127
111.147	25.111	1024.337	833.009
112.162	24.776	1024.198	831.267
113.176	25.027	1023.654	831.918
114.191	25.166	1022.246	831.343
115.206	24.812	1021.300	828.859
116.220	24.684	1020.542	827.577
117.235	24.855	1019.402	827.371
118.249	24.942	1018.751	827.171
119.264	24.845	1017.906	825.964
120.279	24.889	1017.357	825.650
121.293	24.840	1016.696	824.816
122.308	24.811	1015.947	823.998
123.322	24.724	1014.465	822.327
124.337	24.699	1013.251	821.151
125.352	24.293	1011.358	817.684
126.366	24.214	1010.216	816.326
127.381	24.896	1010.705	819.776
128.395	25.317	1010.438	821.411
129.410	25.482	1009.423	821.268
130.424	25.460	1008.180	820.083
131.439	25.305	1007.721	818.929
132.454	25.401	1006.810	818.558
133.468	25.376	1005.775	817.530
134.483	25.383	1005.267	817.076
135.497	25.645	1004.634	817.680
136.512	25.692	1003.877	817.205
137.527	25.725	1002.585	816.230
138.541	25.553	1002.503	815.310
139.556	25.555	1001.306	814.273
140.570	25.843	1000.468	814.822
141.585	25.966	998.904	814.032
142.600	25.742	998.107	812.300
143.614	25.991	997.438	812.806
144.629	26.146	996.832	812.939
145.643	25.862	995.653	810.628
146.658	25.699	993.862	808.369
147.673	25.677	992.869	807.387
148.687	25.546	991.856	805.908
149.702	25.415	991.144	804.669
150.716	25.366	990.583	803.924
151.731	25.545	989.823	804.037
152.746	25.733	988.748	803.932
153.760	25.759	988.616	803.872
154.775	25.809	988.432	803.874
155.789	25.798	987.029	802.613
156.804	25.765	986.165	801.691
157.819	25.844	985.205	801.191
158.833	26.046	984.513	801.454
159.848	25.945	983.399	800.026
160.862	25.873	982.061	798.548
161.877	25.899	981.190	797.888
162.892	25.811	979.996	796.457
163.906	25.764	978.911	795.298
164.921	25.756	978.154	794.575
165.935	25.764	977.712	794.182
166.950	25.822	976.169	793.115
167.964	25.812	975.285	792.280
168.979	25.596	974.255	790.426
169.994	25.533	973.398	789.382
171.008	25.894	972.651	790.289
172.023	25.846	971.955	789.447
173.037	25.691	970.934	787.866
174.052	25.440	970.170	786.081
175.067	25.498	969.465	785.692
176.081	25.529	968.970	785.358
177.096	25.511	968.411	784.755
178.110	25.351	967.064	782.899
179.125	25.093	966.375	781.147
180.140	25.205	966.029	781.285
181.154	25.415	965.757	781.909
182.169	25.613	965.778	782.718
183.183	25.697	965.393	782.702
184.198	25.700	964.286	781.748
185.213	25.674	963.598	781.012
186.227	25.742	963.147	780.871
187.242	25.763	962.626	780.469
188.256	25.804	961.751	779.867
189.271	25.841	961.588	779.828
190.286	25.570	959.642	777.009
191.300	24.883	958.452	773.014
192.315	24.098	956.695	768.141
193.329	24.111	956.335	767.840
194.344	25.065	956.780	772.244
195.359	25.552	956.647	774.164
196.373	25.702	956.031	774.244
197.388	25.507	955.609	772.996
198.402	25.576	955.117	772.824
199.417	25.847	953.741	772.806
200.432	25.497	953.057	770.685
201.446	25.277	952.451	769.180
202.461	25.342	951.961	768.998
203.475	24.473	949.993	763.624
204.490	23.612	948.496	758.673
205.504	24.439	949.009	762.552
206.519	25.196	948.828	765.569
207.534	25.327	948.222	765.571
208.548	25.841	948.189	767.669
209.563	25.392	947.237	764.917
210.577	25.529	946.992	765.236
211.592	25.842	946.229	765.881
212.607	25.803	945.453	765.023
213.621	25.840	944.797	764.581
214.636	25.843	944.193	764.035
215.650	25.869	942.947	763.071
216.665	26.015	942.614	763.352
217.680	25.900	942.197	762.459
218.694	25.452	941.216	759.706
219.709	25.313	940.080	758.134
220.723	25.734	939.678	759.519
221.738	25.583	939.235	758.456
222.753	25.737	938.333	758.311
223.767	25.698	938.062	757.859
224.782	25.838	938.280	758.560
225.796	26.082	936.973	758.460
226.811	25.304	935.760	754.145
227.826	24.584	934.415	749.974
228.840	24.862	934.020	750.756
229.855	25.043	933.481	751.014
230.869	24.686	932.194	748.417
231.884	24.896	932.305	749.321
232.899	25.576	932.390	752.169
233.913	25.560	931.682	751.463
234.928	25.488	931.143	750.662
235.942	25.386	930.480	749.633
236.957	25.253	929.492	748.218
237.972	25.295	928.469	747.502
238.986	25.460	928.217	747.922
240.001	25.384	927.776	747.183
241.015	25.405	927.462	746.949
242.030	25.528	927.360	747.315
243.045	25.723	926.675	747.508
244.059	25.954	926.015	747.866
245.074	25.638	924.908	745.594
246.088	25.392	923.553	743.421
247.103	25.560	923.893	744.324
248.117	26.124	923.878	746.579
249.132	26.490	923.326	747.580
250.147	26.515	922.881	747.258
251.161	26.506	922.701	747.007
252.176	26.501	921.980	746.335
253.190	26.616	921.227	746.136
254.205	26.808	920.602	746.352
255.220	26.717	919.982	745.410
256.234	26.495	919.584	744.108
257.249	26.464	918.836	743.309
258.263	26.540	917.726	742.660
259.278	26.665	917.389	742.830
260.293	26.737	916.550	742.382
261.307	26.627	915.820	741.275
262.322	26.299	915.507	739.616
263.336	25.573	913.408	734.889
264.351	24.733	911.181	729.605
265.366	24.697	910.849	729.127
266.380	25.852	911.431	734.241
267.395	26.260	911.226	735.670
268.409	26.138	910.818	734.781
269.424	26.270	910.698	735.158
270.439	26.386	909.466	734.568
271.453	26.439	908.950	734.300
272.468	26.565	908.800	734.627
273.482	26.722	908.101	734.632
274.497	26.373	906.715	732.032
275.512	25.763	906.060	728.969
276.526	26.179	906.541	730.977
277.541	26.352	905.734	730.962
278.555	26.224	904.607	729.470
279.570	25.976	904.362	728.208
280.585	26.202	903.661	728.490
281.599	26.069	903.019	727.372
282.614	25.771	900.997	724.483
283.628	25.548	901.027	723.544
284.643	25.972	900.635	724.870
285.657	25.589	899.592	722.428
286.672	25.260	898.970	720.545
287.687	25.791	899.095	722.711
288.701	25.947	898.234	722.581
289.716	25.691	897.036	720.529
290.730	25.502	897.130	719.781
291.745	25.278	895.501	717.516
292.760	25.522	895.598	718.506
293.774	26.539	895.892	722.741
294.789	26.945	895.742	724.177
295.803	26.861	895.155	723.306
296.818	27.059	894.465	723.471
297.833	26.582	893.048	720.365
298.847	26.418	892.615	719.299
299.862	26.622	892.322	719.810
300.876	26.906	892.300	720.858
301.891	26.859	891.220	719.736
302.906	26.396	890.292	717.086
303.920	26.570	889.838	717.348
304.935	26.921	889.984	718.791
305.949	26.854	889.105	717.753
306.964	26.678	888.111	716.193
307.979	26.575	887.906	715.553
308.993	26.901	887.993	716.850
310.008	27.014	886.972	716.408
311.022	26.824	885.861	714.697
312.037	26.567	885.551	713.373
313.052	26.380	884.387	711.638
314.066	25.311	883.161	706.383
315.081	25.118	882.055	704.679
316.095	25.965	882.802	708.541
317.110	26.492	882.441	710.259
318.125	25.691	880.671	705.630
319.139	24.674	879.579	700.711
320.154	24.555	879.305	699.963
321.168	25.402	879.838	703.646
322.183	26.316	879.316	706.740
323.197	26.459	879.097	707.062
324.212	26.550	879.182	707.423
325.227	26.534	878.573	706.808
326.241	26.431	877.510	705.489
327.256	26.450	876.893	705.005
328.270	26.387	876.302	704.222
329.285	26.133	875.468	702.502
330.300	25.932	874.389	700.791
331.314	26.168	874.379	701.638
332.329	26.598	874.117	703.038
333.343	26.826	873.914	703.697
334.358	26.700	873.351	702.691
335.373	26.901	872.960	703.095
336.387	26.995	873.323	703.688
337.402	27.130	873.258	704.095
338.416	27.067	873.035	703.609
339.431	27.249	871.950	703.377
340.446	27.382	871.859	703.756
341.460	27.211	871.413	702.674
342.475	26.998	870.470	701.030
343.489	27.174	870.318	701.525
344.504	27.568	869.812	702.574
345.519	27.679	869.678	702.829
346.533	27.622	869.141	702.116
347.548	27.587	868.720	701.578
348.562	27.556	868.032	700.840
349.577	27.495	867.414	700.046
350.592	27.572	866.635	699.649
351.606	27.290	866.427	698.336
352.621	27.298	865.422	697.496
353.635	27.336	864.426	696.780
354.650	26.636	862.988	692.878
355.665	25.672	861.259	687.748
356.679	26.110	860.976	689.135
357.694	26.606	860.764	690.798
358.708	26.308	860.614	689.479
359.723	26.944	859.939	691.299
360.738	27.114	860.034	691.964
361.752	27.159	859.703	691.808
362.767	27.683	859.069	693.227
363.781	27.757	858.909	693.319
364.796	27.961	858.580	693.764
365.810	28.031	858.030	693.527
366.825	27.877	857.667	692.587
367.840	27.631	856.252	690.452
368.854	27.161	855.706	688.170
369.869	27.268	855.165	688.082
370.883	27.282	854.868	687.834
371.898	27.209	854.394	687.114
372.913	27.407	853.871	687.380
373.927	27.308	853.738	686.841
374.942	27.615	853.047	687.380
375.956	27.638	852.750	687.167
376.971	27.668	852.400	686.939
377.986	28.025	851.822	687.756
379.000	27.840	851.466	686.712
380.015	27.746	850.548	685.556
381.029	27.665	850.111	684.840
382.044	27.886	849.727	685.297
383.059	27.885	849.116	684.743
384.073	27.851	848.720	684.235
385.088	27.840	847.981	683.536
386.102	27.628	847.181	682.038
387.117	27.689	846.366	681.550
388.132	27.237	845.329	678.967
389.146	26.782	844.112	676.231
390.161	27.212	844.111	677.774
391.175	27.607	844.403	679.422
392.190	27.334	843.080	677.282
393.205	25.904	840.908	670.165
394.219	24.257	839.236	662.654
395.234	24.302	838.613	662.270
396.248	26.009	839.998	669.651
397.263	27.360	841.199	675.566
398.278	27.435	840.879	675.529
399.292	26.989	840.311	673.358
400.307	27.020	839.766	672.979
401.321	27.226	839.327	673.330
402.336	27.606	838.956	674.379
403.350	28.158	839.017	676.410
404.365	28.171	839.086	676.453
405.380	28.540	838.615	677.376
406.394	28.836	837.836	677.780
407.409	28.621	837.516	676.670
408.423	28.540	837.345	676.171
409.438	28.583	836.670	675.723
410.453	28.616	836.261	675.455
411.467	28.608	835.610	674.840
412.482	28.548	835.534	674.499
413.496	28.713	834.812	674.464
414.511	28.675	834.646	674.130
415.526	28.724	834.047	673.766
416.540	28.459	833.222	672.070
417.555	28.167	832.528	670.381
418.569	28.194	832.240	670.187
419.584	28.182	831.382	669.391
420.599	28.145	830.814	668.742
421.613	96.819	1270.468	1388.185
422.628	83.777	1334.525	1388.311
