DTS Sentinel unit serial number:	SN413079Multiplexer serial number:	ORYXHardware model number:	OX4-SRSoftware version number:	ORYX F/W v4.00 Oryx Data Collector v3.7.2.0data status	okinstallation	princeton_trtdifferential loss correction	single-endedforward channel	channel 1reverse channel	N/Adate	2019/09/16time	04:10:35forward acquisition time	60.00reverse acquisition time	0.00gamma	496.2192k internal	0.2331k external	0.2331temperature offset calibration	0.9987default loss term (dB/km)	0.3790temperature slope calibration	1.0000multiplexer offset coefficient	1.0000multiplexer slope coefficient	1.0000fibre end	0.00T internal ref (°C)	27.37T ext. ref 1 (°C)	10.76T ext. ref 2 (°C)	21.38length (m)	temperature (°C)	Stokes	anti-Stokes-747.200	-131.585	0.179	-0.024
-746.185	-172.592	-0.227	-0.007
-745.171	319.728	0.053	0.101
-744.156	-200.000	-0.063	0.323
-743.142	55.140	-0.186	-0.181
-742.127	-165.065	-0.429	0.019
-741.112	-57.552	-0.247	0.109
-740.098	-37.787	-0.384	0.206
-739.083	800.000	0.122	0.445
-738.069	800.000	0.019	0.074
-737.054	800.000	-0.086	0.285
-736.039	-159.887	-0.354	0.019
-735.025	105.836	0.096	-0.114
-734.010	-56.924	-0.210	-0.093
-732.996	-200.000	-0.035	-0.268
-731.981	800.000	0.038	-0.144
-730.966	-122.241	-0.414	-0.068
-729.952	131.871	-0.036	-0.047
-728.937	317.828	-0.224	-0.427
-727.923	800.000	-0.031	-0.113
-726.908	785.374	0.082	-0.227
-725.894	366.879	-0.073	-0.148
-724.879	-200.000	0.024	-0.285
-723.864	-56.088	-0.406	-0.182
-722.850	-200.000	0.003	0.146
-721.835	-200.000	0.002	0.283
-720.821	166.078	-0.116	-0.165
-719.806	-108.920	0.042	-0.009
-718.791	-200.000	-0.037	-0.174
-717.777	669.949	0.048	0.126
-716.762	352.055	-0.204	-0.406
-715.748	-83.330	-0.177	-0.057
-714.733	602.329	0.080	0.199
-713.718	250.605	-0.054	-0.092
-712.704	-7.007	0.186	-0.127
-711.689	-52.277	0.106	-0.049
-710.675	54.426	-0.323	-0.312
-709.660	-67.538	0.070	0.028
-708.645	-131.173	0.080	-0.011
-707.631	68.239	0.117	0.121
-706.616	2.979	-0.199	-0.145
-705.602	599.882	0.126	-0.313
-704.587	70.221	0.059	-0.061
-703.572	800.000	-0.052	0.221
-702.558	-37.975	0.153	-0.082
-701.543	317.653	0.099	-0.187
-700.529	-200.000	0.053	-0.249
-699.514	-6.493	-0.294	-0.202
-698.499	328.128	0.102	0.197
-697.485	-125.800	-0.162	-0.025
-696.470	-200.000	0.031	-0.139
-695.456	-108.593	-0.408	-0.088
-694.441	-118.966	-0.169	0.030
-693.426	135.565	0.081	0.106
-692.412	-146.407	0.427	-0.037
-691.397	73.527	-0.071	0.075
-690.383	253.787	0.105	-0.180
-689.368	-194.881	0.103	0.001
-688.354	156.554	0.103	0.143
-687.339	-24.171	-0.449	-0.269
-686.324	-171.535	-0.075	-0.002
-685.310	245.286	-0.013	0.022
-684.295	-200.000	0.015	-0.086
-683.281	78.436	0.031	0.033
-682.266	-105.299	0.330	-0.075
-681.251	-172.748	-0.219	0.007
-680.237	-102.618	-0.404	0.097
-679.222	43.999	0.238	-0.219
-678.208	-151.000	-0.189	0.014
-677.193	-176.283	0.117	-0.003
-676.178	-61.601	-0.246	0.104
-675.164	-200.000	0.050	-0.260
-674.149	70.953	0.112	-0.116
-673.135	-200.000	0.002	0.045
-672.120	34.277	-0.070	0.061
-671.105	20.181	-0.244	0.198
-670.091	800.000	-0.029	0.114
-669.076	-4.321	0.042	-0.029
-668.062	-82.358	-0.198	0.064
-667.047	-45.571	0.260	0.129
-666.032	-41.922	0.231	0.119
-665.018	800.000	-0.031	0.089
-664.003	-62.634	-0.107	-0.044
-662.989	-200.000	-0.029	-0.372
-661.974	40.137	0.225	-0.203
-660.959	800.000	0.087	0.244
-659.945	127.123	0.074	0.094
-658.930	118.002	0.163	-0.202
-657.916	-27.452	0.373	-0.217
-656.901	-131.382	0.087	0.011
-655.886	-200.000	0.017	-0.080
-654.872	800.000	0.061	0.188
-653.857	-80.153	-0.226	0.076
-652.843	10.826	0.102	-0.078
-651.828	253.310	0.024	0.041
-650.814	623.810	-0.062	-0.157
-649.799	-200.000	0.019	-0.441
-648.784	48.394	-0.075	-0.070
-647.770	28.814	-0.113	-0.096
-646.755	-11.177	-0.189	-0.125
-645.741	-74.416	0.178	0.064
-644.726	749.654	-0.072	0.196
-643.711	-67.745	0.209	0.082
-642.697	-23.281	0.149	-0.090
-641.682	-25.846	0.233	-0.137
-640.668	-200.000	-0.003	-0.188
-639.653	-109.300	-0.160	-0.034
-638.638	381.565	-0.111	-0.229
-637.624	-25.133	0.285	-0.169
-636.609	-55.994	0.412	-0.184
-635.595	-143.252	-0.057	0.006
-634.580	-89.727	0.130	-0.038
-633.565	-200.000	-0.040	0.183
-632.551	-200.000	0.016	0.125
-631.536	168.989	-0.170	0.243
-630.522	-5.408	-0.105	0.072
-629.507	-70.702	-0.118	-0.044
-628.492	430.633	-0.068	0.147
-627.478	67.958	-0.109	0.111
-626.463	27.077	0.158	-0.133
-625.449	26.926	0.182	-0.152
-624.434	-200.000	0.003	-0.203
-623.419	800.000	-0.011	0.030
-622.405	-200.000	-0.022	0.178
-621.390	66.490	-0.112	-0.114
-620.376	-149.732	-0.244	0.019
-619.361	-200.000	-0.010	-0.197
-618.346	-200.000	-0.027	-0.273
-617.332	393.833	0.085	0.177
-616.317	-117.008	-0.410	0.075
-615.303	-12.682	0.169	-0.110
-614.288	-200.000	-0.018	-0.237
-613.273	-59.062	-0.260	0.113
-612.259	3.058	0.165	-0.120
-611.244	-200.000	-0.031	0.224
-610.230	-200.000	-0.002	-0.189
-609.215	102.695	-0.033	-0.038
-608.201	-200.000	-0.009	0.075
-607.186	-200.000	0.005	-0.075
-606.171	16.795	0.009	-0.007
-605.157	69.827	-0.388	-0.401
-604.142	-200.000	0.009	-0.052
-603.128	699.984	-0.128	-0.336
-602.113	247.546	0.139	0.235
-601.098	152.742	0.088	0.120
-600.084	-200.000	-0.052	-0.323
-599.069	5.917	-0.225	0.167
-598.055	93.548	-0.037	0.041
-597.040	254.713	0.073	-0.124
-596.025	800.000	-0.031	-0.096
-595.011	722.458	0.123	-0.328
-593.996	-200.000	-0.011	0.224
-592.982	-32.054	-0.203	0.114
-591.967	23.725	0.194	-0.159
-590.952	318.959	-0.102	-0.193
-589.938	135.733	-0.094	0.123
-588.923	680.445	0.073	-0.191
-587.909	-30.673	-0.216	0.122
-586.894	-200.000	0.010	0.061
-585.879	60.671	-0.298	-0.295
-584.865	-75.338	0.085	0.030
-583.850	-16.960	-0.182	-0.115
-582.836	-200.000	-0.012	-0.075
-581.821	-54.938	0.298	0.134
-580.806	-174.684	0.051	-0.001
-579.792	-118.059	0.194	0.035
-578.777	-45.023	-0.114	-0.057
-577.763	4.835	0.222	-0.163
-576.748	273.345	0.163	0.288
-575.733	-134.708	-0.269	-0.033
-574.719	213.847	-0.053	-0.084
-573.704	-200.000	0.145	0.000
-572.690	57.335	-0.223	-0.218
-571.675	-200.000	0.067	0.359
-570.661	-80.130	0.043	-0.015
-569.646	-56.723	-0.133	0.059
-568.631	521.811	-0.119	-0.280
-567.617	-79.122	0.138	0.047
-566.602	17.297	0.167	-0.133
-565.588	-17.292	0.192	-0.121
-564.573	-200.000	0.013	-0.303
-563.558	-200.000	0.241	0.001
-562.544	30.883	-0.143	0.122
-561.529	-200.000	0.040	-0.225
-560.515	-200.000	0.028	-0.136
-559.500	-200.000	0.261	0.000
-558.485	800.000	-0.118	-0.380
-557.471	-200.000	0.010	0.170
-556.456	92.152	-0.126	-0.142
-555.442	-73.724	-0.186	-0.067
-554.427	44.496	0.085	-0.078
-553.412	63.283	0.120	0.120
-552.398	208.796	-0.179	0.280
-551.383	397.502	0.116	-0.242
-550.369	-141.847	-0.130	0.013
-549.354	-200.000	-0.101	0.519
-548.339	-60.945	0.510	0.215
-547.325	-96.122	-0.218	-0.058
-546.310	-200.000	0.004	-0.343
-545.296	800.000	-0.014	0.054
-544.281	67.967	0.204	0.209
-543.266	108.449	-0.223	0.265
-542.252	-168.678	0.138	0.005
-541.237	370.456	0.069	-0.140
-540.223	-143.641	-0.283	-0.027
-539.208	-200.000	-0.042	0.209
-538.193	141.650	0.067	-0.089
-537.179	-49.536	0.299	-0.142
-536.164	18.992	0.368	0.294
-535.150	-200.000	0.057	-0.634
-534.135	800.000	-0.102	-0.286
-533.121	24.564	0.053	-0.044
-532.106	-59.380	0.555	-0.238
-531.091	38.078	-0.065	0.058
-530.077	-4.759	-0.226	-0.156
-529.062	-48.129	0.343	0.165
-528.048	-94.428	0.310	0.084
-527.033	47.552	-0.071	0.066
-526.018	-200.000	-0.021	0.387
-525.004	37.213	-0.267	0.236
-523.989	102.833	-0.155	-0.181
-522.975	-89.231	0.265	0.078
-521.960	104.020	-0.242	0.284
-520.945	-108.008	-0.259	0.056
-519.931	-42.491	0.209	0.106
-518.916	-160.707	0.192	0.010
-517.902	800.000	0.054	-0.156
-516.887	-136.547	0.255	-0.029
-515.872	-61.176	-0.102	-0.043
-514.858	-135.145	-0.185	-0.022
-513.843	-200.000	-0.064	0.329
-512.829	-200.000	0.017	0.253
-511.814	182.562	0.058	0.085
-510.799	120.992	0.029	-0.036
-509.785	-85.500	-0.138	-0.043
-508.770	-101.142	0.441	0.108
-507.756	800.000	0.084	-0.240
-506.741	274.015	-0.041	0.072
-505.726	-101.552	-0.234	-0.057
-504.712	-157.451	-0.182	0.011
-503.697	126.927	-0.008	-0.010
-502.683	-169.165	-0.531	0.020
-501.668	293.264	0.186	0.338
-500.653	-105.575	-0.299	-0.068
-499.639	32.500	0.312	-0.269
-498.624	800.000	0.035	-0.106
-497.610	-69.925	-0.309	0.118
-496.595	22.508	-0.077	0.063
-495.581	-112.822	0.374	-0.074
-494.566	12.236	0.106	-0.081
-493.551	-9.919	-0.131	-0.087
-492.537	-83.810	0.324	0.103
-491.522	-61.671	-0.161	0.067
-490.508	112.256	0.151	-0.182
-489.493	277.314	0.231	0.409
-488.478	800.000	0.015	0.066
-487.464	-60.042	-0.396	-0.169
-486.449	595.796	0.080	0.198
-485.435	-73.709	0.080	-0.029
-484.420	800.000	-0.103	0.316
-483.405	800.000	-0.038	0.160
-482.391	-100.582	-0.342	0.084
-481.376	-164.980	0.129	-0.006
-480.362	800.000	0.036	-0.122
-479.347	150.933	0.123	-0.167
-478.332	-200.000	0.013	-0.107
-477.318	508.406	-0.079	0.183
-476.303	89.654	0.132	0.147
-475.289	233.664	-0.093	0.152
-474.274	522.576	-0.075	0.175
-473.259	-125.384	-0.016	-0.002
-472.245	800.000	-0.047	-0.135
-471.230	111.531	0.339	-0.407
-470.216	235.403	-0.086	-0.142
-469.201	-128.238	-0.193	-0.027
-468.186	-200.000	-0.033	0.156
-467.172	-34.571	0.288	0.157
-466.157	141.299	-0.045	-0.059
-465.143	504.001	-0.030	-0.068
-464.128	3.082	-0.175	-0.127
-463.113	-200.000	-0.012	-0.100
-462.099	800.000	0.038	-0.164
-461.084	11.840	-0.104	-0.079
-460.070	-55.156	0.278	-0.124
-459.055	64.185	0.090	-0.090
-458.040	18.602	-0.196	0.156
-457.026	-43.940	0.368	-0.184
-456.011	-4.861	-0.071	-0.049
-454.997	205.128	0.106	-0.164
-453.982	53.413	0.086	-0.082
-452.968	783.095	-0.068	-0.186
-451.953	11.430	-0.102	0.078
-450.938	-79.456	0.238	-0.080
-449.924	-104.216	-0.229	0.053
-448.909	240.134	-0.039	0.064
-447.895	-13.541	0.153	0.098
-446.880	25.373	0.142	-0.118
-445.865	274.622	0.159	0.281
-444.851	-65.041	0.461	0.185
-443.836	-200.000	-0.008	-0.041
-442.822	-200.000	0.006	-0.031
-441.807	-200.000	0.010	0.105
-440.792	429.566	-0.071	-0.154
-439.778	-200.000	0.015	-0.256
-438.763	92.076	0.133	0.149
-437.749	-37.143	-0.213	0.113
-436.734	-200.000	0.012	0.171
-435.719	76.442	0.145	-0.152
-434.705	33.049	-0.134	0.115
-433.690	153.068	0.051	-0.070
-432.676	145.544	-0.188	0.250
-431.661	-13.881	-0.308	0.198
-430.646	249.198	0.158	0.266
-429.632	-200.000	-0.040	0.256
-428.617	800.000	0.066	0.188
-427.603	-122.173	0.201	-0.033
-426.588	-200.000	-0.002	-0.217
-425.573	101.900	-0.101	-0.117
-424.559	-69.260	0.338	0.129
-423.544	800.000	-0.125	-0.374
-422.530	220.858	0.143	0.228
-421.515	588.931	0.035	0.085
-420.500	-72.254	-0.089	0.033
-419.486	-76.007	0.026	-0.009
-418.471	-90.012	0.096	-0.028
-417.457	-200.000	-0.005	-0.238
-416.442	-56.989	-0.225	-0.098
-415.428	-47.166	-0.212	0.103
-414.413	-119.293	0.206	0.036
-413.398	-157.921	-0.439	-0.026
-412.384	318.284	0.086	-0.161
-411.369	-157.783	0.185	0.011
-410.355	-10.174	-0.173	-0.114
-409.340	-106.417	0.112	-0.025
-408.325	-200.000	-0.039	0.342
-407.311	-45.705	0.192	-0.094
-406.296	-70.882	-0.182	0.068
-405.282	473.864	-0.052	-0.117
-404.267	800.000	-0.106	-0.295
-403.252	183.238	0.079	0.116
-402.238	154.408	0.048	-0.066
-401.223	800.000	0.056	0.174
-400.209	66.054	-0.123	0.124
-399.194	25.240	0.049	-0.040
-398.179	-108.676	-0.260	0.055
-397.165	142.452	0.217	0.286
-396.150	-200.000	-0.024	0.535
-395.136	800.000	0.043	-0.174
-394.121	287.496	0.023	0.041
-393.106	-48.148	0.018	-0.009
-392.092	-99.816	0.381	-0.095
-391.077	-29.033	0.043	0.025
-390.063	-45.140	0.070	0.035
-389.048	140.456	0.245	-0.321
-388.033	-77.665	-0.233	0.080
-387.019	800.000	0.123	-0.365
-386.004	-52.783	-0.188	0.086
-384.990	-111.287	-0.345	0.070
-383.975	-3.777	0.396	-0.273
-382.960	115.487	0.035	-0.043
-381.946	30.263	-0.267	-0.226
-380.931	41.979	-0.137	0.123
-379.917	321.559	-0.077	-0.145
-378.902	-59.992	0.364	0.154
-377.888	-20.456	0.510	0.311
-376.873	-45.354	0.105	-0.052
-375.858	-11.775	0.244	-0.159
-374.844	723.874	0.096	0.253
-373.829	-82.079	-0.406	-0.132
-372.815	800.000	0.085	-0.269
-371.800	800.000	-0.016	0.056
-370.785	-200.000	-0.055	0.289
-369.771	-154.843	-0.219	-0.014
-368.756	2.812	-0.019	0.013
-367.742	-41.944	-0.180	0.091
-366.727	-2.188	0.254	0.177
-365.712	8.817	-0.219	-0.164
-364.698	800.000	0.097	0.354
-363.683	800.000	0.036	-0.142
-362.669	800.000	0.031	-0.095
-361.654	-200.000	-0.057	0.503
-360.639	-200.000	0.030	0.176
-359.625	-48.704	0.091	-0.043
-358.610	-200.000	0.019	0.139
-357.596	-200.000	0.047	0.230
-356.581	-200.000	-0.018	-0.156
-355.566	322.037	-0.102	0.193
-354.552	-200.000	0.122	-0.000
-353.537	-20.959	-0.124	-0.075
-352.523	-40.243	-0.090	0.047
-351.508	371.755	-0.083	-0.166
-350.493	330.747	-0.091	0.174
-349.479	-47.582	0.139	0.067
-348.464	747.783	-0.154	-0.411
-347.450	123.330	0.100	0.124
-346.435	-200.000	0.269	-0.001
-345.420	422.841	-0.100	0.212
-344.406	559.603	-0.077	0.183
-343.391	-38.118	-0.303	0.159
-342.377	505.134	-0.090	0.206
-341.362	-31.018	-0.382	0.214
-340.348	242.654	-0.133	-0.220
-339.333	-160.686	0.092	-0.005
-338.318	122.606	0.147	-0.182
-337.304	800.000	0.133	-0.377
-336.289	-106.542	-0.224	-0.049
-335.275	800.000	-0.086	-0.272
-334.260	21.978	0.285	-0.230
-333.245	2.883	0.087	0.063
-332.231	120.337	0.054	0.067
-331.216	-134.106	0.227	-0.028
-330.202	800.000	0.072	-0.221
-329.187	800.000	0.073	0.208
-328.172	104.147	-0.386	-0.450
-327.158	800.000	0.052	-0.156
-326.143	-54.476	-0.111	0.050
-325.129	-29.301	-0.059	0.034
-324.114	-71.267	-0.231	-0.086
-323.099	23.623	0.222	-0.181
-322.085	-166.265	-0.321	0.013
-321.070	127.591	0.181	-0.227
-320.056	367.713	0.070	0.139
-319.041	14.402	0.149	0.115
-318.026	-200.000	0.015	0.230
-317.012	728.796	-0.093	0.246
-315.997	45.698	0.067	-0.062
-314.983	55.428	-0.198	-0.189
-313.968	-28.798	0.170	0.097
-312.953	-59.315	-0.120	0.051
-311.939	-99.027	0.095	-0.024
-310.924	-173.294	-0.223	0.007
-309.910	-32.444	-0.239	0.132
-308.895	-120.998	-0.092	-0.015
-307.880	15.145	-0.114	0.089
-306.866	560.409	0.074	-0.177
-305.851	800.000	-0.068	0.261
-304.837	-200.000	0.010	0.163
-303.822	156.695	-0.135	-0.184
-302.807	-2.462	0.179	0.124
-301.793	694.978	0.113	0.292
-300.778	197.289	0.114	-0.172
-299.764	236.780	0.067	0.110
-298.749	377.140	-0.047	-0.095
-297.735	391.432	0.102	0.209
-296.720	-123.758	-0.307	0.048
-295.705	321.531	-0.079	0.149
-294.691	800.000	-0.062	-0.179
-293.676	-48.239	0.092	0.044
-292.662	-109.998	0.064	-0.013
-291.647	-40.807	0.256	-0.131
-290.632	-136.293	-0.076	-0.009
-289.618	800.000	0.019	0.063
-288.603	-132.423	0.210	0.027
-287.589	-31.476	-0.033	-0.018
-286.574	30.255	0.168	0.142
-285.559	-200.000	-0.061	0.278
-284.545	-79.032	-0.196	0.066
-283.530	27.793	-0.250	0.208
-282.516	-74.745	-0.133	0.047
-281.501	715.074	0.102	-0.268
-280.486	-122.001	-0.395	0.064
-279.472	-200.000	-0.076	-0.343
-278.457	800.000	-0.018	-0.054
-277.443	2.425	-0.127	-0.091
-276.428	-78.243	-0.274	0.093
-275.413	93.667	-0.134	0.150
-274.399	86.592	0.210	-0.229
-273.384	-200.000	-0.039	0.214
-272.370	-200.000	-0.018	-0.089
-271.355	20.356	-0.135	0.107
-270.340	-73.230	-0.227	-0.082
-269.326	-179.874	-0.199	0.004
-268.311	134.668	0.023	-0.030
-267.297	-67.268	0.270	0.105
-266.282	68.942	-0.144	0.146
-265.267	222.213	-0.142	0.226
-264.253	-39.311	-0.006	0.003
-263.238	293.936	-0.174	0.313
-262.224	-72.074	0.197	0.072
-261.209	-72.614	-0.269	0.098
-260.195	-6.542	-0.292	0.197
-259.180	323.133	0.100	-0.188
-258.165	-127.373	-0.061	0.009
-257.151	65.147	-0.202	-0.202
-256.136	-34.160	-0.239	0.129
-255.122	518.160	0.144	-0.333
-254.107	-200.000	-0.012	-0.092
-253.092	-35.990	0.126	0.067
-252.078	452.072	0.172	-0.376
-251.063	-200.000	0.060	0.287
-250.049	450.986	0.066	0.144
-249.034	4.589	0.316	-0.229
-248.019	173.710	-0.117	-0.167
-247.005	-78.814	0.122	0.041
-245.990	800.000	-0.039	-0.116
-244.976	164.008	-0.050	-0.069
-243.961	-200.000	-0.034	-0.262
-242.946	-137.158	0.204	-0.023
-241.932	-200.000	-0.018	-0.154
-240.917	-90.595	-0.203	-0.058
-239.903	76.877	0.019	-0.019
-238.888	-59.438	-0.290	-0.123
-237.873	-165.323	-0.107	0.005
-236.859	232.186	0.177	0.287
-235.844	800.000	0.140	0.472
-234.830	45.531	-0.115	0.105
-233.815	-172.244	0.386	0.012
-232.800	-200.000	0.000	-0.399
-231.786	-164.450	-0.161	-0.007
-230.771	-200.000	-0.015	-0.091
-229.757	-74.389	0.055	0.019
-228.742	-200.000	0.010	-0.076
-227.727	-80.033	-0.127	0.042
-226.713	-122.046	0.119	-0.019
-225.698	-84.801	0.284	0.088
-224.684	139.216	-0.192	-0.250
-223.669	-200.000	0.014	0.258
-222.655	-200.000	0.023	0.339
-221.640	-151.280	-0.124	-0.009
-220.625	162.690	-0.046	-0.063
-219.611	451.707	-0.164	0.357
-218.596	0.752	0.134	0.094
-217.582	800.000	0.083	0.313
-216.567	60.371	-0.164	-0.160
-215.552	-22.695	-0.034	0.021
-214.538	800.000	0.014	-0.048
-213.523	-64.609	-0.187	-0.075
-212.509	-81.236	0.256	0.083
-211.494	19.784	0.060	0.048
-210.479	-200.000	0.002	-0.098
-209.465	-200.000	-0.015	-0.121
-208.450	-26.589	-0.266	0.153
-207.436	12.067	0.151	-0.115
-206.421	-27.817	-0.205	-0.117
-205.406	-200.000	-0.007	0.162
-204.392	775.825	0.066	-0.177
-203.377	-200.000	-0.032	-0.183
-202.363	-119.883	0.127	-0.021
-201.348	-190.430	0.295	0.003
-200.333	-200.000	-0.005	0.161
-199.319	-99.302	0.202	0.050
-198.304	-139.517	-0.355	-0.037
-197.290	365.535	0.056	-0.112
-196.275	800.000	-0.074	0.275
-195.260	574.069	0.056	0.134
-194.246	-151.780	0.385	-0.028
-193.231	-129.630	-0.210	0.029
-192.217	800.000	0.112	-0.334
-191.202	170.192	0.181	-0.256
-190.187	-63.528	-0.171	0.069
-189.173	-0.676	-0.100	-0.070
-188.158	-7.768	-0.133	-0.089
-187.144	-200.000	-0.030	-0.340
-186.129	-20.669	-0.218	-0.132
-185.114	325.682	-0.042	-0.078
-184.100	-52.097	0.265	0.121
-183.085	-76.206	0.418	0.145
-182.071	210.920	-0.091	-0.141
-181.056	-26.344	-0.091	-0.053
-180.042	215.890	0.105	0.164
-179.027	-200.000	0.021	0.226
-178.012	445.377	-0.094	0.203
-176.998	-34.128	-0.124	-0.067
-175.983	37.172	-0.136	0.119
-174.969	176.267	0.149	0.213
-173.954	-7.252	0.051	0.034
-172.939	-200.000	0.022	0.226
-171.925	-142.951	0.232	0.022
-170.910	-67.236	0.126	-0.049
-169.896	517.503	0.043	-0.100
-168.881	-89.695	-0.315	0.091
-167.866	-18.422	0.315	-0.193
-166.852	-54.451	-0.325	0.145
-165.837	98.277	0.115	0.130
-164.823	-31.141	-0.081	0.045
-163.808	-56.442	0.428	-0.187
-162.793	-77.043	-0.361	-0.124
-161.779	-200.000	-0.028	0.154
-160.764	800.000	0.077	0.299
-159.750	-200.000	0.096	-0.501
-158.735	195.403	-0.067	-0.100
-157.720	-126.869	-0.324	-0.047
-156.706	186.625	0.200	0.292
-155.691	-127.629	-0.127	0.018
-154.677	-26.753	-0.242	0.139
-153.662	-127.160	0.057	-0.008
-152.647	-46.800	0.412	0.198
-151.633	82.298	0.098	0.105
-150.618	-55.920	-0.153	-0.067
-149.604	639.461	0.236	0.589
-148.589	40.968	0.270	0.239
-147.574	38.301	-0.277	0.242
-146.560	-200.000	-0.019	0.203
-145.545	-119.963	-0.380	0.064
-144.531	-200.000	-0.033	0.460
-143.516	314.397	-0.124	0.230
-142.502	-93.798	0.172	0.047
-141.487	378.647	0.222	-0.447
-140.472	587.027	0.147	-0.356
-139.458	-99.414	-0.229	-0.057
-138.443	20.627	-0.230	-0.183
-137.429	88.763	-0.135	0.148
-136.414	-139.994	-0.185	0.019
-135.399	800.000	-0.051	0.182
-134.385	-60.670	0.400	-0.167
-133.370	56.433	-0.344	-0.329
-132.356	-57.096	0.289	0.125
-131.341	-47.403	0.081	-0.039
-130.326	479.927	-0.047	-0.104
-129.312	-200.000	-0.027	0.119
-128.297	759.397	-0.057	0.151
-127.283	188.441	0.177	0.260
-126.268	775.153	-0.100	-0.269
-125.253	19.362	0.123	0.097
-124.239	-128.038	-0.043	-0.006
-123.224	-148.097	-0.365	0.030
-122.210	55.172	0.256	0.243
-121.195	-199.512	0.222	-0.001
-120.180	-200.000	-0.045	0.308
-119.166	-157.296	0.036	0.002
-118.151	32.874	0.327	-0.278
-117.137	-200.000	0.006	0.053
-116.122	-200.000	-0.046	0.314
-115.107	-102.081	0.515	0.122
-114.093	-68.507	-0.262	-0.100
-113.078	178.360	0.136	0.195
-112.064	-58.912	0.101	-0.043
-111.049	-200.000	0.035	0.319
-110.034	553.530	-0.102	0.240
-109.020	226.434	0.066	-0.106
-108.005	-184.641	0.326	-0.005
-106.991	431.221	-0.060	-0.129
-105.976	73.510	-0.073	-0.075
-104.962	280.680	0.241	-0.424
-103.947	-200.000	-0.006	0.114
-102.932	128.308	-0.272	-0.340
-101.918	-149.793	-0.227	-0.017
-100.903	-18.916	0.238	0.145
-99.889	666.487	-0.110	-0.279
-98.874	-123.397	0.147	0.023
-97.859	-20.223	-0.066	0.040
-96.845	800.000	-0.043	0.178
-95.830	800.000	-0.026	-0.103
-94.816	-200.000	-0.010	-0.105
-93.801	-200.000	0.050	0.352
-92.786	-6.645	-0.378	-0.253
-91.772	711.289	0.111	-0.287
-90.757	691.533	-0.017	0.043
-89.743	-21.282	-0.190	-0.114
-88.728	226.532	-0.077	-0.122
-87.713	-104.821	0.401	-0.090
-86.699	34.122	0.257	0.220
-85.684	-71.771	0.245	0.090
-84.670	-200.000	-0.028	0.260
-83.655	-40.938	-0.097	-0.049
-82.640	559.444	0.100	0.236
-81.626	480.401	-0.051	-0.113
-80.611	269.376	0.123	0.211
-79.597	-98.387	-0.283	-0.071
-78.582	-131.289	0.204	0.026
-77.567	89.724	0.053	0.058
-76.553	372.799	-0.032	-0.064
-75.538	38.649	0.279	-0.244
-74.524	800.000	-0.038	0.105
-73.509	133.998	0.154	-0.195
-72.494	800.000	0.079	0.233
-71.480	81.119	0.168	-0.178
-70.465	385.168	0.091	-0.185
-69.451	-177.348	0.468	0.011
-68.436	337.049	0.065	-0.124
-67.422	285.456	0.227	0.401
-66.407	-183.976	0.283	0.005
-65.392	-82.090	0.010	-0.003
-64.378	157.198	-0.041	-0.056
-63.363	395.608	-0.067	0.137
-62.349	-45.345	0.351	0.171
-61.334	49.692	-1.117	-1.031
-60.319	-3.038	0.810	0.554
-59.305	258.688	-0.724	-1.222
-58.290	800.000	0.512	1.523
-57.276	-200.000	0.246	1.516
-56.261	-200.000	114.652	647.871
-55.246	467.936	1512.124	3322.212
-54.232	147.085	2674.802	3524.440
-53.217	103.117	2151.117	2468.998
-52.203	38.704	1599.189	1397.784
-51.188	30.644	1345.810	1127.640
-50.173	27.840	1307.822	1079.220
-49.159	55.302	1363.736	1291.633
-48.144	53.867	1378.036	1296.500
-47.130	30.968	1334.014	1119.530
-46.115	27.433	1316.113	1083.469
-45.100	27.257	1311.526	1078.609
-44.086	27.270	1308.639	1076.265
-43.071	27.142	1306.937	1074.066
-42.057	27.118	1304.829	1072.149
-41.042	27.199	1302.935	1071.028
-40.027	27.191	1301.222	1069.534
-39.013	27.188	1299.277	1067.875
-37.998	27.339	1297.201	1067.012
-36.984	27.322	1295.813	1065.728
-35.969	27.310	1294.298	1064.369
-34.954	27.422	1292.000	1063.091
-33.940	27.484	1290.675	1062.322
-32.925	27.473	1289.521	1061.264
-31.911	27.436	1288.353	1060.044
-30.896	27.483	1286.689	1058.910
-29.881	27.423	1286.114	1058.044
-28.867	27.497	1283.826	1056.545
-27.852	27.449	1282.119	1054.821
-26.838	27.537	1281.427	1054.722
-25.823	27.527	1279.722	1053.221
-24.809	27.457	1278.840	1052.047
-23.794	27.464	1276.866	1050.419
-22.779	27.490	1275.614	1049.497
-21.765	27.412	1274.857	1048.383
-20.750	27.555	1273.301	1047.884
-19.736	27.440	1272.120	1046.212
-18.721	27.430	1270.552	1044.824
-17.706	27.267	1270.017	1043.405
-16.692	27.419	1268.218	1042.756
-15.677	27.301	1267.825	1041.721
-14.663	27.351	1266.454	1040.837
-13.648	27.303	1265.290	1039.562
-12.633	27.322	1263.908	1038.494
-11.619	27.276	1263.713	1038.030
-10.604	27.296	1262.503	1037.112
-9.590	27.273	1262.000	1036.526
-8.575	27.282	1260.453	1035.263
-7.560	27.224	1259.984	1034.510
-6.546	27.242	1259.017	1033.778
-5.531	27.289	1257.869	1033.059
-4.517	27.330	1257.175	1032.683
-3.502	27.292	1256.441	1031.823
-2.487	27.345	1254.957	1030.864
-1.473	27.357	1250.802	1027.477
-0.458	25.662	1236.362	1006.107
0.556	20.895	1219.506	968.698
1.571	17.176	1225.686	952.700
2.586	16.423	1240.248	959.661
3.600	16.513	1229.591	951.839
4.615	15.184	1163.455	893.476
5.629	12.306	1097.453	828.218
6.644	10.821	1080.821	808.217
7.659	10.811	1078.744	806.543
8.673	10.771	1077.289	805.183
9.688	10.627	1076.243	803.619
10.702	10.919	1073.849	803.201
11.717	12.557	1075.252	812.275
12.731	15.694	1078.515	830.182
13.746	17.659	1081.046	841.767
14.761	17.645	1081.015	841.601
15.775	16.705	1079.036	835.352
16.790	15.730	1076.484	828.501
17.804	14.865	1075.080	823.088
18.819	14.534	1073.928	820.507
19.834	14.237	1072.941	818.221
20.848	13.896	1072.645	816.248
21.863	13.759	1071.176	814.382
22.877	13.647	1070.460	813.220
23.892	13.730	1069.519	812.840
24.907	13.573	1069.591	812.050
25.921	13.788	1067.839	811.700
26.936	13.546	1066.648	809.544
27.950	13.721	1065.312	809.311
28.965	13.682	1063.929	807.997
29.980	13.854	1062.002	807.300
30.994	13.877	1061.215	806.741
32.009	13.822	1060.394	805.777
33.023	13.911	1058.716	804.864
34.038	13.788	1058.122	803.747
35.053	13.760	1056.727	802.479
36.067	13.756	1056.144	801.948
37.082	13.787	1055.209	801.317
38.096	13.822	1054.728	801.048
39.111	13.810	1054.102	800.442
40.126	13.818	1052.845	799.457
41.140	13.573	1051.505	797.188
42.155	13.571	1050.142	796.078
43.169	13.537	1049.552	795.394
44.184	13.525	1048.433	794.421
45.199	13.536	1047.202	793.471
46.213	13.609	1046.028	792.857
47.228	13.652	1045.228	792.388
48.242	13.764	1043.629	791.640
49.257	13.794	1042.776	791.068
50.271	13.750	1041.855	790.088
51.286	13.739	1041.089	789.385
52.301	13.661	1040.268	788.322
53.315	13.576	1039.301	787.118
54.330	13.733	1037.821	786.667
55.344	13.617	1037.368	785.706
56.359	13.704	1036.006	785.016
57.374	13.709	1034.901	784.132
58.388	13.546	1034.454	782.953
59.403	13.449	1034.209	782.243
60.417	13.536	1032.945	781.627
61.432	13.479	1032.394	780.870
62.447	13.498	1031.206	779.996
63.461	13.492	1030.676	779.494
64.476	13.434	1029.523	778.285
65.490	13.533	1028.670	778.034
66.505	13.497	1028.499	777.665
67.520	13.616	1027.355	777.291
68.534	13.511	1026.525	776.104
69.549	13.470	1026.054	775.487
70.563	13.500	1025.142	774.869
71.578	13.480	1024.389	774.136
72.593	13.493	1023.620	773.547
73.607	13.406	1022.980	772.589
74.622	13.355	1022.512	771.931
75.636	13.396	1021.753	771.482
76.651	13.356	1020.909	770.586
77.666	13.407	1020.697	770.597
78.680	13.425	1019.650	769.824
79.695	13.418	1019.216	769.395
80.709	13.595	1018.161	769.350
81.724	13.568	1017.885	768.951
82.739	13.577	1017.101	768.333
83.753	13.717	1016.254	768.270
84.768	13.792	1015.159	767.723
85.782	13.891	1014.742	767.799
86.797	13.758	1013.515	766.189
87.812	13.831	1012.399	765.614
88.826	13.710	1011.635	764.411
89.841	13.776	1010.333	763.660
90.855	13.844	1009.634	763.380
91.870	13.903	1008.651	762.840
92.884	13.835	1008.550	762.381
93.899	13.850	1007.032	761.235
94.914	13.958	1006.543	761.294
95.928	14.025	1005.420	760.685
96.943	13.898	1004.769	759.541
97.957	13.790	1004.266	758.601
98.972	13.809	1003.089	757.731
99.987	13.860	1002.386	757.369
101.001	13.933	1000.982	756.571
102.016	13.961	999.983	755.879
103.030	13.768	999.808	754.801
104.045	13.965	998.871	754.920
105.060	13.780	997.838	753.234
106.074	13.672	996.907	751.973
107.089	13.548	995.864	750.561
108.103	13.632	994.953	750.186
109.118	13.535	993.903	748.890
110.133	13.669	992.970	748.727
111.147	13.590	992.085	747.636
112.162	13.707	991.405	747.584
113.176	13.573	990.778	746.443
114.191	13.773	989.780	746.527
115.206	13.661	989.473	745.723
116.220	13.777	987.711	744.852
117.235	13.697	986.968	743.867
118.249	13.662	986.305	743.144
119.264	13.580	985.847	742.364
120.279	13.786	984.704	742.361
121.293	13.689	983.708	741.110
122.308	13.588	982.924	740.004
123.322	13.575	981.478	738.792
124.337	13.777	980.300	738.737
125.352	13.616	979.283	737.188
126.366	13.472	978.546	735.931
127.381	13.703	977.148	735.838
128.395	13.596	976.774	735.019
129.410	13.607	976.058	734.463
130.424	13.701	975.027	734.038
131.439	13.829	974.270	733.972
132.454	13.756	973.599	733.078
133.468	13.728	972.984	732.422
134.483	13.775	972.110	731.909
135.497	13.741	971.044	730.890
136.512	13.813	969.947	730.320
137.527	13.823	969.403	729.890
138.541	13.723	968.456	728.670
139.556	13.775	968.043	728.524
140.570	13.906	967.264	728.447
141.585	14.025	966.300	728.182
142.600	13.921	965.630	727.153
143.614	13.941	964.684	726.465
144.629	13.965	964.009	725.997
145.643	13.918	963.241	725.149
146.658	13.871	961.866	723.845
147.673	13.948	960.883	723.378
148.687	13.857	959.917	722.191
149.702	13.757	959.296	721.222
150.716	13.815	958.861	721.087
151.731	13.860	957.839	720.451
152.746	13.866	957.306	720.010
153.760	13.844	956.774	719.453
154.775	13.900	956.120	719.138
155.789	13.990	955.085	718.684
156.804	13.960	954.863	718.324
157.819	14.125	953.736	718.127
158.833	14.072	953.363	717.551
159.848	14.112	952.051	716.674
160.862	14.072	951.195	715.794
161.877	14.026	950.443	714.965
162.892	13.888	949.680	713.736
163.906	13.886	948.742	712.961
164.921	13.980	947.370	712.270
165.935	14.009	946.884	711.964
166.950	13.824	946.165	710.571
167.964	13.903	945.280	710.178
168.979	14.078	944.065	709.950
169.994	14.094	943.228	709.328
171.008	14.030	942.726	708.616
172.023	14.070	942.272	708.381
173.037	14.225	941.296	708.245
174.052	14.074	940.566	706.989
175.067	14.052	939.928	706.354
176.081	14.064	939.377	705.927
177.096	13.964	938.619	704.873
178.110	14.045	938.345	704.949
179.125	14.069	937.644	704.462
180.140	14.135	936.781	704.030
181.154	14.182	936.478	703.940
182.169	14.274	935.909	703.838
183.183	14.251	935.415	703.305
184.198	14.264	934.544	702.646
185.213	14.271	933.822	702.069
186.227	14.263	933.114	701.442
187.242	14.319	933.268	701.729
188.256	14.395	931.964	701.005
189.271	14.236	931.223	699.720
190.286	14.142	930.576	698.776
191.300	14.034	929.752	697.640
192.315	14.049	928.912	697.013
193.329	14.009	928.692	696.621
194.344	14.192	927.826	696.673
195.359	14.248	926.949	696.188
196.373	14.384	926.604	696.434
197.388	14.428	926.130	696.203
198.402	14.451	925.674	695.895
199.417	14.491	925.104	695.572
200.432	14.541	924.665	695.387
201.446	14.650	924.149	695.392
202.461	14.527	923.737	694.507
203.475	14.537	923.548	694.347
204.490	14.463	922.383	693.099
205.504	14.469	921.465	692.376
206.519	14.497	920.747	691.892
207.534	14.501	919.870	691.186
208.548	14.512	919.327	690.764
209.563	14.549	918.450	690.197
210.577	14.562	917.948	689.810
211.592	14.703	917.113	689.707
212.607	14.785	916.344	689.404
213.621	14.778	915.393	688.598
214.636	14.671	914.976	687.784
215.650	14.757	914.165	687.467
216.665	14.567	913.996	686.499
217.680	14.760	913.095	686.555
218.694	14.748	912.479	685.979
219.709	14.814	911.996	685.829
220.723	14.776	910.853	684.752
221.738	14.833	910.263	684.480
222.753	14.794	909.419	683.625
223.767	14.861	909.077	683.581
224.782	14.952	908.375	683.366
225.796	14.973	908.153	683.223
226.811	14.831	907.374	681.997
227.826	14.888	906.503	681.516
228.840	14.813	905.846	680.657
229.855	14.881	905.062	680.284
230.869	14.908	904.233	679.708
231.884	14.855	903.853	679.150
232.899	14.730	903.173	678.071
233.913	14.892	901.867	677.685
234.928	14.892	901.459	677.318
235.942	14.861	900.856	676.683
236.957	14.897	900.390	676.419
237.972	14.873	900.000	675.967
238.986	14.778	899.304	674.999
240.001	14.958	898.649	675.177
241.015	15.050	897.604	674.703
242.030	14.952	897.367	674.069
243.045	15.011	896.649	673.709
244.059	15.037	895.969	673.241
245.074	15.004	895.826	672.941
246.088	15.141	894.701	672.586
247.103	15.118	894.009	671.915
248.117	15.164	894.089	672.100
249.132	15.306	893.296	672.013
250.147	15.360	892.776	671.779
251.161	15.421	891.931	671.328
252.176	15.480	891.218	670.967
253.190	15.302	890.731	669.830
254.205	15.450	890.051	669.853
255.220	15.432	889.082	668.993
256.234	15.347	888.607	668.237
257.249	15.343	887.889	667.620
258.263	15.562	886.974	667.744
259.278	15.568	886.358	667.245
260.293	15.485	886.052	666.625
261.307	15.698	885.401	666.924
262.322	15.480	884.847	665.582
263.336	15.631	883.839	665.363
264.351	15.640	883.438	665.037
265.366	15.668	882.940	664.715
266.380	15.593	882.111	663.734
267.395	15.540	881.768	663.208
268.409	15.593	880.575	662.462
269.424	15.723	879.764	662.308
270.439	15.646	879.147	661.480
271.453	15.612	878.537	660.827
272.468	15.529	878.377	660.323
273.482	15.552	877.527	659.716
274.497	15.539	877.092	659.280
275.512	15.523	876.526	658.733
276.526	15.609	876.048	658.652
277.541	15.738	875.554	658.727
278.555	15.738	874.739	658.058
279.570	15.795	874.497	658.041
280.585	15.878	873.465	657.529
281.599	15.829	872.348	656.440
282.614	15.660	872.476	655.817
283.628	15.766	871.535	655.467
284.643	15.882	870.607	655.163
285.657	15.812	870.239	654.552
286.672	15.785	869.847	654.097
287.687	15.850	869.072	653.708
288.701	15.894	868.478	653.372
289.716	15.863	868.099	652.910
290.730	15.984	867.195	652.643
291.745	15.879	866.955	651.998
292.760	16.002	866.125	651.792
293.774	16.032	865.486	651.370
294.789	16.009	864.708	650.635
295.803	15.936	864.256	649.959
296.818	15.973	863.243	649.282
297.833	15.930	862.798	648.722
298.847	16.035	862.055	648.509
299.862	16.088	861.569	648.292
300.876	16.043	860.973	647.612
301.891	16.158	860.546	647.675
302.906	16.222	859.798	647.302
303.920	16.270	859.475	647.184
304.935	16.340	858.666	646.787
305.949	16.199	858.255	645.881
306.964	16.232	857.559	645.426
307.979	16.215	857.086	644.946
308.993	16.275	856.691	644.822
310.008	16.212	856.340	644.260
311.022	16.094	855.735	643.298
312.037	16.313	854.609	643.227
313.052	16.108	854.240	642.113
314.066	16.077	853.627	641.479
315.081	16.275	853.143	641.809
316.095	16.078	852.651	640.636
317.110	16.198	851.897	640.466
318.125	16.223	851.550	640.246
319.139	16.176	851.166	639.720
320.154	16.235	850.674	639.519
321.168	16.235	849.915	638.889
322.183	16.227	849.056	638.159
323.197	16.202	849.132	638.066
324.212	16.371	848.077	637.855
325.227	16.314	847.506	637.153
326.241	16.289	847.256	636.815
327.256	16.186	847.026	636.195
328.270	16.315	846.087	635.919
329.285	16.385	845.312	635.545
330.300	16.470	844.655	635.313
331.314	16.482	844.477	635.171
332.329	16.413	843.996	634.491
333.343	16.534	843.525	634.535
334.358	16.483	843.222	634.062
335.373	16.419	843.161	633.717
336.387	16.434	842.603	633.298
337.402	16.608	842.171	633.571
338.416	16.723	841.627	633.535
339.431	16.705	841.257	633.133
340.446	16.855	840.783	633.280
341.460	16.764	840.109	632.377
342.475	16.905	839.650	632.503
343.489	16.806	839.438	631.916
344.504	16.703	839.297	631.372
345.519	16.942	838.359	631.499
346.533	16.895	837.834	630.874
347.548	16.720	837.382	629.826
348.562	16.789	836.826	629.609
349.577	16.774	836.309	629.108
350.592	16.631	835.529	627.937
351.606	16.687	835.077	627.750
352.621	16.686	834.254	627.069
353.635	16.879	833.675	627.295
354.650	16.779	833.338	626.615
355.665	16.682	832.710	625.729
356.679	16.943	831.614	625.812
357.694	16.999	831.036	625.531
358.708	16.871	830.686	624.738
359.723	17.073	829.918	624.848
360.738	16.988	829.321	624.031
361.752	16.888	828.892	623.287
362.767	16.999	828.511	623.354
363.781	17.033	827.921	622.980
364.796	17.138	827.301	622.842
365.810	17.213	827.157	622.952
366.825	17.151	827.264	622.751
367.840	17.208	826.037	621.983
368.854	17.329	825.406	621.894
369.869	17.041	825.637	620.959
370.883	17.100	825.075	620.698
371.898	17.146	824.927	620.701
372.913	17.326	824.045	620.638
373.927	17.164	823.424	619.525
374.942	17.257	823.016	619.503
375.956	17.218	822.833	619.167
376.971	17.238	822.298	618.781
377.986	17.328	821.829	618.703
379.000	17.406	821.347	618.570
380.015	17.447	820.982	618.388
381.029	17.406	820.432	617.769
382.044	17.403	819.796	617.224
383.059	17.495	819.330	617.153
384.073	17.336	818.528	615.919
385.088	17.409	817.898	615.653
386.102	17.223	817.673	614.758
387.117	17.501	816.931	615.149
388.132	17.417	816.424	614.409
389.146	17.522	815.452	614.003
390.161	17.397	815.917	613.846
391.175	17.467	814.986	613.345
392.190	17.485	814.368	612.891
393.205	17.470	813.975	612.486
394.219	17.371	813.484	611.708
395.234	17.412	812.989	611.429
396.248	17.316	812.831	610.909
397.263	17.506	811.988	610.904
398.278	17.519	811.629	610.626
399.292	17.401	811.093	609.747
400.307	17.466	810.695	609.626
401.321	17.330	810.653	609.055
402.336	17.610	809.891	609.429
403.350	17.542	809.739	609.017
404.365	17.552	809.481	608.806
405.380	17.691	808.634	608.611
406.394	17.829	808.074	608.629
407.409	17.737	807.731	607.989
408.423	17.861	807.565	608.250
409.438	17.935	806.930	607.981
410.453	17.869	806.471	607.347
411.467	17.792	805.992	606.659
412.482	17.813	805.470	606.289
413.496	17.903	805.171	606.330
414.511	17.900	804.918	606.073
415.526	17.907	804.481	605.714
416.540	18.041	803.804	605.626
417.555	17.870	803.539	604.770
418.569	17.979	803.140	604.801
419.584	17.888	802.908	604.249
420.599	18.016	802.263	604.165
421.613	111.768	1294.910	1476.767
422.628	96.355	1366.661	1476.866
