DTS Sentinel unit serial number:	SN413079Multiplexer serial number:	ORYXHardware model number:	OX4-SRSoftware version number:	ORYX F/W v4.00 Oryx Data Collector v3.7.2.0data status	okinstallation	princeton_trtdifferential loss correction	single-endedforward channel	channel 1reverse channel	N/Adate	2019/09/12time	12:48:11forward acquisition time	60.00reverse acquisition time	0.00gamma	496.2192k internal	0.2291k external	0.2291temperature offset calibration	1.0044default loss term (dB/km)	0.3790temperature slope calibration	1.0000multiplexer offset coefficient	1.0000multiplexer slope coefficient	1.0000fibre end	0.00T internal ref (°C)	40.62T ext. ref 1 (°C)	2.06T ext. ref 2 (°C)	37.06length (m)	temperature (°C)	Stokes	anti-Stokes-747.200	136.101	0.189	0.252
-746.185	153.543	0.208	0.292
-745.171	-200.000	-0.050	0.360
-744.156	-52.075	0.113	-0.054
-743.142	6.258	0.246	0.187
-742.127	63.956	0.192	0.197
-741.112	-110.656	0.243	-0.051
-740.098	91.110	0.212	0.243
-739.083	156.474	0.044	-0.063
-738.069	98.693	0.175	-0.207
-737.054	144.851	-0.190	-0.260
-736.039	-200.000	-0.034	-0.174
-735.025	-51.241	0.033	-0.016
-734.010	385.604	-0.068	0.144
-732.996	145.191	-0.050	-0.069
-731.981	-50.825	0.092	-0.044
-730.966	-98.681	-0.178	-0.047
-729.952	11.950	0.121	0.095
-728.937	-146.268	-0.297	-0.027
-727.923	-45.460	0.140	0.071
-726.908	-67.690	-0.471	0.189
-725.894	129.065	0.164	-0.215
-724.879	-50.082	-0.053	0.025
-723.864	800.000	0.024	0.104
-722.850	396.342	-0.153	-0.326
-721.835	-13.927	0.196	0.129
-720.821	139.122	-0.157	-0.211
-719.806	-127.483	-0.337	0.050
-718.791	-81.440	-0.356	-0.120
-717.777	648.941	0.111	-0.290
-716.762	-200.000	-0.026	-0.307
-715.748	-200.000	-0.030	-0.200
-714.733	-40.277	-0.169	0.090
-713.718	67.471	-0.290	-0.303
-712.704	1.783	-0.128	0.094
-711.689	-60.315	-0.029	0.013
-710.675	-1.759	0.281	-0.202
-709.660	-200.000	0.063	-0.412
-708.645	-200.000	0.009	-0.199
-707.631	136.758	-0.208	0.278
-706.616	109.503	0.038	0.046
-705.602	64.823	-0.121	0.124
-704.587	94.056	-0.216	0.251
-703.572	-143.404	-0.349	0.034
-702.558	800.000	-0.013	0.050
-701.543	-145.461	0.259	-0.024
-700.529	-200.000	0.012	-0.152
-699.514	-200.000	-0.032	0.186
-698.499	203.459	-0.047	-0.075
-697.485	392.060	-0.145	-0.309
-696.470	-7.821	-0.263	-0.181
-695.456	-129.855	-0.289	0.041
-694.441	-170.175	0.113	0.004
-693.426	272.313	0.123	-0.222
-692.412	-19.777	-0.127	-0.080
-691.397	800.000	-0.075	-0.272
-690.383	501.695	0.128	-0.303
-689.368	-14.810	0.263	0.172
-688.354	208.040	0.080	0.127
-687.339	515.097	0.049	-0.117
-686.324	-72.395	-0.271	0.103
-685.310	-129.473	0.137	0.019
-684.295	800.000	-0.021	-0.066
-683.281	416.105	0.113	0.245
-682.266	-10.987	0.170	-0.114
-681.251	314.698	-0.033	0.063
-680.237	146.976	0.121	-0.166
-679.222	-47.839	-0.161	-0.080
-678.208	-96.798	0.193	0.052
-677.193	-65.904	0.200	0.081
-676.178	-43.722	0.116	-0.060
-675.164	-158.404	0.172	0.010
-674.149	-15.031	-0.237	-0.155
-673.135	-6.335	0.224	0.156
-672.120	184.374	0.240	0.363
-671.105	-105.345	-0.366	-0.085
-670.091	-159.320	0.170	0.010
-669.076	263.830	-0.290	0.514
-668.062	-200.000	0.003	-0.222
-667.047	-200.000	0.065	-0.305
-666.032	-32.987	0.175	0.099
-665.018	443.819	0.232	-0.519
-664.003	55.145	0.086	0.085
-662.989	-200.000	-0.020	0.250
-661.974	-51.817	-0.208	-0.099
-660.959	42.846	0.161	0.150
-659.945	109.796	-0.140	-0.171
-658.930	-109.267	-0.214	-0.046
-657.916	-57.608	0.223	0.100
-656.901	-37.902	-0.128	0.070
-655.886	51.004	0.126	-0.122
-654.872	800.000	0.078	-0.242
-653.857	-65.155	0.351	0.144
-652.843	1.274	-0.244	0.179
-651.828	-104.449	-0.098	0.023
-650.814	336.260	0.122	-0.242
-649.799	108.813	-0.193	-0.235
-648.784	-15.170	-0.101	0.066
-647.770	217.606	0.095	-0.154
-646.755	-40.209	0.260	0.138
-645.741	240.265	0.217	0.369
-644.726	24.885	0.129	0.109
-643.711	-200.000	-0.014	0.223
-642.697	-8.141	0.208	-0.143
-641.682	60.539	-0.042	-0.042
-640.668	-200.000	0.017	0.229
-639.653	0.209	-0.107	-0.078
-638.638	-200.000	-0.041	0.238
-637.624	-18.626	0.121	0.077
-636.609	-71.173	-0.161	-0.062
-635.595	193.444	0.030	-0.047
-634.580	-200.000	0.014	-0.093
-633.565	-108.848	0.224	-0.049
-632.551	-136.468	0.216	-0.026
-631.536	800.000	-0.066	-0.235
-630.522	505.158	-0.068	0.162
-629.507	-187.728	0.005	0.000
-628.492	-76.155	0.217	0.078
-627.478	-200.000	0.022	-0.126
-626.463	6.967	0.184	0.140
-625.449	63.723	-0.111	0.114
-624.434	-47.837	-0.312	0.154
-623.419	-61.517	0.097	-0.042
-622.405	100.154	-0.210	0.248
-621.390	-38.593	0.182	-0.098
-620.376	10.922	0.222	-0.173
-619.361	-200.000	-0.034	0.216
-618.346	-140.401	0.138	-0.015
-617.332	91.584	0.062	0.070
-616.317	531.870	-0.056	0.136
-615.303	-54.303	-0.158	0.073
-614.288	-123.265	0.182	0.030
-613.273	600.272	-0.157	0.396
-612.259	-200.000	0.020	-0.147
-611.244	-200.000	0.021	-0.093
-610.230	-60.305	0.171	0.074
-609.215	-200.000	0.008	0.056
-608.201	-20.981	-0.170	-0.106
-607.186	211.051	0.030	-0.048
-606.171	-101.649	0.226	-0.056
-605.157	-49.043	-0.318	-0.155
-604.142	-121.996	0.029	-0.005
-603.128	101.761	0.111	-0.132
-602.113	-123.112	-0.307	0.050
-601.098	184.414	0.038	-0.057
-600.084	800.000	0.019	0.057
-599.069	4.198	0.202	-0.151
-598.055	-103.856	-0.482	-0.115
-597.040	4.226	-0.117	-0.087
-596.025	95.772	-0.057	0.066
-595.011	31.288	-0.044	0.038
-593.996	-34.654	0.445	-0.248
-592.982	-3.035	0.172	0.122
-591.967	800.000	-0.020	-0.080
-590.952	47.445	-0.261	-0.248
-589.938	164.441	0.117	-0.167
-588.923	-36.724	0.300	-0.164
-587.909	231.167	0.213	-0.356
-586.894	-30.394	0.053	0.031
-585.879	-37.434	0.371	-0.201
-584.865	-182.108	-0.400	-0.008
-583.850	324.785	0.046	0.090
-582.836	69.038	0.219	0.229
-581.821	509.537	-0.049	0.116
-580.806	-200.000	0.036	-0.332
-579.792	-200.000	-0.009	0.130
-578.777	-84.175	-0.204	-0.066
-577.763	-160.792	0.065	-0.003
-576.748	60.478	-0.181	-0.182
-575.733	-200.000	-0.007	-0.157
-574.719	-67.033	-0.154	0.062
-573.704	800.000	-0.049	-0.193
-572.690	800.000	0.141	-0.436
-571.675	-70.513	0.330	0.127
-570.661	41.703	0.098	-0.090
-569.646	184.172	-0.031	-0.046
-568.631	4.209	-0.134	0.100
-567.617	-46.154	-0.170	-0.085
-566.602	62.329	0.179	-0.182
-565.588	131.966	0.125	0.163
-564.573	411.587	-0.094	-0.203
-563.558	-65.618	0.164	-0.067
-562.544	-33.313	-0.082	0.046
-561.529	53.356	0.239	0.233
-560.515	358.610	0.067	-0.137
-559.500	17.587	-0.108	0.087
-558.485	-56.692	-0.348	0.157
-557.471	-115.436	-0.359	-0.069
-556.456	800.000	-0.070	0.197
-555.442	-41.294	0.185	0.097
-554.427	-63.341	0.404	0.169
-553.412	-38.742	0.161	0.086
-552.398	800.000	-0.015	-0.057
-551.383	-94.450	-0.243	-0.067
-550.369	82.678	-0.098	0.108
-549.354	-200.000	0.008	0.144
-548.339	-129.047	-0.177	-0.025
-547.325	-65.724	-0.315	-0.128
-546.310	-200.000	-0.039	-0.203
-545.296	-200.000	-0.030	0.144
-544.281	-200.000	0.009	-0.267
-543.266	-58.528	-0.143	0.063
-542.252	-34.274	0.157	-0.088
-541.237	680.850	0.167	0.442
-540.223	57.601	-0.110	0.109
-539.208	161.096	-0.316	0.448
-538.193	212.130	0.078	0.125
-537.179	66.941	0.155	0.160
-536.164	-38.728	0.089	-0.047
-535.150	8.420	0.157	0.120
-534.135	23.660	-0.332	-0.278
-533.121	-183.868	-0.412	-0.007
-532.106	747.812	-0.117	-0.321
-531.091	-200.000	0.052	-0.323
-530.077	161.468	0.003	-0.004
-529.062	-21.460	0.180	0.111
-528.048	439.066	-0.165	-0.367
-527.033	-70.975	-0.293	-0.112
-526.018	-180.696	0.268	0.006
-525.004	14.796	0.168	0.133
-523.989	-65.058	-0.309	0.127
-522.975	800.000	-0.062	-0.257
-521.960	-119.924	0.016	-0.003
-520.945	549.955	-0.108	0.263
-519.931	21.151	0.135	0.111
-518.916	-134.198	-0.527	0.066
-517.902	40.010	0.129	-0.118
-516.887	554.827	0.140	-0.342
-515.872	-81.130	-0.172	0.058
-514.858	-85.885	0.370	0.116
-513.843	-112.696	-0.159	0.032
-512.829	-147.655	-0.262	0.022
-511.814	-60.733	-0.131	-0.056
-510.799	118.233	-0.100	-0.126
-509.785	-0.644	-0.088	-0.063
-508.770	-99.207	0.222	0.057
-507.756	-200.000	-0.201	-0.001
-506.741	-4.984	0.081	0.057
-505.726	-169.223	0.141	-0.005
-504.712	223.157	-0.080	-0.130
-503.697	-149.976	0.087	0.007
-502.683	-79.109	-0.142	-0.049
-501.668	800.000	-0.048	0.165
-500.653	-99.506	0.144	-0.037
-499.639	800.000	0.108	0.393
-498.624	339.335	-0.212	-0.420
-497.610	257.068	0.111	0.193
-496.595	-81.219	-0.249	0.084
-495.581	-126.615	0.216	0.032
-494.566	4.559	0.257	0.191
-493.551	109.489	0.078	0.095
-492.537	-175.756	-0.352	0.010
-491.522	269.169	-0.112	-0.199
-490.508	117.091	-0.107	-0.133
-489.493	-14.550	-0.145	0.095
-488.478	800.000	-0.046	-0.184
-487.464	-200.000	-0.014	0.180
-486.449	-32.589	-0.143	-0.081
-485.435	249.743	0.128	0.219
-484.420	496.180	0.051	-0.118
-483.405	296.337	-0.174	0.323
-482.391	-48.576	-0.380	0.185
-481.376	-200.000	-0.034	0.226
-480.362	-200.000	-0.002	0.024
-479.347	22.559	-0.142	0.118
-478.332	727.045	-0.024	0.064
-477.318	-68.074	0.160	0.063
-476.303	800.000	0.019	0.057
-475.289	-200.000	-0.076	-0.533
-474.274	-23.269	0.070	0.042
-473.259	-121.626	-0.230	-0.039
-472.245	-200.000	0.006	0.222
-471.230	-46.620	0.201	0.100
-470.216	-78.341	0.377	-0.131
-469.201	158.808	-0.198	-0.278
-468.186	-128.500	-0.144	0.021
-467.172	-150.874	0.214	0.016
-466.157	-200.000	-0.023	-0.249
-465.143	-181.666	-0.293	-0.006
-464.128	-122.543	0.210	-0.035
-463.113	68.649	0.225	0.234
-462.099	382.414	0.196	-0.408
-461.084	-37.539	0.315	-0.170
-460.070	-80.834	0.123	0.041
-459.055	69.258	0.065	0.068
-458.040	417.749	-0.227	0.490
-457.026	319.534	-0.019	-0.036
-456.011	800.000	-0.056	0.241
-454.997	261.381	-0.105	-0.184
-453.982	424.218	0.150	-0.327
-452.968	184.677	0.162	-0.243
-451.953	-200.000	-0.029	-0.242
-450.938	-114.210	0.170	0.033
-449.924	180.780	-0.175	0.260
-448.909	-25.670	-0.100	-0.059
-447.895	-200.000	0.021	0.157
-446.880	-91.789	-0.394	0.113
-445.865	-116.764	0.279	0.052
-444.851	-28.232	0.426	0.249
-443.836	-132.641	0.145	-0.019
-442.822	30.577	-0.147	0.127
-441.807	84.864	0.036	0.039
-440.792	-200.000	0.009	0.072
-439.778	26.791	0.140	0.119
-438.763	410.196	0.031	-0.066
-437.749	-200.000	0.041	-0.277
-436.734	-69.798	0.322	0.124
-435.719	613.874	0.159	0.403
-434.705	-200.000	-0.037	0.260
-433.690	-60.098	-0.291	-0.125
-432.676	36.611	0.160	0.143
-431.661	-75.859	0.157	-0.056
-430.646	-8.706	-0.137	-0.093
-429.632	171.791	0.062	0.090
-428.617	98.559	0.099	-0.115
-427.603	-64.995	-0.256	-0.105
-426.588	-154.699	-0.300	0.020
-425.573	800.000	0.027	-0.117
-424.559	-36.844	-0.227	0.123
-423.544	-150.972	0.273	0.021
-422.530	-52.058	-0.246	0.116
-421.515	50.815	-0.180	0.172
-420.500	-200.000	-0.009	-0.203
-419.486	-200.000	-0.015	0.551
-418.471	-100.418	0.307	-0.077
-417.457	590.486	-0.068	-0.170
-416.442	800.000	-0.058	0.186
-415.428	-99.931	-0.324	-0.082
-414.413	298.565	-0.055	0.102
-413.398	-200.000	-0.054	0.252
-412.384	122.687	-0.040	-0.051
-411.369	778.259	-0.096	0.267
-410.355	-200.000	-0.061	0.331
-409.340	-60.613	-0.275	-0.118
-408.325	357.839	0.114	-0.231
-407.311	-4.058	-0.290	-0.203
-406.296	-87.064	0.034	-0.010
-405.282	-66.976	-0.109	0.044
-404.267	68.199	-0.273	-0.283
-403.252	-67.736	0.103	-0.041
-402.238	-54.671	-0.008	-0.004
-401.223	-72.013	0.184	0.069
-400.209	521.616	-0.110	0.260
-399.194	-114.250	-0.171	0.033
-398.179	18.478	0.186	0.151
-397.165	-32.067	0.194	-0.109
-396.150	512.434	0.074	-0.173
-395.136	265.655	0.155	-0.273
-394.121	62.100	-0.280	0.282
-393.106	800.000	0.054	-0.152
-392.092	800.000	-0.070	0.236
-391.077	-43.299	-0.248	0.126
-390.063	136.175	0.095	-0.126
-389.048	116.079	-0.063	-0.078
-388.033	452.877	-0.065	-0.145
-387.019	800.000	0.057	-0.210
-386.004	-200.000	-0.005	0.089
-384.990	-28.317	-0.162	-0.094
-383.975	-1.442	-0.367	-0.262
-382.960	-24.654	-0.218	-0.131
-381.946	10.062	0.099	-0.076
-380.931	800.000	0.034	-0.140
-379.917	-173.988	0.152	0.005
-378.902	431.407	-0.129	-0.282
-377.888	-156.046	0.215	0.014
-376.873	-200.000	0.020	0.199
-375.858	16.154	-0.177	0.141
-374.844	-3.520	0.047	-0.033
-373.829	-147.418	-0.317	0.027
-372.815	354.054	0.152	0.304
-371.800	241.752	-0.062	-0.104
-370.785	-146.195	-0.295	0.026
-369.771	-200.000	0.022	-0.205
-368.756	-21.197	0.401	0.248
-367.742	146.129	0.120	-0.163
-366.727	398.736	0.167	0.354
-365.712	82.246	-0.209	0.229
-364.698	-88.047	0.320	-0.097
-363.683	85.787	-0.111	0.123
-362.669	-28.588	0.196	0.114
-361.654	-200.000	0.055	0.521
-360.639	-88.972	-0.324	0.097
-359.625	-37.854	-0.339	-0.182
-358.610	225.401	-0.086	0.140
-357.596	-38.963	-0.056	0.029
-356.581	800.000	0.101	-0.319
-355.566	-200.000	0.053	0.281
-354.552	124.430	-0.141	0.179
-353.537	75.670	0.060	-0.064
-352.523	381.455	0.128	0.265
-351.508	289.514	-0.045	-0.083
-350.493	-92.836	-0.135	-0.038
-349.479	-72.871	-0.154	0.057
-348.464	-88.404	0.262	-0.079
-347.450	-200.000	-0.021	-0.136
-346.435	-200.000	0.085	-0.536
-345.420	47.555	0.334	0.314
-344.406	354.441	-0.153	-0.307
-343.391	38.372	0.156	0.140
-342.377	-127.952	0.094	0.014
-341.362	-200.000	0.020	0.210
-340.348	141.357	-0.078	0.104
-339.333	293.613	-0.061	-0.113
-338.318	-162.605	-0.238	-0.012
-337.304	151.955	0.257	-0.354
-336.289	800.000	-0.068	-0.222
-335.275	-35.188	-0.240	0.132
-334.260	-26.082	-0.111	-0.066
-333.245	800.000	-0.082	0.268
-332.231	-42.033	0.162	0.084
-331.216	-121.978	0.517	-0.086
-330.202	-200.000	-0.011	0.187
-329.187	131.113	0.113	0.146
-328.172	800.000	0.065	0.242
-327.158	367.170	-0.067	-0.136
-326.143	800.000	0.032	-0.110
-325.129	133.893	-0.180	0.234
-324.114	800.000	-0.093	-0.295
-323.099	245.075	-0.123	-0.209
-322.085	-107.174	-0.016	-0.004
-321.070	237.513	-0.104	-0.174
-320.056	312.901	0.033	-0.063
-319.041	338.501	-0.127	-0.250
-318.026	-112.802	-0.445	0.089
-317.012	-200.000	0.025	0.273
-315.997	-200.000	0.048	-0.223
-314.983	76.043	0.249	-0.265
-313.968	800.000	-0.062	0.235
-312.953	800.000	0.069	-0.230
-311.939	-164.353	-0.169	0.008
-310.924	159.146	0.069	0.096
-309.910	-68.318	-0.140	-0.055
-308.895	-132.474	0.065	-0.008
-307.880	800.000	0.039	-0.138
-306.866	0.416	-0.269	0.193
-305.851	-200.000	0.010	-0.145
-304.837	30.431	-0.056	0.048
-303.822	-100.293	0.170	0.043
-302.807	-200.000	-0.006	0.135
-301.793	95.869	0.053	0.061
-300.778	70.008	-0.103	0.107
-299.764	-127.951	-0.052	-0.008
-298.749	-82.400	-0.199	0.065
-297.735	-116.013	0.264	-0.050
-296.720	800.000	-0.024	0.102
-295.705	178.092	0.036	0.052
-294.691	29.892	-0.054	-0.047
-293.676	43.476	-0.148	0.136
-292.662	21.412	0.282	-0.230
-291.647	800.000	0.111	0.373
-290.632	-79.975	-0.030	0.010
-289.618	230.297	-0.117	-0.192
-288.603	-101.165	-0.072	-0.018
-287.589	-108.086	0.090	0.020
-286.574	-55.800	-0.077	0.035
-285.559	-7.419	0.235	-0.160
-284.545	295.552	0.116	-0.214
-283.530	1.874	-0.336	0.244
-282.516	-76.910	-0.236	0.083
-281.501	-200.000	-0.024	-0.178
-280.486	233.792	0.145	-0.241
-279.472	800.000	0.080	0.273
-278.457	-51.950	-0.184	0.086
-277.443	138.494	-0.187	-0.247
-276.428	800.000	-0.081	0.243
-275.413	219.911	0.035	0.056
-274.399	28.119	-0.076	0.064
-273.384	17.335	-0.063	0.050
-272.370	78.357	0.134	-0.144
-271.355	-134.095	-0.281	-0.035
-270.340	-111.816	-0.105	0.021
-269.326	211.178	0.271	-0.428
-268.311	112.356	0.061	-0.074
-267.297	-3.635	0.254	0.177
-266.282	-168.674	0.135	-0.005
-265.267	16.304	-0.290	-0.230
-264.253	800.000	-0.054	-0.187
-263.238	131.660	-0.095	0.123
-262.224	-132.449	-0.232	-0.030
-261.209	117.669	-0.154	-0.190
-260.195	800.000	0.072	-0.240
-259.180	-200.000	0.074	0.421
-258.165	-200.000	0.026	0.000
-257.151	12.966	-0.242	-0.188
-256.136	-16.674	0.191	-0.122
-255.122	-200.000	0.044	0.247
-254.107	148.517	-0.154	-0.208
-253.092	-118.743	0.239	0.042
-252.078	-195.317	-0.168	0.001
-251.063	-50.566	-0.332	-0.157
-250.049	-127.393	0.186	-0.027
-249.034	-34.176	0.163	0.090
-248.019	-200.000	-0.100	0.532
-247.005	145.978	0.099	-0.134
-245.990	279.142	-0.031	-0.056
-244.976	5.855	0.345	0.256
-243.961	779.642	0.088	0.242
-242.946	-200.000	-0.011	0.084
-241.932	800.000	0.027	-0.091
-240.917	-97.571	0.215	0.056
-239.903	-62.045	0.417	0.175
-238.888	-116.764	0.024	-0.004
-237.873	-106.781	0.090	-0.020
-236.859	76.944	0.183	-0.195
-235.844	-96.008	-0.260	0.070
-234.830	800.000	-0.034	0.108
-233.815	-97.843	-0.200	-0.052
-232.800	-200.000	0.018	0.129
-231.786	-91.447	0.316	-0.091
-230.771	800.000	0.056	0.159
-229.757	-124.039	0.425	0.067
-228.742	800.000	-0.038	-0.118
-227.727	89.136	0.315	-0.352
-226.713	-75.730	0.124	0.044
-225.698	-200.000	0.017	0.118
-224.684	162.025	0.184	-0.258
-223.669	-131.935	-0.207	0.027
-222.655	-200.000	-0.027	0.220
-221.640	800.000	0.074	-0.258
-220.625	-46.890	-0.261	0.128
-219.611	-38.776	0.033	-0.017
-218.596	109.486	0.050	0.060
-217.582	-33.854	0.283	0.157
-216.567	-150.582	-0.117	-0.009
-215.552	-200.000	-0.002	0.135
-214.538	-146.822	0.063	0.005
-213.523	800.000	-0.042	0.147
-212.509	800.000	-0.062	0.195
-211.494	7.877	0.383	0.288
-210.479	-15.785	-0.154	0.098
-209.465	13.877	-0.144	0.112
-208.450	-154.834	0.286	-0.019
-207.436	48.044	-0.017	0.016
-206.421	800.000	0.015	-0.043
-205.406	-153.969	-0.284	-0.019
-204.392	358.458	-0.149	-0.299
-203.377	-200.000	-0.005	0.139
-202.363	-4.220	0.130	-0.090
-201.348	-158.427	0.091	0.005
-200.333	508.980	0.182	0.425
-199.319	-188.414	0.218	0.003
-198.304	-59.282	-0.444	0.192
-197.290	-119.926	0.344	0.059
-196.275	-30.922	0.204	-0.115
-195.260	-73.222	-0.617	-0.227
-194.246	209.292	0.262	-0.412
-193.231	-98.617	-0.104	0.027
-192.217	-177.707	-0.150	0.004
-191.202	-200.000	-0.006	-0.310
-190.187	-62.890	-0.119	0.049
-189.173	200.849	0.080	0.123
-188.158	800.000	-0.085	-0.312
-187.144	110.628	0.047	0.057
-186.129	78.594	0.157	-0.169
-185.114	800.000	0.036	0.115
-184.100	-123.852	0.194	-0.031
-183.085	-83.804	0.356	-0.114
-182.071	-200.000	0.027	-0.421
-181.056	-150.797	0.235	0.018
-180.042	31.509	0.114	-0.098
-179.027	800.000	0.062	-0.231
-178.012	151.789	0.150	-0.204
-176.998	-86.481	0.210	0.065
-175.983	14.154	0.211	0.165
-174.969	-200.000	-0.000	0.213
-173.954	-200.000	0.003	0.082
-172.939	800.000	0.050	-0.218
-171.925	800.000	-0.072	-0.305
-170.910	-200.000	0.022	0.149
-169.896	225.705	-0.157	0.255
-168.881	-200.000	-0.010	0.054
-167.866	-14.443	-0.132	-0.085
-166.852	193.350	-0.178	0.270
-165.837	2.950	0.188	-0.136
-164.823	63.332	0.171	-0.171
-163.808	98.864	0.138	0.159
-162.793	-41.259	-0.163	0.084
-161.779	279.133	-0.222	-0.396
-160.764	-200.000	0.036	-0.240
-159.750	-200.000	0.057	-0.316
-158.735	800.000	-0.060	-0.254
-157.720	454.303	-0.023	0.051
-156.706	-70.851	0.334	0.126
-155.691	-170.483	-0.041	-0.001
-154.677	10.420	-0.118	-0.090
-153.662	-108.295	-0.240	-0.052
-152.647	101.952	0.171	-0.200
-151.633	-200.000	0.045	0.328
-150.618	800.000	-0.040	0.142
-149.604	-132.105	-0.164	0.021
-148.589	-90.270	-0.162	0.047
-147.574	84.547	-0.174	0.190
-146.560	335.621	-0.168	0.326
-145.545	103.094	-0.065	-0.076
-144.531	-76.003	-0.230	0.081
-143.516	173.735	-0.055	0.080
-142.502	-49.211	-0.160	-0.077
-141.487	169.573	0.065	0.093
-140.472	144.998	0.126	-0.169
-139.458	764.399	-0.025	0.067
-138.443	38.466	-0.074	-0.066
-137.429	-200.000	0.026	0.443
-136.414	-200.000	-0.022	-0.112
-135.399	-200.000	0.021	0.340
-134.385	-200.000	-0.036	-0.160
-133.370	-200.000	0.001	0.144
-132.356	79.005	-0.143	0.153
-131.341	-143.436	-0.206	0.020
-130.326	40.009	0.304	-0.273
-129.312	-200.000	0.020	-0.249
-128.297	57.136	0.105	-0.102
-127.283	-200.000	-0.032	0.255
-126.268	-200.000	-0.148	0.001
-125.253	-45.397	0.210	-0.104
-124.239	143.967	-0.174	-0.233
-123.224	800.000	0.008	-0.027
-122.210	48.932	0.112	0.105
-121.195	156.482	-0.066	0.092
-120.180	72.554	-0.126	0.131
-119.166	800.000	-0.055	-0.235
-118.151	116.397	0.291	0.356
-117.137	-200.000	0.117	-0.550
-116.122	145.797	0.129	0.173
-115.107	-34.972	0.111	0.061
-114.093	105.191	0.245	-0.289
-113.078	-200.000	0.013	0.178
-112.064	-149.530	-0.211	-0.017
-111.049	36.186	0.110	0.097
-110.034	-200.000	0.002	0.122
-109.020	-89.235	-0.129	-0.038
-108.005	-200.000	-0.045	0.325
-106.991	16.359	-0.269	-0.212
-105.976	-200.000	-0.003	0.134
-104.962	-103.855	-0.183	0.043
-103.947	-152.671	-0.053	0.004
-102.932	-174.281	0.064	0.002
-101.918	-115.824	0.161	0.030
-100.903	100.418	-0.214	-0.248
-99.889	-105.237	0.218	0.050
-98.874	8.403	-0.111	-0.083
-97.859	800.000	0.070	0.305
-96.845	304.991	0.084	-0.155
-95.830	-135.066	0.303	-0.036
-94.816	177.221	-0.108	0.157
-93.801	57.563	-0.025	-0.025
-92.786	86.100	-0.069	-0.076
-91.772	-47.980	-0.111	-0.053
-90.757	124.191	-0.095	-0.119
-89.743	-23.369	0.086	0.052
-88.728	41.984	0.335	-0.303
-87.713	-200.000	0.018	0.187
-86.699	50.029	0.132	0.125
-85.684	-200.000	0.073	0.331
-84.670	800.000	0.162	0.489
-83.655	-200.000	-0.036	0.240
-82.640	-114.179	-0.034	0.007
-81.626	-174.442	0.293	-0.008
-80.611	-67.615	-0.167	0.065
-79.597	-200.000	-0.000	0.401
-78.582	2.866	-0.168	0.122
-77.567	-200.000	0.017	-0.125
-76.553	32.472	0.224	0.193
-75.538	-117.459	0.264	-0.048
-74.524	-19.924	-0.125	-0.077
-73.509	1.601	-0.069	-0.049
-72.494	135.094	-0.166	-0.215
-71.480	-96.072	0.131	0.035
-70.465	-109.263	0.050	-0.010
-69.451	-200.000	0.015	-0.064
-68.436	-200.000	0.020	-0.407
-67.422	14.773	0.298	-0.232
-66.407	277.502	0.109	-0.193
-65.392	41.459	-0.175	0.158
-64.378	-82.829	0.217	0.070
-63.363	-156.575	0.383	-0.024
-62.349	-200.000	0.078	-0.410
-61.334	12.037	-0.612	-0.469
-60.319	85.630	0.311	0.341
-59.305	-200.000	-0.096	-0.951
-58.290	67.008	0.486	0.494
-57.276	-200.000	-0.013	1.562
-56.261	-200.000	76.266	508.969
-55.246	519.036	1331.579	3108.404
-54.232	145.736	2565.311	3426.577
-53.217	117.513	2230.490	2734.861
-52.203	52.477	1673.307	1591.906
-51.188	44.486	1396.286	1278.346
-50.173	40.770	1350.507	1213.733
-49.159	59.276	1385.887	1360.045
-48.144	66.153	1404.249	1420.339
-47.130	44.852	1367.274	1253.841
-46.115	40.820	1350.606	1213.936
-45.100	40.548	1346.072	1208.156
-44.086	40.533	1343.853	1206.020
-43.071	40.471	1341.254	1203.267
-42.057	40.416	1338.686	1200.582
-41.042	40.333	1337.691	1199.137
-40.027	40.588	1335.554	1198.715
-39.013	40.514	1333.831	1196.677
-37.998	40.604	1331.491	1195.070
-36.984	40.701	1329.865	1194.147
-35.969	40.592	1328.654	1192.357
-34.954	40.731	1326.604	1191.303
-33.940	40.739	1325.392	1190.220
-32.925	40.746	1323.833	1188.814
-31.911	40.799	1322.761	1188.117
-30.896	40.739	1321.154	1186.270
-29.881	40.762	1319.610	1184.977
-28.867	40.777	1318.242	1183.790
-27.852	40.679	1317.370	1182.375
-26.838	40.625	1315.650	1180.462
-25.823	40.714	1314.188	1179.634
-24.809	40.708	1312.652	1178.172
-23.794	40.679	1311.266	1176.709
-22.779	40.603	1309.944	1175.028
-21.765	40.662	1308.821	1174.323
-20.750	40.764	1306.934	1173.182
-19.736	40.679	1305.914	1171.720
-18.721	40.623	1304.565	1170.131
-17.706	40.533	1303.442	1168.547
-16.692	40.591	1302.134	1167.672
-15.677	40.518	1301.676	1166.785
-14.663	40.475	1300.351	1165.301
-13.648	40.499	1299.262	1164.419
-12.633	40.597	1298.118	1163.921
-11.619	40.542	1297.294	1162.815
-10.604	40.578	1296.279	1162.068
-9.590	40.571	1295.071	1160.898
-8.575	40.600	1294.066	1160.123
-7.560	40.620	1292.853	1159.102
-6.546	40.474	1292.397	1157.796
-5.531	40.459	1292.047	1157.347
-4.517	40.524	1290.561	1156.350
-3.502	40.575	1289.751	1155.876
-2.487	40.588	1288.684	1154.950
-1.473	40.718	1284.932	1152.299
-0.458	39.525	1270.551	1132.505
0.556	36.095	1249.891	1091.523
1.571	31.873	1253.777	1070.772
2.586	30.758	1268.360	1076.687
3.600	29.250	1257.766	1058.941
4.615	21.309	1179.684	950.124
5.629	8.611	1094.889	817.268
6.644	2.616	1070.423	768.925
7.659	2.061	1067.350	763.870
8.673	1.804	1065.910	761.488
9.688	1.762	1064.685	760.337
10.702	2.141	1063.617	761.394
11.717	9.213	1074.122	804.354
12.731	20.560	1090.582	873.977
13.746	25.294	1096.207	902.265
14.761	25.389	1096.029	902.516
15.775	25.314	1095.244	901.414
16.790	25.152	1094.643	900.023
17.804	25.025	1093.793	898.609
18.819	25.259	1093.286	899.288
19.834	25.277	1092.575	898.714
20.848	25.427	1092.140	899.025
21.863	25.253	1092.343	898.241
22.877	25.328	1091.021	897.449
23.892	25.252	1090.401	896.481
24.907	25.279	1089.607	895.884
25.921	25.280	1088.528	894.924
26.936	25.126	1087.324	893.088
27.950	25.199	1085.633	891.982
28.965	25.141	1083.607	889.948
29.980	25.119	1082.435	888.799
30.994	25.370	1081.259	889.000
32.009	25.320	1080.229	887.825
33.023	25.083	1079.204	885.735
34.038	25.094	1078.529	885.157
35.053	25.221	1077.850	885.144
36.067	25.230	1076.888	884.324
37.082	25.271	1076.642	884.243
38.096	25.371	1075.994	884.127
39.111	25.533	1075.106	884.115
40.126	25.432	1073.574	882.280
41.140	25.083	1071.508	878.794
42.155	24.771	1070.388	876.270
43.169	25.007	1069.035	876.241
44.184	24.832	1068.500	874.868
45.199	24.854	1067.098	873.748
46.213	24.721	1066.908	872.868
47.228	25.087	1065.919	873.764
48.242	25.166	1064.993	873.316
49.257	25.335	1064.171	873.385
50.271	25.195	1064.093	872.563
51.286	25.373	1062.538	872.075
52.301	25.397	1061.977	871.656
53.315	25.236	1060.899	869.911
54.330	25.065	1060.305	868.518
55.344	25.367	1059.205	869.003
56.359	25.149	1058.422	867.228
57.374	25.021	1057.753	865.983
58.388	25.109	1056.614	865.402
59.403	24.837	1055.711	863.271
60.417	24.871	1054.596	862.451
61.432	24.846	1054.996	862.581
62.447	25.079	1053.690	862.557
63.461	25.072	1053.216	862.059
64.476	24.954	1052.475	860.810
65.490	24.820	1051.450	859.249
66.505	24.983	1050.407	859.102
67.520	25.085	1049.809	859.026
68.534	24.823	1048.683	856.775
69.549	24.468	1047.891	854.354
70.563	24.449	1047.110	853.553
71.578	24.427	1046.255	852.676
72.593	24.289	1045.407	851.249
73.607	24.486	1044.518	851.389
74.622	24.833	1044.191	852.701
75.636	24.705	1043.705	851.617
76.651	24.578	1042.913	850.295
77.666	24.560	1041.922	849.326
78.680	24.632	1041.292	849.076
79.695	24.804	1040.644	849.292
80.709	24.886	1039.959	849.044
81.724	24.773	1039.263	847.868
82.739	24.862	1038.646	847.710
83.753	25.287	1037.727	848.895
84.768	25.677	1037.024	850.086
85.782	25.684	1036.148	849.327
86.797	25.431	1035.623	847.627
87.812	25.306	1034.547	846.081
88.826	25.405	1033.687	845.772
89.841	25.494	1032.894	845.468
90.855	25.543	1032.120	844.988
91.870	25.444	1030.934	843.479
92.884	25.503	1029.528	842.530
93.899	25.344	1028.396	840.784
94.914	25.491	1027.851	840.951
95.928	25.239	1026.943	838.958
96.943	25.050	1025.555	836.868
97.957	24.989	1024.174	835.379
98.972	24.780	1023.156	833.502
99.987	25.046	1022.946	834.497
101.001	25.263	1021.961	834.630
102.016	25.132	1021.147	833.280
103.030	25.127	1019.960	832.214
104.045	25.032	1018.848	830.794
105.060	24.866	1017.886	829.167
106.074	24.880	1017.483	828.832
107.089	25.324	1016.834	830.284
108.103	25.168	1016.258	829.019
109.118	24.926	1014.780	826.620
110.133	24.901	1014.140	825.914
111.147	24.784	1012.873	824.269
112.162	24.595	1012.003	822.617
113.176	24.769	1011.742	823.132
114.191	24.880	1010.058	822.201
115.206	24.589	1009.181	820.076
116.220	24.545	1008.240	819.040
117.235	24.570	1007.914	818.815
118.249	24.613	1006.801	818.038
119.264	24.611	1005.816	817.154
120.279	24.557	1005.472	816.557
121.293	24.739	1004.240	816.315
122.308	24.683	1003.385	815.291
123.322	24.585	1002.482	814.039
124.337	24.488	1001.186	812.474
125.352	23.963	999.461	808.617
126.366	23.933	998.318	807.485
127.381	24.652	998.503	810.823
128.395	25.092	998.309	812.589
129.410	25.277	997.092	812.366
130.424	25.184	996.516	811.406
131.439	25.152	995.526	810.381
132.454	25.221	994.571	809.844
133.468	25.102	993.771	808.582
134.483	25.204	993.129	808.451
135.497	25.476	992.391	809.003
136.512	25.410	991.668	808.046
137.527	25.637	990.716	808.216
138.541	25.483	990.330	807.137
139.556	25.500	989.179	806.203
140.570	25.535	988.646	805.856
141.585	25.680	987.173	805.233
142.600	25.507	986.748	804.041
143.614	25.639	986.144	804.067
144.629	25.864	985.118	804.166
145.643	25.655	983.850	802.128
146.658	25.347	982.826	799.851
147.673	25.362	981.850	799.052
148.687	25.365	980.899	798.219
149.702	25.224	979.856	796.676
150.716	25.155	978.782	795.428
151.731	25.194	978.609	795.386
152.746	25.569	977.759	796.289
153.760	25.638	976.979	795.887
154.775	25.697	976.356	795.571
155.789	25.445	975.817	793.945
156.804	25.537	974.585	793.279
157.819	25.639	973.589	792.849
158.833	25.568	973.423	792.328
159.848	25.801	971.764	791.936
160.862	25.616	970.722	790.201
161.877	25.626	969.729	789.366
162.892	25.767	968.382	788.822
163.906	25.502	967.574	786.932
164.921	25.458	966.953	786.165
165.935	25.656	965.944	786.138
166.950	25.653	965.276	785.514
167.964	25.545	964.592	784.416
168.979	25.413	963.459	782.852
169.994	25.379	962.425	781.792
171.008	25.576	962.146	782.355
172.023	25.645	961.044	781.687
173.037	25.411	960.373	780.058
174.052	25.243	959.114	778.236
175.067	25.219	958.918	777.907
176.081	25.344	958.071	777.691
177.096	25.265	957.376	776.714
178.110	25.175	956.122	775.242
179.125	24.876	955.641	773.489
180.140	25.091	955.111	773.920
181.154	25.097	955.153	773.911
182.169	25.328	955.061	774.765
183.183	25.440	954.417	774.661
184.198	25.559	953.065	774.007
185.213	25.517	952.396	773.212
186.227	25.554	952.222	773.163
187.242	25.530	951.586	772.474
188.256	25.656	950.892	772.384
189.271	25.800	949.715	771.978
190.286	25.318	948.752	769.063
191.300	24.695	947.263	765.120
192.315	24.045	945.124	760.551
193.329	23.899	945.000	759.760
194.344	24.721	946.031	764.036
195.359	25.452	945.673	766.796
196.373	25.529	945.156	766.640
197.388	25.443	944.504	765.677
198.402	25.587	943.669	765.545
199.417	25.507	943.056	764.639
200.432	25.280	941.966	762.722
201.446	25.043	941.854	761.560
202.461	25.042	941.366	761.093
203.475	24.278	939.298	756.112
204.490	23.378	937.852	751.069
205.504	24.470	937.966	755.721
206.519	24.976	938.311	758.073
207.534	25.082	937.947	758.163
208.548	25.664	936.976	759.767
209.563	25.386	936.074	757.798
210.577	25.281	935.501	756.825
211.592	25.654	935.396	758.241
212.607	25.687	934.507	757.595
213.621	25.677	934.082	757.139
214.636	25.686	933.250	756.438
215.650	25.685	932.538	755.787
216.665	25.713	932.071	755.461
217.680	25.680	931.619	754.890
218.694	25.313	929.857	751.856
219.709	25.228	929.372	751.041
220.723	25.330	929.089	751.176
221.738	25.405	928.827	751.211
222.753	25.437	928.069	750.663
223.767	25.581	927.561	750.790
224.782	25.780	927.172	751.239
225.796	25.837	926.320	750.717
226.811	25.098	925.188	746.658
227.826	24.309	923.983	742.334
228.840	24.640	923.690	743.414
229.855	24.764	922.340	742.775
230.869	24.430	921.351	740.525
231.884	24.667	921.405	741.486
232.899	25.356	922.187	744.909
233.913	25.446	921.359	744.550
234.928	25.275	920.853	743.367
235.942	25.121	920.252	742.179
236.957	25.017	919.310	740.922
237.972	24.973	918.609	740.108
238.986	25.132	918.022	740.229
240.001	25.071	917.252	739.288
241.015	25.105	917.128	739.263
242.030	25.572	916.236	740.404
243.045	25.435	916.500	739.987
244.059	25.543	915.773	739.780
245.074	25.401	914.414	738.031
246.088	25.184	913.383	736.244
247.103	25.354	913.221	736.747
248.117	25.923	913.206	739.001
249.132	26.155	913.105	739.805
250.147	26.230	912.749	739.757
251.161	26.335	912.261	739.728
252.176	26.371	911.177	738.929
253.190	26.492	910.451	738.771
254.205	26.674	910.054	739.128
255.220	26.507	909.806	738.179
256.234	26.340	908.927	736.719
257.249	26.414	907.824	736.060
258.263	26.403	907.306	735.533
259.278	26.397	906.677	734.931
260.293	26.396	906.123	734.411
261.307	26.315	905.864	733.807
262.322	26.035	904.945	731.863
263.336	25.466	902.607	727.606
264.351	24.344	901.257	721.914
265.366	24.358	900.779	721.525
266.380	25.573	901.319	726.808
267.395	25.969	901.254	728.289
268.409	25.958	900.245	727.366
269.424	26.081	899.754	727.401
270.439	26.200	898.881	727.110
271.453	26.209	898.627	726.875
272.468	26.437	898.242	727.419
273.482	26.490	898.050	727.409
274.497	26.073	896.812	724.667
275.512	25.712	895.595	722.174
276.526	25.874	896.137	723.197
277.541	26.232	895.677	724.198
278.555	26.078	894.407	722.491
279.570	25.964	893.516	721.249
280.585	26.136	893.016	721.472
281.599	26.058	892.294	720.511
282.614	25.417	890.989	716.839
283.628	25.310	890.783	716.183
284.643	25.746	890.196	717.384
285.657	25.366	889.266	715.058
286.672	25.108	888.185	713.100
287.687	25.678	888.492	715.552
288.701	25.806	887.619	715.292
289.716	25.299	886.833	712.584
290.730	25.445	885.849	712.310
291.745	25.096	885.219	710.356
292.760	25.353	885.449	711.497
293.774	26.312	885.957	715.643
294.789	26.636	885.652	716.613
295.803	26.784	884.880	716.512
296.818	26.765	883.902	715.582
297.833	26.382	882.788	713.103
298.847	26.143	882.241	711.658
299.862	26.443	881.824	712.439
300.876	26.911	881.474	713.937
301.891	26.647	880.997	712.448
302.906	26.307	879.990	710.236
303.920	26.447	879.640	710.442
304.935	26.760	879.744	711.690
305.949	26.532	878.725	709.909
306.964	26.346	878.310	708.781
307.979	26.608	877.603	709.176
308.993	26.852	877.669	710.120
310.008	26.838	876.718	709.235
311.022	26.465	876.177	707.277
312.037	26.394	875.450	706.348
313.052	26.305	874.267	704.983
314.066	25.303	872.925	699.935
315.081	24.851	872.281	697.594
316.095	25.767	872.565	701.331
317.110	26.287	872.451	703.199
318.125	25.533	870.685	698.787
319.139	24.590	869.393	694.024
320.154	24.373	869.086	692.875
321.168	25.304	869.364	696.653
322.183	25.953	869.555	699.261
323.197	26.305	869.237	700.307
324.212	26.463	869.109	700.754
325.227	26.413	868.421	699.945
326.241	26.214	867.467	698.345
327.256	26.345	866.641	698.122
328.270	26.145	865.720	696.547
329.285	26.092	865.185	695.850
330.300	25.811	863.920	693.691
331.314	26.027	864.148	694.644
332.329	26.396	864.065	695.936
333.343	26.573	863.618	696.197
334.358	26.552	863.432	695.905
335.373	26.624	863.088	695.840
336.387	26.835	863.038	696.550
337.402	26.949	862.805	696.738
338.416	26.888	862.778	696.422
339.431	27.200	861.904	696.848
340.446	27.250	861.733	696.841
341.460	27.089	861.455	695.939
342.475	26.812	860.651	694.167
343.489	26.979	860.595	694.698
344.504	27.164	860.070	694.923
345.519	27.343	859.975	695.465
346.533	27.416	859.341	695.172
347.548	27.304	858.641	694.115
348.562	27.224	858.154	693.356
349.577	27.331	857.280	692.998
350.592	27.359	856.446	692.369
351.606	27.382	855.669	691.766
352.621	27.229	854.920	690.517
353.635	27.040	854.269	689.214
354.650	26.432	852.914	685.756
355.665	25.453	851.365	680.743
356.679	25.855	851.214	682.083
357.694	26.331	851.034	683.678
358.708	26.331	850.241	682.981
359.723	26.700	850.121	684.217
360.738	26.935	849.875	684.849
361.752	27.100	849.144	684.820
362.767	27.476	849.129	686.162
363.781	27.498	849.039	686.112
364.796	27.702	848.607	686.472
365.810	27.807	847.947	686.273
366.825	27.764	847.368	685.581
367.840	27.510	846.603	683.948
368.854	26.955	845.717	681.089
369.869	27.072	845.161	681.018
370.883	27.162	844.733	680.953
371.898	26.863	844.487	679.573
372.913	27.062	844.295	680.104
373.927	27.213	843.351	679.848
374.942	27.208	843.346	679.763
375.956	27.384	843.026	680.106
376.971	27.772	842.074	680.726
377.986	27.805	841.801	680.565
379.000	27.786	841.400	680.112
380.015	27.599	840.673	678.769
381.029	27.615	840.313	678.475
382.044	27.699	839.726	678.252
383.059	27.775	839.049	677.930
384.073	27.756	838.796	677.596
385.088	27.681	838.070	676.672
386.102	27.478	837.197	675.154
387.117	27.477	836.051	674.164
388.132	27.103	835.352	672.159
389.146	26.666	834.214	669.570
390.161	26.864	834.460	670.440
391.175	27.471	834.377	672.557
392.190	27.080	833.432	670.293
393.205	25.714	831.399	663.566
394.219	24.329	829.347	656.771
395.234	24.236	828.835	655.965
396.248	25.647	830.701	662.586
397.263	27.209	831.440	668.868
398.278	27.137	831.343	668.465
399.292	26.898	830.564	666.903
400.307	26.910	830.184	666.583
401.321	27.055	829.392	666.419
402.336	27.460	829.267	667.747
403.350	27.819	829.645	669.307
404.365	28.081	829.430	670.033
405.380	28.290	829.072	670.450
406.394	28.513	828.119	670.437
407.409	28.162	828.150	669.120
408.423	28.278	827.847	669.237
409.438	28.304	827.233	668.779
410.453	28.518	826.644	669.025
411.467	28.331	825.874	667.659
412.482	28.358	825.768	667.612
413.496	28.447	825.698	667.823
414.511	28.449	824.895	667.121
415.526	28.468	824.502	666.812
416.540	28.427	823.322	665.649
417.555	28.119	822.646	663.929
418.569	28.075	822.590	663.662
419.584	28.090	822.034	663.210
420.599	27.910	821.679	662.215
421.613	95.296	1265.406	1378.494
422.628	82.192	1330.080	1378.621
