DTS Sentinel unit serial number:	SN413079Multiplexer serial number:	ORYXHardware model number:	OX4-SRSoftware version number:	ORYX F/W v4.00 Oryx Data Collector v3.7.2.0data status	okinstallation	princeton_trtdifferential loss correction	single-endedforward channel	channel 1reverse channel	N/Adate	2019/09/11time	18:20:11forward acquisition time	60.00reverse acquisition time	0.00gamma	496.2192k internal	0.2290k external	0.2290temperature offset calibration	0.9998default loss term (dB/km)	0.3790temperature slope calibration	1.0000multiplexer offset coefficient	1.0000multiplexer slope coefficient	1.0000fibre end	0.00T internal ref (°C)	44.00T ext. ref 1 (°C)	1.16T ext. ref 2 (°C)	38.95length (m)	temperature (°C)	Stokes	anti-Stokes-747.200	96.998	0.020	0.023
-746.185	-200.000	-0.072	0.415
-745.171	-1.454	-0.095	0.069
-744.156	156.342	0.121	0.172
-743.142	800.000	0.046	-0.157
-742.127	-55.191	-0.330	0.152
-741.112	-86.248	0.245	-0.077
-740.098	-19.500	0.107	0.068
-739.083	120.815	-0.327	0.416
-738.069	-103.259	0.260	0.063
-737.054	74.368	-0.185	0.199
-736.039	-124.382	0.221	0.035
-735.025	154.009	0.223	0.313
-734.010	800.000	0.038	-0.151
-732.996	93.860	-0.127	-0.147
-731.981	27.188	-0.269	-0.231
-730.966	473.484	0.024	0.055
-729.952	464.416	0.087	-0.200
-728.937	-200.000	-0.002	-0.315
-727.923	-200.000	-0.023	-0.267
-726.908	-43.202	0.148	-0.077
-725.894	-200.000	-0.011	-0.282
-724.879	181.197	-0.029	-0.044
-723.864	63.613	-0.241	-0.247
-722.850	241.487	0.112	-0.191
-721.835	2.163	0.095	-0.070
-720.821	800.000	-0.057	-0.179
-719.806	-200.000	-0.013	-0.206
-718.791	186.441	-0.222	-0.338
-717.777	127.744	-0.224	-0.291
-716.762	-33.544	0.140	0.079
-715.748	-103.656	-0.211	0.051
-714.733	585.133	-0.023	-0.057
-713.718	154.354	-0.109	0.153
-712.704	527.420	0.053	-0.127
-711.689	-60.831	0.095	-0.041
-710.675	202.205	-0.071	0.111
-709.660	155.862	-0.339	-0.478
-708.645	311.630	-0.099	0.190
-707.631	275.361	-0.071	0.130
-706.616	188.409	-0.122	0.186
-705.602	66.341	0.192	0.200
-704.587	-125.121	-0.316	0.050
-703.572	403.696	0.083	0.180
-702.558	800.000	0.047	-0.192
-701.543	268.970	-0.106	-0.191
-700.529	4.376	-0.166	0.124
-699.514	33.023	-0.185	0.164
-698.499	-200.000	0.008	0.256
-697.485	159.587	-0.158	-0.224
-696.470	233.003	-0.127	0.213
-695.456	195.323	-0.149	-0.232
-694.441	-64.724	0.290	-0.120
-693.426	-73.220	-0.194	0.073
-692.412	-200.000	-0.044	-0.354
-691.397	87.305	0.152	-0.171
-690.383	-200.000	0.012	0.236
-689.368	0.747	0.085	-0.062
-688.354	57.095	-0.133	-0.133
-687.339	679.719	0.089	0.238
-686.324	82.036	0.323	0.358
-685.310	-166.949	-0.185	0.008
-684.295	35.171	0.142	-0.127
-683.281	194.940	0.226	0.350
-682.266	-200.000	-0.004	0.153
-681.251	192.028	0.101	-0.155
-680.237	-12.629	-0.165	0.110
-679.222	-200.000	-0.025	0.162
-678.208	-110.283	0.075	-0.016
-677.193	185.774	0.049	-0.075
-676.178	-53.010	-0.241	-0.113
-675.164	-111.616	0.063	0.013
-674.149	-200.000	-0.066	0.326
-673.135	-200.000	-0.001	0.088
-672.120	505.334	-0.160	0.379
-671.105	85.053	0.204	0.228
-670.091	-148.944	0.229	-0.019
-669.076	-34.244	-0.162	0.091
-668.062	800.000	0.081	-0.265
-667.047	-200.000	-0.003	-0.103
-666.032	-131.649	-0.258	0.035
-665.018	26.341	0.130	0.111
-664.003	192.165	-0.081	-0.125
-662.989	-200.000	0.027	-0.377
-661.974	-39.338	0.066	0.035
-660.959	-200.000	-0.007	0.263
-659.945	105.562	0.190	0.229
-658.930	246.497	-0.034	0.059
-657.916	166.514	-0.049	-0.071
-656.901	-200.000	0.012	-0.084
-655.886	186.476	0.115	0.175
-654.872	176.428	-0.155	-0.230
-653.857	-107.093	0.332	-0.075
-652.843	-200.000	0.024	0.278
-651.828	49.592	-0.074	0.071
-650.814	-123.725	-0.215	-0.035
-649.799	800.000	0.047	-0.134
-648.784	2.662	0.282	-0.209
-647.770	86.137	-0.352	-0.395
-646.755	800.000	-0.081	-0.346
-645.741	800.000	0.130	0.454
-644.726	-142.499	-0.296	-0.030
-643.711	800.000	0.032	-0.124
-642.697	-69.004	-0.198	-0.078
-641.682	800.000	0.052	-0.232
-640.668	-90.138	-0.057	0.017
-639.653	-56.044	-0.163	-0.074
-638.638	800.000	-0.044	0.173
-637.624	-200.000	0.024	0.206
-636.609	-173.300	0.153	0.005
-635.595	-39.544	0.165	0.088
-634.580	-71.809	-0.237	-0.090
-633.565	-200.000	-0.002	0.007
-632.551	800.000	-0.073	-0.238
-631.536	160.307	-0.168	-0.239
-630.522	9.915	0.079	0.061
-629.507	-110.477	0.196	-0.041
-628.492	208.588	-0.046	0.073
-627.478	-44.913	0.203	0.103
-626.463	338.430	0.156	0.309
-625.449	-104.944	-0.077	0.018
-624.434	-125.645	-0.409	-0.063
-623.419	-0.439	-0.161	-0.117
-622.405	-118.029	-0.114	0.021
-621.390	-200.000	-0.003	0.413
-620.376	591.945	-0.111	-0.278
-619.361	36.206	-0.099	-0.089
-618.346	-166.614	0.308	-0.013
-617.332	34.722	-0.161	0.144
-616.317	-59.512	0.153	0.067
-615.303	800.000	-0.049	0.209
-614.288	-139.178	-0.070	-0.008
-613.273	800.000	-0.142	0.428
-612.259	31.934	-0.239	-0.210
-611.244	-96.108	-0.053	-0.014
-610.230	800.000	-0.020	-0.078
-609.215	543.323	-0.166	0.404
-608.201	158.477	-0.173	0.244
-607.186	-145.261	0.547	0.050
-606.171	30.060	-0.188	-0.164
-605.157	-98.791	0.180	-0.047
-604.142	670.740	0.128	-0.338
-603.128	-200.000	-0.005	-0.107
-602.113	800.000	-0.096	0.271
-601.098	-47.139	0.124	-0.062
-600.084	-183.143	0.025	0.000
-599.069	-48.917	0.209	-0.102
-598.055	-200.000	-0.023	0.196
-597.040	329.658	-0.041	-0.079
-596.025	520.910	0.070	0.167
-595.011	10.119	0.211	-0.163
-593.996	26.907	0.170	-0.145
-592.982	150.344	0.113	0.157
-591.967	38.178	0.283	-0.256
-590.952	-130.506	-0.291	-0.040
-589.938	103.095	-0.139	-0.166
-588.923	-91.610	0.142	0.041
-587.909	-200.000	-0.020	0.163
-586.894	-112.613	-0.254	-0.052
-585.879	800.000	0.052	0.198
-584.865	-200.000	0.091	-0.462
-583.850	-138.792	-0.308	0.034
-582.836	116.079	-0.065	0.082
-581.821	-151.022	-0.337	-0.026
-580.806	-164.570	-0.032	0.001
-579.792	253.804	0.126	-0.219
-578.777	-200.000	-0.007	0.034
-577.763	-59.874	-0.133	0.058
-576.748	-200.000	-0.039	0.332
-575.733	-84.151	-0.227	0.073
-574.719	-200.000	0.144	0.000
-573.704	395.297	-0.021	0.045
-572.690	38.809	-0.135	-0.122
-571.675	-200.000	-0.022	0.170
-570.661	-144.425	0.393	0.037
-569.646	86.102	-0.207	0.232
-568.631	-162.408	0.111	0.006
-567.617	-200.000	0.026	-0.176
-566.602	23.547	-0.111	-0.093
-565.588	-200.000	0.001	-0.268
-564.573	590.031	-0.063	0.159
-563.558	-200.000	0.017	0.174
-562.544	-71.104	-0.168	-0.064
-561.529	-119.169	0.184	-0.033
-560.515	-176.617	0.137	-0.004
-559.500	-200.000	0.024	0.148
-558.485	108.445	0.213	-0.258
-557.471	45.093	-0.093	-0.087
-556.456	800.000	0.088	0.316
-555.442	-46.556	-0.515	-0.257
-554.427	642.285	-0.116	-0.300
-553.412	-48.133	0.177	0.087
-552.398	131.335	-0.172	-0.224
-551.383	-135.120	-0.518	0.063
-550.369	638.977	0.062	-0.160
-549.354	159.144	0.097	-0.138
-548.339	236.827	0.162	-0.273
-547.325	-86.943	0.252	-0.078
-546.310	-25.514	0.174	-0.105
-545.296	121.776	0.131	0.166
-544.281	35.259	0.202	0.180
-543.266	-200.000	0.005	-0.291
-542.252	33.399	-0.135	-0.119
-541.237	-117.607	-0.369	0.068
-540.223	196.355	-0.141	0.219
-539.208	57.821	-0.135	0.134
-538.193	-117.410	-0.201	-0.037
-537.179	43.193	-0.250	0.232
-536.164	-34.392	-0.203	-0.113
-535.150	-25.295	0.036	0.022
-534.135	771.800	0.075	0.207
-533.121	8.122	-0.143	-0.109
-532.106	-96.967	-0.166	-0.044
-531.091	-200.000	-0.017	0.190
-530.077	489.935	0.039	-0.090
-529.062	800.000	0.064	0.200
-528.048	800.000	-0.087	0.288
-527.033	-33.948	0.236	0.132
-526.018	-33.874	-0.133	-0.074
-525.004	148.686	-0.122	-0.168
-523.989	122.837	-0.160	-0.203
-522.975	-18.849	0.100	-0.063
-521.960	-56.767	-0.319	-0.143
-520.945	-1.567	0.306	-0.219
-519.931	295.712	-0.026	-0.048
-518.916	59.760	0.098	-0.099
-517.902	-53.829	-0.262	0.121
-516.887	-200.000	0.020	0.127
-515.872	237.575	-0.102	-0.171
-514.858	-6.438	0.142	-0.098
-513.843	-200.000	-0.032	0.202
-512.829	42.030	0.165	-0.152
-511.814	-200.000	-0.031	-0.167
-510.799	-143.339	0.055	-0.005
-509.785	-17.571	0.087	-0.055
-508.770	-52.896	-0.185	0.086
-507.756	-200.000	-0.030	0.328
-506.741	-182.122	-0.257	0.005
-505.726	-25.545	0.219	0.131
-504.712	217.074	-0.158	-0.255
-503.697	-200.000	-0.002	-0.096
-502.683	166.647	0.150	-0.215
-501.668	-200.000	-0.003	-0.042
-500.653	670.436	-0.033	-0.087
-499.639	-66.705	-0.197	0.079
-498.624	367.567	-0.037	-0.076
-497.610	-50.073	0.242	0.116
-496.595	-200.000	0.010	-0.158
-495.581	28.398	0.095	0.081
-494.566	-101.687	-0.290	0.071
-493.551	29.838	-0.185	0.160
-492.537	691.295	0.037	0.100
-491.522	473.775	-0.045	-0.104
-490.508	74.294	0.105	-0.112
-489.493	-70.432	0.173	0.066
-488.478	246.199	0.063	-0.107
-487.464	-30.559	-0.347	0.199
-486.449	800.000	-0.095	0.270
-485.435	91.681	0.206	-0.235
-484.420	-56.030	-0.255	-0.115
-483.405	215.309	-0.190	-0.306
-482.391	474.940	0.120	-0.275
-481.376	-72.499	-0.435	0.163
-480.362	541.802	0.098	-0.238
-479.347	84.285	-0.064	-0.071
-478.332	-200.000	-0.046	0.265
-477.318	-44.264	0.245	0.125
-476.303	348.735	0.068	0.136
-475.289	-200.000	0.028	0.306
-474.274	108.448	-0.099	0.120
-473.259	-83.622	-0.218	-0.071
-472.245	-169.004	-0.168	-0.006
-471.230	245.880	-0.094	-0.161
-470.216	120.417	0.155	0.195
-469.201	-159.405	-0.343	0.019
-468.186	-82.351	0.187	0.062
-467.172	-200.000	0.023	-0.126
-466.157	-109.593	0.126	-0.027
-465.143	571.649	0.071	0.176
-464.128	144.603	-0.198	-0.268
-463.113	800.000	0.047	-0.136
-462.099	-184.446	0.324	0.005
-461.084	-55.701	0.059	-0.027
-460.070	-115.381	0.178	0.034
-459.055	296.806	0.106	-0.197
-458.040	-147.151	0.343	-0.030
-457.026	-54.773	0.141	0.065
-456.011	-184.913	-0.361	-0.006
-454.997	207.685	0.075	-0.118
-453.982	470.719	-0.109	-0.249
-452.968	-47.229	0.080	0.040
-451.953	-104.065	0.133	-0.031
-450.938	-200.000	-0.002	0.145
-449.924	-93.442	-0.340	0.095
-448.909	-200.000	0.014	-0.370
-447.895	642.079	0.223	0.575
-446.880	-200.000	0.003	0.038
-445.865	-19.246	0.069	0.043
-444.851	-200.000	0.019	-0.200
-443.836	86.453	-0.039	-0.044
-442.822	800.000	0.127	0.411
-441.807	87.228	0.131	0.147
-440.792	-200.000	-0.060	0.343
-439.778	216.271	-0.025	-0.040
-438.763	-22.148	-0.161	0.099
-437.749	352.298	-0.107	-0.215
-436.734	-36.309	-0.167	0.091
-435.719	-20.412	0.165	-0.103
-434.705	-116.683	-0.092	-0.017
-433.690	-8.016	-0.209	-0.143
-432.676	-37.807	-0.186	-0.100
-431.661	-49.459	-0.173	0.084
-430.646	19.593	0.153	-0.124
-429.632	-54.439	0.168	-0.077
-428.617	186.651	0.246	-0.371
-427.603	-11.473	-0.228	0.152
-426.588	-106.188	-0.311	-0.071
-425.573	682.587	-0.032	0.084
-424.559	511.144	-0.041	-0.096
-423.544	739.745	-0.057	-0.156
-422.530	306.813	0.096	-0.181
-421.515	-98.041	0.113	-0.030
-420.500	506.585	0.074	0.175
-419.486	-200.000	0.086	0.000
-418.471	48.106	0.237	0.224
-417.457	-100.274	0.170	-0.043
-416.442	-87.470	0.102	0.031
-415.428	82.137	0.161	-0.176
-414.413	-200.000	0.153	-0.001
-413.398	-122.288	0.120	0.020
-412.384	147.151	-0.034	0.047
-411.369	-112.481	-0.156	0.031
-410.355	107.608	-0.163	0.196
-409.340	-89.642	-0.285	-0.085
-408.325	151.674	-0.057	-0.079
-407.311	-50.321	-0.138	0.066
-406.296	800.000	-0.121	0.394
-405.282	-18.663	-0.116	0.073
-404.267	264.458	-0.153	-0.268
-403.252	-1.001	0.265	-0.190
-402.238	600.090	-0.007	0.018
-401.223	669.759	-0.061	0.159
-400.209	62.842	-0.156	0.158
-399.194	68.898	-0.096	-0.100
-398.179	-34.962	0.084	0.046
-397.165	-29.801	0.209	0.120
-396.150	18.360	-0.290	-0.234
-395.136	-6.635	0.277	0.191
-394.121	87.802	0.235	0.263
-393.106	-89.350	-0.266	-0.079
-392.092	42.825	0.343	-0.316
-391.077	767.178	-0.155	-0.426
-390.063	-194.565	-0.225	-0.002
-389.048	382.073	0.088	0.183
-388.033	256.735	0.043	0.075
-387.019	-121.891	0.409	-0.068
-386.004	-27.349	0.279	-0.164
-384.990	-149.879	-0.267	-0.021
-383.975	-103.242	0.248	0.059
-382.960	87.315	-0.158	0.177
-381.946	-200.000	0.051	0.238
-380.931	-200.000	0.056	0.575
-379.917	-47.896	-0.224	-0.110
-378.902	-153.396	-0.266	-0.019
-377.888	-130.955	-0.219	0.030
-376.873	251.847	-0.038	-0.066
-375.858	-200.000	-0.002	-0.137
-374.844	-200.000	0.021	-0.312
-373.829	104.929	0.042	-0.049
-372.815	-200.000	-0.022	0.143
-371.800	70.530	-0.182	-0.190
-370.785	800.000	-0.168	-0.574
-369.771	-121.723	-0.086	0.014
-368.756	-94.917	0.253	-0.069
-367.742	72.012	0.230	0.242
-366.727	-127.529	-0.053	0.008
-365.712	-0.473	0.063	-0.045
-364.698	-200.000	-0.013	-0.283
-363.683	79.169	0.258	0.279
-362.669	800.000	0.007	-0.024
-361.654	-32.160	-0.085	0.048
-360.639	383.499	0.104	0.217
-359.625	147.524	-0.083	0.112
-358.610	-200.000	-0.011	-0.056
-357.596	-77.080	-0.196	0.069
-356.581	-43.217	-0.204	-0.104
-355.566	258.962	-0.199	0.345
-354.552	-200.000	0.003	-0.033
-353.537	9.138	0.261	0.199
-352.523	-75.936	0.340	0.121
-351.508	159.836	0.159	0.223
-350.493	-143.338	-0.421	0.041
-349.479	-102.416	-0.073	-0.018
-348.464	-99.917	0.252	-0.064
-347.450	-188.789	-0.143	0.002
-346.435	253.018	-0.200	-0.345
-345.420	146.590	-0.083	-0.112
-344.406	-139.608	-0.284	0.031
-343.391	-200.000	0.022	-0.115
-342.377	-141.679	0.148	0.015
-341.362	-103.042	0.246	-0.059
-340.348	800.000	-0.119	-0.335
-339.333	-200.000	0.000	-0.381
-338.318	331.414	0.067	-0.130
-337.304	36.830	0.136	0.121
-336.289	-51.172	0.292	-0.138
-335.275	635.432	-0.043	-0.109
-334.260	41.711	-0.148	0.135
-333.245	-88.505	-0.160	-0.048
-332.231	152.307	0.239	0.329
-331.216	100.023	0.065	-0.076
-330.202	5.989	-0.330	0.247
-329.187	425.591	0.072	0.155
-328.172	-38.446	-0.253	-0.135
-327.158	-87.480	0.233	-0.071
-326.143	-86.348	0.320	0.099
-325.129	782.056	0.066	0.181
-324.114	-171.777	0.274	-0.009
-323.099	800.000	0.158	0.519
-322.085	-200.000	-0.007	0.318
-321.070	-199.594	0.319	-0.002
-320.056	45.916	0.145	0.135
-319.041	77.266	0.101	-0.108
-318.026	-155.091	-0.103	-0.007
-317.012	-64.205	0.118	-0.049
-315.997	99.820	0.068	0.079
-314.983	-49.163	0.311	-0.150
-313.968	-112.642	0.162	0.033
-312.953	48.450	-0.092	0.087
-311.939	800.000	0.079	-0.320
-310.924	-9.530	-0.430	-0.289
-309.910	-200.000	-0.024	-0.139
-308.895	-97.069	-0.172	-0.045
-307.880	84.823	-0.034	-0.037
-306.866	453.241	0.073	0.163
-305.851	-200.000	-0.027	0.263
-304.837	-184.918	-0.502	0.008
-303.822	-29.800	0.294	0.169
-302.807	800.000	-0.059	0.185
-301.793	455.776	0.078	-0.173
-300.778	800.000	-0.021	0.073
-299.764	-200.000	-0.019	0.276
-298.749	-144.631	-0.107	0.010
-297.735	5.287	0.217	-0.161
-296.720	100.645	0.106	-0.124
-295.705	-100.928	-0.022	-0.005
-294.691	-200.000	0.006	0.277
-293.676	-29.876	-0.263	0.151
-292.662	-1.498	0.056	0.040
-291.647	-74.005	0.398	-0.145
-290.632	800.000	-0.067	-0.190
-289.618	11.493	-0.171	0.132
-288.603	-25.914	0.297	-0.176
-287.589	54.262	0.224	-0.217
-286.574	-163.349	0.075	-0.004
-285.559	800.000	-0.080	0.353
-284.545	800.000	-0.035	0.099
-283.530	-142.210	-0.155	0.015
-282.516	800.000	0.054	-0.170
-281.501	594.251	-0.083	-0.205
-280.486	-200.000	-0.054	-0.303
-279.472	-82.177	0.088	-0.029
-278.457	-101.562	-0.071	-0.017
-277.443	-81.068	0.160	-0.053
-276.428	-116.490	-0.253	0.047
-275.413	216.719	-0.126	-0.201
-274.399	-200.000	-0.053	-0.343
-273.384	-200.000	-0.035	0.201
-272.370	-200.000	-0.001	-0.073
-271.355	-200.000	0.013	0.148
-270.340	-4.136	0.232	-0.162
-269.326	-72.034	-0.332	0.124
-268.311	-63.661	0.106	-0.044
-267.297	-69.490	0.268	0.103
-266.282	800.000	0.030	-0.121
-265.267	-200.000	0.011	-0.172
-264.253	-200.000	-0.064	0.299
-263.238	-98.885	0.091	-0.023
-262.224	276.396	-0.154	0.275
-261.209	-200.000	-0.001	0.061
-260.195	117.145	0.113	0.140
-259.180	-53.321	-0.273	0.126
-258.165	-200.000	-0.021	-0.101
-257.151	-200.000	0.034	0.225
-256.136	81.427	-0.253	-0.274
-255.122	-200.000	0.017	0.252
-254.107	26.916	0.122	0.103
-253.092	-200.000	0.039	0.239
-252.078	187.005	-0.082	0.123
-251.063	-136.056	0.369	-0.043
-250.049	-75.029	0.330	0.119
-249.034	800.000	-0.050	-0.172
-248.019	38.816	0.020	-0.018
-247.005	-15.860	-0.091	0.058
-245.990	800.000	0.080	0.261
-244.976	-200.000	0.044	0.200
-243.961	-135.549	-0.331	-0.040
-242.946	-4.141	-0.263	0.183
-241.932	-5.211	-0.102	-0.070
-240.917	-78.658	0.269	-0.092
-239.903	-200.000	0.043	0.247
-238.888	226.255	-0.143	0.233
-237.873	-52.484	-0.122	-0.057
-236.859	800.000	-0.041	0.178
-235.844	800.000	0.055	-0.181
-234.830	-48.711	0.343	0.165
-233.815	-200.000	-0.015	0.072
-232.800	256.695	0.215	0.371
-231.786	-24.357	-0.133	0.080
-230.771	-63.660	0.024	-0.010
-229.757	-183.440	0.402	-0.007
-228.742	346.990	-0.092	-0.181
-227.727	-48.712	-0.264	-0.127
-226.713	27.772	0.168	0.142
-225.698	241.187	-0.089	-0.150
-224.684	188.210	0.111	-0.166
-223.669	-200.000	0.072	0.334
-222.655	-129.482	-0.050	0.007
-221.640	-6.978	0.059	-0.040
-220.625	138.715	0.104	0.137
-219.611	800.000	-0.122	-0.411
-218.596	-72.416	-0.133	0.049
-217.582	-126.793	0.117	0.017
-216.567	-200.000	0.027	0.202
-215.552	-109.518	0.338	-0.072
-214.538	-93.456	0.010	-0.003
-213.523	-200.000	0.265	0.001
-212.509	26.646	0.083	-0.070
-211.494	800.000	0.040	0.156
-210.479	-124.846	0.099	0.015
-209.465	800.000	-0.039	0.143
-208.450	-55.613	-0.150	0.068
-207.436	800.000	-0.008	0.034
-206.421	-82.035	0.192	0.063
-205.406	800.000	0.043	0.131
-204.392	98.460	-0.125	-0.145
-203.377	-51.433	-0.163	-0.076
-202.363	-99.370	-0.514	-0.130
-201.348	800.000	0.055	0.186
-200.333	156.562	0.209	0.289
-199.319	147.378	0.060	-0.081
-198.304	-20.591	0.277	-0.171
-197.290	-200.000	-0.014	-0.180
-196.275	-84.314	0.221	0.070
-195.260	-72.783	-0.244	-0.090
-194.246	-43.415	0.139	-0.070
-193.231	134.813	0.088	-0.115
-192.217	-200.000	-0.031	0.212
-191.202	-57.532	-0.391	0.172
-190.187	-157.110	0.268	0.016
-189.173	60.621	0.127	0.126
-188.158	681.226	0.158	-0.412
-187.144	-93.093	0.449	0.125
-186.129	-200.000	-0.048	-0.361
-185.114	33.079	0.280	0.243
-184.100	-60.516	-0.270	-0.115
-183.085	-103.457	-0.156	-0.037
-182.071	314.862	0.210	-0.396
-181.056	273.180	-0.122	-0.216
-180.042	-76.009	-0.030	0.011
-179.027	-200.000	0.024	-0.105
-178.012	111.625	0.155	0.187
-176.998	78.794	-0.360	-0.386
-175.983	-200.000	-0.014	-0.085
-174.969	145.639	0.091	-0.122
-173.954	9.038	-0.071	0.054
-172.939	234.715	-0.095	0.157
-171.925	-54.242	-0.288	-0.131
-170.910	-146.815	0.218	-0.019
-169.896	405.023	0.108	0.228
-168.881	800.000	-0.055	-0.160
-167.866	107.002	-0.129	-0.153
-166.852	-200.000	0.035	-0.221
-165.837	89.949	0.278	0.311
-164.823	-111.380	0.258	0.053
-163.808	75.276	0.081	0.085
-162.793	-81.015	-0.128	0.042
-161.779	-63.289	0.150	-0.062
-160.764	-35.272	-0.125	0.068
-159.750	94.271	-0.079	-0.090
-158.735	-128.880	0.225	-0.032
-157.720	392.942	0.088	0.183
-156.706	224.521	0.184	-0.298
-155.691	800.000	0.079	0.235
-154.677	620.887	-0.033	0.083
-153.662	-162.906	0.125	0.006
-152.647	-97.541	0.089	-0.023
-151.633	138.768	-0.087	-0.114
-150.618	345.437	0.130	0.256
-149.604	-14.059	-0.359	0.232
-148.589	-116.351	0.197	0.036
-147.574	8.703	-0.182	0.137
-146.560	-77.569	0.043	0.015
-145.545	-200.000	0.005	-0.207
-144.531	-200.000	-0.001	-0.086
-143.516	-3.108	0.125	0.087
-142.502	-16.532	-0.251	-0.159
-141.487	-21.858	0.178	0.108
-140.472	139.706	0.056	0.074
-139.458	99.408	0.229	0.265
-138.443	-8.981	-0.191	0.128
-137.429	-28.133	0.329	-0.190
-136.414	154.490	0.071	0.097
-135.399	-152.587	0.311	-0.022
-134.385	-90.990	-0.067	0.019
-133.370	-33.238	-0.063	-0.035
-132.356	-200.000	0.078	-0.341
-131.341	-200.000	-0.014	-0.158
-130.326	68.160	0.133	-0.136
-129.312	132.098	-0.062	0.080
-128.297	660.325	0.046	0.119
-127.283	-156.780	-0.058	0.004
-126.268	-57.195	-0.202	-0.089
-125.253	-200.000	-0.018	0.122
-124.239	44.934	-0.065	-0.060
-123.224	-179.150	0.240	0.005
-122.210	111.767	-0.172	-0.207
-121.195	166.730	0.085	-0.121
-120.180	385.760	0.098	0.202
-119.166	-200.000	0.004	0.386
-118.151	800.000	0.118	0.350
-117.137	435.429	0.094	-0.205
-116.122	301.068	0.134	-0.247
-115.107	54.044	0.196	0.188
-114.093	18.856	0.102	-0.081
-113.078	-100.409	0.260	-0.064
-112.064	-154.514	0.211	0.014
-111.049	-10.801	0.154	-0.102
-110.034	205.603	-0.104	-0.161
-109.020	-131.224	-0.131	-0.017
-108.005	-200.000	-0.050	0.303
-106.991	-200.000	0.008	0.040
-105.976	156.679	-0.165	0.227
-104.962	-24.170	0.394	-0.235
-103.947	579.057	0.088	-0.214
-102.932	-50.444	0.184	0.087
-101.918	-15.504	-0.113	0.072
-100.903	571.837	-0.202	0.493
-99.889	800.000	0.085	0.299
-98.874	-94.539	-0.099	0.027
-97.859	52.938	0.112	-0.107
-96.845	-82.089	-0.157	-0.051
-95.830	-200.000	0.026	-0.164
-94.816	92.650	-0.107	0.121
-93.801	-200.000	-0.036	0.579
-92.786	774.494	0.040	0.108
-91.772	383.539	-0.081	-0.166
-90.757	-36.986	-0.037	0.020
-89.743	-70.564	0.311	0.117
-88.728	-88.137	-0.244	0.073
-87.713	-5.419	-0.122	0.084
-86.699	-200.000	0.029	-0.225
-85.684	-84.133	-0.252	0.080
-84.670	0.476	-0.075	0.053
-83.655	-149.014	-0.111	0.009
-82.640	-99.258	0.256	-0.065
-81.626	-0.407	0.225	0.160
-80.611	-94.661	-0.228	-0.062
-79.597	-200.000	0.027	-0.125
-78.582	233.500	-0.101	-0.165
-77.567	102.319	-0.203	-0.236
-76.553	23.215	-0.165	-0.135
-75.538	736.024	-0.049	0.132
-74.524	-200.000	0.000	0.204
-73.509	211.213	-0.010	0.015
-72.494	21.314	-0.205	0.166
-71.480	-124.791	-0.197	-0.030
-70.465	-200.000	-0.090	-0.470
-69.451	800.000	0.078	-0.284
-68.436	107.464	-0.042	-0.050
-67.422	-123.454	0.230	-0.037
-66.407	95.923	-0.310	0.353
-65.392	156.406	0.133	0.183
-64.378	800.000	0.168	0.526
-63.363	106.381	-0.166	-0.197
-62.349	260.071	0.093	-0.160
-61.334	-47.888	-1.120	-0.541
-60.319	19.626	0.331	0.265
-59.305	-200.000	0.187	-0.851
-58.290	439.006	0.377	0.821
-57.276	800.000	0.464	1.563
-56.261	-200.000	71.322	529.412
-55.246	614.442	1268.332	3167.902
-54.232	148.126	2488.836	3347.817
-53.217	123.850	2223.299	2782.697
-52.203	57.216	1668.186	1622.581
-51.188	48.491	1384.621	1292.947
-50.173	44.527	1336.004	1223.711
-49.159	61.901	1367.876	1358.562
-48.144	70.787	1387.058	1431.285
-47.130	48.533	1350.432	1261.074
-46.115	44.172	1334.773	1220.257
-45.100	43.895	1329.989	1214.177
-44.086	43.921	1326.926	1211.488
-43.071	43.769	1324.881	1208.660
-42.057	43.816	1322.435	1206.668
-41.042	43.810	1321.040	1205.308
-40.027	43.917	1319.388	1204.387
-39.013	43.766	1318.076	1202.249
-37.998	43.799	1315.996	1200.500
-36.984	43.937	1314.053	1199.493
-35.969	44.065	1312.154	1198.471
-34.954	44.101	1310.358	1196.998
-33.940	44.089	1309.187	1195.805
-32.925	44.071	1307.570	1194.177
-31.911	44.062	1306.571	1193.162
-30.896	44.131	1304.451	1191.585
-29.881	44.004	1303.245	1189.693
-28.867	44.064	1301.579	1188.475
-27.852	44.075	1300.598	1187.596
-26.838	44.079	1298.799	1185.928
-25.823	44.186	1297.458	1185.281
-24.809	44.031	1296.289	1183.265
-23.794	44.088	1294.687	1182.088
-22.779	44.134	1293.214	1180.964
-21.765	44.061	1292.005	1179.385
-20.750	44.175	1290.706	1178.816
-19.736	44.046	1289.510	1176.928
-18.721	44.029	1287.750	1175.176
-17.706	43.978	1287.067	1174.212
-16.692	43.994	1285.842	1173.140
-15.677	44.023	1284.349	1171.901
-14.663	43.946	1283.773	1170.881
-13.648	43.946	1282.148	1169.354
-12.633	44.037	1281.217	1168.985
-11.619	43.922	1280.536	1167.653
-10.604	43.960	1279.893	1167.241
-9.590	43.801	1279.144	1165.594
-8.575	43.908	1277.846	1164.983
-7.560	43.851	1276.833	1163.686
-6.546	43.939	1275.727	1163.137
-5.531	43.964	1274.751	1162.340
-4.517	43.953	1274.296	1161.816
-3.502	43.845	1273.321	1160.262
-2.487	43.948	1272.128	1159.723
-1.473	44.098	1268.307	1157.049
-0.458	43.006	1253.591	1137.417
0.556	37.934	1232.564	1091.901
1.571	33.298	1234.488	1067.434
2.586	31.814	1248.043	1070.592
3.600	30.049	1237.694	1051.613
4.615	21.278	1160.617	939.115
5.629	7.830	1075.451	802.695
6.644	1.592	1049.805	752.687
7.659	1.045	1047.007	747.918
8.673	0.973	1045.503	746.423
9.688	1.032	1044.015	745.581
10.702	1.355	1042.987	746.372
11.717	8.764	1053.997	790.877
12.731	19.546	1069.478	856.176
13.746	23.556	1073.901	879.562
14.761	23.667	1073.576	879.768
15.775	23.654	1073.100	879.237
16.790	23.486	1072.279	877.655
17.804	23.269	1071.903	876.199
18.819	23.514	1070.884	876.498
19.834	23.445	1070.946	876.128
20.848	23.648	1069.934	876.226
21.863	23.530	1069.870	875.514
22.877	23.508	1069.045	874.654
23.892	23.362	1068.354	873.289
24.907	23.441	1067.854	873.195
25.921	23.536	1066.309	872.320
26.936	23.510	1065.202	871.209
27.950	23.388	1063.599	869.225
28.965	23.277	1061.569	866.942
29.980	23.429	1060.361	866.626
30.994	23.557	1059.759	866.680
32.009	23.537	1058.601	865.557
33.023	23.389	1057.136	863.562
34.038	23.480	1056.431	863.355
35.053	23.502	1056.036	863.064
36.067	23.582	1055.025	862.546
37.082	23.363	1054.900	861.305
38.096	23.762	1053.666	862.157
39.111	23.803	1052.712	861.500
40.126	23.667	1051.638	859.888
41.140	23.380	1049.579	856.739
42.155	23.273	1048.014	854.868
43.169	23.240	1047.691	854.370
44.184	23.216	1046.404	853.132
45.199	23.040	1045.690	851.623
46.213	23.200	1044.269	851.161
47.228	23.287	1044.002	851.288
48.242	23.413	1042.968	850.975
49.257	23.510	1042.080	850.640
50.271	23.544	1041.517	850.266
51.286	23.683	1040.856	850.321
52.301	23.593	1039.586	848.774
53.315	23.500	1038.418	847.303
54.330	23.538	1037.693	846.816
55.344	23.526	1036.306	845.556
56.359	23.456	1035.721	844.670
57.374	23.380	1034.700	843.401
58.388	23.342	1034.327	842.842
59.403	23.233	1033.228	841.351
60.417	23.117	1032.622	840.233
61.432	23.156	1032.030	839.861
62.447	23.338	1031.177	839.954
63.461	23.251	1030.580	838.983
64.476	23.220	1029.692	838.041
65.490	23.198	1028.771	837.109
66.505	23.277	1028.158	836.910
67.520	23.318	1027.223	836.271
68.534	23.138	1026.424	834.697
69.549	22.888	1024.698	832.040
70.563	22.772	1024.375	831.158
71.578	22.785	1023.717	830.615
72.593	22.624	1022.633	828.902
73.607	22.700	1022.210	828.845
74.622	23.008	1021.562	829.690
75.636	23.179	1020.674	829.698
76.651	23.018	1019.667	828.053
77.666	22.792	1019.307	826.630
78.680	22.977	1018.357	826.653
79.695	23.034	1017.727	826.332
80.709	23.164	1017.069	826.331
81.724	23.154	1016.385	825.655
82.739	23.240	1015.246	825.061
83.753	23.565	1014.656	826.018
84.768	23.819	1014.621	827.101
85.782	23.925	1013.141	826.315
86.797	23.789	1012.440	825.040
87.812	23.571	1011.790	823.424
88.826	23.688	1010.448	822.802
89.841	23.807	1009.557	822.556
90.855	23.747	1008.537	821.374
91.870	23.752	1008.083	820.955
92.884	23.717	1006.620	819.526
93.899	23.704	1006.027	818.912
94.914	23.711	1004.672	817.771
95.928	23.663	1003.844	816.803
96.943	23.408	1002.283	814.287
97.957	23.150	1001.653	812.517
98.972	23.039	1000.167	810.731
99.987	23.311	999.809	811.616
101.001	23.504	998.617	811.463
102.016	23.436	998.135	810.685
103.030	23.454	996.951	809.736
104.045	23.255	996.201	808.148
105.060	23.068	995.154	806.372
106.074	23.276	994.604	806.805
107.089	23.520	994.144	807.472
108.103	23.460	992.975	806.179
109.118	23.379	991.411	804.467
110.133	23.267	990.673	803.289
111.147	23.175	989.139	801.561
112.162	23.031	988.170	800.050
113.176	23.250	987.194	800.178
114.191	23.184	986.664	799.382
115.206	22.839	985.565	796.864
116.220	22.787	985.374	796.402
117.235	22.917	984.443	796.168
118.249	23.028	983.198	795.587
119.264	22.831	982.667	794.203
120.279	22.832	981.963	793.569
121.293	22.934	981.543	793.618
122.308	22.954	980.183	792.537
123.322	22.956	979.145	791.637
124.337	22.873	977.886	790.177
125.352	22.451	975.782	786.524
126.366	22.230	975.140	784.950
127.381	22.930	975.304	788.133
128.395	23.400	974.840	789.784
129.410	23.481	973.819	789.249
130.424	23.548	973.259	789.024
131.439	23.596	971.830	788.007
132.454	23.463	971.404	787.001
133.468	23.483	970.144	786.000
134.483	23.587	969.704	786.036
135.497	23.797	968.865	786.214
136.512	23.929	967.810	785.871
137.527	23.764	967.465	784.793
138.541	23.857	967.062	784.809
139.556	24.045	965.551	784.340
140.570	23.861	965.039	783.045
141.585	24.020	964.014	782.847
142.600	23.933	962.763	781.376
143.614	24.111	962.127	781.572
144.629	24.190	961.304	781.182
145.643	23.900	960.569	779.245
146.658	23.915	958.678	777.709
147.673	23.712	958.060	776.249
148.687	23.690	957.142	775.341
149.702	23.405	956.423	773.447
150.716	23.530	955.150	772.893
151.731	23.759	954.718	773.475
152.746	23.758	954.348	773.101
153.760	23.894	953.511	772.945
154.775	23.968	953.158	772.913
155.789	24.034	951.942	772.146
156.804	23.938	951.249	771.096
157.819	23.899	949.936	769.796
158.833	23.949	949.384	769.498
159.848	24.131	948.342	769.370
160.862	23.954	947.185	767.602
161.877	23.851	946.497	766.530
162.892	23.864	945.930	766.058
163.906	23.671	944.529	764.029
164.921	23.876	943.688	764.159
165.935	23.963	942.838	763.777
166.950	23.907	941.814	762.641
167.964	23.764	941.010	761.310
168.979	23.606	939.940	759.701
169.994	23.762	938.838	759.411
171.008	23.969	938.246	759.746
172.023	23.972	937.577	759.152
173.037	23.733	936.359	757.081
174.052	23.520	935.548	755.448
175.067	23.664	935.277	755.777
176.081	23.686	934.805	755.420
177.096	23.773	933.766	754.884
178.110	23.393	932.635	752.294
179.125	23.217	932.100	751.047
180.140	23.180	931.969	750.717
181.154	23.370	931.924	751.419
182.169	23.607	931.407	751.944
183.183	24.001	930.923	753.153
184.198	23.828	929.810	751.452
185.213	23.742	929.138	750.482
186.227	23.889	928.367	750.415
187.242	23.919	928.192	750.329
188.256	23.972	927.064	749.575
189.271	23.979	926.492	749.076
190.286	23.671	925.998	747.314
191.300	23.126	924.093	743.420
192.315	22.356	922.499	738.844
193.329	22.295	922.226	738.301
194.344	23.080	922.676	741.894
195.359	23.732	922.251	744.217
196.373	23.878	921.892	744.472
197.388	23.703	921.404	743.282
198.402	23.733	920.828	742.874
199.417	23.759	920.058	742.298
200.432	23.617	918.972	740.762
201.446	23.284	918.559	738.977
202.461	23.374	918.049	738.875
203.475	22.667	916.220	734.394
204.490	21.651	915.077	729.187
205.504	22.612	915.395	733.374
206.519	23.372	915.039	736.184
207.534	23.406	914.403	735.749
208.548	23.915	913.860	737.355
209.563	23.651	913.069	735.561
210.577	23.545	913.155	735.123
211.592	24.035	912.188	736.309
212.607	24.072	911.331	735.705
213.621	24.060	910.487	734.910
214.636	23.953	910.049	734.049
215.650	24.018	909.336	733.676
216.665	24.146	908.503	733.467
217.680	24.012	908.137	732.555
218.694	23.627	906.443	729.543
219.709	23.467	905.912	728.390
220.723	23.743	906.014	729.545
221.738	23.835	904.993	729.034
222.753	23.656	904.903	728.161
223.767	23.824	904.305	728.308
224.782	24.077	903.852	728.911
225.796	24.096	903.217	728.412
226.811	23.521	901.863	724.907
227.826	22.854	900.544	721.060
228.840	23.009	899.891	721.106
229.855	23.200	899.242	721.303
230.869	22.772	898.097	718.575
231.884	23.002	898.402	719.692
232.899	23.741	898.691	722.870
233.913	23.641	898.178	721.987
234.928	23.655	897.656	721.560
235.942	23.671	896.956	720.997
236.957	23.373	896.031	718.983
237.972	23.399	895.207	718.363
238.986	23.378	894.986	718.035
240.001	23.434	894.043	717.444
241.015	23.664	893.276	717.696
242.030	23.835	892.949	718.058
243.045	23.879	892.551	717.851
244.059	24.010	892.412	718.205
245.074	23.832	891.422	716.629
246.088	23.427	890.138	713.901
247.103	23.618	889.983	714.486
248.117	24.251	890.016	716.994
249.132	24.532	889.853	717.931
250.147	24.637	888.902	717.521
251.161	24.709	888.643	717.536
252.176	24.671	887.838	716.672
253.190	24.698	887.592	716.518
254.205	24.808	887.144	716.534
255.220	24.745	886.505	715.701
256.234	24.764	885.341	714.772
257.249	24.605	884.908	713.727
258.263	24.700	883.970	713.285
259.278	24.827	883.447	713.306
260.293	24.837	882.707	712.686
261.307	24.722	882.254	711.798
262.322	24.419	881.537	709.950
263.336	23.776	879.333	705.561
264.351	22.816	877.594	700.299
265.366	22.738	877.348	699.731
266.380	23.807	878.300	704.669
267.395	24.238	877.772	705.889
268.409	24.235	877.135	705.305
269.424	24.499	876.489	705.766
270.439	24.513	876.155	705.491
271.453	24.563	875.190	704.847
272.468	24.772	875.393	705.775
273.482	24.826	874.490	705.195
274.497	24.362	873.421	702.444
275.512	24.062	872.628	700.566
276.526	24.334	872.813	701.722
277.541	24.706	871.786	702.296
278.555	24.398	871.175	700.532
279.570	24.100	870.817	699.013
280.585	24.333	870.044	699.242
281.599	24.392	869.139	698.685
282.614	23.789	867.740	695.141
283.628	23.759	867.555	694.815
284.643	24.015	867.409	695.636
285.657	23.855	866.042	693.853
286.672	23.407	865.199	691.370
287.687	24.031	865.060	693.630
288.701	24.097	864.740	693.570
289.716	23.783	863.871	691.589
290.730	23.854	862.987	691.096
291.745	23.628	861.845	689.242
292.760	23.826	862.225	690.254
293.774	24.847	862.660	694.507
294.789	25.190	862.070	695.302
295.803	25.137	861.347	694.450
296.818	25.110	860.799	693.843
297.833	24.612	859.688	690.959
298.847	24.482	859.180	689.988
299.862	24.912	858.847	691.320
300.876	25.167	858.640	692.078
301.891	24.894	857.934	690.395
302.906	24.614	857.119	688.597
303.920	24.779	856.544	688.711
304.935	25.018	856.268	689.347
305.949	24.911	855.692	688.413
306.964	24.762	855.046	687.258
307.979	24.817	854.535	686.999
308.993	25.079	854.515	687.926
310.008	25.149	854.082	687.787
311.022	24.785	853.083	685.525
312.037	24.878	851.926	684.890
313.052	24.563	851.242	683.078
314.066	23.754	849.614	678.623
315.081	23.265	849.102	676.286
316.095	24.103	849.761	679.950
317.110	24.667	849.322	681.689
318.125	24.081	847.350	677.817
319.139	23.023	846.082	672.719
320.154	22.838	845.959	671.858
321.168	23.778	846.032	675.433
322.183	24.392	846.390	677.990
323.197	24.700	845.949	678.747
324.212	24.678	846.070	678.701
325.227	24.780	845.216	678.345
326.241	24.691	844.489	677.364
327.256	24.555	844.008	676.400
328.270	24.513	843.202	675.536
329.285	24.401	841.958	674.060
330.300	24.231	841.449	672.950
331.314	24.351	841.146	673.100
332.329	24.843	840.879	674.682
333.343	24.968	840.618	674.884
334.358	24.936	839.948	674.165
335.373	24.969	840.025	674.292
336.387	25.244	839.927	675.189
337.402	25.229	840.198	675.291
338.416	25.138	839.484	674.313
339.431	25.513	838.883	675.180
340.446	25.594	838.637	675.229
341.460	25.435	838.004	674.063
342.475	25.222	837.227	672.580
343.489	25.198	837.001	672.250
344.504	25.656	836.506	673.507
345.519	25.695	836.782	673.816
346.533	25.794	835.993	673.487
347.548	25.754	835.668	673.020
348.562	25.710	835.278	672.479
349.577	25.661	834.509	671.619
350.592	25.550	833.753	670.538
351.606	25.565	832.992	669.920
352.621	25.525	831.950	668.877
353.635	25.487	831.407	668.239
354.650	24.817	829.730	664.345
355.665	23.820	828.428	659.545
356.679	24.247	828.110	660.819
357.694	24.715	827.871	662.301
358.708	24.661	827.146	661.464
359.723	25.027	827.408	662.969
360.738	25.216	827.243	663.478
361.752	25.472	826.856	664.054
362.767	25.707	826.135	664.285
363.781	25.948	825.876	664.908
364.796	25.954	825.655	664.690
365.810	25.952	825.113	664.190
366.825	25.996	824.656	663.925
367.840	25.786	823.819	662.418
368.854	25.231	822.859	659.550
369.869	25.408	822.541	659.885
370.883	25.380	822.466	659.665
371.898	25.409	821.601	659.018
372.913	25.345	821.722	658.824
373.927	25.540	820.948	658.859
374.942	25.705	820.780	659.270
375.956	25.856	820.000	659.139
376.971	25.870	819.734	658.918
377.986	25.997	819.534	659.163
379.000	26.107	818.694	658.828
380.015	25.791	818.236	657.250
381.029	25.925	817.798	657.328
382.044	25.972	817.475	657.183
383.059	26.020	816.531	656.539
384.073	26.091	816.183	656.458
385.088	26.058	815.316	655.583
386.102	25.780	815.002	654.265
387.117	25.803	813.957	653.451
388.132	25.283	813.184	650.888
389.146	24.882	812.115	648.520
390.161	25.342	812.163	650.168
391.175	25.593	812.043	650.924
392.190	25.465	810.759	649.376
393.205	24.220	808.803	643.261
394.219	22.674	807.187	636.344
395.234	22.589	806.724	635.616
396.248	23.962	808.301	641.761
397.263	25.599	808.852	648.043
398.278	25.603	808.859	648.004
399.292	25.422	807.843	646.482
400.307	25.490	807.196	646.152
401.321	25.506	807.155	646.120
402.336	25.803	807.104	647.089
403.350	26.015	807.445	648.069
404.365	26.615	806.720	649.581
405.380	26.715	806.485	649.693
406.394	26.880	805.826	649.696
407.409	26.802	805.247	648.893
408.423	26.569	805.145	647.920
409.438	26.946	804.649	648.810
410.453	26.794	804.073	647.745
411.467	26.719	803.731	647.144
412.482	26.713	803.264	646.691
413.496	26.870	802.873	646.878
414.511	26.724	802.679	646.145
415.526	26.760	801.898	645.586
416.540	26.597	801.460	644.599
417.555	26.357	800.658	643.040
418.569	26.492	800.238	643.126
419.584	26.270	800.196	642.248
420.599	26.103	799.457	641.004
421.613	83.845	1239.770	1299.710
422.628	71.381	1303.964	1299.853
