DTS Sentinel unit serial number:	SN413079Multiplexer serial number:	ORYXHardware model number:	OX4-SRSoftware version number:	ORYX F/W v4.00 Oryx Data Collector v3.7.2.0data status	okinstallation	princeton_trtdifferential loss correction	single-endedforward channel	channel 1reverse channel	N/Adate	2019/09/11time	07:48:11forward acquisition time	60.00reverse acquisition time	0.00gamma	496.2192k internal	0.2323k external	0.2323temperature offset calibration	0.9914default loss term (dB/km)	0.3790temperature slope calibration	1.0000multiplexer offset coefficient	1.0000multiplexer slope coefficient	1.0000fibre end	0.00T internal ref (°C)	31.69T ext. ref 1 (°C)	0.09T ext. ref 2 (°C)	28.32length (m)	temperature (°C)	Stokes	anti-Stokes-747.200	-200.000	0.021	0.493
-746.185	56.627	0.163	-0.160
-745.171	-4.371	-0.239	-0.167
-744.156	669.149	-0.088	0.231
-743.142	-108.675	0.092	0.020
-742.127	94.616	0.091	0.105
-741.112	126.057	-0.026	0.033
-740.098	-90.569	-0.294	0.086
-739.083	800.000	0.082	-0.296
-738.069	75.688	-0.279	0.298
-737.054	697.382	-0.029	0.078
-736.039	15.590	-0.137	0.109
-735.025	-105.809	0.103	-0.023
-734.010	-79.609	0.238	0.081
-732.996	-15.525	-0.285	-0.184
-731.981	318.417	-0.153	-0.293
-730.966	-72.953	0.182	-0.068
-729.952	-157.772	-0.294	0.018
-728.937	-3.099	-0.200	-0.141
-727.923	115.019	0.091	0.113
-726.908	-66.307	-0.296	0.119
-725.894	-200.000	-0.000	-0.104
-724.879	-200.000	0.016	-0.085
-723.864	-117.730	0.263	0.048
-722.850	64.243	0.080	-0.081
-721.835	138.419	-0.123	-0.163
-720.821	622.010	-0.129	-0.329
-719.806	-132.743	0.051	-0.007
-718.791	-200.000	-0.033	-0.280
-717.777	-3.398	0.189	-0.133
-716.762	367.417	-0.097	0.198
-715.748	-27.218	0.269	-0.158
-714.733	-157.248	0.204	-0.012
-713.718	-124.075	0.561	-0.089
-712.704	-11.844	-0.266	0.176
-711.689	25.801	-0.159	0.133
-710.675	-99.220	-0.179	-0.046
-709.660	-54.431	0.035	-0.016
-708.645	51.382	0.301	0.288
-707.631	-80.385	0.281	-0.095
-706.616	30.466	0.161	-0.139
-705.602	-73.488	0.337	-0.124
-704.587	-104.094	0.175	-0.041
-703.572	625.272	0.114	-0.289
-702.558	-200.000	-0.053	-0.273
-701.543	-200.000	-0.034	0.160
-700.529	-200.000	0.058	0.400
-699.514	11.553	-0.176	-0.136
-698.499	-87.653	0.205	0.062
-697.485	-166.582	-0.365	-0.015
-696.470	-114.958	0.334	-0.064
-695.456	-4.615	0.133	-0.092
-694.441	191.956	-0.116	0.176
-693.426	30.108	-0.045	0.039
-692.412	-74.207	0.184	0.067
-691.397	-54.553	0.147	-0.067
-690.383	-86.050	0.247	-0.077
-689.368	167.299	0.148	-0.212
-688.354	-84.840	-0.105	0.033
-687.339	32.326	-0.196	-0.171
-686.324	516.930	-0.133	-0.315
-685.310	118.570	0.112	-0.139
-684.295	6.800	0.139	-0.104
-683.281	-18.010	-0.185	0.117
-682.266	-167.792	-0.333	0.013
-681.251	143.373	0.076	0.103
-680.237	-200.000	0.020	-0.179
-679.222	800.000	-0.046	-0.147
-678.208	-119.696	0.352	-0.061
-677.193	704.742	-0.179	0.475
-676.178	73.072	0.106	-0.111
-675.164	-200.000	-0.004	-0.071
-674.149	-200.000	0.010	0.126
-673.135	-19.459	0.288	-0.180
-672.120	800.000	0.076	0.268
-671.105	-18.410	0.116	-0.073
-670.091	-127.177	0.328	-0.048
-669.076	-92.253	0.130	-0.037
-668.062	-64.176	-0.146	0.060
-667.047	-119.515	0.265	-0.046
-666.032	578.936	0.035	0.087
-665.018	800.000	0.087	-0.282
-664.003	-200.000	-0.010	0.319
-662.989	-200.000	0.043	-0.274
-661.974	36.307	0.076	-0.067
-660.959	-53.519	-0.248	0.114
-659.945	585.256	0.108	0.267
-658.930	800.000	0.044	0.175
-657.916	-147.777	0.054	-0.005
-656.901	37.705	-0.064	-0.057
-655.886	311.030	-0.077	-0.144
-654.872	78.108	-0.079	-0.085
-653.857	-67.835	-0.203	-0.080
-652.843	-105.826	-0.116	-0.026
-651.828	-74.248	-0.248	-0.090
-650.814	-200.000	0.044	-0.279
-649.799	-153.066	-0.170	0.012
-648.784	-33.089	-0.024	0.013
-647.770	-200.000	0.029	0.322
-646.755	-200.000	0.008	0.148
-645.741	525.260	0.116	0.276
-644.726	81.390	0.048	-0.052
-643.711	146.421	0.030	-0.040
-642.697	-93.898	0.259	0.072
-641.682	25.510	0.081	0.068
-640.668	35.149	-0.151	0.133
-639.653	92.339	-0.164	-0.186
-638.638	419.530	-0.060	-0.130
-637.624	-144.323	0.216	0.020
-636.609	-110.741	-0.399	-0.083
-635.595	-200.000	-0.002	0.012
-634.580	-79.210	0.160	0.055
-633.565	-200.000	0.058	-0.361
-632.551	-200.000	0.013	-0.125
-631.536	495.817	0.100	-0.232
-630.522	265.898	-0.155	-0.272
-629.507	-19.166	0.281	-0.175
-628.492	-21.032	-0.114	0.070
-627.478	-200.000	-0.035	0.293
-626.463	-129.265	-0.145	-0.020
-625.449	40.899	-0.382	0.347
-624.434	572.393	-0.058	0.143
-623.419	40.043	-0.247	0.223
-622.405	102.692	-0.254	0.299
-621.390	-200.000	-0.004	0.149
-620.376	-200.000	-0.083	0.372
-619.361	-112.382	-0.243	0.049
-618.346	-115.762	-0.240	0.045
-617.332	-88.308	0.201	0.060
-616.317	208.962	-0.144	0.227
-615.303	-90.607	0.318	-0.092
-614.288	90.679	0.028	0.032
-613.273	98.535	0.216	0.250
-612.259	800.000	-0.006	0.025
-611.244	161.499	-0.032	0.045
-610.230	800.000	-0.080	0.261
-609.215	-200.000	-0.069	0.329
-608.201	-57.326	-0.124	0.055
-607.186	326.200	0.078	0.151
-606.171	800.000	0.052	-0.228
-605.157	430.827	0.141	0.307
-604.142	-98.269	-0.042	0.011
-603.128	-55.274	-0.148	-0.067
-602.113	-53.867	0.056	-0.025
-601.098	630.240	0.101	-0.256
-600.084	23.433	0.174	-0.144
-599.069	152.261	-0.101	0.139
-598.055	-100.183	0.344	-0.086
-597.040	-44.626	0.175	0.088
-596.025	286.646	0.196	-0.355
-595.011	-200.000	-0.034	-0.398
-593.996	-200.000	-0.014	-0.238
-592.982	500.198	0.178	-0.413
-591.967	121.685	-0.186	-0.233
-590.952	-200.000	0.024	-0.120
-589.938	27.809	-0.210	-0.178
-588.923	300.056	-0.140	-0.259
-587.909	81.909	-0.170	-0.185
-586.894	-19.276	-0.154	-0.096
-585.879	5.750	0.160	-0.118
-584.865	800.000	-0.036	-0.135
-583.850	-49.302	-0.191	-0.092
-582.836	-52.612	0.572	0.265
-581.821	447.440	0.064	0.141
-580.806	800.000	-0.008	0.035
-579.792	-200.000	-0.039	0.264
-578.777	-141.141	-0.237	-0.024
-577.763	16.125	0.144	-0.114
-576.748	52.361	-0.035	-0.033
-575.733	-87.582	-0.249	-0.075
-574.719	-200.000	0.020	0.206
-573.704	-52.976	0.177	-0.082
-572.690	-116.887	0.090	0.017
-571.675	-110.991	-0.198	0.041
-570.661	-105.110	0.228	-0.052
-569.646	-200.000	0.024	-0.348
-568.631	290.882	0.042	0.077
-567.617	-20.189	0.250	-0.155
-566.602	197.160	0.189	-0.290
-565.588	-88.345	-0.277	0.083
-564.573	-45.627	0.100	0.049
-563.558	370.501	0.110	-0.223
-562.544	-48.274	0.282	0.137
-561.529	522.977	-0.190	-0.448
-560.515	-200.000	-0.041	-0.632
-559.500	57.080	-0.076	0.074
-558.485	-128.462	-0.246	-0.035
-557.471	800.000	-0.049	-0.200
-556.456	354.463	0.113	-0.225
-555.442	-19.870	-0.178	0.110
-554.427	-200.000	0.025	0.142
-553.412	800.000	0.093	-0.311
-552.398	-200.000	-0.014	0.078
-551.383	49.691	-0.034	-0.032
-550.369	-132.575	-0.564	0.073
-549.354	800.000	-0.027	-0.081
-548.339	-200.000	0.017	0.218
-547.325	-58.838	0.270	-0.117
-546.310	134.213	0.081	0.106
-545.296	-200.000	-0.004	-0.304
-544.281	58.758	-0.074	0.073
-543.266	179.709	-0.131	0.192
-542.252	44.915	-0.121	-0.111
-541.237	-13.596	-0.185	0.120
-540.223	800.000	-0.046	-0.134
-539.208	69.490	0.243	0.250
-538.193	-55.743	-0.181	-0.081
-537.179	387.934	-0.159	0.330
-536.164	144.981	-0.033	0.044
-535.150	36.497	-0.152	0.134
-534.135	-200.000	-0.016	-0.106
-533.121	21.084	0.175	-0.142
-532.106	-139.714	0.088	-0.009
-531.091	123.776	-0.137	0.172
-530.077	-42.605	0.245	0.125
-529.062	108.903	-0.146	0.175
-528.048	-118.484	-0.263	0.047
-527.033	-200.000	0.068	-0.375
-526.018	102.706	-0.232	-0.272
-525.004	-29.849	-0.140	0.080
-523.989	31.020	-0.098	0.084
-522.975	-7.063	-0.192	-0.131
-521.960	-134.290	0.199	-0.024
-520.945	800.000	-0.012	-0.037
-519.931	-89.569	0.300	-0.088
-518.916	68.686	-0.050	-0.051
-517.902	800.000	0.057	-0.231
-516.887	-109.681	-0.152	-0.032
-515.872	800.000	-0.005	0.015
-514.858	10.371	-0.184	0.140
-513.843	-168.703	0.193	0.007
-512.829	-56.635	0.157	-0.069
-511.814	-7.106	0.063	0.043
-510.799	14.647	-0.172	-0.134
-509.785	-47.788	0.305	-0.148
-508.770	-56.424	0.099	0.044
-507.756	-153.163	0.157	0.011
-506.741	134.317	-0.102	0.132
-505.726	301.672	-0.093	-0.173
-504.712	800.000	0.047	0.145
-503.697	-200.000	-0.010	-0.382
-502.683	-67.608	-0.116	-0.045
-501.668	800.000	0.057	-0.237
-500.653	223.956	0.171	0.277
-499.639	-174.904	0.079	-0.002
-498.624	500.395	-0.082	0.189
-497.610	0.257	0.362	-0.259
-496.595	518.573	0.028	-0.066
-495.581	-86.591	0.244	-0.075
-494.566	50.594	-0.105	-0.099
-493.551	800.000	-0.016	0.048
-492.537	718.774	0.078	0.206
-491.522	-33.370	0.194	0.107
-490.508	-13.358	-0.205	0.133
-489.493	800.000	0.030	-0.092
-488.478	752.613	0.129	-0.349
-487.464	800.000	-0.081	0.275
-486.449	-34.767	0.209	-0.114
-485.435	-124.642	0.337	0.052
-484.420	-112.317	0.183	0.037
-483.405	-25.861	-0.094	-0.056
-482.391	173.528	0.163	-0.235
-481.376	800.000	-0.074	-0.305
-480.362	256.605	-0.012	-0.021
-479.347	-200.000	-0.005	-0.091
-478.332	-70.200	0.131	-0.050
-477.318	212.582	-0.159	-0.251
-476.303	132.764	-0.143	-0.184
-475.289	-147.690	0.157	-0.013
-474.274	-138.144	-0.284	-0.032
-473.259	-39.302	0.130	0.068
-472.245	74.127	-0.096	0.101
-471.230	178.265	-0.141	-0.206
-470.216	-48.477	0.221	0.106
-469.201	262.197	-0.091	-0.158
-468.186	-200.000	0.003	0.236
-467.172	-121.700	0.191	0.032
-466.157	79.455	0.139	-0.149
-465.143	47.645	0.204	-0.190
-464.128	-200.000	0.146	0.000
-463.113	-123.001	-0.118	-0.019
-462.099	-103.814	-0.066	0.015
-461.084	-82.074	-0.077	0.025
-460.070	-40.510	-0.210	-0.109
-459.055	-149.806	-0.464	-0.036
-458.040	231.495	-0.074	-0.122
-457.026	800.000	0.081	-0.257
-456.011	0.630	0.156	-0.112
-454.997	-171.051	-0.176	0.006
-453.982	-145.007	-0.165	-0.015
-452.968	212.119	-0.094	-0.148
-451.953	-200.000	0.008	-0.060
-450.938	-18.473	0.195	0.122
-449.924	160.805	-0.031	-0.044
-448.909	18.508	-0.134	0.107
-447.895	204.416	-0.122	0.189
-446.880	-42.627	-0.125	-0.064
-445.865	-24.717	-0.276	-0.164
-444.851	-200.000	-0.046	0.318
-443.836	-72.845	-0.099	-0.036
-442.822	-28.353	0.198	-0.114
-441.807	-200.000	-0.016	-0.319
-440.792	304.106	0.141	0.262
-439.778	90.917	0.148	0.166
-438.763	-45.196	-0.219	-0.109
-437.749	-200.000	0.016	0.203
-436.734	56.215	-0.121	-0.117
-435.719	-200.000	-0.028	0.150
-434.705	28.916	0.292	0.247
-433.690	19.447	0.041	0.033
-432.676	-200.000	0.036	0.187
-431.661	-39.786	-0.320	-0.167
-430.646	-8.173	-0.213	0.143
-429.632	-43.445	-0.284	0.143
-428.617	240.880	-0.206	0.343
-427.603	-92.326	0.076	0.021
-426.588	-88.499	-0.213	-0.063
-425.573	139.748	0.116	-0.153
-424.559	-200.000	0.002	-0.233
-423.544	-155.091	0.246	-0.016
-422.530	-200.000	-0.018	-0.139
-421.515	-47.861	-0.111	-0.054
-420.500	528.866	0.087	-0.204
-419.486	-151.858	0.120	-0.009
-418.471	219.774	-0.295	0.471
-417.457	177.846	0.116	-0.168
-416.442	800.000	0.065	0.203
-415.428	800.000	0.066	0.248
-414.413	25.246	0.168	0.139
-413.398	422.733	0.145	0.310
-412.384	800.000	-0.051	0.212
-411.369	284.641	-0.053	0.095
-410.355	-64.117	0.049	0.020
-409.340	-174.215	0.596	-0.017
-408.325	-93.873	-0.443	-0.121
-407.311	489.711	-0.056	0.127
-406.296	430.402	-0.121	0.262
-405.282	-79.781	0.118	0.039
-404.267	-113.558	-0.184	-0.036
-403.252	-101.998	-0.424	-0.102
-402.238	-155.139	-0.125	-0.008
-401.223	1.914	-0.185	-0.133
-400.209	-96.116	-0.294	0.078
-399.194	-10.147	-0.237	-0.157
-398.179	-67.633	-0.306	0.119
-397.165	160.138	-0.170	0.236
-396.150	-200.000	0.091	0.000
-395.136	-156.512	-0.223	-0.014
-394.121	-200.000	0.013	0.137
-393.106	-160.180	-0.189	0.010
-392.092	-79.839	0.176	-0.059
-391.077	-96.958	0.417	-0.109
-390.063	2.505	-0.209	-0.151
-389.048	800.000	-0.037	-0.130
-388.033	-200.000	0.016	-0.071
-387.019	466.077	-0.056	-0.124
-386.004	-52.070	-0.167	0.077
-384.990	161.762	0.085	0.118
-383.975	-82.936	0.127	0.041
-382.960	-69.980	-0.175	0.067
-381.946	296.379	-0.014	-0.026
-380.931	-46.942	-0.279	-0.136
-379.917	-200.000	0.007	-0.158
-378.902	-200.000	0.038	-0.222
-377.888	-200.000	0.020	0.197
-376.873	-27.142	0.114	0.066
-375.858	800.000	-0.180	-0.503
-374.844	291.655	-0.032	-0.058
-373.829	37.364	-0.130	0.114
-372.815	-14.660	-0.113	0.073
-371.800	-22.114	0.274	0.166
-370.785	-200.000	-0.009	-0.092
-369.771	272.030	-0.142	-0.249
-368.756	-200.000	-0.010	-0.106
-367.742	-84.136	0.339	0.107
-366.727	251.951	0.107	0.182
-365.712	198.541	-0.176	-0.268
-364.698	180.683	0.077	0.113
-363.683	-200.000	-0.083	0.375
-362.669	-118.068	0.469	-0.083
-361.654	-200.000	-0.004	0.293
-360.639	74.516	0.330	0.346
-359.625	406.770	0.171	0.359
-358.610	755.492	0.062	0.166
-357.596	-25.969	0.140	0.082
-356.581	285.500	0.029	-0.051
-355.566	245.462	0.074	-0.123
-354.552	-173.141	-0.096	0.003
-353.537	800.000	0.047	0.188
-352.523	-73.508	0.259	0.094
-351.508	-200.000	0.014	-0.230
-350.493	-83.814	-0.197	0.062
-349.479	-200.000	0.004	-0.032
-348.464	-120.919	0.203	-0.034
-347.450	-165.291	0.295	-0.013
-346.435	800.000	-0.075	-0.214
-345.420	-96.073	0.176	-0.047
-344.406	-30.682	0.108	0.061
-343.391	304.718	-0.056	-0.103
-342.377	186.139	-0.164	0.243
-341.362	800.000	-0.148	-0.504
-340.348	-150.011	-0.071	-0.006
-339.333	24.637	0.229	0.189
-338.318	50.238	0.144	0.136
-337.304	-200.000	0.012	0.140
-336.289	-117.163	0.374	0.068
-335.275	164.367	-0.102	-0.143
-334.260	-200.000	-0.014	0.338
-333.245	113.001	0.051	0.062
-332.231	75.128	-0.208	0.218
-331.216	86.333	0.164	0.179
-330.202	-59.424	-0.199	0.085
-329.187	33.717	0.355	0.307
-328.172	10.453	-0.215	-0.163
-327.158	-86.548	-0.285	0.087
-326.143	-200.000	-0.038	0.172
-325.129	800.000	-0.026	0.098
-324.114	800.000	0.035	0.135
-323.099	-96.319	0.205	0.054
-322.085	-14.365	0.165	0.106
-321.070	800.000	0.020	-0.057
-320.056	-181.531	-0.190	0.004
-319.041	-200.000	-0.012	-0.067
-318.026	-66.731	0.300	-0.118
-317.012	800.000	0.018	0.054
-315.997	384.126	-0.157	-0.321
-314.983	-47.608	-0.121	-0.058
-313.968	220.526	0.111	0.177
-312.953	-200.000	0.018	0.184
-311.939	-141.421	-0.278	-0.028
-310.924	1.692	0.156	0.111
-309.910	-200.000	-0.053	-0.388
-308.895	355.193	-0.172	-0.340
-307.880	800.000	0.111	0.341
-306.866	71.651	-0.118	-0.121
-305.851	-96.584	0.396	0.104
-304.837	-102.410	-0.154	0.037
-303.822	583.051	0.107	-0.261
-302.807	-77.262	0.353	0.122
-301.793	-200.000	0.020	-0.353
-300.778	280.875	0.074	0.131
-299.764	-200.000	0.024	0.372
-298.749	-121.017	-0.281	0.047
-297.735	28.267	-0.120	-0.101
-296.720	141.139	-0.260	0.341
-295.705	800.000	-0.087	0.330
-294.691	147.604	-0.123	0.164
-293.676	76.867	0.040	-0.042
-292.662	-117.581	0.187	0.033
-291.647	264.029	-0.138	-0.239
-290.632	575.452	0.029	-0.071
-289.618	-35.628	0.053	0.029
-288.603	510.332	0.064	-0.147
-287.589	10.862	0.342	0.259
-286.574	119.845	-0.129	0.159
-285.559	-156.235	-0.145	0.009
-284.545	482.739	-0.140	-0.315
-283.530	-1.553	0.031	0.021
-282.516	-200.000	0.018	-0.159
-281.501	-35.896	-0.072	0.038
-280.486	215.527	-0.125	-0.197
-279.472	-38.786	-0.143	-0.075
-278.457	800.000	0.097	0.329
-277.443	-200.000	-0.042	0.283
-276.428	-200.000	-0.006	-0.114
-275.413	-71.154	-0.127	-0.047
-274.399	-200.000	-0.010	-0.087
-273.384	-130.877	-0.171	0.023
-272.370	175.058	0.125	0.179
-271.355	190.408	0.088	-0.132
-270.340	-200.000	0.064	-0.314
-269.326	119.737	0.064	-0.078
-268.311	800.000	0.055	-0.196
-267.297	24.774	-0.245	-0.201
-266.282	-76.559	0.286	0.100
-265.267	800.000	-0.115	-0.442
-264.253	98.823	-0.163	-0.186
-263.238	-194.415	-0.219	0.002
-262.224	-147.510	0.504	0.042
-261.209	-62.374	0.143	0.059
-260.195	5.014	0.095	-0.069
-259.180	-95.263	0.207	-0.055
-258.165	-57.630	-0.287	-0.125
-257.151	-124.557	0.137	-0.021
-256.136	-200.000	-0.007	0.403
-255.122	150.719	-0.015	0.021
-254.107	-110.585	0.209	-0.043
-253.092	-124.113	-0.194	0.030
-252.078	800.000	0.029	-0.101
-251.063	-200.000	-0.007	-0.209
-250.049	88.049	-0.039	-0.043
-249.034	-200.000	-0.059	0.541
-248.019	-76.374	-0.472	-0.164
-247.005	-200.000	-0.021	0.230
-245.990	-138.116	-0.187	-0.021
-244.976	-136.921	0.213	0.024
-243.961	-76.910	0.247	0.086
-242.946	-200.000	0.006	0.294
-241.932	10.347	0.018	0.014
-240.917	97.487	0.235	-0.267
-239.903	-194.935	-0.120	0.001
-238.888	-200.000	0.015	0.082
-237.873	138.869	0.081	0.105
-236.859	-52.640	-0.166	0.076
-235.844	-200.000	-0.010	0.171
-234.830	328.553	-0.072	-0.138
-233.815	73.643	-0.165	0.171
-232.800	-111.161	-0.094	0.019
-231.786	249.075	-0.175	-0.294
-230.771	211.603	-0.115	0.179
-229.757	-163.625	0.257	-0.012
-228.742	430.779	0.215	0.462
-227.727	-126.086	-0.352	0.052
-226.713	-87.119	0.321	0.097
-225.698	628.895	0.100	-0.250
-224.684	92.406	-0.315	-0.352
-223.669	-24.600	-0.199	-0.117
-222.655	90.008	0.085	0.094
-221.640	-200.000	-0.017	0.116
-220.625	423.691	-0.092	-0.197
-219.611	-200.000	-0.005	0.071
-218.596	4.219	0.156	-0.113
-217.582	-61.116	-0.056	0.023
-216.567	47.464	-0.172	-0.158
-215.552	773.792	-0.112	-0.301
-214.538	-133.915	0.177	-0.022
-213.523	-189.080	-0.115	0.001
-212.509	800.000	0.033	-0.131
-211.494	8.535	0.333	0.248
-210.479	193.974	-0.149	-0.224
-209.465	-51.745	-0.353	-0.163
-208.450	-149.344	0.234	-0.018
-207.436	354.805	-0.148	0.291
-206.421	-200.000	-0.005	0.063
-205.406	113.192	0.183	0.220
-204.392	20.733	0.222	0.177
-203.377	800.000	0.030	-0.124
-202.363	800.000	0.060	-0.206
-201.348	-78.757	0.053	-0.018
-200.333	241.772	-0.076	-0.126
-199.319	-1.429	0.107	0.075
-198.304	-157.754	-0.242	0.014
-197.290	-104.602	-0.202	0.046
-196.275	-200.000	-0.035	0.162
-195.260	111.395	0.158	-0.189
-194.246	282.642	-0.135	0.240
-193.231	-38.408	-0.270	-0.141
-192.217	51.827	0.158	0.149
-191.202	-19.178	0.212	-0.130
-190.187	4.746	-0.283	-0.206
-189.173	-79.719	-0.175	-0.058
-188.158	-13.322	0.162	0.104
-187.144	-77.964	0.162	0.055
-186.129	-115.877	0.217	-0.040
-185.114	-200.000	0.025	0.268
-184.100	24.972	0.183	-0.150
-183.085	-62.556	0.092	-0.038
-182.071	-105.598	0.087	-0.019
-181.056	-200.000	0.002	-0.026
-180.042	264.244	0.274	0.472
-179.027	82.421	0.108	-0.116
-178.012	-200.000	-0.011	-0.291
-176.998	-65.681	-0.111	-0.044
-175.983	-123.799	0.451	0.070
-174.969	-77.754	-0.240	0.082
-173.954	25.699	-0.094	-0.077
-172.939	-200.000	-0.011	0.091
-171.925	26.644	0.211	0.175
-170.910	47.310	-0.133	0.122
-169.896	800.000	-0.035	0.110
-168.881	56.835	0.090	0.087
-167.866	21.565	0.145	0.116
-166.852	800.000	-0.072	0.273
-165.837	-200.000	0.000	-0.113
-164.823	-23.693	0.301	0.178
-163.808	-200.000	-0.018	-0.093
-162.793	800.000	-0.024	-0.098
-161.779	-108.975	0.151	0.032
-160.764	-43.446	-0.243	-0.121
-159.750	102.857	0.146	0.168
-158.735	-200.000	-0.004	0.051
-157.720	-87.929	0.133	-0.040
-156.706	-86.272	-0.230	-0.070
-155.691	-90.614	0.528	-0.151
-154.677	-194.447	0.115	0.001
-153.662	-143.714	0.201	0.019
-152.647	187.953	-0.029	0.043
-151.633	-200.000	-0.029	0.130
-150.618	-84.361	-0.267	0.083
-149.604	599.098	0.055	-0.134
-148.589	-13.734	0.365	-0.233
-147.574	-3.885	0.238	-0.163
-146.560	573.551	-0.029	-0.071
-145.545	100.901	0.131	0.150
-144.531	-39.228	-0.039	0.020
-143.516	97.522	0.069	0.078
-142.502	-79.706	-0.179	-0.059
-141.487	800.000	-0.106	-0.301
-140.472	-200.000	0.084	-0.528
-139.458	392.494	0.168	0.345
-138.443	425.777	-0.039	0.082
-137.429	-200.000	-0.014	-0.161
-136.414	800.000	-0.033	-0.100
-135.399	-36.506	0.319	-0.169
-134.385	720.611	-0.018	0.047
-133.370	12.988	-0.202	-0.154
-132.356	-44.305	-0.185	0.091
-131.341	115.090	0.167	-0.201
-130.326	800.000	0.019	0.061
-129.312	85.209	0.207	-0.224
-128.297	14.396	-0.170	0.131
-127.283	144.491	0.275	-0.362
-126.268	-0.932	-0.071	-0.050
-125.253	-74.131	0.028	0.010
-124.239	301.764	0.112	-0.205
-123.224	-14.216	-0.372	0.237
-122.210	53.923	0.175	0.166
-121.195	364.873	-0.156	0.309
-120.180	-57.754	-0.133	0.057
-119.166	639.780	0.157	-0.393
-118.151	46.423	0.103	-0.094
-117.137	558.972	0.072	-0.171
-116.122	-54.845	-0.179	-0.080
-115.107	433.543	0.166	-0.356
-114.093	800.000	-0.061	-0.250
-113.078	606.120	-0.097	-0.237
-112.064	-81.470	0.098	0.032
-111.049	-81.313	0.072	-0.024
-110.034	107.325	-0.151	0.177
-109.020	483.203	0.104	-0.233
-108.005	-200.000	-0.026	-0.159
-106.991	517.391	0.051	-0.118
-105.976	800.000	-0.052	0.157
-104.962	48.392	0.214	-0.197
-103.947	-54.265	0.243	0.109
-102.932	-100.722	-0.294	-0.071
-101.918	-51.620	0.064	0.029
-100.903	-24.399	-0.276	-0.162
-99.889	-56.693	0.403	0.176
-98.874	682.136	0.074	0.189
-97.859	-200.000	0.000	0.512
-96.845	251.065	-0.177	0.297
-95.830	-106.850	-0.128	0.028
-94.816	51.310	-0.126	0.118
-93.801	800.000	0.065	-0.214
-92.786	-200.000	0.024	0.145
-91.772	312.897	-0.092	0.171
-90.757	-165.745	0.246	-0.010
-89.743	-2.706	0.097	-0.067
-88.728	172.620	0.147	0.209
-87.713	154.053	-0.107	0.145
-86.699	800.000	-0.041	0.163
-85.684	-89.143	-0.102	0.030
-84.670	-200.000	0.035	-0.247
-83.655	-80.282	0.209	-0.069
-82.640	20.276	-0.034	-0.027
-81.626	-85.616	-0.282	0.086
-80.611	-200.000	0.004	-0.079
-79.597	-12.849	-0.140	0.090
-78.582	-87.877	0.248	-0.073
-77.567	-38.962	-0.199	0.103
-76.553	-98.162	0.199	0.050
-75.538	-0.961	0.071	0.050
-74.524	-200.000	0.014	0.500
-73.509	-3.852	-0.186	-0.127
-72.494	-9.099	0.395	0.260
-71.480	-200.000	-0.214	-0.001
-70.465	76.925	0.091	-0.095
-69.451	277.877	0.165	0.289
-68.436	-200.000	0.011	-0.170
-67.422	444.731	-0.150	0.324
-66.407	12.096	-0.175	-0.133
-65.392	-125.606	0.133	0.020
-64.378	-157.285	0.318	-0.019
-63.363	-106.764	0.102	-0.022
-62.349	-139.118	0.345	-0.037
-61.334	52.704	-1.006	-0.946
-60.319	48.313	0.338	0.311
-59.305	-200.000	-0.205	-0.960
-58.290	306.877	0.667	1.222
-57.276	800.000	0.490	1.458
-56.261	-200.000	100.723	632.186
-55.246	615.086	1446.453	3564.226
-54.232	181.835	2654.093	3841.744
-53.217	117.923	2179.438	2639.561
-52.203	43.864	1621.541	1460.031
-51.188	35.154	1356.247	1168.286
-50.173	31.920	1314.601	1113.212
-49.159	56.263	1363.961	1302.479
-48.144	57.867	1380.211	1327.600
-47.130	35.449	1336.663	1153.007
-46.115	31.896	1319.475	1117.016
-45.100	31.717	1314.303	1111.536
-44.086	31.631	1311.592	1108.685
-43.071	31.543	1309.278	1106.168
-42.057	31.572	1307.611	1104.885
-41.042	31.539	1305.982	1103.272
-40.027	31.564	1304.383	1102.026
-39.013	31.592	1302.544	1100.589
-37.998	31.652	1300.281	1098.988
-36.984	31.688	1298.776	1097.885
-35.969	31.734	1297.002	1096.610
-34.954	31.736	1295.404	1095.229
-33.940	31.673	1294.315	1093.895
-32.925	31.842	1292.421	1093.233
-31.911	31.744	1291.328	1091.700
-30.896	31.847	1289.574	1090.768
-29.881	31.834	1288.633	1089.858
-28.867	31.847	1287.156	1088.640
-27.852	31.934	1285.615	1087.797
-26.838	31.852	1283.810	1085.752
-25.823	31.726	1283.401	1084.634
-24.809	31.814	1281.287	1083.311
-23.794	31.746	1279.984	1081.774
-22.779	31.732	1278.791	1080.640
-21.765	31.935	1277.113	1080.353
-20.750	31.676	1276.602	1078.387
-19.736	31.685	1274.892	1076.948
-18.721	31.647	1273.790	1075.758
-17.706	31.620	1272.886	1074.798
-16.692	31.581	1271.516	1073.374
-15.677	31.703	1270.139	1072.870
-14.663	31.555	1269.573	1071.498
-13.648	31.511	1268.017	1069.891
-12.633	31.605	1266.793	1069.352
-11.619	31.590	1266.272	1068.784
-10.604	31.622	1265.127	1067.960
-9.590	31.643	1264.155	1067.213
-8.575	31.614	1263.476	1066.432
-7.560	31.532	1262.605	1065.190
-6.546	31.520	1261.650	1064.273
-5.531	31.559	1260.650	1063.612
-4.517	31.556	1259.667	1062.724
-3.502	31.619	1258.754	1062.266
-2.487	31.505	1258.262	1061.163
-1.473	31.666	1254.441	1058.809
-0.458	30.585	1240.103	1040.617
0.556	25.162	1221.956	1005.571
1.571	21.923	1228.286	992.404
2.586	21.186	1243.540	1000.416
3.600	20.532	1232.901	988.053
4.615	15.361	1160.383	902.117
5.629	5.802	1082.763	793.527
6.644	0.549	1060.649	751.162
7.659	0.047	1058.063	746.774
8.673	-0.168	1057.143	744.991
9.688	-0.046	1055.135	744.111
10.702	0.517	1054.263	746.217
11.717	6.883	1063.069	784.046
12.731	15.925	1076.688	839.269
13.746	20.193	1081.841	864.537
14.761	21.070	1082.399	869.280
15.775	21.016	1082.169	868.750
16.790	20.843	1080.845	866.749
17.804	20.768	1080.339	865.893
18.819	20.778	1080.112	865.684
19.834	20.930	1079.611	865.958
20.848	20.923	1079.629	865.861
21.863	20.958	1078.498	865.054
22.877	20.933	1078.111	864.543
23.892	20.765	1077.410	863.072
24.907	20.918	1076.794	863.259
25.921	20.966	1075.190	862.135
26.936	20.974	1073.711	860.913
27.950	20.883	1072.430	859.361
28.965	20.770	1070.276	857.003
29.980	20.798	1069.075	856.104
30.994	21.046	1068.276	856.604
32.009	20.972	1067.103	855.226
33.023	20.757	1065.646	852.926
34.038	20.906	1064.422	852.599
35.053	20.939	1064.107	852.437
36.067	20.982	1063.180	851.829
37.082	21.084	1062.676	851.845
38.096	21.283	1061.733	851.987
39.111	21.256	1061.529	851.616
40.126	21.189	1059.101	849.266
41.140	20.697	1057.733	845.705
42.155	20.579	1056.294	843.906
43.169	20.645	1055.042	843.149
44.184	20.603	1054.461	842.410
45.199	20.527	1053.388	841.109
46.213	20.759	1052.505	841.451
47.228	20.778	1051.466	840.639
48.242	20.690	1050.831	839.629
49.257	20.832	1050.013	839.589
50.271	21.019	1049.242	839.796
51.286	20.918	1048.963	839.013
52.301	20.991	1047.570	838.174
53.315	20.877	1046.891	837.010
54.330	20.920	1045.516	836.045
55.344	20.904	1044.727	835.262
56.359	20.826	1044.012	834.241
57.374	20.704	1043.255	832.979
58.388	20.690	1042.358	832.124
59.403	20.678	1041.447	831.264
60.417	20.456	1040.790	829.605
61.432	20.453	1040.312	829.141
62.447	20.735	1039.374	829.664
63.461	20.749	1038.854	829.240
64.476	20.779	1037.569	828.284
65.490	20.540	1037.042	826.655
66.505	20.697	1036.295	826.731
67.520	20.749	1035.708	826.436
68.534	20.439	1034.686	824.077
69.549	20.232	1033.076	821.741
70.563	20.251	1032.067	820.957
71.578	20.166	1031.281	819.855
72.593	20.182	1030.161	818.970
73.607	20.316	1030.235	819.589
74.622	20.480	1029.774	819.921
75.636	20.599	1028.930	819.738
76.651	20.421	1028.015	818.098
77.666	20.334	1026.699	816.570
78.680	20.406	1026.624	816.777
79.695	20.509	1025.464	816.266
80.709	20.532	1025.210	816.098
81.724	20.595	1024.272	815.577
82.739	20.780	1022.755	815.161
83.753	20.991	1022.998	816.269
84.768	21.117	1022.163	816.124
85.782	21.224	1021.341	815.892
86.797	21.080	1020.293	814.315
87.812	20.972	1019.369	812.997
88.826	21.148	1018.240	812.847
89.841	21.183	1017.614	812.438
90.855	21.225	1016.551	811.715
91.870	21.151	1015.843	810.730
92.884	20.924	1014.905	808.859
93.899	21.048	1013.425	808.181
94.914	21.160	1012.680	808.032
95.928	21.025	1011.474	806.375
96.943	20.818	1010.134	804.279
97.957	20.534	1008.889	801.909
98.972	20.455	1008.040	800.800
99.987	20.735	1007.625	801.689
101.001	20.857	1006.664	801.413
102.016	20.853	1006.029	800.819
103.030	20.793	1004.731	799.442
104.045	20.579	1004.021	797.821
105.060	20.549	1002.597	796.484
106.074	20.709	1002.427	797.009
107.089	21.082	1001.652	798.029
108.103	21.013	1000.294	796.562
109.118	20.747	999.198	794.404
110.133	20.739	998.451	793.703
111.147	20.605	997.123	791.968
112.162	20.475	995.778	790.240
113.176	20.594	995.677	790.628
114.191	20.518	994.749	789.476
115.206	20.167	993.675	786.964
116.220	20.259	992.799	786.615
117.235	20.318	992.063	786.233
118.249	20.470	990.763	785.820
119.264	20.392	989.723	784.574
120.279	20.244	989.165	783.393
121.293	20.419	988.504	783.587
122.308	20.526	987.373	783.106
123.322	20.428	985.882	781.411
124.337	20.299	984.691	779.818
125.352	19.767	982.957	775.992
126.366	19.795	981.864	775.182
127.381	20.483	981.889	778.217
128.395	20.872	981.748	779.778
129.410	20.956	980.613	779.183
130.424	20.985	979.306	778.204
131.439	20.859	978.749	777.131
132.454	20.845	977.851	776.290
133.468	20.873	976.726	775.451
134.483	20.924	976.351	775.310
135.497	21.206	974.992	775.416
136.512	21.068	974.709	774.512
137.527	21.072	973.688	773.648
138.541	21.110	973.047	773.238
139.556	21.085	972.195	772.384
140.570	21.303	971.388	772.636
141.585	21.363	970.065	771.780
142.600	21.071	969.479	769.957
143.614	21.369	968.570	770.483
144.629	21.393	967.971	770.044
145.643	21.387	966.942	769.131
146.658	21.108	965.258	766.498
147.673	21.094	964.410	765.693
148.687	21.015	963.350	764.441
149.702	20.879	962.594	763.175
150.716	20.828	961.749	762.214
151.731	20.945	961.489	762.452
152.746	21.242	960.292	762.734
153.760	21.280	959.544	762.239
154.775	21.384	958.624	761.893
155.789	21.316	958.191	761.187
156.804	21.225	957.007	759.782
157.819	21.394	956.507	760.051
158.833	21.429	955.738	759.525
159.848	21.462	954.774	758.837
160.862	21.279	953.783	757.187
161.877	21.236	952.853	756.198
162.892	21.403	951.386	755.686
163.906	21.271	950.583	754.411
164.921	21.385	949.413	753.910
165.935	21.388	949.010	753.536
166.950	21.322	948.059	752.432
167.964	21.379	946.946	751.724
168.979	21.104	945.908	749.652
169.994	21.037	945.219	748.752
171.008	21.416	944.490	749.734
172.023	21.500	943.443	749.199
173.037	21.019	942.967	746.695
174.052	20.964	941.537	745.260
175.067	21.177	940.834	745.546
176.081	21.156	940.518	745.142
177.096	21.082	939.777	744.174
178.110	20.770	938.969	742.139
179.125	20.683	937.977	740.916
180.140	20.838	937.602	741.217
181.154	20.938	937.357	741.381
182.169	21.203	937.110	742.247
183.183	21.416	936.261	742.415
184.198	21.270	935.553	741.168
185.213	21.188	934.607	740.005
186.227	21.301	934.314	740.184
187.242	21.386	933.541	739.866
188.256	21.435	932.627	739.283
189.271	21.364	932.471	738.796
190.286	21.034	931.130	736.274
191.300	20.310	929.973	732.242
192.315	19.722	928.170	728.279
193.329	19.720	928.227	728.254
194.344	20.765	927.448	731.972
195.359	21.130	928.008	733.885
196.373	21.108	927.652	733.447
197.388	21.256	926.642	733.202
198.402	21.170	926.278	732.492
199.417	21.118	925.689	731.740
200.432	20.922	924.261	729.729
201.446	20.752	923.808	728.595
202.461	20.728	923.218	727.964
203.475	19.971	921.150	723.108
204.490	19.271	919.907	719.150
205.504	20.163	920.606	723.353
206.519	20.955	920.378	726.411
207.534	20.897	920.331	726.070
208.548	21.348	919.713	727.394
209.563	21.129	918.515	725.473
210.577	21.177	917.655	724.929
211.592	21.433	917.878	726.106
212.607	21.232	917.243	724.705
213.621	21.407	916.508	724.785
214.636	21.389	915.770	724.060
215.650	21.191	915.331	722.834
216.665	21.508	914.318	723.277
217.680	21.400	913.290	721.956
218.694	20.928	912.008	718.932
219.709	20.750	911.444	717.689
220.723	21.192	910.932	719.043
221.738	21.223	910.336	718.638
222.753	21.137	909.925	717.897
223.767	21.250	909.418	717.896
224.782	21.430	909.185	718.388
225.796	21.419	908.661	717.864
226.811	20.818	906.893	713.942
227.826	20.251	906.157	710.979
228.840	20.431	905.264	710.949
229.855	20.480	904.715	710.657
230.869	20.095	903.925	708.399
231.884	20.571	903.638	710.055
232.899	21.086	903.945	712.340
233.913	21.236	902.632	711.850
234.928	21.062	901.979	710.564
235.942	20.986	901.801	710.052
236.957	20.909	900.619	708.745
237.972	20.835	900.282	708.116
238.986	20.720	899.831	707.233
240.001	20.972	899.153	707.661
241.015	21.232	898.270	707.957
242.030	21.142	898.065	707.367
243.045	21.267	897.553	707.407
244.059	21.333	897.069	707.230
245.074	21.156	895.735	705.402
246.088	20.896	895.023	703.728
247.103	21.008	895.102	704.178
248.117	21.685	894.703	706.534
249.132	21.734	894.224	706.291
250.147	21.828	893.776	706.256
251.161	22.024	893.319	706.619
252.176	21.951	892.443	705.570
253.190	22.097	892.130	705.849
254.205	22.174	891.885	705.903
255.220	22.253	891.070	705.510
256.234	22.066	890.173	703.987
257.249	21.926	889.623	702.930
258.263	22.031	888.995	702.791
259.278	22.175	887.973	702.495
260.293	22.132	887.550	701.927
261.307	22.046	886.655	700.816
262.322	21.708	886.183	699.030
263.336	20.906	884.059	694.100
264.351	20.068	881.878	688.996
265.366	20.158	881.857	689.278
266.380	21.348	882.526	694.470
267.395	21.715	882.426	695.787
268.409	21.727	881.095	694.723
269.424	21.844	880.999	695.053
270.439	21.886	880.208	694.532
271.453	21.972	879.848	694.528
272.468	21.993	879.776	694.492
273.482	22.181	878.756	694.370
274.497	21.714	877.881	691.771
275.512	21.316	876.783	689.274
276.526	21.705	877.327	691.179
277.541	21.958	876.545	691.497
278.555	21.513	875.908	689.183
279.570	21.452	874.910	688.094
280.585	21.774	874.461	688.948
281.599	21.792	872.891	687.720
282.614	21.039	872.071	684.060
283.628	21.279	871.519	684.509
284.643	21.410	871.464	684.915
285.657	21.205	870.178	683.046
286.672	20.696	869.851	680.737
287.687	21.360	869.359	682.885
288.701	21.380	869.252	682.818
289.716	21.037	868.023	680.457
290.730	21.011	867.538	679.914
291.745	20.826	866.338	678.191
292.760	21.036	866.575	679.138
293.774	22.274	866.353	683.717
294.789	22.429	866.300	684.218
295.803	22.393	865.687	683.534
296.818	22.583	864.852	683.550
297.833	22.079	863.685	680.614
298.847	21.705	863.726	679.136
299.862	22.085	863.169	680.109
300.876	22.467	862.885	681.306
301.891	22.211	862.713	680.120
302.906	21.806	861.116	677.238
303.920	22.006	860.711	677.630
304.935	22.440	860.430	679.021
305.949	22.414	859.745	678.322
306.964	22.092	858.968	676.409
307.979	22.167	859.014	676.674
308.993	22.492	858.933	677.802
310.008	22.490	858.079	677.061
311.022	22.215	857.376	675.390
312.037	22.133	856.320	674.183
313.052	21.906	855.616	672.700
314.066	21.215	853.662	668.459
315.081	20.707	853.193	666.090
316.095	21.605	853.629	669.807
317.110	22.081	853.336	671.337
318.125	21.363	851.792	667.325
319.139	20.144	850.754	661.800
320.154	20.330	850.212	662.032
321.168	21.186	850.678	665.598
322.183	21.788	850.387	667.606
323.197	21.908	849.992	667.693
324.212	22.322	849.266	668.639
325.227	22.236	849.095	668.116
326.241	22.124	848.446	667.122
327.256	22.142	847.913	666.713
328.270	22.015	847.387	665.758
329.285	21.751	846.432	663.950
330.300	21.490	845.711	662.335
331.314	21.829	845.401	663.318
332.329	22.110	845.465	664.371
333.343	22.320	845.098	664.820
334.358	22.139	844.594	663.681
335.373	22.296	844.206	663.908
336.387	22.660	844.022	665.078
337.402	22.718	843.731	665.010
338.416	22.604	843.656	664.460
339.431	22.854	843.226	665.004
340.446	22.961	842.523	664.794
341.460	22.781	841.850	663.530
342.475	22.536	841.388	662.185
343.489	22.731	840.945	662.509
344.504	22.900	841.103	663.210
345.519	23.057	840.567	663.317
346.533	22.984	840.079	662.600
347.548	22.964	839.614	662.099
348.562	22.988	839.122	661.742
349.577	22.988	838.567	661.246
350.592	23.044	837.566	660.610
351.606	22.889	837.107	659.610
352.621	22.751	836.456	658.523
353.635	22.825	835.244	657.786
354.650	22.217	833.550	654.131
355.665	21.164	832.405	649.262
356.679	21.615	832.420	650.894
357.694	22.130	831.935	652.368
358.708	22.032	831.135	651.322
359.723	22.366	831.455	652.751
360.738	22.736	831.003	653.713
361.752	22.824	830.479	653.567
362.767	23.177	829.884	654.345
363.781	23.408	829.768	655.049
364.796	23.295	829.395	654.280
365.810	23.502	828.955	654.639
366.825	23.320	828.571	653.608
367.840	23.155	827.511	652.107
368.854	22.648	826.583	649.450
369.869	22.709	826.037	649.188
370.883	22.787	826.014	649.399
371.898	22.717	825.424	648.619
372.913	22.823	825.251	648.816
373.927	22.956	824.750	648.854
374.942	22.933	824.502	648.517
375.956	23.108	824.064	648.755
376.971	23.250	823.515	648.786
377.986	23.319	823.214	648.746
379.000	23.346	822.367	648.120
380.015	23.219	821.920	647.247
381.029	23.234	821.666	647.043
382.044	23.379	821.101	647.071
383.059	23.348	820.389	646.340
384.073	23.509	819.622	646.263
385.088	23.368	818.955	645.168
386.102	23.210	818.532	644.202
387.117	23.065	817.729	642.985
388.132	22.666	817.133	641.010
389.146	22.187	816.173	638.462
390.161	22.764	815.866	640.257
391.175	23.037	815.454	640.870
392.190	22.671	814.742	638.928
393.205	21.553	812.499	633.071
394.219	20.034	810.618	626.063
395.234	20.038	810.420	625.868
396.248	21.578	812.038	632.633
397.263	22.860	812.920	637.900
398.278	22.836	812.500	637.426
399.292	22.700	811.464	636.067
400.307	22.688	811.391	635.911
401.321	22.783	810.896	635.807
402.336	23.214	810.878	637.288
403.350	23.472	810.736	638.049
404.365	23.757	810.446	638.790
405.380	24.034	810.478	639.756
406.394	24.161	809.522	639.398
407.409	24.006	809.033	638.402
408.423	24.101	808.264	638.079
409.438	24.290	807.889	638.401
410.453	24.060	807.798	637.450
411.467	24.073	807.061	636.858
412.482	24.102	806.805	636.705
413.496	24.305	806.292	636.968
414.511	24.314	805.947	636.671
415.526	23.974	805.932	635.390
416.540	23.815	805.495	634.420
417.555	23.676	804.490	633.078
418.569	23.729	803.986	632.813
419.584	23.694	803.150	631.975
420.599	23.590	802.742	631.229
421.613	155.137	1365.819	1794.852
422.628	134.652	1447.864	1794.934
