DTS Sentinel unit serial number:	SN413079Multiplexer serial number:	ORYXHardware model number:	OX4-SRSoftware version number:	ORYX F/W v4.00 Oryx Data Collector v3.7.2.0data status	okinstallation	princeton_trtdifferential loss correction	single-endedforward channel	channel 1reverse channel	N/Adate	2019/09/15time	09:34:35forward acquisition time	60.00reverse acquisition time	0.00gamma	496.2192k internal	0.2310k external	0.2310temperature offset calibration	0.9983default loss term (dB/km)	0.3790temperature slope calibration	1.0000multiplexer offset coefficient	1.0000multiplexer slope coefficient	1.0000fibre end	0.00T internal ref (°C)	33.81T ext. ref 1 (°C)	4.92T ext. ref 2 (°C)	29.87length (m)	temperature (°C)	Stokes	anti-Stokes-747.200	-22.580	-0.074	0.046
-746.185	597.139	0.125	0.315
-745.171	-89.286	-0.102	-0.030
-744.156	-200.000	0.013	-0.101
-743.142	-13.959	0.172	-0.113
-742.127	-20.954	-0.281	-0.175
-741.112	-114.328	-0.272	-0.053
-740.098	-32.964	-0.240	0.135
-739.083	-200.000	-0.026	-0.288
-738.069	69.038	-0.316	0.330
-737.054	368.876	0.074	0.152
-736.039	157.981	-0.273	-0.384
-735.025	-27.304	0.074	0.044
-734.010	-47.120	0.190	-0.094
-732.996	-145.855	-0.206	0.019
-731.981	-67.844	-0.218	0.087
-730.966	40.755	-0.174	-0.159
-729.952	82.240	0.081	-0.089
-728.937	800.000	0.059	-0.204
-727.923	-4.220	-0.195	-0.137
-726.908	800.000	-0.012	-0.045
-725.894	-200.000	0.031	-0.215
-724.879	-47.932	-0.149	-0.073
-723.864	800.000	-0.080	-0.309
-722.850	113.198	0.212	-0.261
-721.835	21.466	-0.164	-0.136
-720.821	166.708	-0.233	-0.335
-719.806	168.476	0.211	-0.305
-718.791	337.481	0.148	-0.293
-717.777	-109.661	-0.516	0.110
-716.762	180.139	0.129	0.191
-715.748	108.261	-0.073	-0.088
-714.733	-57.243	-0.280	-0.125
-713.718	-99.900	0.051	-0.013
-712.704	67.380	0.244	0.252
-711.689	800.000	0.099	0.310
-710.675	-5.593	-0.241	0.168
-709.660	14.008	-0.119	-0.094
-708.645	518.949	0.163	-0.386
-707.631	-105.881	-0.188	0.043
-706.616	231.426	0.062	0.103
-705.602	-23.057	0.076	-0.046
-704.587	-119.001	-0.223	-0.040
-703.572	-38.208	-0.278	-0.149
-702.558	-200.000	0.017	-0.077
-701.543	-152.060	-0.164	0.012
-700.529	800.000	0.017	0.065
-699.514	266.666	-0.071	0.126
-698.499	-37.350	0.179	-0.097
-697.485	-41.418	0.145	-0.075
-696.470	-42.865	-0.100	-0.051
-695.456	-0.584	-0.033	0.024
-694.441	290.647	-0.140	0.258
-693.426	358.469	0.074	-0.151
-692.412	121.703	0.186	-0.235
-691.397	800.000	0.041	-0.178
-690.383	-200.000	-0.019	0.356
-689.368	13.695	0.176	-0.139
-688.354	-106.185	-0.408	0.093
-687.339	-93.384	0.291	-0.082
-686.324	800.000	0.063	0.212
-685.310	-200.000	-0.029	0.215
-684.295	-30.196	-0.031	0.018
-683.281	-118.385	-0.136	0.024
-682.266	417.668	-0.120	-0.259
-681.251	-95.314	0.074	0.020
-680.237	177.385	-0.132	-0.195
-679.222	-200.000	-0.028	0.174
-678.208	-13.882	-0.105	0.069
-677.193	-71.123	0.342	0.130
-676.178	-81.558	0.257	0.085
-675.164	16.743	-0.255	-0.205
-674.149	-200.000	-0.009	-0.583
-673.135	-141.396	0.153	-0.016
-672.120	800.000	-0.059	0.247
-671.105	112.913	-0.024	0.029
-670.091	-21.532	-0.221	-0.137
-669.076	48.066	0.125	-0.119
-668.062	304.773	0.059	-0.111
-667.047	-200.000	0.048	-0.314
-666.032	93.188	0.131	-0.150
-665.018	-131.658	0.098	-0.013
-664.003	-131.890	-0.490	0.065
-662.989	48.097	0.142	0.135
-661.974	-123.704	-0.249	-0.040
-660.959	84.957	-0.165	0.183
-659.945	34.870	-0.089	0.079
-658.930	-200.000	0.010	-0.190
-657.916	99.093	-0.203	-0.237
-656.901	-200.000	-0.003	0.080
-655.886	-28.970	-0.257	-0.149
-654.872	-200.000	0.001	0.042
-653.857	-113.978	-0.180	0.035
-652.843	-90.594	-0.084	0.025
-651.828	35.056	0.163	0.144
-650.814	-72.792	0.239	-0.089
-649.799	24.202	0.215	-0.180
-648.784	526.154	0.074	-0.176
-647.770	-14.789	-0.209	0.136
-646.755	-97.063	-0.258	-0.068
-645.741	-100.769	0.158	-0.039
-644.726	-200.000	0.040	0.195
-643.711	-58.893	-0.175	0.077
-642.697	41.198	-0.197	-0.180
-641.682	357.621	0.118	-0.238
-640.668	-10.060	-0.132	-0.089
-639.653	-77.829	0.322	0.113
-638.638	-200.000	0.001	-0.128
-637.624	800.000	-0.036	0.156
-636.609	122.403	0.132	-0.166
-635.595	-101.517	0.125	-0.031
-634.580	-200.000	0.015	0.180
-633.565	-72.589	-0.362	-0.135
-632.551	-177.535	-0.478	0.012
-631.536	-200.000	-0.013	-0.125
-630.522	34.825	0.154	-0.136
-629.507	-52.818	-0.368	0.171
-628.492	-36.572	0.258	0.140
-627.478	-68.289	0.270	-0.106
-626.463	-200.000	-0.016	0.198
-625.449	-200.000	0.034	-0.218
-624.434	66.938	-0.274	0.282
-623.419	11.585	0.166	0.129
-622.405	-80.344	0.127	-0.043
-621.390	-68.538	-0.209	0.082
-620.376	-57.303	0.204	-0.091
-619.361	800.000	-0.125	-0.505
-618.346	669.697	0.104	-0.273
-617.332	-200.000	0.025	-0.159
-616.317	-200.000	0.006	-0.209
-615.303	124.356	-0.008	0.011
-614.288	-191.168	-0.105	0.001
-613.273	-106.342	-0.218	-0.049
-612.259	-2.782	-0.193	-0.136
-611.244	56.378	-0.227	0.223
-610.230	-115.350	0.194	0.037
-609.215	-82.998	0.129	0.042
-608.201	800.000	0.112	-0.320
-607.186	1.351	0.106	-0.077
-606.171	800.000	0.022	0.084
-605.157	-123.494	-0.359	0.058
-604.142	51.160	-0.475	0.455
-603.128	265.171	-0.092	-0.162
-602.113	7.655	-0.126	-0.095
-601.098	733.005	0.107	0.289
-600.084	563.468	-0.122	0.298
-599.069	-170.332	-0.255	0.009
-598.055	501.764	-0.098	-0.228
-597.040	800.000	0.055	-0.216
-596.025	738.181	-0.039	-0.106
-595.011	367.836	-0.095	-0.193
-593.996	-103.818	-0.039	0.009
-592.982	602.430	-0.024	0.060
-591.967	-35.819	0.218	0.119
-590.952	-46.445	-0.367	0.182
-589.938	-53.484	-0.355	0.164
-588.923	267.745	-0.119	0.211
-587.909	800.000	0.032	0.128
-586.894	-46.151	0.049	-0.024
-585.879	-26.340	0.142	0.084
-584.865	-12.903	0.176	0.116
-583.850	-94.786	-0.326	0.089
-582.836	101.872	-0.042	0.050
-581.821	100.695	-0.110	0.129
-580.806	31.453	-0.091	0.079
-579.792	-1.384	0.078	0.056
-578.777	-200.000	-0.051	0.267
-577.763	-63.672	0.315	0.130
-576.748	125.881	0.182	0.232
-575.733	110.711	0.160	0.194
-574.719	800.000	-0.045	0.183
-573.704	-200.000	-0.040	-0.414
-572.690	-121.617	0.243	0.041
-571.675	54.176	0.086	-0.084
-570.661	54.041	0.174	-0.169
-569.646	-200.000	0.015	-0.156
-568.631	-110.948	-0.281	0.058
-567.617	149.575	0.085	0.116
-566.602	-97.667	-0.176	0.046
-565.588	-88.417	0.438	-0.132
-564.573	150.417	0.100	0.137
-563.558	243.662	0.035	0.059
-562.544	43.854	-0.213	0.197
-561.529	800.000	0.022	0.086
-560.515	620.675	0.081	-0.206
-559.500	-200.000	-0.012	-0.084
-558.485	800.000	-0.069	-0.218
-557.471	141.488	-0.142	-0.190
-556.456	-21.650	0.115	-0.071
-555.442	-200.000	0.026	-0.246
-554.427	-54.597	0.232	-0.106
-553.412	10.907	0.203	-0.156
-552.398	65.485	0.231	0.236
-551.383	-139.148	0.192	0.021
-550.369	-177.381	0.133	-0.003
-549.354	-109.615	-0.150	0.032
-548.339	-74.248	-0.206	0.075
-547.325	-200.000	0.006	-0.169
-546.310	453.266	-0.076	-0.170
-545.296	-165.914	0.336	-0.015
-544.281	5.901	-0.297	-0.222
-543.266	-200.000	0.150	-0.001
-542.252	38.631	0.182	0.163
-541.237	-200.000	0.010	-0.156
-540.223	406.561	0.056	-0.120
-539.208	-200.000	-0.033	-0.172
-538.193	-41.878	0.227	0.117
-537.179	462.261	-0.091	0.203
-536.164	48.315	-0.383	0.361
-535.150	618.810	0.123	0.312
-534.135	-37.118	0.180	0.097
-533.121	82.436	-0.126	0.138
-532.106	-49.858	-0.194	-0.093
-531.091	129.101	0.172	0.221
-530.077	104.165	-0.156	-0.185
-529.062	-96.278	-0.151	-0.040
-528.048	196.237	-0.086	-0.132
-527.033	143.927	0.093	0.124
-526.018	3.512	0.139	0.102
-525.004	49.330	0.082	-0.077
-523.989	380.991	-0.154	-0.318
-522.975	-108.556	0.042	-0.009
-521.960	800.000	-0.080	0.242
-520.945	-157.976	-0.072	-0.004
-519.931	-200.000	-0.009	0.091
-518.916	-100.698	-0.264	-0.066
-517.902	-124.875	-0.146	-0.023
-516.887	-97.721	-0.288	0.075
-515.872	175.683	-0.179	0.261
-514.858	-91.817	0.285	0.081
-513.843	-2.002	0.167	-0.118
-512.829	93.823	0.072	-0.082
-511.814	139.925	-0.230	0.305
-510.799	-149.795	-0.095	0.007
-509.785	-134.365	-0.088	0.011
-508.770	-76.620	-0.285	0.100
-507.756	20.203	-0.171	-0.139
-506.741	-177.643	-0.223	-0.005
-505.726	-151.787	0.231	0.017
-504.712	-200.000	0.079	0.501
-503.697	-200.000	-0.021	0.095
-502.683	-200.000	0.024	-0.206
-501.668	25.783	-0.326	-0.273
-500.653	-200.000	-0.002	0.030
-499.639	-128.662	0.372	0.053
-498.624	636.837	-0.184	0.469
-497.610	-200.000	0.033	-0.198
-496.595	357.389	-0.180	-0.361
-495.581	-111.134	0.179	0.037
-494.566	58.717	0.112	-0.110
-493.551	5.332	-0.263	0.195
-492.537	-90.474	0.130	0.038
-491.522	-121.026	-0.394	-0.066
-490.508	7.279	-0.135	-0.101
-489.493	-200.000	-0.017	0.219
-488.478	-92.804	-0.174	-0.049
-487.464	-105.358	0.278	0.064
-486.449	167.123	-0.181	-0.258
-485.435	-169.762	0.224	0.008
-484.420	475.838	-0.083	0.189
-483.405	800.000	-0.065	0.273
-482.391	416.617	0.060	-0.128
-481.376	-150.703	0.076	-0.006
-480.362	62.432	-0.361	0.363
-479.347	-200.000	0.025	-0.427
-478.332	385.149	-0.153	-0.317
-477.318	-91.466	0.203	-0.058
-476.303	-200.000	-0.010	0.087
-475.289	20.378	0.298	0.242
-474.274	557.426	-0.133	-0.322
-473.259	-200.000	0.054	-0.293
-472.245	-99.586	-0.162	0.041
-471.230	800.000	0.040	0.116
-470.216	-200.000	-0.023	0.128
-469.201	-30.504	-0.048	-0.027
-468.186	116.423	-0.168	-0.207
-467.172	474.701	-0.041	0.093
-466.157	800.000	-0.052	0.203
-465.143	-162.557	0.145	-0.007
-464.128	369.789	0.097	-0.196
-463.113	-187.391	-0.343	-0.005
-462.099	800.000	-0.071	-0.221
-461.084	-11.689	-0.135	-0.089
-460.070	-200.000	0.022	0.198
-459.055	65.061	-0.140	-0.143
-458.040	-64.242	-0.252	0.103
-457.026	-98.418	0.049	-0.013
-456.011	800.000	-0.040	0.124
-454.997	-36.731	0.246	-0.132
-453.982	105.903	-0.214	-0.255
-452.968	-126.052	-0.320	-0.048
-451.953	-160.887	0.119	0.006
-450.938	-200.000	0.036	0.179
-449.924	-84.244	-0.102	-0.032
-448.909	231.215	-0.165	0.271
-447.895	-25.161	0.101	-0.060
-446.880	-35.038	0.251	-0.138
-445.865	-200.000	0.015	-0.396
-444.851	-200.000	-0.043	0.235
-443.836	-200.000	0.007	0.153
-442.822	-138.438	-0.152	-0.017
-441.807	800.000	-0.055	0.162
-440.792	800.000	0.032	0.103
-439.778	6.749	0.170	-0.127
-438.763	379.563	-0.132	-0.270
-437.749	-16.017	0.346	0.221
-436.734	-24.001	0.195	-0.117
-435.719	-200.000	-0.023	-0.137
-434.705	-200.000	-0.001	0.246
-433.690	800.000	0.070	0.217
-432.676	-200.000	-0.049	0.311
-431.661	-129.273	0.161	0.022
-430.646	12.586	-0.205	-0.158
-429.632	457.286	-0.102	-0.228
-428.617	176.534	-0.181	0.264
-427.603	-147.598	-0.286	-0.024
-426.588	60.478	0.176	-0.175
-425.573	-47.344	0.228	-0.111
-424.559	-39.497	-0.193	0.101
-423.544	340.405	0.079	-0.155
-422.530	-82.537	0.161	0.052
-421.515	800.000	-0.011	0.033
-420.500	336.421	0.124	-0.242
-419.486	-127.232	0.127	0.019
-418.471	-140.612	-0.105	-0.011
-417.457	649.814	0.117	0.300
-416.442	800.000	0.095	-0.287
-415.428	171.087	-0.136	-0.195
-414.413	207.910	-0.260	0.407
-413.398	-90.852	0.435	0.126
-412.384	82.281	0.087	0.095
-411.369	515.315	-0.099	0.233
-410.355	245.397	0.023	-0.038
-409.340	14.669	0.145	-0.113
-408.325	64.049	-0.263	0.265
-407.311	-113.976	-0.260	-0.051
-406.296	-190.303	-0.564	0.006
-405.282	-104.052	0.164	-0.038
-404.267	-41.409	0.205	-0.106
-403.252	8.480	0.041	0.031
-402.238	800.000	-0.055	0.238
-401.223	-133.705	-0.479	0.060
-400.209	106.191	-0.105	-0.124
-399.194	-200.000	-0.004	-0.387
-398.179	194.626	0.061	-0.092
-397.165	-160.924	0.292	-0.015
-396.150	17.456	0.306	0.244
-395.136	-2.266	0.100	0.070
-394.121	9.846	0.168	-0.128
-393.106	49.881	0.175	0.165
-392.092	800.000	-0.037	0.133
-391.077	-88.518	-0.122	-0.036
-390.063	160.745	0.060	-0.084
-389.048	302.492	-0.123	-0.228
-388.033	-200.000	0.061	-0.389
-387.019	362.099	0.080	0.161
-386.004	170.634	-0.214	-0.308
-384.990	133.894	0.112	-0.145
-383.975	85.739	0.101	0.111
-382.960	79.346	0.095	-0.102
-381.946	800.000	-0.080	-0.239
-380.931	86.537	-0.291	-0.321
-379.917	-30.230	0.199	0.113
-378.902	-133.311	-0.153	-0.019
-377.888	-103.295	0.263	-0.062
-376.873	19.061	0.174	0.140
-375.858	292.763	-0.234	-0.427
-374.844	12.841	0.221	-0.171
-373.829	800.000	-0.096	-0.312
-372.815	-80.929	-0.364	-0.121
-371.800	109.920	-0.209	-0.251
-370.785	-101.557	-0.279	0.068
-369.771	231.283	-0.080	-0.131
-368.756	-144.038	0.078	0.007
-367.742	537.787	-0.149	-0.354
-366.727	277.396	0.059	-0.106
-365.712	5.132	0.161	0.119
-364.698	79.823	0.103	-0.111
-363.683	-63.356	0.076	0.031
-362.669	-198.855	0.307	0.002
-361.654	-200.000	0.032	0.190
-360.639	195.389	-0.041	0.063
-359.625	46.208	-0.134	-0.125
-358.610	-200.000	0.001	0.075
-357.596	104.940	0.031	0.036
-356.581	-97.426	0.141	-0.037
-355.566	-200.000	0.062	-0.540
-354.552	-200.000	0.041	0.336
-353.537	66.907	0.285	0.290
-352.523	800.000	-0.075	0.228
-351.508	-200.000	0.026	0.255
-350.493	-79.000	0.169	-0.057
-349.479	-5.476	-0.127	0.087
-348.464	116.521	0.179	-0.220
-347.450	-42.511	0.156	0.080
-346.435	-110.816	-0.057	0.012
-345.420	63.077	-0.196	-0.196
-344.406	0.832	-0.099	-0.071
-343.391	302.377	0.132	-0.244
-342.377	-200.000	0.064	-0.578
-341.362	-41.273	0.156	0.080
-340.348	80.319	-0.067	0.072
-339.333	-200.000	0.010	-0.330
-338.318	-135.627	-0.068	-0.008
-337.304	-16.651	0.237	-0.150
-336.289	800.000	0.093	-0.266
-335.275	174.199	-0.186	0.269
-334.260	-112.384	-0.050	-0.010
-333.245	-128.253	-0.223	0.032
-332.231	603.365	-0.031	-0.076
-331.216	-86.894	-0.142	0.043
-330.202	800.000	0.029	0.114
-329.187	-132.644	0.270	0.035
-328.172	-109.133	-0.276	-0.059
-327.158	-200.000	-0.008	-0.260
-326.143	33.085	-0.036	-0.031
-325.129	75.563	-0.082	0.087
-324.114	-124.785	-0.158	-0.024
-323.099	-30.842	-0.132	-0.075
-322.085	202.744	0.023	0.036
-321.070	800.000	-0.043	0.119
-320.056	-115.546	-0.127	-0.024
-319.041	-155.811	-0.312	0.020
-318.026	171.064	0.074	-0.106
-317.012	-8.450	-0.094	-0.063
-315.997	-31.530	0.084	-0.047
-314.983	259.663	0.277	-0.477
-313.968	800.000	0.054	0.170
-312.953	-86.929	-0.313	-0.095
-311.939	-200.000	0.040	0.316
-310.924	207.212	0.121	-0.188
-309.910	-33.726	-0.048	-0.027
-308.895	800.000	0.063	-0.183
-307.880	-124.224	-0.188	0.029
-306.866	-200.000	0.010	-0.337
-305.851	800.000	0.012	-0.039
-304.837	124.825	-0.098	-0.123
-303.822	-140.614	-0.105	0.011
-302.807	-38.776	0.301	0.159
-301.793	45.204	0.147	-0.135
-300.778	653.518	-0.088	0.226
-299.764	11.312	-0.155	-0.118
-298.749	800.000	0.065	-0.202
-297.735	-43.183	-0.125	-0.063
-296.720	469.081	0.158	0.354
-295.705	800.000	0.069	0.202
-294.691	-25.887	0.356	-0.209
-293.676	709.072	-0.071	0.189
-292.662	-126.069	0.191	-0.029
-291.647	800.000	0.084	0.238
-290.632	92.376	0.223	0.251
-289.618	-200.000	0.005	0.406
-288.603	-73.849	0.131	0.047
-287.589	-160.739	-0.119	0.006
-286.574	-163.977	0.459	-0.021
-285.559	39.097	0.231	-0.206
-284.545	-134.358	-0.276	-0.034
-283.530	-17.177	0.125	-0.079
-282.516	-132.123	0.089	0.012
-281.501	127.239	0.060	-0.076
-280.486	-200.000	0.059	0.281
-279.472	-30.065	-0.133	-0.076
-278.457	186.016	0.210	0.311
-277.443	-100.784	0.235	-0.058
-276.428	-92.104	0.277	-0.078
-275.413	800.000	0.046	-0.173
-274.399	-145.667	-0.306	-0.027
-273.384	-200.000	-0.008	0.040
-272.370	-200.000	-0.019	0.126
-271.355	113.620	0.153	-0.185
-270.340	-171.628	0.509	0.017
-269.326	800.000	-0.032	0.089
-268.311	-200.000	-0.004	-0.100
-267.297	28.302	-0.092	0.077
-266.282	-200.000	-0.006	-0.125
-265.267	133.566	0.184	-0.237
-264.253	202.126	0.138	-0.212
-263.238	800.000	-0.152	-0.421
-262.224	-39.389	0.171	0.089
-261.209	256.603	-0.078	-0.133
-260.195	-101.023	0.174	0.043
-259.180	-123.848	0.219	-0.034
-258.165	-59.843	-0.245	0.104
-257.151	98.359	-0.173	0.198
-256.136	158.260	-0.062	0.085
-255.122	-200.000	0.017	-0.179
-254.107	800.000	0.024	0.089
-253.092	800.000	-0.115	0.491
-252.078	-52.507	0.250	0.115
-251.063	97.680	-0.039	0.045
-250.049	126.672	0.337	0.425
-249.034	-58.509	-0.296	0.128
-248.019	800.000	-0.069	-0.224
-247.005	225.811	-0.219	0.353
-245.990	3.137	-0.105	0.076
-244.976	128.880	-0.206	0.262
-243.961	-38.988	-0.234	0.123
-242.946	90.683	0.245	0.274
-241.932	-101.711	-0.369	0.089
-240.917	-200.000	-0.040	0.193
-239.903	-10.146	0.178	0.118
-238.888	78.570	-0.218	0.232
-237.873	-70.557	-0.037	-0.014
-236.859	124.609	0.223	0.280
-235.844	800.000	-0.048	0.135
-234.830	-95.515	0.157	0.042
-233.815	-4.951	-0.004	-0.003
-232.800	-47.308	-0.217	-0.105
-231.786	-26.311	0.162	0.095
-230.771	133.046	0.094	-0.121
-229.757	129.543	0.061	0.077
-228.742	-200.000	0.002	0.084
-227.727	-85.682	-0.175	0.054
-226.713	418.742	-0.113	0.241
-225.698	-28.811	-0.231	-0.132
-224.684	154.242	-0.174	0.237
-223.669	800.000	0.065	-0.222
-222.655	182.412	0.118	0.173
-221.640	-200.000	-0.036	0.447
-220.625	278.973	0.094	-0.167
-219.611	338.353	-0.089	0.172
-218.596	-58.695	-0.210	0.091
-217.582	800.000	-0.107	-0.351
-216.567	606.369	0.063	-0.155
-215.552	570.368	0.155	0.376
-214.538	-200.000	0.005	-0.125
-213.523	375.693	0.054	-0.109
-212.509	90.982	-0.197	-0.220
-211.494	-68.733	-0.174	0.067
-210.479	-146.587	0.472	-0.041
-209.465	64.724	-0.106	0.107
-208.450	-39.505	-0.087	0.045
-207.436	-200.000	0.031	-0.231
-206.421	142.852	-0.153	-0.202
-205.406	236.165	0.031	-0.051
-204.392	126.615	-0.165	-0.208
-203.377	-76.605	0.226	0.079
-202.363	234.102	0.224	0.366
-201.348	800.000	0.045	-0.162
-200.333	-200.000	0.017	0.305
-199.319	-59.677	0.344	-0.147
-198.304	63.749	0.310	-0.310
-197.290	-79.774	0.083	-0.028
-196.275	-200.000	-0.021	-0.354
-195.260	-41.847	-0.077	0.039
-194.246	263.688	0.181	-0.313
-193.231	-5.912	0.010	-0.007
-192.217	-142.299	0.243	0.024
-191.202	-87.408	-0.164	-0.049
-190.187	10.778	0.072	-0.055
-189.173	800.000	-0.098	0.314
-188.158	-40.874	0.216	0.111
-187.144	55.349	-0.297	0.286
-186.129	511.095	0.115	0.266
-185.114	29.536	-0.173	-0.146
-184.100	4.287	-0.218	0.158
-183.085	64.461	0.106	-0.106
-182.071	-119.439	0.170	-0.029
-181.056	-28.673	0.093	-0.053
-180.042	124.650	-0.081	0.101
-179.027	590.415	-0.132	0.323
-178.012	160.663	0.101	-0.141
-176.998	-179.888	0.194	0.004
-175.983	606.890	-0.062	-0.153
-174.969	-200.000	-0.006	-0.405
-173.954	199.106	-0.085	-0.129
-172.939	-88.312	0.213	0.063
-171.925	1.284	-0.222	-0.158
-170.910	800.000	0.121	-0.446
-169.896	91.090	-0.110	0.122
-168.881	-200.000	-0.075	-0.343
-167.866	-189.902	0.379	-0.004
-166.852	366.899	-0.162	0.325
-165.837	-144.547	-0.093	0.009
-164.823	-200.000	-0.009	0.220
-163.808	-22.277	0.198	0.119
-162.793	800.000	0.040	0.125
-161.779	26.814	0.243	-0.202
-160.764	-89.429	0.333	-0.097
-159.750	-200.000	0.032	0.188
-158.735	216.008	-0.177	0.279
-157.720	-200.000	-0.059	0.345
-156.706	25.182	-0.032	-0.027
-155.691	-88.077	0.266	-0.079
-154.677	800.000	-0.050	-0.148
-153.662	582.622	0.226	0.551
-152.647	-24.652	0.376	0.222
-151.633	-144.681	0.194	0.018
-150.618	-132.788	-0.018	0.002
-149.604	-184.765	0.154	0.002
-148.589	433.681	0.065	0.141
-147.574	-55.946	0.102	0.045
-146.560	800.000	-0.030	0.120
-145.545	226.080	0.131	-0.211
-144.531	84.707	-0.175	0.190
-143.516	34.297	-0.068	-0.059
-142.502	-91.319	-0.079	-0.022
-141.487	-200.000	-0.015	0.109
-140.472	-65.858	-0.285	0.113
-139.458	69.820	-0.181	-0.185
-138.443	52.932	-0.336	-0.319
-137.429	-200.000	0.041	-0.257
-136.414	-120.147	-0.108	-0.018
-135.399	-71.504	0.056	-0.021
-134.385	-200.000	-0.013	0.356
-133.370	-200.000	-0.010	-0.238
-132.356	800.000	-0.163	-0.462
-131.341	-200.000	0.031	-0.247
-130.326	395.580	-0.102	0.211
-129.312	-200.000	0.102	-0.539
-128.297	-200.000	0.016	-0.323
-127.283	-200.000	0.030	0.228
-126.268	22.276	0.318	0.258
-125.253	-124.549	0.447	0.069
-124.239	212.469	-0.112	-0.175
-123.224	-200.000	0.004	0.245
-122.210	-200.000	-0.009	-0.107
-121.195	46.748	-0.179	-0.165
-120.180	39.168	-0.151	-0.134
-119.166	-200.000	-0.005	0.190
-118.151	41.985	0.226	0.204
-117.137	-200.000	0.004	-0.291
-116.122	-100.731	0.439	-0.107
-115.107	800.000	0.021	0.066
-114.093	-200.000	-0.048	0.257
-113.078	800.000	0.065	0.251
-112.064	-22.019	-0.109	0.065
-111.049	89.549	-0.173	0.191
-110.034	462.723	0.079	0.175
-109.020	419.078	-0.093	0.198
-108.005	89.455	0.259	0.286
-106.991	800.000	-0.022	-0.090
-105.976	-59.777	-0.360	0.153
-104.962	50.957	0.274	-0.257
-103.947	-96.514	-0.219	-0.057
-102.932	-200.000	-0.011	-0.098
-101.918	800.000	0.066	-0.203
-100.903	342.660	-0.159	0.308
-99.889	800.000	0.037	0.106
-98.874	-57.499	0.179	-0.078
-97.859	-47.848	0.102	-0.049
-96.845	800.000	-0.109	-0.418
-95.830	391.683	-0.023	0.048
-94.816	-200.000	0.004	-0.167
-93.801	276.549	0.036	0.064
-92.786	-149.967	0.086	-0.007
-91.772	-143.141	-0.054	0.005
-90.757	487.591	0.023	0.053
-89.743	-73.415	-0.221	-0.080
-88.728	449.890	-0.081	0.177
-87.713	800.000	0.042	-0.136
-86.699	327.020	0.085	0.162
-85.684	55.034	0.073	0.070
-84.670	-29.824	0.051	0.029
-83.655	-22.509	0.039	0.023
-82.640	28.962	0.208	-0.174
-81.626	-200.000	-0.056	0.448
-80.611	-130.468	0.128	-0.017
-79.597	800.000	-0.072	0.263
-78.582	16.848	0.120	-0.094
-77.567	319.156	0.112	-0.210
-76.553	10.698	-0.071	-0.053
-75.538	19.823	-0.269	-0.214
-74.524	-139.372	-0.106	-0.011
-73.509	184.984	0.079	0.116
-72.494	-79.689	0.101	-0.034
-71.480	434.622	0.056	-0.120
-70.465	-164.876	0.249	0.011
-69.451	-27.857	0.242	-0.139
-68.436	-157.943	0.083	-0.005
-67.422	-200.000	-0.009	0.169
-66.407	-139.570	0.357	-0.038
-65.392	-200.000	-0.023	0.116
-64.378	-134.189	-0.180	-0.022
-63.363	-200.000	0.001	-0.217
-62.349	37.985	0.298	0.262
-61.334	28.136	-0.853	-0.712
-60.319	259.269	0.249	0.425
-59.305	-200.000	-0.202	-0.911
-58.290	123.310	0.719	0.891
-57.276	423.421	0.785	1.669
-56.261	-200.000	97.530	573.062
-55.246	614.699	1413.023	3499.524
-54.232	184.436	2621.385	3838.306
-53.217	119.624	2188.323	2679.102
-52.203	45.646	1634.302	1492.352
-51.188	37.196	1368.100	1197.381
-50.173	33.878	1325.274	1139.983
-49.159	56.240	1374.086	1318.990
-48.144	59.707	1391.343	1356.627
-47.130	37.660	1345.784	1180.478
-46.115	33.998	1328.228	1143.067
-45.100	33.725	1323.912	1137.671
-44.086	33.793	1321.232	1135.729
-43.071	33.729	1319.078	1133.452
-42.057	33.560	1317.374	1130.930
-41.042	33.639	1315.565	1129.807
-40.027	33.694	1314.116	1128.844
-39.013	33.707	1312.203	1127.234
-37.998	33.766	1310.176	1125.795
-36.984	33.854	1308.299	1124.658
-35.969	33.775	1307.212	1123.213
-34.954	33.956	1304.803	1122.168
-33.940	33.871	1303.796	1120.753
-32.925	33.829	1302.542	1119.388
-31.911	33.886	1300.691	1118.088
-30.896	33.952	1299.254	1117.196
-29.881	33.843	1298.043	1115.471
-28.867	33.953	1296.405	1114.663
-27.852	33.917	1294.920	1113.129
-26.838	33.901	1293.720	1111.960
-25.823	33.955	1292.284	1110.999
-24.809	33.784	1291.263	1109.079
-23.794	33.998	1289.165	1108.481
-22.779	33.922	1287.990	1106.981
-21.765	33.961	1287.032	1106.340
-20.750	33.944	1285.561	1104.937
-19.736	33.892	1284.181	1103.402
-18.721	33.712	1283.434	1101.674
-17.706	33.720	1282.041	1100.480
-16.692	33.718	1281.187	1099.689
-15.677	33.830	1279.645	1098.971
-14.663	33.861	1278.632	1098.235
-13.648	33.713	1277.795	1096.620
-12.633	33.733	1276.656	1095.712
-11.619	33.735	1276.121	1095.221
-10.604	33.709	1275.115	1094.168
-9.590	33.759	1273.887	1093.357
-8.575	33.691	1272.952	1092.122
-7.560	33.607	1272.467	1091.179
-6.546	33.683	1270.924	1090.247
-5.531	33.710	1270.387	1089.900
-4.517	33.752	1269.471	1089.308
-3.502	33.817	1268.513	1088.820
-2.487	33.694	1268.073	1087.693
-1.473	33.775	1264.024	1084.640
-0.458	32.568	1248.849	1064.756
0.556	27.711	1230.885	1025.627
1.571	23.853	1235.808	1007.814
2.586	22.880	1250.245	1013.916
3.600	22.137	1238.928	1000.420
4.615	16.910	1167.540	914.573
5.629	8.811	1092.240	814.490
6.644	5.199	1071.378	780.824
7.659	4.998	1068.936	777.972
8.673	4.723	1067.758	775.674
9.688	4.771	1066.277	774.767
10.702	5.005	1064.898	774.863
11.717	9.787	1071.754	803.653
12.731	17.016	1081.849	847.378
13.746	19.165	1083.423	859.268
14.761	18.075	1081.513	852.246
15.775	16.890	1079.533	844.711
16.790	15.959	1076.870	837.923
17.804	15.144	1075.646	832.844
18.819	14.749	1074.565	829.973
19.834	14.454	1073.349	827.494
20.848	14.193	1073.148	825.973
21.863	14.181	1071.623	824.665
22.877	13.935	1070.939	822.848
23.892	13.896	1070.193	822.006
24.907	13.888	1069.805	821.599
25.921	14.009	1068.260	820.938
26.936	14.114	1067.058	820.459
27.950	14.085	1066.116	819.519
28.965	14.097	1064.331	818.135
29.980	14.113	1062.699	816.886
30.994	14.226	1061.925	816.770
32.009	14.303	1060.623	816.078
33.023	14.148	1059.536	814.409
34.038	14.146	1058.485	813.516
35.053	14.001	1057.977	812.346
36.067	14.174	1056.390	811.903
37.082	14.082	1055.976	811.063
38.096	14.186	1054.922	810.686
39.111	14.301	1054.225	810.638
40.126	13.997	1052.953	808.111
41.140	13.988	1052.031	807.287
42.155	13.816	1050.721	805.377
43.169	13.862	1049.336	804.469
44.184	13.851	1048.544	803.736
45.199	13.882	1047.156	802.750
46.213	13.862	1046.152	801.815
47.228	14.021	1044.757	801.441
48.242	13.989	1044.004	800.640
49.257	14.026	1042.982	799.964
50.271	14.042	1042.371	799.499
51.286	14.139	1041.482	799.215
52.301	14.142	1040.455	798.370
53.315	14.027	1039.178	796.767
54.330	13.933	1038.303	795.577
55.344	13.967	1037.380	794.961
56.359	14.013	1036.887	794.732
57.374	13.936	1035.607	793.314
58.388	13.937	1034.726	792.573
59.403	13.788	1033.785	791.072
60.417	14.000	1032.781	791.242
61.432	13.814	1032.427	790.017
62.447	13.817	1031.781	789.467
63.461	13.793	1030.633	788.404
64.476	13.799	1029.623	787.592
65.490	13.873	1028.732	787.190
66.505	13.971	1027.930	786.969
67.520	13.825	1027.593	785.950
68.534	13.939	1026.740	785.770
69.549	13.795	1026.190	784.598
70.563	13.838	1025.411	784.135
71.578	13.733	1024.563	782.924
72.593	13.697	1023.585	781.935
73.607	13.823	1022.895	781.935
74.622	13.807	1022.776	781.697
75.636	13.747	1021.957	780.720
76.651	13.821	1020.639	779.991
77.666	13.651	1020.573	779.073
78.680	13.695	1019.759	778.592
79.695	13.836	1019.161	778.726
80.709	13.930	1018.208	778.371
81.724	13.894	1017.791	777.814
82.739	13.939	1017.338	777.610
83.753	14.169	1016.329	777.844
84.768	14.123	1015.642	777.034
85.782	14.182	1014.369	776.267
86.797	14.248	1013.510	775.850
87.812	14.023	1013.094	774.415
88.826	14.050	1012.016	773.647
89.841	14.179	1010.788	773.241
90.855	14.265	1010.358	773.244
91.870	14.186	1009.316	772.008
92.884	14.180	1008.658	771.412
93.899	14.267	1007.443	770.815
94.914	14.241	1007.010	770.295
95.928	14.280	1005.860	769.529
96.943	14.308	1004.805	768.782
97.957	14.175	1004.068	767.536
98.972	14.196	1003.341	767.011
99.987	14.273	1002.221	766.440
101.001	14.214	1001.598	765.626
102.016	14.197	1000.344	764.518
103.030	14.274	1000.034	764.567
104.045	14.177	999.020	763.281
105.060	14.280	997.762	762.725
106.074	14.052	997.480	761.395
107.089	13.860	996.203	759.477
108.103	13.902	995.029	758.705
109.118	13.962	994.355	758.398
110.133	13.917	993.626	757.571
111.147	13.958	992.785	757.050
112.162	13.963	991.694	756.173
113.176	14.052	991.127	756.080
114.191	14.068	990.473	755.586
115.206	13.931	989.898	754.460
116.220	13.962	989.077	753.907
117.235	13.956	987.856	752.884
118.249	13.972	987.170	752.364
119.264	14.007	986.196	751.713
120.279	13.904	985.849	750.916
121.293	13.926	985.029	750.324
122.308	13.918	983.788	749.280
123.322	13.813	982.905	748.066
124.337	13.904	981.623	747.433
125.352	13.890	980.898	746.752
126.366	13.874	979.532	745.577
127.381	14.015	978.657	745.475
128.395	13.799	978.567	744.372
129.410	13.880	977.371	743.758
130.424	14.021	976.383	743.571
131.439	14.062	975.843	743.278
132.454	14.093	975.130	742.807
133.468	14.134	974.048	742.102
134.483	14.219	973.071	741.669
135.497	14.096	972.408	740.549
136.512	14.220	971.344	740.230
137.527	14.064	970.852	739.093
138.541	14.151	969.841	738.644
139.556	14.076	969.375	737.892
140.570	14.199	968.882	737.996
141.585	14.370	967.909	737.950
142.600	14.189	967.315	736.627
143.614	14.306	966.186	736.219
144.629	14.442	965.319	736.095
145.643	14.370	964.524	735.106
146.658	14.293	963.371	733.823
147.673	14.180	962.703	732.752
148.687	14.258	961.816	732.354
149.702	14.155	960.693	730.981
150.716	14.087	960.314	730.331
151.731	14.204	959.535	730.186
152.746	14.173	959.080	729.642
153.760	14.153	958.593	729.118
154.775	14.212	957.936	728.811
155.789	14.184	957.025	727.934
156.804	14.366	956.234	728.060
157.819	14.215	955.991	727.153
158.833	14.375	955.535	727.442
159.848	14.399	954.239	726.495
160.862	14.395	953.220	725.636
161.877	14.244	952.138	724.092
162.892	14.290	950.742	723.167
163.906	14.230	949.904	722.204
164.921	14.299	949.170	721.881
165.935	14.391	948.205	721.480
166.950	14.275	947.934	720.708
167.964	14.263	946.721	719.670
168.979	14.355	945.767	719.279
169.994	14.290	944.886	718.267
171.008	14.260	944.675	717.914
172.023	14.453	943.385	717.701
173.037	14.615	942.634	717.760
174.052	14.248	942.641	716.127
175.067	14.425	941.442	715.912
176.081	14.347	941.182	715.314
177.096	14.413	940.103	714.715
178.110	14.346	939.524	713.922
179.125	14.480	939.234	714.217
180.140	14.509	938.506	713.721
181.154	14.462	938.221	713.239
182.169	14.474	937.833	712.934
183.183	14.606	937.047	712.837
184.198	14.675	935.837	712.147
185.213	14.558	935.822	711.573
186.227	14.589	935.081	711.082
187.242	14.609	934.285	710.498
188.256	14.726	933.849	710.601
189.271	14.595	933.006	709.339
190.286	14.556	932.173	708.479
191.300	14.320	931.375	706.806
192.315	14.364	930.514	706.277
193.329	14.312	930.276	705.813
194.344	14.375	929.510	705.438
195.359	14.595	929.273	706.125
196.373	14.659	928.433	705.695
197.388	14.673	927.717	705.149
198.402	14.875	927.210	705.552
199.417	14.857	926.717	705.041
200.432	14.881	926.078	704.593
201.446	14.889	925.913	704.437
202.461	15.057	925.450	704.731
203.475	14.857	924.657	703.224
204.490	14.800	923.810	702.279
205.504	14.782	922.968	701.501
206.519	14.861	922.381	701.325
207.534	14.833	921.353	700.363
208.548	14.844	920.464	699.671
209.563	14.919	919.887	699.482
210.577	14.840	919.464	698.769
211.592	14.842	919.082	698.427
212.607	15.054	917.882	698.336
213.621	15.017	917.306	697.684
214.636	14.833	917.063	696.668
215.650	14.984	916.162	696.551
216.665	15.057	915.308	696.146
217.680	15.107	914.910	695.988
218.694	15.101	913.925	695.151
219.709	15.189	913.411	695.065
220.723	15.153	912.941	694.499
221.738	15.108	911.890	693.451
222.753	15.093	911.400	692.955
223.767	15.227	910.625	692.858
224.782	15.209	910.312	692.482
225.796	15.211	909.830	692.064
226.811	15.140	909.138	691.183
227.826	15.123	908.554	690.606
228.840	15.078	907.578	689.620
229.855	15.200	906.796	689.465
230.869	15.088	906.081	688.402
231.884	15.109	905.416	687.922
232.899	15.181	904.513	687.470
233.913	14.989	904.453	686.575
234.928	14.980	903.588	685.821
235.942	15.072	902.827	685.560
236.957	15.104	902.241	685.184
237.972	15.046	901.690	684.467
238.986	15.063	901.229	684.129
240.001	14.989	900.613	683.295
241.015	15.137	900.112	683.461
242.030	15.076	899.500	682.688
243.045	15.119	899.007	682.428
244.059	15.263	898.203	682.343
245.074	15.241	897.435	681.608
246.088	15.342	896.677	681.385
247.103	15.396	895.810	680.884
248.117	15.543	895.802	681.412
249.132	15.592	895.405	681.250
250.147	15.615	894.976	680.957
251.161	15.673	893.875	680.294
252.176	15.729	893.052	679.831
253.190	15.706	892.402	679.184
254.205	15.877	891.919	679.449
255.220	15.703	891.205	678.142
256.234	15.717	890.663	677.726
257.249	15.921	889.778	677.813
258.263	15.710	889.298	676.541
259.278	15.749	888.417	675.964
260.293	15.702	887.882	675.310
261.307	15.991	887.595	676.194
262.322	15.926	886.845	675.299
263.336	15.777	886.262	674.202
264.351	15.884	885.463	673.961
265.366	15.989	884.504	673.593
266.380	15.973	883.837	672.959
267.395	15.906	883.624	672.469
268.409	15.854	882.714	671.511
269.424	15.980	881.641	671.139
270.439	15.863	881.225	670.296
271.453	15.846	880.298	669.464
272.468	15.940	879.727	669.345
273.482	16.060	879.176	669.340
274.497	15.963	878.282	668.216
275.512	15.904	878.602	668.167
276.526	15.928	877.727	667.537
277.541	15.938	877.362	667.242
278.555	16.014	876.599	666.900
279.570	16.057	876.083	666.621
280.585	16.143	875.119	666.168
281.599	16.127	874.405	665.503
282.614	16.038	873.707	664.560
283.628	15.957	873.339	663.902
284.643	16.002	872.786	663.601
285.657	15.933	871.927	662.618
286.672	16.109	871.409	662.859
287.687	16.143	870.784	662.458
288.701	16.180	869.666	661.694
289.716	16.281	869.540	661.936
290.730	16.091	869.333	660.972
291.745	16.099	868.677	660.448
292.760	16.235	868.270	660.612
293.774	16.296	867.072	659.880
294.789	16.263	866.920	659.579
295.803	16.244	865.867	658.645
296.818	16.133	865.201	657.646
297.833	16.231	864.223	657.226
298.847	16.150	863.899	656.607
299.862	16.261	863.383	656.590
300.876	16.386	862.645	656.455
301.891	16.567	862.046	656.645
302.906	16.469	861.508	655.794
303.920	16.598	861.240	656.032
304.935	16.686	860.618	655.844
305.949	16.488	859.919	654.486
306.964	16.448	859.313	653.812
307.979	16.620	858.888	654.094
308.993	16.518	858.276	653.179
310.008	16.529	857.491	652.563
311.022	16.609	856.802	652.293
312.037	16.488	856.458	651.507
313.052	16.495	855.680	650.882
314.066	16.357	855.237	649.959
315.081	16.425	855.029	650.003
316.095	16.461	854.134	649.403
317.110	16.550	853.231	649.000
318.125	16.541	852.833	648.606
319.139	16.468	852.586	648.083
320.154	16.608	852.025	648.136
321.168	16.626	851.383	647.657
322.183	16.542	851.240	647.171
323.197	16.566	850.923	646.965
324.212	16.520	850.343	646.288
325.227	16.478	849.675	645.564
326.241	16.594	848.939	645.392
327.256	16.640	848.237	644.975
328.270	16.451	847.672	643.767
329.285	16.574	846.753	643.480
330.300	16.683	845.912	643.200
331.314	16.741	845.837	643.306
332.329	16.592	845.430	642.374
333.343	16.740	845.342	642.812
334.358	16.830	844.945	642.796
335.373	16.736	844.351	641.929
336.387	16.751	844.098	641.737
337.402	16.900	843.603	641.869
338.416	16.914	843.096	641.477
339.431	16.974	842.906	641.504
340.446	16.896	842.537	640.873
341.460	16.902	842.368	640.710
342.475	17.038	841.658	640.627
343.489	16.923	841.537	640.041
344.504	16.992	841.034	639.866
345.519	17.064	840.352	639.558
346.533	17.187	839.794	639.540
347.548	17.028	839.394	638.582
348.562	17.167	838.256	638.180
349.577	17.014	838.096	637.428
350.592	16.882	837.628	636.519
351.606	16.869	836.839	635.817
352.621	16.995	836.115	635.680
353.635	16.978	835.222	634.883
354.650	17.054	834.695	634.709
355.665	17.145	834.129	634.566
356.679	17.206	833.380	634.167
357.694	17.202	832.713	633.587
358.708	17.239	832.096	633.199
359.723	17.218	831.513	632.620
360.738	17.178	831.234	632.205
361.752	17.153	830.710	631.657
362.767	17.083	829.926	630.744
363.781	17.282	829.675	631.238
364.796	17.252	829.169	630.686
365.810	17.532	828.617	631.249
366.825	17.544	828.367	631.048
367.840	17.350	827.824	629.860
368.854	17.314	827.316	629.284
369.869	17.293	826.985	628.896
370.883	17.149	826.824	628.188
371.898	17.406	826.094	628.528
372.913	17.553	825.808	628.796
373.927	17.450	825.511	628.135
374.942	17.424	824.816	627.453
375.956	17.629	824.429	627.858
376.971	17.636	823.985	627.490
377.986	17.612	823.790	627.198
379.000	17.757	822.982	627.061
380.015	17.657	822.435	626.221
381.029	17.663	821.926	625.801
382.044	17.818	821.199	625.762
383.059	17.867	820.648	625.464
384.073	17.761	819.856	624.417
385.088	17.651	819.209	623.469
386.102	17.570	818.908	622.887
387.117	17.726	818.019	622.726
388.132	17.578	817.205	621.512
389.146	17.766	816.958	621.955
390.161	17.661	816.848	621.432
391.175	17.773	816.163	621.262
392.190	17.755	815.720	620.804
393.205	17.604	815.266	619.856
394.219	17.646	815.141	619.861
395.234	17.571	814.832	619.298
396.248	17.507	814.340	618.635
397.263	17.591	813.521	618.262
398.278	17.586	813.546	618.210
399.292	17.578	812.805	617.561
400.307	17.597	812.440	617.300
401.321	17.767	811.879	617.432
402.336	17.748	811.183	616.780
403.350	17.750	810.838	616.473
404.365	17.851	810.678	616.660
405.380	17.930	809.881	616.286
406.394	17.961	809.489	616.044
407.409	17.884	809.288	615.560
408.423	18.053	808.785	615.729
409.438	18.017	808.529	615.352
410.453	18.131	808.093	615.377
411.467	18.062	807.174	614.372
412.482	18.179	807.186	614.750
413.496	18.267	806.920	614.807
414.511	18.088	806.728	613.965
415.526	18.039	806.119	613.270
416.540	18.014	805.605	612.734
417.555	18.123	805.160	612.734
418.569	18.167	804.598	612.408
419.584	18.234	804.059	612.185
420.599	18.288	803.718	612.063
421.613	153.630	1370.663	1790.952
422.628	133.226	1453.272	1791.052
