DTS Sentinel unit serial number:	SN413079Multiplexer serial number:	ORYXHardware model number:	OX4-SRSoftware version number:	ORYX F/W v4.00 Oryx Data Collector v3.7.2.0data status	okinstallation	princeton_trtdifferential loss correction	single-endedforward channel	channel 1reverse channel	N/Adate	2019/09/12time	10:08:11forward acquisition time	60.00reverse acquisition time	0.00gamma	496.2192k internal	0.2299k external	0.2299temperature offset calibration	1.0047default loss term (dB/km)	0.3790temperature slope calibration	1.0000multiplexer offset coefficient	1.0000multiplexer slope coefficient	1.0000fibre end	0.00T internal ref (°C)	36.37T ext. ref 1 (°C)	1.87T ext. ref 2 (°C)	33.31length (m)	temperature (°C)	Stokes	anti-Stokes-747.200	-200.000	-0.011	-0.053
-746.185	111.199	0.272	0.334
-745.171	203.604	0.083	-0.131
-744.156	84.224	-0.288	0.322
-743.142	351.896	0.029	0.058
-742.127	-200.000	0.007	-0.050
-741.112	428.403	0.112	0.247
-740.098	-69.476	-0.268	-0.105
-739.083	-200.000	-0.063	-0.306
-738.069	496.590	-0.078	-0.183
-737.054	-53.286	-0.099	0.046
-736.039	71.588	-0.195	-0.206
-735.025	800.000	0.065	-0.195
-734.010	-23.931	-0.150	-0.091
-732.996	479.539	-0.097	-0.224
-731.981	562.185	0.054	0.134
-730.966	-64.832	0.191	-0.079
-729.952	-66.537	0.027	0.011
-728.937	-93.322	0.366	-0.104
-727.923	-54.246	-0.456	-0.211
-726.908	217.355	-0.218	-0.354
-725.894	-95.749	0.298	0.081
-724.879	-200.000	-0.023	-0.168
-723.864	-125.064	0.227	0.036
-722.850	-85.083	-0.146	-0.047
-721.835	113.794	0.185	-0.229
-720.821	-200.000	0.007	0.154
-719.806	205.996	-0.032	-0.051
-718.791	-11.424	-0.128	-0.086
-717.777	57.530	-0.216	-0.215
-716.762	-60.641	0.292	-0.126
-715.748	-52.075	-0.319	0.151
-714.733	-14.597	0.200	-0.131
-713.718	-142.107	0.067	-0.007
-712.704	-76.026	-0.019	0.007
-711.689	800.000	0.059	-0.234
-710.675	118.059	-0.128	-0.161
-709.660	-57.740	-0.272	0.121
-708.645	800.000	-0.019	0.083
-707.631	-42.899	0.198	-0.103
-706.616	-62.016	0.119	-0.051
-705.602	102.100	-0.076	-0.091
-704.587	800.000	0.151	-0.457
-703.572	-64.637	0.251	0.104
-702.558	-77.468	0.114	-0.040
-701.543	-200.000	-0.046	0.265
-700.529	800.000	-0.049	0.196
-699.514	-200.000	-0.007	-0.345
-698.499	-135.691	-0.351	-0.042
-697.485	-6.256	-0.098	-0.068
-696.470	-200.000	-0.012	-0.238
-695.456	99.334	0.079	-0.093
-694.441	-37.425	-0.291	0.158
-693.426	-180.026	-0.158	-0.003
-692.412	-200.000	-0.036	-0.177
-691.397	-117.641	-0.230	0.042
-690.383	800.000	0.073	-0.225
-689.368	390.636	0.069	0.145
-688.354	339.725	0.018	-0.036
-687.339	-112.779	0.200	0.041
-686.324	-200.000	-0.045	-0.249
-685.310	-69.607	-0.142	0.055
-684.295	-48.255	-0.114	0.056
-683.281	276.839	0.046	-0.083
-682.266	18.638	-0.106	0.086
-681.251	-93.514	-0.472	0.133
-680.237	321.272	0.143	-0.276
-679.222	-72.742	0.118	-0.044
-678.208	800.000	0.094	-0.299
-677.193	-78.981	-0.169	0.059
-676.178	-200.000	0.041	-0.218
-675.164	99.542	-0.240	-0.283
-674.149	-57.704	-0.223	0.100
-673.135	-69.216	-0.237	0.093
-672.120	508.674	0.132	-0.313
-671.105	154.775	0.152	-0.212
-670.091	34.408	0.082	0.072
-669.076	79.122	-0.071	-0.078
-668.062	84.816	-0.085	-0.094
-667.047	-98.554	0.268	0.070
-666.032	143.218	0.124	-0.168
-665.018	-200.000	-0.072	-0.347
-664.003	95.393	0.170	-0.197
-662.989	283.029	-0.080	0.146
-661.974	172.511	0.179	-0.262
-660.959	559.651	-0.104	0.255
-659.945	-102.005	0.221	0.054
-658.930	28.324	0.266	0.229
-657.916	-121.911	-0.103	-0.017
-656.901	441.862	0.158	0.352
-655.886	-87.924	-0.066	0.020
-654.872	-41.910	0.198	-0.103
-653.857	96.961	-0.288	-0.335
-652.843	-78.561	-0.124	-0.043
-651.828	800.000	0.085	-0.279
-650.814	-200.000	-0.026	0.183
-649.799	-200.000	0.014	-0.092
-648.784	369.638	-0.166	0.342
-647.770	-126.554	0.075	0.011
-646.755	43.940	-0.144	-0.134
-645.741	-200.000	-0.014	0.250
-644.726	260.958	-0.128	0.226
-643.711	800.000	0.125	0.472
-642.697	144.945	-0.211	0.287
-641.682	-200.000	-0.025	0.279
-640.668	-56.316	-0.284	-0.128
-639.653	-47.024	-0.479	-0.238
-638.638	-200.000	-0.029	0.133
-637.624	-129.886	0.134	0.019
-636.609	-38.184	0.108	-0.058
-635.595	-29.992	0.176	0.102
-634.580	-9.010	0.139	0.094
-633.565	-200.000	0.024	0.139
-632.551	687.168	-0.037	0.097
-631.536	-200.000	0.022	-0.139
-630.522	189.188	-0.213	-0.324
-629.507	-200.000	0.043	-0.208
-628.492	10.474	0.230	-0.178
-627.478	12.012	-0.218	-0.170
-626.463	9.472	0.025	-0.019
-625.449	-144.467	0.380	-0.036
-624.434	-200.000	0.019	-0.135
-623.419	-76.492	0.081	-0.029
-622.405	-112.301	-0.265	0.054
-621.390	800.000	-0.044	0.187
-620.376	85.305	0.099	-0.111
-619.361	-200.000	-0.014	-0.089
-618.346	63.157	0.167	-0.170
-617.332	217.420	0.109	0.177
-616.317	289.999	0.055	-0.101
-615.303	-200.000	-0.065	-0.457
-614.288	274.699	0.021	-0.038
-613.273	-171.124	-0.052	0.002
-612.259	-54.004	-0.243	-0.112
-611.244	54.120	0.110	0.108
-610.230	106.765	-0.086	0.103
-609.215	-18.917	-0.097	0.061
-608.201	207.040	0.122	-0.193
-607.186	-62.977	-0.120	0.050
-606.171	523.492	0.048	-0.114
-605.157	435.670	0.106	-0.233
-604.142	-122.642	0.293	0.048
-603.128	136.794	0.098	-0.130
-602.113	-150.603	-0.136	0.011
-601.098	13.090	-0.113	-0.089
-600.084	644.545	-0.101	0.262
-599.069	-151.525	-0.166	-0.012
-598.055	-200.000	0.008	0.038
-597.040	-200.000	-0.009	0.088
-596.025	-109.530	-0.136	0.029
-595.011	563.639	0.071	-0.173
-593.996	564.640	-0.069	0.168
-592.982	-1.764	0.159	-0.113
-591.967	-8.174	0.207	0.141
-590.952	57.640	-0.065	0.064
-589.938	428.548	0.144	-0.317
-588.923	33.484	-0.325	0.287
-587.909	-62.853	-0.145	0.061
-586.894	182.313	-0.116	0.173
-585.879	800.000	-0.041	0.149
-584.865	84.587	-0.143	0.159
-583.850	-28.058	-0.251	0.147
-582.836	-134.432	0.099	-0.012
-581.821	-17.147	0.308	0.197
-580.806	10.720	-0.187	0.145
-579.792	268.690	-0.161	0.286
-578.777	582.009	-0.022	-0.055
-577.763	231.086	0.095	0.157
-576.748	11.639	-0.219	-0.170
-575.733	498.616	0.013	-0.031
-574.719	-98.343	0.329	-0.086
-573.704	-200.000	-0.377	0.000
-572.690	-200.000	0.018	-0.229
-571.675	-200.000	0.017	0.177
-570.661	270.008	-0.031	-0.055
-569.646	0.388	-0.028	-0.020
-568.631	-57.118	-0.026	0.012
-567.617	128.238	-0.157	0.202
-566.602	800.000	-0.103	0.323
-565.588	-101.249	0.083	0.021
-564.573	-122.980	0.146	-0.024
-563.558	-78.031	0.235	-0.082
-562.544	75.498	0.218	-0.234
-561.529	143.026	0.128	0.172
-560.515	-14.713	0.299	-0.195
-559.500	-200.000	0.032	0.361
-558.485	-92.692	-0.107	0.030
-557.471	91.188	-0.184	0.210
-556.456	-43.271	-0.037	0.019
-555.442	800.000	0.058	0.175
-554.427	-0.867	0.266	-0.191
-553.412	-200.000	0.029	-0.194
-552.398	531.262	0.105	-0.250
-551.383	105.405	-0.067	0.080
-550.369	142.896	-0.191	0.257
-549.354	-200.000	-0.253	-0.000
-548.339	800.000	0.034	0.128
-547.325	-14.009	-0.257	-0.168
-546.310	537.650	-0.096	0.232
-545.296	-22.369	-0.272	0.167
-544.281	-77.633	-0.196	0.069
-543.266	-200.000	0.007	-0.260
-542.252	305.660	-0.143	0.269
-541.237	-200.000	-0.022	-0.216
-540.223	18.712	0.143	-0.116
-539.208	-52.545	0.520	-0.243
-538.193	267.502	0.054	-0.095
-537.179	-46.643	-0.124	-0.062
-536.164	-200.000	0.047	0.313
-535.150	-123.968	0.312	0.050
-534.135	-68.619	-0.119	0.047
-533.121	-100.392	0.113	0.028
-532.106	-134.910	-0.228	-0.028
-531.091	493.913	-0.171	-0.397
-530.077	-93.592	-0.375	-0.105
-529.062	-200.000	-0.003	-0.069
-528.048	800.000	-0.102	-0.315
-527.033	-200.000	-0.050	-0.237
-526.018	61.832	-0.121	-0.122
-525.004	-48.440	-0.241	-0.118
-523.989	361.059	-0.189	0.383
-522.975	800.000	0.012	0.048
-521.960	-128.741	0.309	0.044
-520.945	240.807	-0.027	0.046
-519.931	-146.978	-0.178	0.015
-518.916	-200.000	0.001	0.046
-517.902	800.000	0.066	-0.215
-516.887	493.988	-0.071	0.164
-515.872	-155.721	0.270	0.018
-514.858	310.245	0.087	-0.165
-513.843	-95.523	-0.094	-0.025
-512.829	-200.000	-0.143	-0.001
-511.814	-200.000	-0.026	-0.122
-510.799	-112.962	0.287	0.057
-509.785	-200.000	0.018	-0.243
-508.770	379.517	-0.174	0.360
-507.756	652.230	-0.035	0.090
-506.741	81.178	0.146	0.160
-505.726	314.440	-0.113	-0.215
-504.712	-83.844	0.094	-0.030
-503.697	68.530	0.245	0.254
-502.683	124.575	-0.396	-0.504
-501.668	-110.198	0.118	-0.025
-500.653	-19.181	-0.188	-0.118
-499.639	800.000	0.098	0.295
-498.624	99.857	0.067	0.078
-497.610	26.720	-0.260	0.220
-496.595	-200.000	-0.003	-0.026
-495.581	800.000	0.141	-0.487
-494.566	-30.574	-0.176	0.101
-493.551	800.000	0.092	-0.282
-492.537	-200.000	0.028	-0.140
-491.522	-37.443	0.210	-0.114
-490.508	-9.532	0.285	0.192
-489.493	163.037	-0.105	-0.148
-488.478	78.119	-0.161	-0.173
-487.464	-32.263	0.138	0.078
-486.449	800.000	0.033	-0.124
-485.435	762.707	-0.042	-0.116
-484.420	-106.310	0.419	0.095
-483.405	800.000	-0.043	-0.157
-482.391	582.636	0.103	-0.255
-481.376	-137.158	-0.139	0.016
-480.362	-12.699	0.283	0.186
-479.347	52.244	0.203	-0.195
-478.332	112.307	-0.101	-0.124
-477.318	-200.000	0.008	0.122
-476.303	-68.273	-0.175	-0.069
-475.289	800.000	-0.033	0.111
-474.274	219.686	-0.144	0.234
-473.259	-162.187	0.379	0.019
-472.245	-126.733	0.204	-0.030
-471.230	-131.725	-0.492	0.065
-470.216	-144.001	-0.144	0.014
-469.201	-200.000	-0.018	-0.098
-468.186	-200.000	0.040	0.287
-467.172	118.617	0.072	-0.090
-466.157	251.777	-0.194	0.333
-465.143	-65.867	-0.176	-0.071
-464.128	554.113	0.075	0.181
-463.113	199.799	0.148	0.230
-462.099	-96.044	0.321	-0.086
-461.084	207.741	-0.132	-0.208
-460.070	-3.798	-0.172	0.121
-459.055	-200.000	-0.031	-0.188
-458.040	42.183	0.163	0.149
-457.026	800.000	-0.015	0.047
-456.011	-72.860	-0.345	-0.128
-454.997	-40.410	0.222	-0.116
-453.982	-200.000	0.016	-0.186
-452.968	372.538	-0.047	-0.096
-451.953	-23.183	-0.369	-0.224
-450.938	-73.305	-0.266	0.098
-449.924	406.889	-0.031	-0.067
-448.909	661.218	-0.106	-0.275
-447.895	-200.000	-0.029	0.287
-446.880	-146.562	0.188	0.016
-445.865	-51.016	-0.250	0.118
-444.851	800.000	-0.036	0.142
-443.836	800.000	0.194	0.571
-442.822	24.856	0.272	0.227
-441.807	-25.079	0.153	-0.091
-440.792	118.803	0.128	0.159
-439.778	436.419	0.089	-0.195
-438.763	18.064	-0.333	-0.268
-437.749	-142.406	-0.121	0.012
-436.734	-67.500	0.293	0.116
-435.719	108.758	-0.117	-0.141
-434.705	133.959	-0.205	0.268
-433.690	11.031	0.142	0.109
-432.676	-190.592	-0.178	0.002
-431.661	100.119	-0.133	0.155
-430.646	-49.090	0.249	0.120
-429.632	89.389	-0.075	0.084
-428.617	-151.789	0.152	0.011
-427.603	102.053	-0.145	0.170
-426.588	176.679	0.153	0.225
-425.573	-200.000	0.014	-0.200
-424.559	-200.000	-0.006	-0.229
-423.544	228.708	-0.073	0.120
-422.530	-162.650	-0.246	-0.012
-421.515	-59.598	0.174	0.075
-420.500	-200.000	-0.068	-0.493
-419.486	-175.805	0.236	0.006
-418.471	800.000	-0.049	0.159
-417.457	-111.211	-0.113	0.023
-416.442	60.303	-0.215	0.214
-415.428	417.167	-0.107	-0.229
-414.413	-55.534	0.063	-0.028
-413.398	-64.338	0.072	0.030
-412.384	-165.629	-0.224	0.010
-411.369	-134.274	-0.244	0.030
-410.355	-143.277	-0.368	0.036
-409.340	-41.262	0.210	0.109
-408.325	-119.546	-0.102	0.018
-407.311	-200.000	0.016	0.077
-406.296	800.000	0.044	0.122
-405.282	-89.763	0.201	-0.059
-404.267	182.638	-0.035	0.052
-403.252	-41.292	-0.286	-0.148
-402.238	-147.164	-0.166	-0.014
-401.223	12.091	-0.268	-0.207
-400.209	-187.860	-0.169	0.002
-399.194	358.438	-0.159	-0.321
-398.179	306.684	0.193	-0.361
-397.165	-111.269	0.159	-0.033
-396.150	-115.742	0.256	0.048
-395.136	155.926	0.131	0.181
-394.121	-200.000	0.038	0.204
-393.106	-111.935	0.435	-0.088
-392.092	-182.724	0.089	0.002
-391.077	-200.000	0.053	-0.266
-390.063	-143.545	-0.184	-0.018
-389.048	12.049	-0.025	-0.019
-388.033	547.289	0.095	0.229
-387.019	501.728	-0.123	0.285
-386.004	47.322	0.259	0.243
-384.990	129.218	-0.224	-0.288
-383.975	-43.283	0.103	-0.052
-382.960	-33.644	0.246	-0.137
-381.946	-27.961	-0.218	-0.127
-380.931	95.051	-0.175	-0.200
-379.917	-181.310	-0.165	-0.003
-378.902	800.000	0.080	-0.294
-377.888	800.000	0.060	0.192
-376.873	-108.241	0.183	-0.040
-375.858	-200.000	-0.022	-0.151
-374.844	-139.339	0.126	0.014
-373.829	379.481	-0.090	0.186
-372.815	800.000	0.061	0.195
-371.800	-200.000	0.004	0.239
-370.785	-200.000	0.002	0.487
-369.771	-13.749	-0.241	0.157
-368.756	-104.536	-0.146	-0.034
-367.742	800.000	0.075	0.281
-366.727	394.408	0.060	0.125
-365.712	68.879	0.189	0.195
-364.698	528.763	0.058	0.138
-363.683	-62.787	-0.365	-0.152
-362.669	800.000	0.120	0.369
-361.654	800.000	-0.047	0.173
-360.639	174.175	-0.246	0.358
-359.625	77.891	-0.096	-0.103
-358.610	-30.469	-0.160	0.091
-357.596	-39.723	0.285	0.150
-356.581	-98.459	0.184	0.047
-355.566	43.017	-0.145	-0.133
-354.552	-108.785	-0.012	0.003
-353.537	-74.823	0.348	-0.125
-352.523	181.751	-0.133	-0.196
-351.508	-92.504	0.042	-0.012
-350.493	-200.000	0.034	-0.233
-349.479	-139.446	-0.189	0.020
-348.464	-200.000	-0.071	0.000
-347.450	800.000	0.021	0.081
-346.435	-126.815	0.277	0.041
-345.420	697.801	-0.152	-0.402
-344.406	85.016	0.071	0.078
-343.391	50.203	0.120	-0.114
-342.377	238.811	-0.088	-0.147
-341.362	21.617	-0.152	-0.124
-340.348	-82.051	-0.229	-0.075
-339.333	-24.190	0.123	-0.074
-338.318	-118.255	0.259	0.046
-337.304	-79.389	-0.184	0.062
-336.289	270.476	0.037	-0.066
-335.275	-83.454	-0.083	-0.027
-334.260	-101.862	0.407	-0.099
-333.245	111.758	-0.212	-0.257
-332.231	378.430	-0.124	-0.255
-331.216	-95.156	0.099	-0.027
-330.202	-119.947	-0.112	0.019
-329.187	-200.000	-0.032	-0.245
-328.172	-8.595	-0.201	0.136
-327.158	79.110	-0.201	0.217
-326.143	-126.876	-0.165	-0.024
-325.129	-14.657	0.211	0.136
-324.114	-88.798	0.372	0.111
-323.099	282.281	0.049	0.088
-322.085	-37.143	-0.284	0.152
-321.070	83.291	0.036	0.039
-320.056	243.250	0.192	0.324
-319.041	-200.000	0.001	0.372
-318.026	-99.341	0.091	0.023
-317.012	183.875	-0.106	-0.157
-315.997	28.180	0.274	0.232
-314.983	-61.372	0.282	-0.119
-313.968	800.000	0.052	0.212
-312.953	-162.373	-0.056	0.003
-311.939	232.905	-0.198	-0.327
-310.924	-78.537	0.161	-0.055
-309.910	12.704	-0.163	0.126
-308.895	-200.000	0.051	-0.230
-307.880	-102.576	-0.071	-0.017
-306.866	62.929	0.058	-0.058
-305.851	212.034	-0.048	-0.076
-304.837	671.536	-0.130	-0.338
-303.822	188.922	-0.088	0.132
-302.807	-200.000	-0.074	-0.469
-301.793	-200.000	-0.042	0.253
-300.778	-200.000	-0.015	0.070
-299.764	-200.000	-0.007	-0.257
-298.749	194.619	0.090	0.137
-297.735	176.192	0.136	-0.198
-296.720	3.518	0.063	0.046
-295.705	166.237	0.086	0.122
-294.691	71.041	0.029	-0.030
-293.676	-200.000	0.022	-0.298
-292.662	800.000	0.072	0.277
-291.647	-131.899	0.090	-0.012
-290.632	-200.000	0.089	-0.441
-289.618	415.434	-0.034	0.073
-288.603	466.692	0.015	-0.033
-287.589	-164.356	0.071	-0.003
-286.574	-99.741	0.022	-0.006
-285.559	-200.000	-0.043	-0.273
-284.545	800.000	-0.020	-0.076
-283.530	88.013	0.019	-0.022
-282.516	126.275	0.130	0.165
-281.501	-107.144	0.242	0.054
-280.486	-62.170	-0.175	-0.073
-279.472	22.890	-0.094	-0.078
-278.457	800.000	-0.106	-0.299
-277.443	-90.330	0.148	-0.043
-276.428	251.810	-0.060	0.103
-275.413	501.154	-0.091	0.211
-274.399	-94.954	0.378	-0.102
-273.384	-89.991	-0.622	-0.182
-272.370	-75.947	-0.071	-0.025
-271.355	-82.894	-0.088	-0.028
-270.340	544.016	0.007	0.016
-269.326	-83.939	0.143	-0.046
-268.311	800.000	0.047	0.156
-267.297	83.847	-0.249	0.272
-266.282	79.233	0.129	-0.138
-265.267	598.220	-0.054	-0.134
-264.253	156.666	0.066	0.091
-263.238	-186.753	-0.264	-0.004
-262.224	271.302	-0.054	-0.094
-261.209	-73.508	0.087	0.032
-260.195	150.945	0.320	-0.436
-259.180	136.511	-0.111	-0.144
-258.165	103.167	-0.199	-0.233
-257.151	-81.486	-0.250	-0.083
-256.136	52.418	0.198	-0.189
-255.122	-200.000	0.021	0.160
-254.107	19.930	-0.290	0.234
-253.092	-38.478	0.267	-0.141
-252.078	149.225	-0.112	0.152
-251.063	800.000	-0.074	-0.232
-250.049	800.000	0.077	0.310
-249.034	-104.136	-0.327	0.076
-248.019	299.715	-0.055	0.101
-247.005	167.853	-0.135	0.192
-245.990	426.658	0.101	0.217
-244.976	-38.534	0.181	-0.096
-243.961	-200.000	-0.010	0.309
-242.946	37.819	0.118	-0.105
-241.932	190.219	0.135	0.203
-240.917	163.665	-0.195	-0.274
-239.903	34.320	-0.058	0.051
-238.888	-183.698	0.295	0.005
-237.873	624.133	-0.075	0.190
-236.859	-69.357	0.094	0.036
-235.844	193.286	0.022	-0.034
-234.830	-147.117	0.227	0.019
-233.815	-128.483	-0.204	0.029
-232.800	148.079	0.088	-0.118
-231.786	10.037	-0.289	0.220
-230.771	143.264	0.031	0.042
-229.757	122.715	0.064	-0.080
-228.742	91.649	-0.139	0.156
-227.727	-88.864	0.268	-0.079
-226.713	339.584	-0.116	0.226
-225.698	-200.000	-0.008	-0.276
-224.684	106.097	0.021	-0.024
-223.669	213.241	0.137	-0.216
-222.655	800.000	0.095	-0.278
-221.640	-122.239	0.130	0.021
-220.625	433.931	-0.078	0.168
-219.611	12.660	0.256	0.198
-218.596	-59.125	0.190	-0.082
-217.582	-200.000	-0.009	-0.298
-216.567	800.000	-0.042	0.164
-215.552	-67.814	0.180	-0.070
-214.538	800.000	-0.118	-0.360
-213.523	-200.000	-0.031	0.393
-212.509	-200.000	-0.009	-0.041
-211.494	800.000	-0.131	-0.372
-210.479	-137.634	-0.075	0.008
-209.465	-78.826	0.232	0.079
-208.450	24.379	-0.402	-0.332
-207.436	46.518	-0.238	0.221
-206.421	-200.000	0.035	-0.195
-205.406	-18.881	-0.315	-0.196
-204.392	355.221	-0.159	-0.316
-203.377	460.445	0.104	-0.231
-202.363	201.041	0.180	-0.277
-201.348	-120.577	0.145	-0.025
-200.333	-200.000	-0.045	-0.359
-199.319	-200.000	0.003	-0.206
-198.304	-39.504	0.319	0.167
-197.290	-47.560	0.217	-0.105
-196.275	-36.698	0.426	-0.229
-195.260	133.639	0.068	0.088
-194.246	-37.548	-0.099	-0.053
-193.231	169.395	-0.168	0.240
-192.217	726.320	-0.051	0.136
-191.202	800.000	0.059	-0.233
-190.187	26.090	0.066	-0.055
-189.173	-200.000	-0.015	-0.193
-188.158	-195.281	0.119	0.001
-187.144	-200.000	0.002	-0.149
-186.129	-200.000	0.022	0.166
-185.114	-200.000	-0.005	-0.100
-184.100	-200.000	-0.023	-0.196
-183.085	-123.786	-0.194	-0.031
-182.071	62.702	0.199	-0.199
-181.056	79.551	0.185	-0.198
-180.042	-30.962	0.193	-0.109
-179.027	430.001	0.166	0.358
-178.012	-11.641	0.162	0.106
-176.998	-200.000	-0.020	0.418
-175.983	800.000	-0.042	0.129
-174.969	501.879	-0.120	0.278
-173.954	118.372	0.179	0.221
-172.939	-50.462	-0.101	-0.048
-171.925	800.000	-0.048	0.170
-170.910	800.000	-0.052	-0.162
-169.896	528.573	0.134	-0.317
-168.881	-200.000	-0.020	0.411
-167.866	56.109	0.205	0.199
-166.852	185.191	0.159	0.235
-165.837	8.759	0.324	0.244
-164.823	-200.000	-0.047	-0.326
-163.808	800.000	0.033	0.111
-162.793	-200.000	0.058	0.499
-161.779	-200.000	0.185	-0.000
-160.764	-134.004	0.247	0.031
-159.750	-53.954	-0.074	-0.034
-158.735	366.882	0.037	-0.075
-157.720	50.209	0.016	-0.015
-156.706	-101.907	0.270	0.065
-155.691	139.473	0.099	0.131
-154.677	-27.530	-0.369	0.214
-153.662	654.594	0.129	-0.330
-152.647	532.544	0.094	0.223
-151.633	-200.000	0.008	0.276
-150.618	-200.000	0.030	-0.133
-149.604	-80.253	0.622	0.208
-148.589	-96.819	0.288	0.075
-147.574	718.756	0.074	-0.197
-146.560	-105.819	-0.177	-0.040
-145.545	-200.000	-0.004	0.119
-144.531	-200.000	0.060	-0.304
-143.516	28.279	0.104	-0.087
-142.502	144.838	-0.084	0.112
-141.487	-200.000	-0.046	0.221
-140.472	800.000	0.024	-0.070
-139.458	28.385	-0.147	0.124
-138.443	-157.564	0.075	0.004
-137.429	-5.053	-0.283	0.194
-136.414	-200.000	-0.036	-0.247
-135.399	800.000	0.052	-0.209
-134.385	76.056	0.193	0.203
-133.370	171.218	0.109	-0.156
-132.356	-200.000	-0.025	-0.253
-131.341	797.566	0.083	0.227
-130.326	43.688	0.164	0.149
-129.312	-124.963	-0.152	0.023
-128.297	-0.321	-0.334	0.236
-127.283	800.000	0.097	-0.341
-126.268	-56.236	-0.445	0.197
-125.253	-200.000	-0.013	0.322
-124.239	-200.000	-0.004	0.000
-123.224	-200.000	0.027	0.221
-122.210	620.674	0.227	0.569
-121.195	91.699	0.111	-0.124
-120.180	143.163	0.145	-0.192
-119.166	42.623	-0.185	-0.168
-118.151	657.037	0.064	-0.163
-117.137	800.000	0.022	-0.064
-116.122	254.725	0.135	0.231
-115.107	-200.000	-0.014	0.092
-114.093	226.934	-0.097	0.158
-113.078	-135.890	-0.121	0.014
-112.064	-200.000	0.022	0.098
-111.049	148.617	0.112	0.151
-110.034	800.000	0.069	0.212
-109.020	-200.000	-0.024	-0.204
-108.005	-146.402	-0.155	-0.014
-106.991	184.934	0.063	-0.093
-105.976	81.734	-0.235	-0.253
-104.962	151.424	0.037	0.051
-103.947	-200.000	-0.033	-0.227
-102.932	-68.510	0.216	0.083
-101.918	-89.125	-0.180	-0.053
-100.903	-200.000	0.012	0.136
-99.889	800.000	-0.053	-0.163
-98.874	-67.393	0.612	-0.239
-97.859	248.758	0.155	-0.262
-96.845	-200.000	0.042	0.193
-95.830	-132.914	0.285	-0.036
-94.816	-108.305	0.135	-0.029
-93.801	800.000	-0.036	-0.104
-92.786	-5.024	0.071	-0.049
-91.772	-61.718	-0.173	-0.072
-90.757	-30.323	0.269	0.152
-89.743	3.916	0.118	0.086
-88.728	-64.964	0.158	-0.063
-87.713	-40.155	0.093	-0.048
-86.699	-96.183	0.180	0.047
-85.684	405.245	-0.128	0.269
-84.670	-200.000	-0.016	-0.079
-83.655	116.275	-0.172	-0.210
-82.640	215.010	-0.100	-0.157
-81.626	-14.635	-0.192	-0.123
-80.611	-178.907	0.534	0.012
-79.597	-18.944	0.137	0.085
-78.582	-53.466	-0.213	-0.097
-77.567	31.887	0.120	0.103
-76.553	280.073	-0.005	-0.009
-75.538	-200.000	0.005	-0.078
-74.524	141.943	-0.031	0.041
-73.509	-77.879	-0.356	-0.122
-72.494	-53.874	-0.080	0.036
-71.480	17.868	-0.262	-0.208
-70.465	96.971	-0.158	-0.180
-69.451	-57.833	0.240	0.104
-68.436	156.213	-0.157	0.215
-67.422	-3.843	-0.083	-0.057
-66.407	-200.000	0.029	0.140
-65.392	-68.118	-0.115	-0.045
-64.378	-86.205	-0.250	0.077
-63.363	173.206	0.099	-0.142
-62.349	-93.811	-0.291	-0.080
-61.334	212.599	-0.523	-0.819
-60.319	-15.816	0.519	0.329
-59.305	-200.000	0.024	-1.046
-58.290	91.953	0.582	0.651
-57.276	800.000	0.614	1.729
-56.261	-200.000	89.150	500.350
-55.246	456.465	1394.489	3074.676
-54.232	146.083	2607.851	3475.140
-53.217	110.610	2209.593	2639.171
-52.203	47.273	1654.312	1530.220
-51.188	39.633	1385.992	1234.387
-50.173	36.530	1342.064	1176.368
-49.159	55.706	1387.763	1335.509
-48.144	60.331	1405.959	1381.578
-47.130	40.254	1362.659	1217.237
-46.115	36.456	1345.160	1178.445
-45.100	36.312	1340.391	1173.344
-44.086	36.323	1337.620	1170.935
-43.071	36.157	1335.802	1168.291
-42.057	36.206	1333.344	1166.396
-41.042	36.138	1331.649	1164.455
-40.027	36.318	1329.639	1163.733
-39.013	36.204	1328.021	1161.586
-37.998	36.348	1325.773	1160.443
-36.984	36.436	1323.864	1159.250
-35.969	36.271	1322.518	1157.036
-34.954	36.445	1320.387	1156.169
-33.940	36.460	1319.110	1155.094
-32.925	36.558	1317.896	1154.569
-31.911	36.545	1316.023	1152.805
-30.896	36.482	1314.975	1151.469
-29.881	36.405	1313.695	1149.846
-28.867	36.474	1312.268	1148.961
-27.852	36.549	1310.228	1147.571
-26.838	36.461	1309.144	1146.057
-25.823	36.484	1307.889	1145.046
-24.809	36.444	1306.171	1143.263
-23.794	36.530	1304.882	1142.597
-22.779	36.504	1303.620	1141.295
-21.765	36.596	1301.982	1140.354
-20.750	36.379	1301.478	1138.592
-19.736	36.414	1299.659	1137.158
-18.721	36.328	1297.954	1135.118
-17.706	36.292	1297.340	1134.323
-16.692	36.339	1296.149	1133.512
-15.677	36.336	1294.974	1132.422
-14.663	36.225	1293.926	1130.813
-13.648	36.222	1292.785	1129.751
-12.633	36.347	1291.448	1129.267
-11.619	36.257	1290.926	1128.240
-10.604	36.235	1289.942	1127.211
-9.590	36.265	1288.781	1126.323
-8.575	36.358	1287.725	1125.900
-7.560	36.325	1287.039	1125.061
-6.546	36.224	1286.701	1124.134
-5.531	36.250	1285.344	1123.055
-4.517	36.305	1284.011	1122.165
-3.502	36.296	1283.440	1121.567
-2.487	36.268	1282.653	1120.675
-1.473	36.462	1278.321	1117.966
-0.458	35.289	1264.004	1098.683
0.556	31.989	1245.383	1060.455
1.571	28.180	1250.240	1042.839
2.586	27.117	1265.470	1049.310
3.600	26.004	1253.828	1033.195
4.615	18.666	1176.794	930.018
5.629	7.320	1095.429	808.093
6.644	2.237	1073.110	766.127
7.659	1.916	1069.965	762.210
8.673	1.746	1069.030	760.626
9.688	1.593	1067.666	758.827
10.702	1.862	1066.138	759.011
11.717	8.278	1075.852	798.022
12.731	19.095	1091.577	864.212
13.746	24.397	1097.875	895.823
14.761	25.124	1098.611	899.992
15.775	25.134	1098.004	899.465
16.790	24.965	1097.362	898.013
17.804	24.832	1096.836	896.836
18.819	24.998	1096.309	897.159
19.834	25.183	1095.655	897.472
20.848	25.182	1095.256	897.060
21.863	25.129	1094.794	896.335
22.877	25.062	1094.393	895.595
23.892	25.033	1093.332	894.502
24.907	25.199	1092.508	894.577
25.921	25.108	1091.350	893.096
26.936	25.025	1089.998	891.499
27.950	25.050	1088.636	890.429
28.965	24.804	1086.873	887.689
29.980	25.050	1084.832	887.158
30.994	25.284	1084.262	887.772
32.009	25.213	1083.333	886.583
33.023	24.903	1082.512	884.300
34.038	25.058	1081.362	884.047
35.053	25.058	1081.167	883.813
36.067	25.079	1080.165	883.016
37.082	25.223	1078.981	882.681
38.096	25.405	1078.492	883.095
39.111	25.439	1077.809	882.624
40.126	25.251	1076.407	880.479
41.140	24.949	1074.362	877.248
42.155	24.726	1073.051	875.010
43.169	24.831	1072.609	875.084
44.184	24.753	1071.563	873.774
45.199	24.643	1070.394	872.207
46.213	24.676	1070.184	872.120
47.228	24.927	1068.898	872.214
48.242	24.937	1068.499	871.861
49.257	25.050	1067.180	871.256
50.271	25.099	1066.616	870.957
51.286	25.181	1066.199	870.941
52.301	25.201	1064.887	869.886
53.315	25.153	1063.840	868.724
54.330	24.979	1063.281	867.349
55.344	25.154	1062.075	867.130
56.359	25.005	1061.615	865.960
57.374	24.749	1060.605	863.822
58.388	24.851	1059.852	863.625
59.403	24.808	1058.810	862.493
60.417	24.617	1057.777	860.654
61.432	24.860	1057.142	861.231
62.447	24.864	1056.621	860.750
63.461	24.856	1055.777	859.946
64.476	24.796	1054.790	858.781
65.490	24.616	1054.157	857.324
66.505	24.799	1053.272	857.405
67.520	24.855	1052.827	857.236
68.534	24.529	1051.765	854.734
69.549	24.296	1050.389	852.431
70.563	24.402	1049.430	852.080
71.578	24.399	1049.115	851.738
72.593	24.088	1047.818	849.122
73.607	24.253	1047.233	849.363
74.622	24.639	1047.206	851.105
75.636	24.734	1046.135	850.611
76.651	24.537	1045.740	849.278
77.666	24.475	1044.523	847.920
78.680	24.556	1043.918	847.736
79.695	24.500	1043.696	847.217
80.709	24.646	1042.793	847.102
81.724	24.643	1041.717	846.135
82.739	24.707	1041.295	846.022
83.753	25.017	1040.591	846.841
84.768	25.414	1039.800	847.997
85.782	25.366	1039.371	847.345
86.797	25.347	1037.856	845.945
87.812	25.199	1036.703	844.235
88.826	25.349	1036.006	844.298
89.841	25.436	1034.770	843.624
90.855	25.381	1034.441	843.022
91.870	25.346	1033.281	841.838
92.884	25.195	1031.901	839.934
93.899	25.119	1031.038	838.799
94.914	25.234	1030.805	839.077
95.928	25.105	1029.272	837.152
96.943	24.854	1028.402	835.198
97.957	24.796	1026.706	833.478
98.972	24.596	1025.779	831.720
99.987	24.893	1025.061	832.444
101.001	24.999	1024.236	832.193
102.016	24.947	1023.614	831.375
103.030	24.915	1022.628	830.352
104.045	24.831	1021.349	828.849
105.060	24.572	1020.376	826.787
106.074	24.878	1019.848	827.702
107.089	25.179	1019.295	828.570
108.103	25.029	1017.992	826.747
109.118	24.792	1016.922	824.709
110.133	24.846	1015.776	823.957
111.147	24.537	1014.558	821.477
112.162	24.576	1013.371	820.622
113.176	24.787	1013.270	821.436
114.191	24.419	1012.876	819.355
115.206	24.330	1011.523	817.778
116.220	24.312	1010.664	816.930
117.235	24.574	1009.526	817.137
118.249	24.496	1008.962	816.250
119.264	24.372	1008.298	815.077
120.279	24.483	1007.350	814.745
121.293	24.462	1006.816	814.143
122.308	24.554	1005.762	813.639
123.322	24.441	1004.691	812.183
124.337	24.199	1004.104	810.539
125.352	23.783	1001.938	806.830
126.366	23.801	1000.852	805.964
127.381	24.555	1000.878	809.332
128.395	24.853	1000.920	810.648
129.410	24.941	999.633	809.929
130.424	25.069	998.334	809.386
131.439	24.962	997.935	808.507
132.454	25.052	996.540	807.708
133.468	24.921	995.854	806.491
134.483	25.106	994.899	806.480
135.497	25.256	994.334	806.624
136.512	25.384	993.407	806.375
137.527	25.241	993.149	805.454
138.541	25.252	992.290	804.734
139.556	25.253	991.094	803.699
140.570	25.396	990.311	803.634
141.585	25.377	989.280	802.638
142.600	25.378	987.941	801.486
143.614	25.430	987.799	801.533
144.629	25.661	986.862	801.730
145.643	25.518	985.494	799.914
146.658	25.281	984.570	798.039
147.673	25.188	983.221	796.459
148.687	25.023	982.458	795.042
149.702	25.040	980.920	793.799
150.716	24.894	980.847	793.026
151.731	25.231	979.868	793.655
152.746	25.297	979.579	793.640
153.760	25.307	978.709	792.911
154.775	25.591	977.855	793.401
155.789	25.445	977.211	792.165
156.804	25.479	976.294	791.502
157.819	25.367	975.794	790.533
158.833	25.462	975.131	790.345
159.848	25.503	973.746	789.330
160.862	25.438	972.498	787.963
161.877	25.370	971.932	787.138
162.892	25.317	971.162	786.213
163.906	25.192	970.005	784.660
164.921	25.439	968.605	784.536
165.935	25.418	967.932	783.829
166.950	25.372	967.098	782.884
167.964	25.429	965.925	782.114
168.979	25.209	964.996	780.334
169.994	25.237	963.797	779.421
171.008	25.452	963.747	780.246
172.023	25.537	962.560	779.583
173.037	25.255	961.683	777.583
174.052	25.014	960.769	775.731
175.067	25.161	959.852	775.556
176.081	25.276	959.169	775.435
177.096	25.244	958.813	774.941
178.110	24.917	958.060	772.850
179.125	24.724	957.196	771.252
180.140	24.829	956.838	771.348
181.154	25.002	956.519	771.769
182.169	25.333	956.318	772.962
183.183	25.407	956.307	773.204
184.198	25.329	954.947	771.702
185.213	25.311	954.172	770.931
186.227	25.460	953.280	770.782
187.242	25.327	952.797	769.752
188.256	25.538	952.102	770.026
189.271	25.633	951.432	769.821
190.286	25.177	950.097	766.724
191.300	24.605	948.634	763.034
192.315	23.747	947.153	758.114
193.329	23.777	946.427	757.597
194.344	24.804	947.301	762.606
195.359	25.165	947.403	764.163
196.373	25.351	946.999	764.562
197.388	25.198	946.355	763.320
198.402	25.230	945.605	762.786
199.417	25.362	944.997	762.788
200.432	25.069	943.700	760.431
201.446	24.925	942.963	759.159
202.461	24.982	942.611	759.048
203.475	24.049	940.836	753.605
204.490	23.376	939.096	749.301
205.504	24.290	939.646	753.539
206.519	24.716	939.980	755.540
207.534	25.016	939.381	756.256
208.548	25.352	939.297	757.542
209.563	25.129	937.958	755.454
210.577	25.097	936.947	754.437
211.592	25.479	937.059	756.071
212.607	25.448	935.939	754.969
213.621	25.448	935.359	754.433
214.636	25.594	934.690	754.440
215.650	25.508	933.725	753.234
216.665	25.650	933.301	753.421
217.680	25.594	932.198	752.228
218.694	25.039	931.102	748.959
219.709	24.927	930.582	748.007
220.723	25.152	930.492	748.808
221.738	25.190	929.789	748.335
222.753	25.207	929.217	747.876
223.767	25.502	928.565	748.515
224.782	25.537	928.084	748.208
225.796	25.481	927.962	747.810
226.811	24.907	926.373	744.080
227.826	24.255	924.854	740.086
228.840	24.363	924.452	740.147
229.855	24.551	923.386	740.007
230.869	24.187	922.872	738.023
231.884	24.586	922.901	739.631
232.899	25.322	922.912	742.621
233.913	25.315	922.136	741.905
234.928	25.201	921.529	740.876
235.942	25.186	920.822	740.180
236.957	24.833	920.381	738.304
237.972	24.813	919.590	737.523
238.986	24.950	918.715	737.321
240.001	24.987	918.325	737.094
241.015	25.072	917.990	737.111
242.030	25.150	917.718	737.148
243.045	25.304	916.959	737.105
244.059	25.426	916.448	737.131
245.074	25.137	915.594	735.191
246.088	24.847	914.634	733.168
247.103	25.333	914.171	734.722
248.117	25.749	914.190	736.376
249.132	26.016	913.752	737.047
250.147	26.188	913.295	737.316
251.161	26.291	912.653	737.152
252.176	26.141	912.019	735.965
253.190	26.218	912.049	736.239
254.205	26.419	911.086	736.213
255.220	26.391	910.737	735.753
256.234	26.215	909.794	734.211
257.249	26.146	909.066	733.277
258.263	26.158	908.120	732.498
259.278	26.233	908.118	732.737
260.293	26.225	907.323	731.998
261.307	26.117	907.015	731.245
262.322	25.969	905.736	729.550
263.336	25.241	903.475	724.728
264.351	24.238	901.600	719.114
265.366	24.325	901.304	719.166
266.380	25.307	902.396	723.936
267.395	25.807	902.056	725.615
268.409	25.755	901.016	724.502
269.424	25.955	900.937	725.181
270.439	25.962	900.207	724.556
271.453	26.086	899.804	724.667
272.468	26.181	899.537	724.770
273.482	26.319	898.916	724.757
274.497	25.886	897.364	721.709
275.512	25.427	896.835	719.382
276.526	25.814	897.251	721.201
277.541	26.065	896.218	721.310
278.555	25.709	895.828	719.509
279.570	25.740	894.687	718.654
280.585	25.916	894.174	718.881
281.599	25.900	893.204	717.972
282.614	25.329	891.660	714.395
283.628	25.231	891.329	713.677
284.643	25.661	891.066	715.116
285.657	25.245	890.230	712.729
286.672	24.944	889.455	710.848
287.687	25.517	889.310	712.945
288.701	25.547	888.850	712.632
289.716	25.371	887.768	711.006
290.730	25.152	887.170	709.598
291.745	24.887	886.265	707.764
292.760	25.353	885.863	709.219
293.774	26.210	886.472	713.029
294.789	26.504	886.399	714.067
295.803	26.560	885.918	713.836
296.818	26.642	885.038	713.387
297.833	26.121	884.035	710.465
298.847	26.038	883.289	709.479
299.862	26.358	882.977	710.420
300.876	26.461	883.251	710.985
301.891	26.394	882.423	709.993
302.906	25.962	881.211	707.259
303.920	26.248	880.821	708.007
304.935	26.477	880.766	708.797
305.949	26.484	879.995	708.141
306.964	26.247	878.965	706.323
307.979	26.356	878.594	706.385
308.993	26.736	878.483	707.719
310.008	26.631	877.919	706.792
311.022	26.400	876.883	704.994
312.037	26.378	876.532	704.566
313.052	25.807	875.784	701.678
314.066	25.073	873.920	697.270
315.081	24.685	873.451	695.322
316.095	25.612	873.467	698.879
317.110	26.230	873.301	701.085
318.125	25.242	872.105	696.230
319.139	24.202	870.613	690.945
320.154	24.466	869.814	691.275
321.168	25.239	870.291	694.587
322.183	25.864	870.505	697.113
323.197	26.052	870.228	697.555
324.212	26.326	869.414	697.903
325.227	26.394	869.376	698.073
326.241	26.180	868.371	696.378
327.256	25.997	867.739	695.105
328.270	26.064	867.260	694.918
329.285	25.797	866.733	693.405
330.300	25.509	865.370	691.146
331.314	25.771	865.358	692.081
332.329	26.340	864.888	693.830
333.343	26.476	864.675	694.120
334.358	26.356	864.078	693.117
335.373	26.509	863.952	693.544
336.387	26.739	864.027	694.424
337.402	26.686	864.108	694.222
338.416	26.747	863.529	693.930
339.431	26.771	863.246	693.734
340.446	27.083	862.632	694.370
341.460	26.874	862.213	693.173
342.475	26.579	862.001	691.817
343.489	26.912	861.131	692.326
344.504	27.121	860.817	692.809
345.519	27.160	860.765	692.854
346.533	27.256	860.128	692.646
347.548	27.254	859.729	692.258
348.562	27.218	859.061	691.521
349.577	27.057	858.618	690.491
350.592	27.115	857.671	689.888
351.606	26.994	857.286	689.060
352.621	26.949	856.296	688.032
353.635	26.844	855.705	687.097
354.650	26.241	853.972	683.366
355.665	25.259	852.180	678.161
356.679	25.574	852.359	679.435
357.694	26.191	852.124	681.517
358.708	26.187	851.215	680.715
359.723	26.504	851.245	681.871
360.738	26.737	850.690	682.247
361.752	26.886	850.599	682.674
362.767	27.228	850.237	683.607
363.781	27.509	849.867	684.304
364.796	27.593	849.067	683.915
365.810	27.583	849.084	683.830
366.825	27.465	848.724	683.039
367.840	27.267	847.625	681.352
368.854	26.863	846.641	678.990
369.869	26.847	846.226	678.537
370.883	26.952	845.691	678.438
371.898	26.858	845.271	677.693
372.913	26.966	845.197	677.975
373.927	27.019	844.810	677.804
374.942	27.224	844.375	678.159
375.956	27.270	844.072	678.025
376.971	27.477	843.514	678.288
377.986	27.638	842.985	678.403
379.000	27.458	842.659	677.412
380.015	27.345	841.792	676.233
381.029	27.405	841.170	675.898
382.044	27.518	840.815	675.971
383.059	27.373	840.598	675.201
384.073	27.403	839.834	674.637
385.088	27.418	839.242	674.159
386.102	27.175	838.480	672.588
387.117	27.220	837.621	672.005
388.132	26.950	836.122	669.746
389.146	26.394	835.495	667.133
390.161	26.709	835.702	668.403
391.175	27.261	835.111	669.904
392.190	26.829	834.670	667.901
393.205	25.520	832.067	660.952
394.219	24.081	830.265	654.177
395.234	23.991	830.029	653.602
396.248	25.459	831.694	660.253
397.263	27.126	832.321	666.818
398.278	27.083	831.851	666.223
399.292	26.640	831.108	663.944
400.307	26.882	830.433	664.236
401.321	26.826	830.238	663.815
402.336	27.238	830.514	665.486
403.350	27.866	830.009	667.315
404.365	28.069	830.008	668.000
405.380	28.264	829.598	668.321
406.394	28.338	828.935	667.999
407.409	28.146	828.757	667.094
408.423	28.062	828.628	666.625
409.438	28.219	827.965	666.607
410.453	28.375	827.383	666.647
411.467	28.223	827.119	665.821
412.482	28.191	826.522	665.167
413.496	28.244	826.517	665.294
414.511	28.246	826.297	665.066
415.526	28.224	825.546	664.324
416.540	28.007	824.660	662.765
417.555	27.797	823.940	661.366
418.569	28.031	823.465	661.774
419.584	27.890	822.832	660.697
420.599	27.677	822.528	659.623
421.613	102.662	1280.651	1427.171
422.628	88.783	1347.401	1427.292
