DTS Sentinel unit serial number:	SN413079Multiplexer serial number:	ORYXHardware model number:	OX4-SRSoftware version number:	ORYX F/W v4.00 Oryx Data Collector v3.7.2.0data status	okinstallation	princeton_trtdifferential loss correction	single-endedforward channel	channel 1reverse channel	N/Adate	2019/09/11time	11:08:11forward acquisition time	60.00reverse acquisition time	0.00gamma	496.2192k internal	0.2296k external	0.2296temperature offset calibration	0.9954default loss term (dB/km)	0.3790temperature slope calibration	1.0000multiplexer offset coefficient	1.0000multiplexer slope coefficient	1.0000fibre end	0.00T internal ref (°C)	37.44T ext. ref 1 (°C)	0.18T ext. ref 2 (°C)	33.97length (m)	temperature (°C)	Stokes	anti-Stokes-747.200	-200.000	-0.014	-0.167
-746.185	-72.810	-0.085	-0.032
-745.171	-65.245	0.122	0.050
-744.156	69.647	-0.193	0.203
-743.142	-13.479	-0.121	0.080
-742.127	34.582	-0.174	0.155
-741.112	800.000	0.047	0.167
-740.098	-58.337	0.247	0.110
-739.083	148.176	0.084	0.116
-738.069	-90.225	0.247	0.073
-737.054	800.000	-0.020	-0.080
-736.039	33.552	-0.266	-0.236
-735.025	84.844	0.132	-0.147
-734.010	-200.000	0.006	0.282
-732.996	-148.945	-0.239	0.020
-731.981	-200.000	0.012	-0.156
-730.966	-10.211	0.158	-0.107
-729.952	167.060	-0.132	-0.191
-728.937	-149.921	-0.170	0.014
-727.923	-59.428	0.068	-0.030
-726.908	210.795	-0.132	-0.212
-725.894	-126.097	-0.276	0.042
-724.879	110.956	0.115	-0.141
-723.864	8.651	-0.212	0.163
-722.850	87.485	0.142	-0.161
-721.835	800.000	-0.025	-0.103
-720.821	-0.082	-0.043	-0.031
-719.806	-96.621	0.457	0.123
-718.791	-78.372	-0.232	-0.081
-717.777	-200.000	-0.000	0.083
-716.762	-151.475	-0.314	0.024
-715.748	-172.135	-0.172	-0.006
-714.733	117.263	0.056	0.070
-713.718	-42.413	-0.334	-0.174
-712.704	-5.388	0.181	0.127
-711.689	-65.029	0.172	-0.071
-710.675	688.362	0.058	-0.155
-709.660	-136.483	0.222	0.026
-708.645	17.672	0.110	-0.089
-707.631	338.264	-0.147	0.293
-706.616	800.000	-0.023	-0.090
-705.602	-1.781	-0.133	-0.095
-704.587	-32.508	-0.169	0.096
-703.572	769.587	-0.040	0.111
-702.558	-200.000	0.025	0.276
-701.543	-200.000	-0.012	-0.143
-700.529	-138.231	0.089	0.010
-699.514	-69.705	-0.210	0.082
-698.499	800.000	0.089	-0.278
-697.485	140.074	-0.200	-0.270
-696.470	-129.173	-0.300	-0.043
-695.456	219.370	-0.115	0.187
-694.441	214.462	0.168	-0.271
-693.426	-50.169	0.322	0.156
-692.412	-81.804	0.539	-0.180
-691.397	-37.710	-0.165	-0.090
-690.383	53.905	0.189	0.185
-689.368	7.437	0.133	-0.101
-688.354	-25.897	-0.054	-0.033
-687.339	800.000	0.029	0.100
-686.324	-137.284	-0.343	-0.040
-685.310	163.954	-0.169	-0.242
-684.295	5.733	-0.449	0.338
-683.281	-200.000	0.045	0.287
-682.266	-58.103	0.162	0.072
-681.251	275.111	0.163	0.295
-680.237	50.534	-0.315	-0.303
-679.222	212.765	0.096	-0.155
-678.208	-9.995	0.310	0.210
-677.193	-61.524	-0.121	-0.052
-676.178	-4.557	0.093	-0.065
-675.164	32.085	0.126	-0.111
-674.149	-102.232	-0.263	0.065
-673.135	394.359	-0.048	-0.102
-672.120	-114.992	-0.319	-0.062
-671.105	8.005	-0.363	0.277
-670.091	-140.262	0.041	-0.004
-669.076	66.270	0.196	-0.203
-668.062	68.011	-0.150	-0.157
-667.047	-4.824	-0.290	-0.204
-666.032	-71.189	0.190	0.073
-665.018	-200.000	-0.010	0.214
-664.003	-200.000	0.056	-0.260
-662.989	-200.000	0.037	-0.270
-661.974	235.962	0.184	-0.310
-660.959	-114.140	-0.303	-0.060
-659.945	1.090	-0.230	-0.168
-658.930	-118.816	0.353	-0.063
-657.916	800.000	0.057	0.191
-656.901	308.496	0.067	0.127
-655.886	768.021	-0.121	-0.334
-654.872	79.649	0.150	-0.164
-653.857	-126.605	-0.261	-0.039
-652.843	-35.219	0.053	-0.029
-651.828	25.005	0.156	0.132
-650.814	81.308	0.147	-0.161
-649.799	106.616	0.186	0.225
-648.784	-200.000	0.017	0.172
-647.770	274.877	0.029	-0.053
-646.755	-200.000	-0.046	-0.346
-645.741	0.417	-0.177	-0.129
-644.726	800.000	0.028	-0.116
-643.711	-200.000	-0.015	0.116
-642.697	-42.507	0.230	-0.119
-641.682	-40.396	-0.126	0.066
-640.668	317.531	0.052	0.101
-639.653	6.462	-0.257	0.194
-638.638	-104.593	0.264	-0.062
-637.624	-200.000	0.081	-0.429
-636.609	800.000	-0.090	-0.278
-635.595	800.000	-0.063	0.262
-634.580	800.000	0.012	0.050
-633.565	-200.000	0.017	-0.157
-632.551	178.066	-0.038	0.056
-631.536	-119.159	0.110	-0.020
-630.522	-41.038	0.180	-0.094
-629.507	315.931	-0.096	-0.184
-628.492	-129.668	-0.451	-0.063
-627.478	155.029	0.202	0.283
-626.463	-124.656	0.179	-0.028
-625.449	-74.477	-0.207	-0.076
-624.434	-200.000	-0.023	0.143
-623.419	-72.231	-0.330	0.125
-622.405	134.386	0.071	-0.093
-621.390	-178.850	0.144	0.003
-620.376	-97.451	-0.225	0.059
-619.361	88.616	0.114	0.129
-618.346	309.850	-0.088	-0.168
-617.332	-200.000	0.003	0.204
-616.317	11.947	0.058	0.045
-615.303	-200.000	-0.005	-0.232
-614.288	-132.545	-0.053	0.007
-613.273	-200.000	-0.043	0.250
-612.259	67.172	-0.173	0.179
-611.244	590.942	0.058	0.145
-610.230	142.349	0.142	-0.191
-609.215	-5.362	0.241	-0.168
-608.201	-200.000	-0.055	-0.343
-607.186	385.404	0.067	0.140
-606.171	7.301	0.125	0.095
-605.157	-51.707	-0.125	-0.059
-604.142	-41.921	0.168	-0.087
-603.128	-200.000	0.008	-0.050
-602.113	457.841	-0.049	0.111
-601.098	218.930	-0.069	0.112
-600.084	800.000	-0.018	0.076
-599.069	74.187	0.076	0.081
-598.055	311.146	0.077	0.146
-597.040	-114.651	-0.097	0.019
-596.025	-51.674	-0.159	-0.075
-595.011	-62.192	-0.224	0.095
-593.996	-184.527	0.252	0.004
-592.982	238.379	0.089	0.150
-591.967	-79.731	-0.312	-0.107
-590.952	167.240	-0.060	0.087
-589.938	514.053	0.033	-0.079
-588.923	800.000	-0.038	-0.155
-587.909	86.271	-0.213	0.238
-586.894	-59.341	-0.232	0.101
-585.879	-99.583	-0.348	-0.089
-584.865	-24.761	-0.233	0.141
-583.850	800.000	0.125	0.363
-582.836	384.712	-0.046	-0.097
-581.821	-200.000	-0.006	0.090
-580.806	325.945	0.238	-0.463
-579.792	69.068	-0.296	-0.308
-578.777	800.000	-0.047	0.166
-577.763	92.081	0.144	0.165
-576.748	-34.973	0.268	0.148
-575.733	-142.159	0.438	-0.044
-574.719	-102.811	-0.024	0.006
-573.704	-120.733	-0.214	-0.037
-572.690	-40.913	-0.225	-0.118
-571.675	800.000	0.027	-0.075
-570.661	-9.861	0.068	0.046
-569.646	-200.000	-0.038	0.241
-568.631	-200.000	-0.087	-0.508
-567.617	600.235	-0.100	-0.253
-566.602	4.164	-0.160	0.119
-565.588	800.000	-0.115	0.389
-564.573	-76.300	-0.080	-0.029
-563.558	-159.066	-0.168	-0.010
-562.544	7.650	-0.060	-0.046
-561.529	-200.000	-0.173	0.000
-560.515	624.276	-0.021	-0.053
-559.500	154.378	0.206	0.287
-558.485	800.000	-0.017	-0.066
-557.471	-26.530	-0.052	0.031
-556.456	18.619	-0.073	-0.060
-555.442	16.614	-0.106	0.085
-554.427	-64.715	-0.142	-0.058
-553.412	31.246	0.050	0.043
-552.398	-30.890	0.167	-0.096
-551.383	-162.552	0.178	0.009
-550.369	-124.064	-0.067	0.011
-549.354	-200.000	0.004	0.104
-548.339	3.583	0.150	-0.111
-547.325	-200.000	0.014	0.224
-546.310	-99.747	-0.128	-0.033
-545.296	-200.000	-0.017	0.143
-544.281	-66.521	-0.222	-0.089
-543.266	-19.654	0.165	-0.104
-542.252	-200.000	-0.015	0.314
-541.237	29.081	0.323	-0.277
-540.223	46.889	0.302	-0.284
-539.208	-200.000	0.013	-0.254
-538.193	79.950	0.099	-0.108
-537.179	-143.899	-0.208	0.020
-536.164	312.940	-0.100	0.190
-535.150	-200.000	0.002	0.041
-534.135	479.938	-0.112	0.257
-533.121	-200.000	-0.037	0.430
-532.106	-99.657	0.278	-0.071
-531.091	283.410	0.146	-0.266
-530.077	3.884	-0.151	0.112
-529.062	-135.525	-0.473	-0.057
-528.048	129.749	-0.151	-0.195
-527.033	800.000	-0.111	0.328
-526.018	111.515	-0.442	0.540
-525.004	154.968	0.106	-0.147
-523.989	800.000	0.064	-0.200
-522.975	-23.393	-0.114	-0.069
-521.960	800.000	0.101	-0.428
-520.945	222.217	0.095	-0.154
-519.931	138.694	0.144	0.191
-518.916	-197.480	0.306	0.002
-517.902	-88.447	0.193	0.058
-516.887	-200.000	-0.020	-0.096
-515.872	352.715	-0.086	0.172
-514.858	-109.453	-0.165	0.035
-513.843	-200.000	-0.020	0.150
-512.829	11.924	-0.099	-0.077
-511.814	228.581	-0.079	-0.130
-510.799	-99.620	-0.440	0.112
-509.785	-200.000	0.047	0.351
-508.770	-85.373	0.161	-0.051
-507.756	800.000	0.020	0.073
-506.741	-200.000	-0.019	-0.125
-505.726	-76.335	-0.125	0.044
-504.712	-101.077	-0.295	0.073
-503.697	483.930	0.108	0.248
-502.683	-121.373	0.135	-0.023
-501.668	197.750	0.095	-0.147
-500.653	-106.566	0.260	-0.059
-499.639	800.000	-0.009	-0.031
-498.624	159.759	-0.116	0.164
-497.610	113.573	-0.058	-0.071
-496.595	176.707	0.204	0.300
-495.581	589.546	0.101	0.251
-494.566	-25.871	0.220	0.131
-493.551	800.000	-0.089	0.295
-492.537	142.206	0.055	-0.073
-491.522	-32.300	0.035	-0.020
-490.508	-200.000	-0.001	0.224
-489.493	-29.714	-0.255	0.147
-488.478	171.607	0.059	-0.086
-487.464	772.990	-0.091	0.251
-486.449	648.793	0.115	-0.299
-485.435	-146.996	-0.112	-0.010
-484.420	-130.583	0.034	-0.005
-483.405	-200.000	0.012	0.090
-482.391	726.605	-0.092	0.249
-481.376	-110.930	-0.215	0.045
-480.362	24.666	0.238	-0.199
-479.347	45.979	0.144	-0.135
-478.332	113.524	-0.034	-0.042
-477.318	-131.978	0.097	0.013
-476.303	215.525	0.067	-0.107
-475.289	408.016	-0.118	0.252
-474.274	-61.089	-0.184	0.079
-473.259	467.287	-0.114	-0.258
-472.245	19.879	-0.125	-0.102
-471.230	153.013	0.132	0.182
-470.216	-200.000	-0.036	0.366
-469.201	-143.437	0.120	0.012
-468.186	-200.000	0.003	0.079
-467.172	-94.518	0.226	0.062
-466.157	-90.541	-0.206	0.060
-465.143	66.935	0.246	-0.253
-464.128	800.000	-0.016	-0.065
-463.113	-200.000	-0.072	0.410
-462.099	-91.490	0.291	-0.084
-461.084	-54.690	-0.264	-0.120
-460.070	-200.000	0.006	-0.154
-459.055	-139.598	0.198	0.021
-458.040	-80.175	0.156	-0.053
-457.026	-60.266	-0.292	0.126
-456.011	-153.524	0.155	-0.011
-454.997	-200.000	0.011	0.243
-453.982	-200.000	-0.013	-0.263
-452.968	-47.683	0.347	-0.170
-451.953	-55.971	-0.229	0.103
-450.938	800.000	-0.054	-0.150
-449.924	-200.000	-0.006	0.160
-448.909	-82.146	-0.260	-0.086
-447.895	-200.000	0.013	0.138
-446.880	128.590	0.100	-0.129
-445.865	-123.776	0.227	0.036
-444.851	-200.000	0.004	0.075
-443.836	619.697	-0.066	-0.167
-442.822	-164.308	0.203	0.009
-441.807	-62.255	-0.189	0.079
-440.792	-51.899	-0.072	-0.034
-439.778	103.549	-0.190	0.225
-438.763	-42.158	-0.173	0.089
-437.749	-61.628	-0.102	-0.043
-436.734	-157.905	-0.359	0.021
-435.719	47.014	-0.269	-0.253
-434.705	339.655	-0.025	0.050
-433.690	-63.535	0.027	0.011
-432.676	-97.747	0.318	0.083
-431.661	-4.452	-0.279	0.195
-430.646	241.162	0.149	-0.252
-429.632	-83.016	0.148	0.048
-428.617	800.000	0.059	-0.175
-427.603	-164.747	0.248	-0.011
-426.588	-200.000	0.030	-0.188
-425.573	-7.361	0.169	-0.116
-424.559	-122.694	-0.127	0.021
-423.544	278.021	0.130	0.233
-422.530	101.600	0.124	-0.146
-421.515	-105.052	-0.083	-0.019
-420.500	114.883	-0.184	-0.227
-419.486	-49.683	-0.219	-0.105
-418.471	-195.437	0.153	-0.001
-417.457	165.774	-0.132	-0.189
-416.442	150.315	-0.119	0.163
-415.428	102.109	0.206	-0.243
-414.413	40.251	-0.120	-0.109
-413.398	-107.690	0.105	0.023
-412.384	800.000	0.104	-0.320
-411.369	519.588	-0.154	-0.364
-410.355	-122.769	0.197	-0.032
-409.340	-74.504	-0.290	0.105
-408.325	-200.000	0.023	0.128
-407.311	-137.677	0.136	0.015
-406.296	-70.593	0.195	0.074
-405.282	160.899	0.232	-0.327
-404.267	-3.734	-0.109	0.077
-403.252	-104.988	0.140	0.032
-402.238	-5.740	-0.079	0.055
-401.223	800.000	-0.068	-0.248
-400.209	366.554	-0.155	-0.315
-399.194	57.088	0.185	-0.182
-398.179	6.721	-0.139	-0.104
-397.165	-200.000	-0.019	-0.295
-396.150	800.000	-0.019	-0.065
-395.136	181.865	-0.111	0.165
-394.121	-200.000	-0.001	0.313
-393.106	-89.622	-0.085	-0.025
-392.092	-70.825	-0.164	-0.062
-391.077	800.000	0.044	-0.155
-390.063	-8.324	0.281	-0.190
-389.048	-43.887	0.277	-0.140
-388.033	-181.734	0.248	0.005
-387.019	-6.530	-0.199	0.137
-386.004	29.213	-0.186	0.159
-384.990	-200.000	0.029	-0.213
-383.975	-73.020	-0.256	-0.095
-382.960	32.736	0.102	-0.089
-381.946	800.000	0.127	0.379
-380.931	14.151	0.105	0.082
-379.917	-36.690	0.193	-0.105
-378.902	-200.000	-0.014	0.305
-377.888	-65.996	-0.103	-0.041
-376.873	105.311	-0.298	0.354
-375.858	110.350	0.254	-0.307
-374.844	-10.038	-0.201	-0.134
-373.829	-123.522	-0.120	-0.019
-372.815	87.842	-0.038	-0.042
-371.800	800.000	-0.033	-0.136
-370.785	-117.141	-0.060	-0.011
-369.771	50.622	0.015	0.014
-368.756	800.000	0.097	0.280
-367.742	-175.301	0.206	0.006
-366.727	-57.980	0.312	-0.137
-365.712	800.000	-0.048	0.171
-364.698	0.439	-0.208	-0.150
-363.683	-87.340	0.325	0.099
-362.669	357.654	-0.011	0.021
-361.654	141.291	0.152	-0.202
-360.639	-151.329	0.481	0.036
-359.625	-104.109	-0.163	0.038
-358.610	51.327	-0.149	-0.143
-357.596	44.324	0.291	-0.269
-356.581	-134.210	-0.513	-0.064
-355.566	-101.970	-0.393	-0.095
-354.552	-110.932	0.221	0.046
-353.537	494.532	-0.066	0.152
-352.523	55.678	0.131	-0.128
-351.508	525.239	-0.091	0.217
-350.493	-116.319	-0.339	-0.063
-349.479	-15.435	-0.287	0.185
-348.464	-200.000	-0.023	0.164
-347.450	186.011	-0.193	0.289
-346.435	93.267	-0.181	-0.206
-345.420	-41.437	-0.204	0.106
-344.406	135.493	-0.161	-0.211
-343.391	-200.000	0.006	0.099
-342.377	45.810	-0.178	0.165
-341.362	-16.769	0.143	-0.091
-340.348	800.000	-0.072	0.251
-339.333	62.631	-0.098	0.098
-338.318	800.000	0.031	0.121
-337.304	-72.321	-0.133	0.050
-336.289	-200.000	-0.036	-0.231
-335.275	-30.887	-0.161	-0.091
-334.260	38.001	-0.141	-0.126
-333.245	57.196	0.019	-0.019
-332.231	-48.133	-0.178	0.087
-331.216	238.714	0.235	0.392
-330.202	-200.000	0.012	0.174
-329.187	84.181	-0.141	-0.155
-328.172	370.170	0.079	0.160
-327.158	-200.000	-0.015	-0.152
-326.143	-95.524	0.256	-0.069
-325.129	-147.153	-0.308	-0.026
-324.114	158.599	-0.050	0.070
-323.099	-200.000	0.012	-0.083
-322.085	-79.268	-0.213	-0.073
-321.070	-200.000	0.009	0.061
-320.056	-85.740	-0.245	-0.076
-319.041	143.429	-0.038	-0.050
-318.026	-200.000	0.035	0.285
-317.012	-1.522	0.098	-0.069
-315.997	279.285	0.186	0.333
-314.983	52.345	0.160	0.153
-313.968	800.000	-0.045	0.175
-312.953	-200.000	-0.022	0.131
-311.939	-65.559	-0.174	0.070
-310.924	64.811	-0.167	0.169
-309.910	-200.000	0.013	0.360
-308.895	348.650	-0.107	0.213
-307.880	-200.000	0.063	0.325
-306.866	-200.000	0.040	-0.267
-305.851	-128.619	0.194	0.028
-304.837	-100.896	0.123	-0.030
-303.822	-186.992	-0.514	-0.007
-302.807	-200.000	-0.002	-0.156
-301.793	-105.349	-0.375	-0.086
-300.778	-173.764	0.131	0.004
-299.764	-200.000	0.024	-0.240
-298.749	-200.000	0.026	-0.152
-297.735	-46.611	0.531	0.261
-296.720	-166.459	-0.299	-0.013
-295.705	-200.000	-0.012	0.235
-294.691	-119.905	-0.289	0.050
-293.676	15.783	0.374	0.295
-292.662	-109.854	0.124	0.026
-291.647	14.356	-0.133	-0.104
-290.632	-81.449	-0.271	-0.090
-289.618	-43.299	-0.387	-0.196
-288.603	171.960	0.012	-0.017
-287.589	-126.115	0.432	0.065
-286.574	800.000	-0.035	0.151
-285.559	-150.367	0.229	-0.018
-284.545	12.899	-0.279	0.216
-283.530	194.289	0.129	-0.195
-282.516	-200.000	0.006	0.313
-281.501	-200.000	-0.038	-0.209
-280.486	-175.165	0.360	0.010
-279.472	800.000	0.099	0.344
-278.457	62.707	-0.129	-0.130
-277.443	343.369	-0.049	0.097
-276.428	-134.553	0.284	0.035
-275.413	48.554	0.139	-0.131
-274.399	-108.353	-0.178	-0.039
-273.384	240.975	-0.043	-0.073
-272.370	-150.998	0.254	0.019
-271.355	412.632	-0.032	-0.069
-270.340	757.283	0.133	0.362
-269.326	-1.692	0.209	-0.148
-268.311	-67.252	-0.263	-0.104
-267.297	-200.000	-0.042	-0.187
-266.282	-71.153	0.193	0.073
-265.267	-200.000	0.011	-0.459
-264.253	800.000	0.111	-0.417
-263.238	158.783	-0.056	-0.078
-262.224	-98.987	-0.307	-0.078
-261.209	484.222	-0.094	-0.215
-260.195	228.916	-0.108	-0.177
-259.180	-66.986	0.192	-0.076
-258.165	-22.772	-0.250	-0.151
-257.151	-200.000	-0.010	0.081
-256.136	-158.478	0.224	0.013
-255.122	-145.602	0.212	-0.019
-254.107	85.977	-0.167	-0.184
-253.092	800.000	0.029	0.086
-252.078	83.436	-0.025	0.027
-251.063	190.771	-0.241	-0.363
-250.049	-200.000	0.000	0.007
-249.034	-41.303	0.328	0.169
-248.019	-75.001	0.269	-0.097
-247.005	-53.918	0.165	-0.075
-245.990	-113.797	0.170	0.033
-244.976	27.863	-0.057	0.048
-243.961	300.695	0.162	0.300
-242.946	329.723	-0.064	0.124
-241.932	76.115	0.384	-0.407
-240.917	156.033	-0.093	-0.129
-239.903	-200.000	0.047	-0.222
-238.888	79.770	0.072	-0.077
-237.873	243.583	0.154	-0.259
-236.859	11.361	-0.076	-0.058
-235.844	-129.980	0.183	-0.025
-234.830	800.000	0.046	-0.150
-233.815	277.092	0.280	-0.499
-232.800	123.636	0.164	0.206
-231.786	115.768	0.029	0.035
-230.771	183.746	0.086	0.127
-229.757	-150.067	0.116	-0.009
-228.742	-200.000	0.015	-0.098
-227.727	-110.997	-0.133	-0.027
-226.713	65.616	-0.216	-0.219
-225.698	-49.998	-0.363	-0.172
-224.684	-33.540	0.023	0.013
-223.669	24.479	-0.011	-0.009
-222.655	738.537	-0.117	0.315
-221.640	-200.000	-0.004	-0.226
-220.625	197.572	0.157	0.240
-219.611	-91.519	0.153	0.044
-218.596	-69.819	0.052	0.020
-217.582	-12.802	-0.279	0.182
-216.567	282.695	-0.017	0.031
-215.552	-31.457	-0.166	-0.094
-214.538	-7.721	-0.128	0.087
-213.523	-200.000	0.026	0.175
-212.509	0.847	0.316	0.227
-211.494	-200.000	-0.026	-0.203
-210.479	-200.000	-0.002	-0.242
-209.465	800.000	-0.182	-0.539
-208.450	8.687	0.101	-0.076
-207.436	-200.000	-0.058	0.387
-206.421	7.731	0.129	0.096
-205.406	-21.065	-0.143	-0.087
-204.392	-119.097	0.152	-0.027
-203.377	67.213	0.249	-0.254
-202.363	-7.626	0.260	-0.176
-201.348	142.346	0.073	0.096
-200.333	-184.881	0.084	-0.001
-199.319	-77.368	0.122	0.042
-198.304	189.170	0.151	-0.226
-197.290	58.043	0.186	0.182
-196.275	60.648	-0.093	-0.092
-195.260	301.295	0.077	-0.143
-194.246	201.408	-0.126	0.195
-193.231	9.934	0.073	0.056
-192.217	-197.327	-0.189	-0.001
-191.202	34.543	-0.317	-0.277
-190.187	316.180	-0.130	-0.245
-189.173	-106.457	0.148	-0.033
-188.158	-200.000	-0.004	0.177
-187.144	-39.475	0.235	0.123
-186.129	-200.000	-0.011	-0.083
-185.114	144.828	0.062	0.083
-184.100	69.125	-0.163	0.168
-183.085	-200.000	-0.050	0.295
-182.071	339.015	-0.127	0.248
-181.056	17.145	0.206	0.163
-180.042	-108.428	-0.125	-0.027
-179.027	175.530	-0.146	-0.211
-178.012	57.954	0.132	0.129
-176.998	800.000	0.059	0.204
-175.983	800.000	-0.022	-0.062
-174.969	-27.826	0.251	0.145
-173.954	-200.000	-0.016	0.083
-172.939	18.572	0.283	-0.226
-171.925	4.165	-0.237	0.173
-170.910	57.691	-0.209	0.204
-169.896	-25.646	-0.116	0.069
-168.881	-30.870	-0.172	-0.097
-167.866	730.248	-0.046	0.122
-166.852	-143.462	0.099	0.009
-165.837	-59.059	0.223	0.096
-164.823	5.667	0.290	0.214
-163.808	210.728	0.094	-0.148
-162.793	-29.680	0.170	-0.097
-161.779	-23.947	0.228	-0.137
-160.764	-122.895	0.048	0.008
-159.750	800.000	0.044	0.172
-158.735	-168.394	0.359	-0.014
-157.720	576.260	-0.028	0.067
-156.706	521.046	0.152	-0.356
-155.691	-200.000	0.007	-0.059
-154.677	-181.964	-0.146	-0.003
-153.662	-14.178	0.027	-0.018
-152.647	5.518	0.266	0.196
-151.633	-37.609	0.194	-0.103
-150.618	-200.000	0.004	-0.434
-149.604	-112.492	-0.191	-0.038
-148.589	24.413	-0.192	0.158
-147.574	88.958	-0.069	-0.076
-146.560	800.000	-0.135	-0.382
-145.545	89.356	-0.169	-0.188
-144.531	12.972	-0.130	0.100
-143.516	-5.535	-0.156	0.107
-142.502	-104.278	-0.194	0.045
-141.487	-36.254	0.267	0.144
-140.472	-138.927	-0.294	-0.032
-139.458	-24.631	0.126	0.075
-138.443	-101.581	-0.189	0.046
-137.429	-22.442	-0.109	0.066
-136.414	800.000	-0.025	-0.097
-135.399	-81.154	0.417	0.138
-134.385	-48.661	0.127	0.061
-133.370	-76.008	0.078	0.028
-132.356	800.000	0.053	-0.181
-131.341	-93.179	-0.220	-0.061
-130.326	-61.119	0.220	0.093
-129.312	-77.703	-0.225	0.078
-128.297	-200.000	-0.012	-0.159
-127.283	353.165	0.214	0.423
-126.268	800.000	-0.097	0.379
-125.253	537.803	0.136	0.322
-124.239	800.000	0.070	-0.203
-123.224	450.581	0.049	-0.108
-122.210	87.754	0.148	0.163
-121.195	202.735	-0.074	0.114
-120.180	104.565	0.097	0.114
-119.166	-60.131	0.005	-0.002
-118.151	-200.000	-0.054	-0.396
-117.137	282.712	-0.133	-0.237
-116.122	800.000	-0.081	-0.247
-115.107	-200.000	0.054	-0.390
-114.093	-57.085	0.236	0.104
-113.078	-72.125	0.152	0.056
-112.064	216.346	0.070	0.112
-111.049	-87.207	0.341	-0.103
-110.034	-112.450	0.300	-0.060
-109.020	27.979	0.336	0.283
-108.005	148.199	-0.178	0.239
-106.991	-93.022	0.136	0.038
-105.976	226.394	-0.199	0.321
-104.962	-200.000	-0.042	0.227
-103.947	75.242	0.287	0.302
-102.932	-148.370	0.093	-0.008
-101.918	331.946	0.126	-0.242
-100.903	119.650	-0.083	-0.103
-99.889	-200.000	0.047	0.417
-98.874	-200.000	-0.013	0.082
-97.859	169.645	-0.141	0.201
-96.845	18.694	-0.194	-0.154
-95.830	394.309	0.036	-0.076
-94.816	-115.486	0.375	0.070
-93.801	-120.141	0.125	-0.021
-92.786	-83.911	0.165	0.052
-91.772	102.612	0.044	-0.051
-90.757	554.999	0.080	0.191
-89.743	-2.153	0.077	-0.054
-88.728	-35.373	0.052	-0.028
-87.713	213.201	0.139	-0.218
-86.699	786.347	-0.059	0.162
-85.684	-200.000	-0.018	-0.091
-84.670	-63.029	0.093	0.038
-83.655	-63.167	0.228	0.094
-82.640	-40.258	0.056	-0.029
-81.626	248.277	0.199	-0.335
-80.611	33.356	-0.167	-0.144
-79.597	109.876	0.070	0.083
-78.582	-39.300	0.246	0.129
-77.567	800.000	0.056	0.237
-76.553	252.533	-0.047	-0.079
-75.538	-11.319	0.186	-0.122
-74.524	-65.337	0.279	0.112
-73.509	-96.364	0.199	-0.052
-72.494	-137.445	0.152	0.017
-71.480	800.000	-0.041	0.130
-70.465	800.000	0.010	0.037
-69.451	37.018	0.088	-0.077
-68.436	-200.000	-0.092	0.547
-67.422	-114.538	-0.167	0.032
-66.407	-200.000	0.039	-0.174
-65.392	-84.306	0.501	-0.158
-64.378	-126.117	-0.035	-0.005
-63.363	179.301	0.178	-0.259
-62.349	800.000	0.083	0.291
-61.334	48.223	-0.951	-0.885
-60.319	10.677	0.257	0.195
-59.305	-200.000	0.083	-0.912
-58.290	373.252	0.489	0.990
-57.276	535.843	0.677	1.597
-56.261	-200.000	85.510	510.183
-55.246	562.103	1374.431	3306.413
-54.232	183.016	2608.751	3830.314
-53.217	119.705	2246.045	2767.379
-52.203	48.559	1693.330	1577.831
-51.188	40.894	1423.622	1277.456
-50.173	37.495	1379.598	1216.684
-49.159	56.289	1419.875	1371.621
-48.144	60.794	1438.534	1418.120
-47.130	41.217	1398.658	1256.891
-46.115	37.669	1381.673	1219.409
-45.100	37.427	1376.880	1213.624
-44.086	37.246	1374.632	1210.461
-43.071	37.286	1372.087	1208.422
-42.057	37.177	1370.019	1205.879
-41.042	37.355	1367.943	1205.106
-40.027	37.315	1366.651	1203.675
-39.013	37.315	1364.803	1201.998
-37.998	37.378	1362.607	1200.403
-36.984	37.518	1360.701	1199.540
-35.969	37.468	1358.811	1197.517
-34.954	37.461	1357.276	1196.074
-33.940	37.539	1355.916	1195.310
-32.925	37.437	1355.112	1193.928
-31.911	37.521	1353.069	1192.594
-30.896	37.507	1351.350	1190.948
-29.881	37.457	1350.787	1190.097
-28.867	37.537	1348.841	1188.823
-27.852	37.577	1347.248	1187.620
-26.838	37.589	1345.749	1186.325
-25.823	37.570	1344.340	1184.918
-24.809	37.466	1343.477	1183.478
-23.794	37.697	1341.392	1182.994
-22.779	37.565	1340.413	1181.285
-21.765	37.509	1338.846	1179.516
-20.750	37.514	1337.130	1177.987
-19.736	37.390	1336.003	1176.201
-18.721	37.485	1334.443	1175.352
-17.706	37.431	1333.255	1173.935
-16.692	37.392	1332.352	1172.859
-15.677	37.355	1331.323	1171.683
-14.663	37.322	1330.016	1170.285
-13.648	37.346	1328.938	1169.433
-12.633	37.413	1327.760	1168.755
-11.619	37.357	1327.146	1167.831
-10.604	37.358	1325.953	1166.744
-9.590	37.355	1324.978	1165.819
-8.575	37.351	1323.914	1164.812
-7.560	37.347	1323.328	1164.225
-6.546	37.295	1322.620	1163.244
-5.531	37.279	1321.783	1162.370
-4.517	37.258	1320.662	1161.210
-3.502	37.425	1319.100	1160.788
-2.487	37.322	1318.677	1159.757
-1.473	37.418	1315.103	1157.138
-0.458	36.546	1299.609	1138.326
0.556	31.564	1280.335	1099.165
1.571	27.765	1285.793	1081.291
2.586	27.101	1300.204	1089.333
3.600	26.019	1289.681	1073.985
4.615	18.197	1209.710	963.430
5.629	5.951	1124.340	830.889
6.644	0.560	1100.041	784.885
7.659	0.116	1096.911	780.284
8.673	0.089	1095.920	779.368
9.688	-0.044	1094.645	777.706
10.702	0.474	1093.778	779.697
11.717	8.040	1105.355	827.278
12.731	18.724	1121.257	895.098
13.746	22.447	1125.194	917.600
14.761	22.281	1124.603	916.171
15.775	22.140	1124.084	914.936
16.790	21.860	1123.047	912.553
17.804	21.739	1122.413	911.327
18.819	21.900	1122.323	912.011
19.834	22.021	1121.363	911.779
20.848	22.068	1120.820	911.501
21.863	22.021	1120.236	910.704
22.877	22.041	1119.439	910.076
23.892	21.918	1118.824	908.858
24.907	21.885	1118.669	908.482
25.921	21.909	1117.339	907.448
26.936	21.905	1115.868	906.150
27.950	21.853	1114.028	904.307
28.965	21.734	1112.363	902.262
29.980	21.790	1110.681	901.105
30.994	22.036	1109.552	901.374
32.009	21.944	1108.775	900.193
33.023	21.900	1106.872	898.343
34.038	21.837	1106.469	897.611
35.053	21.987	1106.006	897.925
36.067	22.040	1104.805	897.143
37.082	22.062	1103.994	896.516
38.096	22.146	1103.398	896.381
39.111	22.279	1102.241	896.038
40.126	22.061	1101.230	894.027
41.140	21.839	1098.982	890.998
42.155	21.583	1097.694	888.574
43.169	21.589	1097.000	887.966
44.184	21.643	1095.830	887.211
45.199	21.448	1095.160	885.603
46.213	21.555	1094.578	885.596
47.228	21.738	1093.245	885.362
48.242	21.869	1092.211	885.108
49.257	21.846	1092.028	884.768
50.271	21.996	1090.736	884.398
51.286	22.059	1089.758	883.843
52.301	22.026	1088.897	882.900
53.315	21.944	1087.941	881.638
54.330	21.966	1086.809	880.752
55.344	22.058	1086.091	880.553
56.359	21.964	1084.770	878.932
57.374	21.789	1083.684	877.098
58.388	21.800	1082.674	876.259
59.403	21.698	1081.987	875.118
60.417	21.559	1081.210	873.718
61.432	21.568	1081.230	873.702
62.447	21.695	1080.455	873.631
63.461	21.789	1079.342	873.121
64.476	21.770	1078.509	872.277
65.490	21.546	1077.139	869.978
66.505	21.627	1076.716	869.964
67.520	21.664	1076.207	869.657
68.534	21.511	1074.940	867.795
69.549	21.185	1073.492	864.937
70.563	21.251	1072.957	864.754
71.578	21.292	1071.688	863.859
72.593	21.127	1070.889	862.323
73.607	21.211	1070.248	862.148
74.622	21.466	1070.002	863.132
75.636	21.550	1069.042	862.692
76.651	21.416	1068.348	861.398
77.666	21.309	1067.387	860.022
78.680	21.402	1066.753	859.889
79.695	21.468	1066.203	859.695
80.709	21.559	1065.713	859.671
81.724	21.540	1064.460	858.491
82.739	21.818	1063.629	859.105
83.753	22.002	1062.826	859.280
84.768	22.163	1062.360	859.617
85.782	22.431	1061.008	859.757
86.797	22.058	1060.633	857.558
87.812	21.912	1059.691	856.007
88.826	22.107	1058.567	855.973
89.841	22.235	1057.450	855.617
90.855	22.301	1056.376	854.992
91.870	22.159	1055.349	853.395
92.884	21.972	1054.456	851.691
93.899	22.025	1053.366	850.992
94.914	22.125	1052.545	850.737
95.928	21.919	1051.799	849.064
96.943	21.723	1050.024	846.608
97.957	21.521	1049.015	844.746
98.972	21.457	1047.598	843.223
99.987	21.540	1046.825	842.925
101.001	21.926	1045.994	844.035
102.016	21.851	1045.423	843.142
103.030	21.703	1044.762	841.822
104.045	21.632	1043.574	840.452
105.060	21.517	1042.175	838.700
106.074	21.622	1041.605	838.667
107.089	21.945	1041.278	839.877
108.103	21.758	1040.057	837.925
109.118	21.700	1038.450	836.276
110.133	21.629	1037.571	835.159
111.147	21.464	1036.220	833.211
112.162	21.416	1034.901	831.846
113.176	21.514	1034.698	832.079
114.191	21.578	1033.872	831.644
115.206	21.173	1032.765	828.757
116.220	21.402	1031.720	828.929
117.235	21.334	1031.142	828.070
118.249	21.329	1029.930	827.002
119.264	21.168	1029.719	825.997
120.279	21.345	1028.316	825.632
121.293	21.462	1027.338	825.327
122.308	21.401	1026.711	824.464
123.322	21.279	1025.555	822.886
124.337	21.252	1024.374	821.742
125.352	20.910	1022.261	818.365
126.366	20.911	1020.923	817.230
127.381	21.499	1021.409	820.302
128.395	21.957	1020.713	821.816
129.410	21.900	1020.421	821.240
130.424	21.863	1019.040	819.886
131.439	21.845	1018.331	819.155
132.454	21.950	1017.054	818.545
133.468	21.756	1016.457	817.091
134.483	22.057	1015.691	817.802
135.497	22.152	1015.175	817.757
136.512	22.214	1013.923	816.965
137.527	22.222	1013.108	816.275
138.541	22.203	1012.376	815.523
139.556	22.143	1011.718	814.643
140.570	22.298	1011.123	814.807
141.585	22.231	1009.496	813.118
142.600	22.246	1008.236	812.099
143.614	22.371	1008.484	812.804
144.629	22.415	1007.253	811.944
145.643	22.315	1005.873	810.300
146.658	22.186	1004.647	808.645
147.673	21.990	1003.656	806.878
148.687	21.930	1002.397	805.515
149.702	21.868	1001.229	804.223
150.716	21.925	1000.004	803.428
151.731	22.147	999.404	803.891
152.746	22.251	999.306	804.216
153.760	22.329	998.321	803.711
154.775	22.306	997.723	803.050
155.789	22.340	996.711	802.320
156.804	22.332	995.633	801.346
157.819	22.325	995.326	800.994
158.833	22.419	994.509	800.697
159.848	22.393	993.144	799.410
160.862	22.279	991.441	797.450
161.877	22.240	991.008	796.855
162.892	22.377	989.947	796.550
163.906	22.166	989.151	794.886
164.921	22.291	988.064	794.508
165.935	22.290	987.265	793.789
166.950	22.349	986.298	793.208
167.964	22.281	985.218	791.963
168.979	22.101	984.355	790.390
169.994	22.052	982.942	788.964
171.008	22.276	982.776	789.766
172.023	22.362	981.619	789.153
173.037	22.093	980.452	786.942
174.052	21.988	979.357	785.522
175.067	22.000	978.748	785.017
176.081	22.016	978.375	784.719
177.096	22.023	977.489	783.972
178.110	21.830	976.319	782.101
179.125	21.622	975.449	780.410
180.140	21.806	975.338	781.071
181.154	21.786	975.323	780.903
182.169	22.139	974.960	782.112
183.183	22.241	974.647	782.246
184.198	22.238	972.997	780.838
185.213	22.248	972.480	780.399
186.227	22.322	971.762	780.081
187.242	22.216	971.569	779.390
188.256	22.294	970.797	779.049
189.271	22.419	969.897	778.810
190.286	22.119	968.575	776.352
191.300	21.595	967.027	772.731
192.315	20.766	965.526	767.810
193.329	20.731	965.154	767.291
194.344	21.477	965.828	771.050
195.359	22.110	965.422	773.441
196.373	22.338	964.761	773.850
197.388	22.043	964.645	772.391
198.402	22.152	963.322	771.741
199.417	22.102	962.817	771.050
200.432	21.913	961.821	769.354
201.446	21.703	960.915	767.641
202.461	21.866	960.353	767.838
203.475	21.008	958.261	762.346
204.490	20.236	957.289	758.134
205.504	21.187	957.565	762.439
206.519	21.707	957.789	764.823
207.534	21.816	957.267	764.812
208.548	22.317	956.881	766.622
209.563	22.045	955.855	764.546
210.577	22.103	955.082	764.114
211.592	22.363	954.914	765.042
212.607	22.393	953.493	763.965
213.621	22.309	953.275	763.360
214.636	22.369	952.455	762.895
215.650	22.223	951.924	761.769
216.665	22.470	950.855	761.914
217.680	22.266	950.140	760.394
218.694	22.004	949.138	758.391
219.709	21.758	948.560	756.802
220.723	22.042	948.148	757.633
221.738	22.147	947.448	757.460
222.753	22.079	946.751	756.540
223.767	22.189	946.506	756.751
224.782	22.437	946.065	757.398
225.796	22.522	944.969	756.820
226.811	21.820	943.367	752.457
227.826	21.264	942.130	749.021
228.840	21.258	942.220	749.002
229.855	21.456	940.742	748.606
230.869	21.072	939.579	745.973
231.884	21.648	940.020	748.723
232.899	22.166	939.951	750.816
233.913	22.127	939.021	749.838
234.928	22.154	938.678	749.612
235.942	22.113	937.989	748.822
236.957	21.674	937.012	746.104
237.972	21.700	936.256	745.547
238.986	22.030	935.877	746.582
240.001	21.830	935.561	745.415
241.015	22.015	934.682	745.434
242.030	22.093	934.182	745.300
243.045	22.178	933.744	745.247
244.059	22.332	932.986	745.228
245.074	22.077	932.026	743.315
246.088	21.807	931.073	741.350
247.103	22.005	931.118	742.155
248.117	22.590	931.067	744.523
249.132	22.780	930.627	744.905
250.147	22.888	929.784	744.620
251.161	23.046	928.964	744.564
252.176	23.001	928.615	744.029
253.190	22.939	928.203	743.370
254.205	23.152	927.702	743.799
255.220	23.154	926.927	743.122
256.234	23.146	925.698	742.035
257.249	22.825	925.359	740.353
258.263	22.976	924.632	740.340
259.278	23.114	923.680	740.087
260.293	23.044	923.374	739.484
261.307	22.903	922.769	738.347
262.322	22.795	921.512	736.822
263.336	22.028	919.487	731.945
264.351	21.050	917.764	726.436
265.366	21.174	917.541	726.711
266.380	22.041	918.456	730.982
267.395	22.705	917.639	733.029
268.409	22.604	917.270	732.249
269.424	22.961	916.303	732.892
270.439	22.867	915.956	732.160
271.453	22.739	915.969	731.578
272.468	23.052	915.464	732.404
273.482	23.157	914.805	732.245
274.497	22.593	913.936	729.155
275.512	22.216	912.852	726.666
276.526	22.665	912.661	728.307
277.541	22.893	912.384	728.963
278.555	22.671	911.321	727.133
279.570	22.520	910.377	725.693
280.585	22.750	909.917	726.207
281.599	22.635	908.322	724.400
282.614	22.177	906.926	721.344
283.628	22.065	906.982	720.863
284.643	22.370	906.955	722.029
285.657	22.101	905.336	719.575
286.672	21.811	904.643	717.775
287.687	22.311	905.046	720.078
288.701	22.406	904.284	719.797
289.716	22.103	903.236	717.660
290.730	22.162	902.668	717.385
291.745	21.772	901.209	714.575
292.760	22.011	901.449	715.674
293.774	23.121	901.684	720.322
294.789	23.394	901.195	720.977
295.803	23.445	900.719	720.743
296.818	23.489	900.016	720.291
297.833	23.056	898.537	717.288
298.847	22.802	898.323	716.023
299.862	23.081	898.352	717.116
300.876	23.428	897.482	717.763
301.891	23.349	896.449	716.554
302.906	22.827	895.718	713.796
303.920	23.032	895.413	714.321
304.935	23.390	895.102	715.454
305.949	23.293	894.216	714.293
306.964	23.088	893.401	712.749
307.979	23.110	893.274	712.676
308.993	23.370	893.457	713.804
310.008	23.397	892.518	713.100
311.022	23.230	891.730	711.737
312.037	23.003	890.839	710.051
313.052	22.871	889.971	708.767
314.066	22.017	888.490	704.099
315.081	21.664	887.929	702.177
316.095	22.371	888.381	705.308
317.110	22.934	887.532	706.826
318.125	22.257	886.023	702.856
319.139	21.272	884.801	697.890
320.154	21.288	884.101	697.340
321.168	22.027	885.048	700.979
322.183	22.796	884.689	703.701
323.197	23.015	884.294	704.196
324.212	23.207	883.874	704.564
325.227	23.319	883.151	704.370
326.241	23.066	882.756	702.987
327.256	22.981	882.022	702.002
328.270	22.963	881.293	701.289
329.285	22.717	880.307	699.468
330.300	22.491	879.678	698.011
331.314	22.666	879.387	698.410
332.329	23.242	879.111	700.409
333.343	23.200	878.937	700.041
334.358	23.205	878.372	699.548
335.373	23.185	878.311	699.362
336.387	23.513	878.323	700.602
337.402	23.611	878.037	700.700
338.416	23.573	877.395	699.976
339.431	23.680	877.013	700.032
340.446	23.778	876.642	700.058
341.460	23.700	876.267	699.391
342.475	23.530	875.723	698.227
343.489	23.764	874.962	698.478
344.504	23.777	875.151	698.617
345.519	23.899	874.545	698.551
346.533	24.022	873.930	698.482
347.548	23.999	873.497	697.984
348.562	24.065	872.599	697.462
349.577	23.968	872.221	696.721
350.592	23.931	871.885	696.244
351.606	23.853	871.022	695.186
352.621	23.754	870.124	694.024
353.635	23.685	868.994	692.791
354.650	23.048	867.481	689.040
355.665	22.179	865.687	684.174
356.679	22.524	865.926	685.646
357.694	22.912	865.832	687.023
358.708	22.975	864.592	686.219
359.723	23.402	865.016	688.153
360.738	23.737	864.260	688.791
361.752	23.702	863.891	688.299
362.767	23.971	863.798	689.207
363.781	24.252	863.071	689.656
364.796	24.340	862.514	689.491
365.810	24.340	862.452	689.379
366.825	24.302	861.935	688.758
367.840	24.065	861.110	687.122
368.854	23.769	859.855	684.921
369.869	23.600	859.898	684.240
370.883	23.632	859.515	684.001
371.898	23.651	858.960	683.570
372.913	23.786	858.424	683.604
373.927	23.795	857.953	683.200
374.942	23.974	857.496	683.467
375.956	24.047	857.211	683.458
376.971	24.192	856.529	683.409
377.986	24.368	856.107	683.687
379.000	24.357	855.473	683.076
380.015	24.059	855.038	681.529
381.029	24.164	854.423	681.378
382.044	24.375	854.184	681.934
383.059	24.303	853.171	680.791
384.073	24.399	852.842	680.836
385.088	24.241	852.098	679.579
386.102	24.206	851.172	678.647
387.117	24.076	850.449	677.514
388.132	23.645	849.509	675.069
389.146	23.285	848.451	672.802
390.161	23.663	848.484	674.205
391.175	24.135	848.263	675.760
392.190	23.802	847.013	673.441
393.205	22.511	844.844	666.775
394.219	21.043	843.025	659.732
395.234	20.871	843.554	659.435
396.248	22.505	844.793	666.536
397.263	23.855	845.514	672.153
398.278	23.823	845.066	671.616
399.292	23.570	844.261	669.960
400.307	23.715	843.738	670.033
401.321	23.725	843.438	669.776
402.336	24.114	843.347	671.110
403.350	24.547	842.937	672.356
404.365	24.819	842.993	673.363
405.380	25.115	842.503	674.028
406.394	25.250	841.788	673.901
407.409	24.986	841.660	672.750
408.423	24.910	841.261	672.083
409.438	24.887	840.937	671.678
410.453	25.156	840.003	671.881
411.467	25.062	839.496	671.067
412.482	25.134	838.833	670.744
413.496	25.047	839.024	670.514
414.511	25.024	838.442	669.901
415.526	25.051	837.944	669.545
416.540	24.831	837.234	668.097
417.555	24.608	836.946	666.976
418.569	24.613	836.533	666.608
419.584	24.575	835.803	665.826
420.599	24.542	835.065	665.056
421.613	149.786	1366.573	1782.817
422.628	130.858	1444.023	1782.941
