DTS Sentinel unit serial number:	SN413079Multiplexer serial number:	ORYXHardware model number:	OX4-SRSoftware version number:	ORYX F/W v4.00 Oryx Data Collector v3.7.2.0data status	okinstallation	princeton_trtdifferential loss correction	single-endedforward channel	channel 1reverse channel	N/Adate	2019/09/19time	08:42:35forward acquisition time	60.00reverse acquisition time	0.00gamma	496.2192k internal	0.2343k external	0.2343temperature offset calibration	1.0006default loss term (dB/km)	0.3790temperature slope calibration	1.0000multiplexer offset coefficient	1.0000multiplexer slope coefficient	1.0000fibre end	0.00T internal ref (°C)	20.98T ext. ref 1 (°C)	0.58T ext. ref 2 (°C)	16.57length (m)	temperature (°C)	Stokes	anti-Stokes-747.200	-55.369	-0.168	-0.076
-746.185	18.409	0.067	0.053
-745.171	-52.835	0.285	0.132
-744.156	-152.694	-0.084	-0.006
-743.142	-187.687	-0.065	-0.001
-742.127	223.869	0.065	0.105
-741.112	-12.394	-0.378	0.247
-740.098	800.000	-0.076	0.285
-739.083	141.554	0.213	-0.283
-738.069	126.843	0.310	0.393
-737.054	401.377	-0.088	-0.186
-736.039	-54.061	-0.308	-0.140
-735.025	276.996	0.155	0.276
-734.010	312.506	0.205	0.385
-732.996	25.559	0.333	-0.277
-731.981	-80.221	-0.160	0.054
-730.966	-76.569	-0.429	-0.151
-729.952	-152.240	-0.157	-0.011
-728.937	-200.000	-0.041	0.453
-727.923	-82.101	-0.049	0.016
-726.908	-28.902	0.124	-0.071
-725.894	-200.000	0.034	-0.284
-724.879	52.234	0.051	0.048
-723.864	154.272	0.010	-0.014
-722.850	377.055	-0.151	-0.310
-721.835	26.158	-0.175	-0.146
-720.821	256.538	0.246	-0.423
-719.806	290.090	-0.160	-0.291
-718.791	206.893	-0.225	-0.351
-717.777	110.313	0.092	0.111
-716.762	25.765	0.136	-0.114
-715.748	690.663	0.095	0.248
-714.733	-200.000	-0.007	0.061
-713.718	421.419	0.064	-0.137
-712.704	800.000	-0.068	-0.219
-711.689	425.098	0.081	-0.174
-710.675	-81.021	-0.263	-0.087
-709.660	250.269	0.058	0.098
-708.645	-79.151	0.229	-0.078
-707.631	83.893	-0.188	-0.205
-706.616	800.000	0.086	-0.281
-705.602	25.205	-0.200	-0.166
-704.587	-114.676	0.169	0.032
-703.572	-167.227	0.046	0.002
-702.558	-62.420	-0.352	0.146
-701.543	800.000	0.036	0.111
-700.529	-109.825	-0.035	-0.007
-699.514	455.874	0.202	-0.447
-698.499	54.231	0.255	-0.245
-697.485	-200.000	-0.054	-0.247
-696.470	-130.046	-0.450	-0.062
-695.456	23.096	-0.116	-0.095
-694.441	108.628	0.070	-0.084
-693.426	195.128	-0.066	0.100
-692.412	800.000	-0.045	-0.165
-691.397	-108.733	0.159	-0.034
-690.383	-200.000	-0.001	0.015
-689.368	10.944	-0.177	0.135
-688.354	41.868	0.165	0.150
-687.339	-115.757	-0.245	0.046
-686.324	5.960	-0.146	0.108
-685.310	257.814	-0.129	-0.222
-684.295	-25.702	-0.334	0.197
-683.281	-72.483	0.033	-0.012
-682.266	252.381	-0.211	0.360
-681.251	-200.000	0.028	0.141
-680.237	269.339	-0.072	-0.126
-679.222	-101.869	0.091	-0.022
-678.208	184.725	-0.037	-0.055
-677.193	-123.349	-0.198	-0.032
-676.178	-31.382	-0.396	-0.222
-675.164	800.000	0.026	0.101
-674.149	90.150	-0.158	-0.176
-673.135	-200.000	0.023	0.244
-672.120	-157.550	-0.187	0.011
-671.105	21.993	-0.014	0.012
-670.091	479.470	0.054	-0.122
-669.076	-150.376	0.105	0.008
-668.062	94.589	0.286	-0.325
-667.047	-71.774	0.208	0.077
-666.032	-112.935	-0.147	0.029
-665.018	28.900	0.280	-0.237
-664.003	-147.381	-0.341	0.029
-662.989	431.154	-0.044	0.094
-661.974	-5.808	0.095	-0.065
-660.959	70.384	-0.206	-0.213
-659.945	361.444	-0.123	-0.245
-658.930	-99.389	0.349	-0.088
-657.916	-27.145	-0.192	0.112
-656.901	-25.961	-0.382	-0.224
-655.886	-200.000	-0.027	0.220
-654.872	-86.008	0.357	0.110
-653.857	-200.000	0.026	0.194
-652.843	308.684	-0.134	-0.250
-651.828	548.843	0.157	-0.376
-650.814	-68.880	-0.152	0.059
-649.799	-125.634	0.153	0.023
-648.784	-49.295	0.352	0.168
-647.770	800.000	-0.069	0.247
-646.755	-100.152	-0.107	0.027
-645.741	242.270	0.165	-0.276
-644.726	-86.679	-0.054	-0.016
-643.711	-125.486	0.231	0.035
-642.697	45.009	0.053	-0.049
-641.682	327.021	0.108	-0.206
-640.668	-111.574	0.390	0.079
-639.653	800.000	0.113	-0.355
-638.638	800.000	0.068	0.191
-637.624	133.740	-0.003	-0.004
-636.609	140.743	-0.258	0.341
-635.595	800.000	-0.036	0.132
-634.580	-27.748	0.532	-0.308
-633.565	84.070	0.081	-0.089
-632.551	800.000	0.051	0.198
-631.536	-83.006	0.015	-0.005
-630.522	40.873	0.236	0.212
-629.507	-200.000	-0.015	0.247
-628.492	238.303	-0.175	0.289
-627.478	800.000	-0.012	-0.035
-626.463	236.040	0.059	-0.098
-625.449	-0.630	0.108	0.076
-624.434	-200.000	0.002	0.042
-623.419	-200.000	-0.031	-0.150
-622.405	-52.337	-0.245	0.113
-621.390	14.098	0.133	-0.103
-620.376	-99.887	-0.124	0.031
-619.361	-128.391	-0.043	0.006
-618.346	469.875	-0.047	-0.106
-617.332	-25.184	-0.403	-0.238
-616.317	800.000	0.113	-0.385
-615.303	-45.843	0.125	0.061
-614.288	-61.348	-0.012	0.005
-613.273	-151.529	-0.252	0.019
-612.259	800.000	0.073	-0.304
-611.244	800.000	-0.075	-0.227
-610.230	199.439	-0.145	0.222
-609.215	290.208	0.157	0.284
-608.201	155.748	0.076	-0.105
-607.186	-35.269	0.128	-0.070
-606.171	-200.000	0.015	-0.099
-605.157	-148.389	-0.313	-0.026
-604.142	613.677	-0.021	-0.053
-603.128	18.587	-0.099	0.079
-602.113	52.968	0.018	0.018
-601.098	-155.006	-0.162	0.011
-600.084	-172.429	-0.045	0.001
-599.069	-93.465	-0.212	0.058
-598.055	-37.374	0.169	-0.090
-597.040	35.400	0.147	0.129
-596.025	676.837	0.069	0.177
-595.011	-57.874	-0.436	-0.190
-593.996	686.167	-0.111	0.289
-592.982	800.000	-0.024	-0.091
-591.967	275.633	0.214	0.377
-590.952	114.975	0.039	-0.048
-589.938	-200.000	0.053	-0.000
-588.923	211.832	0.100	-0.156
-587.909	-35.681	0.130	-0.070
-586.894	800.000	0.066	-0.227
-585.879	-83.066	-0.160	0.051
-584.865	-99.872	0.182	0.045
-583.850	-11.415	-0.051	0.033
-582.836	-200.000	-0.069	-0.392
-581.821	-19.815	0.129	-0.079
-580.806	-200.000	-0.010	0.244
-579.792	-154.761	-0.345	-0.023
-578.777	-4.865	-0.181	0.124
-577.763	163.756	-0.215	0.302
-576.748	240.256	-0.018	-0.029
-575.733	-36.235	-0.102	0.055
-574.719	230.538	0.123	-0.200
-573.704	-200.000	-0.008	-0.058
-572.690	800.000	0.064	0.274
-571.675	-148.968	-0.236	-0.019
-570.661	-156.759	0.167	0.010
-569.646	800.000	0.067	-0.222
-568.631	-141.823	-0.351	-0.035
-567.617	-200.000	0.025	0.285
-566.602	-200.000	-0.032	-0.195
-565.588	-139.079	0.337	-0.036
-564.573	-53.655	0.079	-0.036
-563.558	193.744	0.091	-0.137
-562.544	-200.000	-0.006	-0.037
-561.529	-180.965	0.116	0.002
-560.515	-145.603	-0.145	0.013
-559.500	54.238	-0.137	0.131
-558.485	254.681	-0.039	0.067
-557.471	90.836	0.292	0.326
-556.456	-1.973	-0.034	-0.024
-555.442	35.809	-0.188	-0.165
-554.427	-89.077	-0.234	0.069
-553.412	256.070	-0.066	-0.113
-552.398	89.564	0.128	-0.142
-551.383	-109.076	0.063	0.013
-550.369	-14.090	0.013	-0.008
-549.354	366.661	-0.133	-0.266
-548.339	-51.754	-0.015	0.007
-547.325	-67.636	0.158	0.061
-546.310	-200.000	-0.068	-0.500
-545.296	-136.853	0.165	-0.019
-544.281	-197.578	-0.285	-0.002
-543.266	-200.000	-0.003	0.035
-542.252	-75.969	-0.331	-0.116
-541.237	800.000	-0.026	-0.107
-540.223	-45.510	0.249	-0.122
-539.208	-120.391	-0.176	-0.030
-538.193	-200.000	-0.011	0.052
-537.179	620.036	-0.137	0.341
-536.164	338.301	0.102	-0.198
-535.150	-200.000	0.026	-0.253
-534.135	-68.974	0.247	0.095
-533.121	59.861	0.183	0.179
-532.106	82.388	0.164	-0.177
-531.091	-200.000	-0.017	0.098
-530.077	-184.599	0.187	0.003
-529.062	-16.832	0.123	0.078
-528.048	-111.047	-0.108	-0.022
-527.033	-31.322	-0.145	-0.081
-526.018	345.707	-0.063	0.124
-525.004	-85.106	-0.320	0.099
-523.989	-25.536	0.145	0.085
-522.975	-200.000	-0.017	-0.095
-521.960	-135.872	-0.146	0.017
-520.945	-200.000	-0.038	-0.230
-519.931	-200.000	-0.011	-0.224
-518.916	-200.000	0.000	0.147
-517.902	12.993	-0.216	0.166
-516.887	-90.643	-0.391	-0.112
-515.872	-66.014	-0.120	-0.048
-514.858	-200.000	0.010	-0.175
-513.843	-77.748	-0.133	-0.046
-512.829	-91.194	-0.045	0.013
-511.814	163.777	0.203	-0.284
-510.799	27.153	0.209	-0.174
-509.785	-85.450	-0.126	-0.039
-508.770	-95.466	0.264	0.070
-507.756	-200.000	0.018	-0.095
-506.741	-200.000	-0.013	-0.190
-505.726	-200.000	0.000	0.061
-504.712	16.523	-0.296	-0.232
-503.697	33.554	-0.314	0.270
-502.683	25.617	0.106	-0.088
-501.668	81.525	-0.306	0.329
-500.653	-42.909	0.274	-0.138
-499.639	-56.755	-0.151	-0.066
-498.624	-200.000	0.065	-0.682
-497.610	138.930	0.182	-0.238
-496.595	-200.000	0.006	-0.323
-495.581	800.000	-0.038	0.113
-494.566	234.596	0.129	0.212
-493.551	-200.000	0.034	0.242
-492.537	800.000	0.130	0.544
-491.522	-200.000	-0.232	-0.000
-490.508	118.949	-0.403	-0.494
-489.493	800.000	-0.090	-0.265
-488.478	137.463	-0.164	0.212
-487.464	570.149	0.124	-0.298
-486.449	800.000	-0.031	0.102
-485.435	407.560	0.104	-0.218
-484.420	673.584	0.095	-0.244
-483.405	800.000	-0.078	-0.233
-482.391	4.432	0.097	-0.071
-481.376	-200.000	0.048	0.267
-480.362	-200.000	0.018	-0.130
-479.347	75.521	-0.196	0.205
-478.332	-200.000	0.033	0.276
-477.318	45.513	-0.041	-0.037
-476.303	130.131	0.075	-0.095
-475.289	98.778	0.094	-0.107
-474.274	205.443	-0.181	-0.279
-473.259	-200.000	0.026	0.211
-472.245	390.746	0.192	-0.395
-471.230	-82.411	-0.116	-0.037
-470.216	420.283	0.082	0.174
-469.201	66.846	-0.107	0.108
-468.186	52.808	0.253	-0.239
-467.172	-200.000	-0.009	0.177
-466.157	-183.857	0.189	-0.003
-465.143	26.621	0.336	0.279
-464.128	-98.094	-0.150	0.038
-463.113	367.688	0.087	0.175
-462.099	-200.000	-0.016	0.304
-461.084	181.072	-0.278	-0.405
-460.070	361.342	-0.014	0.028
-459.055	-48.174	0.093	-0.044
-458.040	800.000	0.061	0.226
-457.026	800.000	0.013	0.040
-456.011	800.000	-0.088	0.279
-454.997	-200.000	0.056	-0.296
-453.982	-200.000	-0.026	-0.167
-452.968	45.465	-0.230	-0.210
-451.953	800.000	0.097	-0.280
-450.938	167.436	-0.178	-0.250
-449.924	37.044	-0.089	-0.078
-448.909	-68.066	-0.269	-0.104
-447.895	-105.198	0.174	-0.039
-446.880	-0.645	-0.244	0.172
-445.865	360.621	0.020	0.039
-444.851	174.362	0.156	0.223
-443.836	-195.415	-0.417	0.003
-442.822	-60.165	0.337	0.142
-441.807	-117.888	-0.202	0.036
-440.792	-152.480	-0.369	-0.026
-439.778	52.779	-0.047	-0.044
-438.763	108.162	-0.039	-0.046
-437.749	36.476	-0.400	0.350
-436.734	128.263	-0.051	-0.064
-435.719	89.362	0.130	0.143
-434.705	40.622	0.302	0.269
-433.690	-78.501	-0.196	0.067
-432.676	26.453	0.155	-0.128
-431.661	98.237	0.144	-0.164
-430.646	-88.537	0.187	-0.055
-429.632	26.221	0.159	0.132
-428.617	-116.383	0.136	0.025
-427.603	-86.120	-0.229	-0.070
-426.588	-67.045	0.376	-0.147
-425.573	-200.000	-0.069	-0.370
-424.559	-200.000	0.017	0.122
-423.544	100.217	0.088	0.101
-422.530	37.488	-0.217	-0.191
-421.515	-82.024	0.127	0.041
-420.500	-40.950	0.188	0.096
-419.486	56.624	0.235	-0.226
-418.471	-131.488	-0.143	-0.019
-417.457	-19.835	0.034	-0.021
-416.442	-15.018	-0.077	-0.049
-415.428	284.632	-0.122	0.217
-414.413	-78.448	-0.132	-0.045
-413.398	37.134	0.256	0.224
-412.384	174.657	-0.187	-0.268
-411.369	-32.537	-0.129	-0.071
-410.355	57.432	0.007	0.007
-409.340	135.619	-0.043	-0.055
-408.325	548.360	0.048	-0.114
-407.311	-200.000	-0.027	0.237
-406.296	-118.767	-0.372	0.065
-405.282	70.734	-0.116	-0.119
-404.267	-27.914	-0.213	0.122
-403.252	249.551	0.030	0.051
-402.238	-138.299	0.303	0.033
-401.223	714.580	0.016	-0.043
-400.209	663.120	-0.053	0.135
-399.194	11.946	0.115	-0.088
-398.179	-121.724	-0.244	0.040
-397.165	800.000	-0.009	0.024
-396.150	-74.003	0.416	-0.149
-395.136	323.065	0.146	0.275
-394.121	43.845	0.133	0.120
-393.106	800.000	0.073	-0.240
-392.092	800.000	-0.051	0.189
-391.077	230.800	-0.216	-0.350
-390.063	-109.646	-0.203	0.042
-389.048	-200.000	0.087	0.464
-388.033	800.000	0.067	-0.217
-387.019	124.394	-0.077	-0.096
-386.004	23.071	-0.127	0.103
-384.990	-23.330	0.145	-0.086
-383.975	800.000	-0.014	0.048
-382.960	38.435	0.045	-0.039
-381.946	54.808	-0.061	-0.058
-380.931	194.713	0.171	0.257
-379.917	14.785	0.217	-0.167
-378.902	800.000	-0.121	-0.401
-377.888	-58.985	0.241	-0.103
-376.873	181.343	0.050	-0.072
-375.858	-181.758	0.178	-0.003
-374.844	-47.069	-0.201	-0.097
-373.829	169.655	0.056	-0.079
-372.815	-27.870	0.248	0.142
-371.800	-59.398	0.102	-0.043
-370.785	-11.781	-0.301	-0.195
-369.771	-50.370	-0.277	0.129
-368.756	800.000	-0.053	0.145
-367.742	101.652	-0.088	0.101
-366.727	113.847	-0.051	-0.061
-365.712	-37.260	0.169	0.089
-364.698	604.216	-0.018	-0.044
-363.683	45.794	-0.071	0.064
-362.669	-44.407	0.129	-0.064
-361.654	17.728	-0.028	-0.022
-360.639	71.750	-0.187	-0.191
-359.625	2.848	0.486	-0.348
-358.610	12.963	0.165	-0.126
-357.596	-11.693	0.225	0.146
-356.581	25.435	-0.318	0.261
-355.566	800.000	-0.020	-0.083
-354.552	-35.676	0.117	0.063
-353.537	135.284	-0.113	0.144
-352.523	-85.310	-0.287	-0.088
-351.508	-79.116	0.344	0.115
-350.493	800.000	-0.101	-0.317
-349.479	-2.896	0.138	0.095
-348.464	-200.000	-0.052	0.259
-347.450	43.876	0.107	-0.097
-346.435	-200.000	0.009	-0.188
-345.420	800.000	0.049	0.195
-344.406	137.290	0.052	0.067
-343.391	800.000	0.090	-0.268
-342.377	-46.045	0.500	-0.243
-341.362	-155.599	0.113	0.007
-340.348	-99.504	-0.464	0.115
-339.333	-200.000	0.004	0.222
-338.318	-138.616	0.047	-0.005
-337.304	-200.000	0.022	-0.304
-336.289	-195.605	-0.173	-0.001
-335.275	-91.483	0.231	0.065
-334.260	-130.124	0.235	0.032
-333.245	-23.698	-0.342	0.202
-332.231	800.000	0.068	-0.278
-331.216	149.766	-0.209	-0.279
-330.202	-33.415	0.096	-0.053
-329.187	800.000	0.084	-0.277
-328.172	-118.778	-0.084	0.015
-327.158	92.992	-0.207	0.231
-326.143	11.434	0.330	-0.249
-325.129	800.000	0.141	0.502
-324.114	217.265	-0.123	0.193
-323.099	-200.000	-0.013	-0.184
-322.085	246.588	-0.106	0.176
-321.070	59.944	-0.076	0.073
-320.056	800.000	-0.067	-0.199
-319.041	21.488	0.181	0.145
-318.026	705.914	0.011	-0.030
-317.012	196.001	0.060	0.090
-315.997	-66.161	-0.217	0.085
-314.983	-183.286	0.355	0.006
-313.968	-200.000	-0.020	0.123
-312.953	800.000	0.051	0.150
-311.939	-102.354	0.213	-0.050
-310.924	-135.563	-0.347	0.041
-309.910	-156.449	0.153	-0.009
-308.895	-76.306	-0.049	-0.017
-307.880	-162.103	-0.034	-0.002
-306.866	591.266	0.189	0.459
-305.851	793.736	-0.086	-0.232
-304.837	1.706	0.057	0.040
-303.822	0.213	-0.237	0.166
-302.807	-30.375	0.361	-0.201
-301.793	-116.332	-0.129	-0.023
-300.778	-95.230	-0.061	0.016
-299.764	163.910	-0.134	-0.185
-298.749	-111.061	0.162	0.033
-297.735	100.268	-0.136	0.156
-296.720	381.229	0.033	0.066
-295.705	331.749	-0.072	0.137
-294.691	73.593	0.089	0.092
-293.676	-73.883	-0.378	-0.135
-292.662	110.941	0.075	-0.089
-291.647	57.666	0.066	-0.064
-290.632	502.754	0.125	-0.284
-289.618	-200.000	0.074	0.373
-288.603	25.280	0.232	-0.190
-287.589	128.354	-0.032	-0.040
-286.574	-32.022	0.346	0.191
-285.559	-29.292	0.213	-0.120
-284.545	56.643	-0.426	-0.408
-283.530	-200.000	-0.077	0.461
-282.516	575.885	0.139	0.335
-281.501	-200.000	0.013	-0.122
-280.486	381.320	-0.224	0.452
-279.472	-200.000	-0.049	0.223
-278.457	-22.110	-0.037	0.022
-277.443	-172.275	0.224	0.007
-276.428	-200.000	-0.000	0.160
-275.413	-55.352	0.253	0.112
-274.399	285.655	-0.115	0.203
-273.384	-58.810	0.131	-0.056
-272.370	-130.721	0.132	-0.017
-271.355	210.501	0.191	0.294
-270.340	-200.000	-0.012	-0.190
-269.326	-105.783	-0.335	0.074
-268.311	-131.027	0.298	-0.039
-267.297	-100.046	0.283	0.069
-266.282	-187.542	0.145	-0.002
-265.267	94.635	0.037	0.041
-264.253	800.000	-0.124	0.394
-263.238	-200.000	-0.006	0.102
-262.224	-200.000	-0.052	0.231
-261.209	-127.510	-0.185	-0.026
-260.195	-200.000	0.008	0.361
-259.180	-3.386	0.391	0.268
-258.165	-185.038	-0.065	-0.001
-257.151	-112.060	0.246	-0.049
-256.136	-55.622	-0.333	-0.147
-255.122	151.704	0.176	0.235
-254.107	67.399	-0.190	0.191
-253.092	14.664	0.239	0.183
-252.078	-89.312	-0.314	0.091
-251.063	76.249	0.182	0.189
-250.049	11.583	-0.190	0.143
-249.034	87.747	-0.057	-0.062
-248.019	-54.875	0.180	-0.080
-247.005	8.280	-0.207	0.152
-245.990	51.510	0.312	0.292
-244.976	-86.748	-0.150	-0.045
-243.961	448.395	-0.062	-0.133
-242.946	490.873	0.144	0.323
-241.932	430.375	-0.043	-0.092
-240.917	-176.381	-0.370	0.009
-239.903	-200.000	0.021	-0.128
-238.888	-129.422	-0.315	-0.043
-237.873	-159.124	0.080	-0.004
-236.859	800.000	0.104	-0.284
-235.844	-85.979	0.024	0.007
-234.830	56.298	0.077	-0.074
-233.815	-93.729	-0.206	0.056
-232.800	141.133	0.159	0.207
-231.786	186.871	-0.116	0.169
-230.771	-65.506	0.162	-0.064
-229.757	329.623	-0.155	-0.293
-228.742	91.142	0.114	-0.126
-227.727	24.748	-0.082	-0.067
-226.713	-55.856	-0.117	-0.051
-225.698	-20.898	0.101	0.061
-224.684	4.936	-0.252	0.182
-223.669	113.680	0.264	0.315
-222.655	-27.544	-0.152	0.087
-221.640	-54.497	-0.299	-0.133
-220.625	37.896	0.112	0.098
-219.611	-107.810	0.106	0.023
-218.596	25.079	-0.271	-0.221
-217.582	15.256	0.139	0.107
-216.567	-18.685	0.216	-0.132
-215.552	-200.000	0.011	-0.122
-214.538	26.569	0.127	-0.105
-213.523	-200.000	0.034	-0.174
-212.509	15.485	0.122	-0.094
-211.494	-200.000	0.053	-0.507
-210.479	-134.044	0.092	-0.011
-209.465	-2.184	-0.339	0.233
-208.450	-200.000	0.021	0.442
-207.436	-83.637	-0.299	0.094
-206.421	323.903	-0.199	0.372
-205.406	-97.202	0.260	-0.067
-204.392	-200.000	0.008	-0.201
-203.377	-200.000	-0.035	0.183
-202.363	-84.213	0.042	-0.013
-201.348	596.073	-0.050	-0.120
-200.333	200.362	0.186	-0.280
-199.319	-22.378	0.060	0.035
-198.304	-38.397	-0.171	-0.089
-197.290	-20.729	-0.106	0.064
-196.275	343.005	0.137	-0.263
-195.260	40.131	0.253	0.223
-194.246	326.817	-0.221	0.414
-193.231	-200.000	0.005	-0.092
-192.217	559.867	-0.063	0.148
-191.202	-200.000	-0.015	0.069
-190.187	209.370	-0.113	0.173
-189.173	480.180	0.032	0.072
-188.158	-34.920	-0.296	0.158
-187.144	-200.000	-0.002	-0.149
-186.129	-200.000	0.004	-0.197
-185.114	10.896	-0.024	-0.018
-184.100	-42.431	0.255	0.127
-183.085	-6.129	-0.068	0.046
-182.071	-73.417	-0.057	0.020
-181.056	384.467	-0.120	-0.242
-180.042	134.307	-0.073	-0.093
-179.027	680.389	0.204	0.521
-178.012	-161.992	-0.172	-0.009
-176.998	321.275	0.108	-0.201
-175.983	-96.764	-0.366	-0.094
-174.969	-200.000	0.004	0.072
-173.954	-15.846	0.190	-0.118
-172.939	413.490	-0.092	0.191
-171.925	-101.533	0.181	0.043
-170.910	55.799	0.154	0.146
-169.896	168.728	-0.180	-0.251
-168.881	-84.959	-0.286	-0.088
-167.866	84.191	-0.094	0.100
-166.852	-37.241	-0.425	-0.222
-165.837	-163.577	-0.236	0.011
-164.823	181.388	0.117	0.169
-163.808	38.726	-0.083	0.073
-162.793	56.859	0.181	0.172
-161.779	-153.720	0.250	-0.017
-160.764	54.690	-0.146	-0.138
-159.750	125.988	0.236	-0.292
-158.735	-200.000	0.001	-0.351
-157.720	386.163	0.086	0.173
-156.706	-34.328	0.192	-0.103
-155.691	2.295	-0.256	-0.181
-154.677	435.225	0.225	0.479
-153.662	62.699	0.255	-0.249
-152.647	-32.891	0.195	-0.106
-151.633	800.000	-0.075	-0.231
-150.618	-200.000	-0.022	0.195
-149.604	739.660	-0.086	0.226
-148.589	-40.835	0.322	-0.163
-147.574	512.543	0.102	-0.232
-146.560	248.015	-0.051	-0.085
-145.545	280.668	0.156	0.273
-144.531	-200.000	-0.003	-0.348
-143.516	13.150	0.016	-0.012
-142.502	627.148	-0.102	-0.252
-141.487	215.947	0.047	0.072
-140.472	-200.000	-0.004	0.024
-139.458	-200.000	-0.037	0.189
-138.443	-8.883	-0.069	-0.045
-137.429	-169.141	-0.006	-0.000
-136.414	-42.529	-0.191	-0.095
-135.399	-200.000	-0.009	0.217
-134.385	-200.000	-0.012	0.252
-133.370	-51.818	-0.234	-0.107
-132.356	-123.373	-0.156	-0.024
-131.341	-200.000	0.002	0.117
-130.326	288.459	0.052	-0.092
-129.312	-59.626	-0.195	-0.082
-128.297	444.466	0.147	0.314
-127.283	-154.050	-0.222	-0.015
-126.268	-85.274	0.185	0.057
-125.253	651.781	0.090	-0.226
-124.239	-35.456	0.289	-0.153
-123.224	47.973	-0.149	0.136
-122.210	25.996	-0.264	0.215
-121.195	235.052	0.063	0.102
-120.180	-200.000	0.016	0.170
-119.166	-200.000	0.031	0.165
-118.151	-200.000	0.007	0.285
-117.137	-200.000	-0.037	0.227
-116.122	-81.188	0.245	0.079
-115.107	-86.813	0.055	0.016
-114.093	-200.000	-0.063	0.499
-113.078	656.313	-0.217	0.544
-112.064	-38.353	0.175	0.091
-111.049	-200.000	0.006	0.098
-110.034	-200.000	0.031	-0.368
-109.020	-20.812	-0.244	-0.146
-108.005	-116.889	0.179	-0.032
-106.991	652.009	0.035	-0.087
-105.976	-114.257	0.064	-0.012
-104.962	309.718	0.155	0.283
-103.947	-200.000	0.042	-0.182
-102.932	-200.000	0.021	0.118
-101.918	-35.221	-0.250	0.133
-100.903	-0.604	0.369	0.256
-99.889	-95.789	-0.386	0.101
-98.874	-200.000	-0.026	0.204
-97.859	534.876	0.069	0.161
-96.845	-200.000	-0.024	0.142
-95.830	-1.505	0.144	-0.099
-94.816	16.145	0.078	-0.060
-93.801	50.159	0.206	0.190
-92.786	-28.401	0.126	-0.071
-91.772	-200.000	-0.002	-0.163
-90.757	600.381	-0.087	0.212
-89.743	283.572	0.061	0.106
-88.728	-200.000	0.027	-0.168
-87.713	800.000	-0.018	0.073
-86.699	31.188	-0.055	0.046
-85.684	-77.448	-0.199	0.067
-84.670	-200.000	0.016	-0.292
-83.655	38.768	-0.181	0.157
-82.640	-200.000	-0.079	0.393
-81.626	-21.203	0.149	0.089
-80.611	800.000	-0.075	-0.206
-79.597	58.498	-0.226	0.216
-78.582	-200.000	-0.013	0.213
-77.567	-200.000	-0.000	0.267
-76.553	423.906	-0.024	0.050
-75.538	800.000	0.001	0.004
-74.524	58.583	0.087	0.083
-73.509	-39.631	-0.216	-0.110
-72.494	87.669	0.286	-0.309
-71.480	-132.606	-0.123	-0.015
-70.465	-96.970	-0.271	0.069
-69.451	800.000	-0.113	-0.337
-68.436	32.472	0.218	0.183
-67.422	-139.032	-0.125	-0.013
-66.407	338.677	-0.083	0.157
-65.392	-200.000	0.075	0.358
-64.378	23.567	0.164	0.132
-63.363	-200.000	-0.068	-0.341
-62.349	-116.261	-0.055	0.010
-61.334	258.535	-0.782	-1.315
-60.319	3.245	0.893	0.633
-59.305	304.856	-0.851	-1.540
-58.290	148.971	0.909	1.198
-57.276	800.000	0.525	1.555
-56.261	-200.000	133.700	666.476
-55.246	327.936	1681.633	3145.716
-54.232	131.281	2825.412	3537.678
-53.217	88.069	2189.908	2367.559
-52.203	32.505	1613.200	1358.598
-51.188	24.261	1358.175	1093.444
-50.173	21.902	1320.835	1049.250
-49.159	49.609	1396.082	1281.222
-48.144	46.030	1405.690	1267.941
-47.130	24.293	1351.385	1087.999
-46.115	21.148	1331.838	1053.277
-45.100	20.876	1326.846	1047.652
-44.086	20.821	1324.294	1045.266
-43.071	20.859	1321.378	1043.150
-42.057	20.834	1319.932	1041.818
-41.042	20.836	1318.545	1040.693
-40.027	20.854	1316.642	1039.256
-39.013	20.960	1314.570	1038.211
-37.998	20.896	1312.994	1036.544
-36.984	20.880	1311.169	1034.966
-35.969	21.088	1308.891	1034.359
-34.954	21.094	1307.708	1033.420
-33.940	20.988	1306.663	1031.925
-32.925	20.972	1305.736	1031.057
-31.911	21.088	1303.801	1030.174
-30.896	21.055	1302.181	1028.658
-29.881	21.135	1300.759	1027.967
-28.867	21.142	1299.125	1026.676
-27.852	21.102	1298.119	1025.605
-26.838	21.158	1296.667	1024.746
-25.823	21.082	1295.646	1023.452
-24.809	21.134	1293.807	1022.262
-23.794	21.084	1292.683	1021.044
-22.779	21.044	1291.275	1019.656
-21.765	21.128	1289.953	1019.061
-20.750	21.073	1288.786	1017.778
-19.736	20.921	1287.305	1015.682
-18.721	20.917	1286.399	1014.904
-17.706	20.854	1285.475	1013.768
-16.692	20.925	1284.191	1013.127
-15.677	21.030	1282.970	1012.734
-14.663	20.863	1281.671	1010.700
-13.648	20.855	1281.432	1010.428
-12.633	20.993	1279.973	1010.032
-11.619	20.860	1279.399	1008.773
-10.604	20.871	1278.505	1008.091
-9.590	20.947	1277.181	1007.444
-8.575	20.840	1277.133	1006.750
-7.560	20.949	1275.601	1006.129
-6.546	20.894	1274.429	1004.850
-5.531	20.862	1274.273	1004.504
-4.517	20.925	1272.960	1003.787
-3.502	20.976	1272.093	1003.362
-2.487	20.995	1271.449	1002.921
-1.473	20.903	1267.171	998.978
-0.458	19.771	1251.813	980.416
0.556	15.471	1238.263	946.480
1.571	12.412	1247.325	935.925
2.586	11.724	1263.376	943.917
3.600	11.815	1251.167	935.232
4.615	8.771	1177.732	863.869
5.629	3.203	1107.245	783.799
6.644	0.748	1090.368	759.461
7.659	0.491	1088.714	756.954
8.673	0.514	1087.638	756.253
9.688	0.567	1086.520	755.675
10.702	0.854	1083.441	754.899
11.717	4.043	1088.004	773.970
12.731	10.537	1096.358	812.461
13.746	15.445	1102.959	841.962
14.761	17.009	1104.545	850.945
15.775	16.328	1102.979	846.252
16.790	15.368	1101.003	839.858
17.804	14.738	1098.966	835.084
18.819	14.325	1098.366	832.489
19.834	14.232	1097.610	831.375
20.848	13.953	1096.464	829.042
21.863	13.719	1095.035	826.725
22.877	13.402	1094.641	824.773
23.892	13.456	1094.249	824.671
24.907	13.516	1093.479	824.319
25.921	13.580	1092.377	823.735
26.936	13.519	1091.977	823.053
27.950	13.511	1090.898	822.131
28.965	13.610	1089.446	821.453
29.980	13.636	1087.933	820.367
30.994	13.711	1087.114	820.051
32.009	13.700	1086.220	819.248
33.023	13.703	1085.338	818.523
34.038	13.772	1083.795	817.628
35.053	13.609	1083.378	816.438
36.067	13.684	1082.183	815.835
37.082	13.703	1081.560	815.386
38.096	13.636	1080.665	814.313
39.111	13.714	1079.877	814.029
40.126	13.606	1078.520	812.403
41.140	13.507	1077.707	811.235
42.155	13.555	1076.130	810.210
43.169	13.518	1075.086	809.172
44.184	13.488	1074.024	808.156
45.199	13.650	1072.617	807.814
46.213	13.568	1072.187	807.020
47.228	13.616	1071.138	806.390
48.242	13.602	1069.743	805.201
49.257	13.624	1069.120	804.768
50.271	13.513	1068.447	803.653
51.286	13.586	1067.403	803.152
52.301	13.625	1065.700	801.988
53.315	13.567	1065.133	801.210
54.330	13.665	1063.876	800.664
55.344	13.514	1063.404	799.510
56.359	13.541	1062.598	798.962
57.374	13.596	1061.715	798.494
58.388	13.633	1060.471	797.668
59.403	13.532	1059.582	796.443
60.417	13.540	1058.683	795.733
61.432	13.453	1057.995	794.729
62.447	13.409	1057.488	794.064
63.461	13.319	1056.731	792.993
64.476	13.464	1055.431	792.646
65.490	13.379	1054.962	791.812
66.505	13.429	1053.972	791.242
67.520	13.426	1053.654	790.916
68.534	13.571	1052.317	790.535
69.549	13.492	1051.868	789.754
70.563	13.520	1050.983	789.149
71.578	13.446	1050.118	788.077
72.593	13.336	1049.583	787.084
73.607	13.354	1048.743	786.471
74.622	13.426	1048.075	786.244
75.636	13.290	1047.728	785.267
76.651	13.522	1046.633	785.478
77.666	13.351	1046.130	784.221
78.680	13.467	1045.453	784.190
79.695	13.421	1044.810	783.423
80.709	13.515	1044.138	783.296
81.724	13.575	1043.637	783.133
82.739	13.581	1042.056	781.906
83.753	13.480	1041.391	780.862
84.768	13.555	1040.966	780.829
85.782	13.658	1039.910	780.451
86.797	13.635	1038.846	779.473
87.812	13.518	1038.568	778.646
88.826	13.623	1036.820	777.762
89.841	13.636	1035.713	776.920
90.855	13.656	1035.029	776.432
91.870	13.727	1034.026	775.945
92.884	13.710	1033.299	775.253
93.899	13.595	1033.056	774.465
94.914	13.700	1031.788	773.932
95.928	13.708	1030.977	773.295
96.943	13.739	1030.373	772.916
97.957	13.732	1029.017	771.797
98.972	13.795	1028.078	771.320
99.987	13.726	1027.484	770.484
101.001	13.765	1026.808	770.092
102.016	13.646	1025.549	768.527
103.030	13.778	1024.690	768.428
104.045	13.708	1023.945	767.475
105.060	13.752	1023.028	766.926
106.074	13.601	1022.474	765.742
107.089	13.631	1021.352	764.973
108.103	13.527	1020.212	763.572
109.118	13.519	1019.558	762.981
110.133	13.643	1018.313	762.553
111.147	13.458	1017.946	761.357
112.162	13.551	1016.744	760.819
113.176	13.737	1015.640	760.778
114.191	13.567	1015.325	759.693
115.206	13.690	1013.798	759.049
116.220	13.636	1013.365	758.411
117.235	13.554	1012.712	757.480
118.249	13.681	1011.759	757.279
119.264	13.667	1010.950	756.544
120.279	13.714	1010.461	756.325
121.293	13.680	1008.948	754.971
122.308	13.631	1008.354	754.236
123.322	13.664	1007.504	753.684
124.337	13.706	1006.194	752.829
125.352	13.642	1005.190	751.721
126.366	13.640	1004.138	750.857
127.381	13.759	1002.468	750.081
128.395	13.744	1001.633	749.320
129.410	13.651	1001.084	748.425
130.424	13.605	1000.628	747.812
131.439	13.622	999.463	746.948
132.454	13.598	998.906	746.358
133.468	13.705	997.724	745.892
134.483	13.667	997.361	745.381
135.497	13.729	996.019	744.591
136.512	13.671	995.770	744.080
137.527	13.613	994.635	742.906
138.541	13.581	994.114	742.308
139.556	13.635	993.121	741.743
140.570	13.762	992.174	741.538
141.585	13.833	991.496	741.282
142.600	13.887	990.194	740.483
143.614	13.833	989.630	739.757
144.629	13.764	989.080	738.972
145.643	13.843	987.954	738.416
146.658	13.759	986.889	737.180
147.673	13.836	986.633	737.271
148.687	13.767	985.814	736.286
149.702	13.763	984.454	735.187
150.716	13.743	984.038	734.723
151.731	13.926	982.920	734.633
152.746	13.789	982.549	733.682
153.760	14.029	981.426	733.840
154.775	13.990	981.105	733.363
155.789	13.862	980.387	732.197
156.804	13.942	979.892	732.113
157.819	14.003	978.869	731.557
158.833	14.109	978.526	731.700
159.848	14.194	977.067	730.918
160.862	13.981	976.455	729.460
161.877	13.899	975.372	728.227
162.892	14.001	974.272	727.789
163.906	13.920	973.845	727.050
164.921	14.057	972.442	726.539
165.935	13.970	972.058	725.806
166.950	13.994	971.132	725.156
167.964	13.991	970.268	724.433
168.979	14.026	969.302	723.801
169.994	14.096	968.157	723.185
171.008	13.935	968.148	722.412
172.023	14.087	966.843	722.035
173.037	14.154	966.100	721.707
174.052	14.109	965.485	720.990
175.067	14.191	964.935	720.872
176.081	14.139	964.103	719.959
177.096	14.137	963.800	719.664
178.110	14.023	963.087	718.571
179.125	14.033	962.554	718.155
180.140	14.114	961.891	717.946
181.154	14.159	961.376	717.691
182.169	14.259	960.993	717.776
183.183	14.243	960.258	717.094
184.198	14.202	959.131	716.013
185.213	14.460	958.248	716.397
186.227	14.223	958.132	715.231
187.242	14.360	956.959	714.878
188.256	14.468	956.194	714.706
189.271	14.243	956.020	713.550
190.286	14.102	955.662	712.613
191.300	14.118	954.546	711.789
192.315	14.188	953.937	711.572
193.329	14.147	953.824	711.249
194.344	14.314	952.361	710.805
195.359	14.266	952.120	710.360
196.373	14.267	951.523	709.855
197.388	14.369	950.846	709.723
198.402	14.412	950.610	709.665
199.417	14.493	949.618	709.205
200.432	14.392	949.067	708.304
201.446	14.665	948.012	708.614
202.461	14.535	947.860	707.886
203.475	14.665	946.872	707.635
204.490	14.454	946.596	706.471
205.504	14.525	945.641	705.998
206.519	14.474	945.032	705.265
207.534	14.481	944.624	704.928
208.548	14.562	943.640	704.473
209.563	14.550	943.135	703.982
210.577	14.539	942.395	703.321
211.592	14.704	941.552	703.327
212.607	14.629	940.949	702.497
213.621	14.595	940.191	701.725
214.636	14.599	939.733	701.338
215.650	14.622	938.865	700.723
216.665	14.708	937.529	700.025
217.680	14.765	937.142	699.914
218.694	14.808	936.650	699.663
219.709	14.685	936.176	698.735
220.723	14.811	935.425	698.640
221.738	14.714	934.486	697.469
222.753	14.871	933.659	697.448
223.767	14.867	932.645	696.612
224.782	14.865	932.464	696.408
225.796	14.803	932.299	695.964
226.811	14.822	931.510	695.392
227.826	14.731	930.901	694.498
228.840	14.872	929.899	694.274
229.855	14.872	929.150	693.651
230.869	14.889	928.400	693.103
231.884	14.869	927.672	692.416
232.899	14.655	927.455	691.303
233.913	14.922	926.229	691.432
234.928	14.948	925.531	690.958
235.942	14.735	925.502	689.996
236.957	14.855	924.789	689.901
237.972	14.925	923.867	689.437
238.986	14.989	923.067	689.043
240.001	14.945	922.214	688.167
241.015	14.853	922.046	687.599
242.030	14.956	921.249	687.367
243.045	14.984	920.579	686.922
244.059	14.976	920.282	686.608
245.074	15.021	919.294	685.995
246.088	14.891	918.923	685.125
247.103	15.118	917.869	685.208
248.117	15.053	917.259	684.425
249.132	15.251	917.099	685.052
250.147	15.228	915.855	683.969
251.161	15.267	915.191	683.575
252.176	15.302	914.436	683.092
253.190	15.198	914.053	682.321
254.205	15.346	913.666	682.576
255.220	15.307	912.825	681.727
256.234	15.287	912.335	681.220
257.249	15.420	911.207	680.856
258.263	15.378	910.405	680.027
259.278	15.492	909.500	679.751
260.293	15.577	908.678	679.424
261.307	15.428	908.760	678.822
262.322	15.536	908.317	678.866
263.336	15.455	907.425	677.814
264.351	15.507	906.589	677.337
265.366	15.549	906.401	677.305
266.380	15.597	905.589	676.834
267.395	15.532	904.990	676.064
268.409	15.510	904.020	675.192
269.424	15.622	902.913	674.754
270.439	15.503	902.618	673.999
271.453	15.624	901.865	673.858
272.468	15.640	901.287	673.431
273.482	15.473	900.626	672.212
274.497	15.633	899.939	672.278
275.512	15.545	899.530	671.563
276.526	15.643	898.857	671.393
277.541	15.623	898.428	670.932
278.555	15.752	898.028	671.089
279.570	15.902	896.722	670.652
280.585	15.849	895.778	669.673
281.599	15.819	895.215	669.073
282.614	15.771	894.823	668.530
283.628	15.801	894.248	668.162
284.643	15.750	893.769	667.542
285.657	15.936	892.931	667.596
286.672	15.702	892.592	666.356
287.687	15.930	891.645	666.490
288.701	15.805	891.101	665.530
289.716	15.844	890.508	665.184
290.730	15.918	889.933	664.986
291.745	16.000	889.181	664.689
292.760	15.905	888.741	663.930
293.774	15.986	887.963	663.607
294.789	16.028	887.429	663.316
295.803	15.833	887.095	662.241
296.818	16.037	885.861	662.062
297.833	16.005	885.165	661.356
298.847	16.100	884.820	661.412
299.862	16.142	883.927	660.854
300.876	16.121	883.634	660.491
301.891	16.146	882.910	659.988
302.906	16.285	882.134	659.895
303.920	16.210	882.111	659.525
304.935	16.151	881.754	658.972
305.949	16.121	880.861	658.126
306.964	16.162	880.163	657.707
307.979	16.161	879.702	657.303
308.993	16.064	879.345	656.597
310.008	16.357	878.154	656.792
311.022	16.321	877.563	656.153
312.037	16.194	877.167	655.305
313.052	16.297	876.627	655.242
314.066	16.394	875.513	654.726
315.081	16.256	875.545	654.159
316.095	16.194	875.049	653.490
317.110	16.334	874.211	653.349
318.125	16.291	873.630	652.688
319.139	16.257	873.037	652.056
320.154	16.216	872.740	651.621
321.168	16.304	871.862	651.246
322.183	16.304	871.339	650.796
323.197	16.310	871.252	650.697
324.212	16.354	870.168	650.000
325.227	16.417	869.708	649.843
326.241	16.328	869.239	649.091
327.256	16.385	868.720	648.865
328.270	16.329	868.361	648.324
329.285	16.359	868.016	648.124
330.300	16.410	866.789	647.346
331.314	16.466	866.502	647.290
332.329	16.394	865.829	646.453
333.343	16.501	865.440	646.514
334.358	16.467	865.012	646.008
335.373	16.560	864.618	646.014
336.387	16.710	863.817	645.928
337.402	16.590	864.206	645.705
338.416	16.642	863.472	645.299
339.431	16.725	862.888	645.120
340.446	16.705	862.630	644.793
341.460	16.744	862.311	644.645
342.475	16.677	861.839	643.983
343.489	16.750	861.522	643.967
344.504	16.774	860.929	643.556
345.519	16.835	860.502	643.412
346.533	16.741	859.894	642.543
347.548	16.718	859.438	642.060
348.562	16.681	858.913	641.471
349.577	16.671	858.699	641.214
350.592	16.827	857.136	640.583
351.606	16.789	856.784	640.120
352.621	16.811	856.140	639.664
353.635	16.815	855.581	639.203
354.650	16.881	854.831	638.836
355.665	16.879	854.318	638.389
356.679	16.855	853.566	637.680
357.694	16.919	853.082	637.503
358.708	16.862	852.182	636.559
359.723	16.767	851.891	635.928
360.738	16.936	851.158	635.961
361.752	16.765	850.934	635.095
362.767	16.890	850.202	634.959
363.781	17.040	849.673	635.070
364.796	17.122	849.191	634.961
365.810	17.183	848.521	634.631
366.825	17.147	848.206	634.206
367.840	17.157	847.949	633.993
368.854	17.041	847.394	633.092
369.869	17.105	846.956	632.946
370.883	17.131	846.359	632.543
371.898	17.262	845.869	632.604
372.913	17.283	845.614	632.436
373.927	17.234	845.066	631.788
374.942	17.183	844.852	631.385
375.956	17.348	844.282	631.517
376.971	17.228	843.869	630.705
377.986	17.248	843.382	630.359
379.000	17.456	842.480	630.402
380.015	17.478	842.252	630.257
381.029	17.629	841.422	630.136
382.044	17.397	841.145	629.017
383.059	17.340	840.375	628.175
384.073	17.520	839.749	628.313
385.088	17.454	839.069	627.506
386.102	17.497	838.413	627.121
387.117	17.509	838.347	627.059
388.132	17.549	837.529	626.537
389.146	17.468	837.041	625.820
390.161	17.474	836.655	625.499
391.175	17.578	836.242	625.516
392.190	17.569	835.489	624.863
393.205	17.418	835.134	623.990
394.219	17.480	834.825	623.933
395.234	17.500	834.287	623.545
396.248	17.512	833.926	623.266
397.263	17.551	833.379	622.943
398.278	17.517	833.183	622.618
399.292	17.444	832.528	621.806
400.307	17.530	832.181	621.808
401.321	17.549	831.595	621.385
402.336	17.640	831.214	621.374
403.350	17.579	830.732	620.739
404.365	17.700	830.155	620.691
405.380	17.796	829.578	620.556
406.394	17.759	829.170	620.061
407.409	17.792	828.781	619.834
408.423	17.835	828.340	619.605
409.438	17.937	827.884	619.580
410.453	17.847	827.666	619.035
411.467	17.837	827.292	618.666
412.482	17.927	826.461	618.317
413.496	17.840	826.737	618.153
414.511	17.959	825.836	617.852
415.526	17.956	825.388	617.452
416.540	18.010	824.748	617.114
417.555	18.006	824.380	616.771
418.569	17.870	824.435	616.266
419.584	18.056	823.538	616.212
420.599	17.991	823.401	615.820
421.613	115.247	1301.427	1491.334
422.628	100.069	1371.031	1491.415
