DTS Sentinel unit serial number:	SN413079Multiplexer serial number:	ORYXHardware model number:	OX4-SRSoftware version number:	ORYX F/W v4.00 Oryx Data Collector v3.7.2.0data status	okinstallation	princeton_trtdifferential loss correction	single-endedforward channel	channel 1reverse channel	N/Adate	2019/09/16time	05:02:35forward acquisition time	60.00reverse acquisition time	0.00gamma	496.2192k internal	0.2333k external	0.2333temperature offset calibration	0.9983default loss term (dB/km)	0.3790temperature slope calibration	1.0000multiplexer offset coefficient	1.0000multiplexer slope coefficient	1.0000fibre end	0.00T internal ref (°C)	27.17T ext. ref 1 (°C)	11.01T ext. ref 2 (°C)	21.95length (m)	temperature (°C)	Stokes	anti-Stokes-747.200	-5.867	-0.260	0.179
-746.185	-47.676	-0.240	0.117
-745.171	-156.953	0.088	0.005
-744.156	-200.000	-0.026	0.176
-743.142	-87.083	-0.176	-0.054
-742.127	-119.429	-0.579	0.101
-741.112	25.186	-0.123	-0.102
-740.098	7.050	0.089	0.067
-739.083	62.433	-0.025	-0.025
-738.069	457.506	-0.082	0.184
-737.054	-200.000	0.003	0.203
-736.039	503.633	-0.086	-0.201
-735.025	407.045	-0.066	-0.140
-734.010	165.498	-0.265	-0.377
-732.996	-200.000	0.014	0.211
-731.981	24.251	-0.161	-0.134
-730.966	800.000	0.070	-0.301
-729.952	-38.474	-0.210	-0.112
-728.937	51.546	-0.330	0.315
-727.923	-55.495	0.132	-0.059
-726.908	-200.000	0.024	-0.292
-725.894	-200.000	0.025	-0.615
-724.879	-200.000	0.029	-0.500
-723.864	-134.747	-0.222	-0.027
-722.850	141.246	0.108	-0.144
-721.835	45.128	0.181	-0.167
-720.821	-200.000	-0.058	-0.288
-719.806	-80.042	0.235	0.079
-718.791	76.017	-0.063	0.067
-717.777	139.785	0.045	0.059
-716.762	-82.139	0.288	-0.094
-715.748	-166.171	-0.236	0.010
-714.733	95.320	0.124	0.142
-713.718	-89.477	0.092	-0.027
-712.704	-200.000	0.012	-0.353
-711.689	-14.937	-0.265	-0.171
-710.675	-161.707	-0.178	0.009
-709.660	286.868	-0.091	0.166
-708.645	337.597	-0.064	0.125
-707.631	33.918	-0.276	-0.242
-706.616	-140.723	-0.185	-0.019
-705.602	-143.169	-0.163	-0.016
-704.587	125.761	-0.119	0.151
-703.572	-103.199	-0.281	0.067
-702.558	584.728	-0.190	0.469
-701.543	130.714	-0.094	0.121
-700.529	165.637	0.154	-0.219
-699.514	337.307	0.125	0.245
-698.499	276.203	0.224	-0.400
-697.485	29.655	0.311	-0.265
-696.470	-59.986	0.128	0.055
-695.456	-29.243	0.035	0.020
-694.441	35.562	0.127	0.112
-693.426	40.381	-0.299	0.270
-692.412	82.214	0.108	0.118
-691.397	-124.290	-0.185	0.029
-690.383	800.000	-0.010	0.036
-689.368	75.689	-0.104	0.110
-688.354	-67.323	0.159	-0.063
-687.339	-200.000	0.005	0.043
-686.324	-4.200	-0.085	0.059
-685.310	-111.796	0.320	-0.065
-684.295	-142.074	-0.294	-0.029
-683.281	-175.293	-0.238	-0.007
-682.266	-108.759	-0.114	0.025
-681.251	430.694	0.097	0.210
-680.237	-200.000	-0.039	0.184
-679.222	-146.586	0.196	-0.017
-678.208	-68.246	0.259	-0.101
-677.193	2.703	-0.078	0.057
-676.178	-133.411	0.338	0.043
-675.164	-58.071	0.299	-0.131
-674.149	38.652	0.148	0.132
-673.135	-53.726	-0.435	0.199
-672.120	285.549	-0.073	-0.131
-671.105	61.416	0.006	-0.006
-670.091	-33.625	0.269	-0.149
-669.076	800.000	-0.121	-0.353
-668.062	118.163	0.149	0.184
-667.047	-68.054	-0.220	0.086
-666.032	-65.768	-0.280	-0.112
-665.018	-128.662	-0.215	-0.030
-664.003	800.000	-0.048	0.175
-662.989	193.401	0.079	-0.119
-661.974	-27.400	-0.170	-0.099
-660.959	-66.061	-0.358	-0.143
-659.945	-135.300	0.119	0.014
-658.930	273.492	0.172	0.304
-657.916	199.127	0.072	0.110
-656.901	74.474	-0.141	-0.148
-655.886	800.000	-0.060	0.231
-654.872	-126.093	-0.169	-0.025
-653.857	-120.689	0.074	0.013
-652.843	-67.684	-0.273	-0.107
-651.828	-200.000	0.009	-0.097
-650.814	800.000	-0.081	0.247
-649.799	328.547	0.074	0.143
-648.784	-151.918	0.139	0.010
-647.770	-82.468	0.171	0.056
-646.755	29.104	-0.279	-0.237
-645.741	-48.414	-0.041	-0.020
-644.726	110.498	0.094	-0.113
-643.711	-121.914	0.243	0.040
-642.697	-116.340	-0.252	0.047
-641.682	114.540	0.140	0.170
-640.668	-200.000	-0.035	-0.191
-639.653	625.546	-0.083	-0.211
-638.638	414.799	-0.185	-0.395
-637.624	-168.987	0.098	-0.004
-636.609	565.301	-0.043	0.103
-635.595	-200.000	0.023	0.292
-634.580	254.135	0.058	-0.098
-633.565	178.234	-0.172	-0.251
-632.551	-99.592	0.223	-0.056
-631.536	-101.641	-0.369	-0.090
-630.522	144.234	0.205	0.273
-629.507	-200.000	-0.013	0.223
-628.492	-200.000	0.024	0.155
-627.478	67.342	0.246	0.251
-626.463	-86.919	-0.242	0.074
-625.449	625.947	-0.069	-0.173
-624.434	19.093	-0.286	0.230
-623.419	-95.911	-0.149	-0.040
-622.405	286.996	0.184	-0.333
-621.390	-200.000	-0.069	-0.432
-620.376	-96.266	-0.173	0.046
-619.361	-200.000	0.028	-0.221
-618.346	-39.651	0.268	-0.140
-617.332	4.320	0.088	-0.065
-616.317	-200.000	-0.017	-0.273
-615.303	-133.563	0.064	0.008
-614.288	74.526	-0.026	0.027
-613.273	-200.000	-0.047	0.288
-612.259	-104.652	0.244	0.056
-611.244	-63.382	-0.080	0.033
-610.230	800.000	-0.033	0.145
-609.215	322.071	0.043	0.082
-608.201	126.227	-0.103	0.130
-607.186	-48.304	0.217	-0.105
-606.171	800.000	0.093	-0.296
-605.157	-200.000	0.011	-0.154
-604.142	9.111	-0.144	0.109
-603.128	-200.000	-0.020	-0.127
-602.113	-200.000	0.011	-0.174
-601.098	-200.000	0.019	0.180
-600.084	-7.669	-0.241	0.163
-599.069	-42.185	0.205	0.105
-598.055	800.000	-0.069	-0.215
-597.040	800.000	0.073	-0.240
-596.025	152.840	-0.126	0.172
-595.011	-104.402	-0.237	-0.055
-593.996	-200.000	0.016	0.272
-592.982	4.318	-0.049	0.036
-591.967	435.446	-0.187	-0.406
-590.952	-119.002	0.383	0.067
-589.938	-129.589	-0.455	-0.063
-588.923	800.000	0.121	0.353
-587.909	-200.000	-0.001	0.050
-586.894	-71.388	-0.026	-0.010
-585.879	85.464	-0.119	0.130
-584.865	-200.000	0.042	-0.339
-583.850	-112.864	0.322	-0.064
-582.836	194.201	0.117	0.177
-581.821	485.118	-0.153	-0.347
-580.806	-21.656	0.129	0.078
-579.792	800.000	-0.044	-0.171
-578.777	800.000	-0.055	-0.207
-577.763	598.188	0.048	0.119
-576.748	-163.752	0.308	0.014
-575.733	-38.366	0.176	-0.093
-574.719	26.754	-0.194	-0.162
-573.704	753.312	-0.057	-0.155
-572.690	-157.993	-0.100	-0.006
-571.675	208.458	0.176	-0.276
-570.661	-200.000	0.009	0.238
-569.646	428.133	0.060	-0.129
-568.631	246.183	-0.182	0.306
-567.617	-56.486	0.252	0.111
-566.602	-53.321	0.069	0.032
-565.588	-79.047	0.255	0.087
-564.573	-102.769	0.251	0.060
-563.558	11.906	-0.025	-0.019
-562.544	36.326	-0.100	-0.088
-561.529	16.323	-0.055	-0.044
-560.515	-156.339	-0.549	0.034
-559.500	-178.137	0.394	0.009
-558.485	247.474	-0.129	0.218
-557.471	752.603	-0.051	0.137
-556.456	-58.113	0.168	0.073
-555.442	-200.000	-0.035	0.155
-554.427	-112.846	0.116	0.023
-553.412	-56.243	0.365	-0.162
-552.398	-63.156	-0.130	-0.054
-551.383	-88.888	-0.288	-0.085
-550.369	-45.740	0.165	-0.082
-549.354	-200.000	0.014	0.077
-548.339	-38.882	-0.258	0.136
-547.325	55.898	0.068	0.066
-546.310	150.567	-0.206	0.280
-545.296	800.000	-0.133	0.368
-544.281	511.121	0.046	0.107
-543.266	800.000	0.058	-0.160
-542.252	16.113	-0.171	0.135
-541.237	-120.539	-0.515	0.087
-540.223	180.897	0.032	-0.047
-539.208	229.276	0.144	0.234
-538.193	-200.000	0.065	-0.293
-537.179	44.376	-0.162	0.149
-536.164	561.320	0.075	-0.180
-535.150	248.061	-0.048	0.080
-534.135	-87.031	0.224	0.068
-533.121	47.859	0.080	-0.075
-532.106	-130.433	-0.292	-0.039
-531.091	-21.546	-0.126	-0.076
-530.077	211.852	0.065	0.101
-529.062	53.699	0.188	-0.180
-528.048	-60.495	0.482	-0.204
-527.033	-26.922	-0.227	0.132
-526.018	-23.507	-0.346	0.207
-525.004	-64.514	-0.336	0.136
-523.989	-197.336	0.364	0.002
-522.975	-184.998	0.022	-0.000
-521.960	-47.389	-0.391	0.190
-520.945	-100.979	0.333	0.081
-519.931	-200.000	-0.010	0.231
-518.916	-143.972	-0.238	-0.022
-517.902	30.679	0.222	0.189
-516.887	-200.000	-0.000	0.185
-515.872	555.964	0.085	-0.204
-514.858	-82.014	-0.125	-0.041
-513.843	-159.687	0.114	0.006
-512.829	67.188	-0.315	0.320
-511.814	656.620	-0.028	-0.071
-510.799	532.197	-0.116	0.272
-509.785	-200.000	-0.022	0.208
-508.770	-200.000	0.049	-0.323
-507.756	-200.000	0.010	0.160
-506.741	-4.215	0.386	0.266
-505.726	-74.218	-0.385	-0.139
-504.712	800.000	0.090	0.276
-503.697	234.369	0.053	0.086
-502.683	-24.021	-0.176	0.105
-501.668	104.986	0.231	0.271
-500.653	-91.014	0.236	0.067
-499.639	4.735	0.214	-0.157
-498.624	-139.498	0.289	0.031
-497.610	-200.000	0.007	0.380
-496.595	-81.883	-0.044	-0.014
-495.581	71.995	-0.244	0.253
-494.566	800.000	-0.092	-0.331
-493.551	-44.999	0.231	0.114
-492.537	-200.000	0.026	-0.150
-491.522	800.000	0.025	0.082
-490.508	618.944	-0.033	0.083
-489.493	194.285	0.114	-0.172
-488.478	-200.000	0.022	0.144
-487.464	-99.691	-0.032	0.008
-486.449	-7.339	-0.165	0.111
-485.435	-200.000	0.005	-0.037
-484.420	80.302	0.102	0.110
-483.405	-42.915	-0.142	-0.072
-482.391	-7.294	0.170	0.115
-481.376	-55.025	-0.181	-0.081
-480.362	-88.636	0.233	-0.069
-479.347	800.000	-0.079	0.226
-478.332	-200.000	-0.018	-0.138
-477.318	105.177	-0.127	0.149
-476.303	-62.168	-0.285	0.118
-475.289	-124.914	0.117	0.018
-474.274	85.969	-0.131	-0.143
-473.259	-78.167	0.240	-0.082
-472.245	-68.155	0.114	-0.044
-471.230	-200.000	0.012	-0.144
-470.216	-20.563	-0.229	0.140
-469.201	-200.000	-0.019	0.315
-468.186	658.771	0.110	0.282
-467.172	-81.574	0.363	0.119
-466.157	-200.000	-0.004	0.092
-465.143	232.987	0.021	-0.035
-464.128	-122.471	-0.105	0.017
-463.113	0.159	-0.062	0.044
-462.099	52.392	-0.193	-0.183
-461.084	378.045	-0.068	0.139
-460.070	735.185	0.066	-0.177
-459.055	-139.661	0.244	0.026
-458.040	50.397	0.112	-0.105
-457.026	800.000	0.033	0.096
-456.011	26.734	-0.127	0.106
-454.997	-12.127	0.133	-0.087
-453.982	-114.437	-0.271	-0.052
-452.968	-200.000	0.000	-0.031
-451.953	380.184	-0.121	-0.247
-450.938	316.169	-0.027	0.051
-449.924	-200.000	0.045	-0.295
-448.909	-62.595	-0.179	0.074
-447.895	-200.000	0.005	0.391
-446.880	101.408	0.144	0.167
-445.865	-143.409	-0.113	0.011
-444.851	-200.000	0.056	-0.257
-443.836	800.000	0.047	0.139
-442.822	-156.489	-0.377	0.023
-441.807	-46.753	-0.197	-0.096
-440.792	559.342	0.003	0.006
-439.778	204.706	-0.118	-0.182
-438.763	-200.000	0.024	-0.216
-437.749	210.872	0.176	-0.274
-436.734	379.666	0.217	-0.443
-435.719	80.443	0.160	0.171
-434.705	704.693	-0.023	-0.061
-433.690	-83.450	-0.205	0.065
-432.676	-200.000	0.037	-0.169
-431.661	800.000	0.053	-0.166
-430.646	-200.000	0.015	-0.245
-429.632	102.894	-0.090	0.105
-428.617	273.816	0.153	-0.269
-427.603	473.825	-0.135	-0.303
-426.588	-64.168	0.272	-0.110
-425.573	-14.104	-0.274	0.176
-424.559	-105.996	0.266	0.059
-423.544	-200.000	0.020	-0.116
-422.530	389.013	-0.075	0.154
-421.515	800.000	0.086	0.289
-420.500	338.703	-0.122	0.235
-419.486	-152.886	0.330	-0.023
-418.471	-32.744	0.134	-0.074
-417.457	800.000	0.081	-0.346
-416.442	-64.428	0.031	0.013
-415.428	-61.545	0.329	0.137
-414.413	800.000	-0.017	0.068
-413.398	-86.981	0.099	0.030
-412.384	41.703	-0.190	0.171
-411.369	-88.134	-0.203	0.060
-410.355	78.443	-0.149	0.158
-409.340	800.000	0.099	-0.274
-408.325	-90.740	-0.193	0.055
-407.311	313.771	-0.041	-0.077
-406.296	-200.000	0.054	-0.341
-405.282	-200.000	-0.034	0.248
-404.267	11.424	-0.013	-0.010
-403.252	800.000	0.040	-0.173
-402.238	464.968	-0.090	-0.201
-401.223	248.027	0.141	0.236
-400.209	422.179	0.094	-0.201
-399.194	-200.000	-0.060	-0.598
-398.179	-200.000	-0.034	-0.423
-397.165	37.836	-0.114	0.100
-396.150	-200.000	0.014	0.165
-395.136	-147.811	-0.018	-0.002
-394.121	-101.077	-0.077	0.019
-393.106	-57.315	-0.394	-0.172
-392.092	50.536	-0.100	0.094
-391.077	-129.609	0.326	-0.045
-390.063	421.487	0.019	-0.041
-389.048	157.260	-0.174	0.239
-388.033	-200.000	-0.014	0.079
-387.019	241.476	-0.083	-0.137
-386.004	-42.802	0.058	-0.029
-384.990	-104.580	0.371	0.085
-383.975	9.481	0.072	0.054
-382.960	-50.803	0.008	-0.004
-381.946	761.304	-0.164	0.441
-380.931	7.422	0.044	0.033
-379.917	-186.558	-0.383	0.005
-378.902	380.504	0.145	-0.295
-377.888	282.722	-0.055	-0.098
-376.873	-99.070	0.263	-0.066
-375.858	-9.234	0.174	-0.116
-374.844	-200.000	-0.006	0.275
-373.829	-86.799	0.212	-0.064
-372.815	16.067	-0.286	-0.223
-371.800	55.853	-0.223	0.214
-370.785	-0.368	-0.249	-0.175
-369.771	167.741	-0.121	0.170
-368.756	-191.739	-0.086	0.001
-367.742	-68.756	0.160	0.061
-366.727	-53.799	0.399	-0.180
-365.712	800.000	0.154	0.568
-364.698	-24.944	0.260	0.153
-363.683	37.100	0.128	0.112
-362.669	-200.000	0.034	-0.417
-361.654	-200.000	0.032	-0.165
-360.639	519.531	-0.104	0.241
-359.625	-200.000	-0.020	0.402
-358.610	-200.000	-0.017	-0.127
-357.596	82.720	0.205	-0.221
-356.581	-90.411	0.320	-0.092
-355.566	41.219	0.150	0.134
-354.552	14.569	-0.037	-0.029
-353.537	-200.000	0.004	-0.026
-352.523	-159.521	-0.478	-0.026
-351.508	-200.000	0.039	-0.262
-350.493	174.596	0.048	-0.069
-349.479	-103.545	-0.337	-0.078
-348.464	-49.505	-0.169	0.080
-347.450	-86.132	0.448	0.137
-346.435	121.560	0.139	-0.172
-345.420	-56.999	0.173	-0.075
-344.406	-26.336	0.146	-0.085
-343.391	-81.270	0.156	0.051
-342.377	-40.265	0.119	-0.061
-341.362	800.000	0.028	0.102
-340.348	126.595	-0.281	0.352
-339.333	-52.360	0.167	-0.077
-338.318	-111.408	-0.237	0.048
-337.304	102.421	-0.079	-0.092
-336.289	-73.665	-0.311	0.112
-335.275	159.394	0.160	0.220
-334.260	357.996	0.080	0.158
-333.245	-132.098	-0.125	0.016
-332.231	-5.353	-0.155	-0.105
-331.216	307.013	-0.088	-0.163
-330.202	-122.749	-0.225	0.036
-329.187	-147.301	-0.683	-0.057
-328.172	69.452	0.079	-0.081
-327.158	800.000	0.127	-0.359
-326.143	-150.337	-0.207	-0.016
-325.129	-4.662	-0.508	0.347
-324.114	-124.030	0.229	-0.036
-323.099	58.238	0.252	-0.244
-322.085	-87.627	-0.175	0.052
-321.070	-200.000	-0.009	0.155
-320.056	-17.527	0.255	0.158
-319.041	-99.107	-0.334	-0.084
-318.026	105.314	0.115	-0.134
-317.012	290.496	-0.109	0.196
-315.997	-64.361	-0.308	-0.124
-314.983	-200.000	-0.009	0.093
-313.968	800.000	-0.084	0.264
-312.953	-200.000	0.004	0.269
-311.939	-72.885	0.174	0.063
-310.924	45.218	0.293	0.267
-309.910	-200.000	0.002	-0.091
-308.895	102.198	-0.263	-0.304
-307.880	-63.456	-0.178	0.072
-306.866	-52.506	0.045	-0.020
-305.851	-200.000	0.001	0.452
-304.837	800.000	0.011	0.039
-303.822	-18.623	0.236	0.146
-302.807	-151.455	0.335	-0.025
-301.793	368.064	-0.023	0.047
-300.778	-200.000	-0.019	0.163
-299.764	488.014	-0.099	0.224
-298.749	87.036	-0.077	-0.084
-297.735	705.510	0.097	-0.254
-296.720	800.000	-0.072	0.206
-295.705	131.124	0.058	0.074
-294.691	204.758	0.083	0.127
-293.676	54.211	0.193	0.183
-292.662	143.931	0.248	0.327
-291.647	-83.822	-0.315	0.099
-290.632	138.718	-0.048	0.062
-289.618	159.130	0.149	-0.205
-288.603	65.923	0.282	0.282
-287.589	361.705	0.191	-0.378
-286.574	159.530	-0.090	-0.123
-285.559	-200.000	-0.023	0.114
-284.545	417.341	-0.141	0.296
-283.530	84.412	-0.077	-0.083
-282.516	-75.172	-0.242	-0.085
-281.501	405.410	0.080	0.167
-280.486	135.031	0.161	-0.206
-279.472	326.186	0.070	0.131
-278.457	-58.898	-0.350	0.150
-277.443	417.585	-0.058	0.122
-276.428	-176.802	0.529	0.013
-275.413	-123.818	0.165	-0.026
-274.399	9.635	0.181	-0.135
-273.384	179.240	0.061	-0.088
-272.370	42.232	-0.120	0.108
-271.355	618.226	-0.164	0.405
-270.340	162.348	0.078	0.108
-269.326	800.000	-0.086	0.370
-268.311	236.959	-0.147	0.241
-267.297	-158.447	-0.074	-0.004
-266.282	-15.686	0.416	-0.262
-265.267	-122.839	-0.227	-0.036
-264.253	135.560	0.014	0.018
-263.238	-133.406	0.201	-0.025
-262.224	800.000	-0.024	0.100
-261.209	696.140	0.023	0.059
-260.195	269.456	-0.167	0.290
-259.180	7.219	-0.268	-0.197
-258.165	-61.473	-0.202	-0.084
-257.151	36.862	0.195	0.170
-256.136	-200.000	-0.067	-0.366
-255.122	800.000	0.032	-0.108
-254.107	800.000	-0.106	0.371
-253.092	7.388	0.204	0.150
-252.078	-41.466	0.060	-0.030
-251.063	-107.905	0.168	-0.036
-250.049	90.887	-0.046	-0.051
-249.034	-200.000	-0.017	0.075
-248.019	-82.545	-0.229	-0.073
-247.005	-136.682	0.288	-0.033
-245.990	800.000	0.037	-0.142
-244.976	31.013	0.128	0.109
-243.961	800.000	-0.098	-0.404
-242.946	-200.000	-0.031	-0.209
-241.932	86.131	0.196	0.213
-240.917	-91.720	-0.058	-0.016
-239.903	-46.594	0.303	-0.146
-238.888	137.998	0.066	-0.085
-237.873	87.319	0.086	0.094
-236.859	11.406	-0.197	0.149
-235.844	-200.000	0.139	-0.644
-234.830	-144.487	-0.169	0.015
-233.815	111.051	0.095	0.113
-232.800	-18.430	0.220	0.135
-231.786	-200.000	0.029	0.196
-230.771	185.511	0.035	0.051
-229.757	154.811	-0.146	-0.197
-228.742	202.887	0.184	-0.281
-227.727	-135.018	-0.245	0.029
-226.713	-40.523	0.089	0.046
-225.698	-54.432	-0.331	0.148
-224.684	-200.000	0.039	-0.324
-223.669	800.000	0.037	0.115
-222.655	-200.000	-0.037	-0.380
-221.640	253.008	-0.132	0.222
-220.625	21.182	0.189	-0.151
-219.611	800.000	0.069	0.263
-218.596	-97.750	0.054	0.014
-217.582	222.991	0.156	-0.247
-216.567	-200.000	-0.008	0.177
-215.552	-200.000	-0.027	0.139
-214.538	395.466	0.120	-0.247
-213.523	-200.000	-0.033	-0.484
-212.509	-200.000	0.025	0.348
-211.494	8.877	-0.255	-0.190
-210.479	516.668	0.172	-0.396
-209.465	-22.713	-0.139	0.083
-208.450	-53.557	0.220	0.099
-207.436	363.467	0.159	-0.315
-206.421	-71.109	0.139	0.052
-205.406	-0.789	-0.131	0.092
-204.392	156.107	-0.020	-0.027
-203.377	173.319	0.097	-0.138
-202.363	-200.000	0.005	-0.032
-201.348	-28.836	-0.353	-0.200
-200.333	782.072	0.084	0.225
-199.319	260.650	-0.221	-0.377
-198.304	-76.050	0.148	-0.052
-197.290	-11.028	-0.200	-0.130
-196.275	-33.651	0.222	0.120
-195.260	-200.000	0.009	0.222
-194.246	-200.000	0.050	0.298
-193.231	-200.000	0.036	-0.355
-192.217	-106.954	-0.148	0.032
-191.202	376.279	-0.085	-0.171
-190.187	104.088	0.086	0.100
-189.173	-200.000	0.028	-0.164
-188.158	-65.602	-0.111	0.044
-187.144	104.724	-0.279	0.323
-186.129	-200.000	0.005	-0.325
-185.114	800.000	-0.063	-0.266
-184.100	141.633	-0.067	-0.088
-183.085	42.507	-0.157	-0.141
-182.071	117.277	-0.125	-0.152
-181.056	-200.000	-0.016	-0.152
-180.042	94.187	-0.233	-0.260
-179.027	800.000	0.096	-0.265
-178.012	-23.404	-0.036	-0.021
-176.998	-108.908	0.159	0.033
-175.983	-200.000	-0.038	-0.204
-174.969	-100.544	-0.273	-0.066
-173.954	16.132	-0.063	-0.049
-172.939	130.874	0.069	-0.088
-171.925	800.000	-0.018	-0.060
-170.910	-52.162	-0.065	0.029
-169.896	-54.444	-0.282	-0.126
-168.881	-200.000	-0.009	-0.045
-167.866	-31.455	-0.078	0.043
-166.852	327.232	-0.132	-0.249
-165.837	-79.781	0.529	0.175
-164.823	-200.000	0.266	-0.001
-163.808	-110.311	-0.228	0.047
-162.793	177.724	-0.269	-0.386
-161.779	-200.000	0.004	0.188
-160.764	800.000	0.059	0.209
-159.750	1.348	-0.103	-0.073
-158.735	318.657	0.237	-0.442
-157.720	83.726	0.227	0.243
-156.706	305.832	0.070	-0.128
-155.691	16.982	-0.048	0.038
-154.677	-10.279	-0.202	-0.132
-153.662	269.403	0.143	0.246
-152.647	-52.142	0.076	0.035
-151.633	-200.000	0.052	0.362
-150.618	-66.855	0.561	-0.218
-149.604	-79.637	-0.241	-0.080
-148.589	81.814	0.264	0.281
-147.574	-31.818	-0.277	-0.152
-146.560	655.723	-0.038	-0.095
-145.545	-69.034	0.252	0.096
-144.531	-53.868	0.299	0.134
-143.516	800.000	0.085	-0.241
-142.502	-200.000	-0.038	0.240
-141.487	800.000	-0.114	-0.429
-140.472	-119.944	-0.225	-0.038
-139.458	84.410	0.036	0.039
-138.443	-23.869	-0.134	-0.079
-137.429	800.000	0.036	-0.155
-136.414	800.000	-0.115	-0.445
-135.399	-200.000	-0.001	-0.003
-134.385	16.545	0.167	0.129
-133.370	800.000	-0.086	0.315
-132.356	-49.533	-0.260	0.121
-131.341	-108.908	-0.218	-0.046
-130.326	-16.363	0.459	-0.286
-129.312	-86.650	-0.134	0.040
-128.297	-200.000	-0.036	0.255
-127.283	59.882	0.275	0.267
-126.268	108.736	0.115	-0.135
-125.253	-200.000	0.035	0.269
-124.239	-200.000	0.028	0.180
-123.224	-5.960	0.180	0.121
-122.210	-113.210	-0.232	0.045
-121.195	213.025	0.051	0.079
-120.180	-168.778	0.179	-0.007
-119.166	-200.000	0.024	-0.250
-118.151	117.630	-0.241	-0.291
-117.137	694.557	-0.162	-0.417
-116.122	343.325	-0.058	-0.111
-115.107	-0.152	0.226	0.158
-114.093	-121.521	-0.229	-0.037
-113.078	-83.125	-0.074	-0.024
-112.064	-13.529	-0.177	-0.113
-111.049	-24.549	0.225	-0.131
-110.034	-200.000	-0.024	0.138
-109.020	-120.177	-0.205	-0.034
-108.005	247.227	-0.122	-0.203
-106.991	-200.000	-0.042	-0.339
-105.976	-129.436	0.043	-0.006
-104.962	608.508	0.108	-0.263
-103.947	64.233	-0.237	-0.234
-102.932	-147.582	-0.442	0.036
-101.918	-165.608	-0.308	0.013
-100.903	-45.390	-0.211	-0.103
-99.889	351.147	-0.053	-0.103
-98.874	25.161	0.165	0.134
-97.859	110.006	-0.087	0.102
-96.845	-62.266	-0.233	-0.095
-95.830	-71.609	-0.161	-0.059
-94.816	800.000	0.053	-0.193
-93.801	140.224	-0.191	-0.247
-92.786	-32.074	0.216	0.119
-91.772	800.000	-0.010	0.043
-90.757	589.801	0.076	-0.185
-89.743	-138.217	-0.107	0.012
-88.728	-200.000	-0.057	0.345
-87.713	-165.584	0.287	0.012
-86.699	-23.397	0.383	-0.226
-85.684	-39.414	0.095	0.049
-84.670	1.058	-0.199	0.140
-83.655	-200.000	0.005	0.218
-82.640	-12.035	-0.204	0.131
-81.626	-200.000	-0.027	-0.356
-80.611	70.439	-0.193	-0.195
-79.597	694.049	-0.087	-0.225
-78.582	786.304	0.022	0.060
-77.567	-200.000	0.081	-0.441
-76.553	550.639	0.101	-0.238
-75.538	87.883	0.334	0.363
-74.524	82.372	0.087	-0.092
-73.509	37.945	-0.275	-0.240
-72.494	145.010	-0.141	-0.184
-71.480	-102.216	-0.208	-0.049
-70.465	-11.481	-0.122	-0.078
-69.451	249.781	0.054	-0.089
-68.436	800.000	0.049	-0.148
-67.422	57.522	-0.053	-0.050
-66.407	117.258	0.312	-0.376
-65.392	-7.853	0.281	0.185
-64.378	-118.790	-0.237	0.041
-63.363	-82.904	-0.129	-0.041
-62.349	-73.404	0.226	0.081
-61.334	206.820	-0.969	-1.478
-60.319	101.060	0.634	0.722
-59.305	800.000	-0.373	-1.270
-58.290	362.713	0.666	1.308
-57.276	633.757	0.750	1.860
-56.261	-200.000	115.196	647.489
-55.246	467.866	1512.122	3319.897
-54.232	146.571	2679.665	3523.514
-53.217	103.154	2153.444	2470.430
-52.203	38.596	1598.085	1395.163
-51.188	30.470	1342.581	1123.177
-50.173	27.596	1304.633	1074.471
-49.159	55.106	1360.688	1286.773
-48.144	53.321	1375.272	1289.805
-47.130	30.680	1330.515	1114.165
-46.115	27.219	1312.560	1078.591
-45.100	27.165	1307.268	1073.881
-44.086	27.008	1305.315	1071.308
-43.071	26.991	1302.669	1068.997
-42.057	26.985	1300.998	1067.544
-41.042	27.113	1299.030	1066.641
-40.027	27.024	1297.319	1064.669
-39.013	27.046	1295.398	1063.182
-37.998	27.102	1293.781	1062.140
-36.984	27.111	1291.944	1060.639
-35.969	27.209	1289.554	1059.207
-34.954	27.186	1288.422	1058.104
-33.940	27.289	1286.822	1057.347
-32.925	27.197	1285.710	1055.856
-31.911	27.247	1284.310	1054.953
-30.896	27.122	1282.892	1053.025
-29.881	27.298	1281.076	1052.508
-28.867	27.171	1280.256	1051.058
-27.852	27.341	1278.600	1050.638
-26.838	27.255	1277.448	1049.157
-25.823	27.317	1276.045	1048.322
-24.809	27.242	1274.802	1046.826
-23.794	27.267	1273.489	1045.848
-22.779	27.135	1272.175	1043.972
-21.765	27.324	1270.394	1043.551
-20.750	27.237	1269.494	1042.269
-19.736	27.266	1267.912	1041.097
-18.721	27.114	1267.102	1039.520
-17.706	27.131	1266.079	1038.736
-16.692	27.204	1264.828	1038.089
-15.677	27.234	1263.811	1037.385
-14.663	27.073	1263.198	1035.922
-13.648	27.162	1261.654	1035.121
-12.633	27.059	1260.973	1033.936
-11.619	27.116	1259.813	1033.267
-10.604	27.070	1259.150	1032.422
-9.590	27.020	1258.636	1031.670
-8.575	27.197	1256.802	1031.131
-7.560	27.141	1256.087	1030.186
-6.546	27.091	1254.965	1028.943
-5.531	27.091	1254.365	1028.408
-4.517	27.272	1253.235	1028.466
-3.502	27.134	1252.581	1027.108
-2.487	27.254	1251.086	1026.518
-1.473	27.097	1247.308	1022.497
-0.458	25.697	1232.801	1002.770
0.556	21.014	1216.637	966.935
1.571	17.621	1222.847	952.840
2.586	16.830	1237.574	959.754
3.600	17.051	1227.124	952.805
4.615	15.606	1160.733	893.498
5.629	12.580	1094.405	827.177
6.644	11.133	1078.191	807.677
7.659	11.016	1075.585	805.074
8.673	10.914	1074.768	803.889
9.688	10.957	1073.422	803.022
10.702	11.088	1070.919	801.723
11.717	12.955	1072.627	812.133
12.731	15.819	1076.566	829.171
13.746	17.807	1078.007	840.006
14.761	17.708	1077.564	839.099
15.775	16.586	1076.142	832.403
16.790	15.553	1073.953	825.562
17.804	14.811	1072.169	820.476
18.819	14.452	1071.193	817.893
19.834	14.094	1070.300	815.382
20.848	13.925	1069.194	813.638
21.863	13.734	1068.149	811.838
22.877	13.574	1067.691	810.637
23.892	13.629	1066.723	810.100
24.907	13.547	1066.265	809.276
25.921	13.635	1064.659	808.417
26.936	13.635	1063.727	807.638
27.950	13.669	1062.449	806.760
28.965	13.805	1060.875	806.157
29.980	13.761	1059.196	804.596
30.994	13.949	1057.936	804.478
32.009	13.767	1057.766	803.394
33.023	13.841	1055.933	802.292
34.038	13.778	1055.131	801.304
35.053	13.692	1054.358	800.232
36.067	13.724	1053.321	799.530
37.082	13.873	1052.533	799.576
38.096	13.931	1051.646	799.110
39.111	13.660	1051.414	797.563
40.126	13.726	1049.532	796.379
41.140	13.537	1048.335	794.495
42.155	13.508	1047.586	793.718
43.169	13.481	1046.582	792.757
44.184	13.399	1045.528	791.495
45.199	13.553	1044.170	791.133
46.213	13.422	1043.672	790.061
47.228	13.706	1041.802	789.929
48.242	13.658	1041.331	789.276
49.257	13.744	1039.827	788.475
50.271	13.748	1039.541	788.204
51.286	13.585	1038.774	786.780
52.301	13.742	1037.367	786.390
53.315	13.592	1036.274	784.781
54.330	13.549	1035.084	783.608
55.344	13.735	1033.840	783.473
56.359	13.561	1033.672	782.458
57.374	13.545	1032.444	781.383
58.388	13.544	1031.802	780.823
59.403	13.474	1030.589	779.506
60.417	13.509	1029.857	779.050
61.432	13.421	1029.542	778.329
62.447	13.549	1027.985	777.682
63.461	13.499	1027.239	776.813
64.476	13.478	1026.489	776.079
65.490	13.474	1025.776	775.454
66.505	13.541	1025.116	775.200
67.520	13.481	1024.560	774.432
68.534	13.513	1023.775	773.917
69.549	13.546	1022.985	773.407
70.563	13.445	1022.106	772.204
71.578	13.423	1021.187	771.338
72.593	13.363	1020.843	770.730
73.607	13.317	1019.961	769.779
74.622	13.477	1019.145	769.839
75.636	13.496	1018.621	769.466
76.651	13.446	1018.196	768.846
77.666	13.477	1017.265	768.217
78.680	13.481	1016.662	767.712
79.695	13.547	1015.771	767.275
80.709	13.538	1015.656	767.080
81.724	13.494	1014.910	766.247
82.739	13.628	1014.052	766.151
83.753	13.646	1012.997	765.368
84.768	13.773	1011.873	765.035
85.782	13.857	1011.232	764.873
86.797	13.882	1009.847	763.869
87.812	13.625	1009.299	762.207
88.826	13.715	1008.016	761.584
89.841	13.744	1007.636	761.361
90.855	13.798	1006.550	760.720
91.870	13.904	1005.420	760.288
92.884	13.754	1005.211	759.376
93.899	13.750	1004.129	758.470
94.914	13.745	1003.569	757.959
95.928	13.998	1002.068	757.911
96.943	13.840	1001.387	756.612
97.957	13.779	1000.587	755.663
98.972	13.788	1000.279	755.404
99.987	13.835	999.154	754.701
101.001	13.793	997.990	753.563
102.016	13.736	997.335	752.741
103.030	13.857	996.662	752.716
104.045	13.897	995.709	752.111
105.060	13.849	994.869	751.193
106.074	13.670	993.732	749.460
107.089	13.470	992.856	747.827
108.103	13.558	992.124	747.610
109.118	13.636	990.737	746.851
110.133	13.618	990.127	746.242
111.147	13.604	989.248	745.452
112.162	13.571	988.499	744.673
113.176	13.703	987.556	744.489
114.191	13.655	986.977	743.769
115.206	13.693	986.256	743.332
116.220	13.715	985.134	742.520
117.235	13.773	984.111	741.943
118.249	13.869	982.936	741.418
119.264	13.624	982.610	740.012
120.279	13.641	981.842	739.444
121.293	13.640	981.446	739.076
122.308	13.595	980.124	737.818
123.322	13.718	978.639	737.178
124.337	13.413	978.152	735.393
125.352	13.448	977.183	734.752
126.366	13.664	975.568	734.434
127.381	13.551	975.146	733.548
128.395	13.558	974.136	732.753
129.410	13.565	973.533	732.266
130.424	13.646	972.251	731.596
131.439	13.793	971.493	731.609
132.454	13.671	971.133	730.738
133.468	13.835	969.902	730.467
134.483	13.712	969.069	729.236
135.497	13.662	968.599	728.598
136.512	13.812	967.093	728.058
137.527	13.721	966.557	727.190
138.541	13.702	966.063	726.670
139.556	13.801	965.387	726.533
140.570	13.873	964.623	726.207
141.585	14.077	963.009	725.819
142.600	13.979	962.731	725.116
143.614	13.980	962.043	724.540
144.629	14.014	961.316	724.077
145.643	14.012	960.051	723.050
146.658	13.789	959.204	721.378
147.673	13.870	958.285	720.975
148.687	13.741	957.798	719.984
149.702	13.741	956.887	719.239
150.716	13.812	955.764	718.637
151.731	13.831	955.088	718.147
152.746	13.888	954.444	717.844
153.760	13.955	953.599	717.434
154.775	14.008	953.237	717.328
155.789	13.784	952.952	716.083
156.804	13.900	951.902	715.731
157.819	13.959	951.089	715.312
158.833	13.968	950.835	715.096
159.848	14.047	949.634	714.467
160.862	14.006	948.524	713.395
161.877	13.857	947.740	712.102
162.892	13.945	946.263	711.306
163.906	13.982	945.481	710.814
164.921	13.907	944.858	709.964
165.935	13.933	943.986	709.357
166.950	13.885	943.590	708.792
167.964	13.966	942.445	708.214
168.979	13.983	941.710	707.671
169.994	13.954	940.488	706.567
171.008	13.999	939.511	705.958
172.023	14.051	939.223	705.904
173.037	14.138	938.605	705.745
174.052	14.175	937.807	705.241
175.067	13.968	937.570	704.122
176.081	14.139	936.125	703.699
177.096	14.116	936.149	703.557
178.110	14.181	935.410	703.212
179.125	14.064	934.703	702.124
180.140	14.091	934.267	701.850
181.154	14.141	933.937	701.752
182.169	14.171	933.412	701.422
183.183	14.245	932.871	701.264
184.198	14.182	931.815	700.142
185.213	14.232	931.160	699.797
186.227	14.274	930.644	699.524
187.242	14.305	929.878	699.020
188.256	14.345	929.565	698.888
189.271	14.341	928.640	698.114
190.286	14.210	927.671	696.777
191.300	14.013	927.201	695.537
192.315	14.028	926.824	695.256
193.329	14.017	926.374	694.809
194.344	14.170	925.055	694.399
195.359	14.243	924.237	694.025
196.373	14.146	924.827	694.002
197.388	14.283	924.228	694.063
198.402	14.461	923.284	694.036
199.417	14.384	922.809	693.296
200.432	14.565	922.144	693.487
201.446	14.528	921.833	693.039
202.461	14.730	920.974	693.169
203.475	14.617	920.363	692.182
204.490	14.418	919.820	690.886
205.504	14.418	918.904	690.139
206.519	14.503	917.650	689.487
207.534	14.573	917.191	689.368
208.548	14.388	917.046	688.435
209.563	14.554	915.962	688.245
210.577	14.618	915.389	688.016
211.592	14.698	914.704	687.772
212.607	14.654	914.096	687.071
213.621	14.550	913.554	686.174
214.636	14.674	912.490	685.824
215.650	14.774	911.981	685.790
216.665	14.749	911.272	685.097
217.680	14.882	910.727	685.172
218.694	14.861	909.787	684.316
219.709	14.793	909.345	683.646
220.723	14.684	908.838	682.760
221.738	14.735	907.910	682.207
222.753	14.818	907.151	681.915
223.767	14.732	907.004	681.395
224.782	14.821	906.213	681.105
225.796	15.010	905.442	681.233
226.811	14.832	905.126	680.209
227.826	14.876	904.375	679.766
228.840	14.888	903.624	679.190
229.855	14.951	902.323	678.406
230.869	14.970	901.495	677.800
231.884	14.824	901.292	676.997
232.899	14.808	900.893	676.575
233.913	14.772	899.985	675.686
234.928	14.733	899.175	674.861
235.942	14.788	898.813	674.752
236.957	14.816	898.186	674.335
237.972	14.796	897.090	673.371
238.986	14.810	896.707	673.078
240.001	14.854	896.184	672.802
241.015	14.884	895.837	672.604
242.030	14.904	895.376	672.280
243.045	15.031	894.683	672.211
244.059	14.880	893.908	670.962
245.074	14.942	893.003	670.472
246.088	15.044	892.506	670.450
247.103	15.052	891.909	669.973
248.117	15.103	891.451	669.772
249.132	15.319	890.917	670.176
250.147	15.213	890.218	669.166
251.161	15.259	889.551	668.792
252.176	15.442	888.621	668.762
253.190	15.546	887.830	668.522
254.205	15.340	887.456	667.362
255.220	15.429	886.590	667.006
256.234	15.334	886.453	666.467
257.249	15.466	885.611	666.297
258.263	15.562	885.144	666.266
259.278	15.382	884.448	664.972
260.293	15.416	883.940	664.666
261.307	15.553	883.294	664.662
262.322	15.403	883.006	663.793
263.336	15.508	882.257	663.586
264.351	15.674	881.112	663.323
265.366	15.648	880.369	662.602
266.380	15.640	880.007	662.239
267.395	15.620	879.157	661.463
268.409	15.624	878.215	660.709
269.424	15.519	877.720	659.867
270.439	15.561	876.636	659.158
271.453	15.505	876.710	658.937
272.468	15.519	876.176	658.532
273.482	15.626	875.144	658.116
274.497	15.470	875.095	657.411
275.512	15.658	873.998	657.262
276.526	15.628	873.836	656.966
277.541	15.659	873.025	656.419
278.555	15.699	872.476	656.104
279.570	15.728	871.732	655.600
280.585	15.770	870.842	655.035
281.599	15.726	870.160	654.293
282.614	15.746	869.415	653.755
283.628	15.813	868.746	653.454
284.643	15.743	868.651	653.053
285.657	15.797	867.871	652.618
286.672	15.722	867.423	651.932
287.687	15.826	866.846	651.844
288.701	15.854	866.225	651.429
289.716	15.860	865.447	650.808
290.730	15.866	864.951	650.399
291.745	15.974	864.085	650.110
292.760	15.826	863.848	649.301
293.774	15.968	862.699	648.927
294.789	15.977	862.498	648.755
295.803	15.976	861.781	648.155
296.818	15.993	861.074	647.629
297.833	16.114	859.936	647.181
298.847	16.009	859.265	646.217
299.862	16.106	859.162	646.454
300.876	16.195	858.714	646.401
301.891	16.136	858.241	645.760
302.906	16.043	857.792	645.009
303.920	16.300	856.959	645.308
304.935	16.234	856.681	644.791
305.949	16.182	855.534	643.671
306.964	16.091	855.325	643.109
307.979	16.104	854.868	642.758
308.993	16.119	854.192	642.251
310.008	16.191	853.618	642.036
311.022	16.168	852.614	641.137
312.037	16.183	852.030	640.700
313.052	16.137	851.846	640.328
314.066	16.197	851.010	639.869
315.081	16.249	850.492	639.621
316.095	16.201	849.798	638.863
317.110	16.152	849.297	638.242
318.125	16.281	848.743	638.259
319.139	16.187	848.549	637.702
320.154	16.196	848.114	637.350
321.168	16.255	847.496	637.052
322.183	16.114	847.251	636.279
323.197	16.200	846.531	636.008
324.212	16.202	846.225	635.729
325.227	16.255	845.478	635.312
326.241	16.347	844.577	634.923
327.256	16.310	844.214	634.454
328.270	16.252	843.908	633.953
329.285	16.233	843.228	633.312
330.300	16.371	842.212	633.012
331.314	16.375	841.853	632.702
332.329	16.362	841.612	632.414
333.343	16.510	841.137	632.558
334.358	16.538	840.258	631.942
335.373	16.638	839.978	632.050
336.387	16.576	839.758	631.598
337.402	16.409	839.896	631.020
338.416	16.546	839.767	631.379
339.431	16.502	838.889	630.502
340.446	16.659	838.464	630.710
341.460	16.716	837.990	630.512
342.475	16.782	837.543	630.362
343.489	16.604	837.140	629.342
344.504	16.647	837.083	629.404
345.519	16.800	836.278	629.313
346.533	16.755	835.818	628.742
347.548	16.765	835.082	628.169
348.562	16.715	834.592	627.561
349.577	16.610	833.978	626.655
350.592	16.758	833.363	626.683
351.606	16.815	832.653	626.306
352.621	16.589	832.482	625.288
353.635	16.722	831.682	625.123
354.650	16.748	830.703	624.427
355.665	16.821	830.063	624.158
356.679	16.824	829.447	623.651
357.694	16.826	829.076	623.324
358.708	16.887	828.401	622.986
359.723	16.864	827.648	622.282
360.738	16.869	827.164	621.881
361.752	16.943	826.752	621.787
362.767	16.904	826.071	621.074
363.781	16.901	825.677	620.715
364.796	17.071	825.156	620.889
365.810	16.976	824.737	620.172
366.825	17.172	824.364	620.553
367.840	17.120	824.016	620.047
368.854	17.015	823.189	618.984
369.869	17.026	822.851	618.716
370.883	17.078	822.614	618.675
371.898	17.177	822.228	618.689
372.913	17.269	821.758	618.617
373.927	17.204	821.141	617.859
374.942	17.205	820.431	617.275
375.956	17.226	820.317	617.212
376.971	17.325	819.865	617.176
377.986	17.383	819.196	616.828
379.000	17.492	818.779	616.853
380.015	17.340	818.285	615.876
381.029	17.450	817.772	615.834
382.044	17.482	817.177	615.448
383.059	17.502	816.577	615.013
384.073	17.431	815.964	614.242
385.088	17.350	815.477	613.526
386.102	17.260	815.358	613.059
387.117	17.273	814.535	612.433
388.132	17.219	813.897	611.705
389.146	17.522	813.388	612.359
390.161	17.552	812.690	611.887
391.175	17.403	812.894	611.448
392.190	17.466	812.161	611.072
393.205	17.328	811.943	610.358
394.219	17.384	811.218	609.958
395.234	17.548	810.385	609.866
396.248	17.306	810.448	608.994
397.263	17.368	809.774	608.655
398.278	17.297	809.526	608.159
399.292	17.444	809.055	608.279
400.307	17.553	808.230	607.991
401.321	17.459	807.870	607.334
402.336	17.202	807.835	606.337
403.350	17.340	807.536	606.549
404.365	17.496	806.638	606.377
405.380	17.556	806.323	606.301
406.394	17.563	805.824	605.897
407.409	17.724	805.356	606.064
408.423	17.597	805.318	605.529
409.438	17.885	804.576	605.939
410.453	17.640	804.305	604.815
411.467	17.826	803.639	604.918
412.482	17.884	803.375	604.871
413.496	17.950	802.718	604.557
414.511	17.898	802.611	604.240
415.526	17.860	802.258	603.785
416.540	17.733	801.939	603.043
417.555	17.820	800.924	602.534
418.569	17.883	800.976	602.744
419.584	18.000	800.315	602.603
420.599	17.950	799.692	601.906
421.613	111.753	1294.373	1475.861
422.628	96.264	1366.456	1475.935
