DTS Sentinel unit serial number:	SN413079Multiplexer serial number:	ORYXHardware model number:	OX4-SRSoftware version number:	ORYX F/W v4.00 Oryx Data Collector v3.7.2.0data status	okinstallation	princeton_trtdifferential loss correction	single-endedforward channel	channel 1reverse channel	N/Adate	2019/09/14time	19:26:35forward acquisition time	60.00reverse acquisition time	0.00gamma	496.2192k internal	0.2312k external	0.2312temperature offset calibration	1.0022default loss term (dB/km)	0.3790temperature slope calibration	1.0000multiplexer offset coefficient	1.0000multiplexer slope coefficient	1.0000fibre end	0.00T internal ref (°C)	34.87T ext. ref 1 (°C)	4.87T ext. ref 2 (°C)	28.98length (m)	temperature (°C)	Stokes	anti-Stokes-747.200	800.000	-0.016	-0.072
-746.185	-72.705	0.176	0.066
-745.171	-200.000	0.053	0.326
-744.156	-200.000	-0.032	0.335
-743.142	257.524	0.062	0.108
-742.127	93.395	-0.156	-0.179
-741.112	365.638	-0.121	-0.247
-740.098	800.000	-0.050	0.195
-739.083	-200.000	0.047	-0.294
-738.069	438.607	0.039	-0.087
-737.054	-175.142	0.379	0.011
-736.039	314.348	-0.128	-0.244
-735.025	151.784	-0.031	0.043
-734.010	-97.611	-0.451	-0.119
-732.996	-29.525	-0.235	0.136
-731.981	800.000	-0.052	-0.171
-730.966	-4.915	-0.098	0.068
-729.952	-74.398	-0.232	-0.085
-728.937	-200.000	-0.095	-0.638
-727.923	-152.144	0.108	-0.008
-726.908	280.334	-0.159	0.289
-725.894	-161.688	-0.213	-0.011
-724.879	718.075	-0.060	-0.163
-723.864	-64.477	-0.332	0.137
-722.850	-200.000	-0.001	0.158
-721.835	251.755	0.118	0.203
-720.821	-38.390	-0.180	0.097
-719.806	435.745	0.135	0.297
-718.791	-104.272	-0.520	0.122
-717.777	74.511	-0.332	-0.354
-716.762	-22.183	-0.133	0.082
-715.748	-200.000	-0.094	-0.487
-714.733	6.215	0.367	0.276
-713.718	292.995	0.051	0.094
-712.704	-33.569	-0.376	0.211
-711.689	-167.218	-0.450	-0.018
-710.675	-200.000	0.018	0.177
-709.660	-200.000	-0.025	-0.217
-708.645	-120.144	-0.197	-0.034
-707.631	61.170	-0.213	0.214
-706.616	-68.666	0.052	0.020
-705.602	-130.097	-0.118	-0.016
-704.587	-200.000	0.017	0.122
-703.572	184.558	-0.089	0.134
-702.558	-189.979	-0.115	0.001
-701.543	-200.000	0.034	-0.266
-700.529	599.831	-0.102	-0.256
-699.514	-44.959	-0.211	0.107
-698.499	-200.000	-0.063	-0.301
-697.485	-11.156	-0.149	-0.100
-696.470	-60.953	-0.394	-0.169
-695.456	648.286	0.088	-0.229
-694.441	42.902	0.208	-0.192
-693.426	329.437	-0.095	0.184
-692.412	800.000	-0.062	-0.232
-691.397	-200.000	-0.004	0.271
-690.383	-153.349	-0.145	0.010
-689.368	139.373	-0.286	-0.381
-688.354	-84.789	-0.187	0.059
-687.339	-98.123	-0.480	-0.125
-686.324	473.209	-0.195	-0.444
-685.310	-39.525	-0.276	0.146
-684.295	800.000	-0.064	0.256
-683.281	140.283	-0.113	-0.151
-682.266	409.236	-0.178	0.381
-681.251	77.746	0.014	0.015
-680.237	66.644	0.177	-0.183
-679.222	-32.703	0.039	-0.022
-678.208	-54.138	-0.172	0.079
-677.193	-107.657	-0.357	-0.079
-676.178	322.548	0.088	0.170
-675.164	-200.000	-0.015	-0.336
-674.149	280.368	0.040	0.072
-673.135	29.104	-0.194	0.167
-672.120	692.617	-0.058	0.154
-671.105	374.413	-0.050	0.103
-670.091	496.348	0.134	-0.313
-669.076	419.385	-0.095	-0.207
-668.062	-200.000	-0.013	-0.509
-667.047	-16.633	0.118	-0.076
-666.032	800.000	0.042	0.142
-665.018	9.503	-0.269	-0.206
-664.003	-59.967	-0.195	0.084
-662.989	-74.600	0.372	0.136
-661.974	-200.000	-0.025	-0.263
-660.959	800.000	-0.044	0.145
-659.945	16.854	-0.195	0.156
-658.930	365.762	-0.095	0.194
-657.916	-200.000	-0.001	0.161
-656.901	-200.000	-0.057	0.263
-655.886	800.000	-0.052	-0.216
-654.872	-150.392	-0.287	0.022
-653.857	16.854	-0.128	-0.103
-652.843	-127.587	-0.233	0.034
-651.828	-0.372	-0.350	-0.251
-650.814	800.000	0.018	-0.073
-649.799	-5.320	0.134	-0.093
-648.784	-111.148	0.280	0.058
-647.770	-76.508	0.340	-0.121
-646.755	800.000	-0.051	-0.212
-645.741	28.037	0.164	-0.140
-644.726	-68.920	-0.249	-0.097
-643.711	-41.514	-0.290	0.151
-642.697	-200.000	-0.095	0.477
-641.682	131.171	-0.285	-0.369
-640.668	-149.179	0.056	-0.005
-639.653	-153.652	-0.268	0.019
-638.638	749.606	-0.036	-0.098
-637.624	50.820	0.158	-0.151
-636.609	-200.000	0.009	-0.256
-635.595	-111.055	-0.166	-0.034
-634.580	800.000	-0.021	0.080
-633.565	-34.932	0.100	-0.055
-632.551	-200.000	0.009	-0.225
-631.536	-144.566	0.118	-0.011
-630.522	48.542	0.050	-0.047
-629.507	220.285	0.112	-0.181
-628.492	800.000	0.002	0.005
-627.478	48.786	0.146	-0.138
-626.463	-30.238	-0.248	-0.142
-625.449	113.512	-0.131	-0.160
-624.434	144.077	-0.246	0.332
-623.419	402.132	-0.050	-0.106
-622.405	109.489	0.087	0.105
-621.390	1.894	-0.251	-0.183
-620.376	-80.887	-0.178	-0.060
-619.361	436.477	0.059	0.130
-618.346	-58.791	0.083	-0.036
-617.332	-132.893	0.131	0.017
-616.317	800.000	-0.094	-0.304
-615.303	445.133	-0.124	-0.275
-614.288	-103.563	0.172	-0.041
-613.273	-16.206	0.175	-0.112
-612.259	-200.000	-0.041	-0.279
-611.244	-107.734	0.269	0.059
-610.230	-9.485	-0.178	0.120
-609.215	105.564	-0.131	0.157
-608.201	-200.000	-0.042	0.284
-607.186	-200.000	-0.013	0.166
-606.171	-200.000	-0.006	0.124
-605.157	800.000	-0.128	-0.371
-604.142	-124.382	0.147	0.023
-603.128	800.000	-0.043	-0.183
-602.113	800.000	-0.087	0.246
-601.098	-22.922	0.332	-0.202
-600.084	296.956	0.023	0.043
-599.069	-190.890	0.157	-0.002
-598.055	-200.000	-0.011	0.059
-597.040	154.346	-0.107	0.148
-596.025	-200.000	-0.031	0.168
-595.011	-14.912	0.071	-0.046
-593.996	-136.984	0.047	0.005
-592.982	558.056	0.075	-0.183
-591.967	-123.094	0.210	-0.034
-590.952	-65.242	-0.113	-0.046
-589.938	800.000	0.037	-0.119
-588.923	-65.594	0.273	-0.111
-587.909	-71.331	-0.347	0.131
-586.894	213.652	-0.097	0.155
-585.879	-50.128	0.133	-0.064
-584.865	800.000	-0.050	-0.150
-583.850	91.142	-0.187	-0.212
-582.836	-12.464	-0.077	0.050
-581.821	-200.000	-0.002	0.394
-580.806	-86.448	-0.151	-0.047
-579.792	493.385	0.154	0.356
-578.777	-49.789	0.143	-0.068
-577.763	800.000	-0.022	-0.096
-576.748	800.000	-0.025	-0.092
-575.733	51.057	0.225	-0.215
-574.719	15.034	-0.198	0.156
-573.704	-200.000	0.002	-0.184
-572.690	-200.000	-0.020	0.169
-571.675	15.873	0.102	-0.081
-570.661	-200.000	-0.005	-0.333
-569.646	285.872	0.189	0.343
-568.631	35.656	-0.293	-0.260
-567.617	-5.090	0.177	-0.122
-566.602	-48.224	-0.250	0.121
-565.588	533.689	-0.048	0.114
-564.573	-11.881	-0.022	-0.014
-563.558	640.099	0.071	0.182
-562.544	75.047	0.138	-0.147
-561.529	352.588	0.068	0.135
-560.515	-24.194	-0.348	-0.209
-559.500	-200.000	-0.032	-0.274
-558.485	-48.561	-0.065	-0.032
-557.471	-173.582	-0.243	0.007
-556.456	800.000	-0.076	0.226
-555.442	-173.294	-0.404	-0.012
-554.427	43.021	-0.110	0.101
-553.412	129.195	-0.043	0.055
-552.398	249.619	-0.048	-0.082
-551.383	-34.729	-0.232	-0.128
-550.369	538.080	0.021	0.051
-549.354	110.211	0.288	-0.348
-548.339	112.476	0.181	0.220
-547.325	-85.659	0.314	0.098
-546.310	233.630	-0.092	-0.152
-545.296	-9.192	0.271	-0.182
-544.281	-127.266	-0.329	-0.048
-543.266	-200.000	-0.001	-0.326
-542.252	-146.112	0.067	-0.006
-541.237	-57.934	-0.164	0.072
-540.223	50.349	-0.030	-0.029
-539.208	88.636	-0.072	0.081
-538.193	-200.000	0.033	-0.380
-537.179	0.123	-0.100	-0.072
-536.164	-32.999	-0.085	-0.048
-535.150	229.461	0.187	-0.307
-534.135	66.018	0.187	-0.191
-533.121	-167.089	-0.248	-0.010
-532.106	159.551	0.092	-0.129
-531.091	68.320	0.203	0.209
-530.077	-200.000	-0.010	0.143
-529.062	-127.702	-0.170	-0.025
-528.048	68.954	-0.124	-0.129
-527.033	-147.454	-0.165	0.014
-526.018	332.101	0.107	0.207
-525.004	278.055	-0.078	-0.140
-523.989	-177.031	-0.483	-0.012
-522.975	-120.904	0.134	-0.023
-521.960	800.000	0.115	-0.440
-520.945	173.560	-0.158	-0.229
-519.931	473.919	0.092	0.210
-518.916	102.622	-0.194	-0.228
-517.902	-35.441	0.195	0.106
-516.887	65.139	0.037	-0.037
-515.872	185.141	-0.139	0.207
-514.858	-103.512	0.219	0.052
-513.843	-146.229	-0.360	-0.032
-512.829	800.000	0.104	-0.344
-511.814	-41.471	0.156	-0.081
-510.799	-200.000	0.043	-0.322
-509.785	-134.070	-0.304	0.038
-508.770	109.187	-0.031	0.038
-507.756	-131.174	0.596	-0.080
-506.741	316.750	-0.112	-0.212
-505.726	-200.000	-0.022	-0.371
-504.712	33.879	-0.139	0.121
-503.697	12.372	-0.165	-0.128
-502.683	189.528	-0.110	-0.166
-501.668	-59.770	-0.048	-0.021
-500.653	108.453	0.109	-0.130
-499.639	-43.842	0.124	0.063
-498.624	22.378	0.078	0.064
-497.610	-95.279	-0.196	0.053
-496.595	339.319	-0.098	0.192
-495.581	-103.827	-0.315	0.074
-494.566	-200.000	0.041	0.180
-493.551	60.358	0.235	0.234
-492.537	-107.320	0.311	-0.069
-491.522	-149.071	-0.135	-0.011
-490.508	446.642	-0.054	-0.119
-489.493	2.866	0.159	0.116
-488.478	800.000	-0.140	-0.450
-487.464	-23.105	-0.257	-0.155
-486.449	698.439	0.069	-0.182
-485.435	323.436	0.289	-0.554
-484.420	-65.381	0.322	-0.130
-483.405	185.434	0.146	0.218
-482.391	297.448	0.084	0.155
-481.376	-87.347	-0.068	-0.021
-480.362	-200.000	-0.061	0.371
-479.347	26.462	0.509	0.428
-478.332	266.042	-0.206	-0.361
-477.318	51.688	-0.083	0.079
-476.303	800.000	-0.070	0.257
-475.289	-110.483	0.249	0.052
-474.274	25.634	0.218	0.183
-473.259	800.000	-0.037	-0.131
-472.245	-46.174	-0.234	0.116
-471.230	116.523	0.098	0.121
-470.216	-70.590	-0.207	-0.079
-469.201	-101.576	-0.166	-0.041
-468.186	677.754	-0.058	0.150
-467.172	46.189	0.127	0.118
-466.157	-93.584	-0.427	-0.118
-465.143	24.983	-0.144	-0.120
-464.128	196.511	-0.086	0.132
-463.113	23.306	-0.072	0.059
-462.099	93.369	0.138	0.157
-461.084	-157.467	0.214	0.013
-460.070	-200.000	0.004	0.038
-459.055	-200.000	-0.008	0.273
-458.040	78.458	0.244	-0.261
-457.026	-200.000	-0.009	0.047
-456.011	800.000	0.096	-0.370
-454.997	174.105	0.127	-0.183
-453.982	-200.000	0.620	-0.002
-452.968	-78.104	-0.218	-0.075
-451.953	800.000	0.050	0.152
-450.938	-90.977	0.228	0.066
-449.924	-123.552	-0.356	0.057
-448.909	558.979	-0.073	-0.177
-447.895	113.501	0.267	0.325
-446.880	-200.000	-0.003	0.117
-445.865	-57.046	0.168	-0.074
-444.851	-133.367	0.419	-0.053
-443.836	800.000	-0.055	0.203
-442.822	17.489	0.033	0.026
-441.807	-116.396	-0.132	-0.025
-440.792	-39.354	-0.292	0.154
-439.778	19.721	-0.325	-0.263
-438.763	39.660	-0.245	0.220
-437.749	791.318	-0.035	0.098
-436.734	-133.760	-0.140	-0.018
-435.719	553.758	0.050	-0.120
-434.705	56.257	-0.237	-0.231
-433.690	330.504	-0.204	-0.394
-432.676	-30.641	0.300	0.170
-431.661	-101.556	0.353	-0.086
-430.646	-136.921	-0.122	-0.014
-429.632	290.929	0.152	-0.277
-428.617	101.562	0.063	0.074
-427.603	295.379	-0.071	-0.131
-426.588	-61.072	-0.299	-0.126
-425.573	-109.891	0.406	-0.085
-424.559	-200.000	0.008	-0.252
-423.544	9.702	-0.288	0.218
-422.530	800.000	-0.043	0.148
-421.515	-25.322	-0.287	0.170
-420.500	800.000	-0.028	-0.108
-419.486	-200.000	-0.031	0.274
-418.471	800.000	-0.032	0.116
-417.457	800.000	0.031	0.096
-416.442	-123.566	-0.307	-0.049
-415.428	-40.936	0.146	-0.076
-414.413	157.237	0.207	0.287
-413.398	376.171	0.206	0.421
-412.384	-35.740	0.302	0.164
-411.369	-101.431	-0.155	0.038
-410.355	-39.361	-0.104	0.055
-409.340	800.000	0.048	-0.144
-408.325	32.556	-0.096	0.083
-407.311	70.087	0.186	-0.192
-406.296	-118.723	0.096	0.017
-405.282	14.355	-0.167	0.131
-404.267	73.525	0.337	0.353
-403.252	-200.000	0.022	0.182
-402.238	-58.942	0.119	-0.052
-401.223	-67.959	-0.059	0.023
-400.209	-160.825	0.042	0.002
-399.194	148.497	-0.038	0.051
-398.179	-124.859	-0.195	0.030
-397.165	-200.000	0.044	0.203
-396.150	-72.869	0.055	0.020
-395.136	-200.000	0.020	0.266
-394.121	288.385	0.109	0.198
-393.106	-65.308	-0.191	-0.077
-392.092	386.624	-0.049	-0.101
-391.077	-11.372	-0.105	-0.069
-390.063	142.170	0.195	-0.259
-389.048	-72.340	-0.160	-0.059
-388.033	70.448	-0.164	-0.170
-387.019	87.138	0.095	-0.105
-386.004	396.752	0.031	0.065
-384.990	270.020	0.087	0.153
-383.975	11.568	0.138	-0.106
-382.960	-200.000	-0.462	-0.002
-381.946	-116.300	0.095	-0.018
-380.931	452.366	-0.124	-0.273
-379.917	800.000	-0.106	-0.429
-378.902	-84.433	-0.052	-0.017
-377.888	800.000	0.096	-0.332
-376.873	451.725	0.115	-0.254
-375.858	-123.559	0.383	-0.061
-374.844	-145.010	-0.282	0.026
-373.829	512.580	-0.048	0.113
-372.815	19.830	0.182	-0.146
-371.800	-152.358	0.290	0.021
-370.785	166.345	0.034	0.048
-369.771	-80.899	-0.271	-0.090
-368.756	289.007	-0.038	0.068
-367.742	-200.000	-0.027	-0.203
-366.727	20.308	-0.307	-0.248
-365.712	-31.889	-0.034	-0.019
-364.698	-139.950	0.138	-0.015
-363.683	-64.059	-0.116	-0.047
-362.669	-85.857	-0.228	-0.071
-361.654	-92.821	0.327	0.092
-360.639	-17.433	-0.182	0.114
-359.625	67.725	0.273	-0.278
-358.610	536.499	0.122	0.290
-357.596	128.620	-0.035	-0.045
-356.581	-18.285	-0.189	-0.118
-355.566	-200.000	0.044	0.244
-354.552	722.056	-0.075	0.198
-353.537	-63.584	-0.078	-0.032
-352.523	-200.000	-0.001	-0.008
-351.508	-25.861	0.165	-0.097
-350.493	49.366	-0.116	0.109
-349.479	-200.000	0.082	-0.459
-348.464	-11.882	-0.159	-0.104
-347.450	302.643	0.122	-0.226
-346.435	-118.982	-0.105	0.018
-345.420	-200.000	0.024	-0.207
-344.406	53.847	-0.206	0.198
-343.391	-101.083	-0.326	-0.080
-342.377	-200.000	-0.033	-0.163
-341.362	-49.043	-0.346	0.166
-340.348	-78.353	-0.118	0.040
-339.333	-200.000	-0.020	0.158
-338.318	800.000	-0.018	0.064
-337.304	-15.065	-0.130	-0.083
-336.289	-200.000	-0.008	0.162
-335.275	-200.000	-0.028	0.178
-334.260	-111.081	-0.110	-0.022
-333.245	226.029	0.065	-0.106
-332.231	800.000	0.013	0.036
-331.216	137.829	0.091	-0.119
-330.202	-200.000	-0.012	-0.106
-329.187	559.287	-0.063	-0.151
-328.172	-104.492	0.122	-0.028
-327.158	283.455	-0.035	0.062
-326.143	800.000	-0.047	-0.188
-325.129	16.294	0.025	0.020
-324.114	150.215	0.030	-0.040
-323.099	95.141	-0.182	-0.207
-322.085	-200.000	-0.014	0.193
-321.070	-200.000	-0.045	-0.375
-320.056	-200.000	-0.003	-0.114
-319.041	-42.883	-0.181	0.092
-318.026	172.788	-0.056	-0.081
-317.012	53.924	0.398	0.381
-315.997	-166.951	-0.434	-0.018
-314.983	38.652	-0.198	0.176
-313.968	54.456	-0.199	0.191
-312.953	415.467	-0.052	-0.110
-311.939	671.750	0.167	0.432
-310.924	-36.800	-0.070	0.038
-309.910	-121.922	0.326	-0.053
-308.895	800.000	-0.139	0.552
-307.880	-134.339	-0.220	-0.027
-306.866	-200.000	0.058	-0.489
-305.851	-200.000	0.045	-0.310
-304.837	163.223	0.087	-0.122
-303.822	161.989	0.125	-0.174
-302.807	-67.511	-0.268	0.105
-301.793	800.000	0.089	0.315
-300.778	-4.262	-0.201	0.139
-299.764	-102.532	-0.220	-0.052
-298.749	32.346	0.121	0.104
-297.735	-200.000	-0.008	-0.099
-296.720	356.853	-0.109	0.217
-295.705	270.866	0.116	0.204
-294.691	199.360	0.070	0.108
-293.676	-124.448	0.052	0.008
-292.662	687.948	-0.107	0.278
-291.647	-200.000	0.102	0.463
-290.632	87.939	-0.026	0.029
-289.618	800.000	0.038	-0.121
-288.603	-154.706	-0.080	0.005
-287.589	-156.275	0.080	0.005
-286.574	-28.131	-0.208	0.120
-285.559	85.053	0.141	-0.154
-284.545	107.556	-0.286	-0.339
-283.530	800.000	0.124	-0.356
-282.516	-200.000	-0.034	0.415
-281.501	800.000	0.075	0.255
-280.486	-6.413	0.135	-0.092
-279.472	800.000	0.099	-0.349
-278.457	-200.000	0.002	-0.343
-277.443	-106.072	0.202	-0.045
-276.428	158.392	0.024	-0.033
-275.413	9.834	-0.372	0.281
-274.399	-160.940	0.229	0.012
-273.384	-166.523	0.070	0.003
-272.370	87.815	0.191	0.211
-271.355	-79.788	-0.207	0.070
-270.340	83.229	-0.134	-0.145
-269.326	-34.076	-0.124	0.068
-268.311	97.927	-0.197	0.226
-267.297	-52.590	0.329	-0.151
-266.282	-75.980	-0.315	0.111
-265.267	800.000	-0.023	0.094
-264.253	800.000	-0.019	0.057
-263.238	338.727	0.069	-0.134
-262.224	800.000	0.087	0.327
-261.209	800.000	0.119	0.359
-260.195	-38.558	0.357	0.188
-259.180	168.535	-0.188	-0.267
-258.165	-200.000	0.050	-0.366
-257.151	103.734	0.222	-0.260
-256.136	5.469	0.238	0.175
-255.122	228.568	0.031	-0.050
-254.107	800.000	-0.074	0.212
-253.092	-129.261	-0.064	0.009
-252.078	-200.000	-0.025	0.157
-251.063	-200.000	-0.017	0.163
-250.049	-156.510	-0.117	0.007
-249.034	202.141	0.188	-0.289
-248.019	-124.897	-0.284	-0.043
-247.005	0.537	-0.150	-0.106
-245.990	-11.175	0.056	-0.037
-244.976	-15.413	0.323	-0.205
-243.961	-168.899	-0.031	0.001
-242.946	-200.000	-0.031	0.257
-241.932	-50.116	-0.102	-0.048
-240.917	373.651	0.146	-0.296
-239.903	-200.000	-0.009	-0.114
-238.888	41.676	0.120	-0.108
-237.873	800.000	-0.076	-0.218
-236.859	124.472	-0.285	0.357
-235.844	-200.000	0.061	-0.280
-234.830	406.274	0.026	-0.055
-233.815	-22.066	0.223	0.135
-232.800	-200.000	-0.005	-0.192
-231.786	-80.660	0.231	0.076
-230.771	-79.902	0.126	0.042
-229.757	-56.246	-0.176	-0.078
-228.742	-8.424	0.175	-0.117
-227.727	-35.898	-0.030	0.016
-226.713	-158.415	-0.068	0.004
-225.698	44.940	-0.213	0.195
-224.684	-52.175	-0.133	0.061
-223.669	67.376	-0.213	0.216
-222.655	97.206	0.103	0.118
-221.640	11.570	-0.122	-0.093
-220.625	800.000	-0.102	-0.411
-219.611	800.000	0.070	-0.235
-218.596	-183.565	-0.170	0.003
-217.582	800.000	-0.127	0.408
-216.567	222.441	-0.099	0.158
-215.552	-41.004	0.238	0.122
-214.538	-12.970	0.116	0.075
-213.523	16.562	0.216	0.169
-212.509	21.526	-0.266	0.215
-211.494	-114.717	0.307	-0.058
-210.479	-12.210	0.132	0.086
-209.465	-135.373	0.218	0.026
-208.450	800.000	-0.039	-0.114
-207.436	96.023	0.073	0.083
-206.421	-112.439	0.277	0.055
-205.406	-4.831	0.265	0.182
-204.392	-182.920	-0.212	-0.004
-203.377	-25.980	0.092	0.054
-202.363	-200.000	-0.010	-0.291
-201.348	800.000	0.064	0.240
-200.333	199.648	0.030	-0.046
-199.319	-45.670	-0.159	-0.078
-198.304	-11.249	0.189	0.124
-197.290	26.701	0.141	0.117
-196.275	55.760	0.210	-0.202
-195.260	-200.000	0.012	0.212
-194.246	79.448	0.326	0.347
-193.231	-46.836	0.137	-0.067
-192.217	-95.707	-0.253	0.067
-191.202	328.649	0.237	0.452
-190.187	242.946	0.106	0.176
-189.173	800.000	0.130	0.390
-188.158	705.649	0.211	0.552
-187.144	-3.048	0.149	0.103
-186.129	-14.376	-0.366	-0.234
-185.114	-89.963	0.347	0.100
-184.100	-9.060	0.074	-0.049
-183.085	-81.427	0.271	0.089
-182.071	29.900	0.038	0.032
-181.056	-200.000	-0.026	0.129
-180.042	-200.000	0.050	-0.395
-179.027	-145.203	-0.253	-0.023
-178.012	405.403	0.211	0.441
-176.998	380.768	0.046	0.093
-175.983	173.279	0.018	0.026
-174.969	-200.000	-0.047	0.273
-173.954	-142.511	0.263	0.026
-172.939	112.387	-0.230	0.276
-171.925	-49.396	0.364	0.172
-170.910	-78.373	-0.391	-0.133
-169.896	-200.000	0.056	0.281
-168.881	96.607	-0.264	0.300
-167.866	800.000	-0.100	0.406
-166.852	-4.656	0.164	0.112
-165.837	800.000	-0.050	0.211
-164.823	-49.680	0.248	0.117
-163.808	139.919	-0.197	0.257
-162.793	-112.106	0.272	0.054
-161.779	93.648	-0.153	-0.171
-160.764	-56.529	-0.400	-0.176
-159.750	62.943	0.279	0.277
-158.735	-22.963	0.079	0.047
-157.720	-200.000	0.024	-0.246
-156.706	-200.000	-0.006	-0.211
-155.691	-137.180	0.288	0.033
-154.677	-200.000	0.005	-0.026
-153.662	-40.233	0.294	-0.152
-152.647	-184.597	-0.230	0.004
-151.633	-200.000	-0.010	0.130
-150.618	800.000	0.083	-0.306
-149.604	220.756	0.287	-0.456
-148.589	73.105	0.169	-0.176
-147.574	-141.439	0.327	0.033
-146.560	277.428	0.208	-0.367
-145.545	-13.928	-0.509	-0.326
-144.531	-98.989	0.289	-0.073
-143.516	196.277	-0.095	0.143
-142.502	133.379	0.156	0.199
-141.487	-200.000	-0.006	0.065
-140.472	800.000	-0.029	-0.108
-139.458	-30.226	-0.102	-0.057
-138.443	-200.000	0.013	-0.354
-137.429	139.840	-0.021	0.027
-136.414	117.453	0.179	0.218
-135.399	-45.978	0.086	0.042
-134.385	14.997	0.161	-0.125
-133.370	10.367	0.144	0.109
-132.356	71.987	0.246	0.254
-131.341	23.413	-0.138	-0.112
-130.326	198.548	0.075	0.113
-129.312	240.254	-0.133	0.219
-128.297	-111.328	-0.217	-0.044
-127.283	115.660	0.122	-0.148
-126.268	-68.854	-0.210	0.080
-125.253	-111.407	-0.155	-0.031
-124.239	296.473	0.114	-0.207
-123.224	-200.000	-0.037	-0.310
-122.210	-128.811	-0.276	-0.038
-121.195	121.881	0.332	0.410
-120.180	-200.000	0.014	0.091
-119.166	-116.338	0.105	-0.019
-118.151	-200.000	-0.068	-0.413
-117.137	-33.917	-0.132	-0.072
-116.122	-168.281	-0.261	-0.010
-115.107	-122.503	-0.140	0.022
-114.093	18.182	0.077	-0.061
-113.078	-43.143	-0.165	-0.083
-112.064	-93.543	0.383	-0.105
-111.049	-97.651	0.174	0.045
-110.034	-200.000	-0.015	0.522
-109.020	107.146	0.125	-0.147
-108.005	-200.000	0.000	0.215
-106.991	800.000	0.022	-0.078
-105.976	-200.000	0.031	-0.181
-104.962	406.242	0.103	0.216
-103.947	71.684	-0.074	-0.076
-102.932	51.235	-0.168	0.158
-101.918	240.730	0.142	0.235
-100.903	-107.497	-0.204	-0.044
-99.889	-144.515	0.021	0.002
-98.874	-69.690	0.094	-0.035
-97.859	-28.227	-0.213	0.122
-96.845	86.170	-0.116	-0.126
-95.830	178.345	0.352	-0.509
-94.816	800.000	0.062	-0.190
-93.801	29.855	-0.195	0.164
-92.786	-107.526	-0.198	-0.043
-91.772	800.000	-0.055	-0.166
-90.757	800.000	0.008	-0.032
-89.743	176.064	0.104	-0.150
-88.728	-200.000	-0.036	-0.224
-87.713	-200.000	-0.007	0.291
-86.699	-45.827	-0.449	0.220
-85.684	583.744	0.078	-0.191
-84.670	251.331	-0.170	0.285
-83.655	188.632	-0.078	-0.115
-82.640	-161.128	0.108	0.006
-81.626	-116.656	-0.202	0.037
-80.611	497.449	-0.099	0.225
-79.597	800.000	-0.084	-0.275
-78.582	96.217	-0.117	-0.132
-77.567	-46.206	0.189	-0.092
-76.553	110.148	-0.121	-0.144
-75.538	-111.610	-0.038	-0.008
-74.524	340.258	0.061	0.117
-73.509	109.500	-0.123	0.146
-72.494	-163.809	-0.133	0.006
-71.480	-64.946	0.350	0.140
-70.465	-116.908	-0.201	-0.036
-69.451	141.975	-0.064	0.084
-68.436	-200.000	0.000	0.023
-67.422	-200.000	0.081	0.558
-66.407	-200.000	-0.018	0.163
-65.392	-73.377	0.202	0.073
-64.378	72.582	-0.160	0.165
-63.363	61.380	-0.182	-0.178
-62.349	-176.038	-0.059	-0.002
-61.334	9.649	-0.954	-0.715
-60.319	694.788	0.173	0.449
-59.305	-200.000	0.061	-0.867
-58.290	101.204	0.644	0.741
-57.276	257.482	0.792	1.345
-56.261	-200.000	97.538	582.885
-55.246	656.331	1388.080	3521.962
-54.232	190.319	2587.716	3838.327
-53.217	124.215	2164.768	2686.993
-52.203	46.635	1621.321	1486.398
-51.188	38.411	1357.378	1194.435
-50.173	35.126	1314.750	1137.407
-49.159	57.771	1364.487	1317.842
-48.144	61.745	1382.392	1359.052
-47.130	38.660	1336.629	1177.485
-46.115	35.009	1318.907	1140.124
-45.100	34.809	1314.298	1134.911
-44.086	34.766	1311.942	1132.575
-43.071	34.766	1309.040	1130.027
-42.057	34.684	1307.419	1128.099
-41.042	34.770	1305.827	1127.184
-40.027	34.789	1304.493	1126.103
-39.013	34.747	1302.276	1123.899
-37.998	34.788	1300.235	1122.333
-36.984	34.902	1298.978	1121.868
-35.969	34.822	1297.337	1119.940
-34.954	34.840	1295.723	1118.607
-33.940	34.963	1293.905	1117.713
-32.925	35.024	1292.766	1117.043
-31.911	34.918	1291.268	1115.082
-30.896	35.062	1289.895	1114.692
-29.881	35.038	1288.372	1113.192
-28.867	34.911	1287.101	1111.313
-27.852	35.015	1285.578	1110.556
-26.838	34.917	1284.753	1109.230
-25.823	34.998	1283.125	1108.248
-24.809	35.031	1281.769	1107.229
-23.794	34.905	1280.754	1105.580
-22.779	34.983	1278.988	1104.460
-21.765	34.960	1277.630	1103.109
-20.750	34.934	1276.798	1102.200
-19.736	34.829	1275.388	1100.335
-18.721	34.759	1274.458	1099.083
-17.706	34.897	1272.980	1098.560
-16.692	34.833	1271.604	1096.959
-15.677	34.888	1270.549	1096.325
-14.663	34.802	1269.873	1095.205
-13.648	34.793	1268.599	1094.010
-12.633	34.918	1267.498	1093.734
-11.619	34.766	1266.881	1092.287
-10.604	34.859	1265.669	1091.732
-9.590	34.751	1265.069	1090.554
-8.575	34.877	1263.451	1089.834
-7.560	34.777	1263.195	1089.000
-6.546	34.772	1262.258	1088.116
-5.531	34.712	1261.347	1086.950
-4.517	34.823	1259.826	1086.225
-3.502	34.799	1259.514	1085.777
-2.487	34.864	1258.388	1085.133
-1.473	34.756	1254.828	1081.410
-0.458	33.185	1239.290	1059.186
0.556	28.621	1220.630	1017.272
1.571	24.487	1224.668	997.499
2.586	23.384	1239.697	1003.411
3.600	22.652	1228.952	990.513
4.615	17.193	1156.732	903.282
5.629	8.835	1081.307	802.603
6.644	5.029	1060.627	768.455
7.659	4.785	1058.534	765.672
8.673	4.748	1057.331	764.553
9.688	4.918	1055.986	764.348
10.702	5.027	1053.990	763.365
11.717	9.564	1060.841	790.571
12.731	16.993	1071.352	835.033
13.746	19.660	1074.061	850.209
14.761	18.738	1072.511	844.377
15.775	17.790	1069.927	837.612
16.790	16.618	1068.208	830.445
17.804	16.025	1066.385	826.051
18.819	15.562	1065.687	823.168
19.834	15.302	1064.468	820.880
20.848	15.118	1063.673	819.292
21.863	14.910	1062.952	817.651
22.877	14.766	1062.172	816.274
23.892	14.722	1061.017	815.099
24.907	14.707	1060.852	814.826
25.921	14.843	1059.243	814.183
26.936	14.846	1058.305	813.402
27.950	14.872	1056.692	812.219
28.965	14.938	1055.335	811.423
29.980	15.044	1053.547	810.488
30.994	15.164	1052.681	810.331
32.009	15.127	1051.696	809.324
33.023	15.136	1050.736	808.557
34.038	14.991	1049.549	806.873
35.053	14.851	1049.083	805.768
36.067	14.996	1047.632	805.282
37.082	15.034	1047.071	804.960
38.096	15.061	1046.561	804.626
39.111	15.102	1045.633	804.038
40.126	14.803	1044.582	801.726
41.140	14.793	1042.758	800.205
42.155	14.679	1042.062	799.059
43.169	14.600	1041.141	797.903
44.184	14.618	1040.081	797.105
45.199	14.667	1039.084	796.505
46.213	14.679	1038.123	795.756
47.228	14.908	1037.032	795.939
48.242	14.915	1035.704	794.880
49.257	14.766	1034.730	793.356
50.271	14.877	1034.155	793.371
51.286	14.982	1032.480	792.513
52.301	14.995	1031.566	791.805
53.315	14.855	1030.635	790.357
54.330	14.673	1029.893	788.859
55.344	14.757	1029.058	788.544
56.359	14.739	1028.127	787.679
57.374	14.751	1027.159	786.924
58.388	14.695	1026.354	785.972
59.403	14.669	1025.547	785.163
60.417	14.798	1024.606	784.977
61.432	14.714	1023.703	783.821
62.447	14.565	1023.028	782.539
63.461	14.597	1022.442	782.169
64.476	14.539	1021.329	780.979
65.490	14.602	1020.337	780.447
66.505	14.558	1020.054	779.953
67.520	14.639	1018.909	779.391
68.534	14.666	1018.216	778.916
69.549	14.693	1017.668	778.552
70.563	14.659	1016.864	777.712
71.578	14.462	1015.814	775.922
72.593	14.508	1015.120	775.535
73.607	14.443	1014.853	774.964
74.622	14.462	1014.051	774.371
75.636	14.532	1012.981	773.809
76.651	14.479	1012.860	773.400
77.666	14.475	1012.367	772.937
78.680	14.590	1010.847	772.243
79.695	14.540	1010.617	771.766
80.709	14.631	1010.155	771.767
81.724	14.665	1009.307	771.205
82.739	14.713	1008.498	770.744
83.753	14.894	1008.214	771.292
84.768	15.038	1007.053	770.999
85.782	15.101	1006.141	770.522
86.797	14.928	1005.597	769.242
87.812	14.780	1004.642	767.765
88.826	14.909	1003.544	767.449
89.841	15.040	1002.441	767.138
90.855	15.065	1001.637	766.569
91.870	15.173	1000.658	766.248
92.884	15.070	1000.207	765.364
93.899	15.147	998.952	764.687
94.914	15.063	998.541	763.920
95.928	15.058	997.786	763.254
96.943	15.003	996.875	762.239
97.957	15.030	996.244	761.809
98.972	15.026	995.115	760.862
99.987	15.052	994.202	760.212
101.001	14.973	993.350	759.135
102.016	14.921	992.744	758.372
103.030	15.114	991.698	758.380
104.045	15.067	990.783	757.400
105.060	14.970	990.257	756.492
106.074	14.762	989.265	754.727
107.089	14.739	988.184	753.731
108.103	14.576	987.141	752.135
109.118	14.711	985.927	751.751
110.133	14.643	985.747	751.240
111.147	14.653	984.886	750.562
112.162	14.733	983.937	750.132
113.176	14.828	983.483	750.146
114.191	14.887	982.555	749.636
115.206	14.861	981.692	748.795
116.220	14.914	980.790	748.281
117.235	14.790	979.589	746.742
118.249	14.750	978.998	746.048
119.264	14.787	978.361	745.661
120.279	14.745	977.787	744.968
121.293	14.662	976.909	743.867
122.308	14.662	975.674	742.857
123.322	14.704	974.773	742.293
124.337	14.633	973.734	741.122
125.352	14.694	972.614	740.476
126.366	14.618	971.800	739.451
127.381	14.709	970.925	739.126
128.395	14.855	969.661	738.742
129.410	14.798	969.480	738.288
130.424	14.800	968.337	737.359
131.439	14.809	967.951	737.040
132.454	14.698	967.037	735.791
133.468	14.897	966.174	735.945
134.483	14.820	965.204	734.803
135.497	14.920	964.345	734.524
136.512	14.876	963.713	733.784
137.527	14.943	962.835	733.344
138.541	14.912	962.236	732.687
139.556	15.075	961.719	732.941
140.570	15.131	960.878	732.482
141.585	15.209	959.685	731.847
142.600	15.180	958.923	731.074
143.614	15.073	958.603	730.297
144.629	14.991	958.006	729.422
145.643	15.213	956.501	729.179
146.658	15.031	955.176	727.314
147.673	15.056	954.386	726.757
148.687	15.132	953.301	726.195
149.702	14.989	952.418	724.837
150.716	15.011	951.885	724.463
151.731	15.020	950.951	723.728
152.746	14.954	950.675	723.169
153.760	15.122	949.613	723.021
154.775	15.019	949.780	722.642
155.789	15.047	948.821	721.967
156.804	15.193	947.867	721.806
157.819	15.165	947.669	721.473
158.833	15.130	946.998	720.746
159.848	15.284	946.074	720.643
160.862	15.248	944.991	719.596
161.877	15.181	943.316	717.970
162.892	14.973	942.790	716.618
163.906	14.984	942.143	716.109
164.921	14.903	941.147	714.940
165.935	14.934	940.758	714.715
166.950	15.029	939.936	714.434
167.964	15.240	938.255	713.991
168.979	15.043	937.575	712.571
169.994	15.136	936.819	712.331
171.008	15.077	936.586	711.840
172.023	15.358	935.368	712.045
173.037	15.319	934.943	711.493
174.052	15.283	934.265	710.759
175.067	15.109	933.308	709.231
176.081	15.124	932.776	708.828
177.096	15.160	932.390	708.626
178.110	15.172	932.101	708.395
179.125	15.033	931.572	707.340
180.140	15.151	931.066	707.391
181.154	15.328	930.062	707.312
182.169	15.410	929.624	707.263
183.183	15.342	929.306	706.675
184.198	15.400	928.370	706.144
185.213	15.490	927.454	705.763
186.227	15.386	927.186	705.057
187.242	15.433	926.762	704.873
188.256	15.579	925.559	704.504
189.271	15.475	925.356	703.854
190.286	15.255	924.128	701.934
191.300	15.248	922.890	700.902
192.315	14.987	922.221	699.243
193.329	15.048	922.060	699.312
194.344	15.238	921.436	699.571
195.359	15.203	921.257	699.230
196.373	15.443	920.178	699.346
197.388	15.429	920.271	699.298
198.402	15.602	919.347	699.256
199.417	15.717	919.203	699.559
200.432	15.727	918.711	699.165
201.446	15.698	918.093	698.512
202.461	15.719	917.738	698.269
203.475	15.780	916.834	697.772
204.490	15.753	915.647	696.695
205.504	15.656	915.227	695.914
206.519	15.611	914.606	695.190
207.534	15.676	913.399	694.484
208.548	15.606	913.302	694.057
209.563	15.522	912.736	693.220
210.577	15.660	911.997	693.165
211.592	15.743	911.660	693.190
212.607	15.834	910.481	692.606
213.621	15.827	909.725	691.944
214.636	15.772	909.211	691.264
215.650	15.829	908.031	690.539
216.665	16.044	907.370	690.859
217.680	15.972	906.896	690.141
218.694	15.886	906.559	689.470
219.709	15.865	905.829	688.767
220.723	15.808	905.242	688.029
221.738	15.759	904.674	687.336
222.753	15.812	903.990	686.971
223.767	16.030	903.546	687.462
224.782	16.081	902.513	686.825
225.796	16.014	902.195	686.247
226.811	16.009	901.450	685.602
227.826	15.938	900.532	684.554
228.840	15.930	899.983	684.041
229.855	15.831	899.429	683.161
230.869	15.911	898.247	682.523
231.884	15.905	897.741	682.056
232.899	15.917	897.286	681.699
233.913	15.846	896.368	680.654
234.928	15.873	895.480	680.026
235.942	15.791	895.166	679.397
236.957	15.872	894.467	679.134
237.972	15.908	893.683	678.622
238.986	15.777	893.219	677.684
240.001	15.905	892.485	677.583
241.015	15.998	892.182	677.664
242.030	15.973	891.273	676.816
243.045	16.067	890.461	676.517
244.059	15.975	890.233	675.913
245.074	15.999	890.032	675.798
246.088	16.246	888.566	675.615
247.103	16.163	888.300	675.019
248.117	16.177	888.159	674.911
249.132	16.477	887.338	675.423
250.147	16.542	887.030	675.389
251.161	16.484	886.295	674.539
252.176	16.514	885.960	674.342
253.190	16.535	885.256	673.831
254.205	16.480	884.650	673.091
255.220	16.558	883.616	672.554
256.234	16.675	883.199	672.644
257.249	16.537	882.247	671.311
258.263	16.595	882.148	671.408
259.278	16.603	881.331	670.756
260.293	16.655	880.503	670.273
261.307	16.833	880.280	670.752
262.322	16.793	879.021	669.574
263.336	16.717	878.586	668.883
264.351	16.821	877.503	668.410
265.366	16.853	877.238	668.274
266.380	16.916	876.549	667.936
267.395	16.711	875.997	666.650
268.409	16.635	875.341	665.795
269.424	16.753	874.495	665.555
270.439	16.751	873.863	665.007
271.453	16.501	873.615	663.779
272.468	16.731	872.811	664.010
273.482	16.577	872.284	662.950
274.497	16.540	871.864	662.425
275.512	16.657	871.190	662.310
276.526	16.801	870.366	662.190
277.541	16.790	870.155	661.929
278.555	16.937	869.410	661.875
279.570	16.986	868.777	661.527
280.585	17.044	867.873	661.005
281.599	16.933	867.106	659.931
282.614	16.721	866.621	658.680
283.628	16.968	866.041	659.139
284.643	16.823	865.339	657.985
285.657	16.890	864.721	657.716
286.672	16.905	864.315	657.407
287.687	16.979	863.745	657.203
288.701	16.748	863.241	655.865
289.716	16.869	862.349	655.600
290.730	16.961	862.112	655.716
291.745	16.935	861.483	655.079
292.760	17.040	860.267	654.501
293.774	17.029	860.317	654.439
294.789	17.040	859.538	653.831
295.803	17.121	858.482	653.282
296.818	17.159	857.982	652.990
297.833	17.106	857.282	652.197
298.847	17.085	856.568	651.513
299.862	16.974	856.601	651.054
300.876	17.136	855.893	651.083
301.891	17.042	855.725	650.534
302.906	17.293	854.788	650.727
303.920	17.280	854.548	650.437
304.935	17.428	853.824	650.392
305.949	17.353	852.925	649.365
306.964	17.267	852.489	648.647
307.979	17.271	851.673	647.985
308.993	17.336	851.207	647.819
310.008	17.372	850.618	647.452
311.022	17.272	850.295	646.767
312.037	17.145	849.637	645.726
313.052	17.130	849.076	645.187
314.066	17.145	848.372	644.650
315.081	17.073	848.046	644.075
316.095	17.264	847.148	644.059
317.110	17.139	846.987	643.407
318.125	17.174	846.485	643.100
319.139	17.319	845.762	643.042
320.154	17.169	845.373	642.124
321.168	17.402	844.425	642.223
322.183	17.349	844.081	641.706
323.197	17.396	843.873	641.670
324.212	17.321	843.314	640.903
325.227	17.461	842.429	640.702
326.241	17.232	842.227	639.631
327.256	17.181	841.685	638.970
328.270	17.193	841.175	638.573
329.285	17.298	840.299	638.244
330.300	17.277	839.954	637.845
331.314	17.353	839.216	637.514
332.329	17.371	839.183	637.500
333.343	17.400	838.619	637.124
334.358	17.413	837.984	636.635
335.373	17.451	837.679	636.489
336.387	17.602	837.243	636.667
337.402	17.588	837.233	636.550
338.416	17.678	836.937	636.605
339.431	17.733	836.521	636.436
340.446	17.690	835.975	635.804
341.460	17.877	835.359	635.976
342.475	17.992	835.142	636.182
343.489	17.839	834.630	635.169
344.504	18.032	834.316	635.590
345.519	18.029	833.592	634.971
346.533	17.997	833.362	634.622
347.548	17.965	832.225	633.580
348.562	17.708	831.901	632.325
349.577	17.692	831.260	631.723
350.592	17.583	830.701	630.840
351.606	17.622	830.188	630.535
352.621	17.677	829.638	630.265
353.635	17.833	828.620	630.014
354.650	17.822	828.350	629.712
355.665	17.827	827.801	629.256
356.679	17.870	826.943	628.709
357.694	17.895	826.765	628.611
358.708	17.759	825.767	627.294
359.723	17.849	825.208	627.145
360.738	17.895	824.936	627.051
361.752	17.968	824.163	626.675
362.767	18.048	823.862	626.685
363.781	18.070	823.476	626.418
364.796	18.094	823.005	626.091
365.810	18.173	822.530	625.963
366.825	18.208	822.360	625.907
367.840	18.248	821.674	625.477
368.854	18.215	821.098	624.861
369.869	18.130	820.724	624.209
370.883	18.286	820.124	624.269
371.898	18.308	819.723	623.988
372.913	18.425	819.444	624.145
373.927	18.410	818.510	623.324
374.942	18.298	818.447	622.814
375.956	18.429	817.844	622.777
376.971	18.475	817.446	622.586
377.986	18.541	817.109	622.513
379.000	18.464	816.926	622.038
380.015	18.418	816.193	621.261
381.029	18.313	815.712	620.457
382.044	18.448	815.186	620.491
383.059	18.591	814.473	620.414
384.073	18.451	813.932	619.438
385.088	18.468	813.285	618.952
386.102	18.271	812.930	617.917
387.117	18.273	812.144	617.272
388.132	18.406	811.548	617.243
389.146	18.408	811.200	616.932
390.161	18.421	810.537	616.421
391.175	18.534	810.211	616.524
392.190	18.508	809.281	615.666
393.205	18.515	808.850	615.310
394.219	18.516	808.739	615.176
395.234	18.396	808.516	614.519
396.248	18.406	807.811	613.965
397.263	18.422	807.030	613.374
398.278	18.363	806.924	613.029
399.292	18.392	806.608	612.838
400.307	18.360	805.768	612.031
401.321	18.397	805.432	611.856
402.336	18.492	804.978	611.796
403.350	18.713	804.612	612.249
404.365	18.572	804.185	611.368
405.380	18.512	804.072	611.017
406.394	18.716	803.431	611.201
407.409	18.714	803.126	610.907
408.423	18.964	802.635	611.370
409.438	19.031	802.097	611.143
410.453	18.820	801.983	610.252
411.467	18.797	801.407	609.680
412.482	19.074	800.889	610.212
413.496	19.067	800.484	609.824
414.511	18.905	800.502	609.213
415.526	19.008	799.618	608.851
416.540	18.898	799.351	608.204
417.555	18.856	799.041	607.765
418.569	18.925	798.477	607.525
419.584	19.038	798.163	607.632
420.599	19.113	797.365	607.237
421.613	155.609	1369.744	1790.784
422.628	134.822	1453.152	1790.877
