DTS Sentinel unit serial number:	SN413079Multiplexer serial number:	ORYXHardware model number:	OX4-SRSoftware version number:	ORYX F/W v4.00 Oryx Data Collector v3.7.2.0data status	okinstallation	princeton_trtdifferential loss correction	single-endedforward channel	channel 1reverse channel	N/Adate	2019/09/15time	15:46:35forward acquisition time	60.00reverse acquisition time	0.00gamma	496.2192k internal	0.2292k external	0.2292temperature offset calibration	0.9941default loss term (dB/km)	0.3790temperature slope calibration	1.0000multiplexer offset coefficient	1.0000multiplexer slope coefficient	1.0000fibre end	0.00T internal ref (°C)	41.98T ext. ref 1 (°C)	5.23T ext. ref 2 (°C)	40.51length (m)	temperature (°C)	Stokes	anti-Stokes-747.200	800.000	0.071	0.279
-746.185	17.457	-0.255	0.208
-745.171	800.000	0.092	-0.262
-744.156	228.856	-0.143	0.239
-743.142	-59.850	-0.318	0.139
-742.127	442.199	0.086	0.193
-741.112	225.174	-0.153	0.254
-740.098	-59.103	-0.224	0.099
-739.083	-57.559	0.466	0.209
-738.069	608.247	-0.139	0.355
-737.054	-20.061	-0.104	-0.066
-736.039	-174.775	0.183	0.005
-735.025	7.680	-0.222	0.170
-734.010	269.789	-0.123	-0.221
-732.996	-200.000	0.038	-0.184
-731.981	467.277	-0.115	-0.263
-730.966	-200.000	-0.035	-0.270
-729.952	800.000	-0.046	-0.158
-728.937	506.330	-0.046	-0.109
-727.923	84.041	-0.105	-0.117
-726.908	788.632	0.164	0.460
-725.894	-200.000	-0.122	-0.548
-724.879	124.272	-0.284	-0.365
-723.864	23.661	0.140	-0.118
-722.850	99.464	0.089	0.105
-721.835	-51.616	-0.093	-0.044
-720.821	156.209	0.026	0.036
-719.806	800.000	0.105	-0.339
-718.791	343.206	0.046	-0.092
-717.777	150.751	0.143	-0.199
-716.762	-88.741	0.390	-0.118
-715.748	-46.064	-0.147	0.074
-714.733	-124.627	0.130	-0.021
-713.718	28.414	-0.075	0.065
-712.704	-1.157	0.126	-0.091
-711.689	800.000	-0.049	0.143
-710.675	-61.341	-0.067	-0.029
-709.660	1.764	-0.125	-0.092
-708.645	147.551	-0.113	0.156
-707.631	800.000	-0.077	-0.274
-706.616	752.110	-0.083	-0.229
-705.602	-200.000	0.025	-0.316
-704.587	324.838	0.054	-0.105
-703.572	-117.600	-0.355	0.065
-702.558	-200.000	-0.055	-0.280
-701.543	-200.000	-0.025	-0.264
-700.529	-116.319	-0.092	0.017
-699.514	800.000	-0.091	-0.376
-698.499	-154.307	0.146	0.010
-697.485	-71.609	-0.114	0.043
-696.470	206.504	0.069	0.109
-695.456	219.431	0.182	0.298
-694.441	800.000	-0.037	0.115
-693.426	-96.491	0.423	-0.114
-692.412	-74.981	0.202	-0.074
-691.397	-59.157	0.188	0.083
-690.383	94.726	0.055	0.064
-689.368	65.287	-0.323	-0.334
-688.354	800.000	-0.068	-0.246
-687.339	-77.962	0.144	-0.051
-686.324	-61.126	0.032	-0.014
-685.310	-200.000	0.022	-0.103
-684.295	800.000	-0.092	-0.363
-683.281	1.951	-0.240	-0.177
-682.266	12.456	0.222	-0.175
-681.251	800.000	0.108	-0.388
-680.237	-110.114	0.305	0.065
-679.222	-156.110	0.179	0.012
-678.208	-77.920	-0.499	-0.176
-677.193	118.759	0.029	0.037
-676.178	-200.000	0.004	-0.177
-675.164	800.000	-0.106	-0.319
-674.149	258.929	0.127	-0.224
-673.135	-116.770	-0.062	0.012
-672.120	-106.940	-0.437	0.099
-671.105	268.564	0.091	-0.163
-670.091	224.689	0.138	-0.228
-669.076	-179.435	0.169	0.004
-668.062	557.068	0.029	-0.071
-667.047	-89.191	-0.171	0.052
-666.032	-16.360	0.193	0.125
-665.018	-39.251	0.186	-0.100
-664.003	-200.000	-0.026	-0.294
-662.989	800.000	0.016	0.059
-661.974	-178.810	-0.215	0.005
-660.959	493.428	0.034	-0.079
-659.945	-90.591	0.390	-0.115
-658.930	410.598	0.086	0.187
-657.916	-9.714	-0.145	0.099
-656.901	-86.937	-0.501	-0.156
-655.886	-30.929	-0.061	0.035
-654.872	288.554	0.168	0.310
-653.857	-163.335	0.172	-0.008
-652.843	64.718	-0.138	-0.142
-651.828	-14.971	0.239	-0.156
-650.814	800.000	-0.078	0.252
-649.799	27.173	-0.045	0.039
-648.784	25.887	-0.186	0.158
-647.770	218.492	0.075	0.122
-646.755	-49.063	-0.258	-0.126
-645.741	-200.000	-0.002	0.117
-644.726	-87.178	0.300	-0.093
-643.711	-4.482	0.279	0.197
-642.697	-148.243	0.174	-0.015
-641.682	678.667	0.100	-0.265
-640.668	-64.546	0.324	-0.134
-639.653	244.212	-0.157	-0.270
-638.638	-200.000	0.012	0.164
-637.624	-200.000	0.043	-0.275
-636.609	219.901	-0.074	-0.120
-635.595	-81.447	0.244	0.082
-634.580	58.663	-0.280	0.281
-633.565	186.793	0.157	0.239
-632.551	-200.000	-0.001	-0.175
-631.536	-133.314	-0.298	0.038
-630.522	-119.515	0.190	-0.034
-629.507	185.958	-0.047	-0.072
-628.492	101.515	-0.029	-0.034
-627.478	-113.188	-0.233	0.047
-626.463	-66.561	0.280	0.113
-625.449	-71.699	0.244	-0.093
-624.434	50.087	-0.015	-0.015
-623.419	-200.000	0.047	0.408
-622.405	-21.636	-0.280	0.174
-621.390	187.668	0.129	0.196
-620.376	-72.016	0.093	0.035
-619.361	-62.435	-0.119	0.050
-618.346	-200.000	-0.257	-0.000
-617.332	-57.574	-0.132	-0.059
-616.317	-41.657	0.061	-0.032
-615.303	306.944	-0.094	-0.179
-614.288	156.709	-0.075	-0.106
-613.273	-119.319	-0.420	0.074
-612.259	87.800	0.126	0.142
-611.244	-200.000	0.065	-0.348
-610.230	106.793	-0.031	-0.037
-609.215	15.526	-0.352	-0.282
-608.201	-64.319	0.266	0.110
-607.186	22.517	0.111	0.093
-606.171	-200.000	0.214	0.001
-605.157	60.175	0.152	0.153
-604.142	-84.547	-0.184	-0.059
-603.128	715.791	0.054	-0.147
-602.113	5.858	-0.252	0.190
-601.098	755.680	-0.046	-0.126
-600.084	-36.972	0.336	0.183
-599.069	-68.652	0.147	-0.058
-598.055	134.135	-0.185	0.244
-597.040	256.374	0.029	-0.051
-596.025	133.070	0.128	-0.168
-595.011	367.094	-0.190	-0.390
-593.996	-77.065	-0.135	0.048
-592.982	-26.977	-0.267	-0.159
-591.967	-200.000	0.193	-0.001
-590.952	-18.729	-0.266	0.169
-589.938	85.301	-0.132	0.148
-588.923	-95.475	-0.349	-0.095
-587.909	39.651	0.050	-0.045
-586.894	800.000	0.050	0.168
-585.879	-200.000	-0.033	-0.172
-584.865	-200.000	-0.058	-0.286
-583.850	145.961	0.159	-0.217
-582.836	426.788	-0.188	-0.413
-581.821	27.333	-0.222	-0.190
-580.806	-200.000	0.020	0.281
-579.792	-22.586	-0.136	-0.084
-578.777	-200.000	0.061	-0.285
-577.763	-68.226	0.205	0.081
-576.748	708.815	-0.140	0.376
-575.733	-43.829	-0.148	0.076
-574.719	70.825	0.179	0.189
-573.704	-133.167	0.186	0.024
-572.690	19.664	-0.061	0.050
-571.675	64.184	0.075	-0.077
-570.661	-6.004	-0.335	0.233
-569.646	-41.718	0.487	0.254
-568.631	-200.000	-0.011	0.094
-567.617	-106.879	-0.190	0.043
-566.602	794.027	-0.112	0.314
-565.588	800.000	0.039	0.142
-564.573	268.937	-0.065	-0.115
-563.558	219.877	0.158	0.258
-562.544	-184.294	0.234	-0.004
-561.529	-107.913	-0.182	0.040
-560.515	-125.198	-0.212	0.033
-559.500	-125.192	-0.229	0.036
-558.485	-111.726	0.339	0.070
-557.471	800.000	0.031	-0.098
-556.456	-29.064	-0.154	0.090
-555.442	-13.885	0.183	0.121
-554.427	-93.677	-0.203	0.057
-553.412	21.351	-0.280	-0.231
-552.398	-100.396	-0.388	0.098
-551.383	-200.000	-0.021	0.369
-550.369	150.698	-0.284	-0.392
-549.354	-50.404	-0.229	0.110
-548.339	123.788	0.222	0.283
-547.325	-200.000	0.006	-0.210
-546.310	-200.000	0.011	0.085
-545.296	-120.908	0.377	0.065
-544.281	330.390	-0.129	-0.253
-543.266	87.432	-0.199	-0.224
-542.252	-88.558	-0.060	-0.018
-541.237	-200.000	-0.001	-0.013
-540.223	-143.944	-0.068	0.006
-539.208	-159.097	-0.128	0.007
-538.193	37.259	-0.259	0.233
-537.179	477.257	-0.118	-0.272
-536.164	-188.102	-0.324	-0.004
-535.150	168.103	0.143	-0.207
-534.135	-72.431	0.336	-0.126
-533.121	103.618	0.039	-0.047
-532.106	145.137	0.206	-0.280
-531.091	-200.000	-0.003	0.106
-530.077	-117.819	-0.149	-0.027
-529.062	86.686	0.232	-0.260
-528.048	540.540	0.049	0.117
-527.033	-17.593	0.074	-0.047
-526.018	94.586	-0.019	-0.022
-525.004	152.434	-0.159	-0.220
-523.989	-34.754	-0.150	0.083
-522.975	105.976	0.223	0.268
-521.960	140.351	-0.144	0.193
-520.945	-119.153	0.289	0.051
-519.931	-103.120	0.368	0.088
-518.916	54.925	0.134	-0.131
-517.902	-13.081	0.188	0.124
-516.887	-86.045	-0.201	0.063
-515.872	140.249	-0.173	0.231
-514.858	-116.377	0.426	-0.080
-513.843	-166.419	-0.261	0.011
-512.829	20.959	-0.058	-0.047
-511.814	-100.410	0.427	-0.107
-510.799	800.000	-0.099	-0.288
-509.785	99.089	-0.111	-0.131
-508.770	-200.000	-0.008	0.178
-507.756	311.337	0.090	0.171
-506.741	-137.674	-0.290	0.033
-505.726	199.655	-0.040	0.062
-504.712	-200.000	0.024	-0.318
-503.697	-99.546	-0.130	0.033
-502.683	-33.165	0.114	0.064
-501.668	148.652	0.139	-0.190
-500.653	96.948	0.272	0.316
-499.639	-200.000	0.034	0.214
-498.624	391.975	-0.100	0.210
-497.610	162.890	0.209	-0.298
-496.595	-125.678	0.100	-0.015
-495.581	-126.472	0.352	0.053
-494.566	800.000	0.026	0.114
-493.551	-134.692	-0.407	-0.050
-492.537	-40.444	0.221	-0.116
-491.522	-113.544	-0.108	0.021
-490.508	53.575	0.087	0.085
-489.493	-105.543	0.422	-0.097
-488.478	-200.000	0.034	-0.230
-487.464	-200.000	-0.011	0.165
-486.449	40.131	-0.097	-0.088
-485.435	800.000	-0.039	0.152
-484.420	800.000	0.030	0.116
-483.405	-144.734	0.236	-0.022
-482.391	321.279	-0.175	0.337
-481.376	800.000	0.097	0.288
-480.362	-117.916	0.314	0.057
-479.347	-200.000	-0.022	0.171
-478.332	438.671	-0.050	-0.110
-477.318	800.000	0.034	-0.101
-476.303	-74.408	-0.357	0.130
-475.289	-61.690	0.436	-0.185
-474.274	117.401	-0.130	0.162
-473.259	-200.000	-0.008	-0.045
-472.245	-55.261	-0.226	0.103
-471.230	717.878	0.065	-0.176
-470.216	-200.000	0.026	0.246
-469.201	-102.789	-0.074	0.018
-468.186	-5.578	-0.069	0.048
-467.172	-200.000	0.010	0.317
-466.157	133.903	-0.141	0.185
-465.143	-200.000	0.075	-0.582
-464.128	800.000	0.046	0.145
-463.113	-200.000	0.023	0.160
-462.099	800.000	-0.053	-0.209
-461.084	-0.559	0.096	-0.069
-460.070	800.000	0.148	0.523
-459.055	800.000	-0.047	0.136
-458.040	286.779	0.086	0.158
-457.026	-42.128	0.278	0.144
-456.011	-35.987	-0.162	-0.089
-454.997	-118.285	-0.133	-0.024
-453.982	91.689	-0.055	0.063
-452.968	-200.000	-0.009	0.332
-451.953	800.000	-0.083	-0.336
-450.938	86.385	0.218	-0.243
-449.924	166.622	0.229	-0.329
-448.909	-96.891	0.152	-0.040
-447.895	43.320	-0.218	-0.201
-446.880	800.000	0.081	-0.300
-445.865	194.905	-0.122	0.188
-444.851	-200.000	0.004	0.083
-443.836	-109.946	-0.136	-0.029
-442.822	-200.000	-0.004	-0.066
-441.807	-15.438	0.314	0.203
-440.792	-42.966	-0.083	0.042
-439.778	-200.000	0.029	0.326
-438.763	338.687	0.058	0.113
-437.749	10.778	0.065	0.050
-436.734	232.710	0.188	-0.313
-435.719	-81.625	0.261	0.087
-434.705	-166.275	0.217	-0.009
-433.690	9.885	-0.113	-0.087
-432.676	-112.958	-0.223	0.045
-431.661	-115.844	-0.187	-0.035
-430.646	-36.152	0.221	-0.121
-429.632	-9.169	-0.379	-0.256
-428.617	-200.000	-0.010	0.183
-427.603	382.336	-0.013	0.027
-426.588	-9.619	0.368	-0.248
-425.573	9.743	-0.290	-0.223
-424.559	-104.617	0.047	-0.011
-423.544	193.603	0.181	0.277
-422.530	282.913	0.199	0.362
-421.515	153.115	-0.156	0.216
-420.500	445.181	-0.088	-0.196
-419.486	-57.828	-0.244	-0.108
-418.471	-200.000	0.019	0.221
-417.457	6.629	-0.271	0.204
-416.442	428.121	-0.145	-0.315
-415.428	165.365	0.165	-0.235
-414.413	-200.000	-0.008	-0.172
-413.398	42.356	0.209	-0.192
-412.384	-1.228	0.129	0.092
-411.369	41.471	0.068	0.062
-410.355	163.755	0.150	-0.213
-409.340	71.663	-0.170	-0.178
-408.325	800.000	0.071	0.268
-407.311	-140.822	-0.310	0.032
-406.296	800.000	0.073	-0.244
-405.282	-200.000	-0.016	0.204
-404.267	-75.281	-0.253	-0.091
-403.252	-34.777	-0.098	-0.054
-402.238	84.294	0.197	-0.218
-401.223	-200.000	0.001	-0.058
-400.209	800.000	-0.061	0.216
-399.194	-200.000	0.013	-0.455
-398.179	-200.000	0.004	0.094
-397.165	683.028	0.094	0.247
-396.150	43.900	-0.116	0.108
-395.136	408.087	-0.037	-0.079
-394.121	-128.421	0.227	-0.033
-393.106	-100.707	-0.187	0.047
-392.092	-75.851	-0.141	0.050
-391.077	604.124	0.015	-0.039
-390.063	-200.000	0.009	-0.099
-389.048	-102.467	-0.047	-0.011
-388.033	-9.137	0.250	-0.169
-387.019	-200.000	-0.037	-0.379
-386.004	-43.122	0.258	-0.132
-384.990	-5.455	-0.213	0.147
-383.975	-48.810	0.122	-0.059
-382.960	-4.945	-0.213	-0.148
-381.946	106.196	0.021	-0.025
-380.931	-200.000	0.003	0.170
-379.917	-119.056	-0.172	0.030
-378.902	78.766	-0.179	-0.194
-377.888	476.921	-0.096	0.219
-376.873	-12.551	0.166	-0.109
-375.858	19.864	0.146	-0.119
-374.844	-88.468	0.313	0.094
-373.829	-200.000	-0.005	0.247
-372.815	-44.518	-0.302	0.153
-371.800	87.864	0.192	0.215
-370.785	-143.562	-0.312	0.030
-369.771	-200.000	0.007	0.407
-368.756	297.471	0.121	0.224
-367.742	191.024	0.077	0.117
-366.727	-99.407	-0.067	-0.017
-365.712	-110.555	-0.388	-0.081
-364.698	-46.428	-0.134	-0.066
-363.683	-200.000	0.004	0.073
-362.669	598.843	0.124	-0.311
-361.654	-200.000	-0.047	0.282
-360.639	-78.049	0.124	0.043
-359.625	-33.051	0.205	-0.115
-358.610	-113.819	0.034	-0.007
-357.596	-132.049	0.237	0.031
-356.581	-200.000	0.302	0.001
-355.566	800.000	-0.083	-0.249
-354.552	-45.239	-0.239	-0.120
-353.537	158.440	0.101	-0.141
-352.523	-106.156	0.120	-0.027
-351.508	463.129	-0.158	-0.356
-350.493	105.511	-0.147	-0.175
-349.479	-200.000	0.002	0.171
-348.464	452.641	0.089	0.200
-347.450	52.699	-0.120	0.116
-346.435	-200.000	0.029	-0.140
-345.420	266.197	0.089	-0.157
-344.406	-150.279	-0.070	-0.005
-343.391	-154.769	-0.099	0.007
-342.377	-200.000	-0.094	0.494
-341.362	197.437	-0.073	-0.112
-340.348	175.042	0.200	0.292
-339.333	-0.239	-0.223	-0.160
-338.318	-54.246	-0.174	-0.080
-337.304	-157.303	-0.159	-0.010
-336.289	71.812	-0.081	-0.085
-335.275	-119.603	0.076	-0.013
-334.260	-136.855	0.121	-0.014
-333.245	111.795	0.393	-0.477
-332.231	-32.545	0.332	-0.187
-331.216	667.137	0.056	0.147
-330.202	16.006	-0.175	0.139
-329.187	800.000	-0.027	-0.084
-328.172	-81.984	0.108	0.035
-327.158	-117.072	0.401	0.074
-326.143	-200.000	0.044	0.200
-325.129	-200.000	-0.003	0.393
-324.114	-47.626	0.156	0.076
-323.099	88.772	0.218	0.244
-322.085	-126.350	-0.190	-0.029
-321.070	-200.000	-0.020	-0.298
-320.056	-200.000	-0.007	0.244
-319.041	75.659	0.056	0.059
-318.026	-102.773	0.226	0.054
-317.012	32.614	-0.122	-0.106
-315.997	223.088	0.123	0.199
-314.983	79.100	0.102	-0.110
-313.968	-200.000	0.040	0.296
-312.953	-138.203	-0.334	0.037
-311.939	-106.947	-0.070	-0.016
-310.924	379.857	-0.026	0.053
-309.910	-104.251	-0.303	-0.071
-308.895	-200.000	-0.002	-0.061
-307.880	413.340	-0.055	-0.117
-306.866	-25.886	0.147	-0.087
-305.851	-200.000	-0.041	-0.300
-304.837	800.000	-0.067	0.247
-303.822	-51.539	-0.124	-0.058
-302.807	-85.411	-0.237	-0.074
-301.793	-131.084	-0.184	-0.025
-300.778	-90.687	-0.240	0.070
-299.764	-26.167	0.335	0.198
-298.749	-97.146	0.246	-0.065
-297.735	-200.000	-0.012	0.246
-296.720	181.562	-0.038	-0.057
-295.705	800.000	-0.053	0.198
-294.691	-200.000	-0.018	0.356
-293.676	264.418	-0.117	-0.205
-292.662	800.000	-0.040	-0.152
-291.647	-10.783	-0.058	0.039
-290.632	610.615	0.076	0.192
-289.618	102.301	0.331	0.389
-288.603	800.000	0.152	-0.439
-287.589	-76.113	0.327	-0.116
-286.574	-21.284	0.264	-0.162
-285.559	800.000	-0.058	0.162
-284.545	-96.587	-0.427	0.113
-283.530	-200.000	-0.009	-0.048
-282.516	16.096	0.072	0.057
-281.501	731.469	0.072	-0.193
-280.486	70.962	0.217	-0.226
-279.472	363.000	-0.238	0.481
-278.457	82.256	-0.143	-0.156
-277.443	-57.624	0.045	-0.020
-276.428	-144.448	-0.205	-0.019
-275.413	-200.000	-0.041	-0.213
-274.399	33.955	0.029	0.025
-273.384	9.246	0.230	-0.175
-272.370	-83.355	0.144	0.046
-271.355	-79.180	0.103	0.035
-270.340	-3.429	-0.234	-0.164
-269.326	236.645	0.142	-0.236
-268.311	350.687	-0.084	0.166
-267.297	59.933	0.101	0.100
-266.282	364.469	-0.143	0.289
-265.267	402.410	-0.094	-0.198
-264.253	-40.314	-0.293	0.153
-263.238	7.548	0.147	-0.110
-262.224	-200.000	-0.006	-0.072
-261.209	-99.938	-0.398	-0.100
-260.195	52.799	-0.165	-0.158
-259.180	224.619	-0.153	-0.249
-258.165	250.604	0.067	-0.114
-257.151	10.981	-0.226	-0.174
-256.136	-133.457	-0.256	-0.032
-255.122	75.003	0.028	0.029
-254.107	-200.000	-0.016	0.104
-253.092	42.775	0.347	-0.318
-252.078	150.429	-0.026	-0.035
-251.063	146.861	0.047	-0.063
-250.049	-95.400	-0.300	0.081
-249.034	10.127	-0.376	0.287
-248.019	476.089	-0.029	0.065
-247.005	753.208	-0.058	0.156
-245.990	-68.316	0.368	-0.143
-244.976	6.529	0.276	0.206
-243.961	-191.250	-0.139	0.001
-242.946	38.337	-0.074	-0.066
-241.932	270.673	0.071	0.125
-240.917	290.454	0.216	-0.394
-239.903	293.836	0.054	0.099
-238.888	-101.806	-0.282	-0.069
-237.873	-200.000	-0.044	-0.360
-236.859	38.601	0.160	-0.144
-235.844	142.841	-0.116	0.154
-234.830	-31.945	-0.228	0.128
-233.815	800.000	0.042	-0.136
-232.800	-200.000	-0.006	-0.093
-231.786	79.093	0.136	-0.147
-230.771	739.351	0.054	-0.147
-229.757	509.366	-0.075	-0.174
-228.742	-200.000	-0.032	0.207
-227.727	800.000	0.045	0.190
-226.713	-200.000	-0.007	-0.263
-225.698	800.000	-0.130	0.476
-224.684	-75.623	0.223	0.079
-223.669	-42.843	0.147	-0.075
-222.655	129.810	-0.119	-0.152
-221.640	602.606	-0.066	0.166
-220.625	353.497	0.209	-0.416
-219.611	128.487	-0.015	0.019
-218.596	-16.137	0.215	-0.137
-217.582	-76.743	-0.256	-0.090
-216.567	800.000	0.121	0.521
-215.552	-80.874	-0.113	0.038
-214.538	-32.605	0.110	-0.061
-213.523	236.072	-0.131	-0.217
-212.509	-200.000	-0.004	-0.344
-211.494	-53.793	-0.104	-0.048
-210.479	3.488	0.070	-0.051
-209.465	412.989	0.077	0.164
-208.450	44.844	-0.011	-0.010
-207.436	28.597	0.084	-0.072
-206.421	262.632	0.099	0.171
-205.406	86.503	-0.139	0.153
-204.392	108.915	0.087	-0.105
-203.377	-200.000	-0.107	0.541
-202.363	-108.531	0.176	0.038
-201.348	7.303	0.287	0.215
-200.333	107.184	-0.075	0.090
-199.319	-200.000	0.013	-0.304
-198.304	730.071	0.123	-0.329
-197.290	-5.118	-0.170	-0.117
-196.275	134.289	-0.105	0.136
-195.260	-92.139	0.250	-0.071
-194.246	-7.928	-0.046	-0.031
-193.231	-1.261	-0.127	0.090
-192.217	-30.910	-0.103	-0.058
-191.202	-147.594	0.170	0.014
-190.187	-200.000	0.026	-0.148
-189.173	-86.892	0.044	0.014
-188.158	-11.384	-0.176	0.116
-187.144	-7.196	0.347	0.236
-186.129	121.181	0.175	-0.219
-185.114	-29.364	0.217	0.125
-184.100	-108.113	-0.165	0.036
-183.085	7.864	-0.326	-0.244
-182.071	193.580	-0.052	-0.079
-181.056	-200.000	-0.047	-0.350
-180.042	170.001	0.084	-0.120
-179.027	593.928	-0.133	0.328
-178.012	91.502	-0.106	0.119
-176.998	-104.507	0.339	0.078
-175.983	-130.208	-0.156	-0.021
-174.969	-82.749	-0.303	-0.098
-173.954	-104.813	0.106	-0.024
-172.939	-71.834	-0.091	0.034
-171.925	250.006	0.064	0.108
-170.910	-79.803	0.475	0.160
-169.896	189.905	0.006	0.009
-168.881	-200.000	-0.006	0.076
-167.866	584.889	-0.084	0.207
-166.852	349.872	-0.062	-0.122
-165.837	-200.000	0.034	0.306
-164.823	-200.000	-0.008	-0.054
-163.808	-200.000	0.033	-0.160
-162.793	78.862	-0.262	-0.280
-161.779	800.000	-0.039	-0.137
-160.764	479.518	-0.097	-0.220
-159.750	382.549	-0.026	0.053
-158.735	-200.000	0.033	0.173
-157.720	312.394	0.133	0.250
-156.706	69.532	-0.143	0.148
-155.691	72.292	-0.218	-0.227
-154.677	453.653	-0.099	-0.220
-153.662	-200.000	-0.045	-0.359
-152.647	-22.649	0.238	0.144
-151.633	-54.559	0.246	0.111
-150.618	-200.000	-0.051	-0.232
-149.604	-200.000	0.024	-0.401
-148.589	13.068	0.090	-0.070
-147.574	-121.529	-0.177	0.029
-146.560	-86.553	-0.066	-0.020
-145.545	31.394	0.186	0.159
-144.531	-21.301	0.148	0.090
-143.516	-65.165	-0.259	-0.104
-142.502	71.954	-0.096	-0.100
-141.487	-125.824	-0.102	-0.015
-140.472	-36.093	-0.190	0.103
-139.458	16.239	0.019	-0.015
-138.443	22.139	-0.258	-0.210
-137.429	-187.135	0.288	0.004
-136.414	20.295	-0.150	-0.121
-135.399	800.000	0.018	-0.058
-134.385	586.540	0.095	0.233
-133.370	-66.360	-0.088	-0.035
-132.356	-200.000	0.011	0.063
-131.341	303.779	0.183	-0.339
-130.326	800.000	-0.049	-0.192
-129.312	800.000	-0.052	0.224
-128.297	-77.052	-0.321	0.112
-127.283	-9.318	0.107	-0.072
-126.268	421.953	0.105	-0.225
-125.253	3.338	0.167	0.121
-124.239	-31.647	-0.234	0.131
-123.224	800.000	0.074	0.236
-122.210	-18.762	-0.115	0.072
-121.195	64.715	-0.077	-0.078
-120.180	-175.141	-0.239	0.007
-119.166	171.475	-0.156	-0.224
-118.151	800.000	-0.078	-0.229
-117.137	13.050	-0.130	-0.101
-116.122	38.131	0.155	-0.138
-115.107	185.854	0.155	0.230
-114.093	735.886	-0.082	0.219
-113.078	49.146	-0.302	0.283
-112.064	452.046	-0.044	0.098
-111.049	-94.903	-0.430	-0.116
-110.034	-29.548	-0.231	0.132
-109.020	800.000	0.081	-0.257
-108.005	37.959	0.213	0.189
-106.991	800.000	0.147	-0.537
-105.976	-200.000	0.032	-0.164
-104.962	72.441	-0.161	0.167
-103.947	-130.096	0.518	-0.071
-102.932	-162.258	-0.294	0.015
-101.918	542.879	0.030	0.072
-100.903	549.111	0.077	0.185
-99.889	-200.000	-0.028	0.324
-98.874	-200.000	0.292	-0.001
-97.859	-31.684	-0.066	-0.037
-96.845	376.873	0.074	0.152
-95.830	-70.323	-0.255	0.096
-94.816	-9.330	0.070	-0.046
-93.801	77.616	0.088	0.093
-92.786	-200.000	0.006	-0.297
-91.772	-200.000	0.045	0.383
-90.757	800.000	-0.023	-0.089
-89.743	418.420	0.065	-0.138
-88.728	62.730	0.219	0.219
-87.713	31.334	-0.108	-0.092
-86.699	-189.110	0.130	-0.002
-85.684	541.659	0.111	-0.264
-84.670	-200.000	-0.058	0.308
-83.655	-113.161	0.338	0.066
-82.640	217.700	-0.276	-0.439
-81.626	800.000	-0.087	-0.268
-80.611	-78.028	0.191	-0.066
-79.597	-200.000	-0.021	-0.196
-78.582	-60.351	0.255	-0.108
-77.567	109.441	-0.132	0.158
-76.553	38.561	-0.285	0.253
-75.538	-22.132	-0.450	-0.272
-74.524	-47.345	0.374	-0.182
-73.509	-200.000	0.013	0.156
-72.494	252.058	0.037	-0.063
-71.480	110.758	-0.014	-0.017
-70.465	452.856	-0.102	0.226
-69.451	-117.739	0.138	-0.025
-68.436	-95.540	-0.052	-0.014
-67.422	84.220	0.124	0.135
-66.407	249.205	-0.154	0.259
-65.392	-71.511	0.475	0.177
-64.378	-200.000	-0.008	0.273
-63.363	534.939	-0.048	0.114
-62.349	-28.373	0.215	-0.124
-61.334	207.914	-0.695	-1.082
-60.319	206.129	0.095	-0.147
-59.305	-200.000	0.006	-0.763
-58.290	106.518	0.418	0.494
-57.276	672.533	0.754	1.949
-56.261	-200.000	74.920	547.145
-55.246	547.131	1325.784	3161.443
-54.232	143.693	2553.325	3390.226
-53.217	120.299	2237.400	2767.640
-52.203	54.519	1671.030	1604.628
-51.188	45.976	1388.625	1280.416
-50.173	42.212	1341.223	1213.921
-49.159	60.690	1375.769	1358.440
-48.144	68.901	1394.779	1427.182
-47.130	46.471	1356.834	1253.917
-46.115	42.079	1340.827	1212.564
-45.100	41.984	1335.646	1207.260
-44.086	41.911	1333.213	1204.571
-43.071	41.888	1330.897	1202.295
-42.057	41.800	1328.460	1199.518
-41.042	41.797	1326.849	1197.996
-40.027	41.890	1325.397	1197.192
-39.013	41.942	1323.160	1195.439
-37.998	41.903	1321.648	1193.790
-36.984	41.955	1319.872	1192.446
-35.969	42.111	1317.901	1191.550
-34.954	42.213	1316.127	1190.502
-33.940	42.068	1315.000	1188.573
-32.925	42.044	1313.421	1186.961
-31.911	42.008	1311.926	1185.348
-30.896	41.994	1310.353	1183.795
-29.881	42.018	1309.083	1182.742
-28.867	42.045	1307.386	1181.322
-27.852	42.068	1305.556	1179.757
-26.838	42.108	1303.964	1178.507
-25.823	42.117	1302.580	1177.266
-24.809	42.168	1301.166	1176.238
-23.794	42.034	1299.900	1174.262
-22.779	42.188	1298.438	1173.793
-21.765	42.125	1297.143	1172.212
-20.750	42.040	1295.876	1170.521
-19.736	41.883	1294.676	1168.476
-18.721	41.838	1293.617	1167.211
-17.706	42.025	1292.299	1167.063
-16.692	41.871	1291.269	1165.187
-15.677	42.023	1289.418	1164.356
-14.663	41.992	1288.616	1163.407
-13.648	41.925	1287.313	1161.798
-12.633	41.856	1286.644	1160.748
-11.619	41.932	1285.646	1160.239
-10.604	41.811	1284.991	1158.900
-9.590	41.916	1283.283	1157.923
-8.575	41.790	1282.646	1156.572
-7.560	41.882	1281.611	1156.128
-6.546	41.917	1280.732	1155.489
-5.531	41.905	1279.690	1154.434
-4.517	41.944	1279.014	1154.006
-3.502	42.017	1278.099	1153.552
-2.487	42.039	1276.916	1152.565
-1.473	42.233	1273.552	1150.596
-0.458	41.846	1260.225	1136.314
0.556	37.030	1242.059	1100.967
1.571	32.658	1244.742	1078.300
2.586	30.669	1258.165	1078.315
3.600	28.671	1246.694	1056.901
4.615	21.715	1171.310	955.133
5.629	11.020	1089.806	834.058
6.644	5.735	1065.652	788.956
7.659	5.243	1062.845	784.338
8.673	5.010	1061.637	782.206
9.688	4.925	1060.239	780.683
10.702	5.448	1059.038	782.348
11.717	11.330	1068.237	818.674
12.731	18.964	1078.389	864.922
13.746	19.745	1077.985	868.445
14.761	17.661	1074.595	855.192
15.775	16.369	1072.192	846.732
16.790	15.376	1070.001	839.959
17.804	14.682	1068.353	835.118
18.819	14.268	1067.495	832.306
19.834	13.878	1066.611	829.594
20.848	13.615	1065.429	827.291
21.863	13.465	1064.577	825.808
22.877	13.460	1063.589	824.940
23.892	13.334	1063.090	823.856
24.907	13.321	1062.438	823.212
25.921	13.386	1061.458	822.703
26.936	13.437	1060.114	821.841
27.950	13.364	1058.874	820.446
28.965	13.476	1057.012	819.484
29.980	13.452	1055.705	818.280
30.994	13.568	1054.630	817.948
32.009	13.579	1053.224	816.839
33.023	13.589	1052.265	816.069
34.038	13.513	1051.346	814.915
35.053	13.410	1050.582	813.744
36.067	13.552	1049.366	813.427
37.082	13.505	1048.710	812.615
38.096	13.364	1048.117	811.391
39.111	13.580	1047.231	811.694
40.126	13.535	1045.882	810.353
41.140	13.402	1044.608	808.645
42.155	13.306	1043.583	807.310
43.169	13.244	1042.614	806.190
44.184	13.221	1041.181	804.898
45.199	13.152	1040.614	804.051
46.213	13.279	1039.499	803.738
47.228	13.423	1038.102	803.285
48.242	13.350	1037.239	802.191
49.257	13.446	1036.230	801.804
50.271	13.424	1035.412	800.998
51.286	13.390	1034.439	800.009
52.301	13.416	1033.386	799.247
53.315	13.455	1032.140	798.402
54.330	13.332	1031.223	797.028
55.344	13.385	1030.414	796.590
56.359	13.341	1029.451	795.564
57.374	13.260	1028.849	794.638
58.388	13.382	1027.179	793.862
59.403	13.259	1026.493	792.671
60.417	13.215	1026.158	792.132
61.432	13.207	1025.571	791.571
62.447	13.197	1024.753	790.822
63.461	13.177	1023.568	789.743
64.476	13.100	1022.759	788.681
65.490	13.148	1022.162	788.380
66.505	13.113	1021.182	787.389
67.520	13.209	1020.638	787.353
68.534	13.210	1019.643	786.520
69.549	13.260	1018.971	786.169
70.563	13.207	1017.942	785.057
71.578	13.136	1017.151	784.043
72.593	13.067	1016.550	783.181
73.607	13.137	1015.627	782.730
74.622	13.117	1015.174	782.220
75.636	13.066	1014.903	781.699
76.651	13.064	1013.851	780.810
77.666	13.164	1012.914	780.492
78.680	13.122	1012.654	780.023
79.695	13.142	1011.934	779.494
80.709	13.160	1011.392	779.095
81.724	13.193	1010.814	778.736
82.739	13.365	1009.640	778.570
83.753	13.390	1009.286	778.348
84.768	13.431	1008.745	778.053
85.782	13.533	1007.413	777.435
86.797	13.555	1006.423	776.707
87.812	13.341	1005.888	775.222
88.826	13.426	1004.446	774.438
89.841	13.417	1003.623	773.696
90.855	13.515	1002.767	773.424
91.870	13.524	1001.959	772.772
92.884	13.513	1001.448	772.260
93.899	13.582	1000.328	771.649
94.914	13.621	999.540	771.155
95.928	13.598	998.781	770.396
96.943	13.535	997.867	769.326
97.957	13.533	996.919	768.523
98.972	13.582	995.715	767.752
99.987	13.654	995.036	767.494
101.001	13.538	994.351	766.360
102.016	13.490	993.460	765.383
103.030	13.554	992.373	764.774
104.045	13.519	992.017	764.269
105.060	13.521	991.046	763.465
106.074	13.512	989.995	762.547
107.089	13.338	988.905	760.838
108.103	13.344	988.000	760.103
109.118	13.283	987.435	759.322
110.133	13.289	986.270	758.384
111.147	13.330	985.145	757.639
112.162	13.344	984.749	757.334
113.176	13.344	984.048	756.728
114.191	13.540	982.933	756.699
115.206	13.371	982.613	755.613
116.220	13.398	981.767	755.018
117.235	13.302	980.857	753.813
118.249	13.378	979.533	753.078
119.264	13.376	979.165	752.716
120.279	13.344	978.420	751.934
121.293	13.353	977.801	751.430
122.308	13.223	977.105	750.238
123.322	13.243	975.709	749.194
124.337	13.272	974.733	748.510
125.352	13.278	973.524	747.541
126.366	13.268	972.752	746.837
127.381	13.265	971.777	746.007
128.395	13.320	970.578	745.268
129.410	13.274	969.913	744.486
130.424	13.456	968.756	744.352
131.439	13.427	968.432	743.907
132.454	13.450	967.351	743.110
133.468	13.586	966.773	743.212
134.483	13.468	966.208	742.184
135.497	13.412	965.260	741.138
136.512	13.539	964.179	740.809
137.527	13.657	963.292	740.593
138.541	13.508	962.818	739.495
139.556	13.485	961.997	738.698
140.570	13.698	961.221	738.987
141.585	13.780	960.516	738.745
142.600	13.769	959.686	737.993
143.614	13.802	958.625	737.257
144.629	13.811	958.400	737.058
145.643	13.740	957.314	735.842
146.658	13.637	956.421	734.633
147.673	13.591	955.371	733.559
148.687	13.548	954.358	732.526
149.702	13.568	953.385	731.803
150.716	13.555	952.673	731.133
151.731	13.574	951.588	730.319
152.746	13.415	951.590	729.556
153.760	13.487	950.816	729.216
154.775	13.677	949.974	729.342
155.789	13.658	949.204	728.603
156.804	13.691	948.423	728.085
157.819	13.671	948.160	727.731
158.833	13.711	947.292	727.173
159.848	13.720	946.335	726.416
160.862	13.743	945.445	725.768
161.877	13.764	944.194	724.835
162.892	13.697	943.171	723.696
163.906	13.645	942.395	722.807
164.921	13.664	941.779	722.353
165.935	13.554	941.497	721.596
166.950	13.609	940.449	720.965
167.964	13.777	939.418	720.842
168.979	13.563	938.656	719.264
169.994	13.664	937.567	718.807
171.008	13.813	936.955	718.920
172.023	13.784	936.280	718.212
173.037	13.919	935.526	718.153
174.052	13.758	934.791	716.828
175.067	13.702	934.378	716.208
176.081	13.558	933.677	714.985
177.096	13.812	932.856	715.388
178.110	13.744	932.129	714.474
179.125	13.802	931.546	714.215
180.140	13.802	931.185	713.874
181.154	13.768	930.858	713.415
182.169	13.989	929.778	713.471
183.183	13.940	929.722	713.158
184.198	13.904	929.006	712.387
185.213	14.058	928.101	712.292
186.227	14.014	927.252	711.387
187.242	14.033	926.852	711.098
188.256	14.008	926.438	710.613
189.271	14.162	925.449	710.450
190.286	13.948	924.309	708.597
191.300	13.679	923.924	707.094
192.315	13.691	923.140	706.482
193.329	13.722	922.955	706.411
194.344	13.758	922.685	706.295
195.359	13.949	921.321	706.000
196.373	13.960	920.666	705.483
197.388	13.934	920.738	705.365
198.402	14.102	919.909	705.380
199.417	14.248	919.128	705.335
200.432	14.242	918.656	704.886
201.446	14.100	918.550	704.142
202.461	14.377	917.679	704.582
203.475	14.158	917.658	703.578
204.490	14.218	916.192	702.645
205.504	14.140	915.735	701.903
206.519	14.174	914.867	701.320
207.534	14.012	914.420	700.233
208.548	14.175	913.887	700.447
209.563	14.083	913.471	699.682
210.577	14.300	912.142	699.514
211.592	14.328	911.486	699.064
212.607	14.362	910.839	698.649
213.621	14.434	910.028	698.266
214.636	14.268	909.686	697.249
215.650	14.336	908.901	696.869
216.665	14.384	908.286	696.537
217.680	14.481	907.446	696.237
218.694	14.361	907.150	695.447
219.709	14.457	906.181	695.041
220.723	14.517	905.357	694.601
221.738	14.435	904.663	693.662
222.753	14.622	903.675	693.624
223.767	14.550	903.587	693.196
224.782	14.661	903.037	693.171
225.796	14.625	902.244	692.354
226.811	14.681	901.800	692.181
227.826	14.506	901.159	690.905
228.840	14.541	900.184	690.242
229.855	14.509	899.473	689.501
230.869	14.415	898.781	688.520
231.884	14.452	897.977	688.000
232.899	14.494	897.482	687.730
233.913	14.566	896.493	687.208
234.928	14.500	895.787	686.337
235.942	14.449	895.410	685.776
236.957	14.467	894.815	685.331
237.972	14.522	894.422	685.199
238.986	14.341	894.091	684.141
240.001	14.563	893.294	684.382
241.015	14.536	892.495	683.599
242.030	14.647	891.739	683.411
243.045	14.600	891.669	683.106
244.059	14.583	890.980	682.449
245.074	14.606	890.098	681.806
246.088	14.583	889.451	681.156
247.103	14.664	888.733	680.877
248.117	14.716	888.455	680.816
249.132	14.894	887.740	680.931
250.147	14.975	887.002	680.634
251.161	15.132	886.162	680.567
252.176	14.915	885.879	679.409
253.190	15.042	885.428	679.521
254.205	15.062	884.484	678.816
255.220	15.137	883.844	678.566
256.234	15.067	883.451	677.924
257.249	15.237	882.331	677.690
258.263	15.159	882.022	677.080
259.278	15.165	881.170	676.388
260.293	15.224	880.903	676.362
261.307	15.242	880.060	675.725
262.322	15.229	879.277	675.015
263.336	15.098	879.144	674.326
264.351	15.308	878.032	674.257
265.366	15.381	877.469	674.057
266.380	15.244	877.388	673.386
267.395	15.188	875.970	672.015
268.409	15.375	875.122	672.050
269.424	15.262	874.544	671.096
270.439	15.265	873.601	670.326
271.453	15.114	873.476	669.565
272.468	15.196	872.924	669.413
273.482	15.107	872.577	668.732
274.497	15.170	871.515	668.109
275.512	15.308	870.934	668.155
276.526	15.351	870.523	667.950
277.541	15.288	870.527	667.647
278.555	15.361	869.700	667.243
279.570	15.496	868.653	666.915
280.585	15.626	867.689	666.631
281.599	15.332	867.264	665.082
282.614	15.312	866.627	664.454
283.628	15.381	866.180	664.328
284.643	15.409	865.363	663.750
285.657	15.255	865.166	662.933
286.672	15.490	863.994	662.906
287.687	15.518	863.293	662.419
288.701	15.527	862.982	662.158
289.716	15.611	862.435	662.011
290.730	15.501	861.768	661.006
291.745	15.521	861.149	660.552
292.760	15.562	860.814	660.395
293.774	15.662	860.065	660.154
294.789	15.609	859.612	659.543
295.803	15.561	858.755	658.637
296.818	15.643	857.844	658.204
297.833	15.619	857.470	657.763
298.847	15.634	856.575	657.077
299.862	15.493	856.843	656.671
300.876	15.638	855.959	656.505
301.891	15.807	855.120	656.462
302.906	15.782	854.695	655.981
303.920	15.885	853.997	655.787
304.935	15.846	853.869	655.479
305.949	15.830	853.024	654.710
306.964	15.867	852.119	654.101
307.979	15.928	851.696	653.956
308.993	15.983	851.311	653.817
310.008	15.815	850.625	652.578
311.022	15.993	850.115	652.821
312.037	15.820	849.668	651.749
313.052	15.899	849.124	651.582
314.066	15.729	848.460	650.356
315.081	15.807	847.610	649.949
316.095	15.758	847.381	649.525
317.110	15.686	847.072	648.953
318.125	15.879	846.447	649.162
319.139	15.828	845.414	648.116
320.154	15.874	845.282	648.135
321.168	15.877	844.725	647.660
322.183	15.990	844.143	647.591
323.197	15.916	843.815	646.999
324.212	15.890	843.788	646.819
325.227	15.953	842.444	645.975
326.241	15.924	842.079	645.527
327.256	15.967	841.587	645.258
328.270	15.945	840.889	644.581
329.285	15.876	840.363	643.858
330.300	15.988	839.350	643.451
331.314	16.045	839.362	643.622
332.329	15.977	838.883	642.937
333.343	16.099	838.351	642.938
334.358	16.125	837.583	642.391
335.373	16.116	837.618	642.327
336.387	16.041	837.532	641.919
337.402	16.281	836.917	642.304
338.416	16.228	836.478	641.707
339.431	16.267	836.082	641.494
340.446	16.185	835.978	641.047
341.460	16.388	835.534	641.421
342.475	16.536	834.728	641.305
343.489	16.412	834.320	640.468
344.504	16.439	834.110	640.351
345.519	16.442	833.569	639.891
346.533	16.423	832.712	639.103
347.548	16.382	832.757	638.925
348.562	16.236	831.752	637.549
349.577	16.352	831.194	637.504
350.592	16.271	830.693	636.758
351.606	16.324	829.890	636.284
352.621	16.352	829.011	635.657
353.635	16.371	828.301	635.131
354.650	16.369	828.016	634.847
355.665	16.460	827.315	634.594
356.679	16.565	826.400	634.232
357.694	16.450	826.178	633.572
358.708	16.497	825.854	633.443
359.723	16.407	825.182	632.538
360.738	16.443	824.321	631.955
361.752	16.475	823.802	631.621
362.767	16.628	823.490	631.898
363.781	16.641	822.918	631.452
364.796	16.687	822.377	631.151
365.810	16.758	822.322	631.319
366.825	16.829	821.533	630.919
367.840	16.819	821.163	630.544
368.854	16.894	820.820	630.504
369.869	16.690	820.503	629.445
370.883	16.819	819.659	629.222
371.898	16.835	819.619	629.195
372.913	16.948	818.927	629.026
373.927	16.859	818.282	628.147
374.942	16.799	818.178	627.787
375.956	16.868	817.892	627.767
376.971	16.967	817.079	627.456
377.986	17.049	816.642	627.367
379.000	17.083	816.189	627.090
380.015	16.995	815.782	626.396
381.029	17.024	815.220	626.015
382.044	16.989	814.789	625.501
383.059	17.209	813.825	625.517
384.073	17.084	813.659	624.871
385.088	16.943	813.043	623.824
386.102	16.927	812.546	623.330
387.117	16.982	811.832	622.930
388.132	17.101	811.025	622.691
389.146	16.986	810.580	621.874
390.161	17.038	810.474	621.927
391.175	17.125	810.315	622.070
392.190	17.149	809.106	621.173
393.205	17.131	808.429	620.532
394.219	17.035	808.326	620.050
395.234	17.017	808.191	619.825
396.248	16.968	807.617	619.150
397.263	16.990	807.108	618.786
398.278	17.060	806.812	618.760
399.292	16.937	806.476	617.997
400.307	16.981	805.917	617.676
401.321	17.024	805.327	617.323
402.336	16.882	804.905	616.433
403.350	17.082	804.388	616.708
404.365	17.034	804.288	616.403
405.380	17.441	803.318	617.081
406.394	17.311	803.110	616.395
407.409	17.389	802.656	616.275
408.423	17.352	802.536	615.995
409.438	17.351	802.398	615.828
410.453	17.494	801.689	615.748
411.467	17.468	801.233	615.250
412.482	17.652	800.605	615.377
413.496	17.625	800.249	614.952
414.511	17.413	800.274	614.150
415.526	17.393	800.044	613.849
416.540	17.621	798.842	613.693
417.555	17.631	798.681	613.550
418.569	17.576	798.151	612.891
419.584	17.508	798.056	612.518
420.599	17.581	797.545	612.337
421.613	87.673	1254.919	1342.158
422.628	74.631	1321.586	1342.296
