DTS Sentinel unit serial number:	SN413079Multiplexer serial number:	ORYXHardware model number:	OX4-SRSoftware version number:	ORYX F/W v4.00 Oryx Data Collector v3.7.2.0data status	okinstallation	princeton_trtdifferential loss correction	single-endedforward channel	channel 1reverse channel	N/Adate	2019/09/13time	09:22:35forward acquisition time	60.00reverse acquisition time	0.00gamma	496.2192k internal	0.2325k external	0.2325temperature offset calibration	1.0158default loss term (dB/km)	0.3790temperature slope calibration	1.0000multiplexer offset coefficient	1.0000multiplexer slope coefficient	1.0000fibre end	0.00T internal ref (°C)	29.25T ext. ref 1 (°C)	4.41T ext. ref 2 (°C)	26.26length (m)	temperature (°C)	Stokes	anti-Stokes-747.200	61.951	-0.029	0.029
-746.185	-34.413	-0.429	0.237
-745.171	-46.200	-0.211	-0.105
-744.156	359.706	0.039	0.078
-743.142	-199.296	0.187	-0.001
-742.127	180.295	-0.158	0.234
-741.112	-34.145	0.073	0.041
-740.098	-48.401	0.126	-0.061
-739.083	800.000	0.082	-0.274
-738.069	-71.121	-0.043	0.016
-737.054	-200.000	0.019	0.353
-736.039	-123.788	-0.282	-0.045
-735.025	133.916	0.147	0.192
-734.010	800.000	-0.014	0.038
-732.996	60.289	-0.097	-0.097
-731.981	-114.739	0.241	0.047
-730.966	172.046	0.155	-0.225
-729.952	649.070	-0.079	-0.205
-728.937	800.000	-0.054	-0.187
-727.923	166.664	0.134	-0.191
-726.908	72.471	-0.120	-0.126
-725.894	-200.000	0.020	-0.127
-724.879	-108.996	0.060	0.013
-723.864	129.838	-0.017	0.022
-722.850	-200.000	0.040	-0.263
-721.835	533.743	0.068	0.163
-720.821	30.251	0.109	0.094
-719.806	121.853	-0.094	0.119
-718.791	430.855	0.078	0.171
-717.777	365.842	-0.175	0.356
-716.762	800.000	-0.052	0.164
-715.748	20.460	-0.157	0.128
-714.733	800.000	-0.115	-0.339
-713.718	-200.000	0.024	0.138
-712.704	800.000	-0.087	0.267
-711.689	-136.039	-0.201	-0.024
-710.675	184.135	0.074	0.110
-709.660	129.229	-0.141	0.181
-708.645	-200.000	0.007	0.254
-707.631	15.076	0.236	-0.186
-706.616	139.956	0.093	0.124
-705.602	-98.293	-0.156	-0.040
-704.587	-30.293	0.209	0.120
-703.572	800.000	-0.085	0.345
-702.558	-94.935	0.154	0.042
-701.543	372.610	-0.111	-0.227
-700.529	371.500	0.081	-0.165
-699.514	800.000	-0.036	-0.113
-698.499	800.000	0.042	-0.122
-697.485	91.055	-0.171	0.194
-696.470	-200.000	-0.074	-0.332
-695.456	95.527	0.117	-0.134
-694.441	-200.000	0.059	-0.264
-693.426	351.813	-0.024	-0.047
-692.412	-89.636	-0.185	0.055
-691.397	-48.233	-0.220	-0.107
-690.383	116.622	-0.062	-0.077
-689.368	-116.357	-0.047	-0.009
-688.354	431.622	0.052	-0.114
-687.339	-100.085	0.188	0.047
-686.324	-5.398	-0.156	-0.108
-685.310	-126.236	0.171	0.026
-684.295	19.093	-0.177	0.143
-683.281	-200.000	0.009	0.185
-682.266	-6.982	-0.393	0.269
-681.251	-113.036	-0.270	0.054
-680.237	-99.063	-0.228	-0.058
-679.222	29.778	0.150	0.129
-678.208	-200.000	0.032	-0.236
-677.193	692.503	0.052	-0.137
-676.178	-200.000	-0.038	0.189
-675.164	-59.706	0.136	-0.059
-674.149	-46.519	-0.102	-0.050
-673.135	291.449	0.180	0.330
-672.120	88.252	0.131	0.146
-671.105	-100.701	-0.236	0.059
-670.091	21.861	-0.197	0.161
-669.076	800.000	0.056	0.233
-668.062	740.525	0.197	-0.531
-667.047	335.425	-0.173	-0.338
-666.032	-200.000	0.022	0.196
-665.018	136.239	0.189	0.247
-664.003	25.963	-0.180	-0.151
-662.989	-200.000	-0.116	0.550
-661.974	249.768	0.014	-0.023
-660.959	50.131	0.197	-0.187
-659.945	342.683	0.162	-0.318
-658.930	220.107	0.012	-0.019
-657.916	521.837	0.110	0.260
-656.901	-155.450	-0.241	0.016
-655.886	82.628	-0.266	-0.291
-654.872	-159.359	0.297	0.017
-653.857	-200.000	-0.005	0.152
-652.843	188.517	0.161	-0.242
-651.828	468.033	-0.153	-0.345
-650.814	291.244	0.083	-0.151
-649.799	-15.826	-0.135	0.086
-648.784	-200.000	0.007	0.124
-647.770	197.171	-0.188	-0.288
-646.755	-89.749	0.259	0.076
-645.741	234.108	-0.125	0.206
-644.726	416.665	-0.068	-0.145
-643.711	-36.955	-0.111	-0.060
-642.697	-111.420	0.268	-0.055
-641.682	23.348	0.162	0.134
-640.668	-127.928	-0.401	0.058
-639.653	800.000	0.146	0.431
-638.638	-12.715	-0.406	-0.266
-637.624	113.080	0.249	-0.304
-636.609	-200.000	0.019	-0.312
-635.595	-73.701	0.281	-0.103
-634.580	404.192	0.109	-0.231
-633.565	51.551	0.195	-0.186
-632.551	800.000	-0.043	-0.131
-631.536	176.854	0.050	-0.073
-630.522	-200.000	-0.030	-0.137
-629.507	-92.846	0.071	-0.020
-628.492	81.678	0.112	-0.122
-627.478	-200.000	-0.004	0.175
-626.463	800.000	0.043	0.121
-625.449	-27.412	0.125	0.073
-624.434	800.000	0.034	-0.136
-623.419	-130.706	-0.178	0.024
-622.405	-19.409	0.121	0.075
-621.390	-141.556	0.139	0.014
-620.376	81.155	0.081	0.088
-619.361	-200.000	-0.003	0.097
-618.346	117.326	0.083	0.102
-617.332	-83.737	-0.334	0.107
-616.317	-153.121	-0.225	0.016
-615.303	63.847	-0.167	0.168
-614.288	4.092	0.045	-0.033
-613.273	-12.329	-0.193	0.127
-612.259	-200.000	-0.025	-0.198
-611.244	-6.432	-0.198	-0.135
-610.230	-155.243	0.013	0.001
-609.215	-135.066	0.136	0.017
-608.201	-200.000	-0.001	0.140
-607.186	273.205	0.144	0.256
-606.171	-114.573	-0.062	-0.012
-605.157	214.187	-0.081	-0.129
-604.142	280.351	0.125	-0.224
-603.128	658.158	0.158	-0.407
-602.113	-137.314	-0.073	-0.008
-601.098	-9.299	0.183	0.123
-600.084	-126.902	0.143	0.021
-599.069	5.465	0.356	0.263
-598.055	-13.649	0.179	-0.116
-597.040	141.689	0.109	-0.146
-596.025	-200.000	-0.068	-0.392
-595.011	71.021	-0.229	0.238
-593.996	-127.166	0.150	-0.022
-592.982	-73.191	0.120	0.044
-591.967	-116.722	-0.387	-0.071
-590.952	-72.351	0.109	-0.040
-589.938	-17.488	-0.362	-0.228
-588.923	800.000	0.033	-0.111
-587.909	800.000	-0.078	0.232
-586.894	30.674	0.172	0.148
-585.879	-200.000	0.019	-0.150
-584.865	82.738	0.152	-0.166
-583.850	281.354	-0.071	-0.127
-582.836	661.861	0.166	-0.428
-581.821	-124.534	-0.104	-0.016
-580.806	46.275	0.176	-0.164
-579.792	-102.751	-0.296	-0.071
-578.777	215.504	0.046	0.074
-577.763	-5.728	0.402	-0.276
-576.748	-39.739	0.091	-0.048
-575.733	-33.145	0.369	0.205
-574.719	800.000	0.146	-0.475
-573.704	30.063	-0.444	-0.380
-572.690	-200.000	-0.053	-0.343
-571.675	204.936	-0.067	-0.104
-570.661	56.406	-0.103	0.101
-569.646	324.291	-0.034	0.064
-568.631	800.000	-0.077	-0.258
-567.617	7.982	0.235	0.176
-566.602	627.583	-0.066	0.168
-565.588	800.000	0.029	-0.114
-564.573	237.341	-0.065	-0.108
-563.558	800.000	-0.022	0.076
-562.544	800.000	0.018	0.056
-561.529	46.085	-0.046	-0.042
-560.515	45.787	0.139	-0.129
-559.500	-200.000	-0.007	0.193
-558.485	-11.113	-0.224	-0.148
-557.471	188.732	0.151	0.226
-556.456	-200.000	-0.070	0.436
-555.442	-177.859	-0.033	-0.001
-554.427	123.833	-0.235	-0.296
-553.412	67.306	0.075	-0.076
-552.398	-79.248	-0.220	0.075
-551.383	-7.102	-0.205	0.139
-550.369	-116.198	-0.356	-0.066
-549.354	-102.783	-0.100	-0.024
-548.339	288.019	0.109	-0.198
-547.325	-22.050	-0.388	-0.236
-546.310	64.330	-0.116	-0.117
-545.296	-200.000	0.000	0.174
-544.281	-148.529	-0.092	-0.008
-543.266	34.384	-0.280	-0.245
-542.252	-105.105	0.317	-0.073
-541.237	-152.100	-0.189	0.014
-540.223	-200.000	0.039	0.529
-539.208	800.000	0.115	-0.326
-538.193	67.600	-0.239	0.244
-537.179	-200.000	-0.005	0.076
-536.164	800.000	0.055	0.196
-535.150	200.317	-0.103	0.159
-534.135	-200.000	0.001	0.137
-533.121	89.864	0.030	-0.034
-532.106	-85.707	-0.303	-0.094
-531.091	29.625	0.229	0.195
-530.077	-62.775	-0.153	0.064
-529.062	582.648	-0.077	0.190
-528.048	142.506	0.077	-0.102
-527.033	797.531	-0.051	0.141
-526.018	277.220	-0.191	0.340
-525.004	-25.555	-0.331	0.196
-523.989	160.723	-0.218	0.305
-522.975	30.215	-0.086	0.074
-521.960	-200.000	-0.033	-0.206
-520.945	-200.000	-0.024	0.129
-519.931	-200.000	0.079	0.369
-518.916	143.594	-0.069	-0.091
-517.902	-71.805	0.184	0.069
-516.887	146.508	-0.196	0.263
-515.872	800.000	0.081	0.291
-514.858	800.000	0.030	-0.115
-513.843	183.545	-0.103	-0.152
-512.829	343.503	0.046	-0.090
-511.814	-86.525	-0.283	-0.087
-510.799	-62.283	0.305	0.127
-509.785	-63.478	0.154	0.063
-508.770	26.353	-0.116	0.097
-507.756	-200.000	0.003	0.047
-506.741	-166.573	0.159	0.007
-505.726	-200.000	-0.004	-0.094
-504.712	800.000	-0.029	0.111
-503.697	-1.276	0.063	0.044
-502.683	-45.839	-0.038	0.019
-501.668	627.937	-0.120	0.304
-500.653	-131.141	0.125	0.017
-499.639	171.427	-0.187	0.268
-498.624	-147.527	0.320	0.027
-497.610	266.239	-0.077	0.134
-496.595	339.119	0.104	0.203
-495.581	-104.347	-0.417	-0.097
-494.566	-49.788	0.140	-0.067
-493.551	-26.835	-0.114	-0.067
-492.537	559.436	0.145	-0.350
-491.522	800.000	-0.087	-0.345
-490.508	-105.963	0.229	0.051
-489.493	15.240	0.045	0.035
-488.478	-60.913	-0.095	0.040
-487.464	-200.000	-0.027	-0.236
-486.449	-168.770	-0.451	0.017
-485.435	-92.369	0.491	-0.138
-484.420	339.663	0.024	-0.047
-483.405	568.151	0.066	-0.161
-482.391	-92.480	-0.204	-0.057
-481.376	-17.596	-0.148	-0.093
-480.362	-92.017	0.235	-0.066
-479.347	-63.611	-0.462	0.189
-478.332	-12.370	-0.215	-0.141
-477.318	800.000	0.107	-0.334
-476.303	-200.000	-0.028	-0.326
-475.289	800.000	-0.082	-0.266
-474.274	800.000	0.027	-0.075
-473.259	-200.000	-0.003	-0.294
-472.245	688.584	0.018	0.047
-471.230	103.239	0.157	-0.184
-470.216	-5.366	0.213	0.146
-469.201	-200.000	-0.014	0.157
-468.186	800.000	-0.018	-0.061
-467.172	800.000	0.059	-0.190
-466.157	-126.793	0.189	0.028
-465.143	-101.133	-0.323	0.079
-464.128	-32.409	-0.059	-0.033
-463.113	219.128	0.034	0.054
-462.099	-200.000	0.012	0.222
-461.084	14.602	0.266	0.207
-460.070	-72.942	-0.172	-0.063
-459.055	377.816	0.233	-0.475
-458.040	-200.000	-0.004	-0.201
-457.026	-200.000	0.006	0.127
-456.011	452.422	0.051	0.112
-454.997	-200.000	-0.000	0.187
-453.982	388.589	-0.040	0.082
-452.968	-159.759	0.034	-0.002
-451.953	488.898	-0.063	-0.144
-450.938	-103.499	0.125	0.029
-449.924	-25.895	-0.204	-0.120
-448.909	48.973	0.137	0.128
-447.895	-52.668	0.264	0.122
-446.880	-110.551	-0.216	0.045
-445.865	-200.000	-0.006	0.046
-444.851	240.296	0.184	0.307
-443.836	138.498	0.107	0.140
-442.822	191.008	-0.032	0.048
-441.807	-24.876	-0.060	-0.036
-440.792	-73.694	-0.368	-0.134
-439.778	-14.281	-0.148	0.095
-438.763	800.000	-0.068	0.206
-437.749	-200.000	-0.017	0.181
-436.734	800.000	0.067	-0.220
-435.719	-81.976	-0.229	-0.075
-434.705	-35.679	-0.057	0.031
-433.690	294.434	0.065	-0.119
-432.676	-200.000	0.007	-0.320
-431.661	371.696	0.092	-0.187
-430.646	800.000	0.088	0.289
-429.632	-128.431	-0.069	0.010
-428.617	39.101	0.268	-0.239
-427.603	141.558	-0.068	0.089
-426.588	-87.248	-0.208	0.063
-425.573	0.472	0.280	-0.199
-424.559	35.757	0.166	-0.146
-423.544	-91.579	0.123	0.035
-422.530	-29.158	0.101	0.057
-421.515	-179.422	-0.275	0.006
-420.500	-200.000	0.003	0.061
-419.486	-23.084	0.302	-0.181
-418.471	-200.000	-0.038	-0.227
-417.457	-92.530	-0.308	-0.086
-416.442	-82.308	-0.131	0.043
-415.428	-69.156	0.180	-0.069
-414.413	-109.296	-0.352	0.074
-413.398	295.282	0.062	0.113
-412.384	800.000	0.073	-0.292
-411.369	-68.512	0.443	-0.171
-410.355	800.000	0.019	-0.063
-409.340	-153.366	0.196	0.014
-408.325	0.355	-0.162	-0.116
-407.311	405.149	-0.105	-0.219
-406.296	-0.078	-0.146	-0.104
-405.282	380.254	-0.087	0.178
-404.267	358.073	-0.049	0.098
-403.252	458.355	-0.112	0.248
-402.238	800.000	0.015	-0.047
-401.223	372.725	0.149	-0.302
-400.209	-144.872	0.168	0.015
-399.194	21.476	0.208	-0.168
-398.179	17.121	-0.070	0.056
-397.165	0.978	0.283	-0.202
-396.150	256.417	-0.127	-0.217
-395.136	225.986	0.102	0.165
-394.121	-200.000	-0.013	0.057
-393.106	416.586	-0.093	0.197
-392.092	-200.000	0.013	-0.071
-391.077	10.199	0.349	0.264
-390.063	-200.000	-0.012	-0.208
-389.048	100.560	0.079	0.092
-388.033	800.000	-0.098	0.330
-387.019	397.288	-0.117	-0.244
-386.004	-83.356	0.229	-0.073
-384.990	800.000	0.062	-0.240
-383.975	-113.146	-0.327	-0.064
-382.960	-200.000	-0.000	0.135
-381.946	464.498	-0.060	-0.134
-380.931	-94.602	0.052	0.014
-379.917	-73.906	0.120	0.044
-378.902	55.878	0.076	-0.073
-377.888	299.695	-0.306	-0.561
-376.873	-135.230	-0.113	0.013
-375.858	182.469	-0.182	-0.267
-374.844	-7.470	0.099	0.067
-373.829	179.322	0.122	0.177
-372.815	-39.987	-0.429	0.223
-371.800	-200.000	-0.004	-0.144
-370.785	37.296	-0.230	0.202
-369.771	-200.000	0.017	0.173
-368.756	800.000	-0.022	-0.072
-367.742	-110.335	-0.120	-0.025
-366.727	50.881	-0.093	-0.087
-365.712	-25.711	-0.242	-0.142
-364.698	-42.935	0.078	0.039
-363.683	-200.000	0.030	0.287
-362.669	800.000	0.021	-0.073
-361.654	-27.140	0.104	-0.060
-360.639	-200.000	0.039	0.223
-359.625	79.926	0.207	0.222
-358.610	-144.597	-0.243	-0.022
-357.596	-125.941	0.098	-0.015
-356.581	-113.229	-0.026	-0.005
-355.566	-57.880	-0.479	0.208
-354.552	12.427	0.106	-0.081
-353.537	-11.851	-0.246	0.161
-352.523	-131.681	-0.367	0.048
-351.508	800.000	-0.024	0.072
-350.493	628.813	-0.021	0.054
-349.479	-16.213	-0.186	0.117
-348.464	-29.220	0.358	-0.204
-347.450	14.947	-0.044	-0.034
-346.435	-107.818	-0.428	-0.093
-345.420	-19.629	0.205	-0.126
-344.406	-102.821	0.070	0.017
-343.391	-53.702	-0.225	0.102
-342.377	-200.000	0.009	0.402
-341.362	-47.821	-0.267	0.128
-340.348	-133.947	-0.100	-0.012
-339.333	-56.461	-0.185	-0.081
-338.318	-168.971	0.317	-0.012
-337.304	26.800	-0.188	-0.156
-336.289	-56.765	-0.049	0.022
-335.275	-97.436	0.241	-0.062
-334.260	178.617	0.023	-0.034
-333.245	6.304	-0.188	0.139
-332.231	800.000	0.032	-0.106
-331.216	-63.265	0.062	-0.025
-330.202	-14.435	0.249	-0.159
-329.187	-200.000	0.001	0.124
-328.172	-138.450	-0.225	0.025
-327.158	15.483	0.124	0.096
-326.143	2.776	0.131	0.095
-325.129	115.011	0.221	0.267
-324.114	-200.000	-0.031	0.158
-323.099	253.083	-0.090	-0.152
-322.085	-82.396	0.117	0.038
-321.070	-70.344	0.042	-0.016
-320.056	-104.215	0.434	0.100
-319.041	800.000	-0.010	-0.030
-318.026	800.000	-0.007	0.024
-317.012	-18.596	0.311	0.193
-315.997	800.000	-0.048	0.167
-314.983	-133.081	-0.158	0.020
-313.968	28.870	-0.079	-0.067
-312.953	-200.000	-0.016	-0.159
-311.939	547.504	-0.090	0.215
-310.924	800.000	0.028	0.101
-309.910	800.000	-0.060	-0.218
-308.895	-76.908	-0.235	0.081
-307.880	-200.000	0.025	-0.141
-306.866	-129.620	0.228	0.031
-305.851	-64.889	-0.291	-0.117
-304.837	-200.000	-0.044	0.274
-303.822	-58.398	-0.149	0.064
-302.807	559.432	-0.060	-0.144
-301.793	-39.241	-0.486	0.253
-300.778	-200.000	0.034	0.365
-299.764	-100.625	-0.252	0.062
-298.749	-20.768	-0.211	0.128
-297.735	225.882	0.171	0.275
-296.720	-83.028	0.177	-0.057
-295.705	-200.000	0.008	0.319
-294.691	215.337	-0.228	0.359
-293.676	-200.000	-0.021	-0.377
-292.662	-71.903	0.210	-0.077
-291.647	699.030	0.092	0.240
-290.632	131.411	0.211	-0.269
-289.618	-114.602	-0.117	-0.022
-288.603	-49.156	0.072	-0.034
-287.589	1.291	-0.270	0.192
-286.574	800.000	0.044	-0.164
-285.559	-60.210	0.395	-0.167
-284.545	-97.193	0.312	-0.081
-283.530	62.009	-0.287	-0.283
-282.516	11.964	-0.199	-0.152
-281.501	-160.974	0.278	0.014
-280.486	-200.000	-0.007	-0.100
-279.472	-95.827	0.167	-0.044
-278.457	-151.390	0.144	-0.011
-277.443	-200.000	-0.046	0.211
-276.428	93.278	0.094	-0.106
-275.413	-101.382	0.342	-0.083
-274.399	-112.070	-0.139	0.028
-273.384	-200.000	-0.012	0.075
-272.370	-147.910	-0.133	-0.011
-271.355	-200.000	0.021	0.120
-270.340	800.000	0.036	-0.125
-269.326	103.979	0.196	-0.228
-268.311	800.000	0.044	0.146
-267.297	-143.354	-0.394	0.037
-266.282	-161.614	-0.162	0.008
-265.267	-129.632	-0.311	0.043
-264.253	217.604	-0.110	0.173
-263.238	-115.335	-0.434	0.081
-262.224	-6.605	-0.355	-0.239
-261.209	-67.708	0.205	0.079
-260.195	-16.484	-0.191	-0.120
-259.180	800.000	0.067	-0.206
-258.165	-68.533	-0.381	0.146
-257.151	782.749	-0.088	-0.238
-256.136	149.361	0.224	-0.300
-255.122	-29.740	0.193	-0.109
-254.107	-40.717	0.330	0.169
-253.092	121.084	-0.040	-0.049
-252.078	-10.425	-0.110	0.072
-251.063	-71.092	0.149	-0.055
-250.049	-200.000	0.037	0.193
-249.034	-200.000	-0.021	0.237
-248.019	-200.000	-0.007	0.280
-247.005	-59.393	-0.163	-0.069
-245.990	-119.363	-0.083	-0.014
-244.976	-200.000	0.005	0.172
-243.961	-200.000	-0.029	0.255
-242.946	-200.000	-0.010	0.153
-241.932	536.082	-0.091	-0.214
-240.917	-22.390	-0.140	0.084
-239.903	50.789	0.143	0.134
-238.888	-158.944	0.278	-0.016
-237.873	-13.786	0.292	-0.187
-236.859	40.474	-0.228	0.203
-235.844	-54.222	0.409	-0.184
-234.830	515.960	0.062	-0.143
-233.815	681.772	0.136	-0.350
-232.800	-199.009	0.313	-0.002
-231.786	800.000	0.066	0.182
-230.771	800.000	0.053	0.164
-229.757	-14.687	-0.194	0.123
-228.742	-148.160	0.200	-0.016
-227.727	-54.539	0.352	0.158
-226.713	-41.224	-0.124	0.063
-225.698	-10.892	0.161	0.105
-224.684	-2.441	0.113	0.079
-223.669	-112.369	-0.137	0.027
-222.655	-200.000	0.009	0.209
-221.640	-21.629	0.269	0.162
-220.625	800.000	-0.058	0.191
-219.611	-68.733	0.087	-0.033
-218.596	-104.729	0.056	0.013
-217.582	-67.209	0.401	-0.156
-216.567	-149.700	-0.209	0.016
-215.552	-28.625	-0.269	-0.153
-214.538	701.780	0.108	0.281
-213.523	-81.164	-0.076	0.025
-212.509	-200.000	0.027	0.125
-211.494	-162.703	0.310	0.015
-210.479	-136.128	0.037	0.004
-209.465	200.411	-0.085	-0.128
-208.450	-200.000	-0.010	0.139
-207.436	-200.000	0.031	0.238
-206.421	-77.122	0.221	0.076
-205.406	-200.000	0.002	0.160
-204.392	128.760	-0.057	0.072
-203.377	-13.325	0.273	0.175
-202.363	-137.834	0.244	0.027
-201.348	76.366	-0.058	0.060
-200.333	-0.125	-0.156	0.110
-199.319	224.157	0.109	0.174
-198.304	-26.532	0.286	0.165
-197.290	-130.117	-0.343	-0.046
-196.275	-124.199	0.174	-0.027
-195.260	-185.819	0.154	0.002
-194.246	-117.231	0.440	0.079
-193.231	-133.095	-0.090	-0.011
-192.217	242.585	0.121	-0.200
-191.202	71.754	-0.287	0.294
-190.187	5.690	0.347	0.253
-189.173	219.556	0.125	0.197
-188.158	-120.029	-0.266	-0.045
-187.144	69.151	0.126	-0.128
-186.129	6.677	-0.151	-0.111
-185.114	-6.578	0.215	0.145
-184.100	380.872	0.167	0.339
-183.085	104.196	-0.121	-0.141
-182.071	-102.341	-0.256	-0.061
-181.056	79.208	0.176	0.186
-180.042	-80.057	-0.058	0.019
-179.027	32.404	0.128	0.109
-178.012	4.211	0.102	-0.073
-176.998	63.559	0.065	-0.064
-175.983	-55.763	-0.205	-0.091
-174.969	767.397	0.096	0.259
-173.954	-200.000	-0.039	-0.185
-172.939	45.887	0.084	0.077
-171.925	147.055	-0.078	0.104
-170.910	800.000	-0.076	-0.318
-169.896	68.590	0.036	-0.037
-168.881	800.000	0.098	-0.270
-167.866	-200.000	0.044	-0.231
-166.852	-165.868	0.376	0.016
-165.837	-98.627	-0.151	0.038
-164.823	-90.878	0.210	-0.060
-163.808	-23.056	-0.138	0.082
-162.793	-94.525	0.086	0.023
-161.779	800.000	-0.016	0.056
-160.764	-200.000	0.095	-0.475
-159.750	-72.569	0.035	-0.013
-158.735	-62.771	-0.112	-0.046
-157.720	281.826	0.180	-0.318
-156.706	739.435	0.047	-0.124
-155.691	142.470	0.053	-0.069
-154.677	490.351	-0.024	0.055
-153.662	5.221	0.125	0.091
-152.647	-152.381	0.099	0.007
-151.633	169.792	-0.234	-0.330
-150.618	-90.741	-0.172	-0.049
-149.604	76.297	-0.229	0.239
-148.589	156.412	-0.116	0.158
-147.574	800.000	0.039	-0.125
-146.560	800.000	-0.032	-0.090
-145.545	70.741	-0.276	-0.281
-144.531	149.429	0.150	0.200
-143.516	23.455	0.167	0.136
-142.502	55.063	0.232	0.221
-141.487	-200.000	0.026	-0.374
-140.472	127.355	0.027	-0.034
-139.458	-200.000	0.023	0.103
-138.443	24.386	0.180	0.146
-137.429	800.000	0.051	-0.200
-136.414	124.232	0.131	-0.162
-135.399	-200.000	0.039	0.261
-134.385	124.508	0.115	0.142
-133.370	-135.088	-0.173	0.021
-132.356	-200.000	0.041	-0.196
-131.341	-74.362	-0.167	-0.059
-130.326	-200.000	0.008	-0.100
-129.312	59.077	0.169	-0.164
-128.297	-79.156	0.236	0.079
-127.283	-32.317	0.289	-0.159
-126.268	-144.338	0.081	-0.007
-125.253	50.245	-0.199	-0.185
-124.239	-131.386	0.271	0.035
-123.224	800.000	-0.030	-0.088
-122.210	-109.185	0.301	-0.063
-121.195	-200.000	0.020	0.220
-120.180	264.255	-0.203	0.347
-119.166	-200.000	-0.011	-0.197
-118.151	126.846	-0.099	-0.123
-117.137	215.744	0.099	0.155
-116.122	627.560	-0.040	-0.100
-115.107	-200.000	0.048	-0.259
-114.093	-58.239	-0.237	-0.101
-113.078	175.650	-0.145	0.208
-112.064	-142.349	-0.311	0.030
-111.049	-36.763	-0.214	0.113
-110.034	-200.000	0.024	0.301
-109.020	259.724	0.097	0.166
-108.005	-7.820	-0.119	-0.079
-106.991	144.490	0.096	0.126
-105.976	800.000	0.076	-0.237
-104.962	-20.375	0.040	-0.024
-103.947	-200.000	0.009	0.098
-102.932	720.637	0.151	0.395
-101.918	-200.000	0.022	0.128
-100.903	-113.375	0.216	0.042
-99.889	-200.000	-0.003	-0.031
-98.874	404.682	0.189	-0.392
-97.859	-174.793	0.247	0.007
-96.845	28.212	0.247	-0.205
-95.830	-117.080	-0.390	-0.070
-94.816	-100.173	0.098	-0.024
-93.801	112.743	-0.099	0.117
-92.786	-200.000	-0.016	-0.152
-91.772	-157.971	0.490	-0.028
-90.757	-40.455	-0.062	-0.032
-89.743	-200.000	-0.030	-0.176
-88.728	-73.385	0.128	-0.046
-87.713	-102.558	-0.201	-0.047
-86.699	-6.418	0.091	-0.061
-85.684	553.302	-0.014	0.034
-84.670	-39.790	0.108	-0.056
-83.655	-119.963	0.346	0.058
-82.640	88.660	0.142	-0.155
-81.626	-93.739	0.111	-0.030
-80.611	46.233	-0.140	0.128
-79.597	-176.064	0.024	0.001
-78.582	-48.162	0.161	0.077
-77.567	-0.753	-0.186	0.130
-76.553	-65.642	-0.229	0.090
-75.538	-200.000	0.006	0.222
-74.524	-8.474	0.129	-0.086
-73.509	588.262	-0.077	0.187
-72.494	-86.738	0.250	-0.075
-71.480	70.838	0.041	-0.042
-70.465	399.805	0.103	-0.211
-69.451	-81.406	-0.048	0.016
-68.436	-96.990	0.155	0.040
-67.422	-101.010	0.124	-0.030
-66.407	38.937	-0.255	0.224
-65.392	-57.603	-0.300	-0.129
-64.378	-82.422	-0.244	0.078
-63.363	-52.820	0.158	0.071
-62.349	-78.396	0.388	0.131
-61.334	75.430	-0.795	-0.824
-60.319	31.091	0.393	0.331
-59.305	783.527	-0.487	-1.312
-58.290	579.837	0.607	1.461
-57.276	345.266	0.915	1.765
-56.261	-200.000	105.252	588.131
-55.246	509.963	1483.182	3387.392
-54.232	177.073	2687.605	3841.901
-53.217	111.951	2172.578	2577.477
-52.203	41.008	1609.763	1427.560
-51.188	32.617	1344.731	1141.891
-50.173	29.539	1303.661	1088.854
-49.159	53.834	1356.694	1279.883
-48.144	54.213	1372.118	1296.659
-47.130	32.802	1327.479	1128.169
-46.115	29.402	1309.805	1093.003
-45.100	29.258	1304.650	1087.809
-44.086	29.213	1302.446	1085.664
-43.071	29.136	1299.992	1083.118
-42.057	29.056	1298.087	1081.022
-41.042	29.119	1295.823	1079.458
-40.027	29.074	1294.758	1078.269
-39.013	29.132	1291.773	1076.078
-37.998	29.135	1290.474	1074.970
-36.984	29.185	1289.063	1074.043
-35.969	29.243	1286.929	1072.564
-34.954	29.220	1285.222	1070.960
-33.940	29.240	1284.365	1070.323
-32.925	29.285	1282.631	1069.096
-31.911	29.313	1281.734	1068.465
-30.896	29.353	1280.220	1067.396
-29.881	29.411	1278.585	1066.325
-28.867	29.313	1277.603	1064.896
-27.852	29.414	1275.487	1063.672
-26.838	29.421	1274.270	1062.660
-25.823	29.436	1272.961	1061.612
-24.809	29.389	1271.832	1060.356
-23.794	29.206	1271.386	1058.888
-22.779	29.326	1269.394	1057.878
-21.765	29.360	1268.238	1057.069
-20.750	29.293	1266.813	1055.455
-19.736	29.213	1265.536	1053.890
-18.721	29.237	1264.058	1052.753
-17.706	29.181	1263.331	1051.786
-16.692	29.251	1262.127	1051.143
-15.677	29.299	1260.426	1049.957
-14.663	29.219	1259.889	1049.014
-13.648	29.155	1258.643	1047.571
-12.633	29.281	1257.586	1047.367
-11.619	29.168	1256.925	1046.131
-10.604	29.203	1256.152	1045.646
-9.590	29.251	1254.691	1044.660
-8.575	29.189	1253.960	1043.658
-7.560	29.203	1253.044	1042.931
-6.546	29.069	1252.556	1041.730
-5.531	29.145	1251.577	1041.301
-4.517	29.220	1250.570	1040.849
-3.502	29.229	1249.538	1039.996
-2.487	29.166	1248.881	1039.051
-1.473	29.182	1244.844	1035.746
-0.458	28.094	1230.322	1017.570
0.556	26.514	1213.342	980.824
1.571	23.013	1219.038	966.240
2.586	22.000	1233.047	971.654
3.600	20.835	1221.345	955.959
4.615	15.907	1149.256	873.939
5.629	8.275	1076.508	781.313
6.644	4.743	1057.474	750.422
7.659	4.408	1055.054	747.026
8.673	4.248	1053.833	745.330
9.688	4.252	1052.156	744.097
10.702	4.851	1050.589	745.790
11.717	9.780	1057.779	774.541
12.731	17.645	1068.933	820.661
13.746	21.567	1073.483	843.006
14.761	21.883	1073.736	844.654
15.775	21.208	1072.078	840.029
16.790	20.300	1069.727	833.753
17.804	19.658	1068.430	829.586
18.819	19.309	1067.554	827.157
19.834	19.343	1066.725	826.608
20.848	19.124	1066.080	824.982
21.863	19.003	1065.100	823.575
22.877	18.871	1064.692	822.551
23.892	18.776	1063.756	821.302
24.907	18.741	1063.563	820.915
25.921	18.822	1062.092	820.095
26.936	18.886	1060.142	818.819
27.950	18.736	1059.561	817.581
28.965	18.852	1057.943	816.813
29.980	19.180	1056.162	816.921
30.994	19.252	1055.462	816.651
32.009	19.285	1054.198	815.759
33.023	19.106	1053.620	814.392
34.038	19.152	1052.418	813.606
35.053	18.924	1051.672	811.881
36.067	18.841	1050.609	810.598
37.082	19.014	1049.979	810.857
38.096	19.224	1049.289	811.238
39.111	19.078	1049.002	810.260
40.126	18.811	1047.389	807.684
41.140	18.519	1045.800	805.018
42.155	18.428	1044.151	803.249
43.169	18.457	1043.335	802.687
44.184	18.432	1042.206	801.629
45.199	18.444	1041.356	800.962
46.213	18.579	1040.930	801.195
47.228	18.737	1040.327	801.398
48.242	18.816	1038.947	800.633
49.257	18.884	1037.821	800.010
50.271	18.878	1037.453	799.626
51.286	18.999	1036.916	799.707
52.301	18.995	1034.904	798.065
53.315	18.931	1034.088	797.066
54.330	18.615	1032.824	794.558
55.344	18.626	1032.275	794.119
56.359	18.637	1031.533	793.527
57.374	18.563	1030.736	792.501
58.388	18.438	1029.736	791.088
59.403	18.426	1028.601	790.092
60.417	18.377	1028.370	789.615
61.432	18.385	1027.789	789.137
62.447	18.451	1026.267	788.201
63.461	18.162	1026.176	786.734
64.476	18.280	1024.596	785.995
65.490	18.238	1024.137	785.380
66.505	18.205	1023.667	784.797
67.520	18.232	1023.074	784.398
68.534	18.341	1022.113	784.092
69.549	18.244	1021.165	782.853
70.563	18.142	1020.235	781.602
71.578	17.948	1019.379	779.993
72.593	17.919	1018.659	779.237
73.607	17.977	1018.042	778.961
74.622	18.107	1017.637	779.176
75.636	18.102	1016.836	778.473
76.651	18.133	1016.356	778.178
77.666	18.135	1015.687	777.605
78.680	18.232	1014.827	777.317
79.695	18.235	1014.378	776.918
80.709	18.376	1013.907	777.130
81.724	18.456	1013.424	777.052
82.739	18.546	1012.550	776.719
83.753	18.837	1011.948	777.508
84.768	19.176	1011.412	778.560
85.782	19.241	1010.979	778.451
86.797	19.115	1009.975	777.041
87.812	18.940	1008.548	775.084
88.826	18.878	1007.890	774.231
89.841	19.073	1007.029	774.381
90.855	19.172	1005.858	773.855
91.870	19.279	1004.997	773.606
92.884	19.077	1004.601	772.324
93.899	19.164	1003.422	771.742
94.914	19.347	1002.671	771.913
95.928	19.197	1002.073	770.714
96.943	19.043	1000.778	768.962
97.957	19.013	1000.074	768.221
98.972	19.019	999.275	767.563
99.987	19.051	998.440	766.999
101.001	19.144	997.086	766.303
102.016	19.036	996.501	765.305
103.030	19.117	995.609	764.913
104.045	19.131	994.751	764.247
105.060	18.949	994.024	762.814
106.074	18.672	992.873	760.638
107.089	18.380	992.161	758.729
108.103	18.425	990.844	757.855
109.118	18.432	989.561	756.837
110.133	18.347	988.768	755.788
111.147	18.311	988.449	755.319
112.162	18.370	987.243	754.593
113.176	18.484	986.929	754.787
114.191	18.663	985.890	754.713
115.206	18.502	985.281	753.473
116.220	18.406	984.397	752.309
117.235	18.567	982.978	751.863
118.249	18.341	982.481	750.423
119.264	18.221	982.212	749.627
120.279	18.279	981.047	748.925
121.293	18.281	979.859	747.962
122.308	18.145	979.046	746.682
123.322	18.071	977.733	745.289
124.337	18.058	976.967	744.585
125.352	18.048	975.600	743.433
126.366	18.067	975.069	743.047
127.381	18.129	973.719	742.220
128.395	18.093	973.267	741.656
129.410	18.244	971.967	741.250
130.424	18.264	971.690	741.064
131.439	18.490	971.037	741.477
132.454	18.392	970.032	740.220
133.468	18.514	969.403	740.202
134.483	18.500	968.397	739.308
135.497	18.357	967.834	738.195
136.512	18.548	966.926	738.259
137.527	18.552	966.037	737.533
138.541	18.635	965.503	737.416
139.556	18.631	964.520	736.582
140.570	18.792	964.464	737.167
141.585	18.773	963.966	736.640
142.600	19.061	962.388	736.600
143.614	18.980	962.226	736.065
144.629	19.132	961.357	735.985
145.643	19.165	960.022	735.038
146.658	18.917	959.077	733.193
147.673	18.754	957.789	731.447
148.687	18.576	956.809	729.880
149.702	18.576	956.265	729.400
150.716	18.436	955.358	728.047
151.731	18.645	954.700	728.368
152.746	18.679	954.254	728.109
153.760	18.697	953.446	727.504
154.775	18.813	952.921	727.531
155.789	18.905	952.371	727.434
156.804	18.748	951.879	726.330
157.819	18.873	951.096	726.196
158.833	19.183	950.286	726.826
159.848	19.157	950.042	726.464
160.862	18.987	948.668	724.634
161.877	18.726	947.273	722.402
162.892	18.618	946.016	720.926
163.906	18.530	945.208	719.880
164.921	18.400	944.668	718.858
165.935	18.641	943.963	719.270
166.950	18.749	943.068	718.975
167.964	18.806	941.883	718.245
168.979	18.595	941.149	716.742
169.994	18.797	940.078	716.707
171.008	18.741	939.838	716.225
172.023	19.052	939.150	716.934
173.037	19.129	938.867	716.974
174.052	18.972	937.745	715.403
175.067	18.757	936.939	713.832
176.081	18.447	936.195	711.913
177.096	18.573	935.696	711.993
178.110	18.691	935.005	711.894
179.125	18.732	934.333	711.490
180.140	18.782	933.846	711.263
181.154	18.936	933.973	711.935
182.169	19.069	933.648	712.173
183.183	19.069	933.094	711.687
184.198	19.073	931.913	710.739
185.213	19.071	931.045	710.007
186.227	19.162	930.550	709.941
187.242	19.159	930.253	709.639
188.256	19.286	929.315	709.387
189.271	19.422	928.408	709.187
190.286	18.918	927.567	706.414
191.300	18.484	926.585	703.823
192.315	18.473	925.986	703.259
193.329	18.417	925.594	702.669
194.344	18.594	925.123	702.977
195.359	18.861	924.310	703.389
196.373	18.905	923.835	703.145
197.388	19.100	923.823	703.872
198.402	19.242	923.465	704.116
199.417	19.404	922.604	704.059
200.432	19.615	922.007	704.401
201.446	19.514	921.862	703.817
202.461	19.733	921.220	704.158
203.475	19.531	920.387	702.634
204.490	19.331	919.236	700.881
205.504	19.292	918.446	700.057
206.519	19.065	917.961	698.706
207.534	19.172	917.484	698.714
208.548	19.166	916.671	698.011
209.563	19.082	916.191	697.242
210.577	19.346	915.086	697.407
211.592	19.537	915.034	698.080
212.607	19.460	914.351	697.183
213.621	19.572	913.330	696.798
214.636	19.505	912.158	695.570
215.650	19.552	911.861	695.473
216.665	19.570	911.277	695.035
217.680	19.737	910.867	695.333
218.694	19.758	910.363	694.974
219.709	19.568	909.750	693.679
220.723	19.596	908.838	693.034
221.738	19.461	907.915	691.728
222.753	19.467	907.416	691.312
223.767	19.663	906.958	691.688
224.782	19.757	906.594	691.725
225.796	19.743	906.376	691.441
226.811	19.568	905.645	690.123
227.826	19.573	904.523	689.227
228.840	19.657	903.452	688.684
229.855	19.490	903.024	687.629
230.869	19.519	902.318	687.150
231.884	19.423	901.665	686.207
232.899	19.266	900.672	684.769
233.913	19.201	900.123	684.033
234.928	19.201	899.381	683.407
235.942	19.323	898.865	683.440
236.957	19.287	898.324	682.824
237.972	19.238	897.702	682.096
238.986	19.208	897.182	681.524
240.001	19.443	896.356	681.764
241.015	19.371	895.992	681.144
242.030	19.582	895.240	681.344
243.045	19.488	894.909	680.661
244.059	19.499	894.505	680.335
245.074	19.774	893.472	680.574
246.088	19.676	893.061	679.813
247.103	19.825	892.805	680.145
248.117	20.075	892.127	680.550
249.132	20.398	891.695	681.430
250.147	20.499	891.431	681.563
251.161	20.500	890.660	680.918
252.176	20.461	890.489	680.573
253.190	20.536	889.725	680.223
254.205	20.535	889.380	679.895
255.220	20.482	888.219	678.739
256.234	20.405	887.797	678.055
257.249	20.373	887.422	677.585
258.263	20.293	886.293	676.353
259.278	20.439	885.603	676.333
260.293	20.631	885.609	677.025
261.307	20.591	884.613	676.048
262.322	20.459	884.262	675.208
263.336	20.587	883.151	674.797
264.351	20.677	882.552	674.628
265.366	20.612	882.188	674.036
266.380	20.589	881.247	673.170
267.395	20.616	879.893	672.181
268.409	20.507	879.658	671.521
269.424	20.517	878.886	670.912
270.439	20.433	878.490	670.225
271.453	20.453	877.443	669.442
272.468	20.262	877.212	668.473
273.482	20.368	876.399	668.202
274.497	20.311	876.024	667.639
275.512	20.499	875.509	667.908
276.526	20.353	875.370	667.182
277.541	20.491	874.569	667.043
278.555	20.554	874.398	667.096
279.570	20.734	873.604	667.118
280.585	20.748	872.764	666.473
281.599	20.531	871.803	664.851
282.614	20.446	871.413	664.170
283.628	20.451	870.726	663.608
284.643	20.377	870.313	662.950
285.657	20.290	869.670	662.070
286.672	20.480	868.627	661.939
287.687	20.435	868.060	661.280
288.701	20.456	867.597	660.947
289.716	20.570	866.891	660.783
290.730	20.435	866.582	659.978
291.745	20.525	865.709	659.597
292.760	20.643	865.691	659.972
293.774	20.886	864.976	660.287
294.789	20.873	863.534	659.081
295.803	20.681	863.077	657.949
296.818	20.592	862.235	656.912
297.833	20.492	861.942	656.253
298.847	20.530	861.504	656.004
299.862	20.697	860.815	656.053
300.876	20.803	860.022	655.787
301.891	20.872	860.308	656.209
302.906	20.922	859.410	655.652
303.920	21.115	859.159	656.128
304.935	21.230	858.408	655.928
305.949	21.001	858.011	654.709
306.964	20.910	857.029	653.560
307.979	21.063	856.290	653.511
308.993	20.983	856.001	652.935
310.008	21.038	855.492	652.694
311.022	20.938	854.887	651.801
312.037	20.804	854.015	650.576
313.052	20.514	853.180	648.803
314.066	20.513	852.870	648.504
315.081	20.672	852.329	648.626
316.095	20.665	851.545	647.948
317.110	20.589	850.998	647.192
318.125	20.501	850.811	646.665
319.139	20.571	850.721	646.798
320.154	20.495	849.820	645.775
321.168	20.710	849.066	645.943
322.183	20.785	848.770	645.938
323.197	20.676	848.306	645.125
324.212	20.717	847.884	644.900
325.227	20.737	847.082	644.305
326.241	20.670	846.395	643.477
327.256	20.507	845.956	642.487
328.270	20.744	844.889	642.492
329.285	20.666	844.587	641.918
330.300	20.765	843.660	641.522
331.314	20.767	843.375	641.256
332.329	20.813	843.245	641.269
333.343	20.948	842.889	641.440
334.358	20.947	842.469	641.059
335.373	20.949	842.127	640.749
336.387	21.107	841.898	641.100
337.402	21.137	841.363	640.746
338.416	21.267	841.514	641.280
339.431	21.592	840.803	641.874
340.446	21.513	840.592	641.365
341.460	21.589	840.021	641.150
342.475	21.512	840.013	640.807
343.489	21.617	839.566	640.793
344.504	21.643	839.011	640.409
345.519	21.700	838.985	640.540
346.533	21.650	838.100	639.624
347.548	21.384	837.018	637.772
348.562	21.192	836.419	636.560
349.577	21.052	836.054	635.716
350.592	21.094	835.181	635.147
351.606	21.070	834.621	634.580
352.621	21.063	833.763	633.846
353.635	21.344	833.063	634.277
354.650	21.261	832.371	633.394
355.665	21.289	831.890	633.074
356.679	21.344	831.345	632.803
357.694	21.326	830.624	632.130
358.708	21.442	829.593	631.709
359.723	21.366	829.806	631.542
360.738	21.370	828.916	630.823
361.752	21.443	828.492	630.709
362.767	21.726	827.924	631.238
363.781	21.795	827.653	631.225
364.796	21.943	827.305	631.437
365.810	22.061	826.737	631.369
366.825	22.097	826.578	631.321
367.840	21.907	826.549	630.562
368.854	21.732	825.329	628.948
369.869	21.798	825.036	628.904
370.883	21.840	824.439	628.546
371.898	21.859	824.572	628.659
372.913	22.010	823.920	628.647
373.927	21.872	823.226	627.569
374.942	21.821	822.886	627.071
375.956	22.042	822.466	627.483
376.971	22.125	821.932	627.317
377.986	22.112	821.776	627.097
379.000	22.085	821.204	626.509
380.015	22.123	820.526	626.073
381.029	22.091	819.757	625.315
382.044	22.184	818.973	624.995
383.059	22.208	818.877	624.949
384.073	21.993	817.988	623.453
385.088	21.870	817.149	622.323
386.102	21.872	816.611	621.863
387.117	21.872	816.024	621.364
388.132	21.627	815.868	620.319
389.146	21.837	815.387	620.642
390.161	21.960	815.394	621.028
391.175	22.128	814.220	620.673
392.190	21.857	813.598	619.188
393.205	21.718	813.469	618.544
394.219	21.554	813.306	617.786
395.234	21.683	812.699	617.727
396.248	21.597	811.788	616.675
397.263	21.498	811.488	616.046
398.278	21.478	810.878	615.456
399.292	21.565	810.496	615.417
400.307	21.511	810.191	614.941
401.321	21.570	809.411	614.505
402.336	21.647	809.525	614.804
403.350	21.827	808.844	614.866
404.365	21.958	808.408	614.938
405.380	22.181	808.242	615.539
406.394	22.313	807.388	615.295
407.409	22.365	807.036	615.155
408.423	22.375	807.079	615.167
409.438	22.534	806.616	615.318
410.453	22.481	806.244	614.794
411.467	22.566	805.832	614.720
412.482	22.533	805.507	614.303
413.496	22.885	804.722	614.877
414.511	22.643	804.688	613.953
415.526	22.483	804.142	612.927
416.540	22.547	803.520	612.619
417.555	22.526	802.947	612.056
418.569	22.561	802.677	611.918
419.584	22.613	802.320	611.771
420.599	22.707	801.550	611.454
421.613	163.763	1369.543	1795.297
422.628	142.343	1452.324	1795.385
