DTS Sentinel unit serial number:	SN413079Multiplexer serial number:	ORYXHardware model number:	OX4-SRSoftware version number:	ORYX F/W v4.00 Oryx Data Collector v3.7.2.0data status	okinstallation	princeton_trtdifferential loss correction	single-endedforward channel	channel 1reverse channel	N/Adate	2019/09/13time	19:10:35forward acquisition time	60.00reverse acquisition time	0.00gamma	496.2192k internal	0.2325k external	0.2325temperature offset calibration	1.0118default loss term (dB/km)	0.3790temperature slope calibration	1.0000multiplexer offset coefficient	1.0000multiplexer slope coefficient	1.0000fibre end	0.00T internal ref (°C)	31.50T ext. ref 1 (°C)	3.84T ext. ref 2 (°C)	24.85length (m)	temperature (°C)	Stokes	anti-Stokes-747.200	42.297	0.083	-0.076
-746.185	203.757	-0.108	0.170
-745.171	108.902	-0.044	0.053
-744.156	80.544	0.242	0.264
-743.142	-84.220	0.250	0.080
-742.127	620.055	-0.134	0.341
-741.112	-27.933	-0.162	0.095
-740.098	-93.563	-0.148	-0.041
-739.083	-200.000	0.039	-0.177
-738.069	215.373	-0.201	0.321
-737.054	-55.064	0.262	0.119
-736.039	-23.925	-0.255	-0.154
-735.025	-21.326	0.333	-0.205
-734.010	1.490	-0.097	-0.070
-732.996	38.350	-0.125	-0.113
-731.981	442.111	0.088	0.194
-730.966	189.559	-0.090	-0.135
-729.952	-172.508	-0.338	-0.011
-728.937	686.815	0.032	-0.085
-727.923	45.595	-0.116	-0.108
-726.908	-77.604	0.246	-0.086
-725.894	-93.761	-0.200	-0.056
-724.879	25.931	-0.071	0.059
-723.864	-200.000	0.045	0.274
-722.850	-171.483	-0.195	-0.007
-721.835	134.050	-0.194	-0.253
-720.821	-45.708	-0.390	-0.194
-719.806	-86.215	0.149	0.046
-718.791	36.160	-0.173	0.154
-717.777	-4.332	-0.233	-0.163
-716.762	-200.000	0.004	-0.054
-715.748	-54.375	0.139	0.064
-714.733	147.646	-0.022	-0.030
-713.718	-50.759	-0.189	0.090
-712.704	12.641	0.250	-0.195
-711.689	-77.630	0.153	-0.053
-710.675	-127.790	-0.162	-0.024
-709.660	161.351	-0.147	-0.207
-708.645	103.756	0.136	0.160
-707.631	171.689	0.112	0.163
-706.616	590.101	-0.102	-0.253
-705.602	25.743	-0.247	0.207
-704.587	-37.537	0.260	0.139
-703.572	800.000	0.071	0.207
-702.558	248.119	-0.121	-0.206
-701.543	-41.552	0.130	-0.067
-700.529	-200.000	-0.025	-0.347
-699.514	-86.165	0.085	0.026
-698.499	714.430	0.172	-0.459
-697.485	722.807	-0.104	-0.279
-696.470	800.000	-0.062	-0.262
-695.456	-27.613	-0.122	-0.071
-694.441	169.772	0.191	0.275
-693.426	800.000	0.079	-0.251
-692.412	231.147	0.161	0.265
-691.397	780.605	0.095	0.261
-690.383	450.118	0.084	0.186
-689.368	543.680	0.014	-0.033
-688.354	-162.457	-0.321	-0.016
-687.339	800.000	-0.045	0.155
-686.324	-200.000	0.038	0.361
-685.310	800.000	-0.020	-0.061
-684.295	196.007	0.235	0.360
-683.281	-200.000	-0.025	0.248
-682.266	-172.286	0.240	-0.008
-681.251	146.930	0.145	0.196
-680.237	-121.999	0.193	0.032
-679.222	329.276	-0.126	0.245
-678.208	135.697	-0.112	-0.146
-677.193	6.888	-0.226	-0.169
-676.178	78.209	0.157	-0.169
-675.164	-108.441	0.176	-0.038
-674.149	800.000	-0.042	0.148
-673.135	-169.439	0.215	0.008
-672.120	800.000	-0.085	0.275
-671.105	324.429	-0.044	0.084
-670.091	113.267	-0.092	-0.113
-669.076	27.961	-0.117	-0.099
-668.062	-200.000	0.013	-0.233
-667.047	-200.000	-0.051	0.318
-666.032	17.869	0.095	0.076
-665.018	54.489	0.432	-0.419
-664.003	151.733	-0.120	-0.164
-662.989	-58.502	-0.095	0.041
-661.974	109.868	-0.183	-0.221
-660.959	-200.000	-0.001	0.074
-659.945	74.168	0.063	0.066
-658.930	800.000	0.120	-0.461
-657.916	57.636	-0.165	0.162
-656.901	-149.998	-0.283	-0.022
-655.886	63.086	-0.269	-0.271
-654.872	69.167	-0.242	-0.250
-653.857	-200.000	-0.094	0.418
-652.843	-115.653	-0.117	0.022
-651.828	680.060	0.052	-0.136
-650.814	-200.000	0.025	-0.371
-649.799	-200.000	0.034	-0.401
-648.784	-96.533	0.298	0.079
-647.770	-109.983	-0.109	0.023
-646.755	119.222	-0.100	-0.124
-645.741	-17.132	-0.151	-0.096
-644.726	800.000	0.070	-0.280
-643.711	-28.028	0.230	0.134
-642.697	800.000	0.053	0.177
-641.682	-8.260	-0.043	0.029
-640.668	-99.027	-0.168	-0.043
-639.653	-69.669	0.320	0.123
-638.638	-200.000	-0.020	0.223
-637.624	-9.878	-0.161	0.107
-636.609	-46.230	0.216	0.107
-635.595	-200.000	0.018	-0.339
-634.580	-31.824	0.128	-0.072
-633.565	-68.481	-0.230	-0.090
-632.551	235.745	0.191	-0.318
-631.536	-200.000	-0.015	-0.225
-630.522	577.799	-0.072	-0.176
-629.507	-200.000	-0.026	0.324
-628.492	119.170	0.280	0.348
-627.478	170.200	-0.258	-0.371
-626.463	-200.000	0.005	0.234
-625.449	-200.000	-0.025	-0.172
-624.434	83.646	0.238	-0.261
-623.419	21.048	-0.231	-0.188
-622.405	275.682	0.073	-0.131
-621.390	-135.792	0.235	-0.028
-620.376	-98.222	0.165	0.042
-619.361	-200.000	-0.064	-0.329
-618.346	-90.291	0.192	0.056
-617.332	-95.955	0.050	0.014
-616.317	170.297	-0.132	0.189
-615.303	-200.000	-0.013	0.162
-614.288	800.000	0.127	0.435
-613.273	264.559	0.102	0.179
-612.259	-126.904	0.316	-0.047
-611.244	-181.686	0.023	0.000
-610.230	-100.929	0.262	-0.065
-609.215	82.192	-0.032	-0.035
-608.201	800.000	-0.103	-0.289
-607.186	147.196	0.192	0.260
-606.171	-8.398	0.085	0.057
-605.157	-184.347	-0.135	0.002
-604.142	-85.577	0.445	0.139
-603.128	-200.000	-0.033	0.298
-602.113	-200.000	0.001	0.090
-601.098	489.281	-0.131	0.300
-600.084	800.000	0.038	0.139
-599.069	-200.000	-0.003	0.027
-598.055	-110.328	0.340	-0.071
-597.040	-100.302	-0.030	-0.007
-596.025	545.992	0.091	0.217
-595.011	-200.000	0.038	-0.452
-593.996	-102.691	-0.128	-0.031
-592.982	800.000	0.012	-0.040
-591.967	-55.625	0.219	0.098
-590.952	-140.798	0.382	-0.039
-589.938	358.485	0.068	0.136
-588.923	-45.355	-0.117	-0.058
-587.909	27.399	0.121	-0.102
-586.894	-115.619	0.082	0.015
-585.879	795.382	0.086	0.238
-584.865	417.812	-0.064	-0.137
-583.850	773.980	-0.112	-0.305
-582.836	82.372	-0.204	0.222
-581.821	800.000	0.066	0.251
-580.806	403.222	0.060	-0.127
-579.792	293.629	0.096	-0.176
-578.777	-49.838	0.197	-0.094
-577.763	-93.841	-0.481	0.133
-576.748	-200.000	-0.056	-0.252
-575.733	-37.239	0.123	-0.066
-574.719	41.024	-0.181	-0.164
-573.704	133.033	-0.096	-0.125
-572.690	11.534	-0.093	-0.072
-571.675	47.009	0.368	-0.343
-570.661	136.416	-0.132	0.173
-569.646	-16.394	0.129	0.082
-568.631	44.408	0.138	0.127
-567.617	26.533	-0.278	0.233
-566.602	106.462	0.253	0.300
-565.588	81.061	-0.349	-0.378
-564.573	-180.728	-0.239	0.005
-563.558	800.000	-0.056	-0.179
-562.544	17.912	-0.079	0.063
-561.529	81.880	-0.085	-0.092
-560.515	800.000	-0.054	-0.189
-559.500	73.419	-0.246	-0.258
-558.485	-91.468	-0.141	-0.040
-557.471	62.279	0.156	-0.156
-556.456	35.030	-0.098	-0.086
-555.442	-200.000	-0.014	0.171
-554.427	-56.540	0.104	-0.046
-553.412	97.041	-0.089	-0.103
-552.398	800.000	-0.088	0.342
-551.383	-200.000	0.003	0.182
-550.369	-200.000	0.001	0.238
-549.354	-98.594	-0.050	-0.013
-548.339	246.126	-0.178	-0.301
-547.325	25.995	0.126	-0.105
-546.310	268.550	-0.161	-0.282
-545.296	-155.310	-0.267	0.017
-544.281	58.267	-0.095	-0.093
-543.266	127.063	-0.105	-0.134
-542.252	-200.000	0.004	0.081
-541.237	245.314	0.105	-0.177
-540.223	-146.794	-0.290	0.025
-539.208	-69.770	0.371	0.142
-538.193	-168.745	0.102	0.004
-537.179	60.043	-0.178	0.176
-536.164	-143.132	-0.097	-0.009
-535.150	-84.241	0.082	0.026
-534.135	-200.000	-0.012	-0.103
-533.121	80.950	-0.142	-0.153
-532.106	-11.307	0.141	0.093
-531.091	-54.400	-0.218	-0.099
-530.077	-200.000	0.040	-0.260
-529.062	800.000	0.104	0.355
-528.048	395.451	-0.067	0.140
-527.033	-54.628	0.223	0.101
-526.018	112.912	-0.101	0.123
-525.004	-138.164	-0.290	-0.032
-523.989	95.007	-0.215	-0.245
-522.975	-72.709	-0.094	-0.035
-521.960	49.251	-0.194	-0.183
-520.945	-66.236	0.132	0.053
-519.931	-64.163	-0.331	0.135
-518.916	225.385	0.149	0.241
-517.902	-200.000	0.042	-0.280
-516.887	119.894	-0.086	-0.106
-515.872	-132.069	0.226	0.029
-514.858	-200.000	-0.028	-0.241
-513.843	423.366	0.076	0.163
-512.829	2.032	0.140	-0.101
-511.814	57.498	0.008	0.008
-510.799	119.262	-0.145	0.179
-509.785	-75.944	0.262	0.093
-508.770	-200.000	0.046	-0.339
-507.756	-200.000	0.002	-0.176
-506.741	-80.626	0.253	-0.084
-505.726	-200.000	-0.026	0.300
-504.712	800.000	-0.091	0.287
-503.697	-163.503	-0.222	-0.011
-502.683	187.659	0.085	0.127
-501.668	-70.693	-0.163	0.062
-500.653	-126.814	0.083	0.012
-499.639	-200.000	-0.050	0.284
-498.624	-1.709	-0.317	-0.223
-497.610	-113.084	0.111	0.022
-496.595	52.242	0.206	-0.196
-495.581	21.417	-0.232	0.189
-494.566	370.232	-0.026	-0.053
-493.551	-200.000	-0.002	-0.123
-492.537	-84.762	-0.298	0.094
-491.522	648.854	0.015	-0.039
-490.508	590.481	-0.066	-0.162
-489.493	-200.000	0.027	-0.265
-488.478	-31.291	0.225	0.126
-487.464	800.000	0.049	0.211
-486.449	427.681	-0.021	-0.046
-485.435	-200.000	0.058	0.322
-484.420	65.076	-0.152	-0.154
-483.405	800.000	0.053	-0.226
-482.391	-200.000	-0.009	-0.064
-481.376	-10.936	-0.178	-0.117
-480.362	785.906	0.055	0.152
-479.347	-128.534	-0.416	0.059
-478.332	138.442	0.066	-0.086
-477.318	-72.736	-0.221	0.081
-476.303	760.623	-0.127	0.345
-475.289	35.391	-0.179	-0.157
-474.274	-200.000	-0.005	-0.046
-473.259	800.000	-0.109	0.304
-472.245	-133.081	-0.170	-0.021
-471.230	398.937	-0.078	-0.162
-470.216	125.171	0.073	0.091
-469.201	-200.000	0.062	-0.317
-468.186	47.953	0.129	0.121
-467.172	-136.672	0.117	0.014
-466.157	-71.349	0.176	-0.066
-465.143	379.440	0.164	0.336
-464.128	416.300	-0.050	-0.106
-463.113	-86.831	0.157	-0.048
-462.099	144.960	-0.091	-0.121
-461.084	-200.000	0.034	0.158
-460.070	68.678	-0.210	0.216
-459.055	800.000	0.089	0.266
-458.040	800.000	0.120	0.366
-457.026	-200.000	0.018	0.086
-456.011	-117.420	-0.308	-0.056
-454.997	277.976	-0.138	0.245
-453.982	4.370	0.308	-0.225
-452.968	617.624	-0.039	-0.098
-451.953	-200.000	-0.056	-0.555
-450.938	14.381	0.359	0.279
-449.924	-151.077	0.236	0.018
-448.909	14.629	-0.138	0.107
-447.895	-30.214	0.081	0.046
-446.880	-200.000	-0.012	-0.054
-445.865	800.000	-0.021	0.089
-444.851	57.217	-0.054	-0.052
-443.836	-104.682	-0.409	0.094
-442.822	144.972	0.107	-0.142
-441.807	-200.000	0.026	-0.354
-440.792	591.339	0.089	-0.219
-439.778	800.000	-0.044	-0.143
-438.763	111.574	0.093	0.112
-437.749	-102.285	-0.239	-0.057
-436.734	36.292	-0.161	0.142
-435.719	-115.810	0.186	0.035
-434.705	-177.031	0.261	-0.007
-433.690	699.558	-0.037	0.096
-432.676	-157.405	0.287	0.017
-431.661	432.728	-0.040	0.087
-430.646	86.434	0.268	0.295
-429.632	114.260	-0.121	-0.147
-428.617	532.452	0.050	0.118
-427.603	134.781	0.078	-0.101
-426.588	-59.541	0.394	0.169
-425.573	23.342	-0.391	0.320
-424.559	-126.454	0.081	0.012
-423.544	-46.113	-0.168	-0.082
-422.530	665.413	-0.092	-0.237
-421.515	51.883	0.233	0.221
-420.500	-99.049	0.129	0.033
-419.486	507.431	0.092	-0.213
-418.471	143.974	0.086	0.114
-417.457	-99.034	-0.287	-0.073
-416.442	57.006	0.192	-0.186
-415.428	91.848	-0.152	0.171
-414.413	-16.852	-0.181	-0.114
-413.398	181.967	0.086	0.126
-412.384	-59.792	-0.356	0.152
-411.369	-200.000	-0.023	0.159
-410.355	-200.000	-0.016	-0.154
-409.340	-102.749	0.238	0.056
-408.325	-43.632	0.024	0.012
-407.311	68.232	-0.197	-0.201
-406.296	-6.629	0.232	0.157
-405.282	-8.121	-0.190	0.127
-404.267	253.497	-0.081	-0.137
-403.252	128.152	0.156	-0.198
-402.238	-65.288	0.148	-0.059
-401.223	108.214	-0.162	0.193
-400.209	-59.333	0.104	0.045
-399.194	-200.000	0.015	0.229
-398.179	800.000	-0.077	-0.280
-397.165	-30.220	0.127	-0.072
-396.150	33.846	0.120	0.104
-395.136	308.087	0.012	0.022
-394.121	106.782	0.155	-0.183
-393.106	-94.727	0.096	0.026
-392.092	-124.870	-0.167	0.026
-391.077	41.482	0.040	0.036
-390.063	-200.000	0.019	0.132
-389.048	-51.363	0.162	0.075
-388.033	2.927	0.115	0.083
-387.019	-200.000	-0.017	0.140
-386.004	0.536	-0.172	-0.122
-384.990	366.454	-0.071	-0.143
-383.975	11.123	-0.107	-0.082
-382.960	-200.000	-0.032	0.350
-381.946	-77.779	0.107	-0.037
-380.931	-200.000	-0.011	0.080
-379.917	-23.287	0.259	-0.155
-378.902	113.240	0.137	-0.165
-377.888	800.000	-0.082	-0.302
-376.873	-71.533	0.168	-0.063
-375.858	-117.499	-0.151	-0.027
-374.844	180.645	0.129	-0.188
-373.829	703.771	0.109	0.285
-372.815	-128.423	-0.433	-0.061
-371.800	-73.894	0.358	-0.129
-370.785	-200.000	0.001	0.134
-369.771	-106.103	0.252	0.056
-368.756	72.885	-0.168	-0.174
-367.742	-126.312	0.587	-0.087
-366.727	-95.919	-0.400	-0.106
-365.712	-200.000	-0.012	-0.276
-364.698	57.762	-0.159	-0.155
-363.683	-53.073	-0.284	0.130
-362.669	-200.000	-0.016	-0.133
-361.654	800.000	-0.047	-0.129
-360.639	49.345	0.247	-0.231
-359.625	-70.684	0.245	0.092
-358.610	-136.687	-0.299	0.034
-357.596	-200.000	-0.033	-0.177
-356.581	-78.307	-0.339	0.116
-355.566	453.010	0.148	0.325
-354.552	54.488	0.239	-0.229
-353.537	-83.865	-0.255	0.081
-352.523	800.000	0.061	-0.230
-351.508	-3.370	0.137	-0.095
-350.493	-49.489	0.116	-0.055
-349.479	61.083	-0.063	-0.062
-348.464	154.411	0.047	0.065
-347.450	800.000	-0.109	0.368
-346.435	240.306	-0.266	0.440
-345.420	131.767	-0.219	0.280
-344.406	23.471	-0.217	0.177
-343.391	425.618	0.050	0.108
-342.377	-143.167	0.167	-0.016
-341.362	-200.000	0.036	-0.293
-340.348	800.000	0.073	-0.252
-339.333	-39.085	-0.117	-0.061
-338.318	-200.000	0.028	0.263
-337.304	287.690	0.286	0.513
-336.289	-200.000	-0.027	-0.289
-335.275	-99.488	-0.208	-0.052
-334.260	327.855	-0.046	0.087
-333.245	49.206	-0.171	-0.160
-332.231	496.790	-0.058	-0.133
-331.216	-133.282	0.272	0.034
-330.202	-200.000	0.020	-0.208
-329.187	-10.564	0.217	-0.143
-328.172	-170.831	-0.212	-0.007
-327.158	-55.059	-0.127	0.057
-326.143	-161.936	0.165	-0.008
-325.129	-200.000	-0.064	0.352
-324.114	-52.875	0.054	-0.025
-323.099	800.000	0.077	0.303
-322.085	-200.000	-0.013	-0.209
-321.070	-106.269	0.196	0.044
-320.056	51.961	-0.111	0.105
-319.041	0.350	-0.122	0.087
-318.026	-200.000	0.005	-0.100
-317.012	-108.239	-0.380	-0.081
-315.997	-75.824	0.041	-0.015
-314.983	-158.475	-0.153	0.009
-313.968	-200.000	0.003	0.268
-312.953	-95.961	-0.303	0.080
-311.939	418.853	-0.152	-0.323
-310.924	-200.000	0.067	-0.413
-309.910	-195.363	0.196	-0.001
-308.895	-136.371	-0.297	-0.034
-307.880	-31.642	0.484	-0.269
-306.866	800.000	0.026	-0.108
-305.851	-200.000	-0.030	-0.291
-304.837	-130.497	-0.699	-0.094
-303.822	129.385	-0.105	-0.134
-302.807	-124.385	0.234	-0.036
-301.793	146.738	0.079	0.105
-300.778	154.266	0.057	0.078
-299.764	409.828	0.077	0.162
-298.749	800.000	-0.107	0.317
-297.735	-14.337	-0.172	-0.110
-296.720	-200.000	-0.042	-0.283
-295.705	-51.582	-0.193	-0.089
-294.691	271.193	-0.076	-0.133
-293.676	596.049	-0.152	-0.372
-292.662	800.000	0.055	0.209
-291.647	-80.579	0.138	-0.046
-290.632	-104.487	0.207	-0.047
-289.618	30.047	-0.104	0.088
-288.603	145.087	0.228	-0.302
-287.589	116.381	-0.042	0.051
-286.574	49.125	0.100	0.093
-285.559	-131.012	-0.045	-0.006
-284.545	127.833	0.092	-0.116
-283.530	-200.000	-0.020	-0.287
-282.516	62.527	0.157	-0.155
-281.501	-200.000	0.031	0.163
-280.486	368.160	0.170	-0.340
-279.472	22.443	0.174	-0.141
-278.457	575.488	0.063	0.153
-277.443	25.213	0.228	0.187
-276.428	278.689	-0.067	-0.118
-275.413	-146.622	-0.211	0.018
-274.399	-116.674	0.147	-0.027
-273.384	612.676	0.060	-0.148
-272.370	-200.000	-0.063	-0.304
-271.355	-51.056	0.123	0.057
-270.340	-76.527	0.256	0.089
-269.326	120.484	0.131	-0.162
-268.311	-179.160	-0.215	-0.005
-267.297	-130.245	-0.350	-0.047
-266.282	171.599	-0.193	-0.275
-265.267	-196.301	-0.268	0.002
-264.253	-169.497	0.180	-0.007
-263.238	-8.726	-0.359	0.239
-262.224	800.000	-0.120	0.373
-261.209	358.826	0.042	-0.082
-260.195	250.589	0.040	0.067
-259.180	83.296	0.085	-0.092
-258.165	-81.812	-0.109	-0.035
-257.151	144.251	-0.098	0.130
-256.136	75.395	0.288	-0.300
-255.122	-8.191	0.214	0.142
-254.107	380.132	-0.093	-0.189
-253.092	-200.000	0.004	-0.269
-252.078	247.802	-0.146	-0.244
-251.063	-59.721	-0.288	-0.122
-250.049	-51.718	0.294	0.135
-249.034	-17.943	-0.085	0.053
-248.019	-181.300	-0.266	0.005
-247.005	-181.878	0.230	0.004
-245.990	-26.137	0.233	-0.136
-244.976	-20.895	-0.248	0.150
-243.961	-149.330	-0.695	0.055
-242.946	149.969	-0.035	0.047
-241.932	-48.720	0.147	0.070
-240.917	429.233	0.020	0.042
-239.903	-48.606	0.086	0.041
-238.888	-98.129	0.297	-0.075
-237.873	164.639	-0.139	0.194
-236.859	228.128	0.081	0.130
-235.844	-200.000	0.027	-0.379
-234.830	105.608	-0.239	0.280
-233.815	-14.577	-0.209	0.133
-232.800	137.056	-0.200	0.259
-231.786	800.000	0.024	-0.075
-230.771	-82.276	-0.218	-0.070
-229.757	-101.823	0.182	0.043
-228.742	-145.447	-0.100	-0.009
-227.727	800.000	-0.107	0.407
-226.713	-101.276	0.328	-0.079
-225.698	17.511	0.189	0.149
-224.684	-69.112	-0.280	0.106
-223.669	-200.000	0.064	-0.337
-222.655	-200.000	0.008	0.404
-221.640	7.797	-0.040	0.030
-220.625	-99.222	0.159	0.040
-219.611	-200.000	0.036	0.224
-218.596	10.122	0.215	-0.162
-217.582	-78.024	0.278	0.095
-216.567	231.739	-0.075	0.121
-215.552	-88.505	0.207	-0.061
-214.538	40.786	0.168	0.149
-213.523	101.519	0.138	-0.160
-212.509	324.107	-0.182	-0.343
-211.494	-200.000	-0.052	-0.286
-210.479	135.301	0.173	0.222
-209.465	-200.000	0.011	0.080
-208.450	-61.352	-0.555	-0.231
-207.436	342.720	0.035	0.068
-206.421	-200.000	-0.011	0.306
-205.406	-169.037	0.125	0.005
-204.392	38.977	0.184	-0.163
-203.377	78.637	-0.085	-0.090
-202.363	-97.038	0.263	0.068
-201.348	100.900	0.300	-0.345
-200.333	25.365	-0.206	0.169
-199.319	-200.000	-0.038	0.464
-198.304	-200.000	-0.008	-0.107
-197.290	12.785	-0.194	0.148
-196.275	-17.674	0.059	-0.037
-195.260	-200.000	-0.051	0.335
-194.246	-118.197	0.103	0.018
-193.231	6.167	0.098	-0.072
-192.217	34.408	-0.126	0.108
-191.202	300.550	0.092	0.168
-190.187	-144.105	-0.099	-0.009
-189.173	-97.664	-0.439	-0.112
-188.158	611.985	0.041	0.101
-187.144	-200.000	-0.003	0.018
-186.129	-69.583	0.132	-0.050
-185.114	800.000	-0.046	0.139
-184.100	-200.000	0.036	-0.208
-183.085	-200.000	0.021	-0.192
-182.071	-200.000	-0.115	0.514
-181.056	229.785	0.049	0.079
-180.042	-104.911	0.165	0.037
-179.027	213.593	0.085	0.133
-178.012	-76.785	0.162	0.056
-176.998	-20.264	-0.258	0.157
-175.983	-88.523	0.478	0.141
-174.969	269.507	0.150	0.261
-173.954	-97.370	0.325	0.084
-172.939	-96.266	0.230	-0.060
-171.925	-119.748	-0.149	0.025
-170.910	-24.802	-0.256	-0.150
-169.896	-200.000	0.023	0.456
-168.881	181.206	0.061	0.089
-167.866	231.087	0.019	-0.030
-166.852	374.305	0.159	0.320
-165.837	-21.803	-0.207	-0.124
-164.823	-200.000	0.044	0.249
-163.808	45.090	0.164	0.149
-162.793	-113.602	-0.162	0.031
-161.779	-135.030	0.060	0.007
-160.764	-200.000	-0.003	-0.164
-159.750	91.756	-0.321	-0.356
-158.735	-42.632	0.168	0.085
-157.720	667.386	0.030	0.078
-156.706	39.093	-0.222	-0.196
-155.691	-50.041	-0.288	0.135
-154.677	-12.717	0.223	-0.143
-153.662	-200.000	-0.031	0.265
-152.647	-145.387	-0.065	-0.006
-151.633	578.674	0.012	0.030
-150.618	-67.345	0.095	0.037
-149.604	-145.934	-0.208	0.018
-148.589	-200.000	0.010	-0.245
-147.574	150.737	-0.171	-0.228
-146.560	-47.182	0.306	0.147
-145.545	-72.081	0.080	0.029
-144.531	532.251	0.125	0.292
-143.516	800.000	0.048	-0.173
-142.502	-44.331	0.183	0.090
-141.487	148.164	0.200	0.266
-140.472	28.701	-0.030	-0.025
-139.458	247.059	0.228	-0.379
-138.443	32.939	-0.234	0.200
-137.429	53.235	0.139	0.132
-136.414	-51.423	-0.150	0.069
-135.399	416.159	0.026	0.054
-134.385	800.000	-0.038	0.130
-133.370	103.202	-0.086	0.100
-132.356	-78.451	-0.297	0.100
-131.341	-200.000	0.018	0.202
-130.326	-200.000	-0.016	-0.120
-129.312	17.354	-0.322	-0.252
-128.297	-28.692	0.243	0.138
-127.283	342.220	0.056	0.107
-126.268	82.439	-0.074	0.079
-125.253	724.331	0.040	0.104
-124.239	152.645	-0.285	0.384
-123.224	800.000	0.131	0.418
-122.210	114.689	-0.209	0.251
-121.195	136.419	-0.199	0.255
-120.180	218.207	0.107	0.168
-119.166	-200.000	0.019	-0.120
-118.151	-46.219	-0.085	0.041
-117.137	-160.187	0.138	-0.007
-116.122	130.857	0.116	-0.146
-115.107	-63.018	0.174	0.071
-114.093	548.448	0.006	-0.014
-113.078	735.523	-0.105	0.277
-112.064	-132.064	-0.105	0.014
-111.049	23.832	-0.146	0.119
-110.034	800.000	-0.103	0.307
-109.020	-55.342	0.112	-0.049
-108.005	-139.715	0.174	-0.018
-106.991	-47.337	0.406	-0.194
-105.976	-93.838	-0.146	0.039
-104.962	311.792	-0.152	0.280
-103.947	-140.701	0.274	0.028
-102.932	140.463	0.048	-0.062
-101.918	-11.773	0.054	0.035
-100.903	36.725	-0.506	-0.440
-99.889	-79.607	0.161	0.054
-98.874	-98.122	0.274	0.069
-97.859	66.576	0.172	-0.172
-96.845	206.217	-0.162	0.248
-95.830	87.046	0.216	-0.235
-94.816	-100.597	0.344	0.084
-93.801	-77.798	-0.392	-0.133
-92.786	-200.000	0.072	-0.357
-91.772	21.992	-0.091	-0.073
-90.757	-200.000	0.040	-0.263
-89.743	246.219	0.126	-0.208
-88.728	13.356	0.426	-0.325
-87.713	-55.822	-0.312	-0.137
-86.699	-105.166	0.114	0.026
-85.684	-200.000	-0.053	-0.322
-84.670	-66.045	-0.130	0.051
-83.655	-0.139	0.214	-0.150
-82.640	75.882	0.168	-0.174
-81.626	194.962	0.232	0.346
-80.611	171.197	-0.213	0.300
-79.597	800.000	0.078	-0.265
-78.582	-99.548	-0.300	-0.074
-77.567	-51.503	-0.112	0.051
-76.553	122.842	0.144	-0.177
-75.538	2.745	0.008	-0.006
-74.524	63.790	-0.180	0.177
-73.509	-11.852	0.103	-0.067
-72.494	-200.000	-0.053	0.366
-71.480	221.319	0.243	-0.384
-70.465	-74.619	-0.303	0.107
-69.451	15.809	-0.180	-0.139
-68.436	87.054	0.197	0.214
-67.422	28.235	0.251	0.208
-66.407	-12.466	-0.104	0.067
-65.392	203.203	0.177	0.269
-64.378	-200.000	-0.016	0.304
-63.363	-82.992	-0.310	-0.098
-62.349	169.430	-0.081	-0.114
-61.334	25.869	-1.071	-0.877
-60.319	333.195	0.299	0.568
-59.305	445.199	-0.370	-0.798
-58.290	135.883	0.881	1.127
-57.276	621.069	0.668	1.651
-56.261	-200.000	100.680	604.801
-55.246	582.199	1409.969	3397.431
-54.232	192.266	2592.353	3841.757
-53.217	118.911	2136.640	2593.673
-52.203	43.431	1594.095	1430.959
-51.188	35.164	1331.134	1145.683
-50.173	31.859	1289.689	1090.777
-49.159	55.101	1339.681	1271.343
-48.144	57.345	1356.244	1300.289
-47.130	35.227	1313.312	1130.535
-46.115	31.750	1295.840	1095.168
-45.100	31.455	1290.763	1089.114
-44.086	31.525	1287.973	1087.127
-43.071	31.393	1286.383	1084.977
-42.057	31.483	1283.830	1083.301
-41.042	31.520	1282.096	1082.010
-40.027	31.401	1281.226	1080.540
-39.013	31.357	1279.623	1078.895
-37.998	31.397	1277.872	1077.606
-36.984	31.605	1275.450	1076.717
-35.969	31.467	1274.017	1074.670
-34.954	31.540	1272.491	1073.759
-33.940	31.526	1270.937	1072.327
-32.925	31.595	1269.957	1071.851
-31.911	31.557	1268.198	1070.107
-30.896	31.634	1266.950	1069.452
-29.881	31.640	1265.240	1068.000
-28.867	31.719	1263.714	1067.119
-27.852	31.661	1262.656	1065.852
-26.838	31.694	1260.873	1064.493
-25.823	31.537	1259.826	1062.677
-24.809	31.518	1258.614	1061.508
-23.794	31.475	1257.291	1060.106
-22.779	31.527	1255.474	1058.826
-21.765	31.509	1254.755	1058.075
-20.750	31.648	1253.064	1057.391
-19.736	31.562	1251.710	1055.723
-18.721	31.552	1250.650	1054.730
-17.706	31.473	1249.698	1053.438
-16.692	31.561	1248.392	1052.789
-15.677	31.441	1247.924	1051.678
-14.663	31.464	1246.604	1050.656
-13.648	31.408	1245.230	1049.140
-12.633	31.486	1244.119	1048.598
-11.619	31.426	1243.217	1047.465
-10.604	31.466	1242.614	1047.138
-9.590	31.323	1242.221	1045.965
-8.575	31.378	1240.622	1044.884
-7.560	31.411	1239.847	1044.372
-6.546	31.372	1239.260	1043.622
-5.531	31.306	1238.647	1042.693
-4.517	31.342	1237.499	1041.884
-3.502	31.435	1236.454	1041.482
-2.487	31.429	1235.677	1040.755
-1.473	31.315	1231.295	1036.391
-0.458	29.464	1215.605	1012.995
0.556	26.240	1196.177	969.362
1.571	21.765	1200.308	948.469
2.586	20.609	1213.620	952.574
3.600	19.781	1202.346	939.149
4.615	14.961	1131.999	859.417
5.629	7.359	1060.043	768.021
6.644	4.046	1041.433	738.684
7.659	3.844	1038.841	735.823
8.673	3.735	1037.715	734.438
9.688	3.736	1036.638	733.615
10.702	4.071	1034.520	733.639
11.717	8.185	1039.934	756.972
12.731	15.856	1051.064	801.672
13.746	20.425	1056.080	827.238
14.761	20.651	1056.074	828.236
15.775	19.740	1054.341	822.473
16.790	18.711	1052.175	815.821
17.804	18.194	1050.547	812.033
18.819	17.767	1049.783	809.348
19.834	17.784	1048.788	808.588
20.848	17.500	1048.597	807.025
21.863	17.269	1047.664	805.140
22.877	17.267	1046.894	804.468
23.892	17.212	1046.085	803.516
24.907	17.237	1044.899	802.650
25.921	17.237	1043.903	801.814
26.936	17.128	1043.291	800.758
27.950	17.196	1041.767	799.839
28.965	17.313	1040.195	799.109
29.980	17.426	1038.916	798.588
30.994	17.442	1037.988	797.878
32.009	17.493	1037.169	797.416
33.023	17.423	1035.854	796.010
34.038	17.340	1034.704	794.666
35.053	17.164	1033.926	793.178
36.067	17.410	1032.624	793.257
37.082	17.389	1032.347	792.874
38.096	17.423	1031.606	792.393
39.111	17.439	1030.519	791.565
40.126	17.212	1029.265	789.474
41.140	16.998	1027.975	787.424
42.155	16.979	1026.840	786.396
43.169	16.809	1025.952	784.861
44.184	16.864	1024.955	784.281
45.199	16.959	1023.687	783.681
46.213	17.026	1023.433	783.728
47.228	17.189	1022.388	783.610
48.242	17.169	1021.259	782.582
49.257	17.323	1019.774	782.083
50.271	17.306	1019.417	781.662
51.286	17.219	1018.502	780.490
52.301	17.172	1017.691	779.584
53.315	17.117	1016.468	778.329
54.330	17.089	1015.400	777.312
55.344	17.077	1014.574	776.558
56.359	17.123	1013.425	775.820
57.374	17.075	1012.559	774.866
58.388	16.870	1011.610	773.136
59.403	16.948	1011.100	773.035
60.417	16.951	1010.332	772.393
61.432	16.952	1009.764	771.895
62.447	16.793	1008.923	770.460
63.461	16.709	1007.908	769.237
64.476	16.601	1007.236	768.164
65.490	16.767	1006.356	768.181
66.505	16.798	1005.543	767.631
67.520	16.759	1005.394	767.273
68.534	16.858	1003.907	766.517
69.549	16.775	1003.889	766.063
70.563	16.839	1002.633	765.324
71.578	16.757	1001.484	764.007
72.593	16.526	1001.043	762.566
73.607	16.510	1000.579	762.072
74.622	16.437	1000.264	761.434
75.636	16.619	999.247	761.410
76.651	16.754	998.258	761.198
77.666	16.693	998.145	760.771
78.680	16.802	997.100	760.394
79.695	16.869	996.540	760.200
80.709	16.843	996.378	759.894
81.724	16.921	995.819	759.752
82.739	17.033	995.173	759.692
83.753	17.259	994.256	759.932
84.768	17.430	993.564	760.101
85.782	17.465	992.650	759.492
86.797	17.373	992.163	758.641
87.812	17.309	990.376	756.925
88.826	17.246	989.714	756.070
89.841	17.408	988.840	756.057
90.855	17.467	988.236	755.790
91.870	17.445	987.052	754.720
92.884	17.509	986.149	754.244
93.899	17.527	985.832	754.017
94.914	17.519	985.115	753.364
95.928	17.524	983.976	752.449
96.943	17.369	982.976	750.934
97.957	17.431	981.957	750.362
98.972	17.399	981.470	749.784
99.987	17.338	980.596	748.782
101.001	17.329	979.784	748.057
102.016	17.364	978.827	747.410
103.030	17.434	977.907	746.953
104.045	17.594	976.997	746.893
105.060	17.227	976.607	744.917
106.074	17.106	975.336	743.353
107.089	17.051	974.017	742.042
108.103	16.837	973.371	740.551
109.118	16.855	972.412	739.834
110.133	16.902	971.400	739.200
111.147	16.725	970.903	737.986
112.162	17.028	969.685	738.314
113.176	17.083	969.334	738.221
114.191	17.032	968.933	737.628
115.206	17.041	968.057	736.935
116.220	16.967	966.963	735.717
117.235	17.025	965.929	735.115
118.249	17.006	965.230	734.437
119.264	16.935	964.264	733.329
120.279	16.898	963.290	732.366
121.293	16.773	962.806	731.392
122.308	16.689	962.080	730.412
123.322	16.631	960.904	729.205
124.337	16.809	959.577	728.900
125.352	16.734	958.801	727.925
126.366	16.612	958.083	726.792
127.381	16.828	956.645	726.561
128.395	16.714	956.340	725.777
129.410	16.786	955.407	725.313
130.424	16.932	954.539	725.212
131.439	16.976	953.863	724.825
132.454	16.923	952.978	723.861
133.468	16.999	952.582	723.820
134.483	17.048	951.725	723.313
135.497	17.061	950.590	722.444
136.512	16.863	950.316	721.330
137.527	16.978	949.270	720.962
138.541	17.129	948.258	720.767
139.556	17.004	948.392	720.275
140.570	17.347	947.273	720.817
141.585	17.470	946.753	720.876
142.600	17.524	945.823	720.335
143.614	17.642	944.832	720.014
144.629	17.611	944.564	719.617
145.643	17.535	942.971	718.016
146.658	17.328	942.208	716.502
147.673	17.150	941.273	714.979
148.687	17.153	940.493	714.334
149.702	17.135	939.670	713.569
150.716	17.128	938.659	712.708
151.731	17.028	938.331	711.977
152.746	17.226	937.196	711.883
153.760	17.093	936.885	711.026
154.775	17.263	936.098	711.079
155.789	17.274	935.524	710.624
156.804	17.415	934.935	710.704
157.819	17.466	934.102	710.223
158.833	17.550	933.574	710.107
159.848	17.705	932.448	709.833
160.862	17.526	931.608	708.385
161.877	17.326	930.669	706.778
162.892	17.138	929.845	705.308
163.906	17.143	928.876	704.533
164.921	17.206	928.172	704.199
165.935	17.193	927.147	703.304
166.950	17.161	927.001	702.997
167.964	17.278	925.570	702.336
168.979	17.248	924.713	701.500
169.994	17.181	924.009	700.627
171.008	17.340	923.534	700.858
172.023	17.435	922.883	700.696
173.037	17.576	922.035	700.568
174.052	17.556	921.211	699.799
175.067	17.313	920.793	698.420
176.081	17.159	919.841	697.006
177.096	17.250	919.273	696.886
178.110	17.384	918.791	697.009
179.125	17.258	918.448	696.171
180.140	17.344	918.003	696.121
181.154	17.541	917.356	696.376
182.169	17.611	917.068	696.384
183.183	17.557	916.609	695.752
184.198	17.520	915.886	694.989
185.213	17.571	914.938	694.416
186.227	17.679	914.414	694.401
187.242	17.613	914.391	694.052
188.256	17.935	913.331	694.496
189.271	17.769	912.617	693.215
190.286	17.475	911.476	691.093
191.300	17.240	910.515	689.349
192.315	17.116	910.229	688.570
193.329	17.129	909.797	688.234
194.344	17.279	909.173	688.310
195.359	17.459	908.187	688.233
196.373	17.546	907.969	688.355
197.388	17.706	907.560	688.631
198.402	17.843	907.015	688.712
199.417	17.918	906.490	688.555
200.432	18.242	905.474	689.026
201.446	18.125	905.619	688.605
202.461	18.117	905.242	688.222
203.475	18.033	904.411	687.194
204.490	17.822	903.412	685.526
205.504	17.724	902.575	684.436
206.519	17.759	901.773	683.909
207.534	17.749	901.166	683.348
208.548	17.774	900.588	682.948
209.563	17.891	899.777	682.740
210.577	17.770	899.759	682.184
211.592	18.066	898.653	682.466
212.607	17.997	898.101	681.712
213.621	18.048	897.167	681.143
214.636	18.015	896.537	680.475
215.650	17.886	896.285	679.710
216.665	18.121	895.405	679.917
217.680	18.181	895.038	679.819
218.694	18.267	893.987	679.301
219.709	18.151	893.439	678.364
220.723	18.133	892.404	677.448
221.738	17.973	892.163	676.569
222.753	18.109	891.233	676.343
223.767	18.224	890.963	676.533
224.782	18.137	890.748	675.966
225.796	18.312	889.730	675.824
226.811	18.151	889.369	674.855
227.826	18.199	888.354	674.213
228.840	18.046	887.613	672.990
229.855	17.986	886.950	672.191
230.869	18.076	886.100	671.840
231.884	17.950	885.360	670.724
232.899	17.995	884.561	670.239
233.913	17.903	884.002	669.396
234.928	17.777	883.667	668.587
235.942	17.773	882.920	667.946
236.957	17.872	882.218	667.746
237.972	17.816	881.989	667.295
238.986	17.841	881.275	666.792
240.001	17.890	880.926	666.660
241.015	17.929	880.005	666.056
242.030	18.127	879.517	666.399
243.045	18.206	878.776	666.087
244.059	18.117	878.281	665.305
245.074	18.279	877.675	665.421
246.088	18.299	877.071	664.979
247.103	18.401	876.865	665.162
248.117	18.420	876.418	664.838
249.132	18.665	876.030	665.434
250.147	18.774	875.298	665.240
251.161	18.919	874.503	665.140
252.176	18.890	874.274	664.792
253.190	18.822	873.738	664.065
254.205	18.881	872.922	663.613
255.220	18.958	872.071	663.206
256.234	18.854	871.525	662.329
257.249	19.099	870.390	662.351
258.263	18.993	869.714	661.371
259.278	18.842	869.253	660.382
260.293	18.981	869.129	660.762
261.307	19.039	868.634	660.550
262.322	19.013	868.021	659.928
263.336	18.991	867.547	659.425
264.351	19.217	866.304	659.287
265.366	19.190	865.587	658.577
266.380	19.222	864.834	658.069
267.395	19.023	864.478	656.979
268.409	18.901	863.883	656.003
269.424	18.900	862.886	655.185
270.439	18.941	862.133	654.712
271.453	18.933	861.429	654.090
272.468	18.678	861.197	652.883
273.482	18.807	860.901	653.093
274.497	18.837	860.102	652.544
275.512	18.856	859.319	651.964
276.526	18.885	859.144	651.882
277.541	18.871	858.806	651.515
278.555	19.000	857.970	651.312
279.570	19.185	857.274	651.427
280.585	19.246	856.688	651.155
281.599	19.016	856.041	649.734
282.614	19.033	855.356	649.223
283.628	18.915	854.821	648.316
284.643	18.934	854.387	647.997
285.657	18.953	853.798	647.567
286.672	18.894	853.130	646.781
287.687	19.086	852.436	646.920
288.701	19.070	851.690	646.237
289.716	19.110	850.911	645.736
290.730	19.075	850.572	645.292
291.745	19.211	850.111	645.395
292.760	19.215	849.243	644.695
293.774	19.285	849.083	644.776
294.789	19.373	848.497	644.603
295.803	19.121	847.891	643.144
296.818	19.230	846.739	642.620
297.833	19.215	845.909	641.877
298.847	19.160	845.762	641.505
299.862	19.178	845.134	641.039
300.876	19.281	844.533	640.908
301.891	19.460	844.332	641.365
302.906	19.349	844.075	640.701
303.920	19.676	843.400	641.347
304.935	19.524	842.661	640.163
305.949	19.503	842.092	639.597
306.964	19.508	841.210	638.890
307.979	19.432	840.966	638.368
308.993	19.502	840.419	638.154
310.008	19.579	839.821	637.927
311.022	19.392	839.419	636.875
312.037	19.502	838.214	636.309
313.052	19.263	837.998	635.210
314.066	19.134	837.218	634.087
315.081	19.362	836.320	634.187
316.095	19.166	836.231	633.343
317.110	19.151	835.815	632.918
318.125	19.145	835.028	632.245
319.139	19.342	834.558	632.553
320.154	19.363	834.181	632.290
321.168	19.415	833.641	632.017
322.183	19.466	833.160	631.783
323.197	19.382	832.754	631.110
324.212	19.441	832.266	630.900
325.227	19.327	831.630	629.944
326.241	19.327	830.520	629.050
327.256	19.249	830.637	628.798
328.270	19.438	829.749	628.757
329.285	19.388	829.380	628.242
330.300	19.324	828.308	627.142
331.314	19.351	828.042	626.983
332.329	19.747	827.852	628.224
333.343	19.543	827.654	627.275
334.358	19.703	827.000	627.306
335.373	19.593	826.962	626.821
336.387	19.653	826.576	626.692
337.402	19.791	826.225	626.868
338.416	19.860	825.905	626.821
339.431	20.135	825.502	627.456
340.446	20.013	825.078	626.635
341.460	20.018	824.966	626.513
342.475	20.132	824.310	626.372
343.489	20.011	824.613	626.109
344.504	20.312	823.531	626.321
345.519	20.160	823.010	625.321
346.533	20.267	822.325	625.128
347.548	20.047	821.896	623.955
348.562	19.941	821.617	623.305
349.577	19.784	820.717	622.004
350.592	19.766	819.953	621.306
351.606	19.785	819.128	620.692
352.621	19.914	818.586	620.691
353.635	19.981	817.902	620.355
354.650	19.938	817.305	619.694
355.665	19.954	817.041	619.499
356.679	19.940	816.719	619.149
357.694	20.029	815.861	618.761
358.708	20.020	814.897	617.944
359.723	19.925	814.557	617.292
360.738	19.925	814.176	616.950
361.752	20.067	813.433	616.837
362.767	20.217	812.894	616.907
363.781	20.216	812.896	616.850
364.796	20.352	812.623	617.073
365.810	20.428	812.138	616.918
366.825	20.518	811.420	616.637
367.840	20.522	810.965	616.253
368.854	20.257	810.502	614.908
369.869	20.320	810.175	614.827
370.883	20.283	809.648	614.241
371.898	20.461	809.557	614.747
372.913	20.468	808.829	614.168
373.927	20.406	808.230	613.438
374.942	20.479	807.620	613.178
375.956	20.487	807.560	613.106
376.971	20.739	806.919	613.455
377.986	20.680	806.493	612.870
379.000	20.669	806.340	612.658
380.015	20.608	805.876	612.037
381.029	20.661	805.193	611.652
382.044	20.649	804.511	611.035
383.059	20.636	804.153	610.664
384.073	20.628	803.271	609.912
385.088	20.447	802.497	608.637
386.102	20.415	802.032	608.119
387.117	20.446	801.233	607.568
388.132	20.339	800.803	606.814
389.146	20.410	800.573	606.835
390.161	20.715	799.859	607.302
391.175	20.753	799.291	606.952
392.190	20.517	798.964	605.826
393.205	20.634	798.362	605.723
394.219	20.491	798.048	604.935
395.234	20.392	797.788	604.339
396.248	20.259	797.581	603.666
397.263	20.313	796.871	603.263
398.278	20.312	796.305	602.779
399.292	20.279	796.013	602.390
400.307	20.282	795.579	602.017
401.321	20.373	795.129	601.941
402.336	20.463	794.487	601.711
403.350	20.537	794.507	601.929
404.365	20.572	794.052	601.655
405.380	20.713	793.714	601.830
406.394	20.844	792.917	601.625
407.409	21.045	792.562	601.997
408.423	21.029	792.233	601.637
409.438	20.918	792.335	601.279
410.453	20.970	791.578	600.831
411.467	21.083	790.942	600.685
412.482	20.999	790.995	600.382
413.496	21.308	790.514	601.026
414.511	21.163	789.946	600.044
415.526	21.076	789.590	599.421
416.540	21.058	788.842	598.740
417.555	21.251	788.446	599.046
418.569	21.217	788.127	598.636
419.584	21.160	787.713	598.072
420.599	21.013	787.494	597.351
421.613	161.903	1370.150	1794.579
422.628	140.171	1455.039	1794.669
