DTS Sentinel unit serial number:	SN413079Multiplexer serial number:	ORYXHardware model number:	OX4-SRSoftware version number:	ORYX F/W v4.00 Oryx Data Collector v3.7.2.0data status	okinstallation	princeton_trtdifferential loss correction	single-endedforward channel	channel 1reverse channel	N/Adate	2019/09/14time	16:10:35forward acquisition time	60.00reverse acquisition time	0.00gamma	496.2192k internal	0.2296k external	0.2296temperature offset calibration	1.0063default loss term (dB/km)	0.3790temperature slope calibration	1.0000multiplexer offset coefficient	1.0000multiplexer slope coefficient	1.0000fibre end	0.00T internal ref (°C)	38.36T ext. ref 1 (°C)	5.09T ext. ref 2 (°C)	32.94length (m)	temperature (°C)	Stokes	anti-Stokes-747.200	-181.730	-0.231	-0.005
-746.185	125.314	-0.317	0.408
-745.171	800.000	0.052	-0.158
-744.156	95.528	-0.226	0.263
-743.142	-156.706	0.244	-0.015
-742.127	800.000	-0.068	0.280
-741.112	267.451	-0.104	0.186
-740.098	-108.166	-0.301	-0.067
-739.083	-200.000	-0.009	0.332
-738.069	1.996	-0.114	0.084
-737.054	55.009	0.126	0.125
-736.039	-200.000	-0.032	-0.385
-735.025	-129.042	0.356	-0.051
-734.010	-89.120	-0.241	-0.073
-732.996	-56.514	-0.388	-0.176
-731.981	-42.285	0.287	-0.150
-730.966	90.396	0.074	0.085
-729.952	12.997	-0.257	-0.203
-728.937	-83.222	0.178	0.059
-727.923	403.963	0.126	-0.270
-726.908	-200.000	-0.014	-0.307
-725.894	-200.000	-0.042	-0.280
-724.879	466.149	-0.064	0.146
-723.864	440.843	0.018	0.039
-722.850	262.724	0.114	-0.202
-721.835	-107.930	-0.099	0.022
-720.821	235.591	-0.100	-0.168
-719.806	675.769	-0.067	-0.177
-718.791	-200.000	-0.032	-0.178
-717.777	-200.000	-0.045	-0.229
-716.762	800.000	0.057	-0.171
-715.748	-46.812	0.285	-0.143
-714.733	351.019	0.086	-0.174
-713.718	-140.311	0.170	-0.018
-712.704	-81.519	-0.267	-0.090
-711.689	241.612	0.069	-0.119
-710.675	-101.162	0.416	0.104
-709.660	-200.000	-0.003	0.177
-708.645	-92.223	0.334	0.096
-707.631	83.017	-0.144	-0.159
-706.616	-82.960	-0.224	0.074
-705.602	259.145	0.026	0.046
-704.587	-5.899	0.149	-0.104
-703.572	-162.510	0.341	0.017
-702.558	-19.337	0.195	0.123
-701.543	-200.000	0.014	-0.085
-700.529	-59.758	0.360	-0.157
-699.514	-200.000	0.041	0.218
-698.499	800.000	0.043	0.164
-697.485	-200.000	-0.053	-0.299
-696.470	-200.000	0.015	-0.212
-695.456	-55.412	-0.251	0.115
-694.441	800.000	0.041	0.115
-693.426	62.961	0.016	-0.016
-692.412	-171.291	0.214	0.007
-691.397	226.479	0.100	-0.166
-690.383	325.937	0.119	-0.231
-689.368	189.474	0.139	-0.212
-688.354	445.278	-0.058	0.130
-687.339	196.209	0.081	0.126
-686.324	769.417	0.044	0.122
-685.310	-200.000	0.029	0.132
-684.295	800.000	-0.065	-0.241
-683.281	-9.619	-0.231	0.157
-682.266	-26.769	0.141	-0.084
-681.251	-71.176	0.029	-0.011
-680.237	257.087	0.095	0.166
-679.222	165.357	0.241	-0.347
-678.208	-200.000	0.013	-0.162
-677.193	-200.000	-0.068	0.368
-676.178	-120.402	0.252	0.044
-675.164	1.103	0.122	0.089
-674.149	561.900	-0.117	-0.287
-673.135	216.201	0.098	-0.158
-672.120	-45.936	0.262	-0.132
-671.105	88.362	0.138	0.157
-670.091	10.139	0.155	0.120
-669.076	800.000	-0.032	0.114
-668.062	-200.000	0.007	-0.052
-667.047	-200.000	0.026	-0.369
-666.032	800.000	-0.024	0.076
-665.018	145.008	0.088	0.120
-664.003	88.689	0.142	-0.161
-662.989	-37.594	-0.179	-0.097
-661.974	-104.374	-0.192	-0.045
-660.959	-200.000	-0.000	-0.294
-659.945	86.109	0.120	-0.134
-658.930	-200.000	-0.056	0.262
-657.916	800.000	0.043	0.140
-656.901	800.000	0.055	-0.190
-655.886	42.691	-0.240	-0.223
-654.872	-200.000	0.030	-0.224
-653.857	800.000	0.081	0.241
-652.843	-200.000	-0.028	-0.282
-651.828	156.239	0.036	-0.051
-650.814	-200.000	0.033	0.188
-649.799	108.697	0.068	-0.083
-648.784	-61.356	-0.275	0.118
-647.770	-92.747	0.108	-0.031
-646.755	421.184	-0.062	0.136
-645.741	4.667	0.127	-0.095
-644.726	-200.000	-0.026	-0.156
-643.711	193.607	0.095	-0.146
-642.697	-200.000	0.036	0.249
-641.682	133.348	0.150	-0.197
-640.668	466.117	0.072	-0.164
-639.653	-138.615	0.322	-0.036
-638.638	190.191	-0.175	-0.267
-637.624	371.481	0.178	0.368
-636.609	128.338	-0.154	0.199
-635.595	98.527	-0.189	0.221
-634.580	-200.000	0.241	0.001
-633.565	169.388	0.091	0.133
-632.551	-138.230	-0.288	0.032
-631.536	155.240	-0.088	0.124
-630.522	-157.497	0.019	0.001
-629.507	800.000	-0.035	0.146
-628.492	427.288	0.072	-0.157
-627.478	233.896	0.046	-0.076
-626.463	-200.000	-0.005	-0.164
-625.449	424.927	0.067	0.148
-624.434	-200.000	-0.046	-0.354
-623.419	-8.002	0.097	-0.067
-622.405	800.000	0.067	0.246
-621.390	166.851	0.060	-0.087
-620.376	60.509	0.152	-0.153
-619.361	-110.583	0.112	-0.024
-618.346	51.027	0.111	-0.107
-617.332	0.152	-0.177	-0.129
-616.317	-119.453	-0.094	0.017
-615.303	142.204	-0.268	-0.362
-614.288	536.616	-0.125	0.301
-613.273	-42.493	0.506	0.262
-612.259	800.000	-0.082	-0.352
-611.244	800.000	0.078	0.255
-610.230	-15.753	-0.157	0.102
-609.215	20.154	-0.253	-0.207
-608.201	-200.000	0.008	0.116
-607.186	-200.000	0.029	-0.338
-606.171	-200.000	-0.100	0.000
-605.157	125.354	-0.162	-0.208
-604.142	-200.000	-0.012	-0.239
-603.128	-200.000	0.060	-0.365
-602.113	-113.372	0.194	-0.039
-601.098	-65.831	0.476	-0.194
-600.084	280.121	-0.140	-0.254
-599.069	-51.103	0.137	-0.065
-598.055	-73.809	-0.214	0.079
-597.040	-162.754	0.270	0.013
-596.025	-74.064	-0.229	-0.084
-595.011	42.365	0.062	-0.057
-593.996	18.008	-0.113	0.092
-592.982	-152.267	-0.067	0.005
-591.967	-100.081	0.178	0.045
-590.952	-149.018	0.157	0.013
-589.938	-200.000	0.011	0.265
-588.923	-200.000	0.049	0.284
-587.909	-105.725	-0.094	0.021
-586.894	-47.264	0.102	-0.051
-585.879	178.172	0.135	-0.200
-584.865	-44.105	-0.138	0.071
-583.850	0.274	-0.335	-0.242
-582.836	-158.102	0.096	0.006
-581.821	-185.038	-0.180	-0.003
-580.806	60.714	0.226	0.227
-579.792	-200.000	0.059	0.286
-578.777	-58.770	-0.195	0.086
-577.763	181.809	-0.111	-0.166
-576.748	574.903	0.042	0.104
-575.733	250.859	0.098	0.169
-574.719	-17.653	-0.263	-0.168
-573.704	355.639	0.140	-0.283
-572.690	73.629	-0.118	-0.125
-571.675	-59.821	0.207	-0.090
-570.661	-200.000	0.001	0.068
-569.646	-141.157	-0.087	0.009
-568.631	-200.000	-0.001	-0.058
-567.617	-200.000	0.021	0.176
-566.602	148.597	0.260	0.356
-565.588	13.882	-0.091	0.072
-564.573	800.000	-0.049	0.159
-563.558	27.138	0.061	0.052
-562.544	-18.101	0.278	0.177
-561.529	-200.000	-0.039	0.236
-560.515	-54.698	0.170	0.078
-559.500	78.617	0.233	0.252
-558.485	49.275	-0.137	-0.131
-557.471	177.739	-0.056	-0.083
-556.456	-19.423	-0.060	0.037
-555.442	0.804	-0.207	0.151
-554.427	-95.199	-0.250	-0.068
-553.412	-3.520	-0.147	-0.103
-552.398	-39.016	-0.215	-0.115
-551.383	-31.428	-0.053	-0.030
-550.369	800.000	-0.015	0.045
-549.354	172.668	0.042	-0.061
-548.339	105.313	-0.111	0.133
-547.325	-200.000	0.007	-0.076
-546.310	-51.173	-0.250	0.119
-545.296	-9.119	-0.268	-0.182
-544.281	-200.000	0.006	-0.163
-543.266	-200.000	-0.023	-0.281
-542.252	81.075	0.034	0.037
-541.237	800.000	-0.033	-0.121
-540.223	-186.726	0.368	0.005
-539.208	800.000	-0.057	0.223
-538.193	-74.420	0.100	0.037
-537.179	-3.361	-0.367	0.259
-536.164	800.000	0.029	0.111
-535.150	-200.000	-0.011	-0.191
-534.135	-200.000	0.031	-0.187
-533.121	-12.637	0.167	0.110
-532.106	11.104	-0.185	-0.143
-531.091	64.587	0.070	-0.071
-530.077	-120.752	0.091	0.016
-529.062	-2.115	-0.242	-0.172
-528.048	-19.711	0.201	-0.126
-527.033	-0.165	-0.142	0.102
-526.018	-98.245	0.069	0.018
-525.004	-11.679	0.084	0.056
-523.989	252.075	0.081	-0.140
-522.975	369.704	-0.101	0.207
-521.960	800.000	-0.060	-0.169
-520.945	98.797	-0.036	-0.043
-519.931	55.493	-0.145	0.142
-518.916	42.243	-0.088	0.081
-517.902	-200.000	-0.031	0.203
-516.887	7.589	-0.115	0.087
-515.872	-197.660	-0.135	-0.001
-514.858	-99.837	0.197	0.050
-513.843	60.387	0.045	0.045
-512.829	-40.827	-0.109	0.057
-511.814	21.499	-0.057	0.047
-510.799	91.513	-0.153	-0.174
-509.785	800.000	0.078	0.270
-508.770	237.859	-0.058	0.097
-507.756	-200.000	0.011	-0.081
-506.741	-20.078	0.201	0.126
-505.726	-200.000	-0.009	-0.356
-504.712	-200.000	-0.031	-0.215
-503.697	800.000	0.077	0.223
-502.683	-116.417	0.111	-0.021
-501.668	-4.152	-0.249	-0.175
-500.653	-59.175	0.096	-0.042
-499.639	-164.130	-0.442	0.021
-498.624	568.586	0.082	-0.202
-497.610	8.981	-0.114	0.087
-496.595	-200.000	0.042	-0.321
-495.581	-139.254	-0.548	0.060
-494.566	-114.017	0.442	0.087
-493.551	4.913	-0.089	0.066
-492.537	332.909	-0.047	0.091
-491.522	-200.000	-0.031	0.250
-490.508	-93.136	-0.131	-0.037
-489.493	-70.093	-0.343	0.132
-488.478	146.523	0.172	0.234
-487.464	-106.906	-0.184	0.041
-486.449	132.978	0.176	-0.230
-485.435	800.000	-0.038	-0.159
-484.420	-200.000	-0.080	0.358
-483.405	15.220	-0.009	-0.007
-482.391	-75.662	0.086	-0.031
-481.376	116.196	-0.109	0.135
-480.362	-131.274	-0.143	-0.019
-479.347	-109.486	-0.405	-0.087
-478.332	53.885	0.130	-0.127
-477.318	-14.747	-0.079	0.051
-476.303	38.318	0.153	0.138
-475.289	102.036	0.067	0.079
-474.274	164.657	-0.084	0.120
-473.259	-122.295	0.221	0.036
-472.245	12.800	0.077	-0.060
-471.230	-200.000	-0.007	-0.210
-470.216	-200.000	0.058	-0.318
-469.201	249.086	-0.246	0.422
-468.186	-52.520	-0.184	-0.086
-467.172	612.473	0.082	0.209
-466.157	45.233	-0.031	0.029
-465.143	-162.768	0.419	-0.021
-464.128	800.000	-0.038	0.110
-463.113	-200.000	0.044	-0.385
-462.099	-44.902	-0.031	0.016
-461.084	800.000	0.084	0.272
-460.070	-151.520	0.235	0.018
-459.055	-42.496	-0.226	-0.117
-458.040	68.462	-0.184	-0.190
-457.026	-200.000	0.009	0.165
-456.011	183.056	0.183	0.273
-454.997	562.625	-0.088	0.214
-453.982	800.000	0.056	-0.231
-452.968	77.349	-0.295	-0.317
-451.953	-176.235	-0.221	-0.006
-450.938	-127.833	-0.189	0.028
-449.924	-97.114	-0.074	-0.020
-448.909	-57.002	-0.273	0.121
-447.895	-50.951	-0.041	-0.020
-446.880	275.775	-0.068	-0.122
-445.865	800.000	0.049	0.210
-444.851	78.153	-0.127	-0.137
-443.836	-161.249	0.155	0.008
-442.822	-194.145	0.311	0.003
-441.807	-200.000	-0.038	-0.286
-440.792	-200.000	-0.009	-0.195
-439.778	-135.634	-0.295	-0.035
-438.763	584.268	-0.098	0.243
-437.749	-200.000	0.017	-0.189
-436.734	-200.000	0.057	-0.383
-435.719	800.000	-0.031	0.094
-434.705	84.341	0.224	-0.248
-433.690	-179.173	0.103	0.002
-432.676	145.706	-0.154	-0.209
-431.661	-73.967	-0.290	0.106
-430.646	800.000	0.044	0.164
-429.632	-130.993	-0.226	-0.030
-428.617	432.868	-0.140	-0.306
-427.603	-200.000	0.001	-0.415
-426.588	800.000	-0.019	0.065
-425.573	61.042	-0.119	-0.119
-424.559	260.913	0.088	0.153
-423.544	566.775	-0.096	-0.235
-422.530	55.806	0.023	0.022
-421.515	800.000	0.065	0.250
-420.500	415.124	0.068	0.147
-419.486	13.139	-0.232	0.181
-418.471	-200.000	-0.000	0.044
-417.457	-191.856	-0.131	0.001
-416.442	-77.722	0.265	0.092
-415.428	4.987	0.178	0.132
-414.413	-79.074	0.258	-0.089
-413.398	71.798	-0.225	0.236
-412.384	30.468	-0.284	-0.245
-411.369	52.877	-0.034	0.033
-410.355	29.882	0.110	-0.094
-409.340	213.024	0.147	0.234
-408.325	-28.097	-0.114	0.067
-407.311	41.498	0.190	0.173
-406.296	76.357	-0.254	0.272
-405.282	-200.000	0.043	-0.231
-404.267	-200.000	0.007	-0.237
-403.252	75.747	0.189	0.202
-402.238	224.409	-0.131	-0.213
-401.223	-101.829	-0.280	-0.068
-400.209	721.994	0.078	-0.209
-399.194	800.000	0.046	-0.201
-398.179	-200.000	0.004	-0.136
-397.165	-49.985	0.222	0.106
-396.150	39.474	0.115	0.104
-395.136	111.863	0.157	0.191
-394.121	394.416	-0.097	0.204
-393.106	-57.393	-0.294	-0.130
-392.092	-92.363	-0.145	-0.041
-391.077	70.862	-0.093	-0.097
-390.063	64.420	-0.158	-0.160
-389.048	-154.350	0.393	-0.027
-388.033	-61.661	0.138	-0.058
-387.019	-93.265	0.218	-0.061
-386.004	800.000	0.069	-0.276
-384.990	-200.000	-0.001	-0.017
-383.975	-97.074	-0.044	-0.012
-382.960	-119.416	-0.148	-0.026
-381.946	-129.718	0.210	0.029
-380.931	-200.000	0.031	0.243
-379.917	800.000	0.023	0.097
-378.902	800.000	0.058	-0.226
-377.888	309.576	-0.136	0.255
-376.873	-129.991	-0.225	0.031
-375.858	198.221	0.134	-0.206
-374.844	143.622	0.179	-0.241
-373.829	-200.000	0.061	0.285
-372.815	115.964	0.076	-0.094
-371.800	-121.200	-0.178	0.030
-370.785	13.130	-0.053	0.041
-369.771	-143.803	0.210	-0.020
-368.756	-65.144	0.148	0.060
-367.742	-200.000	0.015	-0.084
-366.727	32.844	0.040	-0.035
-365.712	-154.498	0.067	0.005
-364.698	96.632	-0.088	0.102
-363.683	-200.000	0.025	0.180
-362.669	-95.046	0.194	0.053
-361.654	800.000	0.090	-0.284
-360.639	-200.000	0.032	-0.338
-359.625	-2.275	-0.181	0.128
-358.610	800.000	0.038	0.114
-357.596	800.000	-0.102	0.326
-356.581	11.575	-0.181	-0.139
-355.566	-52.812	0.388	0.180
-354.552	-9.744	-0.428	0.287
-353.537	-156.719	0.350	0.022
-352.523	-108.440	0.364	-0.079
-351.508	-200.000	0.008	-0.086
-350.493	73.558	0.356	-0.376
-349.479	100.196	-0.156	-0.182
-348.464	-8.367	0.201	0.136
-347.450	191.139	-0.104	0.158
-346.435	206.189	-0.218	0.341
-345.420	126.629	0.119	0.152
-344.406	232.517	-0.032	0.053
-343.391	800.000	-0.042	0.143
-342.377	-135.327	-0.090	0.011
-341.362	496.055	0.043	-0.100
-340.348	-39.872	0.190	-0.100
-339.333	-44.465	0.138	0.070
-338.318	-200.000	-0.017	0.125
-337.304	-200.000	0.038	-0.170
-336.289	800.000	0.083	-0.268
-335.275	-146.547	-0.154	-0.013
-334.260	71.669	0.083	-0.087
-333.245	-91.854	-0.125	0.036
-332.231	539.638	-0.017	0.042
-331.216	69.879	-0.266	-0.276
-330.202	-200.000	-0.014	0.130
-329.187	-194.053	0.119	-0.001
-328.172	87.943	-0.229	0.255
-327.158	8.297	-0.037	-0.028
-326.143	-179.935	0.189	-0.004
-325.129	104.185	-0.114	0.135
-324.114	0.371	0.202	0.145
-323.099	-144.176	-0.017	-0.002
-322.085	-85.845	-0.302	0.094
-321.070	301.847	0.103	-0.192
-320.056	169.594	0.095	0.136
-319.041	3.884	-0.170	0.125
-318.026	201.127	0.255	0.394
-317.012	-96.324	0.382	0.102
-315.997	483.011	-0.171	0.390
-314.983	-105.636	0.195	0.044
-313.968	-24.350	0.133	0.080
-312.953	-19.820	-0.292	0.182
-311.939	225.587	0.076	-0.123
-310.924	800.000	0.050	0.147
-309.910	-58.346	0.131	0.057
-308.895	188.222	0.163	-0.245
-307.880	515.236	0.090	0.211
-306.866	27.308	-0.419	0.353
-305.851	47.493	0.115	0.108
-304.837	687.209	0.055	-0.145
-303.822	92.998	0.067	0.076
-302.807	-200.000	0.001	0.118
-301.793	-118.247	-0.084	0.015
-300.778	56.196	-0.349	0.340
-299.764	-48.391	-0.111	-0.054
-298.749	304.393	-0.138	-0.257
-297.735	-66.997	-0.384	-0.152
-296.720	-62.314	-0.104	-0.044
-295.705	-200.000	-0.028	0.286
-294.691	-4.825	-0.312	-0.216
-293.676	-8.906	-0.346	-0.233
-292.662	-100.720	-0.203	-0.050
-291.647	-200.000	0.006	-0.190
-290.632	-78.684	0.334	-0.114
-289.618	77.739	0.069	-0.074
-288.603	-187.035	-0.018	-0.000
-287.589	215.058	-0.265	0.422
-286.574	-200.000	0.047	0.233
-285.559	35.324	0.204	0.179
-284.545	165.410	0.046	-0.065
-283.530	-159.957	0.261	-0.014
-282.516	23.593	-0.113	-0.093
-281.501	-14.452	0.143	-0.093
-280.486	143.988	-0.149	0.200
-279.472	-200.000	0.007	0.106
-278.457	50.097	0.239	-0.226
-277.443	-87.020	-0.333	0.102
-276.428	800.000	0.079	0.227
-275.413	57.673	-0.134	0.131
-274.399	-1.741	-0.164	0.116
-273.384	40.440	-0.320	-0.289
-272.370	-200.000	-0.067	-0.383
-271.355	-52.729	-0.094	-0.044
-270.340	-102.218	-0.138	0.033
-269.326	-200.000	0.110	-0.491
-268.311	-35.504	-0.115	-0.062
-267.297	25.464	-0.083	0.070
-266.282	-184.174	0.104	-0.002
-265.267	-98.425	-0.038	0.010
-264.253	-200.000	-0.017	0.230
-263.238	800.000	-0.082	-0.354
-262.224	800.000	0.033	0.092
-261.209	93.267	0.080	0.091
-260.195	75.424	-0.018	0.019
-259.180	-112.746	0.389	-0.078
-258.165	-44.443	-0.057	0.029
-257.151	-134.876	0.230	-0.028
-256.136	-200.000	0.030	-0.177
-255.122	-5.614	0.532	0.366
-254.107	-95.701	0.179	-0.048
-253.092	-68.240	0.279	0.109
-252.078	88.671	0.058	0.065
-251.063	-72.829	0.485	0.179
-250.049	-154.008	0.203	0.014
-249.034	-95.771	-0.103	-0.028
-248.019	240.853	-0.045	-0.076
-247.005	402.334	0.032	-0.068
-245.990	688.143	-0.076	0.199
-244.976	83.405	-0.216	0.236
-243.961	77.915	0.231	-0.246
-242.946	-154.446	0.359	-0.024
-241.932	522.940	-0.093	-0.218
-240.917	800.000	0.017	-0.071
-239.903	87.044	0.179	0.198
-238.888	88.909	-0.056	-0.063
-237.873	79.211	-0.140	-0.150
-236.859	-162.341	-0.364	-0.018
-235.844	265.689	0.123	-0.215
-234.830	255.222	-0.129	0.222
-233.815	475.407	0.137	0.309
-232.800	-80.101	-0.164	-0.055
-231.786	-66.809	-0.140	0.055
-230.771	-166.525	0.315	0.013
-229.757	110.188	0.260	-0.313
-228.742	-200.000	0.062	-0.550
-227.727	-65.864	-0.244	0.098
-226.713	-90.688	0.306	0.088
-225.698	-106.013	0.417	-0.094
-224.684	-97.351	-0.303	-0.079
-223.669	-165.961	0.213	0.009
-222.655	-200.000	0.006	0.039
-221.640	-52.221	-0.131	-0.061
-220.625	-200.000	-0.374	0.000
-219.611	-129.163	-0.205	0.029
-218.596	-66.487	-0.344	0.137
-217.582	-200.000	0.022	0.118
-216.567	-74.247	0.180	-0.065
-215.552	-200.000	0.013	0.084
-214.538	93.121	-0.299	-0.338
-213.523	800.000	0.030	-0.103
-212.509	800.000	-0.052	0.149
-211.494	-55.632	-0.225	0.101
-210.479	-200.000	0.013	0.439
-209.465	-112.805	-0.117	0.023
-208.450	-124.629	0.276	0.043
-207.436	800.000	0.079	0.240
-206.421	41.177	0.274	-0.248
-205.406	-131.325	-0.150	-0.020
-204.392	-200.000	0.023	-0.165
-203.377	210.964	-0.222	-0.350
-202.363	-50.807	0.303	-0.143
-201.348	138.021	0.102	0.134
-200.333	415.887	0.148	0.315
-199.319	-144.073	-0.115	0.011
-198.304	-200.000	-0.002	0.159
-197.290	-38.054	-0.044	0.023
-196.275	-200.000	0.012	0.132
-195.260	738.345	-0.016	0.042
-194.246	261.400	0.127	0.220
-193.231	-83.468	0.271	0.087
-192.217	-86.678	-0.177	-0.054
-191.202	298.742	-0.027	0.050
-190.187	-114.272	-0.209	-0.040
-189.173	-200.000	-0.012	-0.160
-188.158	-80.696	0.252	-0.084
-187.144	-178.282	-0.238	-0.006
-186.129	132.129	-0.044	-0.057
-185.114	800.000	-0.056	0.209
-184.100	168.464	-0.196	0.279
-183.085	129.758	0.058	0.074
-182.071	41.681	-0.105	-0.095
-181.056	-200.000	-0.062	0.339
-180.042	-159.408	0.207	0.012
-179.027	523.004	-0.052	0.122
-178.012	800.000	-0.032	0.124
-176.998	242.019	0.125	0.208
-175.983	-200.000	0.015	-0.115
-174.969	46.210	0.077	0.071
-173.954	-47.697	-0.336	-0.163
-172.939	-84.901	0.110	0.034
-171.925	492.585	-0.070	-0.161
-170.910	212.499	0.280	-0.441
-169.896	-127.193	0.451	0.066
-168.881	-146.572	0.337	0.029
-167.866	55.278	-0.288	-0.278
-166.852	-200.000	0.072	-0.317
-165.837	289.315	0.097	0.175
-164.823	-114.715	-0.375	-0.072
-163.808	66.882	0.123	-0.125
-162.793	-133.306	0.132	-0.017
-161.779	253.944	-0.035	-0.059
-160.764	-72.608	0.187	0.069
-159.750	-51.719	0.474	0.221
-158.735	-130.682	0.129	0.017
-157.720	-35.971	-0.134	0.073
-156.706	32.115	-0.071	0.061
-155.691	288.478	-0.145	-0.263
-154.677	800.000	0.111	-0.392
-153.662	-4.072	0.406	-0.281
-152.647	-157.954	0.225	0.013
-151.633	800.000	0.042	-0.135
-150.618	-68.582	0.170	0.066
-149.604	-90.697	0.365	0.105
-148.589	-148.187	-0.080	-0.007
-147.574	-102.378	-0.210	-0.050
-146.560	68.396	-0.214	-0.219
-145.545	136.524	-0.110	0.144
-144.531	57.687	0.101	0.098
-143.516	-114.618	0.160	-0.031
-142.502	259.658	0.195	-0.336
-141.487	-58.444	-0.048	-0.021
-140.472	-178.865	-0.310	0.007
-139.458	181.933	0.190	0.279
-138.443	800.000	0.093	-0.262
-137.429	-125.858	-0.161	-0.024
-136.414	229.531	-0.068	-0.112
-135.399	544.344	0.106	0.252
-134.385	-135.251	-0.212	-0.025
-133.370	-0.625	-0.151	0.107
-132.356	800.000	0.061	0.257
-131.341	-107.798	0.360	0.078
-130.326	12.760	0.165	0.127
-129.312	37.867	0.216	0.192
-128.297	-119.407	0.124	0.022
-127.283	-200.000	0.006	-0.044
-126.268	-94.133	0.152	0.042
-125.253	800.000	-0.032	0.097
-124.239	-76.870	-0.220	0.077
-123.224	-200.000	-0.011	-0.075
-122.210	-200.000	0.023	0.243
-121.195	431.504	-0.008	-0.017
-120.180	789.677	-0.071	-0.194
-119.166	95.957	0.212	0.241
-118.151	676.844	-0.018	-0.047
-117.137	-29.453	0.200	-0.114
-116.122	800.000	-0.078	-0.259
-115.107	800.000	0.085	-0.272
-114.093	-4.026	-0.266	-0.184
-113.078	-11.654	0.233	-0.152
-112.064	6.579	0.190	0.141
-111.049	129.765	0.140	0.179
-110.034	-112.490	0.162	-0.032
-109.020	-180.453	-0.239	-0.005
-108.005	-200.000	-0.041	0.263
-106.991	780.765	0.062	0.170
-105.976	-9.583	0.123	0.082
-104.962	-73.730	0.079	0.029
-103.947	343.660	-0.035	-0.069
-102.932	800.000	-0.077	-0.232
-101.918	2.159	0.086	0.062
-100.903	-115.725	0.327	0.061
-99.889	195.992	-0.084	-0.128
-98.874	-200.000	0.020	0.118
-97.859	385.887	0.035	0.071
-96.845	215.941	-0.068	-0.108
-95.830	545.898	0.093	-0.223
-94.816	-89.112	-0.280	-0.082
-93.801	-200.000	0.008	-0.158
-92.786	114.357	0.156	-0.190
-91.772	150.192	-0.142	0.192
-90.757	-55.912	-0.229	-0.102
-89.743	302.708	0.041	0.075
-88.728	-60.058	0.138	-0.059
-87.713	100.708	-0.378	-0.437
-86.699	161.205	0.077	-0.107
-85.684	87.606	0.286	-0.316
-84.670	-15.089	0.222	-0.142
-83.655	25.490	-0.180	-0.149
-82.640	119.304	0.202	-0.249
-81.626	523.488	-0.098	-0.229
-80.611	430.484	0.080	-0.173
-79.597	-125.346	-0.134	-0.020
-78.582	-200.000	0.049	0.281
-77.567	57.477	0.223	0.217
-76.553	-200.000	0.074	0.427
-75.538	71.810	-0.124	-0.129
-74.524	-200.000	0.019	-0.301
-73.509	35.497	-0.369	-0.322
-72.494	800.000	-0.024	0.097
-71.480	800.000	-0.069	0.229
-70.465	-61.919	-0.285	-0.119
-69.451	-21.395	-0.339	0.206
-68.436	175.658	-0.015	-0.021
-67.422	-200.000	-0.029	-0.162
-66.407	-173.654	-0.196	-0.006
-65.392	-200.000	0.056	-0.335
-64.378	-131.400	0.026	-0.003
-63.363	-200.000	0.020	0.250
-62.349	-200.000	0.008	0.110
-61.334	-17.234	-0.885	-0.555
-60.319	218.511	0.358	0.568
-59.305	800.000	-0.295	-0.958
-58.290	800.000	0.315	0.950
-57.276	501.432	0.730	1.677
-56.261	-200.000	85.477	504.103
-55.246	542.164	1378.372	3268.603
-54.232	184.092	2596.027	3822.029
-53.217	119.990	2224.669	2744.001
-52.203	49.237	1674.546	1565.653
-51.188	41.782	1406.639	1268.059
-50.173	38.369	1362.792	1207.461
-49.159	56.888	1404.896	1361.092
-48.144	62.040	1423.466	1411.266
-47.130	42.182	1381.876	1248.029
-46.115	38.502	1364.423	1209.532
-45.100	38.312	1359.808	1204.224
-44.086	38.190	1357.190	1201.107
-43.071	38.157	1354.971	1198.891
-42.057	38.136	1353.177	1197.132
-41.042	38.155	1351.388	1195.618
-40.027	38.185	1350.048	1194.568
-39.013	38.286	1347.461	1192.847
-37.998	38.167	1346.301	1191.050
-36.984	38.282	1344.113	1189.764
-35.969	38.361	1342.159	1188.464
-34.954	38.386	1340.368	1186.988
-33.940	38.414	1339.157	1186.035
-32.925	38.493	1337.498	1184.998
-31.911	38.424	1336.501	1183.654
-30.896	38.450	1335.179	1182.591
-29.881	38.341	1333.834	1180.696
-28.867	38.411	1332.182	1179.605
-27.852	38.529	1330.624	1178.890
-26.838	38.419	1329.369	1177.069
-25.823	38.424	1328.224	1176.040
-24.809	38.340	1326.901	1174.316
-23.794	38.511	1325.154	1173.750
-22.779	38.411	1323.514	1171.654
-21.765	38.487	1321.927	1170.655
-20.750	38.533	1320.426	1169.553
-19.736	38.309	1319.725	1167.552
-18.721	38.337	1318.338	1166.444
-17.706	38.340	1317.079	1165.304
-16.692	38.277	1316.152	1164.058
-15.677	38.391	1314.881	1163.568
-14.663	38.289	1313.752	1161.918
-13.648	38.392	1312.317	1161.210
-12.633	38.286	1311.514	1159.830
-11.619	38.305	1310.857	1159.314
-10.604	38.419	1309.529	1158.764
-9.590	38.255	1308.858	1157.154
-8.575	38.329	1307.801	1156.614
-7.560	38.352	1306.955	1155.954
-6.546	38.253	1306.377	1154.811
-5.531	38.265	1305.255	1153.847
-4.517	38.238	1304.475	1152.951
-3.502	38.290	1303.824	1152.639
-2.487	38.329	1302.304	1151.478
-1.473	38.270	1298.446	1147.674
-0.458	36.791	1282.862	1125.266
0.556	32.850	1262.866	1079.962
1.571	28.388	1266.168	1057.021
2.586	27.006	1281.079	1061.299
3.600	25.577	1269.431	1043.275
4.615	19.324	1193.585	946.633
5.629	9.832	1113.767	834.389
6.644	5.197	1091.271	793.937
7.659	4.936	1088.424	790.472
8.673	5.082	1087.438	790.428
9.688	5.145	1086.126	789.722
10.702	5.363	1084.606	789.649
11.717	10.515	1092.037	821.133
12.731	18.712	1104.406	872.175
13.746	21.081	1105.939	885.345
14.761	19.536	1103.880	875.786
15.775	18.405	1101.607	868.178
16.790	17.550	1098.905	861.648
17.804	16.638	1097.717	856.029
18.819	16.295	1096.775	853.486
19.834	16.160	1095.462	851.708
20.848	15.893	1094.950	849.887
21.863	15.695	1094.198	848.228
22.877	15.538	1093.209	846.592
23.892	15.422	1092.855	845.662
24.907	15.508	1091.849	845.240
25.921	15.586	1090.751	844.710
26.936	15.577	1089.590	843.689
27.950	15.700	1087.701	842.767
28.965	15.687	1086.385	841.608
29.980	15.874	1084.160	840.743
30.994	15.878	1083.955	840.531
32.009	15.835	1082.934	839.450
33.023	15.896	1081.434	838.516
34.038	15.631	1080.960	836.755
35.053	15.727	1079.502	836.032
36.067	15.760	1078.601	835.425
37.082	15.825	1077.676	834.954
38.096	15.809	1077.393	834.585
39.111	15.738	1076.878	833.756
40.126	15.665	1075.508	832.261
41.140	15.369	1074.336	829.818
42.155	15.583	1072.454	829.348
43.169	15.286	1071.895	827.376
44.184	15.471	1070.447	827.099
45.199	15.388	1069.634	825.989
46.213	15.422	1068.410	825.137
47.228	15.664	1067.375	825.455
48.242	15.619	1066.792	824.709
49.257	15.630	1065.211	823.466
50.271	15.729	1064.419	823.268
51.286	15.802	1063.479	822.822
52.301	15.705	1062.259	821.331
53.315	15.428	1061.919	819.646
54.330	15.577	1059.812	818.671
55.344	15.556	1059.259	818.071
56.359	15.667	1058.134	817.668
57.374	15.549	1057.575	816.588
58.388	15.379	1057.258	815.449
59.403	15.389	1055.769	814.273
60.417	15.461	1055.053	814.000
61.432	15.379	1054.156	812.837
62.447	15.319	1053.341	811.848
63.461	15.355	1052.773	811.514
64.476	15.328	1051.622	810.424
65.490	15.329	1050.489	809.483
66.505	15.308	1050.056	808.977
67.520	15.344	1049.488	808.639
68.534	15.345	1048.516	807.823
69.549	15.398	1048.300	807.844
70.563	15.319	1047.174	806.521
71.578	15.190	1046.447	805.273
72.593	15.170	1045.836	804.634
73.607	15.141	1044.970	803.756
74.622	15.235	1044.018	803.403
75.636	15.275	1043.406	803.055
76.651	15.210	1042.902	802.285
77.666	15.102	1042.147	801.116
78.680	15.302	1041.062	801.169
79.695	15.317	1040.942	801.074
80.709	15.418	1039.690	800.523
81.724	15.526	1039.220	800.604
82.739	15.536	1038.270	799.849
83.753	15.583	1038.205	799.951
84.768	15.684	1037.721	799.988
85.782	15.928	1036.174	799.883
86.797	15.747	1035.440	798.391
87.812	15.603	1034.646	797.023
88.826	15.798	1032.965	796.581
89.841	15.797	1032.263	795.962
90.855	15.821	1031.608	795.505
91.870	15.787	1030.820	794.663
92.884	15.901	1029.601	794.191
93.899	15.837	1029.011	793.366
94.914	15.912	1028.096	792.942
95.928	15.897	1027.122	792.051
96.943	15.771	1026.336	790.780
97.957	15.638	1025.391	789.361
98.972	15.689	1024.664	788.970
99.987	15.919	1023.430	789.025
101.001	15.782	1022.831	787.853
102.016	15.841	1021.363	786.928
103.030	15.820	1021.158	786.603
104.045	15.799	1020.049	785.582
105.060	15.614	1019.241	784.026
106.074	15.422	1018.671	782.623
107.089	15.471	1017.338	781.759
108.103	15.502	1016.157	780.926
109.118	15.472	1015.352	780.098
110.133	15.262	1014.952	778.747
111.147	15.440	1013.760	778.589
112.162	15.406	1013.076	777.835
113.176	15.574	1012.148	777.836
114.191	15.556	1011.365	777.079
115.206	15.528	1010.545	776.250
116.220	15.550	1009.699	775.633
117.235	15.577	1008.386	774.684
118.249	15.516	1008.035	774.064
119.264	15.558	1006.914	773.327
120.279	15.368	1006.433	772.013
121.293	15.368	1005.445	771.187
122.308	15.374	1004.707	770.582
123.322	15.411	1003.548	769.793
124.337	15.430	1002.361	768.902
125.352	15.406	1001.324	767.932
126.366	15.444	1000.156	767.141
127.381	15.411	998.937	765.988
128.395	15.404	998.122	765.263
129.410	15.537	997.070	764.992
130.424	15.533	996.194	764.235
131.439	15.527	995.935	763.942
132.454	15.727	994.903	763.991
133.468	15.547	994.302	762.647
134.483	15.575	993.248	761.894
135.497	15.708	992.322	761.718
136.512	15.724	991.332	760.966
137.527	15.595	990.740	759.859
138.541	15.707	989.918	759.669
139.556	15.630	989.535	758.958
140.570	15.744	988.702	758.768
141.585	15.949	987.293	758.541
142.600	15.919	986.776	757.946
143.614	15.888	986.174	757.276
144.629	15.977	985.141	756.815
145.643	15.795	984.552	755.476
146.658	15.769	983.032	754.126
147.673	15.683	982.313	753.124
148.687	15.646	981.384	752.181
149.702	15.645	980.161	751.171
150.716	15.607	979.274	750.256
151.731	15.696	978.749	750.184
152.746	15.612	977.962	749.140
153.760	15.672	977.264	748.805
154.775	15.776	976.906	748.929
155.789	15.820	976.245	748.552
156.804	15.829	975.690	748.102
157.819	15.823	975.022	747.497
158.833	15.958	974.368	747.528
159.848	15.919	973.456	746.588
160.862	16.023	972.283	746.085
161.877	15.846	971.227	744.423
162.892	15.789	969.986	743.156
163.906	15.772	969.132	742.359
164.921	15.651	968.640	741.383
165.935	15.863	967.398	741.300
166.950	15.762	967.070	740.542
167.964	15.943	965.851	740.337
168.979	15.827	965.043	739.142
169.994	15.891	963.858	738.452
171.008	15.771	963.805	737.817
172.023	15.947	962.811	737.760
173.037	15.935	962.320	737.268
174.052	15.904	961.626	736.536
175.067	15.827	960.579	735.334
176.081	15.744	960.198	734.615
177.096	15.927	959.308	734.666
178.110	15.764	959.163	733.778
179.125	15.758	958.179	732.935
180.140	15.809	957.529	732.595
181.154	15.956	957.596	733.220
182.169	15.976	956.949	732.750
183.183	15.992	956.056	732.069
184.198	15.922	955.804	731.508
185.213	15.915	955.004	730.799
186.227	16.072	954.047	730.682
187.242	16.189	953.302	730.553
188.256	16.271	952.685	730.371
189.271	16.164	951.950	729.284
190.286	16.117	950.841	728.165
191.300	15.753	949.941	725.842
192.315	15.761	949.338	725.350
193.329	15.737	949.049	724.961
194.344	15.872	948.340	724.936
195.359	16.001	947.579	724.846
196.373	16.111	947.317	725.056
197.388	16.233	946.460	724.858
198.402	16.409	946.396	725.500
199.417	16.375	945.619	724.698
200.432	16.380	945.318	724.423
201.446	16.476	944.633	724.245
202.461	16.567	943.999	724.084
203.475	16.470	943.670	723.354
204.490	16.260	942.692	721.640
205.504	16.327	941.674	721.083
206.519	16.223	941.488	720.435
207.534	16.306	940.248	719.776
208.548	16.337	939.533	719.298
209.563	16.346	938.697	718.629
210.577	16.585	937.875	718.951
211.592	16.365	938.154	718.170
212.607	16.591	936.504	717.801
213.621	16.594	936.043	717.396
214.636	16.466	935.419	716.314
215.650	16.518	934.993	716.144
216.665	16.507	933.936	715.224
217.680	16.640	933.258	715.204
218.694	16.415	933.389	714.289
219.709	16.528	932.318	713.885
220.723	16.544	931.461	713.234
221.738	16.558	930.758	712.689
222.753	16.599	930.369	712.502
223.767	16.585	930.042	712.127
224.782	16.735	928.929	711.842
225.796	16.758	928.053	711.205
226.811	16.744	927.540	710.692
227.826	16.637	927.006	709.771
228.840	16.686	925.933	709.091
229.855	16.478	925.746	708.013
230.869	16.654	924.413	707.666
231.884	16.586	924.029	707.029
232.899	16.513	923.214	706.036
233.913	16.587	922.545	705.771
234.928	16.568	921.576	704.888
235.942	16.518	921.247	704.368
236.957	16.511	920.572	703.761
237.972	16.581	919.850	703.437
238.986	16.523	919.550	702.904
240.001	16.694	918.607	702.830
241.015	16.567	918.266	701.982
242.030	16.667	917.506	701.751
243.045	16.758	916.872	701.581
244.059	16.795	915.829	700.873
245.074	16.706	915.933	700.526
246.088	16.757	914.901	699.883
247.103	16.882	914.730	700.205
248.117	16.929	914.245	699.969
249.132	17.128	913.787	700.376
250.147	17.128	913.077	699.769
251.161	17.140	912.289	699.151
252.176	17.274	911.824	699.284
253.190	17.217	911.315	698.601
254.205	17.340	910.512	698.428
255.220	17.323	909.580	697.580
256.234	17.350	908.967	697.157
257.249	17.422	907.931	696.596
258.263	17.169	907.732	695.350
259.278	17.431	906.680	695.552
260.293	17.411	906.075	694.945
261.307	17.416	905.656	694.583
262.322	17.422	905.018	694.057
263.336	17.569	904.093	693.884
264.351	17.592	903.315	693.319
265.366	17.593	902.611	692.720
266.380	17.359	902.436	691.576
267.395	17.463	901.568	691.270
268.409	17.412	900.432	690.132
269.424	17.401	900.063	689.743
270.439	17.368	899.271	688.943
271.453	17.343	898.640	688.296
272.468	17.392	897.869	687.842
273.482	17.464	897.168	687.537
274.497	17.437	896.802	687.087
275.512	17.413	896.407	686.626
276.526	17.451	895.773	686.233
277.541	17.450	895.330	685.828
278.555	17.615	894.684	685.935
279.570	17.620	894.029	685.395
280.585	17.753	893.241	685.261
281.599	17.675	892.218	684.106
282.614	17.525	891.902	683.202
283.628	17.453	891.630	682.643
284.643	17.559	890.700	682.293
285.657	17.615	890.351	682.193
286.672	17.590	889.642	681.489
287.687	17.589	888.963	680.902
288.701	17.512	888.623	680.274
289.716	17.578	887.787	679.836
290.730	17.515	887.593	679.378
291.745	17.674	886.555	679.157
292.760	17.639	886.241	678.716
293.774	17.788	885.206	678.457
294.789	17.746	884.499	677.689
295.803	17.655	883.940	676.841
296.818	17.689	883.271	676.400
297.833	17.850	882.180	676.145
298.847	17.698	881.911	675.277
299.862	17.808	880.951	674.917
300.876	17.851	880.850	674.950
301.891	17.752	880.794	674.455
302.906	18.091	879.608	674.825
303.920	18.087	879.063	674.334
304.935	18.094	878.751	674.059
305.949	18.180	877.885	673.675
306.964	17.991	877.192	672.342
307.979	18.023	876.732	672.054
308.993	18.119	875.890	671.726
310.008	18.183	875.334	671.494
311.022	18.084	874.810	670.641
312.037	17.909	874.594	669.733
313.052	17.863	873.723	668.825
314.066	17.874	872.760	668.071
315.081	17.874	872.708	667.974
316.095	17.881	871.981	667.385
317.110	17.804	871.462	666.629
318.125	17.876	870.771	666.321
319.139	17.883	870.408	666.012
320.154	17.791	870.040	665.312
321.168	17.988	869.312	665.465
322.183	18.029	868.637	665.048
323.197	18.068	868.187	664.798
324.212	18.101	867.854	664.609
325.227	18.045	866.886	663.591
326.241	18.079	866.029	663.009
327.256	17.888	865.675	661.940
328.270	18.011	865.280	662.054
329.285	18.131	864.385	661.776
330.300	17.922	863.696	660.383
331.314	17.974	863.807	660.610
332.329	18.023	863.558	660.551
333.343	18.143	862.959	660.499
334.358	18.316	862.160	660.497
335.373	18.239	862.034	660.042
336.387	18.217	861.927	659.820
337.402	18.373	861.480	660.020
338.416	18.361	860.878	659.452
339.431	18.498	860.309	659.485
340.446	18.369	860.072	658.750
341.460	18.491	859.846	658.988
342.475	18.480	859.310	658.477
343.489	18.658	858.638	658.584
344.504	18.700	858.201	658.353
345.519	18.639	857.828	657.775
346.533	18.575	857.491	657.213
347.548	18.550	856.444	656.259
348.562	18.386	855.986	655.220
349.577	18.357	855.299	654.526
350.592	18.293	854.718	653.778
351.606	18.482	853.868	653.792
352.621	18.473	853.236	653.216
353.635	18.223	853.194	652.173
354.650	18.567	852.123	652.605
355.665	18.664	851.073	652.113
356.679	18.467	851.013	651.261
357.694	18.593	850.427	651.235
358.708	18.623	849.625	650.676
359.723	18.517	849.427	650.065
360.738	18.671	848.614	649.967
361.752	18.476	848.325	648.950
362.767	18.670	847.285	648.831
363.781	18.696	846.924	648.598
364.796	18.976	846.366	649.169
365.810	19.029	846.182	649.170
366.825	18.900	845.866	648.382
367.840	18.881	845.338	647.850
368.854	18.993	844.516	647.584
369.869	18.831	844.103	646.601
370.883	18.869	843.791	646.447
371.898	19.092	843.277	646.832
372.913	19.159	842.926	646.758
373.927	18.892	842.539	645.402
374.942	19.046	841.738	645.309
375.956	19.029	841.634	645.108
376.971	19.076	841.284	644.961
377.986	19.161	840.710	644.779
379.000	19.284	840.220	644.806
380.015	19.184	839.568	643.876
381.029	19.145	839.023	643.255
382.044	19.192	838.749	643.165
383.059	19.195	837.702	642.317
384.073	19.116	837.220	641.594
385.088	19.012	836.785	640.816
386.102	19.015	836.193	640.319
387.117	19.030	835.495	639.784
388.132	19.132	834.777	639.554
389.146	18.989	834.444	638.715
390.161	19.245	833.973	639.247
391.175	19.247	833.553	638.875
392.190	19.106	833.117	637.960
393.205	18.989	832.423	636.942
394.219	19.078	832.076	636.949
395.234	19.127	831.535	636.658
396.248	18.936	831.359	635.763
397.263	19.052	830.624	635.573
398.278	18.934	830.032	634.626
399.292	18.942	830.120	634.666
400.307	18.969	829.219	634.023
401.321	19.013	829.044	633.995
402.336	19.148	828.264	633.838
403.350	19.128	827.894	633.428
404.365	19.145	827.616	633.221
405.380	19.595	826.513	633.972
406.394	19.568	826.226	633.598
407.409	19.507	825.922	633.086
408.423	19.492	825.838	632.909
409.438	19.618	825.215	632.835
410.453	19.510	825.097	632.293
411.467	19.630	824.532	632.244
412.482	19.718	824.155	632.221
413.496	19.733	823.458	631.687
414.511	19.651	823.314	631.219
415.526	19.729	822.569	630.879
416.540	19.671	822.014	630.184
417.555	19.775	821.601	630.190
418.569	19.777	821.127	629.779
419.584	19.712	820.990	629.381
420.599	19.688	820.501	628.864
421.613	151.724	1367.660	1774.661
422.628	132.113	1447.419	1774.794
