DTS Sentinel unit serial number:	SN413079Multiplexer serial number:	ORYXHardware model number:	OX4-SRSoftware version number:	ORYX F/W v4.00 Oryx Data Collector v3.7.2.0data status	okinstallation	princeton_trtdifferential loss correction	single-endedforward channel	channel 1reverse channel	N/Adate	2019/09/13time	05:14:35forward acquisition time	60.00reverse acquisition time	0.00gamma	496.2192k internal	0.2335k external	0.2335temperature offset calibration	1.0161default loss term (dB/km)	0.3790temperature slope calibration	1.0000multiplexer offset coefficient	1.0000multiplexer slope coefficient	1.0000fibre end	0.00T internal ref (°C)	26.37T ext. ref 1 (°C)	4.05T ext. ref 2 (°C)	20.84length (m)	temperature (°C)	Stokes	anti-Stokes-747.200	-200.000	0.010	-0.071
-746.185	-97.327	-0.500	0.131
-745.171	12.792	0.162	0.126
-744.156	-157.469	-0.327	-0.020
-743.142	800.000	0.145	0.463
-742.127	-124.451	-0.230	-0.036
-741.112	-200.000	0.001	-0.286
-740.098	-18.812	0.094	0.059
-739.083	-131.156	0.124	0.017
-738.069	-69.761	-0.280	-0.107
-737.054	800.000	0.093	0.407
-736.039	800.000	-0.005	0.019
-735.025	-91.170	0.438	0.126
-734.010	-162.897	-0.313	-0.015
-732.996	276.052	0.200	-0.356
-731.981	-54.217	0.163	0.074
-730.966	477.567	-0.037	0.084
-729.952	-50.369	0.334	-0.158
-728.937	-101.080	-0.509	-0.125
-727.923	-116.042	-0.061	0.011
-726.908	60.397	0.169	-0.168
-725.894	-200.000	-0.010	-0.314
-724.879	-200.000	-0.038	0.408
-723.864	-90.453	-0.131	0.038
-722.850	-95.611	0.389	0.105
-721.835	-200.000	-0.004	-0.303
-720.821	-200.000	-0.005	-0.155
-719.806	800.000	0.070	-0.294
-718.791	388.833	-0.151	0.314
-717.777	-15.185	-0.194	0.125
-716.762	65.840	-0.105	-0.107
-715.748	-146.466	-0.434	0.038
-714.733	-91.357	0.282	-0.081
-713.718	318.457	-0.048	-0.091
-712.704	-200.000	-0.001	-0.313
-711.689	-77.170	-0.046	-0.016
-710.675	105.766	-0.201	0.239
-709.660	-22.720	0.041	-0.025
-708.645	-200.000	-0.002	-0.379
-707.631	118.949	-0.200	0.247
-706.616	-114.730	-0.229	-0.044
-705.602	-14.237	0.152	0.098
-704.587	800.000	0.043	-0.181
-703.572	5.793	0.096	-0.071
-702.558	-200.000	0.004	-0.252
-701.543	-30.696	-0.014	0.008
-700.529	-96.668	0.073	0.019
-699.514	-143.569	-0.488	0.047
-698.499	-88.624	0.307	-0.092
-697.485	617.932	0.063	0.158
-696.470	-91.392	-0.205	0.059
-695.456	-100.860	-0.265	0.065
-694.441	-146.005	0.428	0.038
-693.426	-84.695	0.102	0.032
-692.412	-4.617	-0.157	0.109
-691.397	-163.293	0.173	0.008
-690.383	-79.314	0.419	-0.142
-689.368	800.000	0.078	0.323
-688.354	303.974	0.135	-0.251
-687.339	-200.000	0.041	0.214
-686.324	-162.831	0.156	-0.008
-685.310	-200.000	-0.021	0.168
-684.295	-200.000	-0.007	0.038
-683.281	4.979	0.399	0.294
-682.266	-200.000	-0.032	0.000
-681.251	-200.000	-0.050	-0.225
-680.237	-136.797	0.018	0.002
-679.222	24.499	-0.021	-0.017
-678.208	-9.141	0.243	-0.163
-677.193	-41.050	-0.147	-0.076
-676.178	215.080	0.101	0.160
-675.164	-124.405	-0.213	0.033
-674.149	-125.700	0.185	0.028
-673.135	-29.440	-0.445	-0.255
-672.120	-48.021	0.218	-0.106
-671.105	-200.000	-0.008	-0.158
-670.091	800.000	-0.038	-0.110
-669.076	-88.705	-0.268	-0.080
-668.062	-139.317	-0.167	-0.018
-667.047	800.000	-0.110	-0.444
-666.032	528.772	0.139	-0.328
-665.018	-185.707	-0.443	-0.007
-664.003	56.705	-0.212	-0.207
-662.989	33.099	0.122	-0.106
-661.974	-200.000	-0.009	-0.441
-660.959	-91.183	0.197	0.057
-659.945	-200.000	0.083	-0.432
-658.930	739.926	-0.120	-0.322
-657.916	311.301	0.092	-0.173
-656.901	10.740	0.149	0.114
-655.886	-200.000	-0.005	-0.254
-654.872	407.854	-0.032	-0.068
-653.857	-200.000	-0.026	-0.495
-652.843	38.042	-0.305	-0.272
-651.828	-67.066	-0.174	0.069
-650.814	800.000	0.128	-0.491
-649.799	-91.343	-0.056	0.016
-648.784	-92.517	-0.160	-0.045
-647.770	69.286	-0.268	0.276
-646.755	800.000	0.033	0.134
-645.741	-54.870	0.153	-0.069
-644.726	-168.391	0.247	-0.009
-643.711	800.000	0.100	0.279
-642.697	800.000	-0.018	0.062
-641.682	43.428	-0.210	-0.192
-640.668	129.331	-0.155	-0.199
-639.653	-200.000	0.029	-0.237
-638.638	669.677	-0.136	-0.354
-637.624	-16.955	-0.078	0.049
-636.609	800.000	0.051	0.164
-635.595	98.368	0.173	0.200
-634.580	-59.902	-0.288	0.123
-633.565	-172.228	0.283	-0.009
-632.551	-200.000	-0.005	0.099
-631.536	112.252	0.050	-0.061
-630.522	-200.000	0.061	0.380
-629.507	800.000	-0.019	-0.053
-628.492	800.000	-0.102	0.312
-627.478	63.185	-0.245	0.245
-626.463	51.750	-0.177	0.169
-625.449	-150.569	0.147	0.011
-624.434	166.086	0.041	-0.058
-623.419	338.347	0.128	-0.249
-622.405	478.169	-0.051	-0.115
-621.390	119.788	-0.071	0.088
-620.376	55.098	0.221	0.213
-619.361	372.837	-0.092	0.186
-618.346	-41.180	-0.192	0.099
-617.332	245.493	-0.167	0.280
-616.317	-89.036	-0.142	-0.042
-615.303	-170.787	-0.169	-0.006
-614.288	-14.337	-0.261	-0.168
-613.273	370.221	-0.020	-0.041
-612.259	-29.134	-0.085	-0.049
-611.244	114.809	-0.273	-0.333
-610.230	-120.449	0.252	0.043
-609.215	257.067	0.249	-0.427
-608.201	-200.000	0.081	-0.411
-607.186	27.259	0.098	0.083
-606.171	165.558	-0.305	-0.430
-605.157	191.772	0.061	0.093
-604.142	-137.169	-0.249	0.028
-603.128	-144.794	-0.142	0.013
-602.113	-6.748	0.210	0.143
-601.098	493.639	-0.076	0.173
-600.084	800.000	0.139	-0.456
-599.069	-96.470	-0.136	0.036
-598.055	-200.000	-0.005	0.063
-597.040	-79.803	-0.253	-0.085
-596.025	-200.000	0.016	0.207
-595.011	-200.000	0.029	-0.136
-593.996	-171.088	0.096	0.003
-592.982	-32.356	0.061	0.034
-591.967	127.607	0.048	-0.061
-590.952	31.617	-0.040	-0.034
-589.938	-107.286	0.269	0.059
-588.923	124.091	-0.142	-0.178
-587.909	250.802	0.211	0.359
-586.894	242.613	0.157	-0.263
-585.879	-37.125	0.240	-0.128
-584.865	-8.621	-0.150	0.101
-583.850	-142.318	-0.295	-0.029
-582.836	63.418	0.237	0.237
-581.821	390.653	0.020	-0.042
-580.806	-200.000	-0.027	-0.128
-579.792	-200.000	-0.032	-0.154
-578.777	6.105	-0.117	0.087
-577.763	-200.000	-0.007	0.169
-576.748	161.944	-0.153	-0.213
-575.733	-94.443	-0.137	-0.037
-574.719	109.698	-0.097	-0.116
-573.704	-121.724	-0.139	-0.023
-572.690	62.916	0.136	-0.136
-571.675	6.035	0.216	-0.160
-570.661	-106.013	-0.052	-0.012
-569.646	22.095	-0.196	-0.159
-568.631	-66.502	0.055	-0.022
-567.617	6.495	0.289	0.215
-566.602	29.489	0.204	-0.173
-565.588	-94.633	0.372	0.101
-564.573	248.848	0.184	0.312
-563.558	-200.000	-0.001	-0.110
-562.544	40.475	0.227	0.204
-561.529	800.000	-0.037	0.136
-560.515	800.000	-0.066	0.199
-559.500	-158.235	0.201	-0.012
-558.485	-46.463	0.437	0.214
-557.471	-31.913	-0.145	-0.081
-556.456	540.260	-0.025	0.060
-555.442	-139.856	-0.213	-0.023
-554.427	-75.994	0.114	-0.040
-553.412	-200.000	0.034	0.356
-552.398	82.083	-0.134	-0.145
-551.383	-200.000	-0.000	-0.263
-550.369	-92.133	0.200	0.056
-549.354	-39.766	0.265	0.138
-548.339	-3.778	-0.267	-0.185
-547.325	-200.000	0.001	0.124
-546.310	-55.811	0.019	0.008
-545.296	-60.671	-0.131	0.055
-544.281	-84.953	-0.217	-0.068
-543.266	-111.618	0.221	-0.045
-542.252	-111.539	-0.120	0.024
-541.237	58.987	0.108	-0.105
-540.223	-200.000	0.072	-0.360
-539.208	-124.331	-0.242	0.038
-538.193	23.271	0.434	0.355
-537.179	102.506	0.158	0.185
-536.164	436.664	0.156	-0.338
-535.150	-115.202	-0.157	0.030
-534.135	-25.904	0.066	-0.039
-533.121	-44.187	0.191	0.095
-532.106	-80.519	-0.266	-0.088
-531.091	4.740	-0.199	-0.146
-530.077	114.025	0.209	-0.253
-529.062	121.269	-0.200	0.248
-528.048	-84.272	-0.234	-0.074
-527.033	-2.727	0.118	-0.082
-526.018	23.390	-0.296	-0.242
-525.004	-40.549	0.026	-0.013
-523.989	-164.501	-0.264	0.012
-522.975	268.160	0.037	0.065
-521.960	-200.000	-0.055	-0.275
-520.945	-28.776	-0.319	-0.182
-519.931	-90.859	0.213	0.061
-518.916	-140.444	-0.333	0.035
-517.902	625.371	0.071	0.179
-516.887	-99.040	0.074	-0.019
-515.872	210.442	-0.083	0.130
-514.858	768.646	-0.077	-0.209
-513.843	-200.000	-0.048	-0.279
-512.829	-3.862	0.216	0.149
-511.814	309.031	-0.198	-0.369
-510.799	-200.000	-0.051	-0.306
-509.785	-137.022	-0.209	0.024
-508.770	-74.922	0.228	0.081
-507.756	800.000	0.077	-0.241
-506.741	204.333	-0.051	0.078
-505.726	-200.000	0.026	0.134
-504.712	-124.308	-0.077	0.012
-503.697	389.642	-0.089	0.185
-502.683	230.405	0.051	-0.083
-501.668	67.112	0.103	-0.104
-500.653	173.764	-0.092	-0.133
-499.639	418.817	0.126	0.268
-498.624	-62.595	-0.120	-0.050
-497.610	-70.425	0.366	-0.138
-496.595	-200.000	-0.062	-0.345
-495.581	-53.459	0.207	-0.094
-494.566	192.216	-0.214	-0.321
-493.551	77.856	0.021	0.022
-492.537	-91.175	0.376	-0.107
-491.522	623.154	-0.110	-0.275
-490.508	-61.201	0.302	0.127
-489.493	-0.642	-0.438	0.309
-488.478	204.371	0.100	-0.154
-487.464	51.055	-0.083	-0.078
-486.449	-84.435	-0.044	0.014
-485.435	170.203	-0.146	-0.208
-484.420	-200.000	0.020	0.324
-483.405	800.000	0.053	0.179
-482.391	800.000	-0.025	-0.093
-481.376	274.693	0.118	0.208
-480.362	44.711	0.091	-0.083
-479.347	-200.000	-0.003	0.160
-478.332	-46.371	-0.279	-0.136
-477.318	-44.507	0.075	0.037
-476.303	417.980	0.159	-0.337
-475.289	43.987	-0.152	0.139
-474.274	800.000	0.112	0.353
-473.259	37.541	0.131	-0.115
-472.245	-109.163	-0.118	-0.025
-471.230	162.814	-0.157	-0.219
-470.216	-40.524	-0.181	0.093
-469.201	-138.302	0.127	0.014
-468.186	-47.866	0.387	-0.186
-467.172	800.000	-0.089	-0.342
-466.157	45.315	-0.053	-0.049
-465.143	-136.568	-0.308	0.035
-464.128	156.102	-0.072	0.099
-463.113	155.466	0.099	0.135
-462.099	-29.204	0.131	-0.075
-461.084	172.396	-0.040	-0.057
-460.070	800.000	-0.070	-0.277
-459.055	366.158	0.183	0.367
-458.040	130.786	0.320	0.408
-457.026	-170.943	-0.408	-0.014
-456.011	20.011	0.135	-0.108
-454.997	608.883	-0.063	0.157
-453.982	-3.872	0.286	-0.197
-452.968	-200.000	-0.007	-0.037
-451.953	-93.922	-0.148	0.040
-450.938	-200.000	-0.007	-0.100
-449.924	-80.663	-0.137	0.045
-448.909	-200.000	0.003	0.380
-447.895	800.000	0.024	-0.085
-446.880	-98.510	-0.285	0.072
-445.865	-141.832	-0.107	-0.011
-444.851	-53.836	-0.105	-0.047
-443.836	206.062	0.065	-0.101
-442.822	496.653	-0.077	0.175
-441.807	-200.000	-0.044	0.283
-440.792	-200.000	-0.000	0.119
-439.778	212.368	-0.074	-0.115
-438.763	44.321	-0.270	0.246
-437.749	6.975	0.108	0.080
-436.734	289.420	-0.040	0.072
-435.719	-144.272	0.050	0.005
-434.705	533.899	-0.061	0.144
-433.690	-38.242	-0.211	0.111
-432.676	4.598	0.259	-0.188
-431.661	-152.152	0.233	-0.017
-430.646	184.862	0.159	0.233
-429.632	-108.893	0.219	-0.046
-428.617	191.085	0.078	0.116
-427.603	800.000	-0.075	-0.224
-426.588	800.000	0.024	-0.104
-425.573	-200.000	-0.080	-0.502
-424.559	-146.387	-0.214	-0.019
-423.544	-200.000	0.042	-0.462
-422.530	-113.528	-0.227	-0.044
-421.515	-110.252	0.225	-0.047
-420.500	800.000	0.043	-0.139
-419.486	7.573	-0.047	-0.035
-418.471	-200.000	-0.063	-0.372
-417.457	205.648	0.088	-0.135
-416.442	177.492	-0.096	-0.139
-415.428	800.000	-0.060	0.205
-414.413	-61.112	-0.152	0.063
-413.398	800.000	0.092	-0.321
-412.384	194.443	-0.055	0.083
-411.369	-200.000	0.025	0.176
-410.355	131.602	-0.118	0.150
-409.340	-123.947	0.182	-0.028
-408.325	420.715	0.022	0.046
-407.311	-181.127	0.180	0.004
-406.296	166.093	0.123	0.173
-405.282	800.000	-0.027	-0.105
-404.267	-148.116	-0.170	-0.014
-403.252	-178.693	-0.216	0.005
-402.238	-20.687	0.079	-0.048
-401.223	-200.000	-0.067	-0.302
-400.209	-88.829	-0.155	0.046
-399.194	-118.173	-0.246	0.043
-398.179	-27.822	0.014	-0.008
-397.165	800.000	0.080	0.262
-396.150	63.209	-0.138	0.137
-395.136	-59.236	-0.272	-0.116
-394.121	-18.443	0.226	-0.140
-393.106	2.521	-0.218	0.156
-392.092	-200.000	-0.026	0.230
-391.077	-200.000	-0.058	0.434
-390.063	800.000	0.063	-0.176
-389.048	-171.277	0.160	-0.005
-388.033	1.194	0.250	-0.178
-387.019	73.145	-0.223	0.231
-386.004	57.312	0.108	-0.105
-384.990	2.940	0.221	-0.159
-383.975	800.000	0.041	0.151
-382.960	800.000	0.042	0.150
-381.946	354.744	0.237	0.466
-380.931	-29.848	-0.062	-0.035
-379.917	27.982	0.174	0.146
-378.902	-53.101	-0.245	0.111
-377.888	116.808	0.127	0.154
-376.873	15.096	-0.150	0.117
-375.858	472.960	0.035	-0.079
-374.844	-200.000	0.016	-0.247
-373.829	-105.092	-0.371	0.084
-372.815	22.424	0.105	-0.085
-371.800	800.000	0.070	0.264
-370.785	46.274	-0.101	-0.093
-369.771	-109.165	-0.112	-0.023
-368.756	-82.577	0.141	0.045
-367.742	9.191	-0.078	-0.058
-366.727	800.000	0.022	-0.093
-365.712	-200.000	-0.020	-0.338
-364.698	2.592	-0.201	-0.144
-363.683	800.000	-0.022	0.081
-362.669	-46.251	0.091	0.045
-361.654	-50.849	-0.421	-0.196
-360.639	188.116	-0.027	0.040
-359.625	543.788	0.100	0.235
-358.610	491.862	0.112	0.254
-357.596	800.000	-0.042	0.146
-356.581	-74.187	0.058	-0.021
-355.566	93.488	0.109	0.122
-354.552	25.910	0.321	0.265
-353.537	-200.000	-0.001	-0.012
-352.523	29.340	-0.046	0.038
-351.508	-176.651	-0.242	-0.006
-350.493	-149.969	-0.440	0.034
-349.479	-104.319	0.234	-0.054
-348.464	1.042	-0.076	-0.054
-347.450	52.382	0.148	-0.140
-346.435	574.950	-0.094	-0.228
-345.420	-200.000	0.035	0.179
-344.406	-18.011	-0.222	0.137
-343.391	9.039	-0.066	0.050
-342.377	-200.000	0.023	0.132
-341.362	800.000	-0.073	-0.240
-340.348	-200.000	0.015	-0.199
-339.333	-158.742	-0.238	0.013
-338.318	-22.714	0.360	-0.215
-337.304	-107.724	0.317	-0.068
-336.289	563.838	-0.121	0.291
-335.275	172.970	0.159	-0.226
-334.260	-85.630	-0.040	0.012
-333.245	800.000	-0.090	0.305
-332.231	191.297	0.073	0.108
-331.216	-200.000	0.014	-0.360
-330.202	-31.656	-0.182	-0.101
-329.187	-200.000	-0.000	-0.084
-328.172	131.464	-0.146	0.185
-327.158	800.000	0.069	-0.205
-326.143	-165.428	0.099	-0.004
-325.129	-79.217	-0.163	0.055
-324.114	-99.345	0.260	0.065
-323.099	311.746	-0.215	-0.399
-322.085	74.145	0.165	-0.171
-321.070	73.764	0.093	0.097
-320.056	-19.050	-0.112	0.069
-319.041	63.617	-0.192	0.191
-318.026	72.305	-0.111	-0.114
-317.012	800.000	-0.192	-0.540
-315.997	472.873	0.082	-0.182
-314.983	-173.721	-0.339	-0.010
-313.968	57.871	-0.094	0.091
-312.953	800.000	-0.036	0.149
-311.939	106.085	0.140	-0.163
-310.924	97.283	-0.095	0.108
-309.910	27.440	0.237	0.197
-308.895	-65.746	0.153	0.061
-307.880	-86.331	0.111	-0.034
-306.866	-200.000	-0.026	0.248
-305.851	-73.667	-0.306	0.110
-304.837	-138.543	-0.290	-0.031
-303.822	272.315	0.123	0.214
-302.807	-200.000	-0.042	-0.288
-301.793	-110.341	0.203	-0.042
-300.778	16.627	0.321	-0.251
-299.764	-179.742	-0.362	-0.008
-298.749	312.536	-0.164	-0.303
-297.735	125.004	0.281	-0.349
-296.720	198.878	0.196	-0.296
-295.705	-57.654	-0.265	0.115
-294.691	-31.680	-0.197	0.109
-293.676	-5.880	0.337	0.228
-292.662	628.072	-0.128	0.319
-291.647	72.056	-0.065	0.067
-290.632	-200.000	-0.024	-0.201
-289.618	-77.938	0.145	-0.049
-288.603	180.326	-0.079	-0.114
-287.589	46.823	0.188	-0.173
-286.574	66.005	0.070	0.070
-285.559	-74.555	-0.188	-0.067
-284.545	9.242	-0.196	0.146
-283.530	26.319	0.114	-0.094
-282.516	-68.370	-0.276	-0.106
-281.501	-93.841	0.305	0.083
-280.486	-200.000	-0.028	0.170
-279.472	-49.833	-0.475	-0.223
-278.457	-200.000	-0.033	0.290
-277.443	800.000	0.019	0.075
-276.428	8.541	0.358	-0.266
-275.413	160.246	0.093	-0.128
-274.399	-11.031	0.030	-0.020
-273.384	459.740	-0.072	-0.158
-272.370	70.134	0.342	0.348
-271.355	305.217	0.179	0.327
-270.340	-158.012	0.250	0.015
-269.326	-114.074	-0.272	0.052
-268.311	-144.126	0.123	0.011
-267.297	-114.480	-0.320	0.061
-266.282	379.641	-0.115	0.232
-265.267	800.000	0.141	-0.467
-264.253	98.698	0.196	-0.223
-263.238	21.370	0.117	0.094
-262.224	-29.247	-0.307	0.173
-261.209	-75.333	-0.192	0.068
-260.195	-2.302	-0.250	-0.173
-259.180	-124.469	-0.503	-0.077
-258.165	-5.435	-0.170	-0.115
-257.151	-91.220	0.130	0.037
-256.136	23.738	-0.163	0.133
-255.122	-16.805	-0.417	0.260
-254.107	-98.755	0.398	0.100
-253.092	237.196	-0.110	0.179
-252.078	81.875	0.069	0.074
-251.063	-200.000	0.378	0.001
-250.049	-200.000	0.009	-0.195
-249.034	-136.844	0.096	-0.011
-248.019	319.876	0.076	0.142
-247.005	350.569	0.027	0.052
-245.990	-200.000	-0.054	-0.271
-244.976	-200.000	0.005	-0.143
-243.961	-78.094	-0.092	-0.031
-242.946	-92.399	-0.264	0.073
-241.932	-147.815	0.040	-0.003
-240.917	150.661	0.050	-0.067
-239.903	-142.024	0.248	0.024
-238.888	-172.840	0.430	-0.013
-237.873	-200.000	-0.008	0.257
-236.859	-172.077	0.359	-0.011
-235.844	-200.000	0.032	-0.202
-234.830	-123.693	-0.116	-0.018
-233.815	-9.142	0.209	0.138
-232.800	31.178	-0.186	0.157
-231.786	81.095	-0.098	0.104
-230.771	800.000	0.033	-0.129
-229.757	62.064	-0.199	0.195
-228.742	22.806	-0.200	0.161
-227.727	62.356	-0.072	0.070
-226.713	-95.622	0.168	0.044
-225.698	78.777	-0.229	-0.241
-224.684	405.198	-0.112	0.232
-223.669	-39.672	0.346	0.178
-222.655	-117.191	0.031	-0.006
-221.640	704.455	-0.163	-0.423
-220.625	144.063	-0.175	0.230
-219.611	239.244	0.122	0.200
-218.596	-34.611	0.044	-0.024
-217.582	-86.884	0.336	0.101
-216.567	-83.456	-0.104	-0.033
-215.552	-87.982	0.181	0.054
-214.538	-200.000	0.002	0.018
-213.523	-200.000	0.040	0.244
-212.509	-9.197	0.116	0.076
-211.494	23.373	0.170	0.137
-210.479	595.955	-0.160	-0.390
-209.465	363.617	0.054	-0.107
-208.450	-200.000	-0.056	0.431
-207.436	-79.513	0.130	-0.043
-206.421	167.456	0.130	-0.181
-205.406	172.183	-0.131	-0.186
-204.392	-67.403	-0.208	-0.081
-203.377	754.910	-0.040	-0.106
-202.363	71.375	-0.142	0.145
-201.348	800.000	0.047	0.133
-200.333	-79.621	0.237	0.079
-199.319	-94.604	-0.188	0.050
-198.304	-200.000	0.034	0.264
-197.290	-40.741	0.065	0.033
-196.275	16.638	-0.038	-0.030
-195.260	-200.000	0.015	0.187
-194.246	245.919	0.126	0.208
-193.231	-5.178	0.112	0.076
-192.217	-54.435	-0.243	0.108
-191.202	-165.787	0.218	-0.009
-190.187	-200.000	-0.041	-0.232
-189.173	630.285	0.103	-0.256
-188.158	-200.000	-0.013	0.071
-187.144	12.651	0.114	0.086
-186.129	-133.423	-0.430	-0.053
-185.114	-200.000	0.026	0.419
-184.100	-82.566	0.537	0.171
-183.085	215.149	0.062	-0.096
-182.071	53.521	0.070	0.066
-181.056	21.668	0.099	-0.079
-180.042	-20.278	0.015	0.009
-179.027	-22.242	-0.173	-0.103
-178.012	-200.000	-0.023	0.186
-176.998	-60.860	0.230	-0.096
-175.983	-200.000	0.002	0.171
-174.969	800.000	-0.074	0.204
-173.954	80.668	-0.076	0.080
-172.939	-117.714	-0.262	0.046
-171.925	14.166	0.004	-0.003
-170.910	0.053	0.139	0.097
-169.896	207.068	0.046	-0.070
-168.881	21.775	0.065	-0.052
-167.866	110.815	-0.114	-0.135
-166.852	-118.054	0.368	-0.065
-165.837	800.000	-0.056	-0.199
-164.823	52.268	0.169	-0.158
-163.808	800.000	0.119	-0.379
-162.793	-159.505	0.605	0.033
-161.779	-57.004	-0.185	0.080
-160.764	80.502	0.068	0.072
-159.750	142.839	0.279	0.365
-158.735	-144.984	0.331	0.030
-157.720	29.564	-0.301	0.251
-156.706	411.571	-0.109	0.227
-155.691	39.300	0.198	0.174
-154.677	-85.133	0.145	-0.045
-153.662	176.725	0.209	-0.299
-152.647	-200.000	-0.075	-0.331
-151.633	-58.806	0.219	0.093
-150.618	245.605	-0.204	0.338
-149.604	591.442	0.083	-0.200
-148.589	-200.000	0.009	-0.128
-147.574	-131.187	-0.197	0.026
-146.560	-200.000	0.010	-0.163
-145.545	-110.968	-0.342	-0.069
-144.531	-36.502	-0.080	0.042
-143.516	-60.681	-0.294	0.123
-142.502	-36.485	0.438	0.231
-141.487	192.789	-0.198	-0.293
-140.472	213.322	0.084	0.130
-139.458	404.975	0.155	-0.321
-138.443	-200.000	-0.069	-0.341
-137.429	-1.865	0.315	0.218
-136.414	800.000	-0.053	0.159
-135.399	331.315	-0.049	-0.093
-134.385	139.491	0.034	-0.044
-133.370	-62.222	0.201	-0.082
-132.356	-108.142	-0.382	0.081
-131.341	-109.786	0.217	-0.045
-130.326	-46.057	-0.208	0.100
-129.312	800.000	-0.067	0.275
-128.297	577.899	-0.126	0.303
-127.283	-200.000	-0.010	0.086
-126.268	-140.188	0.461	0.047
-125.253	233.645	-0.132	-0.213
-124.239	480.340	-0.066	0.147
-123.224	-44.124	0.213	-0.105
-122.210	492.245	0.029	0.065
-121.195	643.411	0.056	-0.139
-120.180	282.757	0.090	-0.159
-119.166	-3.702	0.212	-0.145
-118.151	-119.189	0.438	-0.075
-117.137	-47.045	-0.225	-0.108
-116.122	71.074	0.115	0.117
-115.107	36.969	0.124	-0.108
-114.093	81.438	-0.226	-0.240
-113.078	-190.702	-0.100	0.001
-112.064	258.521	0.090	-0.152
-111.049	106.417	-0.200	-0.232
-110.034	-15.211	0.155	0.097
-109.020	-200.000	-0.029	-0.278
-108.005	-200.000	0.050	0.273
-106.991	754.173	-0.018	-0.047
-105.976	-200.000	-0.004	0.113
-104.962	800.000	-0.131	-0.409
-103.947	800.000	-0.083	-0.249
-102.932	101.493	0.170	0.195
-101.918	-9.285	0.102	-0.067
-100.903	-200.000	0.034	-0.201
-99.889	31.924	-0.127	0.107
-98.874	60.289	-0.062	0.060
-97.859	800.000	0.013	-0.046
-96.845	800.000	-0.059	-0.178
-95.830	179.966	0.234	0.336
-94.816	-41.284	0.207	-0.104
-93.801	-107.057	0.066	0.014
-92.786	-200.000	0.008	-0.393
-91.772	208.814	-0.185	0.283
-90.757	-15.103	-0.304	-0.191
-89.743	-200.000	0.028	-0.335
-88.728	-105.826	-0.362	-0.080
-87.713	455.356	0.029	-0.062
-86.699	800.000	-0.080	0.239
-85.684	123.005	-0.214	-0.263
-84.670	150.880	0.064	-0.085
-83.655	118.943	0.075	0.090
-82.640	339.215	-0.146	0.279
-81.626	-200.000	-0.034	-0.260
-80.611	-200.000	0.075	0.348
-79.597	657.752	0.089	-0.223
-78.582	-200.000	0.009	-0.226
-77.567	-19.276	0.195	0.118
-76.553	-85.713	0.052	-0.016
-75.538	-150.452	0.174	-0.013
-74.524	321.585	-0.150	0.280
-73.509	-115.948	0.261	0.048
-72.494	-200.000	-0.023	-0.248
-71.480	303.352	0.088	-0.160
-70.465	118.214	0.192	-0.232
-69.451	48.357	0.328	0.301
-68.436	229.654	-0.106	0.169
-67.422	-130.077	0.199	-0.027
-66.407	-151.305	-0.250	-0.018
-65.392	750.631	0.052	-0.138
-64.378	-62.586	-0.174	0.071
-63.363	552.579	-0.108	-0.253
-62.349	81.798	0.340	0.360
-61.334	77.731	-0.827	-0.862
-60.319	91.080	0.476	0.522
-59.305	-200.000	-0.157	-1.216
-58.290	126.945	0.808	1.001
-57.276	186.527	0.941	1.370
-56.261	-200.000	117.006	652.268
-55.246	497.068	1547.374	3482.084
-54.232	175.006	2713.274	3842.789
-53.217	105.185	2150.245	2482.450
-52.203	37.977	1584.426	1377.847
-51.188	29.684	1327.882	1105.361
-50.173	26.909	1289.528	1057.246
-49.159	52.804	1348.361	1260.643
-48.144	51.177	1361.849	1263.516
-47.130	29.789	1315.226	1095.273
-46.115	26.556	1297.167	1061.270
-45.100	26.323	1292.453	1056.010
-44.086	26.247	1289.653	1053.237
-43.071	26.080	1287.605	1050.550
-42.057	26.265	1285.277	1049.684
-41.042	26.187	1283.995	1048.146
-40.027	26.199	1282.218	1046.723
-39.013	26.371	1280.147	1045.986
-37.998	26.231	1278.715	1043.965
-36.984	26.316	1276.729	1042.793
-35.969	26.362	1274.977	1041.583
-34.954	26.395	1272.728	1039.895
-33.940	26.391	1272.096	1039.319
-32.925	26.350	1270.591	1037.808
-31.911	26.500	1268.897	1037.242
-30.896	26.368	1267.843	1035.587
-29.881	26.486	1266.238	1034.911
-28.867	26.635	1264.186	1034.042
-27.852	26.453	1263.677	1032.547
-26.838	26.522	1261.504	1031.121
-25.823	26.442	1261.010	1030.223
-24.809	26.513	1259.710	1029.522
-23.794	26.414	1258.154	1027.646
-22.779	26.440	1257.076	1026.872
-21.765	26.544	1255.806	1026.387
-20.750	26.418	1254.143	1024.271
-19.736	26.251	1253.489	1022.750
-18.721	26.389	1251.640	1021.985
-17.706	26.287	1250.973	1020.822
-16.692	26.350	1249.661	1020.068
-15.677	26.282	1248.717	1018.868
-14.663	26.330	1247.362	1017.995
-13.648	26.451	1246.160	1017.657
-12.633	26.371	1245.055	1016.264
-11.619	26.351	1244.575	1015.719
-10.604	26.314	1244.092	1015.077
-9.590	26.348	1242.854	1014.214
-8.575	26.220	1241.865	1012.652
-7.560	26.301	1241.083	1012.426
-6.546	26.299	1240.205	1011.659
-5.531	26.288	1239.225	1010.757
-4.517	26.331	1238.239	1010.152
-3.502	26.386	1237.470	1009.797
-2.487	26.388	1236.149	1008.689
-1.473	26.281	1232.375	1004.974
-0.458	24.727	1217.572	984.317
0.556	22.831	1201.286	947.050
1.571	19.165	1206.686	931.431
2.586	18.141	1221.436	937.121
3.600	18.063	1209.452	927.423
4.615	14.126	1139.138	853.266
5.629	7.211	1068.948	767.227
6.644	4.292	1051.121	740.449
7.659	4.089	1048.960	737.893
8.673	3.895	1047.378	735.794
9.688	3.905	1046.008	734.813
10.702	4.232	1044.274	735.083
11.717	8.725	1049.818	760.291
12.731	16.427	1060.660	804.895
13.746	21.323	1066.920	832.969
14.761	22.379	1067.821	838.636
15.775	21.682	1066.357	834.090
16.790	20.760	1064.435	828.133
17.804	20.119	1063.053	823.935
18.819	19.925	1061.711	821.905
19.834	19.795	1061.591	821.122
20.848	19.675	1061.131	820.124
21.863	19.560	1059.921	818.571
22.877	19.468	1059.358	817.628
23.892	19.392	1058.639	816.639
24.907	19.328	1057.848	815.656
25.921	19.531	1056.422	815.439
26.936	19.368	1055.488	813.878
27.950	19.352	1054.396	812.891
28.965	19.543	1052.859	812.533
29.980	19.684	1051.442	812.029
30.994	19.707	1050.315	811.196
32.009	19.817	1049.574	811.066
33.023	19.667	1049.000	809.849
34.038	19.593	1047.594	808.346
35.053	19.399	1046.863	806.804
36.067	19.458	1045.731	806.133
37.082	19.595	1044.799	805.983
38.096	19.638	1044.503	805.883
39.111	19.616	1043.986	805.312
40.126	19.434	1042.582	803.310
41.140	19.162	1040.634	800.474
42.155	18.971	1039.664	798.770
43.169	18.956	1038.335	797.606
44.184	18.981	1037.417	796.950
45.199	19.044	1036.594	796.538
46.213	19.141	1035.439	796.028
47.228	19.376	1035.261	796.906
48.242	19.537	1034.394	796.912
49.257	19.417	1033.255	795.412
50.271	19.480	1032.700	795.204
51.286	19.566	1031.879	794.896
52.301	19.539	1030.625	793.738
53.315	19.453	1029.461	792.377
54.330	19.194	1028.616	790.467
55.344	19.295	1027.456	789.965
56.359	19.286	1026.599	789.200
57.374	19.141	1025.679	787.756
58.388	18.941	1024.864	786.145
59.403	18.774	1024.277	784.864
60.417	18.947	1023.121	784.698
61.432	18.850	1022.624	783.806
62.447	18.866	1021.841	783.208
63.461	18.801	1020.922	782.140
64.476	18.729	1020.219	781.202
65.490	18.806	1018.572	780.224
66.505	18.908	1018.289	780.399
67.520	18.812	1017.557	779.336
68.534	18.835	1016.674	778.694
69.549	18.727	1016.130	777.717
70.563	18.613	1015.388	776.567
71.578	18.444	1014.323	774.918
72.593	18.505	1013.337	774.371
73.607	18.426	1012.914	773.622
74.622	18.530	1012.666	773.837
75.636	18.568	1011.816	773.288
76.651	18.708	1010.770	773.053
77.666	18.660	1010.762	772.760
78.680	18.712	1009.725	772.134
79.695	18.654	1009.344	771.514
80.709	18.914	1008.890	772.267
81.724	18.879	1008.528	771.764
82.739	19.046	1007.595	771.731
83.753	19.574	1006.539	773.218
84.768	19.731	1006.125	773.533
85.782	19.868	1005.619	773.690
86.797	19.783	1005.127	772.864
87.812	19.660	1003.056	770.654
88.826	19.701	1002.803	770.576
89.841	19.552	1002.188	769.368
90.855	19.844	1001.095	769.759
91.870	19.867	1000.063	769.002
92.884	19.899	999.212	768.421
93.899	19.836	998.509	767.535
94.914	19.940	997.451	767.114
95.928	19.932	996.877	766.570
96.943	19.597	995.767	764.165
97.957	19.692	994.763	763.747
98.972	19.803	993.755	763.394
99.987	19.661	993.244	762.309
101.001	19.580	992.072	760.985
102.016	19.510	991.819	760.415
103.030	19.753	990.502	760.409
104.045	19.815	989.600	759.920
105.060	19.507	988.910	757.969
106.074	19.168	987.406	755.265
107.089	18.999	986.165	753.509
108.103	19.035	985.076	752.767
109.118	18.871	984.495	751.540
110.133	18.813	983.215	750.242
111.147	18.784	982.703	749.659
112.162	18.972	981.767	749.697
113.176	19.038	981.395	749.634
114.191	19.179	981.008	749.886
115.206	18.989	980.253	748.418
116.220	18.821	979.595	747.116
117.235	18.956	978.217	746.587
118.249	18.801	977.720	745.469
119.264	18.804	976.610	744.567
120.279	18.849	975.776	744.062
121.293	18.725	974.714	742.648
122.308	18.663	973.865	741.670
123.322	18.524	972.706	740.120
124.337	18.512	971.490	739.078
125.352	18.506	970.965	738.587
126.366	18.573	969.933	738.026
127.381	18.582	968.710	737.070
128.395	18.672	968.385	737.143
129.410	18.647	967.554	736.337
130.424	18.654	966.666	735.628
131.439	18.855	966.146	736.026
132.454	19.175	964.833	736.329
133.468	19.052	964.410	735.418
134.483	19.068	963.507	734.731
135.497	19.071	962.507	733.916
136.512	19.063	962.026	733.453
137.527	19.101	961.212	732.929
138.541	19.000	960.654	732.010
139.556	19.189	959.842	732.126
140.570	19.343	959.281	732.288
141.585	19.585	958.664	732.780
142.600	19.570	957.810	731.998
143.614	19.593	957.064	731.462
144.629	19.813	956.183	731.656
145.643	19.638	955.561	730.376
146.658	19.375	953.866	727.904
147.673	19.225	952.939	726.499
148.687	19.061	952.237	725.210
149.702	18.902	951.368	723.814
150.716	18.932	950.379	723.121
151.731	19.210	949.643	723.666
152.746	19.209	948.951	723.072
153.760	19.330	948.155	722.909
154.775	19.358	947.951	722.806
155.789	19.408	947.575	722.667
156.804	19.488	946.377	722.022
157.819	19.442	945.838	721.354
158.833	19.731	945.408	722.169
159.848	19.788	944.686	721.794
160.862	19.797	943.426	720.803
161.877	19.352	941.923	717.740
162.892	19.126	941.087	716.100
163.906	18.980	940.107	714.685
164.921	19.089	939.382	714.522
165.935	19.140	939.024	714.397
166.950	19.183	938.065	713.783
167.964	19.240	937.139	713.252
168.979	19.098	935.896	711.654
169.994	19.225	934.786	711.273
171.008	19.402	934.440	711.679
172.023	19.458	933.987	711.501
173.037	19.684	933.510	712.004
174.052	19.454	932.600	710.303
175.067	19.138	931.710	708.260
176.081	18.950	930.959	706.856
177.096	19.040	930.166	706.561
178.110	19.041	929.985	706.362
179.125	19.160	929.388	706.338
180.140	19.158	929.147	706.083
181.154	19.380	928.650	706.550
182.169	19.548	928.701	707.216
183.183	19.721	927.715	707.112
184.198	19.680	926.844	706.217
185.213	19.561	926.386	705.320
186.227	19.749	925.318	705.210
187.242	19.862	924.744	705.172
188.256	19.952	924.755	705.483
189.271	19.848	923.945	704.381
190.286	19.592	922.200	701.949
191.300	18.977	921.898	699.155
192.315	18.948	920.934	698.243
193.329	19.054	920.162	698.027
194.344	19.153	919.819	698.106
195.359	19.315	919.344	698.341
196.373	19.489	918.480	698.328
197.388	19.668	918.683	699.143
198.402	19.834	918.367	699.515
199.417	20.006	918.022	699.884
200.432	20.174	917.229	699.895
201.446	20.217	917.129	699.931
202.461	20.339	916.413	699.815
203.475	20.111	915.477	698.120
204.490	19.825	914.732	696.337
205.504	19.655	913.634	694.759
206.519	19.880	912.553	694.775
207.534	19.560	912.320	693.253
208.548	19.715	911.545	693.227
209.563	19.724	910.600	692.482
210.577	19.820	910.026	692.369
211.592	20.064	909.805	693.113
212.607	20.222	909.018	693.085
213.621	20.046	908.323	691.792
214.636	19.977	907.753	691.020
215.650	19.996	907.167	690.589
216.665	20.119	906.112	690.215
217.680	20.241	905.978	690.539
218.694	20.251	905.076	689.830
219.709	20.122	904.583	688.878
220.723	20.083	903.703	687.993
221.738	20.006	903.033	687.116
222.753	20.083	902.559	687.000
223.767	20.039	901.882	686.252
224.782	20.382	901.796	687.480
225.796	20.420	901.467	687.321
226.811	20.169	900.275	685.359
227.826	20.080	899.494	684.351
228.840	20.016	898.625	683.377
229.855	20.081	897.433	682.668
230.869	19.939	897.111	681.802
231.884	19.923	896.731	681.392
232.899	19.886	895.603	680.326
233.913	19.810	894.686	679.272
234.928	19.618	894.450	678.280
235.942	19.524	894.077	677.569
236.957	19.620	893.406	677.378
237.972	19.745	892.408	677.048
238.986	19.771	891.813	676.640
240.001	19.740	891.751	676.411
241.015	19.763	891.039	675.899
242.030	19.943	890.590	676.205
243.045	19.986	890.138	675.967
244.059	20.021	889.233	675.359
245.074	20.186	888.837	675.640
246.088	20.095	888.578	675.031
247.103	20.210	887.938	674.931
248.117	20.538	887.756	676.010
249.132	20.740	887.350	676.426
250.147	21.056	886.649	677.056
251.161	21.021	886.654	676.864
252.176	21.034	885.964	676.331
253.190	21.179	885.214	676.259
254.205	21.163	884.526	675.609
255.220	21.180	884.186	675.357
256.234	20.985	883.580	674.080
257.249	20.960	882.729	673.273
258.263	21.200	881.452	673.166
259.278	20.996	881.110	672.062
260.293	21.124	880.630	672.129
261.307	21.180	880.069	671.854
262.322	21.100	879.758	671.250
263.336	21.213	878.724	670.838
264.351	21.270	878.243	670.630
265.366	21.105	877.803	669.599
266.380	21.118	877.051	669.017
267.395	21.038	876.120	667.940
268.409	20.858	875.682	666.858
269.424	20.937	874.587	666.271
270.439	20.902	873.715	665.411
271.453	20.880	873.060	664.770
272.468	20.796	872.469	663.941
273.482	20.902	872.197	664.080
274.497	20.807	871.443	663.087
275.512	20.723	871.133	662.472
276.526	20.910	870.288	662.479
277.541	21.071	869.862	662.709
278.555	21.321	869.563	663.373
279.570	21.433	868.938	663.262
280.585	21.313	868.199	662.183
281.599	20.907	867.529	660.077
282.614	20.908	866.572	659.295
283.628	21.034	865.922	659.219
284.643	20.817	865.653	658.135
285.657	20.920	865.119	658.060
286.672	21.261	863.817	658.295
287.687	20.952	863.853	657.101
288.701	21.002	863.067	656.635
289.716	20.970	862.777	656.232
290.730	21.208	861.633	656.201
291.745	21.081	861.370	655.466
292.760	21.272	860.910	655.775
293.774	21.409	860.148	655.650
294.789	21.205	859.792	654.555
295.803	20.921	859.137	652.932
296.818	20.994	858.103	652.363
297.833	21.033	857.258	651.810
298.847	21.078	856.861	651.618
299.862	21.140	856.434	651.467
300.876	21.321	856.316	651.995
301.891	21.509	855.565	652.067
302.906	21.659	855.252	652.330
303.920	21.754	854.798	652.278
304.935	21.725	854.262	651.705
305.949	21.772	853.414	651.172
306.964	21.498	852.445	649.359
307.979	21.555	852.201	649.327
308.993	21.551	851.963	649.076
310.008	21.673	851.355	649.008
311.022	21.453	850.720	647.650
312.037	21.280	849.624	646.117
313.052	21.216	848.914	645.284
314.066	20.893	848.520	643.736
315.081	20.869	848.138	643.298
316.095	21.007	847.411	643.200
317.110	21.149	846.671	643.106
318.125	20.992	846.441	642.295
319.139	21.095	845.783	642.117
320.154	21.149	845.509	642.053
321.168	21.167	844.852	641.562
322.183	21.211	844.458	641.366
323.197	21.186	843.905	640.801
324.212	21.280	843.315	640.639
325.227	21.192	842.620	639.734
326.241	21.277	842.115	639.605
327.256	21.295	840.998	638.763
328.270	21.224	840.928	638.396
329.285	20.960	840.396	636.971
330.300	21.219	839.585	637.244
331.314	21.233	839.141	636.902
332.329	21.263	839.204	637.003
333.343	21.616	838.660	637.818
334.358	21.508	838.355	637.138
335.373	21.482	837.959	636.685
336.387	21.472	838.065	636.676
337.402	21.658	837.798	637.090
338.416	21.751	837.470	637.124
339.431	21.959	836.996	637.462
340.446	22.019	836.765	637.450
341.460	22.039	836.025	636.902
342.475	22.246	835.683	637.334
343.489	22.311	835.231	637.167
344.504	22.145	835.091	636.402
345.519	22.351	834.840	636.901
346.533	22.119	834.073	635.420
347.548	22.046	832.874	634.188
348.562	21.666	832.283	632.311
349.577	21.558	831.896	631.571
350.592	21.590	830.898	630.871
351.606	21.439	830.231	629.765
352.621	21.672	829.725	630.165
353.635	21.793	828.926	629.936
354.650	21.665	828.742	629.283
355.665	21.821	827.630	628.941
356.679	21.842	827.460	628.833
357.694	21.943	826.983	628.778
358.708	21.912	825.897	627.785
359.723	21.867	825.892	627.563
360.738	21.814	824.921	626.581
361.752	22.004	824.652	626.998
362.767	22.059	824.131	626.744
363.781	22.301	823.541	627.103
364.796	22.457	823.188	627.334
365.810	22.625	823.111	627.817
366.825	22.672	822.648	627.577
367.840	22.529	822.048	626.555
368.854	22.296	821.554	625.295
369.869	22.287	820.893	624.706
370.883	22.236	820.486	624.161
371.898	22.364	820.335	624.444
372.913	22.528	820.052	624.753
373.927	22.411	819.169	623.612
374.942	22.320	819.095	623.178
375.956	22.483	818.743	623.432
376.971	22.697	818.444	623.906
377.986	22.623	817.841	623.129
379.000	22.758	817.236	623.092
380.015	22.785	816.491	622.562
381.029	22.586	816.453	621.777
382.044	22.665	815.801	621.504
383.059	22.723	814.749	620.849
384.073	22.561	813.874	619.560
385.088	22.378	813.345	618.459
386.102	22.287	812.780	617.655
387.117	22.227	812.338	617.054
388.132	22.161	811.451	616.093
389.146	22.276	811.171	616.229
390.161	22.481	811.340	617.024
391.175	22.706	810.343	616.996
392.190	22.461	809.631	615.543
393.205	22.344	809.297	614.826
394.219	22.142	809.161	613.962
395.234	22.226	808.435	613.650
396.248	21.997	808.038	612.496
397.263	22.050	807.118	611.931
398.278	21.974	807.170	611.650
399.292	21.937	806.754	611.152
400.307	22.010	805.850	610.667
401.321	22.001	805.883	610.606
402.336	22.280	805.236	611.033
403.350	22.430	804.810	611.175
404.365	22.505	804.833	611.399
405.380	22.705	803.933	611.354
406.394	22.824	803.854	611.652
407.409	22.848	803.523	611.429
408.423	22.936	803.317	611.524
409.438	23.106	803.122	611.909
410.453	23.204	802.068	611.390
411.467	23.033	802.027	610.713
412.482	23.224	801.724	611.090
413.496	23.188	801.350	610.624
414.511	23.074	800.872	609.814
415.526	23.010	800.414	609.192
416.540	22.921	800.190	608.659
417.555	23.133	799.216	608.596
418.569	23.040	798.686	607.819
419.584	23.171	798.126	607.788
420.599	23.030	798.395	607.455
421.613	165.651	1371.044	1798.050
422.628	143.923	1454.445	1798.139
