DTS Sentinel unit serial number:	SN413079Multiplexer serial number:	ORYXHardware model number:	OX4-SRSoftware version number:	ORYX F/W v4.00 Oryx Data Collector v3.7.2.0data status	okinstallation	princeton_trtdifferential loss correction	single-endedforward channel	channel 1reverse channel	N/Adate	2019/09/19time	02:50:35forward acquisition time	60.00reverse acquisition time	0.00gamma	496.2192k internal	0.2344k external	0.2344temperature offset calibration	1.0020default loss term (dB/km)	0.3790temperature slope calibration	1.0000multiplexer offset coefficient	1.0000multiplexer slope coefficient	1.0000fibre end	0.00T internal ref (°C)	20.87T ext. ref 1 (°C)	0.67T ext. ref 2 (°C)	14.72length (m)	temperature (°C)	Stokes	anti-Stokes-747.200	-32.126	0.211	0.118
-746.185	-79.971	-0.425	0.143
-745.171	-183.965	0.168	0.003
-744.156	190.458	-0.156	0.235
-743.142	-200.000	-0.087	-0.409
-742.127	-200.000	-0.057	0.399
-741.112	-200.000	0.016	-0.186
-740.098	81.383	-0.095	0.103
-739.083	-43.895	-0.389	0.196
-738.069	95.540	-0.296	0.338
-737.054	-32.632	0.266	-0.148
-736.039	525.415	-0.080	-0.189
-735.025	-200.000	-0.017	0.199
-734.010	-10.216	0.026	0.018
-732.996	-146.310	-0.235	-0.021
-731.981	-200.000	-0.055	0.290
-730.966	-169.068	-0.323	0.012
-729.952	-128.415	-0.262	0.037
-728.937	-200.000	-0.004	0.041
-727.923	-82.893	-0.194	0.063
-726.908	-173.469	-0.029	0.001
-725.894	-24.957	0.281	-0.167
-724.879	182.058	-0.062	-0.092
-723.864	-121.100	-0.431	-0.072
-722.850	235.568	0.055	0.091
-721.835	-134.208	-0.190	0.023
-720.821	-200.000	-0.005	-0.165
-719.806	153.001	-0.066	0.090
-718.791	20.733	0.208	0.168
-717.777	283.451	0.096	-0.172
-716.762	-145.955	-0.211	-0.019
-715.748	9.753	-0.206	-0.156
-714.733	-136.729	-0.169	0.019
-713.718	-200.000	0.003	0.112
-712.704	297.499	0.055	-0.100
-711.689	-98.883	-0.064	-0.016
-710.675	122.264	0.119	-0.149
-709.660	-44.282	0.163	0.082
-708.645	546.874	0.064	0.154
-707.631	-200.000	0.029	-0.137
-706.616	-200.000	0.008	0.196
-705.602	4.248	0.016	0.012
-704.587	-7.702	0.118	-0.079
-703.572	-190.063	0.238	0.003
-702.558	-11.950	-0.272	-0.178
-701.543	-169.898	0.166	-0.006
-700.529	297.194	-0.120	0.220
-699.514	-200.000	0.028	-0.135
-698.499	465.169	-0.081	-0.181
-697.485	359.316	-0.073	0.145
-696.470	-200.000	-0.017	-0.180
-695.456	800.000	0.103	-0.376
-694.441	800.000	0.057	-0.158
-693.426	160.669	-0.093	-0.130
-692.412	-82.693	-0.098	-0.032
-691.397	139.819	0.059	0.077
-690.383	-111.113	0.073	0.015
-689.368	-200.000	-0.030	-0.191
-688.354	33.387	-0.328	0.285
-687.339	160.323	0.199	-0.278
-686.324	191.158	-0.116	-0.174
-685.310	-120.424	-0.273	0.046
-684.295	342.449	-0.077	-0.150
-683.281	125.674	-0.241	-0.304
-682.266	402.282	-0.139	-0.292
-681.251	-200.000	-0.006	0.353
-680.237	322.115	-0.089	0.170
-679.222	19.457	-0.053	-0.042
-678.208	358.515	0.037	0.073
-677.193	-175.590	0.132	-0.004
-676.178	46.714	0.196	-0.182
-675.164	-200.000	0.028	0.190
-674.149	-66.252	-0.017	-0.007
-673.135	-112.216	0.088	-0.018
-672.120	-56.632	-0.131	0.058
-671.105	247.222	0.113	-0.191
-670.091	40.450	0.154	-0.139
-669.076	-200.000	0.024	-0.178
-668.062	-200.000	-0.003	-0.032
-667.047	236.541	-0.116	0.191
-666.032	422.462	0.087	0.186
-665.018	-136.655	0.100	0.012
-664.003	510.854	-0.120	0.278
-662.989	800.000	-0.056	-0.198
-661.974	373.950	-0.031	-0.063
-660.959	-144.266	0.490	-0.046
-659.945	18.411	-0.045	0.035
-658.930	-143.373	-0.084	-0.008
-657.916	59.183	0.217	0.213
-656.901	109.548	0.192	-0.230
-655.886	431.414	-0.122	0.263
-654.872	-117.241	0.263	-0.048
-653.857	-200.000	0.025	-0.592
-652.843	800.000	-0.091	0.257
-651.828	-200.000	-0.046	0.540
-650.814	1.538	0.169	-0.121
-649.799	511.019	-0.071	0.164
-648.784	-113.776	-0.210	0.041
-647.770	446.621	-0.041	-0.090
-646.755	170.064	-0.160	0.228
-645.741	-200.000	0.011	0.080
-644.726	430.527	-0.122	-0.263
-643.711	105.893	-0.089	-0.105
-642.697	-200.000	-0.003	-0.188
-641.682	196.908	0.031	-0.048
-640.668	-83.159	-0.105	0.034
-639.653	366.815	0.148	-0.298
-638.638	73.619	0.125	0.131
-637.624	-0.738	-0.422	0.298
-636.609	800.000	-0.010	-0.036
-635.595	658.272	-0.141	0.362
-634.580	21.146	-0.269	0.218
-633.565	800.000	0.086	0.328
-632.551	-128.172	-0.259	-0.037
-631.536	-150.971	0.278	0.021
-630.522	-33.944	0.086	0.047
-629.507	35.381	0.389	0.340
-628.492	800.000	-0.056	0.176
-627.478	160.516	0.126	0.175
-626.463	-164.342	0.244	0.011
-625.449	-120.035	0.051	0.009
-624.434	-114.680	0.209	0.040
-623.419	-118.353	0.146	0.026
-622.405	-167.397	0.067	-0.003
-621.390	-56.077	-0.013	0.006
-620.376	-14.474	0.092	-0.059
-619.361	-5.095	-0.098	0.067
-618.346	-145.670	0.130	-0.012
-617.332	-200.000	-0.034	0.259
-616.317	-80.160	-0.148	-0.049
-615.303	-200.000	-0.006	0.037
-614.288	9.742	-0.149	-0.112
-613.273	-8.585	0.133	-0.089
-612.259	26.688	-0.135	0.112
-611.244	-149.102	-0.348	-0.028
-610.230	-153.833	-0.130	0.009
-609.215	-90.415	0.102	0.030
-608.201	-87.064	-0.195	-0.059
-607.186	-61.387	0.104	-0.043
-606.171	-139.577	-0.111	-0.012
-605.157	203.736	-0.113	0.174
-604.142	42.773	-0.103	-0.093
-603.128	364.413	0.033	-0.066
-602.113	-72.561	0.146	-0.054
-601.098	-38.542	0.085	-0.045
-600.084	525.394	-0.063	0.148
-599.069	-156.350	0.079	0.005
-598.055	107.007	-0.118	-0.139
-597.040	-200.000	0.012	-0.279
-596.025	-14.359	0.067	-0.043
-595.011	-200.000	-0.002	0.095
-593.996	800.000	0.070	-0.235
-592.982	-200.000	0.045	0.255
-591.967	-200.000	0.002	0.062
-590.952	124.332	0.240	-0.300
-589.938	182.588	0.248	0.365
-588.923	-115.182	-0.254	0.048
-587.909	-7.011	-0.243	0.164
-586.894	31.373	0.145	-0.124
-585.879	-112.851	-0.021	-0.004
-584.865	-79.457	0.227	0.076
-583.850	-171.222	-0.227	-0.008
-582.836	188.135	0.151	0.225
-581.821	-200.000	0.025	-0.127
-580.806	176.670	-0.193	-0.280
-579.792	-118.884	0.224	0.039
-578.777	-129.184	-0.123	-0.017
-577.763	-40.408	0.351	0.181
-576.748	4.881	0.067	0.049
-575.733	-123.089	-0.115	-0.018
-574.719	-70.979	-0.142	-0.053
-573.704	-38.468	0.274	-0.144
-572.690	25.332	-0.156	0.129
-571.675	-200.000	0.009	0.110
-570.661	-30.611	0.073	-0.041
-569.646	-56.197	-0.302	-0.134
-568.631	-139.324	0.272	0.029
-567.617	0.288	0.193	-0.137
-566.602	381.227	0.123	0.252
-565.588	-200.000	0.047	0.435
-564.573	506.768	0.219	0.504
-563.558	-105.045	-0.339	-0.077
-562.544	-200.000	0.041	-0.423
-561.529	-48.448	-0.274	-0.131
-560.515	-113.049	0.104	-0.020
-559.500	-139.848	0.086	0.009
-558.485	-91.974	-0.309	0.087
-557.471	694.003	0.130	-0.339
-556.456	-41.691	-0.125	-0.064
-555.442	-185.782	0.131	-0.002
-554.427	-200.000	-0.005	0.107
-553.412	-97.190	-0.215	-0.056
-552.398	-31.758	0.197	-0.110
-551.383	240.962	-0.045	0.075
-550.369	607.474	0.137	-0.339
-549.354	-8.195	0.144	0.096
-548.339	-59.275	-0.303	0.129
-547.325	-27.994	-0.259	-0.149
-546.310	250.314	0.137	-0.230
-545.296	-101.626	0.167	0.040
-544.281	-100.852	0.274	-0.067
-543.266	104.345	0.175	0.205
-542.252	-77.303	-0.136	0.047
-541.237	171.281	-0.031	0.045
-540.223	407.905	0.102	0.214
-539.208	98.550	-0.215	-0.246
-538.193	248.536	0.096	-0.161
-537.179	-29.774	-0.184	-0.104
-536.164	-172.213	-0.252	-0.008
-535.150	-200.000	0.042	0.000
-534.135	613.120	-0.080	-0.198
-533.121	800.000	0.046	-0.158
-532.106	-87.557	0.139	0.042
-531.091	504.039	0.058	-0.132
-530.077	-73.614	-0.211	0.076
-529.062	-200.000	0.028	0.284
-528.048	66.862	0.305	-0.309
-527.033	-3.162	-0.432	-0.299
-526.018	-200.000	0.034	-0.200
-525.004	-3.928	-0.119	-0.082
-523.989	188.400	0.091	0.135
-522.975	-139.909	0.164	-0.017
-521.960	17.585	0.203	-0.161
-520.945	50.171	-0.128	-0.120
-519.931	40.127	-0.140	0.125
-518.916	-40.610	-0.209	0.108
-517.902	-58.068	-0.236	-0.102
-516.887	589.269	-0.080	-0.197
-515.872	-38.616	0.170	-0.089
-514.858	96.983	-0.239	0.272
-513.843	-200.000	0.058	-0.679
-512.829	-200.000	-0.042	0.280
-511.814	-200.000	0.039	0.223
-510.799	799.899	0.092	-0.251
-509.785	-96.325	-0.156	0.041
-508.770	-14.267	0.099	-0.063
-507.756	23.590	-0.263	-0.215
-506.741	109.735	0.180	0.214
-505.726	-66.993	-0.180	0.070
-504.712	-200.000	-0.040	0.180
-503.697	-200.000	0.002	0.102
-502.683	118.986	0.040	0.049
-501.668	-119.316	0.323	0.056
-500.653	213.355	-0.103	0.161
-499.639	-200.000	0.073	0.389
-498.624	800.000	0.088	0.307
-497.610	-200.000	0.064	0.355
-496.595	427.042	0.030	0.064
-495.581	-118.536	-0.154	-0.027
-494.566	671.728	0.033	0.084
-493.551	-200.000	0.016	0.258
-492.537	23.026	-0.146	-0.119
-491.522	800.000	-0.079	0.284
-490.508	-200.000	-0.011	0.256
-489.493	528.966	0.149	-0.348
-488.478	-133.413	0.261	-0.033
-487.464	-168.968	0.252	0.009
-486.449	72.303	0.145	-0.149
-485.435	667.093	-0.139	0.356
-484.420	-200.000	-0.044	0.214
-483.405	423.009	-0.126	0.269
-482.391	-73.602	-0.210	0.076
-481.376	800.000	-0.005	-0.018
-480.362	-92.806	-0.245	0.068
-479.347	98.921	-0.208	-0.238
-478.332	51.730	-0.318	0.300
-477.318	-200.000	0.048	-0.372
-476.303	-69.576	-0.038	0.014
-475.289	-48.792	0.184	-0.087
-474.274	-52.074	0.373	-0.172
-473.259	-200.000	-0.023	-0.226
-472.245	-6.317	-0.058	0.039
-471.230	29.181	0.095	-0.080
-470.216	800.000	0.043	0.136
-469.201	-21.086	-0.461	0.279
-468.186	-15.126	0.184	0.117
-467.172	-81.681	-0.058	0.019
-466.157	230.716	0.221	-0.358
-465.143	-200.000	0.034	-0.225
-464.128	-200.000	0.063	0.302
-463.113	800.000	-0.048	-0.178
-462.099	-8.377	-0.448	-0.298
-461.084	318.324	0.125	-0.234
-460.070	46.634	0.087	-0.080
-459.055	-200.000	0.071	0.410
-458.040	-81.861	0.193	-0.063
-457.026	34.961	-0.198	0.171
-456.011	-200.000	-0.041	0.355
-454.997	-108.824	-0.048	0.010
-453.982	-43.090	0.076	-0.038
-452.968	-200.000	-0.003	0.049
-451.953	800.000	-0.069	0.243
-450.938	-200.000	0.001	-0.081
-449.924	-133.822	-0.569	-0.070
-448.909	-20.803	0.199	-0.121
-447.895	-47.103	-0.156	-0.075
-446.880	-86.390	-0.139	-0.042
-445.865	-15.134	0.032	0.020
-444.851	35.747	0.067	0.059
-443.836	-96.113	0.396	-0.104
-442.822	800.000	-0.057	0.244
-441.807	-81.385	0.169	-0.055
-440.792	-62.372	-0.067	0.028
-439.778	364.444	-0.108	0.215
-438.763	-135.454	-0.339	0.040
-437.749	124.538	0.154	-0.192
-436.734	800.000	-0.130	-0.364
-435.719	-112.730	-0.506	-0.100
-434.705	-38.455	0.215	0.112
-433.690	-81.658	0.502	-0.163
-432.676	-36.174	-0.104	-0.055
-431.661	174.201	0.217	0.310
-430.646	303.690	0.145	0.266
-429.632	-200.000	0.018	-0.096
-428.617	800.000	0.054	-0.214
-427.603	76.872	-0.157	0.165
-426.588	-12.933	-0.186	-0.120
-425.573	-6.396	0.134	-0.090
-424.559	800.000	0.089	0.317
-423.544	235.340	0.147	-0.241
-422.530	800.000	-0.119	0.446
-421.515	-182.162	0.520	0.010
-420.500	75.842	0.056	-0.058
-419.486	-200.000	-0.023	-0.313
-418.471	-200.000	-0.002	0.128
-417.457	-190.334	0.177	0.002
-416.442	-200.000	-0.001	0.023
-415.428	-200.000	-0.010	0.083
-414.413	153.977	-0.178	0.241
-413.398	752.082	-0.106	0.283
-412.384	-14.928	0.165	-0.105
-411.369	-115.714	-0.128	0.024
-410.355	18.148	0.192	0.151
-409.340	138.751	-0.167	0.217
-408.325	84.831	-0.148	0.160
-407.311	430.348	0.129	0.276
-406.296	4.300	0.139	-0.101
-405.282	-18.524	-0.203	-0.125
-404.267	30.845	0.234	0.198
-403.252	125.831	-0.116	0.145
-402.238	94.161	-0.101	0.113
-401.223	-111.536	-0.438	0.088
-400.209	-176.929	-0.226	0.006
-399.194	800.000	0.033	-0.094
-398.179	189.652	-0.177	0.263
-397.165	-17.260	-0.210	-0.131
-396.150	42.520	-0.241	-0.216
-395.136	607.159	0.144	-0.355
-394.121	-100.532	-0.165	0.040
-393.106	114.221	-0.118	-0.141
-392.092	520.230	-0.080	-0.186
-391.077	12.730	-0.110	-0.084
-390.063	478.743	0.101	-0.226
-389.048	-68.487	0.381	0.146
-388.033	251.410	0.061	0.103
-387.019	-102.913	-0.115	0.027
-386.004	742.102	-0.102	-0.271
-384.990	-200.000	0.006	-0.116
-383.975	-146.238	0.298	0.026
-382.960	331.641	0.157	-0.299
-381.946	-185.928	-0.132	0.002
-380.931	-53.529	0.122	0.055
-379.917	-200.000	0.046	0.403
-378.902	-15.210	0.116	0.073
-377.888	-200.000	-0.003	-0.178
-376.873	162.970	-0.054	-0.075
-375.858	6.907	0.165	0.122
-374.844	-200.000	-0.015	-0.078
-373.829	-200.000	-0.016	0.270
-372.815	-35.688	-0.076	-0.041
-371.800	17.633	-0.158	0.124
-370.785	-122.931	-0.137	-0.022
-369.771	9.337	-0.312	-0.233
-368.756	37.995	-0.228	-0.200
-367.742	183.322	0.205	0.298
-366.727	248.929	-0.103	0.172
-365.712	292.840	-0.026	0.047
-364.698	-140.716	0.104	-0.011
-363.683	-83.268	-0.616	-0.195
-362.669	800.000	-0.011	0.038
-361.654	-103.955	0.196	0.045
-360.639	-100.783	-0.062	-0.015
-359.625	29.740	0.243	0.204
-358.610	44.333	0.197	0.178
-357.596	-127.243	0.154	0.022
-356.581	-69.970	-0.200	-0.075
-355.566	-7.591	-0.208	0.139
-354.552	-123.023	0.329	-0.052
-353.537	72.382	-0.055	-0.057
-352.523	82.149	0.241	0.257
-351.508	-40.446	-0.119	-0.061
-350.493	-129.891	0.222	-0.030
-349.479	63.463	0.257	0.254
-348.464	-114.937	0.168	0.031
-347.450	-200.000	0.029	0.223
-346.435	84.686	-0.061	0.066
-345.420	-84.788	0.275	-0.085
-344.406	-102.817	0.488	-0.114
-343.391	-76.297	0.049	0.017
-342.377	37.511	0.114	-0.099
-341.362	56.435	-0.105	-0.101
-340.348	-139.925	0.160	-0.017
-339.333	305.339	-0.068	-0.125
-338.318	-200.000	0.004	0.044
-337.304	-142.828	-0.166	-0.016
-336.289	39.408	-0.152	-0.134
-335.275	-200.000	-0.022	-0.191
-334.260	-104.563	0.238	-0.054
-333.245	-50.283	-0.023	-0.011
-332.231	-102.440	-0.410	-0.097
-331.216	-13.836	0.126	-0.080
-330.202	-200.000	0.056	0.251
-329.187	-200.000	0.002	-0.093
-328.172	-69.994	0.192	0.072
-327.158	-200.000	-0.022	-0.447
-326.143	-4.226	0.137	0.093
-325.129	-120.792	-0.267	-0.044
-324.114	125.074	-0.078	0.097
-323.099	58.596	0.184	0.178
-322.085	7.883	-0.279	-0.206
-321.070	-53.675	0.068	0.031
-320.056	11.187	-0.206	0.155
-319.041	-65.866	-0.235	0.093
-318.026	-24.321	0.153	0.090
-317.012	51.174	-0.245	-0.229
-315.997	-40.181	-0.199	-0.102
-314.983	-146.254	-0.153	0.013
-313.968	530.106	-0.099	-0.230
-312.953	-59.086	-0.227	-0.097
-311.939	-1.032	0.260	0.181
-310.924	-200.000	-0.003	-0.122
-309.910	-200.000	-0.084	0.487
-308.895	220.798	0.104	-0.164
-307.880	800.000	0.046	-0.128
-306.866	-141.378	-0.250	0.025
-305.851	206.588	-0.047	-0.072
-304.837	-47.832	0.213	0.102
-303.822	-200.000	-0.034	-0.219
-302.807	9.124	-0.193	-0.143
-301.793	-200.000	0.026	-0.277
-300.778	206.172	-0.196	-0.301
-299.764	782.546	0.085	0.228
-298.749	-18.763	-0.179	0.110
-297.735	496.456	-0.056	-0.127
-296.720	-63.392	0.030	-0.012
-295.705	-104.075	0.331	-0.076
-294.691	-57.637	0.160	0.069
-293.676	57.002	-0.290	0.278
-292.662	392.984	-0.140	-0.287
-291.647	-0.226	0.072	0.050
-290.632	24.064	0.329	0.267
-289.618	190.738	-0.087	-0.128
-288.603	-200.000	0.203	0.001
-287.589	-109.688	0.229	0.047
-286.574	563.519	-0.046	0.110
-285.559	800.000	0.074	-0.233
-284.545	-105.097	-0.280	-0.063
-283.530	-152.619	-0.326	-0.023
-282.516	209.457	0.127	-0.196
-281.501	-200.000	0.019	-0.109
-280.486	209.162	0.117	-0.181
-279.472	-68.745	0.350	0.133
-278.457	-125.015	-0.274	0.041
-277.443	-200.000	-0.004	-0.152
-276.428	-200.000	0.061	-0.424
-275.413	7.710	-0.008	0.006
-274.399	-148.652	-0.447	-0.036
-273.384	-200.000	0.024	0.205
-272.370	-21.648	0.320	-0.192
-271.355	87.178	0.162	0.176
-270.340	-57.343	0.370	-0.160
-269.326	142.737	-0.154	0.201
-268.311	-36.288	0.116	0.062
-267.297	442.480	0.094	-0.202
-266.282	-33.512	0.182	0.099
-265.267	-16.150	-0.441	-0.275
-264.253	-112.145	0.359	-0.071
-263.238	-200.000	-0.070	0.440
-262.224	800.000	-0.027	0.088
-261.209	800.000	0.069	0.189
-260.195	166.780	0.091	-0.127
-259.180	641.766	-0.065	-0.162
-258.165	198.343	0.078	0.117
-257.151	-200.000	-0.004	0.137
-256.136	91.575	0.151	-0.167
-255.122	130.980	-0.228	-0.288
-254.107	151.161	-0.047	0.063
-253.092	341.483	0.139	-0.267
-252.078	58.320	0.037	0.035
-251.063	39.508	0.037	0.032
-250.049	13.479	0.172	0.131
-249.034	-58.695	-0.147	0.062
-248.019	107.775	0.198	0.232
-247.005	115.820	0.201	-0.241
-245.990	800.000	0.081	-0.278
-244.976	-118.203	0.189	0.033
-243.961	800.000	-0.115	-0.326
-242.946	-117.737	0.225	-0.040
-241.932	245.358	0.046	0.076
-240.917	800.000	0.061	-0.173
-239.903	-57.883	-0.195	0.084
-238.888	-27.254	0.033	0.019
-237.873	-21.028	0.373	-0.224
-236.859	242.865	-0.130	-0.213
-235.844	-89.592	0.347	0.100
-234.830	-91.988	0.229	0.064
-233.815	800.000	0.045	0.175
-232.800	-200.000	-0.009	0.288
-231.786	800.000	0.068	0.255
-230.771	215.012	-0.184	-0.286
-229.757	-176.088	0.264	-0.007
-228.742	123.861	0.105	-0.130
-227.727	-158.206	0.344	0.020
-226.713	-200.000	0.035	0.215
-225.698	-38.738	-0.191	0.099
-224.684	800.000	-0.213	-0.604
-223.669	-7.122	-0.149	-0.099
-222.655	-78.193	-0.210	0.071
-221.640	78.209	-0.216	0.227
-220.625	-85.846	0.340	0.103
-219.611	-104.951	-0.317	-0.071
-218.596	-133.321	-0.165	-0.020
-217.582	190.468	0.119	0.175
-216.567	163.484	0.017	0.023
-215.552	-72.380	0.290	-0.105
-214.538	-194.370	0.242	0.002
-213.523	-200.000	-0.059	-0.348
-212.509	-77.007	-0.294	-0.101
-211.494	51.390	-0.144	0.134
-210.479	-56.559	0.496	-0.215
-209.465	96.460	-0.126	0.141
-208.450	86.298	-0.177	0.191
-207.436	-49.279	-0.244	-0.114
-206.421	-200.000	-0.100	-0.478
-205.406	-8.090	0.179	-0.118
-204.392	48.501	-0.181	0.166
-203.377	-85.444	0.098	0.030
-202.363	114.987	0.129	0.155
-201.348	-37.358	-0.210	-0.110
-200.333	59.686	0.141	-0.136
-199.319	-89.072	-0.175	-0.051
-198.304	-200.000	0.006	0.227
-197.290	-106.328	0.318	-0.070
-196.275	800.000	-0.011	-0.032
-195.260	-54.101	-0.270	0.120
-194.246	96.351	-0.071	0.079
-193.231	14.839	-0.279	-0.214
-192.217	-98.450	0.323	-0.081
-191.202	211.977	-0.051	0.078
-190.187	-80.365	0.410	0.134
-189.173	-97.102	0.076	0.020
-188.158	325.760	0.119	-0.223
-187.144	537.770	0.109	-0.253
-186.129	800.000	-0.103	0.346
-185.114	312.250	0.057	0.105
-184.100	-200.000	-0.036	0.189
-183.085	19.443	-0.282	-0.222
-182.071	-52.603	-0.249	-0.113
-181.056	241.419	0.041	-0.068
-180.042	-69.748	-0.110	0.041
-179.027	59.308	0.142	-0.137
-178.012	-87.906	0.188	-0.055
-176.998	170.950	-0.187	0.263
-175.983	-178.226	-0.117	-0.003
-174.969	-200.000	0.066	0.300
-173.954	-200.000	-0.009	0.165
-172.939	324.908	-0.052	-0.098
-171.925	-74.598	-0.119	-0.042
-170.910	-200.000	-0.003	0.076
-169.896	1.638	0.141	0.099
-168.881	-200.000	-0.060	-0.323
-167.866	418.598	-0.113	0.237
-166.852	266.391	-0.175	-0.299
-165.837	-63.967	-0.372	-0.149
-164.823	-22.837	0.165	-0.098
-163.808	337.490	-0.061	-0.115
-162.793	226.438	-0.036	0.057
-161.779	12.485	0.048	-0.036
-160.764	-200.000	-0.008	0.372
-159.750	-131.627	0.212	0.027
-158.735	175.057	-0.151	-0.214
-157.720	-80.324	0.242	-0.079
-156.706	-155.588	0.153	0.010
-155.691	-120.194	0.107	-0.018
-154.677	-200.000	-0.001	-0.083
-153.662	-200.000	0.001	-0.173
-152.647	-48.247	-0.042	0.020
-151.633	308.728	-0.074	0.135
-150.618	155.531	-0.095	0.128
-149.604	-200.000	0.005	0.136
-148.589	66.941	-0.144	0.144
-147.574	-85.263	0.181	-0.055
-146.560	508.743	-0.102	-0.232
-145.545	106.749	0.100	0.116
-144.531	106.926	-0.007	-0.008
-143.516	188.181	0.171	-0.250
-142.502	323.771	0.064	-0.120
-141.487	-93.992	-0.331	0.089
-140.472	160.031	0.194	0.264
-139.458	-73.221	0.098	-0.035
-138.443	-200.000	0.010	0.110
-137.429	-56.572	-0.400	0.173
-136.414	559.641	-0.076	-0.179
-135.399	379.336	0.086	-0.171
-134.385	346.322	0.062	0.119
-133.370	-88.418	-0.168	0.049
-132.356	-48.440	0.071	-0.033
-131.341	-200.000	-0.000	0.116
-130.326	-200.000	0.001	0.077
-129.312	329.865	0.063	-0.119
-128.297	-19.271	0.057	0.035
-127.283	147.105	-0.075	0.098
-126.268	-104.187	0.224	0.051
-125.253	-41.899	-0.355	-0.178
-124.239	-200.000	0.001	-0.330
-123.224	-113.560	-0.169	0.032
-122.210	-15.321	-0.130	0.082
-121.195	-33.358	0.103	0.056
-120.180	-175.026	0.071	0.002
-119.166	128.252	-0.353	0.439
-118.151	-153.986	0.388	-0.026
-117.137	-49.259	0.208	0.097
-116.122	80.060	-0.178	0.187
-115.107	169.813	0.052	0.072
-114.093	-24.215	0.140	-0.082
-113.078	42.240	0.161	0.143
-112.064	109.898	-0.179	-0.209
-111.049	615.609	-0.108	-0.264
-110.034	-200.000	-0.027	-0.125
-109.020	-149.760	-0.397	-0.030
-108.005	-47.041	0.080	-0.038
-106.991	800.000	-0.083	0.286
-105.976	-105.824	0.325	-0.072
-104.962	-128.005	0.514	-0.072
-103.947	-43.021	-0.318	-0.157
-102.932	800.000	-0.009	0.035
-101.918	472.531	-0.125	-0.275
-100.903	-200.000	0.039	0.202
-99.889	50.924	-0.017	0.016
-98.874	69.399	0.084	-0.085
-97.859	69.485	0.054	0.054
-96.845	50.672	0.153	-0.141
-95.830	-70.433	-0.163	0.060
-94.816	236.324	-0.079	-0.127
-93.801	-111.851	-0.085	0.017
-92.786	800.000	-0.061	0.238
-91.772	800.000	-0.036	0.135
-90.757	-15.906	0.235	0.146
-89.743	326.169	-0.037	-0.068
-88.728	-81.540	-0.220	0.071
-87.713	-167.658	-0.349	0.014
-86.699	71.825	-0.262	0.266
-85.684	228.132	-0.068	0.109
-84.670	-200.000	0.021	0.112
-83.655	-88.963	0.266	0.077
-82.640	-200.000	-0.071	0.328
-81.626	10.575	0.276	0.205
-80.611	49.786	0.242	-0.222
-79.597	351.229	0.063	-0.121
-78.582	800.000	0.021	-0.087
-77.567	374.412	-0.153	-0.304
-76.553	91.122	-0.084	0.092
-75.538	15.290	0.136	0.104
-74.524	-49.988	-0.252	0.117
-73.509	11.393	-0.151	-0.113
-72.494	-22.563	-0.092	-0.055
-71.480	-51.771	-0.139	0.063
-70.465	193.783	0.033	0.049
-69.451	-82.989	-0.137	0.043
-68.436	-172.609	-0.125	0.004
-67.422	253.619	0.102	0.169
-66.407	211.612	-0.111	-0.170
-65.392	-200.000	-0.036	-0.204
-64.378	-100.482	0.288	-0.070
-63.363	86.172	0.145	-0.156
-62.349	214.773	0.102	0.158
-61.334	79.108	-1.223	-1.277
-60.319	82.894	0.852	0.903
-59.305	507.958	-0.564	-1.276
-58.290	256.532	0.860	1.439
-57.276	583.208	0.582	1.392
-56.261	-200.000	135.908	682.391
-55.246	338.982	1676.805	3182.657
-54.232	134.093	2802.665	3537.826
-53.217	87.547	2172.456	2343.216
-52.203	31.977	1602.482	1345.319
-51.188	24.116	1351.491	1086.804
-50.173	21.871	1315.777	1044.689
-49.159	49.746	1389.602	1275.668
-48.144	46.084	1398.246	1261.120
-47.130	24.108	1346.127	1082.266
-46.115	21.142	1326.665	1048.785
-45.100	20.894	1321.718	1043.345
-44.086	20.884	1318.829	1040.967
-43.071	20.724	1316.659	1038.258
-42.057	20.636	1315.017	1036.400
-41.042	20.745	1312.880	1035.320
-40.027	20.822	1311.367	1034.545
-39.013	20.659	1309.913	1032.385
-37.998	20.828	1307.646	1031.564
-36.984	20.787	1306.229	1030.162
-35.969	20.837	1303.802	1028.500
-34.954	20.792	1302.945	1027.515
-33.940	20.995	1301.234	1027.324
-32.925	20.960	1299.899	1026.022
-31.911	20.972	1298.502	1024.950
-30.896	20.983	1296.780	1023.615
-29.881	21.066	1295.689	1023.198
-28.867	21.012	1294.117	1021.602
-27.852	20.951	1293.235	1020.509
-26.838	21.055	1291.388	1019.620
-25.823	21.018	1290.210	1018.429
-24.809	20.871	1289.655	1017.096
-23.794	20.903	1288.063	1015.983
-22.779	20.930	1286.319	1014.727
-21.765	21.014	1285.046	1014.169
-20.750	20.844	1284.340	1012.587
-19.736	20.789	1282.883	1011.078
-18.721	20.780	1281.968	1010.261
-17.706	20.896	1280.894	1010.050
-16.692	20.837	1279.567	1008.621
-15.677	20.935	1278.047	1007.949
-14.663	20.757	1277.332	1006.316
-13.648	20.806	1276.070	1005.567
-12.633	20.886	1275.078	1005.207
-11.619	20.884	1273.887	1004.214
-10.604	20.833	1273.830	1003.836
-9.590	20.803	1272.738	1002.766
-8.575	20.777	1272.101	1002.070
-7.560	20.843	1270.607	1001.236
-6.546	20.837	1269.924	1000.626
-5.531	20.837	1268.987	999.845
-4.517	20.829	1268.522	999.393
-3.502	20.807	1267.967	998.787
-2.487	20.964	1266.627	998.597
-1.473	20.812	1262.034	994.064
-0.458	19.201	1246.805	972.941
0.556	14.898	1231.227	936.256
1.571	11.443	1239.683	923.096
2.586	10.827	1255.538	931.290
3.600	11.069	1242.807	923.140
4.615	8.407	1170.985	855.475
5.629	3.122	1101.792	778.169
6.644	0.770	1085.886	755.132
7.659	0.656	1083.881	753.105
8.673	0.581	1083.037	752.076
9.688	0.653	1081.742	751.467
10.702	0.705	1079.441	750.064
11.717	3.963	1082.782	768.514
12.731	10.425	1091.379	806.810
13.746	15.664	1097.763	837.625
14.761	17.196	1099.958	846.868
15.775	16.521	1098.360	842.204
16.790	15.651	1096.015	836.005
17.804	14.962	1094.210	831.131
18.819	14.750	1093.051	829.129
19.834	14.337	1092.478	826.571
20.848	14.128	1091.961	825.070
21.863	13.930	1090.768	823.112
22.877	13.717	1089.732	821.205
23.892	13.630	1089.108	820.230
24.907	13.536	1088.654	819.351
25.921	13.769	1087.701	819.712
26.936	13.752	1087.072	819.083
27.950	13.723	1086.031	818.081
28.965	13.774	1084.493	817.102
29.980	13.885	1083.114	816.538
30.994	14.010	1082.260	816.435
32.009	14.031	1081.214	815.676
33.023	13.935	1080.130	814.316
34.038	13.850	1079.604	813.431
35.053	13.825	1078.712	812.567
36.067	13.850	1077.781	811.915
37.082	13.926	1076.762	811.445
38.096	13.868	1076.178	810.650
39.111	13.845	1075.748	810.144
40.126	13.768	1074.361	808.652
41.140	13.773	1073.001	807.579
42.155	13.726	1071.979	806.510
43.169	13.768	1070.708	805.689
44.184	13.667	1069.973	804.575
45.199	13.770	1068.803	804.123
46.213	13.674	1067.791	802.824
47.228	13.789	1066.685	802.476
48.242	13.691	1065.856	801.312
49.257	13.672	1064.851	800.390
50.271	13.713	1064.112	799.965
51.286	13.914	1062.615	799.734
52.301	13.690	1062.139	798.226
53.315	13.655	1060.901	797.061
54.330	13.735	1059.971	796.675
55.344	13.731	1059.259	796.049
56.359	13.709	1058.573	795.358
57.374	13.771	1057.480	794.761
58.388	13.727	1056.793	793.967
59.403	13.697	1055.987	793.145
60.417	13.618	1055.068	792.007
61.432	13.621	1053.879	791.058
62.447	13.672	1053.140	790.679
63.461	13.674	1052.262	789.957
64.476	13.671	1051.088	788.994
65.490	13.546	1050.506	787.892
66.505	13.788	1049.614	788.301
67.520	13.651	1049.143	787.228
68.534	13.784	1047.810	786.789
69.549	13.770	1047.264	786.243
70.563	13.614	1046.884	785.149
71.578	13.596	1046.139	784.435
72.593	13.547	1045.355	783.549
73.607	13.592	1044.716	783.211
74.622	13.627	1044.263	782.968
75.636	13.634	1043.552	782.400
76.651	13.591	1042.461	781.312
77.666	13.558	1042.070	780.790
78.680	13.569	1041.179	780.108
79.695	13.522	1040.948	779.641
80.709	13.736	1039.718	779.658
81.724	13.725	1038.923	778.941
82.739	13.710	1038.842	778.744
83.753	13.738	1037.988	778.166
84.768	13.829	1036.736	777.585
85.782	13.883	1035.700	776.988
86.797	13.873	1035.015	776.359
87.812	13.773	1034.083	775.127
88.826	13.833	1032.692	774.296
89.841	13.854	1031.754	773.620
90.855	13.828	1031.179	773.000
91.870	13.919	1030.177	772.604
92.884	13.824	1029.573	771.642
93.899	13.964	1028.135	771.145
94.914	13.975	1027.131	770.373
95.928	13.984	1026.695	770.022
96.943	13.778	1026.123	768.568
97.957	13.871	1025.035	768.118
98.972	14.008	1024.546	768.316
99.987	13.894	1023.032	766.587
101.001	13.993	1022.094	766.274
102.016	13.932	1021.133	765.204
103.030	13.836	1020.636	764.319
104.045	13.946	1020.239	764.464
105.060	13.820	1019.265	763.087
106.074	13.919	1017.926	762.470
107.089	13.806	1017.051	761.230
108.103	13.739	1016.474	760.425
109.118	13.804	1015.142	759.656
110.133	13.700	1015.095	759.079
111.147	13.767	1013.368	758.026
112.162	13.845	1012.420	757.605
113.176	13.833	1011.804	757.021
114.191	13.915	1011.124	756.821
115.206	13.896	1010.484	756.187
116.220	13.965	1009.604	755.778
117.235	13.842	1009.115	754.783
118.249	13.961	1007.966	754.401
119.264	13.874	1007.051	753.253
120.279	13.869	1006.463	752.721
121.293	13.916	1005.209	751.929
122.308	13.901	1004.682	751.404
123.322	13.810	1003.508	750.045
124.337	13.721	1002.889	749.115
125.352	13.773	1001.875	748.526
126.366	13.851	1000.422	747.728
127.381	13.785	999.015	746.312
128.395	13.764	998.428	745.712
129.410	13.767	997.449	744.929
130.424	13.772	996.529	744.201
131.439	13.947	995.639	744.253
132.454	13.899	995.092	743.565
133.468	13.816	994.573	742.736
134.483	13.818	993.599	741.954
135.497	13.800	992.341	740.867
136.512	13.884	991.617	740.636
137.527	13.901	990.669	739.939
138.541	13.868	990.365	739.502
139.556	13.905	989.091	738.646
140.570	13.914	988.831	738.427
141.585	14.012	987.733	737.978
142.600	14.168	986.525	737.703
143.614	14.070	985.568	736.487
144.629	13.962	985.247	735.702
145.643	14.055	984.048	735.153
146.658	14.082	982.896	734.346
147.673	14.027	982.484	733.731
148.687	14.097	981.160	732.990
149.702	13.938	980.661	731.849
150.716	13.939	979.516	730.934
151.731	14.029	978.725	730.677
152.746	14.009	978.343	730.237
153.760	14.149	977.645	730.266
154.775	14.004	977.101	729.158
155.789	14.130	976.211	728.983
156.804	13.973	975.975	728.054
157.819	14.083	975.046	727.777
158.833	14.210	974.122	727.581
159.848	14.140	973.290	726.589
160.862	14.118	972.413	725.775
161.877	14.167	971.589	725.309
162.892	13.934	970.616	723.502
163.906	13.921	969.892	722.840
164.921	14.034	969.203	722.758
165.935	14.189	967.749	722.280
166.950	14.112	967.297	721.547
167.964	14.113	966.419	720.831
168.979	14.192	965.187	720.191
169.994	14.087	964.775	719.365
171.008	14.220	963.794	719.142
172.023	14.243	963.367	718.863
173.037	14.204	962.630	718.081
174.052	14.428	961.310	717.999
175.067	14.254	960.902	716.881
176.081	14.296	960.290	716.539
177.096	14.234	959.746	715.805
178.110	14.245	959.374	715.511
179.125	14.273	958.955	715.254
180.140	14.304	958.149	714.725
181.154	14.356	957.590	714.468
182.169	14.363	957.081	714.053
183.183	14.397	956.004	713.332
184.198	14.524	955.279	713.273
185.213	14.454	954.767	712.525
186.227	14.400	953.980	711.646
187.242	14.376	953.817	711.359
188.256	14.523	952.982	711.299
189.271	14.539	952.148	710.682
190.286	14.352	951.260	709.160
191.300	14.299	950.950	708.642
192.315	14.262	950.288	707.929
193.329	14.360	949.635	707.795
194.344	14.438	949.153	707.705
195.359	14.428	948.303	706.965
196.373	14.393	947.581	706.219
197.388	14.440	947.309	706.151
198.402	14.598	946.156	705.899
199.417	14.555	945.703	705.317
200.432	14.521	945.656	705.073
201.446	14.724	945.148	705.492
202.461	14.547	944.542	704.229
203.475	14.700	943.933	704.356
204.490	14.680	942.956	703.483
205.504	14.637	942.279	702.734
206.519	14.740	941.105	702.231
207.534	14.686	940.569	701.541
208.548	14.662	940.030	700.974
209.563	14.778	939.387	700.921
210.577	14.686	938.639	699.913
211.592	14.837	937.561	699.681
212.607	14.829	936.729	698.966
213.621	14.700	936.960	698.536
214.636	14.717	936.104	697.906
215.650	14.924	934.460	697.482
216.665	14.898	934.210	697.127
217.680	15.020	933.225	696.836
218.694	15.142	932.565	696.788
219.709	15.030	932.268	696.041
220.723	15.071	931.394	695.499
221.738	14.977	930.809	694.609
222.753	14.950	930.204	693.984
223.767	15.001	929.527	693.630
224.782	14.961	929.673	693.509
225.796	14.967	928.720	692.765
226.811	15.017	928.029	692.391
227.826	14.950	926.967	691.263
228.840	15.054	925.850	690.797
229.855	14.950	925.513	690.056
230.869	15.104	924.666	690.000
231.884	14.999	924.053	689.047
232.899	14.988	923.644	688.635
233.913	15.086	922.687	688.264
234.928	15.095	922.039	687.758
235.942	15.167	921.422	687.533
236.957	15.151	920.662	686.839
237.972	15.087	920.401	686.319
238.986	14.966	919.767	685.292
240.001	15.091	918.898	685.093
241.015	15.114	918.210	684.613
242.030	15.298	917.426	684.722
243.045	15.156	916.940	683.719
244.059	15.199	916.449	683.466
245.074	15.257	915.471	682.914
246.088	15.293	915.216	682.809
247.103	15.287	914.455	682.157
248.117	15.328	914.336	682.175
249.132	15.334	913.339	681.395
250.147	15.374	913.141	681.348
251.161	15.373	911.834	680.309
252.176	15.487	911.084	680.153
253.190	15.334	910.918	679.347
254.205	15.580	909.902	679.526
255.220	15.537	909.166	678.743
256.234	15.475	908.976	678.291
257.249	15.494	907.977	677.563
258.263	15.462	907.784	677.229
259.278	15.553	906.830	676.824
260.293	15.634	906.207	676.626
261.307	15.581	905.762	676.017
262.322	15.786	904.685	675.981
263.336	15.622	903.946	674.707
264.351	15.740	902.985	674.406
265.366	15.744	902.479	673.982
266.380	15.769	902.160	673.788
267.395	15.751	901.612	673.243
268.409	15.710	900.608	672.269
269.424	15.674	899.568	671.290
270.439	15.658	899.469	671.093
271.453	15.811	898.753	671.111
272.468	15.807	897.993	670.469
273.482	15.739	897.632	669.870
274.497	15.767	896.882	669.361
275.512	15.867	896.589	669.482
276.526	15.855	896.188	669.076
277.541	15.840	895.696	668.590
278.555	15.872	894.895	668.056
279.570	15.921	894.030	667.550
280.585	16.015	893.229	667.265
281.599	16.063	892.395	666.772
282.614	16.010	891.767	666.033
283.628	15.957	890.940	665.146
284.643	16.093	890.242	665.103
285.657	15.902	890.414	664.419
286.672	15.992	889.245	663.845
287.687	16.009	888.675	663.425
288.701	16.017	887.984	662.883
289.716	16.189	887.453	663.105
290.730	16.053	886.711	661.957
291.745	15.967	886.251	661.218
292.760	16.054	885.552	660.978
293.774	16.233	885.003	661.213
294.789	16.117	884.403	660.252
295.803	16.137	883.435	659.547
296.818	16.015	883.190	658.830
297.833	16.122	882.036	658.329
298.847	16.227	881.295	658.128
299.862	16.323	880.385	657.763
300.876	16.282	880.397	657.555
301.891	16.315	879.855	657.220
302.906	16.128	879.160	655.914
303.920	16.274	878.982	656.291
304.935	16.284	878.379	655.821
305.949	16.406	877.591	655.650
306.964	16.392	876.853	654.987
307.979	16.400	876.063	654.366
308.993	16.416	875.707	654.106
310.008	16.542	875.054	654.047
311.022	16.437	874.311	653.028
312.037	16.347	874.223	652.558
313.052	16.207	873.596	651.493
314.066	16.431	872.620	651.572
315.081	16.410	872.348	651.228
316.095	16.462	871.101	650.440
317.110	16.521	870.685	650.297
318.125	16.452	870.591	649.907
319.139	16.514	869.678	649.405
320.154	16.464	869.837	649.275
321.168	16.451	869.225	648.711
322.183	16.510	868.205	648.118
323.197	16.536	868.014	648.015
324.212	16.489	867.333	647.272
325.227	16.475	866.482	646.525
326.241	16.511	866.125	646.339
327.256	16.502	865.900	646.078
328.270	16.446	865.079	645.197
329.285	16.613	864.302	645.197
330.300	16.745	863.436	644.998
331.314	16.607	863.243	644.268
332.329	16.656	862.413	643.780
333.343	16.651	862.166	643.520
334.358	16.563	862.059	643.047
335.373	16.657	861.100	642.634
336.387	16.743	860.840	642.707
337.402	16.761	861.058	642.880
338.416	16.649	860.923	642.297
339.431	16.784	860.153	642.179
340.446	16.946	859.438	642.201
341.460	16.882	859.169	641.703
342.475	16.866	858.864	641.358
343.489	17.000	857.862	641.059
344.504	17.023	857.614	640.901
345.519	16.956	857.231	640.308
346.533	16.955	856.538	639.731
347.548	16.770	856.470	638.923
348.562	16.861	855.537	638.513
349.577	17.042	854.733	638.539
350.592	16.993	854.207	637.906
351.606	16.930	853.895	637.378
352.621	17.071	852.734	636.985
353.635	16.994	852.211	636.250
354.650	17.144	851.343	636.106
355.665	17.042	851.391	635.706
356.679	17.060	850.473	635.028
357.694	16.958	850.045	634.273
358.708	17.159	849.109	634.270
359.723	17.027	848.331	633.141
360.738	17.250	847.796	633.515
361.752	17.147	847.535	632.882
362.767	17.259	846.757	632.660
363.781	17.137	846.460	631.927
364.796	17.183	846.080	631.760
365.810	17.228	845.392	631.356
366.825	17.289	844.874	631.140
367.840	17.294	844.604	630.903
368.854	17.298	844.207	630.565
369.869	17.313	843.668	630.162
370.883	17.319	843.166	629.752
371.898	17.297	842.820	629.360
372.913	17.505	842.132	629.557
373.927	17.436	841.889	629.066
374.942	17.457	841.528	628.817
375.956	17.513	840.966	628.549
376.971	17.509	840.660	628.250
377.986	17.447	840.319	627.711
379.000	17.506	839.309	627.119
380.015	17.542	839.133	627.063
381.029	17.561	838.105	626.311
382.044	17.682	837.449	626.208
383.059	17.600	837.146	625.627
384.073	17.474	836.876	624.907
385.088	17.603	836.067	624.717
386.102	17.589	835.435	624.141
387.117	17.470	835.165	623.449
388.132	17.639	833.950	623.103
389.146	17.636	833.675	622.834
390.161	17.737	833.023	622.660
391.175	17.685	833.009	622.402
392.190	17.619	832.608	621.808
393.205	17.674	832.071	621.554
394.219	17.643	831.680	621.093
395.234	17.595	831.238	620.531
396.248	17.628	830.752	620.236
397.263	17.675	830.328	620.035
398.278	17.719	829.711	619.679
399.292	17.533	829.663	618.913
400.307	17.641	829.080	618.816
401.321	17.751	828.015	618.364
402.336	17.637	828.111	617.968
403.350	17.711	827.354	617.614
404.365	17.733	826.969	617.355
405.380	18.047	825.989	617.703
406.394	17.884	825.807	616.923
407.409	18.108	825.328	617.319
408.423	18.156	824.889	617.110
409.438	17.915	825.124	616.360
410.453	17.914	824.404	615.764
411.467	18.033	823.828	615.710
412.482	18.141	823.514	615.809
413.496	18.009	823.103	614.973
414.511	17.984	823.022	614.768
415.526	18.030	822.522	614.504
416.540	18.017	821.831	613.885
417.555	18.150	821.140	613.793
418.569	18.168	821.058	613.743
419.584	18.248	820.201	613.335
420.599	18.090	819.901	612.490
421.613	115.879	1301.582	1492.008
422.628	100.544	1371.722	1492.092
