DTS Sentinel unit serial number:	SN413079Multiplexer serial number:	ORYXHardware model number:	OX4-SRSoftware version number:	ORYX F/W v4.00 Oryx Data Collector v3.7.2.0data status	okinstallation	princeton_trtdifferential loss correction	single-endedforward channel	channel 1reverse channel	N/Adate	2019/09/17time	02:58:35forward acquisition time	60.00reverse acquisition time	0.00gamma	496.2192k internal	0.2323k external	0.2323temperature offset calibration	0.9959default loss term (dB/km)	0.3790temperature slope calibration	1.0000multiplexer offset coefficient	1.0000multiplexer slope coefficient	1.0000fibre end	0.00T internal ref (°C)	29.94T ext. ref 1 (°C)	0.12T ext. ref 2 (°C)	24.88length (m)	temperature (°C)	Stokes	anti-Stokes-747.200	-200.000	0.009	0.072
-746.185	19.841	0.130	0.106
-745.171	-57.017	0.253	0.113
-744.156	450.484	-0.207	0.462
-743.142	708.685	-0.069	-0.185
-742.127	800.000	0.086	-0.245
-741.112	199.241	-0.019	0.029
-740.098	235.397	-0.173	0.289
-739.083	225.223	0.183	0.299
-738.069	-188.847	-0.265	-0.003
-737.054	-129.039	-0.285	0.040
-736.039	-70.093	-0.333	0.128
-735.025	800.000	-0.070	0.224
-734.010	20.733	0.107	-0.087
-732.996	-30.920	-0.309	0.176
-731.981	-30.998	-0.189	-0.108
-730.966	-200.000	-0.010	0.062
-729.952	366.335	0.246	-0.501
-728.937	19.051	-0.087	0.071
-727.923	-29.189	0.197	-0.114
-726.908	800.000	-0.102	-0.295
-725.894	89.101	-0.115	-0.130
-724.879	52.015	-0.338	0.325
-723.864	665.121	-0.069	-0.179
-722.850	21.944	-0.225	-0.185
-721.835	-30.794	-0.078	-0.045
-720.821	800.000	0.035	-0.151
-719.806	-175.663	-0.039	0.001
-718.791	-62.857	0.404	-0.169
-717.777	-115.631	-0.224	0.042
-716.762	-200.000	0.055	-0.358
-715.748	800.000	-0.058	-0.170
-714.733	-26.001	-0.045	-0.027
-713.718	-153.100	0.092	0.007
-712.704	60.259	0.131	-0.131
-711.689	84.736	-0.232	0.256
-710.675	64.712	0.140	0.142
-709.660	-11.381	0.162	-0.107
-708.645	800.000	0.085	0.297
-707.631	99.981	-0.084	-0.098
-706.616	115.539	0.247	-0.305
-705.602	23.175	0.164	0.136
-704.587	-23.790	-0.464	0.280
-703.572	-12.354	-0.178	-0.117
-702.558	75.468	-0.118	0.125
-701.543	-200.000	-0.041	0.238
-700.529	-81.691	-0.353	-0.117
-699.514	-8.559	-0.024	0.016
-698.499	607.099	-0.058	-0.147
-697.485	800.000	0.071	-0.297
-696.470	-73.243	-0.333	0.123
-695.456	-122.608	-0.009	-0.001
-694.441	-195.935	0.193	-0.001
-693.426	210.424	-0.043	0.069
-692.412	-48.045	0.185	0.090
-691.397	15.975	-0.240	-0.191
-690.383	-173.259	0.296	-0.009
-689.368	42.230	0.309	-0.283
-688.354	800.000	-0.049	-0.184
-687.339	800.000	0.024	-0.098
-686.324	68.084	-0.178	-0.183
-685.310	407.620	0.047	0.100
-684.295	-22.950	0.109	0.066
-683.281	5.331	-0.260	0.193
-682.266	43.861	-0.196	0.181
-681.251	-112.319	-0.263	-0.053
-680.237	-18.600	0.248	0.156
-679.222	-101.001	-0.117	-0.029
-678.208	58.185	0.023	-0.022
-677.193	-46.297	-0.153	-0.076
-676.178	-200.000	-0.049	-0.335
-675.164	-200.000	-0.025	-0.339
-674.149	800.000	-0.070	-0.282
-673.135	800.000	-0.044	-0.191
-672.120	210.403	-0.132	-0.208
-671.105	-37.942	-0.176	-0.094
-670.091	-200.000	0.002	0.062
-669.076	800.000	-0.116	-0.357
-668.062	-75.685	0.135	0.048
-667.047	100.661	-0.011	-0.013
-666.032	118.373	0.067	-0.083
-665.018	-137.342	-0.139	0.016
-664.003	-200.000	0.063	0.284
-662.989	29.356	0.134	-0.115
-661.974	-153.556	0.343	0.024
-660.959	-200.000	0.063	-0.447
-659.945	-200.000	-0.058	-0.297
-658.930	-96.350	0.330	0.088
-657.916	-47.844	-0.382	0.186
-656.901	20.026	-0.169	-0.137
-655.886	800.000	-0.050	0.142
-654.872	60.825	0.100	0.100
-653.857	-17.934	0.207	0.131
-652.843	800.000	-0.062	0.188
-651.828	372.289	-0.132	0.271
-650.814	-31.533	-0.396	-0.224
-649.799	-14.626	-0.255	-0.165
-648.784	800.000	0.076	-0.256
-647.770	-31.838	0.173	0.098
-646.755	-200.000	-0.027	0.297
-645.741	129.856	0.128	0.164
-644.726	-129.446	0.190	-0.027
-643.711	-123.353	-0.279	-0.045
-642.697	256.869	-0.148	-0.255
-641.682	134.034	0.263	-0.342
-640.668	374.611	-0.109	-0.223
-639.653	621.841	0.086	-0.217
-638.638	-35.910	0.188	0.102
-637.624	65.366	0.196	-0.200
-636.609	-6.330	-0.145	0.100
-635.595	800.000	-0.077	0.269
-634.580	-200.000	-0.008	-0.271
-633.565	-6.725	0.344	0.235
-632.551	-16.169	-0.085	-0.054
-631.536	-47.807	0.080	0.039
-630.522	-71.486	0.169	0.063
-629.507	28.654	-0.078	0.066
-628.492	-105.187	-0.253	0.058
-627.478	800.000	0.075	0.303
-626.463	115.268	0.198	0.243
-625.449	-170.084	-0.028	0.001
-624.434	133.573	0.181	-0.236
-623.419	29.981	0.052	-0.044
-622.405	-37.162	0.246	-0.132
-621.390	433.704	-0.042	-0.092
-620.376	-200.000	0.051	-0.435
-619.361	800.000	0.104	-0.349
-618.346	-200.000	-0.031	0.356
-617.332	352.617	-0.035	0.070
-616.317	-200.000	-0.086	0.509
-615.303	-42.091	-0.188	0.097
-614.288	215.266	-0.259	0.414
-613.273	-131.210	0.340	0.045
-612.259	-200.000	0.016	-0.255
-611.244	-55.986	0.430	-0.193
-610.230	-19.037	-0.073	-0.046
-609.215	-73.858	-0.211	-0.077
-608.201	-5.321	-0.161	-0.111
-607.186	-54.429	0.192	-0.088
-606.171	47.796	0.149	0.140
-605.157	-2.102	-0.065	0.046
-604.142	99.381	-0.341	0.397
-603.128	800.000	-0.011	-0.045
-602.113	116.317	-0.188	-0.232
-601.098	77.212	0.077	-0.082
-600.084	-27.039	-0.233	-0.136
-599.069	-167.937	-0.175	-0.007
-598.055	800.000	0.027	-0.113
-597.040	-38.277	0.159	-0.084
-596.025	-95.551	-0.353	0.095
-595.011	-200.000	0.012	-0.071
-593.996	800.000	0.032	-0.098
-592.982	115.275	0.288	-0.354
-591.967	42.459	-0.148	-0.135
-590.952	-200.000	-0.020	-0.193
-589.938	243.865	-0.146	-0.246
-588.923	204.574	0.027	0.042
-587.909	210.402	0.075	-0.118
-586.894	0.422	-0.221	0.158
-585.879	-20.045	-0.159	0.099
-584.865	-138.148	0.188	-0.021
-583.850	15.219	-0.135	-0.106
-582.836	576.440	0.037	-0.090
-581.821	800.000	-0.010	0.043
-580.806	-39.216	-0.037	0.020
-579.792	743.589	0.110	-0.296
-578.777	451.887	0.095	-0.212
-577.763	-95.135	0.149	-0.040
-576.748	11.390	0.310	-0.238
-575.733	114.742	-0.008	0.009
-574.719	-200.000	-0.008	0.060
-573.704	-56.285	0.218	0.097
-572.690	94.229	-0.077	0.088
-571.675	800.000	0.078	-0.318
-570.661	-31.804	-0.148	0.083
-569.646	-14.152	0.125	0.081
-568.631	753.159	-0.095	-0.257
-567.617	-112.968	-0.151	0.030
-566.602	-13.124	0.266	-0.173
-565.588	-17.762	0.118	-0.074
-564.573	-200.000	0.052	-0.337
-563.558	248.920	0.153	-0.260
-562.544	50.668	0.280	-0.266
-561.529	-200.000	-0.039	0.201
-560.515	57.640	-0.038	0.037
-559.500	-128.839	-0.106	0.015
-558.485	-200.000	0.003	-0.236
-557.471	800.000	-0.086	0.263
-556.456	339.768	-0.009	0.018
-555.442	-37.067	-0.094	0.050
-554.427	-18.109	0.177	0.111
-553.412	-200.000	0.005	0.250
-552.398	-119.297	0.086	-0.015
-551.383	800.000	-0.098	-0.271
-550.369	800.000	-0.123	-0.353
-549.354	-136.415	0.469	-0.055
-548.339	-147.589	0.133	-0.011
-547.325	125.359	-0.261	-0.330
-546.310	-181.309	0.403	0.008
-545.296	-97.261	-0.231	-0.060
-544.281	-200.000	0.026	0.165
-543.266	467.995	0.151	-0.338
-542.252	-37.001	-0.194	0.104
-541.237	-105.101	0.290	-0.066
-540.223	-91.915	-0.499	-0.142
-539.208	-101.925	-0.061	0.015
-538.193	378.799	-0.017	-0.035
-537.179	-118.278	-0.266	-0.047
-536.164	-151.327	-0.272	0.020
-535.150	-200.000	0.003	0.091
-534.135	-112.233	-0.360	0.072
-533.121	29.549	0.139	-0.118
-532.106	71.932	0.043	-0.044
-531.091	-64.791	0.348	-0.141
-530.077	-200.000	-0.028	0.215
-529.062	139.597	-0.065	0.085
-528.048	-50.071	0.517	-0.245
-527.033	-200.000	-0.174	0.000
-526.018	-113.415	0.170	-0.033
-525.004	70.030	-0.082	-0.084
-523.989	349.176	-0.121	-0.240
-522.975	-200.000	-0.014	-0.111
-521.960	84.436	0.123	-0.135
-520.945	-200.000	-0.012	-0.217
-519.931	-76.532	0.168	0.059
-518.916	70.762	-0.362	-0.375
-517.902	-200.000	0.032	-0.160
-516.887	-200.000	0.008	0.077
-515.872	-200.000	-0.051	-0.281
-514.858	25.473	-0.097	0.081
-513.843	800.000	0.051	-0.218
-512.829	-67.875	0.136	0.053
-511.814	-200.000	-0.062	0.290
-510.799	19.057	0.197	0.158
-509.785	-59.982	0.224	0.096
-508.770	213.623	0.036	0.057
-507.756	203.213	0.064	-0.100
-506.741	66.896	0.099	0.101
-505.726	-74.272	-0.225	0.081
-504.712	77.976	0.194	-0.207
-503.697	-56.423	-0.211	-0.094
-502.683	94.362	-0.223	-0.253
-501.668	87.395	-0.136	0.151
-500.653	75.802	-0.130	-0.138
-499.639	65.338	-0.288	0.292
-498.624	55.637	0.199	-0.192
-497.610	131.865	0.053	-0.068
-496.595	-200.000	-0.030	-0.373
-495.581	9.196	-0.095	-0.071
-494.566	18.604	0.355	-0.284
-493.551	-118.659	-0.249	-0.044
-492.537	170.185	0.061	-0.087
-491.522	384.244	0.100	0.206
-490.508	-45.788	0.120	-0.059
-489.493	-52.690	0.148	-0.068
-488.478	-36.838	0.232	-0.125
-487.464	95.972	-0.160	0.183
-486.449	-26.700	0.132	0.077
-485.435	124.223	-0.196	0.247
-484.420	-200.000	0.102	0.000
-483.405	313.887	-0.111	-0.209
-482.391	163.278	-0.167	0.235
-481.376	197.959	-0.116	-0.178
-480.362	145.892	0.137	-0.184
-479.347	51.757	-0.127	0.121
-478.332	-137.470	0.021	0.002
-477.318	-114.674	-0.207	0.040
-476.303	-200.000	-0.005	0.091
-475.289	-56.464	0.187	0.083
-474.274	800.000	0.067	0.263
-473.259	197.350	0.293	-0.446
-472.245	4.719	-0.223	0.163
-471.230	-21.392	0.104	-0.063
-470.216	800.000	-0.102	0.315
-469.201	152.189	-0.180	0.246
-468.186	-200.000	-0.040	0.184
-467.172	80.796	-0.139	-0.150
-466.157	-142.282	-0.125	0.012
-465.143	615.821	-0.274	0.687
-464.128	-200.000	0.009	-0.396
-463.113	-148.485	-0.439	0.036
-462.099	142.541	-0.113	-0.150
-461.084	-78.733	-0.216	-0.074
-460.070	99.131	0.211	0.243
-459.055	-200.000	0.023	0.319
-458.040	800.000	0.069	0.259
-457.026	-200.000	-0.020	0.227
-456.011	-152.964	0.198	0.014
-454.997	-42.745	0.260	-0.132
-453.982	383.313	0.099	0.203
-452.968	-97.675	0.199	-0.052
-451.953	122.588	0.018	0.023
-450.938	-69.593	-0.133	0.051
-449.924	-39.127	0.286	0.150
-448.909	-73.504	-0.163	-0.059
-447.895	800.000	0.013	0.037
-446.880	318.412	-0.080	-0.152
-445.865	-111.246	0.350	0.071
-444.851	30.609	-0.036	0.030
-443.836	-40.333	0.323	0.168
-442.822	263.588	0.064	0.112
-441.807	-111.974	-0.237	0.048
-440.792	-200.000	-0.012	0.245
-439.778	-200.000	-0.006	0.130
-438.763	-147.801	0.115	0.010
-437.749	500.961	-0.021	0.048
-436.734	-91.870	0.246	-0.070
-435.719	97.497	-0.214	-0.245
-434.705	-53.827	-0.038	-0.017
-433.690	800.000	0.111	-0.333
-432.676	419.521	0.102	-0.217
-431.661	-67.804	0.360	0.141
-430.646	147.643	-0.078	0.105
-429.632	800.000	-0.030	0.101
-428.617	800.000	-0.174	0.535
-427.603	-108.463	-0.151	-0.032
-426.588	289.721	0.099	0.179
-425.573	366.015	0.211	0.425
-424.559	-200.000	-0.020	-0.374
-423.544	-200.000	-0.009	-0.212
-422.530	-119.443	0.204	-0.035
-421.515	-65.041	0.165	0.066
-420.500	-72.839	-0.266	0.098
-419.486	-87.893	-0.200	0.060
-418.471	81.096	-0.123	-0.133
-417.457	68.942	0.090	0.092
-416.442	-66.984	-0.413	0.163
-415.428	-86.937	0.107	0.033
-414.413	-93.270	-0.064	0.018
-413.398	171.969	0.047	-0.067
-412.384	-200.000	0.016	-0.131
-411.369	-200.000	-0.020	0.146
-410.355	-86.194	0.063	-0.020
-409.340	-59.318	-0.104	0.045
-408.325	-109.473	-0.515	-0.108
-407.311	36.478	-0.158	0.139
-406.296	9.846	0.310	-0.235
-405.282	800.000	0.126	-0.394
-404.267	-28.080	-0.113	-0.065
-403.252	-5.584	0.241	-0.165
-402.238	-200.000	-0.022	0.149
-401.223	-200.000	-0.028	-0.264
-400.209	-30.785	-0.164	-0.092
-399.194	175.598	-0.059	-0.086
-398.179	-11.851	0.157	0.102
-397.165	-107.696	-0.134	-0.029
-396.150	-33.074	-0.022	-0.012
-395.136	-200.000	-0.056	0.284
-394.121	150.879	-0.070	-0.095
-393.106	578.884	-0.050	-0.123
-392.092	20.061	-0.124	-0.100
-391.077	-121.452	0.203	-0.034
-390.063	-149.601	-0.143	0.011
-389.048	159.064	-0.116	0.161
-388.033	67.006	-0.030	0.030
-387.019	601.342	-0.039	0.098
-386.004	776.532	0.096	0.261
-384.990	-122.214	0.046	-0.008
-383.975	-90.459	-0.320	-0.092
-382.960	-107.858	0.094	0.020
-381.946	-200.000	-0.019	0.226
-380.931	248.031	0.088	0.148
-379.917	-53.404	-0.176	0.080
-378.902	-86.819	0.176	-0.054
-377.888	226.594	0.058	0.094
-376.873	-200.000	0.026	0.274
-375.858	314.479	0.216	0.404
-374.844	-12.437	0.058	-0.037
-373.829	5.075	0.080	0.059
-372.815	-38.003	0.404	0.214
-371.800	-200.000	-0.016	-0.123
-370.785	-146.180	0.441	-0.039
-369.771	254.925	-0.064	-0.109
-368.756	-200.000	-0.031	0.464
-367.742	-154.501	0.451	-0.030
-366.727	44.990	-0.232	0.213
-365.712	-126.567	0.338	0.050
-364.698	21.910	0.069	-0.056
-363.683	406.484	0.069	-0.145
-362.669	-143.995	-0.288	0.027
-361.654	-200.000	-0.034	-0.157
-360.639	133.243	-0.247	0.318
-359.625	-60.031	-0.188	0.080
-358.610	55.481	0.239	-0.230
-357.596	114.210	0.156	0.189
-356.581	-200.000	-0.018	0.331
-355.566	800.000	-0.035	-0.141
-354.552	139.222	-0.170	0.223
-353.537	-200.000	0.014	-0.157
-352.523	-68.446	0.313	0.121
-351.508	-31.465	-0.283	-0.158
-350.493	-91.060	-0.244	0.070
-349.479	300.857	0.037	0.068
-348.464	-200.000	0.017	-0.195
-347.450	-126.651	0.421	-0.062
-346.435	-116.062	0.109	0.020
-345.420	-45.017	-0.090	-0.044
-344.406	-27.247	0.229	-0.132
-343.391	171.066	-0.193	-0.275
-342.377	-186.098	-0.244	-0.004
-341.362	800.000	0.069	-0.206
-340.348	800.000	0.056	0.194
-339.333	614.843	-0.060	0.149
-338.318	-200.000	-0.031	0.403
-337.304	167.911	-0.058	0.083
-336.289	800.000	0.125	0.399
-335.275	145.473	-0.088	-0.117
-334.260	-200.000	-0.018	-0.233
-333.245	-103.065	0.108	0.026
-332.231	-154.710	0.184	-0.012
-331.216	-47.162	0.099	-0.048
-330.202	531.645	0.030	0.071
-329.187	-67.601	-0.456	0.177
-328.172	800.000	-0.104	0.320
-327.158	428.311	0.199	-0.428
-326.143	-95.848	-0.229	0.061
-325.129	-51.859	0.311	0.144
-324.114	-53.621	-0.366	0.166
-323.099	31.579	0.172	0.147
-322.085	-200.000	-0.010	-0.210
-321.070	-36.843	0.194	0.103
-320.056	-59.723	-0.344	-0.146
-319.041	12.407	0.100	0.076
-318.026	700.996	0.068	-0.177
-317.012	80.289	0.267	-0.286
-315.997	96.791	-0.096	-0.109
-314.983	-32.895	0.097	0.053
-313.968	211.883	-0.094	0.147
-312.953	-161.017	-0.161	-0.008
-311.939	52.631	-0.271	-0.257
-310.924	-200.000	0.017	0.209
-309.910	117.713	-0.098	-0.120
-308.895	-32.422	-0.186	0.103
-307.880	11.411	0.221	-0.168
-306.866	-41.777	-0.369	-0.188
-305.851	448.523	-0.041	0.090
-304.837	162.229	0.165	0.230
-303.822	-32.367	-0.130	0.072
-302.807	-24.689	-0.409	0.242
-301.793	-149.538	-0.308	-0.024
-300.778	800.000	0.023	-0.091
-299.764	15.374	0.156	-0.122
-298.749	-68.494	0.496	-0.191
-297.735	-14.038	0.163	0.104
-296.720	800.000	0.066	-0.256
-295.705	-200.000	0.264	0.001
-294.691	9.309	-0.363	0.273
-293.676	-200.000	-0.001	0.145
-292.662	-26.069	-0.347	0.203
-291.647	-36.839	0.122	-0.065
-290.632	-56.250	0.207	-0.091
-289.618	-118.791	-0.118	0.021
-288.603	12.997	0.113	0.087
-287.589	-200.000	-0.025	-0.171
-286.574	248.393	-0.171	-0.286
-285.559	652.209	-0.118	0.299
-284.545	-106.243	-0.172	0.038
-283.530	127.839	0.042	0.053
-282.516	-200.000	0.013	0.085
-281.501	-200.000	-0.011	-0.078
-280.486	162.701	-0.043	-0.060
-279.472	80.918	0.041	-0.044
-278.457	-136.409	-0.127	0.015
-277.443	-30.184	-0.010	0.006
-276.428	-47.393	0.277	-0.134
-275.413	436.477	0.095	-0.206
-274.399	79.216	0.195	-0.207
-273.384	40.177	0.180	-0.161
-272.370	503.382	0.126	0.289
-271.355	-200.000	0.006	0.216
-270.340	-57.572	-0.144	0.062
-269.326	-200.000	-0.149	0.000
-268.311	-34.012	0.333	0.181
-267.297	-134.264	-0.029	0.004
-266.282	-72.805	0.380	0.139
-265.267	0.225	-0.146	-0.104
-264.253	389.767	-0.050	0.102
-263.238	-58.431	0.331	-0.143
-262.224	-95.719	0.176	-0.047
-261.209	-200.000	-0.031	-0.310
-260.195	-118.105	0.202	-0.036
-259.180	-6.770	0.161	-0.108
-258.165	17.993	0.120	-0.095
-257.151	800.000	0.047	-0.187
-256.136	207.287	-0.194	0.300
-255.122	-11.350	-0.243	-0.158
-254.107	800.000	0.036	0.097
-253.092	328.578	-0.098	-0.187
-252.078	39.190	0.121	0.107
-251.063	54.925	-0.097	0.093
-250.049	274.039	0.085	0.148
-249.034	-57.936	-0.199	-0.086
-248.019	-111.463	-0.545	-0.110
-247.005	-200.000	-0.016	0.104
-245.990	-200.000	0.020	0.247
-244.976	800.000	-0.151	0.526
-243.961	126.593	0.209	-0.262
-242.946	-111.697	-0.119	-0.024
-241.932	147.443	-0.196	-0.261
-240.917	800.000	0.085	0.291
-239.903	-60.574	0.112	-0.047
-238.888	800.000	-0.042	0.163
-237.873	85.097	-0.220	0.239
-236.859	-119.991	-0.403	0.068
-235.844	103.903	0.031	-0.036
-234.830	132.153	0.129	0.164
-233.815	88.688	0.172	0.189
-232.800	-200.000	0.019	0.135
-231.786	225.700	-0.187	0.300
-230.771	-125.810	0.115	-0.017
-229.757	-5.792	-0.148	-0.100
-228.742	7.278	-0.195	0.144
-227.727	-200.000	0.018	-0.146
-226.713	-9.504	-0.174	-0.115
-225.698	-92.272	-0.247	0.069
-224.684	35.847	-0.055	-0.048
-223.669	3.556	-0.115	-0.083
-222.655	-200.000	0.004	0.031
-221.640	294.979	0.146	0.265
-220.625	182.409	-0.156	-0.228
-219.611	-29.085	0.077	-0.044
-218.596	-113.147	-0.240	-0.047
-217.582	130.748	0.128	-0.162
-216.567	-36.930	-0.094	0.050
-215.552	-23.449	0.230	0.136
-214.538	-8.697	-0.213	-0.142
-213.523	-200.000	0.059	-0.356
-212.509	800.000	-0.083	-0.293
-211.494	145.799	0.111	0.148
-210.479	17.261	-0.188	0.148
-209.465	-200.000	0.002	0.121
-208.450	58.231	-0.405	0.393
-207.436	-71.870	-0.035	0.013
-206.421	-63.140	0.107	0.044
-205.406	87.391	0.233	0.255
-204.392	243.061	-0.139	0.231
-203.377	-90.752	0.072	0.021
-202.363	-200.000	0.045	-0.314
-201.348	-147.059	-0.083	-0.007
-200.333	800.000	0.055	-0.191
-199.319	76.359	-0.338	-0.354
-198.304	85.341	0.076	-0.082
-197.290	-200.000	-0.020	-0.132
-196.275	-200.000	0.011	-0.110
-195.260	-160.482	0.057	-0.003
-194.246	-22.929	0.189	-0.113
-193.231	14.685	-0.138	0.107
-192.217	-200.000	-0.014	-0.093
-191.202	108.886	0.202	0.239
-190.187	134.811	-0.040	-0.051
-189.173	-35.996	-0.086	-0.046
-188.158	-77.530	0.140	-0.048
-187.144	800.000	0.098	0.399
-186.129	-144.272	-0.129	0.012
-185.114	475.413	0.036	-0.080
-184.100	-164.857	0.161	-0.007
-183.085	-134.521	-0.385	-0.047
-182.071	-200.000	0.017	-0.216
-181.056	-160.732	-0.251	0.013
-180.042	-200.000	-0.087	0.445
-179.027	-200.000	0.003	0.055
-178.012	204.202	0.125	-0.192
-176.998	-200.000	0.029	-0.161
-175.983	-200.000	-0.001	0.254
-174.969	114.277	0.052	0.062
-173.954	-70.832	-0.174	0.065
-172.939	32.722	0.338	0.289
-171.925	-56.623	0.438	-0.191
-170.910	-80.151	-0.208	0.069
-169.896	366.021	0.063	-0.125
-168.881	201.717	0.187	0.284
-167.866	800.000	0.058	0.239
-166.852	-179.831	-0.114	-0.002
-165.837	62.130	0.189	0.186
-164.823	145.583	-0.185	-0.245
-163.808	-200.000	0.019	0.128
-162.793	-179.985	-0.129	-0.003
-161.779	800.000	-0.031	0.109
-160.764	147.676	-0.235	0.312
-159.750	-70.093	-0.032	0.012
-158.735	-48.806	-0.141	-0.067
-157.720	53.716	0.248	-0.235
-156.706	-200.000	0.008	-0.084
-155.691	800.000	0.021	0.078
-154.677	316.142	-0.106	-0.198
-153.662	-37.905	0.216	-0.113
-152.647	17.407	0.402	0.315
-151.633	-136.897	-0.246	-0.028
-150.618	-108.891	0.243	0.051
-149.604	-124.501	0.274	0.042
-148.589	-106.124	0.154	-0.034
-147.574	-23.621	-0.170	0.101
-146.560	68.516	0.172	0.174
-145.545	154.442	0.103	-0.140
-144.531	24.313	-0.079	-0.065
-143.516	215.498	-0.055	-0.087
-142.502	-16.445	-0.118	0.074
-141.487	-21.624	-0.222	0.133
-140.472	-56.009	0.177	-0.078
-139.458	-200.000	0.013	-0.087
-138.443	800.000	0.037	-0.107
-137.429	-77.374	0.116	0.040
-136.414	-200.000	-0.018	0.114
-135.399	-160.993	-0.135	0.007
-134.385	-74.952	-0.169	0.060
-133.370	130.982	-0.127	0.161
-132.356	395.454	-0.032	0.066
-131.341	-119.572	-0.091	0.016
-130.326	321.099	-0.136	-0.255
-129.312	-106.074	-0.231	0.051
-128.297	-32.005	-0.318	-0.175
-127.283	-200.000	-0.024	0.280
-126.268	-58.260	-0.230	-0.099
-125.253	-85.510	-0.202	0.062
-124.239	89.596	-0.083	-0.091
-123.224	-128.754	-0.089	-0.012
-122.210	-7.429	0.195	0.130
-121.195	155.920	0.094	-0.128
-120.180	-10.583	-0.109	0.071
-119.166	105.555	0.390	0.454
-118.151	-139.960	0.149	0.016
-117.137	-200.000	0.025	0.313
-116.122	-200.000	0.011	0.350
-115.107	71.683	0.110	0.112
-114.093	128.898	0.194	0.243
-113.078	-108.418	-0.181	0.038
-112.064	800.000	0.068	0.240
-111.049	60.256	0.189	0.184
-110.034	800.000	-0.174	-0.487
-109.020	-200.000	0.020	0.209
-108.005	126.951	0.045	0.056
-106.991	36.842	-0.166	-0.145
-105.976	-200.000	-0.002	-0.275
-104.962	68.016	-0.176	-0.178
-103.947	-13.375	-0.024	0.015
-102.932	509.796	0.031	0.072
-101.918	-33.892	0.360	-0.195
-100.903	-22.781	-0.173	-0.103
-99.889	-41.574	0.168	0.085
-98.874	800.000	-0.035	0.133
-97.859	73.578	-0.036	-0.037
-96.845	287.457	-0.131	-0.234
-95.830	30.017	-0.144	0.121
-94.816	-15.413	-0.279	-0.176
-93.801	800.000	-0.104	0.406
-92.786	-200.000	-0.016	0.151
-91.772	360.216	-0.178	-0.350
-90.757	-6.708	-0.162	-0.109
-89.743	100.910	-0.094	-0.108
-88.728	-93.226	0.161	0.044
-87.713	-154.924	0.020	0.001
-86.699	341.904	-0.097	-0.187
-85.684	-200.000	0.006	-0.286
-84.670	-85.878	-0.141	0.043
-83.655	-164.005	0.324	0.015
-82.640	-200.000	-0.003	-0.027
-81.626	-99.598	0.079	-0.020
-80.611	17.113	-0.162	0.126
-79.597	-200.000	-0.020	0.098
-78.582	462.591	0.125	0.275
-77.567	-27.926	0.181	0.103
-76.553	315.613	0.036	-0.067
-75.538	16.485	0.092	0.071
-74.524	-200.000	-0.012	-0.062
-73.509	-37.793	0.320	0.168
-72.494	-62.262	-0.158	-0.065
-71.480	4.052	-0.037	0.027
-70.465	25.322	0.305	-0.249
-69.451	-118.785	0.023	0.004
-68.436	-2.956	0.226	-0.155
-67.422	800.000	0.065	-0.205
-66.407	37.148	-0.087	-0.076
-65.392	83.117	0.173	-0.186
-64.378	256.466	-0.198	-0.334
-63.363	33.999	-0.117	0.100
-62.349	386.662	0.121	0.245
-61.334	43.546	-1.120	-1.007
-60.319	43.296	0.566	0.508
-59.305	800.000	-0.275	-0.923
-58.290	235.461	0.712	1.156
-57.276	250.025	1.044	1.742
-56.261	-200.000	105.661	577.061
-55.246	459.038	1456.694	3186.120
-54.232	149.420	2641.216	3515.801
-53.217	107.350	2158.621	2523.436
-52.203	41.504	1604.831	1427.925
-51.188	33.528	1342.074	1146.102
-50.173	30.315	1300.405	1091.609
-49.159	53.503	1353.112	1275.604
-48.144	54.284	1368.821	1295.047
-47.130	33.537	1324.455	1130.927
-46.115	30.027	1307.103	1095.360
-45.100	29.886	1302.325	1090.481
-44.086	29.758	1300.108	1087.827
-43.071	29.778	1297.544	1085.754
-42.057	29.761	1295.280	1083.716
-41.042	29.818	1293.558	1082.565
-40.027	29.831	1292.125	1081.403
-39.013	29.747	1290.437	1079.458
-37.998	29.788	1288.718	1078.216
-36.984	29.924	1286.869	1077.417
-35.969	29.909	1285.252	1075.930
-34.954	30.014	1283.268	1074.839
-33.940	29.957	1282.000	1073.402
-32.925	29.988	1281.094	1072.778
-31.911	29.996	1279.311	1071.290
-30.896	30.118	1277.304	1070.276
-29.881	30.074	1276.416	1069.231
-28.867	30.052	1275.534	1068.324
-27.852	29.980	1273.911	1066.508
-26.838	30.172	1271.459	1065.515
-25.823	30.116	1270.750	1064.557
-24.809	30.119	1269.261	1063.287
-23.794	29.940	1268.856	1061.878
-22.779	29.987	1267.120	1060.652
-21.765	30.113	1265.334	1059.834
-20.750	29.969	1264.940	1058.638
-19.736	29.923	1263.402	1057.051
-18.721	29.845	1262.375	1055.701
-17.706	29.817	1261.060	1054.401
-16.692	29.963	1259.679	1054.038
-15.677	29.885	1259.128	1053.091
-14.663	29.948	1257.164	1051.762
-13.648	29.863	1256.462	1050.651
-12.633	29.945	1255.533	1050.300
-11.619	29.780	1255.114	1048.969
-10.604	29.868	1253.749	1048.284
-9.590	29.843	1252.968	1047.449
-8.575	29.852	1251.697	1046.396
-7.560	29.957	1250.562	1045.997
-6.546	29.767	1250.327	1044.690
-5.531	29.877	1249.423	1044.511
-4.517	29.844	1248.740	1043.713
-3.502	30.007	1247.693	1043.718
-2.487	29.992	1246.498	1042.592
-1.473	29.876	1242.354	1038.432
-0.458	28.463	1228.042	1018.585
0.556	23.420	1211.456	982.594
1.571	19.868	1217.978	967.963
2.586	19.016	1232.637	974.700
3.600	18.818	1221.175	964.442
4.615	13.912	1147.992	880.608
5.629	4.810	1072.071	777.045
6.644	0.421	1052.218	741.057
7.659	0.050	1049.514	737.269
8.673	0.038	1048.634	736.526
9.688	-0.019	1047.128	735.124
10.702	0.264	1045.120	735.029
11.717	5.594	1052.318	766.160
12.731	14.299	1063.344	816.999
13.746	17.679	1066.942	836.302
14.761	17.093	1065.729	832.404
15.775	16.074	1063.465	825.571
16.790	14.948	1061.608	818.553
17.804	14.309	1060.240	814.302
18.819	13.914	1059.067	811.399
19.834	13.679	1058.430	809.690
20.848	13.449	1057.349	807.672
21.863	13.115	1056.754	805.517
22.877	13.053	1055.931	804.514
23.892	12.973	1055.054	803.384
24.907	13.007	1054.637	803.162
25.921	13.111	1053.530	802.756
26.936	13.101	1052.774	802.061
27.950	13.219	1051.410	801.520
28.965	13.163	1050.467	800.460
29.980	13.274	1049.209	799.968
30.994	13.327	1047.964	799.204
32.009	13.208	1047.260	798.021
33.023	13.186	1046.131	796.986
34.038	13.411	1044.804	796.987
35.053	13.258	1044.269	795.773
36.067	13.304	1043.335	795.211
37.082	13.183	1042.765	794.123
38.096	13.207	1042.014	793.599
39.111	13.184	1041.168	792.774
40.126	13.267	1039.817	792.069
41.140	13.196	1038.489	790.648
42.155	13.127	1037.711	789.657
43.169	12.937	1037.136	788.241
44.184	12.894	1035.826	786.973
45.199	12.999	1034.861	786.670
46.213	12.969	1034.067	785.852
47.228	13.088	1033.204	785.696
48.242	13.147	1031.650	784.723
49.257	13.050	1031.027	783.722
50.271	13.143	1029.827	783.180
51.286	13.227	1029.126	782.976
52.301	13.176	1028.046	781.844
53.315	13.126	1027.025	780.759
54.330	12.977	1026.322	779.455
55.344	13.012	1025.340	778.804
56.359	13.096	1024.104	778.193
57.374	13.043	1023.363	777.311
58.388	13.166	1022.471	777.144
59.403	13.059	1021.805	776.065
60.417	12.971	1021.187	775.113
61.432	13.105	1020.059	774.816
62.447	12.945	1019.667	773.701
63.461	13.023	1018.108	772.815
64.476	12.872	1017.999	771.957
65.490	12.927	1017.075	771.444
66.505	12.955	1016.449	771.034
67.520	12.956	1015.765	770.448
68.534	12.994	1015.138	770.084
69.549	13.030	1014.138	769.426
70.563	12.962	1013.331	768.429
71.578	12.829	1013.085	767.555
72.593	12.946	1012.134	767.307
73.607	12.982	1011.283	766.765
74.622	13.007	1010.649	766.332
75.636	12.972	1009.770	765.433
76.651	12.917	1009.278	764.738
77.666	12.982	1008.578	764.440
78.680	13.015	1008.098	764.161
79.695	12.941	1007.685	763.440
80.709	12.997	1006.816	762.971
81.724	13.007	1006.244	762.519
82.739	13.019	1005.462	761.914
83.753	13.299	1004.620	762.499
84.768	13.289	1003.595	761.610
85.782	13.175	1002.667	760.312
86.797	13.176	1001.474	759.345
87.812	12.991	1001.176	758.204
88.826	13.127	999.962	757.841
89.841	13.098	999.147	757.023
90.855	13.304	998.258	757.226
91.870	13.365	997.328	756.731
92.884	13.134	996.774	755.186
93.899	13.298	995.748	755.094
94.914	13.372	995.076	754.854
95.928	13.265	994.212	753.642
96.943	13.266	993.663	753.163
97.957	13.186	992.665	751.980
98.972	13.180	991.792	751.225
99.987	13.248	990.866	750.763
101.001	13.298	989.713	750.053
102.016	13.256	988.766	749.076
103.030	13.249	988.376	748.682
104.045	13.364	987.316	748.335
105.060	13.202	986.679	747.052
106.074	13.007	986.399	745.891
107.089	13.180	984.515	745.184
108.103	13.073	983.783	744.082
109.118	13.136	982.972	743.686
110.133	13.058	982.008	742.541
111.147	13.072	981.084	741.838
112.162	13.015	980.977	741.435
113.176	13.138	979.824	741.049
114.191	13.253	979.267	741.078
115.206	13.172	978.323	739.938
116.220	13.186	977.306	739.162
117.235	13.224	976.200	738.433
118.249	13.058	975.455	737.062
119.264	13.183	974.493	736.830
120.279	13.180	973.909	736.307
121.293	13.140	973.256	735.572
122.308	13.164	972.314	734.903
123.322	13.049	971.161	733.453
124.337	13.104	969.911	732.689
125.352	13.104	969.098	732.009
126.366	13.132	968.206	731.393
127.381	13.054	967.249	730.264
128.395	13.109	966.215	729.660
129.410	12.988	965.227	728.313
130.424	13.174	964.791	728.739
131.439	13.245	963.499	728.013
132.454	13.232	963.236	727.695
133.468	13.385	961.991	727.364
134.483	13.185	961.487	726.037
135.497	13.241	960.765	725.672
136.512	13.215	959.656	724.657
137.527	13.367	958.615	724.472
138.541	13.265	958.073	723.553
139.556	13.395	957.275	723.457
140.570	13.433	956.876	723.255
141.585	13.352	956.016	722.190
142.600	13.363	954.871	721.306
143.614	13.354	954.203	720.698
144.629	13.383	953.284	720.068
145.643	13.385	952.297	719.267
146.658	13.268	951.770	718.298
147.673	13.270	950.760	717.480
148.687	13.182	950.292	716.681
149.702	13.232	949.408	716.170
150.716	13.284	948.295	715.489
151.731	13.387	947.641	715.378
152.746	13.435	946.968	715.014
153.760	13.325	946.488	714.115
154.775	13.408	945.697	713.812
155.789	13.467	944.837	713.356
156.804	13.413	944.579	712.864
157.819	13.543	943.620	712.635
158.833	13.439	943.066	711.707
159.848	13.483	942.372	711.310
160.862	13.375	941.564	710.173
161.877	13.480	940.023	709.400
162.892	13.357	939.796	708.638
163.906	13.480	938.449	708.086
164.921	13.326	938.231	707.200
165.935	13.296	937.231	706.255
166.950	13.501	935.818	706.003
167.964	13.498	935.167	705.437
168.979	13.505	934.216	704.686
169.994	13.396	933.604	703.700
171.008	13.665	932.553	703.989
172.023	13.586	931.893	703.092
173.037	13.775	930.884	703.067
174.052	13.643	930.280	701.989
175.067	13.568	929.548	701.059
176.081	13.534	929.576	700.873
177.096	13.511	928.874	700.186
178.110	13.629	928.282	700.178
179.125	13.607	927.565	699.482
180.140	13.554	927.212	698.930
181.154	13.659	926.454	698.739
182.169	13.647	926.108	698.364
183.183	13.732	925.723	698.372
184.198	13.578	924.939	697.070
185.213	13.652	924.114	696.699
186.227	13.645	923.290	695.983
187.242	13.777	922.819	696.123
188.256	13.817	922.198	695.760
189.271	13.812	921.261	694.970
190.286	13.773	920.311	694.030
191.300	13.682	919.874	693.256
192.315	13.418	919.781	692.023
193.329	13.580	919.063	692.097
194.344	13.710	918.201	691.930
195.359	13.918	917.051	691.869
196.373	13.734	916.759	690.822
197.388	13.810	916.424	690.824
198.402	13.887	915.824	690.632
199.417	13.894	915.569	690.406
200.432	13.956	914.979	690.157
201.446	14.050	913.960	689.718
202.461	14.159	913.427	689.706
203.475	13.982	913.014	688.602
204.490	13.975	912.540	688.151
205.504	13.939	911.509	687.167
206.519	13.887	910.930	686.454
207.534	13.822	910.370	685.702
208.548	13.844	909.557	685.121
209.563	13.892	908.944	684.796
210.577	14.078	908.324	685.035
211.592	14.127	907.817	684.794
212.607	14.182	906.792	684.188
213.621	14.117	906.013	683.272
214.636	14.155	905.600	683.054
215.650	14.082	904.958	682.210
216.665	14.252	903.562	681.792
217.680	14.280	902.976	681.406
218.694	14.099	902.823	680.490
219.709	14.209	902.015	680.271
220.723	14.180	901.583	679.766
221.738	14.373	900.621	679.767
222.753	14.227	899.931	678.591
223.767	14.308	899.257	678.353
224.782	14.325	898.757	677.986
225.796	14.335	898.182	677.531
226.811	14.406	897.252	677.058
227.826	14.379	896.913	676.633
228.840	14.298	896.194	675.704
229.855	14.321	895.182	674.973
230.869	14.308	894.718	674.513
231.884	14.399	893.690	674.043
232.899	14.269	893.069	672.991
233.913	14.254	892.764	672.643
234.928	14.252	892.289	672.217
235.942	14.260	891.868	671.871
236.957	14.264	891.143	671.283
237.972	14.224	890.463	670.547
238.986	14.473	889.428	670.713
240.001	14.389	888.846	669.874
241.015	14.364	888.438	669.408
242.030	14.371	887.728	668.842
243.045	14.378	887.269	668.467
244.059	14.545	886.350	668.384
245.074	14.567	885.974	668.128
246.088	14.420	885.112	666.833
247.103	14.560	885.011	667.255
248.117	14.533	884.502	666.707
249.132	14.693	883.678	666.665
250.147	14.774	882.902	666.345
251.161	14.788	882.427	665.982
252.176	14.730	881.775	665.200
253.190	14.699	880.801	664.284
254.205	14.739	880.738	664.334
255.220	14.700	880.062	663.612
256.234	14.879	879.354	663.731
257.249	14.823	878.258	662.620
258.263	14.893	877.717	662.431
259.278	14.836	877.255	661.798
260.293	14.767	876.772	661.105
261.307	15.027	876.551	661.908
262.322	15.006	875.440	660.925
263.336	15.042	874.469	660.277
264.351	15.137	873.954	660.204
265.366	15.085	873.326	659.465
266.380	15.170	872.940	659.450
267.395	15.031	871.907	658.068
268.409	15.109	870.963	657.601
269.424	14.954	870.162	656.331
270.439	15.079	869.650	656.376
271.453	14.952	869.251	655.520
272.468	15.041	868.757	655.437
273.482	15.137	867.960	655.155
274.497	15.078	867.565	654.568
275.512	15.056	867.081	654.056
276.526	15.133	866.709	654.020
277.541	15.022	866.252	653.184
278.555	15.101	865.166	652.615
279.570	15.254	864.485	652.640
280.585	15.157	863.980	651.822
281.599	15.188	863.219	651.311
282.614	15.341	862.437	651.258
283.628	15.240	862.328	650.728
284.643	15.153	861.614	649.792
285.657	15.326	860.812	649.800
286.672	15.388	859.936	649.322
287.687	15.319	859.636	648.772
288.701	15.387	858.960	648.465
289.716	15.273	858.559	647.664
290.730	15.217	858.346	647.230
291.745	15.310	857.312	646.752
292.760	15.318	856.602	646.192
293.774	15.410	856.449	646.373
294.789	15.425	855.721	645.824
295.803	15.407	854.898	645.076
296.818	15.461	854.435	644.879
297.833	15.374	853.455	643.746
298.847	15.673	852.373	644.022
299.862	15.512	852.631	643.543
300.876	15.595	851.915	643.263
301.891	15.605	851.039	642.579
302.906	15.561	850.663	642.072
303.920	15.561	850.512	641.903
304.935	15.663	849.767	641.673
305.949	15.700	848.685	640.938
306.964	15.680	848.580	640.725
307.979	15.592	848.239	640.076
308.993	15.673	847.667	639.899
310.008	15.705	846.716	639.243
311.022	15.814	846.220	639.228
312.037	15.700	845.524	638.214
313.052	15.756	844.670	637.724
314.066	15.602	844.370	636.857
315.081	15.690	844.226	637.027
316.095	15.682	843.444	636.349
317.110	15.662	842.864	635.780
318.125	15.719	842.543	635.696
319.139	15.602	842.531	635.188
320.154	15.722	841.637	634.911
321.168	15.771	841.267	634.762
322.183	15.760	840.306	633.938
323.197	15.737	840.171	633.695
324.212	15.730	839.402	633.030
325.227	15.749	839.130	632.841
326.241	15.662	838.384	631.897
327.256	15.702	837.626	631.418
328.270	15.875	837.129	631.638
329.285	15.795	836.305	630.662
330.300	15.786	835.564	630.012
331.314	15.756	835.723	629.966
332.329	15.932	834.933	629.973
333.343	15.839	834.587	629.308
334.358	15.872	834.174	629.063
335.373	16.079	833.520	629.288
336.387	16.095	833.228	629.069
337.402	15.928	833.188	628.362
338.416	16.078	832.656	628.464
339.431	15.994	832.424	627.921
340.446	16.056	832.364	628.049
341.460	16.181	831.468	627.784
342.475	16.182	831.000	627.377
343.489	16.096	830.900	626.927
344.504	16.175	830.366	626.764
345.519	16.208	829.973	626.533
346.533	16.287	829.116	626.124
347.548	16.311	828.366	625.591
348.562	16.153	828.378	624.958
349.577	16.245	827.504	624.584
350.592	16.062	827.064	623.521
351.606	16.144	826.219	623.132
352.621	16.178	825.488	622.652
353.635	16.121	825.172	622.146
354.650	16.258	824.230	621.887
355.665	16.203	823.791	621.299
356.679	16.265	823.224	621.042
357.694	16.378	822.240	620.663
358.708	16.387	821.735	620.260
359.723	16.337	821.294	619.688
360.738	16.374	820.966	619.522
361.752	16.340	820.417	618.926
362.767	16.421	819.456	618.445
363.781	16.335	819.277	617.940
364.796	16.645	818.707	618.589
365.810	16.566	818.108	617.791
366.825	16.593	817.831	617.626
367.840	16.466	817.616	616.948
368.854	16.619	816.764	616.806
369.869	16.387	816.580	615.768
370.883	16.454	816.260	615.717
371.898	16.583	815.949	615.896
372.913	16.607	815.340	615.470
373.927	16.653	814.528	614.969
374.942	16.719	814.381	615.042
375.956	16.701	814.008	614.643
376.971	16.690	813.692	614.307
377.986	16.765	813.374	614.285
379.000	16.854	812.525	613.914
380.015	16.803	812.074	613.334
381.029	16.869	811.419	613.023
382.044	16.809	810.899	612.359
383.059	16.835	810.066	611.769
384.073	16.919	809.966	611.944
385.088	16.892	809.416	611.376
386.102	16.747	809.026	610.506
387.117	16.801	808.261	610.069
388.132	16.898	807.098	609.484
389.146	16.878	807.052	609.323
390.161	16.916	806.777	609.202
391.175	16.935	806.150	608.742
392.190	16.907	805.667	608.223
393.205	16.794	805.409	607.569
394.219	16.797	804.955	607.184
395.234	16.874	804.645	607.170
396.248	16.690	804.376	606.254
397.263	16.839	803.717	606.239
398.278	16.983	803.069	606.209
399.292	16.869	802.886	605.609
400.307	16.943	802.549	605.568
401.321	16.919	802.012	605.022
402.336	16.962	801.362	604.631
403.350	16.962	800.922	604.247
404.365	17.122	800.566	604.495
405.380	17.182	799.784	604.063
406.394	17.099	799.524	603.520
407.409	17.034	799.187	602.981
408.423	17.224	798.731	603.257
409.438	17.246	798.729	603.281
410.453	17.295	798.256	603.045
411.467	17.300	797.559	602.483
412.482	17.302	797.294	602.236
413.496	17.136	797.491	601.743
414.511	17.209	796.821	601.443
415.526	17.403	795.824	601.322
416.540	17.355	795.343	600.737
417.555	17.484	795.000	600.878
418.569	17.354	794.513	599.998
419.584	17.381	794.311	599.891
420.599	17.272	793.986	599.208
421.613	109.056	1290.555	1467.906
422.628	93.692	1362.893	1468.011
