DTS Sentinel unit serial number:	SN413079Multiplexer serial number:	ORYXHardware model number:	OX4-SRSoftware version number:	ORYX F/W v4.00 Oryx Data Collector v3.7.2.0data status	okinstallation	princeton_trtdifferential loss correction	single-endedforward channel	channel 1reverse channel	N/Adate	2019/09/15time	01:14:35forward acquisition time	60.00reverse acquisition time	0.00gamma	496.2192k internal	0.2321k external	0.2321temperature offset calibration	0.9989default loss term (dB/km)	0.3790temperature slope calibration	1.0000multiplexer offset coefficient	1.0000multiplexer slope coefficient	1.0000fibre end	0.00T internal ref (°C)	31.94T ext. ref 1 (°C)	4.51T ext. ref 2 (°C)	26.86length (m)	temperature (°C)	Stokes	anti-Stokes-747.200	-132.069	-0.573	0.075
-746.185	6.691	-0.508	0.382
-745.171	779.112	0.067	0.186
-744.156	555.733	-0.067	-0.163
-743.142	-200.000	-0.031	-0.274
-742.127	-164.760	-0.185	0.008
-741.112	-119.966	0.283	0.049
-740.098	-200.000	-0.050	0.413
-739.083	171.640	0.065	-0.094
-738.069	145.180	-0.207	0.280
-737.054	46.774	0.164	-0.154
-736.039	-123.940	-0.326	-0.052
-735.025	19.765	0.311	0.253
-734.010	-12.315	-0.288	0.190
-732.996	-101.703	-0.375	-0.092
-731.981	64.339	-0.136	-0.139
-730.966	195.817	-0.049	0.076
-729.952	101.667	-0.095	0.111
-728.937	-111.991	-0.240	-0.049
-727.923	-29.236	0.175	-0.102
-726.908	-200.000	0.198	-0.001
-725.894	-172.827	-0.139	-0.004
-724.879	-64.176	0.231	0.095
-723.864	-142.857	-0.200	-0.020
-722.850	-122.921	-0.346	-0.056
-721.835	-200.000	-0.202	-0.000
-720.821	-51.676	-0.075	0.035
-719.806	-200.000	-0.065	0.311
-718.791	-194.503	-0.578	0.005
-717.777	-82.091	-0.114	0.038
-716.762	549.586	0.104	-0.253
-715.748	632.768	-0.047	-0.119
-714.733	-145.445	-0.445	0.040
-713.718	-130.208	-0.315	-0.043
-712.704	-118.651	-0.208	-0.037
-711.689	-47.140	0.252	-0.124
-710.675	800.000	0.112	-0.354
-709.660	323.088	-0.112	-0.216
-708.645	-90.494	0.297	-0.087
-707.631	-32.124	-0.348	0.196
-706.616	-24.535	0.133	0.080
-705.602	54.855	-0.213	-0.207
-704.587	-80.563	-0.186	-0.063
-703.572	-155.680	0.244	-0.016
-702.558	800.000	-0.054	-0.188
-701.543	-182.481	-0.268	-0.005
-700.529	7.909	-0.090	0.068
-699.514	800.000	0.036	-0.104
-698.499	-46.065	-0.207	-0.103
-697.485	-200.000	0.024	0.324
-696.470	344.049	0.039	0.077
-695.456	403.105	-0.053	0.113
-694.441	115.315	-0.098	-0.121
-693.426	-101.943	0.167	0.041
-692.412	-200.000	0.008	0.289
-691.397	-38.758	0.178	-0.095
-690.383	21.955	-0.111	-0.091
-689.368	-200.000	0.001	-0.202
-688.354	-200.000	-0.003	0.021
-687.339	-112.200	0.165	0.033
-686.324	26.218	0.096	0.081
-685.310	-200.000	-0.013	0.179
-684.295	-51.133	-0.223	-0.105
-683.281	-11.122	-0.380	-0.253
-682.266	-57.943	0.234	0.103
-681.251	-64.954	-0.134	0.055
-680.237	120.148	0.045	0.056
-679.222	-14.152	-0.128	-0.083
-678.208	338.862	0.035	0.069
-677.193	-200.000	-0.024	-0.161
-676.178	-72.884	-0.060	-0.022
-675.164	-53.021	0.192	-0.089
-674.149	261.917	-0.077	0.135
-673.135	-200.000	-0.015	-0.209
-672.120	467.115	-0.084	0.190
-671.105	-165.635	-0.185	0.008
-670.091	-200.000	0.018	0.298
-669.076	323.547	0.069	0.133
-668.062	-0.844	-0.085	-0.061
-667.047	57.646	-0.098	0.097
-666.032	-47.069	-0.122	0.060
-665.018	-54.482	-0.324	-0.148
-664.003	800.000	-0.108	-0.339
-662.989	-200.000	-0.000	0.142
-661.974	468.899	-0.117	0.264
-660.959	25.432	-0.217	0.182
-659.945	-50.673	-0.218	-0.103
-658.930	-83.907	-0.270	0.087
-657.916	62.340	0.045	-0.045
-656.901	8.817	0.259	0.196
-655.886	-74.586	-0.302	0.109
-654.872	405.432	0.085	-0.180
-653.857	800.000	0.037	0.120
-652.843	-104.792	-0.124	0.029
-651.828	513.005	0.053	-0.124
-650.814	57.706	0.150	0.148
-649.799	-132.134	-0.266	-0.035
-648.784	-200.000	-0.020	0.216
-647.770	-70.250	0.094	-0.036
-646.755	292.774	-0.106	-0.195
-645.741	-128.839	-0.109	0.015
-644.726	-200.000	0.016	0.321
-643.711	26.644	0.221	0.186
-642.697	800.000	0.076	0.257
-641.682	-61.619	0.248	0.105
-640.668	800.000	0.073	-0.318
-639.653	74.773	-0.049	-0.052
-638.638	228.110	-0.139	-0.228
-637.624	-200.000	0.026	0.471
-636.609	-192.323	0.352	0.003
-635.595	-58.253	-0.251	0.110
-634.580	103.806	-0.233	-0.276
-633.565	84.210	-0.053	-0.058
-632.551	160.806	-0.189	-0.265
-631.536	14.687	-0.015	-0.012
-630.522	-112.510	0.412	0.083
-629.507	48.322	0.214	0.202
-628.492	-200.000	-0.143	0.001
-627.478	-200.000	0.006	-0.122
-626.463	-58.568	-0.285	-0.124
-625.449	12.496	0.134	0.104
-624.434	-89.521	-0.243	0.072
-623.419	-200.000	0.021	-0.329
-622.405	800.000	-0.046	0.202
-621.390	37.744	-0.162	0.144
-620.376	9.453	-0.320	0.244
-619.361	-36.997	0.092	0.050
-618.346	-200.000	0.026	-0.132
-617.332	-123.860	0.110	0.017
-616.317	-200.000	0.018	-0.195
-615.303	187.781	0.261	-0.392
-614.288	135.002	0.064	0.083
-613.273	-200.000	-0.009	-0.189
-612.259	800.000	0.055	0.170
-611.244	43.870	0.161	0.149
-610.230	282.235	0.108	0.195
-609.215	26.533	0.124	0.105
-608.201	800.000	0.021	-0.071
-607.186	-69.940	0.120	0.046
-606.171	-45.308	-0.416	0.208
-605.157	-46.626	0.158	0.078
-604.142	-117.276	0.510	0.093
-603.128	-87.536	-0.110	-0.033
-602.113	20.302	-0.172	0.140
-601.098	800.000	-0.045	-0.160
-600.084	241.752	0.152	-0.255
-599.069	-200.000	-0.011	0.086
-598.055	-200.000	-0.021	0.124
-597.040	-200.000	-0.031	-0.321
-596.025	-156.948	-0.303	-0.019
-595.011	-142.788	-0.169	0.017
-593.996	-1.937	0.188	-0.133
-592.982	800.000	-0.041	-0.170
-591.967	-200.000	0.045	0.241
-590.952	37.684	0.197	0.175
-589.938	-126.844	0.303	0.045
-588.923	-55.239	-0.210	-0.095
-587.909	800.000	-0.084	0.316
-586.894	-200.000	-0.018	-0.243
-585.879	-154.006	-0.277	-0.019
-584.865	-200.000	0.045	0.293
-583.850	481.241	0.101	0.231
-582.836	-200.000	-0.009	-0.128
-581.821	203.193	-0.081	-0.127
-580.806	293.730	-0.112	-0.206
-579.792	-82.562	-0.259	-0.084
-578.777	800.000	0.027	0.110
-577.763	-200.000	-0.041	0.262
-576.748	95.058	0.246	0.281
-575.733	800.000	0.033	-0.092
-574.719	128.204	0.032	-0.041
-573.704	114.571	-0.096	0.117
-572.690	-200.000	-0.038	-0.397
-571.675	800.000	-0.071	0.275
-570.661	210.656	-0.102	-0.161
-569.646	142.633	0.150	-0.201
-568.631	-150.188	0.190	0.015
-567.617	97.040	-0.198	-0.227
-566.602	728.447	0.082	-0.219
-565.588	-197.488	-0.084	0.001
-564.573	800.000	-0.146	0.410
-563.558	-120.951	-0.298	-0.050
-562.544	-69.908	0.090	-0.035
-561.529	-40.752	0.042	0.022
-560.515	-15.196	-0.170	0.109
-559.500	-143.742	-0.335	0.032
-558.485	-200.000	0.020	-0.096
-557.471	-109.912	-0.419	0.088
-556.456	-200.000	0.000	0.167
-555.442	60.716	0.090	0.089
-554.427	-28.559	-0.043	-0.025
-553.412	-60.065	0.082	-0.035
-552.398	-25.924	-0.150	0.089
-551.383	143.579	-0.165	-0.221
-550.369	-174.477	0.138	-0.004
-549.354	111.249	0.125	-0.151
-548.339	-117.342	-0.078	-0.014
-547.325	-166.510	0.300	0.013
-546.310	800.000	-0.093	-0.259
-545.296	13.149	-0.270	-0.210
-544.281	-56.586	-0.181	0.081
-543.266	-175.851	-0.252	0.007
-542.252	-46.153	-0.258	0.127
-541.237	-27.204	-0.130	-0.076
-540.223	191.191	0.125	0.189
-539.208	800.000	-0.058	-0.250
-538.193	648.679	-0.145	-0.373
-537.179	-34.622	-0.179	-0.098
-536.164	13.262	0.039	0.030
-535.150	-64.852	0.178	0.072
-534.135	-126.124	-0.244	0.037
-533.121	-200.000	-0.040	0.434
-532.106	40.191	0.338	0.304
-531.091	185.150	0.074	0.110
-530.077	-200.000	-0.025	0.137
-529.062	30.485	0.089	0.076
-528.048	83.610	-0.163	0.179
-527.033	-200.000	-0.020	0.141
-526.018	3.729	0.065	-0.048
-525.004	65.929	-0.228	-0.232
-523.989	-8.157	-0.152	-0.103
-522.975	-25.806	0.219	-0.129
-521.960	-83.692	0.200	0.064
-520.945	-72.958	0.109	0.040
-519.931	85.634	-0.063	-0.069
-518.916	47.131	-0.121	-0.113
-517.902	800.000	0.016	-0.055
-516.887	56.932	-0.250	-0.244
-515.872	57.085	-0.222	-0.217
-514.858	-130.206	-0.278	0.038
-513.843	-5.724	0.176	-0.121
-512.829	-41.973	-0.344	0.177
-511.814	139.060	0.158	0.208
-510.799	-132.225	0.107	0.014
-509.785	-41.809	0.265	-0.136
-508.770	649.181	0.120	0.307
-507.756	800.000	-0.016	0.052
-506.741	49.273	-0.137	0.129
-505.726	800.000	0.033	-0.102
-504.712	-13.266	0.030	0.019
-503.697	-156.242	-0.142	0.009
-502.683	-39.636	0.053	0.028
-501.668	642.231	0.063	0.161
-500.653	800.000	0.021	0.063
-499.639	800.000	0.024	0.085
-498.624	-145.604	-0.324	-0.029
-497.610	-5.477	0.119	-0.082
-496.595	-101.392	-0.127	-0.031
-495.581	-171.560	-0.319	0.011
-494.566	-21.730	-0.103	0.063
-493.551	446.086	0.012	0.027
-492.537	800.000	0.098	0.305
-491.522	115.520	-0.061	-0.075
-490.508	-177.020	0.026	-0.001
-489.493	284.981	0.100	0.180
-488.478	131.691	0.155	0.199
-487.464	800.000	-0.095	-0.332
-486.449	-70.000	0.221	0.084
-485.435	205.130	-0.161	-0.250
-484.420	-77.457	-0.188	-0.065
-483.405	-200.000	-0.019	0.351
-482.391	590.226	0.090	-0.221
-481.376	125.241	-0.119	-0.150
-480.362	-103.695	-0.108	0.025
-479.347	-141.411	-0.192	-0.019
-478.332	800.000	-0.059	-0.209
-477.318	-11.617	0.235	0.154
-476.303	-200.000	0.026	-0.127
-475.289	480.435	-0.099	-0.224
-474.274	-200.000	0.002	-0.075
-473.259	-200.000	-0.009	-0.257
-472.245	-91.421	0.163	-0.046
-471.230	83.110	-0.130	0.141
-470.216	800.000	-0.035	0.122
-469.201	-181.361	-0.184	0.004
-468.186	-200.000	0.014	0.420
-467.172	169.792	-0.158	0.226
-466.157	132.670	0.044	0.057
-465.143	512.400	0.036	0.084
-464.128	47.280	-0.073	0.068
-463.113	-70.618	0.321	0.121
-462.099	46.546	-0.216	-0.200
-461.084	-25.451	0.204	-0.120
-460.070	-200.000	0.033	-0.256
-459.055	-39.563	-0.093	-0.049
-458.040	103.507	-0.162	0.191
-457.026	393.992	-0.067	0.140
-456.011	717.926	0.040	-0.106
-454.997	81.284	-0.094	-0.102
-453.982	-148.125	-0.161	-0.013
-452.968	29.696	-0.238	0.202
-451.953	113.200	-0.136	0.165
-450.938	-69.815	-0.168	0.064
-449.924	19.907	-0.242	0.195
-448.909	-200.000	-0.076	0.378
-447.895	-44.813	0.216	-0.108
-446.880	53.443	0.171	-0.164
-445.865	-200.000	0.054	-0.239
-444.851	780.605	-0.068	-0.187
-443.836	-200.000	0.004	0.021
-442.822	-87.128	-0.151	-0.046
-441.807	-131.513	-0.114	-0.015
-440.792	36.699	-0.180	-0.159
-439.778	33.726	-0.223	-0.194
-438.763	-200.000	-0.006	-0.055
-437.749	800.000	-0.096	0.272
-436.734	-200.000	-0.023	0.196
-435.719	-124.750	0.182	0.028
-434.705	-76.540	-0.273	0.096
-433.690	108.781	0.156	0.186
-432.676	-12.637	-0.120	-0.078
-431.661	-22.942	-0.142	-0.086
-430.646	23.593	0.049	-0.040
-429.632	800.000	-0.041	-0.121
-428.617	-46.806	-0.024	-0.012
-427.603	234.426	0.115	0.189
-426.588	800.000	0.010	-0.042
-425.573	800.000	-0.053	-0.196
-424.559	-200.000	0.302	0.000
-423.544	208.340	0.050	-0.078
-422.530	225.868	-0.015	0.024
-421.515	208.717	-0.103	-0.162
-420.500	18.451	0.195	0.156
-419.486	3.540	-0.205	-0.149
-418.471	-118.643	0.268	-0.047
-417.457	182.387	0.120	0.177
-416.442	-125.170	0.224	0.034
-415.428	-48.891	-0.262	0.125
-414.413	-93.384	0.082	-0.023
-413.398	-75.185	-0.363	-0.129
-412.384	-200.000	-0.001	0.181
-411.369	167.953	0.085	-0.121
-410.355	294.401	-0.188	-0.344
-409.340	-200.000	-0.008	0.101
-408.325	-92.541	-0.065	0.018
-407.311	-178.660	-0.139	-0.003
-406.296	-94.201	-0.160	-0.044
-405.282	-102.135	0.229	-0.055
-404.267	-89.826	-0.101	0.030
-403.252	-108.773	0.232	0.050
-402.238	-39.491	-0.240	-0.126
-401.223	-64.166	0.233	-0.095
-400.209	800.000	-0.062	-0.238
-399.194	-200.000	0.058	-0.379
-398.179	800.000	0.015	-0.050
-397.165	283.797	0.105	-0.188
-396.150	-149.540	0.238	0.019
-395.136	156.763	-0.065	0.090
-394.121	-142.052	0.358	0.036
-393.106	800.000	-0.081	-0.265
-392.092	-65.010	-0.234	0.094
-391.077	87.388	0.144	-0.158
-390.063	800.000	0.053	0.162
-389.048	-156.953	-0.203	-0.012
-388.033	-75.800	-0.152	0.054
-387.019	-148.786	0.124	0.010
-386.004	-200.000	-0.042	-0.215
-384.990	-75.219	0.445	-0.158
-383.975	61.437	-0.114	0.113
-382.960	-84.420	0.325	0.102
-381.946	129.094	-0.082	-0.105
-380.931	177.559	0.308	0.448
-379.917	548.342	0.107	0.254
-378.902	-146.705	0.109	-0.009
-377.888	-200.000	0.008	-0.207
-376.873	-200.000	-0.002	0.027
-375.858	-200.000	-0.015	-0.201
-374.844	-31.977	0.180	0.101
-373.829	92.475	0.016	0.018
-372.815	-25.647	0.194	0.114
-371.800	318.066	0.088	-0.165
-370.785	-200.000	-0.024	0.202
-369.771	-1.519	0.009	-0.006
-368.756	800.000	-0.022	-0.075
-367.742	-16.356	0.155	0.098
-366.727	-146.401	0.264	-0.023
-365.712	800.000	-0.033	-0.133
-364.698	14.633	-0.193	-0.150
-363.683	-160.039	-0.300	-0.016
-362.669	135.008	0.053	-0.069
-361.654	123.889	-0.040	-0.049
-360.639	141.922	-0.111	0.147
-359.625	-200.000	0.032	-0.146
-358.610	-19.295	-0.343	0.212
-357.596	800.000	0.022	-0.087
-356.581	-86.392	0.499	-0.153
-355.566	116.374	-0.045	0.055
-354.552	539.388	0.049	-0.116
-353.537	-71.429	-0.111	-0.041
-352.523	-200.000	-0.048	-0.287
-351.508	87.251	-0.266	-0.293
-350.493	-200.000	0.035	0.270
-349.479	361.254	0.126	-0.252
-348.464	-200.000	0.003	-0.188
-347.450	800.000	-0.147	0.458
-346.435	30.642	-0.125	0.106
-345.420	-25.011	-0.014	0.009
-344.406	-200.000	-0.015	-0.210
-343.391	-175.322	0.159	0.004
-342.377	-122.659	-0.272	-0.044
-341.362	-150.139	0.217	-0.017
-340.348	28.336	-0.048	-0.041
-339.333	580.932	-0.115	-0.281
-338.318	62.015	0.188	0.187
-337.304	-28.378	0.205	-0.118
-336.289	800.000	-0.024	-0.082
-335.275	568.918	0.041	-0.100
-334.260	-200.000	-0.032	0.141
-333.245	76.713	0.076	0.080
-332.231	96.999	-0.084	-0.095
-331.216	-200.000	-0.003	0.172
-330.202	-30.745	-0.131	-0.074
-329.187	1.907	0.426	0.306
-328.172	-200.000	-0.016	0.187
-327.158	456.046	0.023	-0.050
-326.143	-122.773	-0.247	0.040
-325.129	-85.367	0.276	0.086
-324.114	319.914	-0.079	0.149
-323.099	-200.000	0.018	0.351
-322.085	-91.770	0.158	0.045
-321.070	-38.285	0.215	-0.113
-320.056	266.639	0.116	0.202
-319.041	-22.673	0.129	0.077
-318.026	-7.734	-0.137	-0.092
-317.012	-189.523	-0.241	-0.003
-315.997	47.956	0.028	-0.026
-314.983	625.288	-0.085	0.212
-313.968	-54.137	0.335	0.151
-312.953	-74.701	0.112	-0.040
-311.939	-89.379	0.254	-0.074
-310.924	759.203	0.046	-0.124
-309.910	-40.778	0.304	0.157
-308.895	-116.734	0.111	0.020
-307.880	-112.029	-0.183	-0.037
-306.866	800.000	0.008	-0.032
-305.851	-200.000	-0.011	0.065
-304.837	-74.397	0.098	0.035
-303.822	-59.388	0.133	-0.057
-302.807	185.085	0.087	0.129
-301.793	77.036	0.246	0.260
-300.778	21.327	0.262	-0.211
-299.764	-4.947	0.154	0.105
-298.749	79.929	-0.134	0.144
-297.735	-200.000	0.039	-0.273
-296.720	-80.836	-0.123	-0.041
-295.705	-200.000	0.015	0.266
-294.691	32.277	-0.091	0.078
-293.676	88.862	0.106	-0.117
-292.662	72.231	0.068	-0.070
-291.647	37.911	-0.255	-0.225
-290.632	628.352	0.038	0.095
-289.618	-69.206	-0.081	-0.031
-288.603	800.000	0.065	0.204
-287.589	-16.985	-0.071	0.045
-286.574	-177.482	0.261	-0.006
-285.559	-22.757	-0.295	-0.177
-284.545	400.074	0.083	-0.173
-283.530	309.925	0.108	0.201
-282.516	800.000	-0.031	0.114
-281.501	800.000	0.102	0.313
-280.486	401.790	0.083	-0.174
-279.472	112.279	0.196	-0.236
-278.457	2.007	0.154	0.110
-277.443	-164.859	0.436	-0.019
-276.428	-5.602	-0.166	-0.113
-275.413	-67.772	-0.142	-0.055
-274.399	-200.000	-0.017	-0.284
-273.384	266.730	0.044	0.076
-272.370	-87.132	-0.134	-0.040
-271.355	190.430	-0.048	-0.071
-270.340	416.278	-0.197	0.417
-269.326	600.498	-0.151	0.371
-268.311	-101.305	-0.410	0.099
-267.297	-149.269	-0.181	-0.014
-266.282	-136.964	0.189	0.021
-265.267	100.577	0.203	0.234
-264.253	215.737	-0.114	0.179
-263.238	112.159	-0.115	-0.138
-262.224	-174.693	-0.234	0.007
-261.209	-200.000	0.012	0.330
-260.195	800.000	0.021	-0.060
-259.180	10.788	0.198	-0.150
-258.165	-31.429	-0.134	-0.075
-257.151	-77.021	0.285	0.099
-256.136	45.410	0.063	0.057
-255.122	-64.977	0.245	-0.098
-254.107	-200.000	-0.024	-0.209
-253.092	168.605	-0.096	-0.136
-252.078	268.026	0.019	-0.034
-251.063	-17.980	-0.240	-0.149
-250.049	68.097	0.177	-0.179
-249.034	125.742	-0.064	0.081
-248.019	-56.904	-0.251	0.110
-247.005	-131.954	0.304	0.039
-245.990	800.000	-0.135	-0.458
-244.976	-200.000	0.038	0.253
-243.961	130.754	0.086	0.109
-242.946	-134.392	0.142	0.017
-241.932	96.810	0.144	-0.164
-240.917	59.154	-0.187	0.183
-239.903	637.303	-0.034	0.085
-238.888	782.028	-0.043	-0.116
-237.873	-56.235	0.196	0.087
-236.859	-30.196	-0.015	-0.008
-235.844	26.060	0.314	0.260
-234.830	-200.000	-0.080	-0.376
-233.815	29.628	-0.077	0.065
-232.800	800.000	0.076	-0.275
-231.786	-66.804	0.165	0.065
-230.771	-48.664	0.111	0.053
-229.757	-50.037	0.399	0.187
-228.742	22.437	0.297	0.240
-227.727	721.940	-0.103	0.270
-226.713	-200.000	0.070	-0.434
-225.698	315.986	-0.080	-0.150
-224.684	155.522	-0.212	-0.290
-223.669	68.829	-0.377	0.383
-222.655	-83.551	0.100	0.032
-221.640	-200.000	0.007	0.399
-220.625	-71.654	-0.336	0.124
-219.611	-97.057	-0.219	0.057
-218.596	-128.144	0.150	-0.021
-217.582	-67.611	0.300	0.117
-216.567	-125.283	0.272	0.041
-215.552	526.668	-0.068	-0.158
-214.538	-79.748	-0.113	0.038
-213.523	-198.788	0.198	0.001
-212.509	-48.888	-0.054	-0.025
-211.494	800.000	0.058	0.195
-210.479	718.987	0.045	-0.118
-209.465	-5.410	0.152	-0.103
-208.450	165.482	0.133	0.186
-207.436	-29.866	0.076	-0.043
-206.421	103.449	0.266	-0.309
-205.406	-83.232	-0.139	-0.044
-204.392	-85.585	0.156	-0.048
-203.377	77.674	0.139	-0.147
-202.363	800.000	-0.091	-0.295
-201.348	-136.831	-0.312	-0.035
-200.333	-132.205	-0.060	-0.008
-199.319	42.698	0.085	-0.076
-198.304	-40.145	0.054	-0.028
-197.290	-200.000	-0.042	-0.233
-196.275	-200.000	-0.036	-0.296
-195.260	-55.913	-0.132	-0.058
-194.246	247.087	0.162	-0.271
-193.231	-200.000	-0.010	-0.119
-192.217	800.000	0.008	-0.024
-191.202	-200.000	0.066	-0.438
-190.187	-14.771	0.374	0.238
-189.173	-102.615	-0.346	0.082
-188.158	66.683	-0.075	-0.075
-187.144	-155.315	-0.085	-0.005
-186.129	220.041	0.140	-0.222
-185.114	-31.390	-0.177	-0.098
-184.100	422.350	0.052	-0.110
-183.085	-200.000	0.002	-0.011
-182.071	258.863	0.081	0.138
-181.056	316.210	-0.033	-0.061
-180.042	-27.102	-0.141	0.082
-179.027	-76.396	0.194	0.067
-178.012	-200.000	0.008	0.278
-176.998	-200.000	0.029	-0.382
-175.983	55.091	-0.202	-0.193
-174.969	-161.186	0.359	0.018
-173.954	-200.000	-0.002	0.245
-172.939	-8.658	-0.079	-0.053
-171.925	-122.519	0.190	-0.031
-170.910	800.000	-0.048	0.170
-169.896	1.906	-0.050	-0.036
-168.881	-200.000	0.010	0.089
-167.866	800.000	-0.066	0.256
-166.852	-200.000	0.001	-0.230
-165.837	388.398	0.059	-0.120
-164.823	-200.000	0.023	0.180
-163.808	582.393	0.036	0.087
-162.793	-99.040	-0.308	-0.077
-161.779	283.615	0.036	0.064
-160.764	28.538	0.278	0.233
-159.750	12.243	0.116	0.088
-158.735	-91.602	-0.129	0.036
-157.720	-13.790	0.526	-0.336
-156.706	48.106	-0.159	-0.146
-155.691	800.000	-0.024	-0.077
-154.677	167.988	0.162	0.228
-153.662	-88.299	-0.502	0.148
-152.647	-200.000	-0.033	0.242
-151.633	121.517	-0.169	-0.208
-150.618	-101.858	0.306	0.073
-149.604	328.588	-0.135	-0.255
-148.589	24.085	0.220	0.179
-147.574	-136.123	-0.351	0.041
-146.560	139.835	-0.161	-0.210
-145.545	87.512	-0.216	-0.236
-144.531	-145.043	-0.485	0.044
-143.516	107.887	-0.106	-0.125
-142.502	-80.276	-0.066	0.022
-141.487	800.000	-0.033	-0.133
-140.472	-135.581	-0.359	-0.042
-139.458	-153.489	0.047	0.003
-138.443	111.963	-0.159	0.190
-137.429	-200.000	-0.003	-0.129
-136.414	-200.000	0.040	0.316
-135.399	-119.923	0.028	0.005
-134.385	109.778	0.093	-0.110
-133.370	271.802	0.130	-0.227
-132.356	-151.716	-0.429	-0.031
-131.341	-10.494	-0.459	0.300
-130.326	-141.026	0.080	0.008
-129.312	18.159	-0.114	-0.090
-128.297	623.900	0.040	0.100
-127.283	232.805	0.063	0.102
-126.268	-47.966	0.087	-0.042
-125.253	800.000	0.071	0.221
-124.239	-200.000	-0.074	0.390
-123.224	-200.000	0.072	0.336
-122.210	-13.984	-0.072	-0.046
-121.195	-17.560	-0.135	0.083
-120.180	-200.000	0.050	0.287
-119.166	-200.000	-0.008	-0.122
-118.151	-59.472	-0.094	0.040
-117.137	-200.000	0.007	-0.318
-116.122	28.767	-0.190	-0.159
-115.107	-72.265	0.129	0.047
-114.093	-117.196	0.329	-0.059
-113.078	-119.724	-0.362	0.062
-112.064	-142.621	0.226	-0.022
-111.049	-12.635	0.076	-0.049
-110.034	-96.947	0.066	0.017
-109.020	-194.383	-0.178	0.001
-108.005	-159.955	0.199	0.011
-106.991	221.568	-0.077	-0.121
-105.976	-28.763	0.132	0.075
-104.962	773.906	0.055	-0.148
-103.947	-158.696	-0.116	0.007
-102.932	41.238	0.104	0.093
-101.918	137.116	0.024	-0.031
-100.903	-200.000	0.013	0.063
-99.889	105.598	0.137	0.160
-98.874	261.742	-0.088	-0.150
-97.859	-87.654	0.293	-0.087
-96.845	800.000	-0.118	0.369
-95.830	105.572	0.128	0.149
-94.816	171.754	0.095	-0.135
-93.801	-200.000	-0.114	0.000
-92.786	-200.000	0.002	0.072
-91.772	-153.708	0.186	-0.013
-90.757	603.866	-0.059	0.145
-89.743	290.096	-0.286	-0.511
-88.728	-3.208	-0.230	-0.158
-87.713	-12.815	-0.068	-0.043
-86.699	-110.747	-0.351	0.071
-85.684	-200.000	0.014	-0.134
-84.670	-48.056	0.171	-0.081
-83.655	303.279	0.074	0.134
-82.640	800.000	-0.043	-0.149
-81.626	-200.000	-0.013	-0.262
-80.611	413.889	0.082	0.172
-79.597	-134.734	-0.300	-0.036
-78.582	-33.592	0.185	-0.101
-77.567	-200.000	0.341	-0.001
-76.553	-149.560	0.224	-0.017
-75.538	211.490	0.169	-0.262
-74.524	-73.400	-0.296	0.106
-73.509	225.802	-0.136	0.217
-72.494	-112.570	0.426	0.084
-71.480	-18.961	0.182	0.111
-70.465	17.602	-0.081	0.063
-69.451	233.932	0.235	0.382
-68.436	29.802	-0.117	-0.098
-67.422	107.654	0.077	-0.090
-66.407	31.069	-0.111	0.094
-65.392	8.748	0.370	0.274
-64.378	62.680	-0.187	-0.184
-63.363	57.757	0.118	0.114
-62.349	-200.000	-0.026	-0.203
-61.334	44.126	-1.211	-1.093
-60.319	-64.053	0.683	0.275
-59.305	432.460	-0.404	-0.862
-58.290	800.000	0.358	1.196
-57.276	366.599	0.836	1.660
-56.261	-200.000	95.371	593.188
-55.246	653.649	1368.840	3455.265
-54.232	199.774	2544.525	3842.007
-53.217	120.543	2138.804	2614.552
-52.203	44.055	1601.837	1444.889
-51.188	35.487	1339.812	1157.130
-50.173	32.391	1297.980	1102.844
-49.159	54.551	1344.719	1275.133
-48.144	56.668	1361.542	1303.642
-47.130	35.688	1320.452	1141.420
-46.115	32.195	1303.512	1106.215
-45.100	32.027	1298.007	1100.511
-44.086	31.928	1295.866	1098.074
-43.071	31.791	1293.685	1095.383
-42.057	31.957	1290.914	1093.960
-41.042	31.787	1290.121	1092.252
-40.027	31.851	1288.127	1090.895
-39.013	31.831	1286.331	1089.212
-37.998	31.853	1284.823	1088.020
-36.984	31.854	1283.162	1086.576
-35.969	31.983	1280.856	1085.330
-34.954	32.022	1278.947	1083.893
-33.940	32.043	1277.943	1083.120
-32.925	31.948	1276.915	1081.658
-31.911	32.005	1275.310	1080.583
-30.896	31.945	1273.736	1078.863
-29.881	32.076	1272.052	1078.143
-28.867	32.010	1270.881	1076.731
-27.852	32.138	1269.224	1076.021
-26.838	32.005	1268.330	1074.457
-25.823	32.021	1266.994	1073.371
-24.809	31.896	1266.106	1071.862
-23.794	32.038	1264.531	1071.298
-22.779	31.990	1262.992	1069.680
-21.765	32.086	1261.698	1069.085
-20.750	32.103	1260.274	1067.937
-19.736	31.964	1259.261	1066.244
-18.721	31.893	1258.101	1064.814
-17.706	31.850	1257.203	1063.772
-16.692	31.909	1255.558	1062.672
-15.677	31.806	1255.034	1061.601
-14.663	31.906	1253.268	1060.632
-13.648	31.845	1252.343	1059.461
-12.633	31.989	1251.199	1059.263
-11.619	31.931	1250.691	1058.467
-10.604	31.839	1249.772	1057.124
-9.590	31.870	1248.962	1056.571
-8.575	31.855	1247.764	1055.437
-7.560	31.880	1246.833	1054.745
-6.546	31.874	1246.351	1054.263
-5.531	31.841	1245.431	1053.257
-4.517	31.848	1244.523	1052.489
-3.502	31.903	1243.725	1052.078
-2.487	31.908	1242.358	1050.911
-1.473	31.911	1238.302	1047.450
-0.458	30.463	1223.637	1027.009
0.556	25.820	1206.476	989.760
1.571	22.125	1211.767	973.581
2.586	21.171	1226.349	979.859
3.600	20.630	1215.409	968.021
4.615	15.748	1144.482	885.800
5.629	7.992	1071.865	791.135
6.644	4.718	1052.488	760.778
7.659	4.439	1050.567	757.957
8.673	4.423	1049.541	757.074
9.688	4.450	1048.351	756.280
10.702	4.615	1046.130	755.412
11.717	8.971	1051.885	780.744
12.731	15.957	1061.845	822.281
13.746	18.750	1063.896	837.440
14.761	18.155	1062.558	833.409
15.775	17.019	1060.527	826.217
16.790	15.728	1059.262	818.876
17.804	15.234	1057.347	814.920
18.819	14.923	1056.220	812.471
19.834	14.711	1055.016	810.441
20.848	14.427	1054.463	808.570
21.863	14.255	1053.267	806.744
22.877	14.190	1052.527	805.793
23.892	14.069	1052.234	804.910
24.907	14.063	1051.660	804.373
25.921	14.105	1050.800	803.846
26.936	14.250	1048.978	803.080
27.950	14.115	1048.186	801.755
28.965	14.230	1046.382	800.854
29.980	14.268	1044.696	799.677
30.994	14.405	1043.611	799.433
32.009	14.532	1042.661	799.243
33.023	14.352	1041.715	797.585
34.038	14.328	1040.369	796.372
35.053	14.176	1039.710	795.068
36.067	14.348	1038.184	794.655
37.082	14.154	1038.135	793.618
38.096	14.369	1036.974	793.684
39.111	14.251	1036.712	792.854
40.126	14.234	1035.476	791.758
41.140	13.977	1034.129	789.434
42.155	13.984	1032.995	788.533
43.169	13.846	1032.174	787.185
44.184	13.881	1030.889	786.301
45.199	13.909	1029.943	785.640
46.213	14.019	1029.004	785.374
47.228	14.158	1027.683	784.951
48.242	14.148	1026.989	784.308
49.257	14.240	1025.497	783.529
50.271	14.266	1024.826	783.068
51.286	14.249	1024.391	782.589
52.301	14.195	1022.737	781.003
53.315	14.068	1022.178	779.909
54.330	14.020	1021.091	778.786
55.344	14.062	1020.286	778.299
56.359	14.067	1019.511	777.666
57.374	14.007	1018.751	776.734
58.388	13.941	1017.876	775.690
59.403	13.874	1016.789	774.481
60.417	13.984	1016.075	774.382
61.432	13.817	1015.400	773.023
62.447	13.843	1014.584	772.455
63.461	13.782	1014.296	771.881
64.476	13.932	1012.839	771.401
65.490	13.763	1012.291	770.132
66.505	13.905	1011.431	770.069
67.520	13.996	1010.823	769.957
68.534	14.021	1009.704	769.152
69.549	13.860	1009.497	768.185
70.563	13.926	1008.348	767.544
71.578	13.764	1007.685	766.225
72.593	13.707	1007.055	765.413
73.607	13.718	1006.361	764.868
74.622	13.799	1006.147	765.012
75.636	13.918	1004.945	764.578
76.651	13.854	1004.394	763.799
77.666	13.752	1003.973	762.942
78.680	13.893	1002.996	762.778
79.695	13.848	1002.503	762.129
80.709	13.852	1002.357	761.968
81.724	14.034	1001.377	761.993
82.739	14.043	1000.554	761.338
83.753	14.158	999.914	761.311
84.768	14.226	999.187	761.001
85.782	14.522	997.692	761.148
86.797	14.336	997.034	759.730
87.812	14.166	996.212	758.263
88.826	14.141	995.186	757.300
89.841	14.198	994.311	756.823
90.855	14.310	993.396	756.570
91.870	14.413	992.599	756.365
92.884	14.306	992.014	755.365
93.899	14.301	991.035	754.529
94.914	14.376	990.271	754.224
95.928	14.369	989.622	753.629
96.943	14.197	988.610	752.016
97.957	14.387	987.247	751.768
98.972	14.373	986.584	751.136
99.987	14.377	986.318	750.883
101.001	14.117	985.867	749.301
102.016	14.372	983.970	748.939
103.030	14.354	983.716	748.599
104.045	14.275	983.079	747.696
105.060	14.209	982.119	746.601
106.074	14.112	981.171	745.382
107.089	14.102	980.206	744.538
108.103	13.955	979.308	743.132
109.118	13.987	977.968	742.193
110.133	13.885	977.652	741.434
111.147	14.053	975.990	740.856
112.162	14.027	975.458	740.270
113.176	13.975	975.132	739.724
114.191	14.192	973.988	739.756
115.206	14.184	973.009	738.912
116.220	14.112	972.123	737.853
117.235	13.957	971.577	736.686
118.249	14.013	970.657	736.172
119.264	14.056	969.991	735.791
120.279	14.046	969.018	734.943
121.293	13.980	967.964	733.789
122.308	14.028	967.137	733.309
123.322	13.931	966.114	732.041
124.337	13.911	965.378	731.329
125.352	13.896	964.289	730.377
126.366	13.974	962.873	729.582
127.381	14.027	962.371	729.369
128.395	14.018	961.104	728.304
129.410	14.039	960.402	727.797
130.424	14.101	959.491	727.314
131.439	14.090	959.180	726.968
132.454	14.074	958.093	726.010
133.468	14.095	957.438	725.541
134.483	14.306	956.382	725.597
135.497	14.110	955.754	724.202
136.512	14.153	954.919	723.692
137.527	14.133	954.322	723.087
138.541	14.126	953.532	722.397
139.556	14.162	952.936	722.039
140.570	14.273	951.914	721.679
141.585	14.363	951.516	721.705
142.600	14.336	950.308	720.607
143.614	14.440	949.190	720.144
144.629	14.451	948.460	719.574
145.643	14.347	947.990	718.704
146.658	14.375	946.608	717.713
147.673	14.243	945.706	716.401
148.687	14.174	944.927	715.450
149.702	14.252	943.766	714.840
150.716	14.220	943.471	714.416
151.731	14.376	942.339	714.165
152.746	14.178	942.122	713.090
153.760	14.222	941.605	712.822
154.775	14.272	940.900	712.440
155.789	14.409	939.844	712.166
156.804	14.393	939.236	711.570
157.819	14.495	938.743	711.572
158.833	14.479	938.028	710.897
159.848	14.614	937.332	710.883
160.862	14.315	936.508	708.924
161.877	14.383	935.148	708.120
162.892	14.165	934.603	706.718
163.906	14.213	933.392	705.944
164.921	14.260	932.725	705.577
165.935	14.200	931.759	704.530
166.950	14.448	930.615	704.648
167.964	14.400	930.015	703.931
168.979	14.366	928.920	702.894
169.994	14.399	928.431	702.604
171.008	14.414	927.843	702.160
172.023	14.403	927.180	701.549
173.037	14.514	926.216	701.224
174.052	14.648	925.179	700.939
175.067	14.371	924.927	699.522
176.081	14.358	924.128	698.802
177.096	14.337	923.931	698.502
178.110	14.558	923.011	698.671
179.125	14.413	922.609	697.701
180.140	14.496	921.987	697.514
181.154	14.534	921.577	697.299
182.169	14.505	921.300	696.910
183.183	14.670	920.194	696.700
184.198	14.603	919.606	695.912
185.213	14.584	918.747	695.120
186.227	14.623	918.078	694.717
187.242	14.661	917.739	694.558
188.256	14.758	917.092	694.407
189.271	14.733	916.340	693.674
190.286	14.509	915.751	692.239
191.300	14.248	914.826	690.394
192.315	14.385	913.415	689.835
193.329	14.500	912.623	689.652
194.344	14.557	912.429	689.682
195.359	14.516	912.009	689.132
196.373	14.621	911.757	689.312
197.388	14.646	911.472	689.140
198.402	14.865	910.581	689.310
199.417	14.988	910.127	689.411
200.432	15.022	909.842	689.277
201.446	14.978	909.092	688.463
202.461	15.034	908.539	688.215
203.475	15.003	907.984	687.609
204.490	14.955	907.107	686.685
205.504	14.811	906.439	685.526
206.519	14.812	905.651	684.873
207.534	14.650	905.352	683.925
208.548	14.844	904.313	683.872
209.563	14.850	903.702	683.377
210.577	14.861	902.840	682.708
211.592	15.167	902.269	683.466
212.607	15.004	901.690	682.299
213.621	15.043	900.584	681.564
214.636	15.225	899.688	681.564
215.650	15.152	899.337	680.940
216.665	15.215	898.530	680.525
217.680	15.177	898.010	679.916
218.694	15.162	897.527	679.431
219.709	15.148	897.276	679.123
220.723	15.138	896.063	678.105
221.738	15.188	895.573	677.875
222.753	15.202	894.926	677.383
223.767	15.233	894.487	677.115
224.782	15.271	894.076	676.897
225.796	15.288	893.427	676.417
226.811	15.254	893.032	675.921
227.826	15.095	892.120	674.529
228.840	15.271	891.327	674.580
229.855	15.181	890.734	673.707
230.869	15.213	889.773	673.049
231.884	15.168	889.284	672.442
232.899	15.112	888.256	671.380
233.913	15.123	887.634	670.893
234.928	15.187	886.841	670.492
235.942	15.049	886.467	669.596
236.957	15.106	886.177	669.544
237.972	15.118	885.174	668.779
238.986	15.149	884.646	668.442
240.001	15.100	884.185	667.841
241.015	15.118	883.620	667.425
242.030	15.291	883.109	667.671
243.045	15.235	882.671	667.058
244.059	15.450	881.756	667.160
245.074	15.325	881.290	666.252
246.088	15.410	880.767	666.137
247.103	15.631	879.685	666.135
248.117	15.517	879.768	665.687
249.132	15.619	879.431	665.777
250.147	15.664	879.165	665.694
251.161	15.695	877.791	664.719
252.176	15.732	877.443	664.543
253.190	15.811	876.725	664.253
254.205	15.893	876.055	664.008
255.220	15.913	875.267	663.431
256.234	15.874	874.865	662.914
257.249	15.790	874.270	662.074
258.263	15.763	873.657	661.444
259.278	15.901	872.533	661.077
260.293	15.960	872.205	661.000
261.307	15.946	871.701	660.505
262.322	15.958	871.125	660.059
263.336	15.969	870.477	659.554
264.351	16.030	869.598	659.065
265.366	15.882	868.937	657.928
266.380	16.047	868.713	658.345
267.395	15.983	867.647	657.229
268.409	15.957	867.286	656.795
269.424	15.940	866.118	655.788
270.439	16.021	865.575	655.634
271.453	15.907	865.289	654.918
272.468	15.870	864.663	654.241
273.482	15.787	864.336	653.613
274.497	15.899	863.820	653.601
275.512	15.950	862.898	653.040
276.526	15.910	862.131	652.249
277.541	16.007	861.883	652.377
278.555	16.014	861.458	652.028
279.570	16.167	860.725	652.006
280.585	16.289	859.760	651.689
281.599	16.088	859.079	650.337
282.614	16.099	858.518	649.901
283.628	16.154	857.717	649.445
284.643	16.146	857.313	649.052
285.657	16.056	856.566	648.085
286.672	16.095	856.426	648.072
287.687	16.160	855.318	647.425
288.701	16.100	855.165	647.023
289.716	16.203	854.579	646.917
290.730	16.127	853.692	645.894
291.745	16.373	852.966	646.231
292.760	16.209	852.452	645.158
293.774	16.415	851.948	645.505
294.789	16.351	851.147	644.598
295.803	16.268	850.892	644.030
296.818	16.310	849.513	643.089
297.833	16.207	849.593	642.699
298.847	16.313	848.875	642.504
299.862	16.234	848.255	641.677
300.876	16.330	847.742	641.597
301.891	16.504	847.192	641.785
302.906	16.298	846.875	640.707
303.920	16.440	846.280	640.736
304.935	16.666	845.583	641.007
305.949	16.578	845.082	640.241
306.964	16.468	844.223	639.116
307.979	16.655	843.227	639.010
308.993	16.657	843.105	638.870
310.008	16.654	842.601	638.419
311.022	16.552	841.951	637.489
312.037	16.543	841.400	636.979
313.052	16.367	840.455	635.546
314.066	16.388	840.374	635.507
315.081	16.302	839.814	634.705
316.095	16.464	838.966	634.616
317.110	16.414	838.313	633.877
318.125	16.481	837.972	633.814
319.139	16.461	837.279	633.162
320.154	16.572	837.297	633.534
321.168	16.516	837.105	633.121
322.183	16.562	836.139	632.507
323.197	16.742	835.095	632.333
324.212	16.734	835.029	632.198
325.227	16.571	834.470	631.110
326.241	16.535	833.912	630.498
327.256	16.548	833.495	630.177
328.270	16.591	832.523	629.547
329.285	16.695	832.102	629.557
330.300	16.603	831.514	628.716
331.314	16.521	831.382	628.257
332.329	16.765	830.745	628.624
333.343	16.864	830.256	628.568
334.358	16.798	829.814	627.931
335.373	16.769	829.414	627.465
336.387	16.761	829.243	627.251
337.402	16.772	829.107	627.135
338.416	16.985	828.679	627.543
339.431	17.011	828.232	627.244
340.446	16.994	827.515	626.582
341.460	17.055	827.420	626.680
342.475	17.133	827.118	626.684
343.489	17.175	826.581	626.377
344.504	17.154	825.973	625.783
345.519	17.194	825.690	625.661
346.533	17.114	824.863	624.683
347.548	16.991	824.321	623.767
348.562	16.904	824.036	623.178
349.577	16.961	823.410	622.857
350.592	16.914	822.659	622.063
351.606	17.062	821.684	621.812
352.621	17.115	821.124	621.527
353.635	17.191	820.577	621.337
354.650	17.155	820.083	620.777
355.665	17.033	819.705	619.988
356.679	17.337	818.649	620.242
357.694	17.206	818.332	619.470
358.708	17.096	817.865	618.663
359.723	17.086	817.264	618.115
360.738	17.062	816.766	617.599
361.752	17.274	815.927	617.679
362.767	17.325	815.522	617.501
363.781	17.329	815.028	617.089
364.796	17.462	814.389	617.033
365.810	17.466	814.291	616.918
366.825	17.520	813.896	616.759
367.840	17.530	813.464	616.414
368.854	17.377	813.129	615.551
369.869	17.360	812.532	614.984
370.883	17.461	812.036	614.920
371.898	17.545	811.758	614.958
372.913	17.618	811.451	614.936
373.927	17.564	810.678	614.099
374.942	17.485	810.453	613.588
375.956	17.590	809.976	613.551
376.971	17.731	809.608	613.725
377.986	17.740	809.315	613.482
379.000	17.570	809.132	612.679
380.015	17.661	808.265	612.294
381.029	17.723	807.488	611.874
382.044	17.837	807.150	611.972
383.059	17.805	806.633	611.413
384.073	17.655	805.898	610.264
385.088	17.585	805.372	609.562
386.102	17.731	804.552	609.408
387.117	17.578	804.192	608.537
388.132	17.574	803.697	608.093
389.146	17.623	803.041	607.716
390.161	17.701	802.754	607.726
391.175	17.793	802.042	607.459
392.190	17.694	801.990	607.015
393.205	17.667	801.459	606.461
394.219	17.607	801.012	605.855
395.234	17.620	800.563	605.507
396.248	17.506	800.171	604.754
397.263	17.583	799.775	604.674
398.278	17.674	799.145	604.469
399.292	17.643	798.504	603.820
400.307	17.504	798.437	603.223
401.321	17.760	797.609	603.448
402.336	17.655	797.533	602.967
403.350	17.706	796.966	602.667
404.365	17.870	796.838	603.094
405.380	17.934	796.061	602.679
406.394	17.945	795.314	602.100
407.409	18.095	795.075	602.396
408.423	18.170	794.779	602.381
409.438	18.152	794.617	602.142
410.453	18.058	794.148	601.404
411.467	18.186	793.407	601.236
412.482	18.244	792.977	601.062
413.496	18.152	792.726	600.495
414.511	18.289	792.487	600.741
415.526	18.045	792.554	599.883
416.540	18.027	791.894	599.269
417.555	18.157	791.166	599.120
418.569	18.256	790.907	599.216
419.584	18.297	790.399	598.924
420.599	18.370	789.664	598.569
421.613	156.369	1370.440	1794.748
422.628	135.247	1455.041	1794.860
