DTS Sentinel unit serial number:	SN413079Multiplexer serial number:	ORYXHardware model number:	OX4-SRSoftware version number:	ORYX F/W v4.00 Oryx Data Collector v3.7.2.0data status	okinstallation	princeton_trtdifferential loss correction	single-endedforward channel	channel 1reverse channel	N/Adate	2019/09/12time	18:51:34forward acquisition time	15.00reverse acquisition time	0.00gamma	496.2192k internal	0.2319k external	0.2319temperature offset calibration	1.0108default loss term (dB/km)	0.3790temperature slope calibration	1.0000multiplexer offset coefficient	1.0000multiplexer slope coefficient	1.0000fibre end	0.00T internal ref (°C)	32.87T ext. ref 1 (°C)	2.99T ext. ref 2 (°C)	27.44length (m)	temperature (°C)	Stokes	anti-Stokes-747.200	-200.000	-0.045	-0.498
-746.185	43.144	-0.305	-0.281
-745.171	-106.018	0.850	0.193
-744.156	-200.000	-0.049	0.294
-743.142	-108.352	-1.047	-0.229
-742.127	-200.000	-0.104	0.496
-741.112	219.178	0.271	0.438
-740.098	-116.933	0.146	-0.027
-739.083	-200.000	-0.075	0.403
-738.069	133.868	0.743	0.973
-737.054	-6.913	-0.300	0.206
-736.039	-78.647	0.165	-0.057
-735.025	-34.615	-0.525	0.290
-734.010	253.976	0.336	-0.580
-732.996	-200.000	-0.016	-0.930
-731.981	-200.000	-0.021	-0.506
-730.966	78.733	-0.544	-0.588
-729.952	-8.866	-0.460	0.312
-728.937	599.523	-0.166	0.416
-727.923	163.226	-0.055	0.078
-726.908	800.000	-0.169	0.536
-725.894	-200.000	0.010	-0.798
-724.879	-70.929	0.650	0.248
-723.864	2.669	-0.457	0.335
-722.850	-199.789	-0.260	0.001
-721.835	-39.698	1.030	0.544
-720.821	599.673	-0.354	0.889
-719.806	-80.333	-1.191	-0.402
-718.791	800.000	0.202	-0.590
-717.777	-200.000	0.017	0.262
-716.762	-0.956	0.530	-0.379
-715.748	181.921	-0.333	-0.496
-714.733	418.180	-0.084	-0.182
-713.718	-92.823	-0.972	-0.275
-712.704	-96.873	-0.080	0.021
-711.689	800.000	0.106	-0.326
-710.675	-54.507	0.287	-0.131
-709.660	-143.177	-0.751	-0.073
-708.645	-200.000	-0.124	-0.615
-707.631	152.951	0.353	0.487
-706.616	391.510	-0.203	-0.426
-705.602	-57.920	-0.633	0.279
-704.587	-115.377	0.568	-0.108
-703.572	-158.894	-1.159	-0.067
-702.558	231.743	-0.202	0.334
-701.543	-151.651	0.773	0.058
-700.529	32.733	0.559	-0.488
-699.514	432.771	-0.365	-0.799
-698.499	276.199	0.264	0.474
-697.485	67.564	-0.710	-0.732
-696.470	-200.000	0.112	-1.125
-695.456	442.956	0.172	0.381
-694.441	-173.706	-0.784	-0.024
-693.426	-200.000	0.014	0.397
-692.412	14.412	0.415	0.327
-691.397	188.832	-0.752	-1.136
-690.383	60.254	0.326	-0.325
-689.368	-200.000	0.140	-0.001
-688.354	26.752	0.392	-0.332
-687.339	-93.727	0.454	-0.126
-686.324	-161.959	-0.210	-0.011
-685.310	-141.123	-0.404	-0.042
-684.295	-150.053	0.465	0.036
-683.281	800.000	0.087	-0.259
-682.266	-200.000	0.094	-0.518
-681.251	800.000	-0.139	-0.606
-680.237	-157.962	-0.719	-0.043
-679.222	134.851	-0.302	-0.396
-678.208	66.819	0.459	-0.471
-677.193	-133.539	0.608	0.077
-676.178	269.171	-0.465	0.824
-675.164	-48.536	0.133	0.065
-674.149	319.421	-0.302	0.579
-673.135	-200.000	0.053	0.327
-672.120	-200.000	-0.090	0.409
-671.105	158.173	-0.368	0.514
-670.091	686.418	-0.104	0.274
-669.076	-200.000	0.002	-0.152
-668.062	-14.718	0.158	-0.103
-667.047	477.663	-0.223	0.509
-666.032	-200.000	0.104	-0.552
-665.018	-113.080	0.372	-0.074
-664.003	-148.605	0.289	-0.024
-662.989	-200.000	-0.035	0.602
-661.974	-90.906	0.352	0.102
-660.959	-200.000	0.045	0.623
-659.945	173.124	0.698	1.015
-658.930	-127.472	0.732	0.107
-657.916	70.756	0.822	-0.857
-656.901	3.721	-0.679	0.500
-655.886	800.000	0.194	-0.774
-654.872	800.000	-0.233	-0.713
-653.857	-200.000	-0.098	0.890
-652.843	-115.245	0.413	0.079
-651.828	-69.166	0.281	0.109
-650.814	-107.237	0.319	0.071
-649.799	137.109	0.247	0.326
-648.784	-200.000	0.030	0.669
-647.770	82.024	0.303	0.331
-646.755	-200.000	-0.063	0.312
-645.741	102.584	0.449	-0.529
-644.726	-200.000	-0.005	-0.688
-643.711	800.000	0.100	0.343
-642.697	-58.655	-0.379	-0.166
-641.682	-173.641	-0.999	-0.030
-640.668	-200.000	0.237	-1.283
-639.653	-61.782	-0.075	-0.032
-638.638	746.609	-0.106	0.286
-637.624	800.000	-0.082	0.283
-636.609	7.134	-0.680	-0.511
-635.595	343.772	0.212	-0.419
-634.580	469.685	0.064	-0.145
-633.565	800.000	-0.208	-0.678
-632.551	-54.457	-0.888	-0.405
-631.536	-69.914	0.386	0.148
-630.522	-16.710	-0.612	0.390
-629.507	-200.000	0.009	-0.173
-628.492	800.000	-0.123	-0.502
-627.478	-117.350	-0.275	-0.050
-626.463	-12.869	0.257	-0.168
-625.449	800.000	-0.066	-0.279
-624.434	4.525	-0.516	-0.382
-623.419	751.739	0.153	0.416
-622.405	515.085	0.296	0.697
-621.390	779.940	0.185	-0.509
-620.376	-60.493	0.157	-0.067
-619.361	41.721	0.319	-0.291
-618.346	-200.000	-0.071	-0.649
-617.332	166.713	0.452	0.645
-616.317	-137.903	-0.884	-0.099
-615.303	229.024	0.266	0.437
-614.288	158.539	0.202	0.283
-613.273	-200.000	-0.031	-0.164
-612.259	800.000	-0.082	-0.325
-611.244	8.141	0.564	0.426
-610.230	33.797	-0.218	-0.191
-609.215	-113.194	0.540	-0.107
-608.201	-200.000	0.058	-0.727
-607.186	-161.529	-0.736	0.038
-606.171	16.440	1.093	0.869
-605.157	-98.273	0.229	0.059
-604.142	-90.223	0.297	-0.087
-603.128	-121.633	-0.632	-0.105
-602.113	-68.604	0.600	-0.234
-601.098	-99.161	1.031	0.262
-600.084	-15.606	0.423	0.271
-599.069	-134.891	-0.296	0.036
-598.055	243.788	-0.533	-0.899
-597.040	-110.849	0.217	-0.045
-596.025	-46.511	-0.690	0.341
-595.011	369.152	0.215	-0.437
-593.996	800.000	0.202	-0.748
-592.982	-55.680	0.654	-0.294
-591.967	219.350	0.316	0.508
-590.952	-22.371	0.069	-0.042
-589.938	9.658	0.837	-0.638
-588.923	-38.545	0.509	0.270
-587.909	171.533	-0.129	0.186
-586.894	-149.038	0.833	-0.067
-585.879	41.187	0.134	-0.122
-584.865	380.575	-0.162	0.334
-583.850	-34.776	0.420	-0.231
-582.836	455.379	-0.103	0.229
-581.821	-67.534	-0.287	0.113
-580.806	-198.524	-0.982	0.006
-579.792	800.000	-0.122	-0.350
-578.777	-200.000	-0.047	-0.293
-577.763	800.000	-0.069	0.284
-576.748	-200.000	0.079	-0.751
-575.733	32.393	0.351	-0.304
-574.719	59.718	-0.135	-0.134
-573.704	464.484	0.298	0.671
-572.690	-47.386	0.629	-0.308
-571.675	-200.000	-0.232	-0.000
-570.661	-200.000	-0.016	-0.360
-569.646	238.179	0.300	0.500
-568.631	-40.615	0.440	-0.229
-567.617	800.000	0.084	0.306
-566.602	-103.872	-0.174	-0.041
-565.588	24.085	0.237	0.196
-564.573	-40.758	-0.619	0.322
-563.558	58.736	-0.412	0.407
-562.544	15.948	0.237	0.187
-561.529	-68.542	-0.568	-0.221
-560.515	-200.000	0.028	0.319
-559.500	-25.104	0.492	-0.293
-558.485	-107.245	-0.417	0.092
-557.471	278.356	-0.201	-0.360
-556.456	-131.919	0.265	-0.035
-555.442	342.130	-0.375	0.736
-554.427	-127.037	-0.614	0.091
-553.412	-200.000	-0.102	0.510
-552.398	-132.038	-0.545	-0.071
-551.383	138.830	-0.306	-0.404
-550.369	-85.607	-0.660	0.206
-549.354	-24.808	-0.243	0.145
-548.339	-173.292	-0.383	-0.012
-547.325	-14.217	-0.231	-0.149
-546.310	91.010	0.355	0.399
-545.296	36.902	0.194	0.172
-544.281	502.885	0.242	-0.562
-543.266	21.302	0.132	0.107
-542.252	93.250	0.702	-0.796
-541.237	-113.922	-0.788	0.154
-540.223	-105.695	-0.064	0.014
-539.208	-15.229	-0.491	0.315
-538.193	12.836	-0.264	0.205
-537.179	-200.000	-0.173	-0.822
-536.164	-60.003	0.545	0.234
-535.150	86.295	0.200	0.221
-534.135	288.751	0.149	0.271
-533.121	-167.121	-0.796	-0.032
-532.106	150.816	-0.430	-0.586
-531.091	233.576	0.378	0.623
-530.077	-200.000	0.051	0.728
-529.062	130.149	-0.397	-0.510
-528.048	68.212	-0.399	0.410
-527.033	537.571	-0.133	-0.316
-526.018	-33.843	0.477	0.263
-525.004	-49.348	0.250	-0.120
-523.989	285.698	0.292	-0.528
-522.975	-200.000	-0.040	-0.284
-521.960	-200.000	0.154	-0.695
-520.945	63.698	-0.076	-0.076
-519.931	-15.750	-0.355	0.227
-518.916	384.609	-0.439	0.906
-517.902	229.001	-0.310	-0.507
-516.887	-129.187	-0.256	-0.036
-515.872	-91.415	0.384	0.110
-514.858	-47.732	0.642	-0.312
-513.843	800.000	-0.259	-0.742
-512.829	800.000	-0.201	0.623
-511.814	233.020	0.447	-0.737
-510.799	112.906	0.185	-0.225
-509.785	464.664	-0.228	0.511
-508.770	-63.965	-0.260	0.106
-507.756	-96.837	0.181	-0.048
-506.741	286.542	-0.189	-0.342
-505.726	103.985	-0.382	-0.450
-504.712	91.660	0.133	0.150
-503.697	-48.265	-0.821	0.397
-502.683	-184.309	0.899	0.015
-501.668	769.532	0.041	0.111
-500.653	-12.649	0.248	-0.162
-499.639	395.724	-0.241	0.503
-498.624	800.000	0.052	-0.192
-497.610	800.000	-0.367	-1.117
-496.595	36.504	0.369	0.326
-495.581	-111.688	-0.385	0.078
-494.566	-200.000	-0.063	-0.317
-493.551	-42.637	0.601	-0.306
-492.537	800.000	-0.379	1.167
-491.522	-101.433	-0.386	0.094
-490.508	-135.425	-0.602	0.072
-489.493	-78.310	-1.275	0.438
-488.478	9.015	-0.551	-0.416
-487.464	800.000	0.195	-0.666
-486.449	-71.211	-0.571	-0.215
-485.435	-200.000	0.136	1.462
-484.420	-119.285	-0.127	-0.022
-483.405	-21.744	-0.378	0.231
-482.391	-134.896	0.238	0.029
-481.376	800.000	0.270	0.972
-480.362	265.854	0.035	-0.061
-479.347	-134.364	-0.331	-0.041
-478.332	-8.341	-0.559	0.376
-477.318	77.506	-0.546	-0.582
-476.303	-61.327	-0.632	-0.267
-475.289	-79.470	0.305	-0.103
-474.274	184.686	-0.547	0.812
-473.259	-200.000	0.044	0.416
-472.245	573.435	-0.183	-0.447
-471.230	-75.576	-0.422	0.150
-470.216	-122.962	-0.370	0.060
-469.201	-200.000	-0.069	-0.426
-468.186	-57.566	-0.813	0.357
-467.172	16.162	-0.029	-0.023
-466.157	-200.000	-0.035	0.444
-465.143	-20.588	0.616	-0.379
-464.128	800.000	0.035	0.100
-463.113	-200.000	0.004	0.433
-462.099	-15.989	0.277	0.176
-461.084	-52.222	-0.568	-0.264
-460.070	-127.369	0.608	0.089
-459.055	189.039	-0.257	0.384
-458.040	165.750	0.504	-0.714
-457.026	37.063	-0.371	0.329
-456.011	25.777	0.345	0.287
-454.997	-18.813	0.366	-0.228
-453.982	-54.131	-0.596	0.271
-452.968	-77.953	-0.918	-0.316
-451.953	41.800	-0.543	-0.492
-450.938	304.088	-0.185	-0.344
-449.924	2.222	-0.183	0.132
-448.909	-108.574	-0.222	0.048
-447.895	374.895	-0.285	-0.581
-446.880	-200.000	0.010	-0.061
-445.865	300.409	-0.500	0.922
-444.851	216.372	-0.314	-0.498
-443.836	-137.123	0.365	-0.042
-442.822	-18.630	-0.526	0.328
-441.807	35.030	0.502	0.439
-440.792	213.952	0.148	-0.234
-439.778	79.906	0.708	0.761
-438.763	460.990	0.195	0.433
-437.749	259.960	0.236	-0.408
-436.734	134.882	0.318	-0.413
-435.719	-66.138	0.328	0.131
-434.705	800.000	-0.104	0.370
-433.690	-27.788	0.291	-0.169
-432.676	-0.131	0.668	-0.475
-431.661	-134.989	-0.546	0.066
-430.646	233.625	0.189	0.311
-429.632	-158.749	-0.390	0.022
-428.617	-200.000	-0.055	0.353
-427.603	-186.993	0.072	0.001
-426.588	-200.000	0.025	0.474
-425.573	336.551	-0.271	-0.527
-424.559	96.916	0.242	-0.277
-423.544	-200.000	-0.136	0.969
-422.530	232.652	-0.255	0.418
-421.515	433.973	0.287	0.622
-420.500	-200.000	-0.033	-0.159
-419.486	-32.871	0.382	0.212
-418.471	359.931	-0.194	0.387
-417.457	-115.752	0.285	0.053
-416.442	-200.000	-0.070	-0.330
-415.428	114.388	-0.076	-0.093
-414.413	-200.000	-0.046	0.410
-413.398	-200.000	-0.051	-0.308
-412.384	317.070	-0.114	-0.215
-411.369	193.278	-0.258	-0.390
-410.355	-200.000	0.003	-0.244
-409.340	-200.000	0.014	-0.574
-408.325	-167.720	0.628	0.025
-407.311	-39.472	-0.534	0.279
-406.296	577.821	0.098	-0.239
-405.282	800.000	-0.017	0.070
-404.267	-138.655	0.476	0.052
-403.252	-200.000	0.033	-0.174
-402.238	101.060	-0.636	-0.739
-401.223	109.926	0.398	-0.477
-400.209	800.000	0.227	0.738
-399.194	128.405	0.237	-0.301
-398.179	-117.712	0.677	0.122
-397.165	218.081	0.269	0.428
-396.150	-200.000	-0.002	-0.253
-395.136	-200.000	-0.020	-0.490
-394.121	-108.153	0.986	0.213
-393.106	-200.000	-0.135	0.866
-392.092	620.116	-0.332	0.833
-391.077	-47.265	0.574	0.279
-390.063	28.927	0.444	-0.375
-389.048	45.021	-0.304	-0.279
-388.033	-190.761	0.352	-0.004
-387.019	-30.972	-0.183	-0.103
-386.004	177.826	0.146	-0.212
-384.990	-118.385	-0.789	-0.140
-383.975	295.459	0.318	-0.581
-382.960	70.167	0.187	-0.192
-381.946	-126.794	0.299	-0.044
-380.931	-200.000	-0.015	0.997
-379.917	199.869	0.440	0.673
-378.902	800.000	0.301	-1.015
-377.888	-7.752	0.402	0.271
-376.873	-102.891	0.997	-0.236
-375.858	-66.710	0.641	-0.253
-374.844	-85.935	0.487	0.150
-373.829	96.201	0.516	-0.588
-372.815	1.665	0.916	0.658
-371.800	50.587	0.391	0.369
-370.785	0.430	-0.154	-0.110
-369.771	2.577	0.463	-0.335
-368.756	672.297	0.165	-0.425
-367.742	-143.906	0.554	0.052
-366.727	800.000	-0.052	0.202
-365.712	-91.126	0.586	0.168
-364.698	800.000	0.297	-0.986
-363.683	-200.000	-0.034	-0.176
-362.669	-83.225	0.397	0.127
-361.654	-33.346	-0.302	-0.166
-360.639	800.000	0.324	0.938
-359.625	122.083	-0.449	-0.559
-358.610	54.471	-0.237	-0.227
-357.596	-111.023	0.687	-0.140
-356.581	85.177	0.225	-0.246
-355.566	307.056	-0.164	0.304
-354.552	46.089	0.030	-0.027
-353.537	9.559	-0.306	-0.231
-352.523	166.822	0.382	0.539
-351.508	-200.000	-0.025	-0.375
-350.493	-120.045	0.800	-0.137
-349.479	2.184	0.381	0.274
-348.464	-200.000	-0.010	0.492
-347.450	111.607	-0.387	-0.465
-346.435	-36.310	-0.286	0.154
-345.420	-200.000	0.045	0.844
-344.406	-27.638	-0.218	-0.126
-343.391	-200.000	-0.069	-0.514
-342.377	17.250	0.082	0.065
-341.362	800.000	0.132	0.459
-340.348	20.406	0.707	0.569
-339.333	-132.773	0.570	0.073
-338.318	-124.292	-0.584	0.091
-337.304	-96.333	0.453	0.119
-336.289	136.201	-0.545	0.707
-335.275	-200.000	0.306	0.001
-334.260	800.000	0.080	-0.251
-333.245	131.565	0.278	0.356
-332.231	8.361	-0.659	-0.493
-331.216	800.000	0.141	0.388
-330.202	247.226	0.317	0.533
-329.187	-135.739	1.428	-0.168
-328.172	7.892	-0.502	-0.375
-327.158	-156.565	-0.996	0.062
-326.143	-200.000	0.012	-0.977
-325.129	800.000	-0.118	-0.336
-324.114	-43.856	0.234	0.117
-323.099	323.483	0.208	-0.395
-322.085	-190.769	-0.715	-0.008
-321.070	84.562	-0.827	-0.900
-320.056	109.167	-0.157	-0.187
-319.041	138.496	0.314	0.410
-318.026	44.011	0.626	0.571
-317.012	-33.116	0.523	-0.289
-315.997	205.154	0.414	0.640
-314.983	759.792	0.142	0.382
-313.968	68.001	-0.168	0.171
-312.953	-200.000	0.052	-0.483
-311.939	-95.256	0.461	0.124
-310.924	257.039	-0.430	0.735
-309.910	26.547	0.563	-0.468
-308.895	564.887	0.223	-0.537
-307.880	800.000	0.183	-0.664
-306.866	-36.249	-0.233	-0.125
-305.851	421.865	0.300	-0.641
-304.837	-13.209	0.671	0.433
-303.822	2.051	0.188	-0.135
-302.807	-200.000	0.089	0.819
-301.793	-141.373	1.329	0.134
-300.778	-200.000	-0.002	-0.543
-299.764	-200.000	0.037	-0.176
-298.749	183.074	0.591	0.868
-297.735	-44.520	0.114	0.057
-296.720	800.000	-0.271	0.986
-295.705	-3.562	-0.201	0.139
-294.691	-54.351	-0.400	-0.180
-293.676	-19.271	-0.777	0.479
-292.662	-164.232	0.349	-0.016
-291.647	-126.155	0.863	0.129
-290.632	-200.000	-0.081	-0.447
-289.618	84.888	-0.291	0.317
-288.603	55.402	0.957	0.920
-287.589	107.606	0.443	-0.524
-286.574	-50.567	-1.037	0.486
-285.559	255.556	0.394	0.671
-284.545	-117.846	0.391	-0.070
-283.530	800.000	0.099	0.342
-282.516	-57.781	-0.457	-0.199
-281.501	800.000	0.212	0.908
-280.486	19.899	-0.308	-0.247
-279.472	-200.000	0.149	0.946
-278.457	362.888	0.117	0.233
-277.443	139.231	0.436	-0.570
-276.428	-200.000	-0.086	-0.572
-275.413	4.824	-0.489	0.357
-274.399	-200.000	-0.013	0.651
-273.384	-47.853	0.525	-0.252
-272.370	-30.045	-0.433	0.244
-271.355	-200.000	-0.161	0.734
-270.340	-91.329	-0.545	-0.155
-269.326	145.426	-0.393	-0.523
-268.311	238.236	-0.183	-0.301
-267.297	29.545	1.008	-0.851
-266.282	800.000	0.126	0.356
-265.267	237.896	-0.313	0.515
-264.253	-7.431	-0.454	-0.305
-263.238	-36.825	-0.153	0.082
-262.224	63.184	-0.369	0.367
-261.209	265.161	0.722	-1.250
-260.195	-168.774	0.189	-0.007
-259.180	-24.203	-0.096	0.057
-258.165	-110.337	0.278	-0.057
-257.151	367.463	0.241	-0.483
-256.136	-200.000	0.057	-0.895
-255.122	-35.087	0.576	-0.312
-254.107	-113.572	0.276	0.053
-253.092	-133.238	0.900	-0.113
-252.078	-150.919	-0.957	-0.072
-251.063	800.000	-0.284	-1.086
-250.049	-65.033	-0.464	0.186
-249.034	80.982	-0.309	0.331
-248.019	-145.091	-0.292	-0.026
-247.005	428.779	-0.336	0.719
-245.990	441.070	0.207	0.449
-244.976	800.000	-0.542	1.529
-243.961	-79.734	0.087	0.029
-242.946	-15.066	-0.262	0.166
-241.932	-150.787	-0.877	-0.066
-240.917	-200.000	0.017	0.188
-239.903	-200.000	-0.020	0.155
-238.888	-130.816	-0.324	0.043
-237.873	-96.761	0.569	-0.148
-236.859	273.107	-0.312	-0.547
-235.844	-172.239	-1.480	0.047
-234.830	61.039	-0.821	-0.808
-233.815	800.000	-0.053	-0.194
-232.800	-37.291	0.910	0.482
-231.786	97.690	0.270	0.307
-230.771	-105.919	0.283	0.063
-229.757	85.901	0.226	0.246
-228.742	172.165	0.173	-0.247
-227.727	-21.888	-0.465	0.280
-226.713	159.184	-0.190	-0.261
-225.698	-33.629	0.348	0.191
-224.684	-200.000	-0.045	0.458
-223.669	15.840	-0.524	-0.409
-222.655	757.378	0.056	-0.151
-221.640	110.523	0.274	-0.326
-220.625	-172.971	0.406	0.012
-219.611	-178.388	-0.769	-0.018
-218.596	100.617	-0.218	-0.251
-217.582	71.864	0.458	0.472
-216.567	-160.717	-0.634	0.033
-215.552	479.521	0.121	-0.271
-214.538	-200.000	0.152	0.705
-213.523	800.000	0.119	-0.371
-212.509	108.708	0.240	-0.284
-211.494	501.278	0.120	-0.275
-210.479	800.000	0.479	-1.333
-209.465	-117.273	-0.367	0.066
-208.450	198.372	-0.220	0.333
-207.436	-70.432	0.833	0.313
-206.421	-161.162	-0.457	-0.024
-205.406	800.000	0.217	0.696
-204.392	44.884	0.445	0.405
-203.377	-91.403	0.141	0.040
-202.363	107.917	-0.364	-0.430
-201.348	-200.000	-0.019	-0.275
-200.333	-111.079	0.602	0.122
-199.319	800.000	-0.276	0.805
-198.304	-200.000	-0.070	-1.129
-197.290	21.294	-0.526	-0.423
-196.275	-79.927	0.059	0.020
-195.260	-200.000	-0.079	-0.963
-194.246	-185.604	-0.204	-0.003
-193.231	100.894	-0.401	-0.462
-192.217	-39.522	-0.176	0.091
-191.202	-173.541	0.260	0.008
-190.187	79.132	-0.364	-0.386
-189.173	-35.722	-0.202	0.109
-188.158	-39.223	0.737	0.383
-187.144	-112.253	-0.575	-0.114
-186.129	113.237	0.338	0.406
-185.114	99.121	0.306	0.349
-184.100	18.959	-0.472	0.374
-183.085	-101.940	0.339	-0.081
-182.071	52.880	-0.197	-0.187
-181.056	122.258	-0.299	-0.370
-180.042	-200.000	-0.049	-0.585
-179.027	-118.060	-0.395	0.070
-178.012	431.392	-0.188	0.403
-176.998	800.000	0.027	0.117
-175.983	42.781	-0.304	-0.274
-174.969	214.681	0.089	-0.139
-173.954	-87.361	-1.207	0.362
-172.939	-200.000	0.089	-0.734
-171.925	140.087	0.332	0.433
-170.910	-200.000	-0.054	0.319
-169.896	518.686	0.324	0.749
-168.881	-62.855	-0.721	-0.295
-167.866	-200.000	0.004	-0.424
-166.852	34.302	-0.473	-0.408
-165.837	-194.159	-0.317	0.003
-164.823	-200.000	-0.048	0.314
-163.808	800.000	-0.200	-0.561
-162.793	-7.679	-0.371	-0.248
-161.779	124.626	0.420	-0.522
-160.764	800.000	0.268	0.804
-159.750	-174.837	-0.455	0.013
-158.735	263.434	-0.450	-0.773
-157.720	341.921	-0.146	0.283
-156.706	176.425	-0.523	0.752
-155.691	-200.000	-0.014	0.069
-154.677	-14.767	-0.343	0.218
-153.662	-19.776	-0.504	-0.308
-152.647	36.457	0.445	0.388
-151.633	108.594	0.184	-0.217
-150.618	-114.170	0.706	0.135
-149.604	-200.000	0.013	0.135
-148.589	254.148	-0.215	-0.363
-147.574	-43.228	1.185	0.593
-146.560	80.529	0.328	-0.350
-145.545	-10.245	0.931	0.611
-144.531	800.000	-0.292	0.883
-143.516	800.000	0.200	0.624
-142.502	-154.749	0.960	0.063
-141.487	-97.250	0.647	0.167
-140.472	44.005	0.674	-0.611
-139.458	469.297	-0.183	-0.406
-138.443	271.681	-0.197	-0.342
-137.429	-110.886	0.018	0.004
-136.414	-200.000	0.006	0.765
-135.399	12.988	-0.663	-0.506
-134.385	393.570	-0.272	-0.559
-133.370	-66.980	0.376	0.147
-132.356	-59.033	-0.222	0.094
-131.341	-84.909	0.668	0.207
-130.326	-200.000	0.083	-0.372
-129.312	-200.000	0.001	0.250
-128.297	681.019	-0.189	-0.486
-127.283	-61.418	0.912	0.379
-126.268	-200.000	0.027	0.198
-125.253	-200.000	0.030	0.349
-124.239	-106.244	0.244	0.054
-123.224	-200.000	0.458	-0.001
-122.210	-14.997	0.479	0.303
-121.195	-200.000	-0.124	0.592
-120.180	800.000	0.225	0.892
-119.166	-200.000	-0.012	0.747
-118.151	-64.362	-0.957	0.384
-117.137	62.538	0.634	0.626
-116.122	-122.900	-0.218	0.035
-115.107	443.841	-0.456	0.988
-114.093	-200.000	-0.049	-0.727
-113.078	-71.421	0.693	0.256
-112.064	-53.619	-0.392	-0.177
-111.049	-200.000	-0.050	-0.239
-110.034	800.000	0.104	0.389
-109.020	165.338	-0.120	0.167
-108.005	-103.204	-0.310	-0.072
-106.991	-200.000	0.022	0.303
-105.976	22.360	0.358	0.288
-104.962	509.614	0.332	-0.761
-103.947	800.000	-0.221	-0.607
-102.932	225.883	-0.318	0.508
-101.918	260.275	-0.390	0.665
-100.903	-2.604	-0.077	0.053
-99.889	-53.663	0.799	0.360
-98.874	215.259	0.388	0.608
-97.859	-20.946	-0.461	0.279
-96.845	-4.919	0.258	0.175
-95.830	800.000	-0.074	-0.252
-94.816	-32.594	-0.785	-0.431
-93.801	440.861	0.267	-0.576
-92.786	406.390	0.315	0.655
-91.772	106.915	-0.583	-0.683
-90.757	800.000	0.092	0.266
-89.743	-91.006	0.185	-0.052
-88.728	46.864	-0.289	-0.265
-87.713	-146.358	0.758	0.065
-86.699	-200.000	-0.039	-0.407
-85.684	-200.000	0.153	-0.961
-84.670	-200.000	-0.132	1.010
-83.655	105.453	-0.439	-0.511
-82.640	31.062	0.366	0.309
-81.626	800.000	-0.208	-0.669
-80.611	54.149	0.452	-0.429
-79.597	-200.000	-0.104	-0.597
-78.582	-200.000	0.116	0.971
-77.567	-200.000	0.000	0.276
-76.553	194.588	0.544	0.813
-75.538	341.275	-0.357	-0.688
-74.524	-130.950	1.030	-0.136
-73.509	800.000	-0.182	-0.547
-72.494	594.411	-0.294	-0.717
-71.480	655.975	0.580	-1.468
-70.465	656.299	-0.180	-0.455
-69.451	66.882	0.397	0.398
-68.436	-155.987	0.452	-0.028
-67.422	318.798	-0.205	0.382
-66.407	-31.675	-0.969	-0.536
-65.392	-200.000	-0.236	1.116
-64.378	-43.319	1.084	0.540
-63.363	25.697	0.387	-0.318
-62.349	-114.715	-1.059	0.199
-61.334	51.864	-0.807	-0.756
-60.319	309.701	0.327	0.602
-59.305	99.291	-0.878	-1.000
-58.290	-132.605	1.149	0.145
-57.276	-24.104	1.495	0.880
-56.261	-200.000	96.436	587.729
-55.246	660.184	1362.489	3454.151
-54.232	202.982	2523.594	3839.653
-53.217	118.899	2122.124	2581.984
-52.203	44.578	1593.732	1442.120
-51.188	35.962	1336.638	1157.914
-50.173	33.214	1294.883	1105.661
-49.159	56.747	1342.918	1287.071
-48.144	57.635	1359.046	1307.746
-47.130	36.514	1318.381	1145.189
-46.115	33.138	1300.408	1109.759
-45.100	32.740	1295.902	1103.540
-44.086	32.897	1292.194	1101.254
-43.071	32.838	1290.346	1099.293
-42.057	32.718	1289.289	1097.647
-41.042	32.872	1286.385	1096.024
-40.027	33.059	1284.010	1095.042
-39.013	32.523	1284.912	1092.658
-37.998	32.562	1282.639	1090.910
-36.984	32.884	1280.497	1090.908
-35.969	32.921	1279.233	1089.998
-34.954	33.024	1276.386	1088.127
-33.940	32.941	1275.270	1086.651
-32.925	33.150	1273.733	1086.498
-31.911	32.989	1272.680	1084.638
-30.896	32.766	1271.921	1082.663
-29.881	33.043	1269.937	1082.519
-28.867	32.800	1269.378	1080.609
-27.852	33.048	1267.119	1080.060
-26.838	32.933	1265.867	1078.291
-25.823	33.190	1264.311	1078.389
-24.809	33.106	1262.328	1076.180
-23.794	32.897	1261.838	1074.526
-22.779	33.304	1259.122	1074.486
-21.765	33.033	1259.876	1073.547
-20.750	32.758	1258.622	1070.872
-19.736	32.805	1256.791	1069.542
-18.721	32.726	1256.170	1068.522
-17.706	33.045	1253.296	1067.840
-16.692	32.760	1253.497	1066.354
-15.677	32.870	1252.790	1066.331
-14.663	32.792	1250.937	1064.273
-13.648	32.967	1249.914	1064.347
-12.633	32.842	1249.845	1063.540
-11.619	32.849	1248.635	1062.510
-10.604	32.771	1248.310	1061.750
-9.590	32.662	1246.717	1059.742
-8.575	32.929	1245.346	1060.031
-7.560	32.790	1243.832	1057.925
-6.546	32.642	1244.680	1057.772
-5.531	32.675	1243.933	1057.281
-4.517	32.804	1242.135	1056.430
-3.502	32.684	1241.472	1055.157
-2.487	32.493	1240.890	1053.550
-1.473	32.782	1236.272	1051.197
-0.458	31.393	1220.527	1030.122
0.556	28.568	1204.322	991.858
1.571	24.868	1208.817	975.353
2.586	23.706	1223.368	980.593
3.600	23.063	1212.804	968.517
4.615	17.189	1140.439	880.300
5.629	7.491	1065.240	775.029
6.644	3.296	1045.322	740.338
7.659	3.039	1042.040	736.719
8.673	2.878	1040.143	734.541
9.688	2.748	1039.855	733.650
10.702	3.106	1038.608	734.416
11.717	9.182	1046.133	768.826
12.731	18.903	1059.813	825.729
13.746	24.094	1065.590	855.156
14.761	24.792	1065.737	858.551
15.775	24.629	1065.299	857.342
16.790	24.227	1063.927	854.233
17.804	24.188	1063.935	853.980
18.819	24.553	1063.073	854.960
19.834	24.267	1063.266	853.668
20.848	24.356	1063.189	853.959
21.863	24.432	1062.031	853.314
22.877	24.057	1062.031	851.445
23.892	24.238	1060.754	851.213
24.907	24.122	1060.224	850.159
25.921	24.026	1060.282	849.672
26.936	24.016	1057.882	847.622
27.950	24.006	1056.429	846.338
28.965	23.886	1054.981	844.531
29.980	24.214	1053.191	844.580
30.994	24.138	1052.852	843.873
32.009	24.468	1050.616	843.568
33.023	24.349	1051.060	843.284
34.038	23.865	1049.846	839.951
35.053	23.867	1048.887	839.119
36.067	23.974	1048.350	839.120
37.082	23.876	1047.121	837.602
38.096	24.210	1047.131	839.105
39.111	24.374	1045.539	838.527
40.126	24.338	1044.351	837.331
41.140	23.771	1043.167	833.649
42.155	23.793	1041.887	832.656
43.169	23.852	1040.552	831.790
44.184	23.975	1039.886	831.760
45.199	23.882	1038.516	830.159
46.213	23.923	1039.200	830.821
47.228	24.081	1038.837	831.197
48.242	24.203	1037.614	830.714
49.257	24.627	1036.354	831.603
50.271	24.194	1036.088	829.300
51.286	24.095	1035.466	828.269
52.301	24.323	1034.657	828.610
53.315	24.085	1033.596	826.582
54.330	24.230	1032.078	825.964
55.344	23.945	1032.059	824.558
56.359	24.184	1030.392	824.260
57.374	24.020	1029.881	823.018
58.388	23.749	1029.734	821.573
59.403	23.830	1028.792	821.124
60.417	23.900	1027.674	820.483
61.432	23.820	1027.682	820.045
62.447	23.847	1026.875	819.455
63.461	24.098	1025.419	819.377
64.476	23.946	1023.842	817.347
65.490	23.667	1023.928	816.060
66.505	23.891	1022.679	816.018
67.520	23.888	1022.842	816.064
68.534	23.716	1021.792	814.367
69.549	23.779	1020.105	813.234
70.563	23.045	1020.505	810.123
71.578	23.135	1019.398	809.585
72.593	23.020	1017.936	807.823
73.607	23.046	1017.775	807.745
74.622	23.451	1016.746	808.705
75.636	23.597	1016.615	809.194
76.651	23.433	1015.453	807.453
77.666	23.496	1014.721	807.085
78.680	23.509	1014.314	806.749
79.695	23.404	1013.761	805.758
80.709	23.660	1012.670	805.984
81.724	24.038	1012.451	807.452
82.739	23.980	1011.411	806.287
83.753	24.454	1011.526	808.457
84.768	24.468	1010.069	807.284
85.782	24.960	1009.750	809.181
86.797	24.599	1008.439	806.432
87.812	24.369	1008.357	805.255
88.826	24.455	1007.518	804.902
89.841	24.141	1007.465	803.374
90.855	24.422	1005.355	802.885
91.870	24.602	1004.157	802.666
92.884	24.488	1004.261	802.166
93.899	24.299	1002.394	799.755
94.914	24.699	1001.617	800.854
95.928	24.509	1000.758	799.249
96.943	24.459	999.220	797.726
97.957	24.133	998.744	795.820
98.972	24.014	998.540	795.052
99.987	24.422	997.570	796.030
101.001	24.199	995.869	793.613
102.016	24.491	995.459	794.512
103.030	24.302	995.677	793.774
104.045	24.429	993.850	792.814
105.060	24.095	993.606	791.067
106.074	24.443	990.910	790.390
107.089	24.098	991.649	789.381
108.103	24.463	989.142	788.928
109.118	24.106	988.291	786.604
110.133	23.773	988.764	785.437
111.147	23.619	987.047	783.324
112.162	23.560	985.810	782.012
113.176	23.912	984.614	782.545
114.191	24.164	983.565	782.749
115.206	23.391	983.842	779.500
116.220	23.350	983.597	779.060
117.235	23.595	981.290	778.238
118.249	23.672	980.773	778.096
119.264	23.387	979.756	775.971
120.279	23.212	979.069	774.594
121.293	23.297	977.934	773.999
122.308	23.338	977.375	773.665
123.322	23.233	977.219	773.017
124.337	23.351	975.497	772.102
125.352	23.254	974.917	771.149
126.366	23.068	975.458	770.698
127.381	23.556	973.948	771.564
128.395	23.814	973.141	771.977
129.410	24.004	971.916	771.761
130.424	24.240	970.818	771.839
131.439	24.248	969.741	770.951
132.454	23.942	969.592	769.439
133.468	23.896	968.617	768.398
134.483	24.326	967.090	768.976
135.497	24.307	966.351	768.237
136.512	24.039	966.640	767.244
137.527	24.447	964.483	767.218
138.541	24.387	964.954	767.270
139.556	24.088	964.776	765.772
140.570	24.356	964.109	766.326
141.585	24.527	962.676	765.853
142.600	24.327	962.703	764.950
143.614	24.522	961.489	764.752
144.629	24.897	959.543	764.742
145.643	24.632	959.219	763.280
146.658	24.015	957.873	759.510
147.673	24.404	956.175	759.753
148.687	24.151	955.826	758.333
149.702	24.171	955.175	757.832
150.716	24.175	954.096	756.927
151.731	24.137	953.048	755.869
152.746	24.441	952.369	756.552
153.760	24.492	951.537	756.042
154.775	24.437	952.355	756.388
155.789	24.330	950.810	754.644
156.804	24.675	949.127	754.700
157.819	24.470	949.957	754.424
158.833	24.850	948.743	754.997
159.848	24.652	947.242	752.904
160.862	24.853	946.258	752.898
161.877	24.517	946.249	751.412
162.892	24.261	943.822	748.343
163.906	23.959	944.222	747.326
164.921	24.699	942.844	749.270
165.935	24.372	941.877	747.069
166.950	24.106	941.167	745.324
167.964	24.268	940.125	745.111
168.979	23.983	940.018	743.771
169.994	24.234	937.920	743.091
171.008	24.424	938.177	744.019
172.023	24.768	937.236	744.642
173.037	24.584	937.235	743.809
174.052	24.340	936.371	742.042
175.067	24.327	934.859	740.726
176.081	24.085	934.380	739.275
177.096	24.258	933.571	739.287
178.110	23.802	933.358	737.160
179.125	23.742	932.976	736.543
180.140	23.710	931.665	735.314
181.154	24.022	932.061	736.852
182.169	24.663	931.533	739.018
183.183	24.337	931.557	737.628
184.198	24.642	929.763	737.397
185.213	24.284	929.348	735.529
186.227	24.433	928.547	735.444
187.242	24.461	928.742	735.647
188.256	24.679	928.095	735.969
189.271	24.520	927.760	734.984
190.286	24.072	925.791	731.519
191.300	24.118	924.048	730.262
192.315	23.537	923.364	727.278
193.329	23.282	924.064	726.719
194.344	24.210	923.576	730.076
195.359	24.337	923.244	730.266
196.373	24.475	922.705	730.341
197.388	24.742	921.995	730.805
198.402	24.512	921.549	729.446
199.417	24.801	921.058	730.176
200.432	25.217	919.403	730.492
201.446	24.812	920.336	729.519
202.461	24.932	919.039	728.915
203.475	24.115	919.025	725.513
204.490	23.833	917.355	722.981
205.504	24.329	916.381	724.164
206.519	24.828	915.706	725.591
207.534	24.553	916.047	724.680
208.548	24.565	915.719	724.406
209.563	24.532	914.590	723.317
210.577	24.860	913.205	723.484
211.592	24.888	913.692	723.918
212.607	25.098	912.410	723.687
213.621	24.739	911.876	721.749
214.636	24.995	911.100	722.106
215.650	24.899	910.955	721.537
216.665	24.489	910.800	719.700
217.680	24.665	909.499	719.316
218.694	24.786	908.814	719.198
219.709	24.418	908.145	717.127
220.723	24.727	907.178	717.537
221.738	24.542	905.650	715.527
222.753	24.466	905.175	714.783
223.767	24.688	905.184	715.614
224.782	24.546	906.168	715.762
225.796	24.810	904.975	715.812
226.811	24.506	903.020	712.986
227.826	23.852	903.968	711.057
228.840	24.157	901.911	710.594
229.855	24.205	901.247	710.201
230.869	24.066	900.690	709.143
231.884	24.355	900.682	710.226
232.899	24.741	899.678	710.906
233.913	24.276	899.378	708.756
234.928	23.885	899.065	706.895
235.942	23.893	899.106	706.897
236.957	23.910	897.884	705.940
237.972	24.029	896.656	705.383
238.986	24.160	895.284	704.759
240.001	23.987	895.751	704.380
241.015	24.158	895.193	704.554
242.030	24.121	895.031	704.218
243.045	24.493	894.062	704.864
244.059	24.300	893.368	703.495
245.074	24.571	893.118	704.303
246.088	24.562	892.473	703.697
247.103	24.800	891.926	704.141
248.117	25.471	890.812	705.834
249.132	25.460	891.536	706.304
250.147	25.810	891.006	707.193
251.161	25.527	891.285	706.241
252.176	25.719	889.314	705.372
253.190	25.399	889.107	703.889
254.205	25.563	888.326	703.850
255.220	25.370	887.474	702.360
256.234	25.177	887.085	701.233
257.249	25.139	886.908	700.882
258.263	25.677	885.319	701.665
259.278	25.690	884.828	701.263
260.293	25.446	884.788	700.219
261.307	25.263	884.813	699.465
262.322	25.451	883.590	699.165
263.336	25.090	882.159	696.571
264.351	24.919	881.801	695.563
265.366	24.828	881.502	694.912
266.380	25.183	881.018	695.845
267.395	25.832	878.805	696.547
268.409	25.494	879.364	695.621
269.424	25.329	879.160	694.760
270.439	24.946	878.436	692.642
271.453	24.958	878.733	692.865
272.468	25.415	877.127	693.299
273.482	25.587	876.466	693.378
274.497	25.298	876.072	691.892
275.512	25.266	874.748	690.663
276.526	25.087	874.810	689.963
277.541	25.217	873.872	689.659
278.555	25.302	874.784	690.646
279.570	25.206	874.019	689.612
280.585	25.285	872.661	688.783
281.599	25.281	872.081	688.249
282.614	25.109	870.517	686.294
283.628	25.047	870.200	685.746
284.643	24.894	869.799	684.786
285.657	25.139	869.607	685.509
286.672	25.147	869.107	685.084
287.687	25.520	867.477	685.162
288.701	25.356	867.306	684.342
289.716	25.110	866.792	682.939
290.730	25.459	865.503	683.190
291.745	25.366	865.573	682.832
292.760	25.088	865.721	681.829
293.774	25.714	864.433	683.132
294.789	25.850	865.071	684.091
295.803	25.535	864.546	682.421
296.818	25.304	862.674	680.009
297.833	24.757	862.771	677.952
298.847	25.036	861.235	677.740
299.862	25.566	862.532	680.706
300.876	25.647	860.560	679.398
301.891	25.871	860.320	679.993
302.906	25.717	859.595	678.779
303.920	25.221	860.678	677.701
304.935	26.000	859.423	679.590
305.949	25.712	858.226	677.500
306.964	25.603	857.758	676.660
307.979	25.423	857.240	675.514
308.993	25.621	856.501	675.617
310.008	25.195	856.694	674.108
311.022	25.307	856.368	674.213
312.037	25.288	854.981	672.989
313.052	25.081	854.181	671.523
314.066	25.059	853.569	670.903
315.081	24.812	852.693	669.231
316.095	24.814	852.244	668.825
317.110	25.136	851.064	669.044
318.125	24.890	850.309	667.473
319.139	24.164	850.203	664.621
320.154	24.675	849.574	665.979
321.168	25.020	849.927	667.480
322.183	25.361	848.878	667.865
323.197	24.852	847.956	665.191
324.212	25.108	848.617	666.603
325.227	25.140	847.602	665.862
326.241	25.316	845.549	664.845
327.256	24.630	846.283	662.820
328.270	24.746	845.582	662.642
329.285	24.576	845.791	662.117
330.300	24.835	844.208	661.777
331.314	24.993	844.355	662.416
332.329	25.268	844.020	663.112
333.343	25.255	843.764	662.806
334.358	25.131	842.706	661.459
335.373	25.295	842.885	662.143
336.387	25.143	842.232	661.012
337.402	25.787	841.229	662.535
338.416	26.037	840.835	663.088
339.431	26.355	840.850	664.207
340.446	26.035	841.579	663.547
341.460	26.220	841.247	663.908
342.475	26.474	839.752	663.603
343.489	26.378	839.908	663.313
344.504	26.048	839.882	662.025
345.519	26.048	839.256	661.474
346.533	26.267	838.463	661.589
347.548	26.215	837.508	660.589
348.562	25.928	837.329	659.338
349.577	26.082	837.583	660.044
350.592	25.793	836.096	657.756
351.606	25.669	835.202	656.544
352.621	25.714	834.443	656.054
353.635	26.211	832.575	656.333
354.650	25.473	833.527	654.341
355.665	25.569	832.053	653.474
356.679	25.671	831.470	653.329
357.694	26.050	830.497	653.879
358.708	25.633	830.576	652.371
359.723	25.397	829.914	650.940
360.738	25.683	829.060	651.249
361.752	25.711	828.508	650.858
362.767	25.927	828.750	651.772
363.781	25.945	828.139	651.296
364.796	26.307	827.974	652.417
365.810	26.290	827.421	651.864
366.825	25.973	827.450	650.685
367.840	25.582	827.074	648.921
368.854	25.630	825.678	647.942
369.869	25.883	824.476	647.851
370.883	25.847	824.783	647.903
371.898	25.947	824.144	647.704
372.913	26.336	823.780	648.757
373.927	25.822	823.820	646.886
374.942	26.014	822.980	646.858
375.956	25.931	822.793	646.357
376.971	26.308	821.992	647.021
377.986	26.084	821.506	645.780
379.000	26.158	822.342	646.645
380.015	25.788	822.078	645.055
381.029	26.127	820.572	645.029
382.044	26.401	819.830	645.365
383.059	26.628	818.249	644.872
384.073	26.034	818.522	642.914
385.088	25.812	818.095	641.732
386.102	25.902	816.779	640.960
387.117	26.143	815.389	640.671
388.132	25.822	815.373	639.461
389.146	25.506	815.179	638.132
390.161	25.970	815.305	639.819
391.175	26.367	814.477	640.521
392.190	25.920	814.914	639.221
393.205	25.429	813.107	636.010
394.219	24.638	813.006	633.074
395.234	24.452	812.318	631.826
396.248	25.556	811.186	634.786
397.263	25.622	811.429	635.153
398.278	25.455	810.171	633.525
399.292	25.374	809.875	632.953
400.307	24.850	810.296	631.377
401.321	25.441	810.146	633.288
402.336	25.811	808.818	633.494
403.350	26.056	809.897	635.146
404.365	26.566	808.965	636.154
405.380	26.433	808.431	635.211
406.394	27.070	807.811	636.902
407.409	26.874	807.713	636.081
408.423	26.866	806.831	635.302
409.438	26.655	807.088	634.708
410.453	26.240	806.780	632.954
411.467	26.496	806.254	633.383
412.482	26.098	806.012	631.743
413.496	26.572	805.532	632.971
414.511	26.284	804.830	631.357
415.526	26.454	804.988	632.019
416.540	26.370	803.646	630.617
417.555	26.701	803.290	631.435
418.569	26.579	803.004	630.729
419.584	26.419	802.116	629.416
420.599	26.393	801.683	628.933
421.613	160.114	1371.054	1793.346
422.628	139.016	1454.040	1793.444
