DTS Sentinel unit serial number:	SN413079Multiplexer serial number:	ORYXHardware model number:	OX4-SRSoftware version number:	ORYX F/W v4.00 Oryx Data Collector v3.7.2.0data status	okinstallation	princeton_trtdifferential loss correction	single-endedforward channel	channel 1reverse channel	N/Adate	2019/09/15time	18:18:35forward acquisition time	60.00reverse acquisition time	0.00gamma	496.2192k internal	0.2290k external	0.2290temperature offset calibration	0.9932default loss term (dB/km)	0.3790temperature slope calibration	1.0000multiplexer offset coefficient	1.0000multiplexer slope coefficient	1.0000fibre end	0.00T internal ref (°C)	44.44T ext. ref 1 (°C)	6.62T ext. ref 2 (°C)	39.03length (m)	temperature (°C)	Stokes	anti-Stokes-747.200	-138.151	-0.147	-0.017
-746.185	-117.272	-0.174	-0.032
-745.171	136.816	-0.050	-0.067
-744.156	758.792	-0.072	0.199
-743.142	-47.051	-0.158	0.079
-742.127	119.416	0.081	0.103
-741.112	-102.335	-0.175	0.043
-740.098	-200.000	-0.026	-0.124
-739.083	-200.000	0.038	-0.292
-738.069	-200.000	0.041	0.299
-737.054	800.000	0.086	-0.298
-736.039	14.654	-0.157	-0.125
-735.025	28.062	0.239	-0.207
-734.010	-133.389	-0.365	-0.047
-732.996	31.594	-0.341	-0.300
-731.981	10.573	-0.178	-0.139
-730.966	-200.000	-0.047	0.280
-729.952	-112.892	0.063	0.013
-728.937	165.320	-0.200	-0.289
-727.923	-200.000	-0.018	-0.122
-726.908	800.000	-0.055	-0.228
-725.894	-20.291	-0.214	-0.135
-724.879	33.192	-0.249	-0.221
-723.864	2.857	-0.254	0.189
-722.850	-200.000	-0.002	-0.057
-721.835	286.833	0.125	0.232
-720.821	-200.000	0.011	0.248
-719.806	66.198	-0.097	0.101
-718.791	12.919	-0.301	0.238
-717.777	-200.000	0.036	-0.189
-716.762	-103.436	0.186	-0.045
-715.748	250.089	0.183	0.318
-714.733	-63.493	-0.138	-0.058
-713.718	-145.503	-0.049	-0.004
-712.704	-165.535	-0.155	-0.007
-711.689	35.465	0.119	-0.107
-710.675	-83.870	-0.449	-0.146
-709.660	-112.426	0.112	0.023
-708.645	-154.644	-0.363	0.025
-707.631	-15.996	0.104	0.068
-706.616	63.938	-0.333	0.342
-705.602	240.047	0.188	0.321
-704.587	-75.772	-0.143	-0.052
-703.572	2.836	-0.107	0.080
-702.558	-200.000	0.020	-0.268
-701.543	-47.428	0.091	0.045
-700.529	438.150	0.026	-0.057
-699.514	-200.000	-0.022	-0.122
-698.499	199.990	0.169	0.266
-697.485	-200.000	-0.031	0.193
-696.470	-87.671	-0.365	0.113
-695.456	-7.435	-0.333	-0.230
-694.441	156.624	-0.029	-0.042
-693.426	-27.955	-0.160	-0.095
-692.412	-200.000	-0.064	-0.341
-691.397	-141.197	-0.050	-0.005
-690.383	-9.943	0.223	0.152
-689.368	-200.000	0.001	0.243
-688.354	800.000	-0.023	-0.098
-687.339	-109.162	0.079	0.017
-686.324	77.595	0.115	0.126
-685.310	-67.248	-0.141	0.057
-684.295	43.170	-0.352	-0.328
-683.281	-148.332	-0.137	-0.011
-682.266	-103.139	-0.336	0.081
-681.251	-200.000	-0.007	0.074
-680.237	-47.670	0.084	-0.042
-679.222	108.306	0.035	-0.043
-678.208	800.000	0.134	-0.493
-677.193	-200.000	-0.037	-0.289
-676.178	23.670	-0.353	-0.297
-675.164	572.554	0.011	0.027
-674.149	-4.737	-0.325	-0.229
-673.135	-131.761	0.262	-0.035
-672.120	80.118	-0.207	-0.228
-671.105	-54.599	0.132	0.061
-670.091	22.779	-0.099	0.083
-669.076	-27.390	-0.291	-0.173
-668.062	-200.000	0.007	-0.167
-667.047	8.581	0.169	-0.130
-666.032	-101.940	0.179	0.044
-665.018	-76.048	-0.408	0.147
-664.003	-200.000	0.017	-0.364
-662.989	-49.610	-0.168	0.082
-661.974	800.000	-0.033	0.120
-660.959	234.157	-0.110	0.185
-659.945	-160.229	0.208	0.011
-658.930	118.031	-0.257	-0.324
-657.916	100.500	-0.132	0.156
-656.901	-200.000	0.017	-0.096
-655.886	-96.882	-0.180	0.048
-654.872	78.615	0.297	-0.324
-653.857	57.997	0.144	0.144
-652.843	-62.811	-0.160	-0.068
-651.828	115.366	0.090	-0.112
-650.814	-200.000	-0.044	-0.234
-649.799	-92.093	0.105	-0.030
-648.784	28.076	-0.208	0.179
-647.770	800.000	0.035	-0.137
-646.755	-146.147	0.264	0.024
-645.741	-14.092	-0.158	-0.104
-644.726	80.760	-0.045	-0.049
-643.711	237.341	0.055	0.093
-642.697	133.972	-0.035	0.046
-641.682	-3.231	0.278	0.198
-640.668	623.800	-0.129	-0.331
-639.653	43.708	0.102	-0.095
-638.638	111.796	0.161	0.198
-637.624	120.574	-0.278	-0.352
-636.609	39.659	-0.246	0.225
-635.595	-12.483	-0.325	-0.216
-634.580	-82.631	-0.177	-0.059
-633.565	-149.697	-0.193	0.016
-632.551	-70.979	0.133	0.051
-631.536	-200.000	-0.027	0.142
-630.522	502.409	0.191	0.451
-629.507	-9.159	-0.228	-0.156
-628.492	800.000	-0.093	-0.306
-627.478	-112.915	0.387	-0.078
-626.463	-145.462	-0.123	0.011
-625.449	16.822	-0.137	0.110
-624.434	11.658	0.311	0.243
-623.419	-33.161	0.244	-0.138
-622.405	265.523	0.081	-0.144
-621.390	76.220	-0.040	0.043
-620.376	800.000	0.070	-0.248
-619.361	-34.396	-0.070	-0.039
-618.346	800.000	-0.064	-0.263
-617.332	-49.187	0.196	-0.095
-616.317	-200.000	0.018	-0.253
-615.303	-178.142	0.065	-0.002
-614.288	1.808	0.221	-0.163
-613.273	144.137	0.093	0.127
-612.259	-111.954	0.278	0.057
-611.244	-168.623	0.193	0.007
-610.230	-5.416	-0.194	0.135
-609.215	-38.198	-0.175	0.095
-608.201	103.659	-0.047	-0.056
-607.186	36.379	0.255	-0.229
-606.171	9.314	0.090	-0.069
-605.157	800.000	-0.073	0.264
-604.142	-45.495	-0.131	0.066
-603.128	-57.888	0.427	-0.190
-602.113	800.000	0.039	0.117
-601.098	661.936	-0.076	0.200
-600.084	-200.000	0.036	-0.248
-599.069	-92.351	-0.113	0.032
-598.055	-200.000	-0.029	0.370
-597.040	64.454	0.094	-0.096
-596.025	800.000	-0.089	0.286
-595.011	53.749	0.192	0.188
-593.996	-108.491	-0.306	-0.067
-592.982	800.000	-0.062	-0.272
-591.967	-6.814	0.271	0.188
-590.952	169.071	0.241	0.351
-589.938	-200.000	-0.004	-0.215
-588.923	184.566	-0.152	0.229
-587.909	88.879	0.200	-0.226
-586.894	611.903	-0.096	-0.245
-585.879	128.241	-0.098	-0.128
-584.865	257.516	-0.090	-0.157
-583.850	-133.530	-0.356	-0.045
-582.836	800.000	0.099	0.397
-581.821	-71.881	0.228	0.087
-580.806	658.880	0.053	-0.138
-579.792	-92.364	-0.208	-0.060
-578.777	78.115	0.037	0.040
-577.763	-200.000	-0.017	0.110
-576.748	284.513	-0.033	0.061
-575.733	9.776	-0.290	-0.224
-574.719	-200.000	-0.008	0.180
-573.704	-30.014	0.142	0.082
-572.690	-40.595	-0.200	0.106
-571.675	-68.715	0.411	-0.162
-570.661	55.291	0.218	0.215
-569.646	342.619	0.100	0.199
-568.631	-58.386	0.065	-0.029
-567.617	800.000	0.048	-0.213
-566.602	800.000	-0.045	0.175
-565.588	36.533	0.130	-0.117
-564.573	-120.968	-0.147	0.025
-563.558	149.027	-0.074	-0.101
-562.544	126.351	-0.139	0.179
-561.529	81.101	-0.188	-0.206
-560.515	-6.763	-0.329	-0.227
-559.500	229.783	0.113	-0.187
-558.485	211.021	-0.139	-0.222
-557.471	-2.628	0.285	-0.203
-556.456	-200.000	0.007	0.073
-555.442	598.550	0.130	0.328
-554.427	-7.433	-0.106	0.073
-553.412	162.914	0.056	-0.081
-552.398	682.317	0.112	0.298
-551.383	3.713	-0.193	0.143
-550.369	269.449	0.256	0.458
-549.354	800.000	0.026	-0.103
-548.339	-78.549	-0.425	0.148
-547.325	60.243	-0.195	-0.197
-546.310	-21.485	0.135	-0.084
-545.296	367.484	-0.169	-0.347
-544.281	-91.127	0.091	0.026
-543.266	-200.000	0.070	0.000
-542.252	40.404	-0.191	-0.175
-541.237	-56.681	-0.238	0.107
-540.223	-200.000	0.041	-0.228
-539.208	-80.619	0.200	-0.068
-538.193	-118.334	0.081	-0.015
-537.179	-200.000	0.014	0.265
-536.164	435.500	0.188	0.415
-535.150	-98.713	0.185	-0.048
-534.135	64.637	0.330	0.338
-533.121	-200.000	-0.003	0.426
-532.106	-200.000	0.040	0.185
-531.091	220.089	-0.107	0.174
-530.077	-18.021	-0.297	-0.189
-529.062	11.277	0.263	-0.205
-528.048	800.000	-0.095	-0.317
-527.033	-59.962	0.165	-0.071
-526.018	54.103	0.061	0.060
-525.004	15.249	-0.227	0.181
-523.989	16.498	-0.302	-0.242
-522.975	-200.000	-0.060	-0.281
-521.960	325.337	0.065	0.127
-520.945	-101.494	0.328	-0.081
-519.931	-99.736	-0.448	-0.114
-518.916	-154.494	-0.032	0.002
-517.902	-200.000	-0.044	0.273
-516.887	175.677	0.070	0.103
-515.872	-107.493	-0.056	0.012
-514.858	-110.945	-0.456	-0.095
-513.843	761.111	-0.007	0.019
-512.829	637.553	-0.104	-0.267
-511.814	176.401	0.117	-0.173
-510.799	292.197	-0.072	0.134
-509.785	-189.781	-0.108	0.001
-508.770	369.279	0.015	-0.032
-507.756	-200.000	-0.019	-0.113
-506.741	-97.046	-0.130	0.035
-505.726	-200.000	0.005	0.258
-504.712	5.534	-0.214	-0.161
-503.697	379.140	0.196	-0.407
-502.683	800.000	-0.049	-0.205
-501.668	-33.543	0.131	0.074
-500.653	-12.242	-0.398	0.264
-499.639	182.263	-0.034	0.051
-498.624	98.304	0.056	0.066
-497.610	-15.152	0.213	0.138
-496.595	-124.943	-0.305	-0.048
-495.581	-200.000	-0.011	-0.070
-494.566	191.439	-0.138	0.211
-493.551	-49.354	-0.479	0.232
-492.537	242.010	-0.142	0.240
-491.522	-72.885	0.242	-0.090
-490.508	-83.359	0.096	0.031
-489.493	-42.545	-0.125	-0.065
-488.478	-126.695	0.206	-0.031
-487.464	62.887	-0.046	-0.046
-486.449	-200.000	0.004	-0.150
-485.435	-200.000	0.003	0.043
-484.420	-200.000	0.003	-0.170
-483.405	42.922	-0.162	0.150
-482.391	-117.344	-0.182	-0.033
-481.376	100.134	-0.039	-0.046
-480.362	-60.815	0.129	0.056
-479.347	800.000	-0.052	-0.193
-478.332	-14.615	-0.132	0.086
-477.318	800.000	-0.074	-0.210
-476.303	800.000	0.081	-0.276
-475.289	358.045	0.055	-0.111
-474.274	492.355	0.137	-0.319
-473.259	-200.000	0.021	-0.298
-472.245	126.425	-0.097	-0.124
-471.230	637.647	-0.104	-0.267
-470.216	216.140	-0.140	-0.226
-469.201	205.882	-0.075	-0.119
-468.186	-90.874	0.206	-0.060
-467.172	-109.482	-0.126	-0.027
-466.157	-91.553	-0.163	0.047
-465.143	-200.000	-0.033	-0.242
-464.128	800.000	-0.050	0.157
-463.113	2.177	-0.101	-0.074
-462.099	249.302	-0.130	0.223
-461.084	-95.872	0.104	-0.028
-460.070	-182.254	-0.308	-0.006
-459.055	-200.000	0.017	-0.256
-458.040	67.044	-0.363	0.375
-457.026	-200.000	-0.006	0.059
-456.011	-125.008	0.180	0.028
-454.997	24.744	0.211	0.177
-453.982	-8.350	0.021	-0.014
-452.968	-103.129	0.055	0.013
-451.953	-97.720	-0.097	0.025
-450.938	392.955	0.063	0.134
-449.924	-60.160	-0.197	0.085
-448.909	-33.340	0.095	-0.053
-447.895	-200.000	0.029	-0.233
-446.880	80.830	-0.090	-0.098
-445.865	-14.257	-0.277	0.181
-444.851	-200.000	-0.083	0.528
-443.836	108.561	-0.161	-0.194
-442.822	-63.838	0.240	-0.099
-441.807	-200.000	0.033	-0.385
-440.792	-2.624	-0.087	-0.062
-439.778	419.582	-0.064	0.140
-438.763	-200.000	-0.091	0.411
-437.749	-61.518	0.113	0.048
-436.734	-28.433	-0.188	0.110
-435.719	-105.995	-0.285	0.065
-434.705	10.498	-0.061	0.047
-433.690	800.000	0.056	0.247
-432.676	503.697	0.111	-0.261
-431.661	-53.912	0.054	0.025
-430.646	777.184	0.106	-0.293
-429.632	-31.703	-0.101	0.057
-428.617	-93.932	-0.268	-0.075
-427.603	86.143	0.129	0.144
-426.588	229.449	-0.119	-0.197
-425.573	-68.407	-0.080	0.031
-424.559	197.155	-0.189	-0.292
-423.544	292.761	0.190	-0.351
-422.530	-94.936	0.129	0.035
-421.515	420.108	0.086	0.186
-420.500	337.337	-0.072	0.142
-419.486	90.356	-0.158	-0.179
-418.471	214.299	0.139	0.222
-417.457	-200.000	0.104	0.000
-416.442	-200.000	-0.015	0.263
-415.428	-151.454	0.176	0.013
-414.413	-200.000	0.013	0.124
-413.398	258.523	0.095	-0.165
-412.384	-67.437	-0.172	-0.068
-411.369	-141.109	0.220	-0.023
-410.355	-200.000	0.053	0.277
-409.340	-37.444	0.477	0.258
-408.325	-104.763	-0.168	-0.039
-407.311	142.805	0.044	0.059
-406.296	-200.000	0.060	0.360
-405.282	730.298	0.163	0.441
-404.267	-147.638	-0.127	-0.011
-403.252	-194.516	0.355	-0.003
-402.238	-124.913	-0.133	-0.021
-401.223	800.000	0.035	0.145
-400.209	-200.000	-0.002	-0.021
-399.194	-144.107	-0.069	0.006
-398.179	7.527	0.417	0.315
-397.165	249.625	-0.147	0.251
-396.150	-81.450	-0.195	0.065
-395.136	134.782	0.114	-0.149
-394.121	-112.794	-0.227	0.046
-393.106	-77.410	-0.058	-0.020
-392.092	-94.570	0.202	0.055
-391.077	800.000	-0.009	-0.033
-390.063	-23.608	0.071	0.043
-389.048	-54.108	0.152	-0.070
-388.033	567.720	-0.170	-0.416
-387.019	45.766	0.069	-0.064
-386.004	135.467	-0.037	-0.048
-384.990	22.539	0.139	0.115
-383.975	153.013	-0.040	-0.055
-382.960	-128.044	-0.034	0.005
-381.946	-64.350	-0.102	-0.042
-380.931	-100.866	0.262	0.065
-379.917	-93.421	0.240	-0.067
-378.902	-17.118	0.198	0.126
-377.888	110.884	-0.280	0.340
-376.873	-76.236	0.014	0.005
-375.858	-200.000	-0.002	-0.297
-374.844	-165.750	-0.279	0.012
-373.829	-200.000	-0.000	-0.291
-372.815	384.103	0.086	-0.178
-371.800	142.691	0.118	-0.158
-370.785	114.437	-0.092	-0.113
-369.771	800.000	0.030	-0.122
-368.756	37.548	-0.192	0.172
-367.742	215.515	0.029	-0.047
-366.727	-79.010	-0.220	0.076
-365.712	-146.548	0.102	-0.009
-364.698	109.787	0.148	0.180
-363.683	-44.989	0.311	-0.156
-362.669	264.936	-0.030	-0.053
-361.654	-80.350	0.147	0.050
-360.639	18.142	0.094	0.076
-359.625	-2.884	0.097	0.069
-358.610	-200.000	0.035	-0.323
-357.596	-80.845	-0.120	-0.040
-356.581	327.589	-0.151	0.291
-355.566	65.347	0.264	0.269
-354.552	-200.000	0.000	0.255
-353.537	200.777	0.078	0.121
-352.523	-35.429	-0.059	-0.032
-351.508	73.920	-0.080	0.085
-350.493	-30.246	-0.192	0.110
-349.479	-163.692	0.361	-0.017
-348.464	30.942	0.154	-0.133
-347.450	21.639	0.122	-0.100
-346.435	177.599	0.056	-0.082
-345.420	-104.858	0.470	-0.109
-344.406	587.110	-0.189	-0.470
-343.391	-130.691	-0.133	-0.018
-342.377	192.100	-0.133	-0.202
-341.362	-153.953	-0.059	0.004
-340.348	649.086	0.049	0.126
-339.333	51.301	0.026	-0.025
-338.318	-149.678	0.201	-0.016
-337.304	-200.000	-0.004	-0.228
-336.289	-169.067	0.240	0.009
-335.275	800.000	-0.022	-0.066
-334.260	488.302	0.139	0.321
-333.245	-106.776	-0.237	-0.053
-332.231	41.433	-0.287	-0.262
-331.216	-143.784	0.177	0.017
-330.202	-73.227	-0.111	0.041
-329.187	-93.893	0.067	-0.019
-328.172	-200.000	-0.003	0.213
-327.158	-136.706	0.163	-0.019
-326.143	26.423	-0.284	-0.239
-325.129	-92.294	-0.089	-0.025
-324.114	267.981	-0.070	0.123
-323.099	-200.000	-0.026	-0.294
-322.085	-95.299	0.294	-0.080
-321.070	-42.503	0.221	-0.114
-320.056	-75.383	0.223	-0.080
-319.041	-49.686	-0.234	-0.112
-318.026	-21.232	-0.193	0.119
-317.012	-77.790	0.200	-0.070
-315.997	-183.353	0.281	-0.005
-314.983	580.820	0.063	-0.155
-313.968	-200.000	-0.059	-0.298
-312.953	-191.759	-0.173	-0.002
-311.939	-74.904	-0.137	0.050
-310.924	800.000	0.038	0.150
-309.910	-200.000	-0.034	0.182
-308.895	269.692	-0.131	-0.231
-307.880	79.798	0.276	0.299
-306.866	-200.000	0.029	0.205
-305.851	104.564	-0.039	0.046
-304.837	-200.000	0.042	0.499
-303.822	800.000	0.058	-0.223
-302.807	-15.950	0.194	0.124
-301.793	336.129	0.169	0.331
-300.778	-178.472	0.124	-0.003
-299.764	800.000	0.060	-0.252
-298.749	-120.030	-0.011	0.002
-297.735	800.000	-0.061	0.216
-296.720	138.433	-0.102	0.135
-295.705	-66.529	0.152	0.061
-294.691	-70.815	-0.227	0.086
-293.676	105.416	0.109	-0.129
-292.662	-133.127	-0.087	0.011
-291.647	-157.876	-0.265	-0.016
-290.632	72.913	-0.184	0.194
-289.618	39.879	0.092	-0.083
-288.603	565.436	0.048	0.117
-287.589	-147.046	0.241	0.021
-286.574	137.599	0.097	0.127
-285.559	158.158	0.098	0.136
-284.545	-200.000	0.026	0.138
-283.530	-131.694	-0.071	0.009
-282.516	257.834	-0.105	-0.181
-281.501	-200.000	-0.009	0.163
-280.486	315.925	0.152	-0.289
-279.472	-102.818	0.309	-0.074
-278.457	-154.560	0.331	-0.022
-277.443	135.051	-0.073	-0.095
-276.428	60.277	0.246	-0.245
-275.413	-196.708	-0.383	-0.003
-274.399	-7.753	0.179	-0.122
-273.384	-52.380	-0.354	0.165
-272.370	70.630	0.020	0.021
-271.355	23.955	-0.009	-0.007
-270.340	511.328	0.144	-0.337
-269.326	-200.000	0.058	-0.380
-268.311	69.823	0.193	-0.200
-267.297	-37.730	0.231	0.124
-266.282	18.824	-0.336	-0.271
-265.267	-87.234	0.167	0.051
-264.253	77.209	-0.139	0.149
-263.238	-200.000	-0.001	0.201
-262.224	-5.147	0.193	-0.134
-261.209	-102.524	-0.185	0.045
-260.195	-185.544	-0.122	-0.002
-259.180	-111.787	0.206	-0.042
-258.165	-120.615	0.240	-0.041
-257.151	-6.104	0.073	0.050
-256.136	-53.875	-0.215	0.098
-255.122	10.773	0.221	0.170
-254.107	-71.121	0.217	0.082
-253.092	-15.478	0.104	0.067
-252.078	-139.238	-0.298	-0.032
-251.063	46.604	-0.286	-0.267
-250.049	-200.000	0.002	0.474
-249.034	-147.520	0.233	-0.020
-248.019	800.000	0.044	0.149
-247.005	561.811	-0.128	-0.311
-245.990	-123.710	-0.291	-0.046
-244.976	396.128	-0.011	0.024
-243.961	-20.156	0.249	0.154
-242.946	738.315	-0.149	0.401
-241.932	-141.046	-0.347	-0.036
-240.917	286.951	-0.148	0.268
-239.903	-0.897	0.240	0.171
-238.888	-118.554	-0.245	0.043
-237.873	-26.616	0.261	-0.153
-236.859	800.000	-0.091	0.303
-235.844	-200.000	-0.039	-0.283
-234.830	217.190	0.030	0.048
-233.815	670.681	-0.051	0.132
-232.800	-200.000	-0.044	0.315
-231.786	-158.381	-0.111	0.006
-230.771	178.836	-0.037	-0.054
-229.757	40.886	0.045	-0.041
-228.742	34.737	0.288	0.253
-227.727	-111.343	0.330	-0.068
-226.713	47.930	-0.235	0.220
-225.698	22.257	0.140	-0.115
-224.684	800.000	0.021	-0.093
-223.669	-200.000	0.006	-0.027
-222.655	-200.000	0.013	0.063
-221.640	-200.000	0.041	0.195
-220.625	-200.000	0.029	-0.170
-219.611	273.594	-0.188	-0.333
-218.596	-200.000	0.052	-0.320
-217.582	579.160	0.069	-0.170
-216.567	233.784	-0.116	0.192
-215.552	-148.539	-0.564	-0.046
-214.538	260.242	-0.031	-0.053
-213.523	-200.000	-0.024	-0.284
-212.509	77.974	0.092	-0.099
-211.494	44.623	0.155	-0.143
-210.479	286.750	-0.017	-0.030
-209.465	-92.628	-0.434	-0.122
-208.450	-15.683	-0.302	-0.193
-207.436	155.292	0.180	-0.249
-206.421	-137.420	0.159	-0.018
-205.406	139.750	0.207	0.274
-204.392	86.213	-0.234	0.258
-203.377	-200.000	-0.198	-0.001
-202.363	304.859	0.148	-0.276
-201.348	90.012	0.273	0.306
-200.333	2.703	0.064	-0.047
-199.319	491.171	0.093	-0.213
-198.304	-169.677	-0.095	-0.003
-197.290	-200.000	0.021	0.282
-196.275	-11.530	0.398	-0.262
-195.260	-200.000	0.015	0.139
-194.246	-200.000	0.016	-0.126
-193.231	-200.000	0.001	0.326
-192.217	-200.000	-0.038	0.233
-191.202	-68.691	-0.261	0.101
-190.187	-65.793	-0.345	-0.138
-189.173	104.260	0.135	0.159
-188.158	365.878	0.134	0.270
-187.144	26.859	-0.064	-0.054
-186.129	56.648	-0.111	0.108
-185.114	-79.595	0.166	0.056
-184.100	-3.794	0.156	0.108
-183.085	-139.711	-0.213	-0.023
-182.071	-200.000	-0.026	-0.330
-181.056	19.410	0.134	0.108
-180.042	-104.616	-0.097	-0.022
-179.027	167.315	0.034	-0.048
-178.012	30.259	-0.180	0.154
-176.998	800.000	-0.076	-0.266
-175.983	-200.000	-0.035	-0.460
-174.969	163.340	0.109	0.154
-173.954	-46.623	0.175	0.086
-172.939	59.513	0.125	0.124
-171.925	30.365	0.307	-0.263
-170.910	28.715	-0.196	-0.166
-169.896	-200.000	-0.054	0.261
-168.881	169.095	0.154	0.219
-167.866	-84.626	-0.107	-0.034
-166.852	-64.575	0.042	0.017
-165.837	-200.000	-0.015	0.107
-164.823	-106.820	-0.286	-0.063
-163.808	428.155	0.046	0.099
-162.793	-72.228	-0.500	-0.186
-161.779	225.321	0.037	-0.061
-160.764	65.068	0.057	0.058
-159.750	-200.000	-0.001	-0.306
-158.735	-200.000	-0.009	-0.132
-157.720	-36.257	0.135	0.073
-156.706	800.000	-0.080	0.251
-155.691	800.000	-0.071	-0.251
-154.677	334.909	-0.092	0.178
-153.662	469.981	0.066	0.149
-152.647	242.165	-0.067	0.112
-151.633	37.463	0.102	-0.091
-150.618	-200.000	0.033	-0.204
-149.604	800.000	-0.010	0.044
-148.589	-200.000	-0.021	0.191
-147.574	-87.728	0.134	0.041
-146.560	342.860	0.114	-0.224
-145.545	-149.394	-0.342	-0.027
-144.531	800.000	-0.104	0.343
-143.516	-57.804	0.149	0.065
-142.502	-32.735	0.199	-0.111
-141.487	-200.000	0.041	0.416
-140.472	-74.694	0.269	0.097
-139.458	-100.164	-0.205	0.051
-138.443	-77.424	0.261	-0.091
-137.429	-74.092	-0.089	0.032
-136.414	200.123	-0.291	-0.447
-135.399	-25.273	0.118	0.070
-134.385	171.141	-0.125	0.179
-133.370	-43.570	-0.372	-0.188
-132.356	-37.270	0.320	-0.171
-131.341	-200.000	-0.044	0.202
-130.326	-200.000	-0.017	0.309
-129.312	-100.824	0.102	-0.025
-128.297	139.144	0.044	-0.057
-127.283	800.000	0.044	-0.134
-126.268	25.173	-0.311	0.258
-125.253	357.655	0.112	0.224
-124.239	-83.654	-0.180	0.057
-123.224	126.536	-0.145	0.183
-122.210	-200.000	0.013	-0.144
-121.195	-9.026	-0.242	-0.162
-120.180	-18.232	0.176	-0.110
-119.166	91.026	0.236	0.265
-118.151	25.317	0.068	-0.056
-117.137	108.112	-0.116	0.138
-116.122	46.225	0.099	-0.092
-115.107	219.133	-0.185	0.296
-114.093	-66.683	-0.115	0.046
-113.078	-47.900	-0.364	0.176
-112.064	36.693	0.166	-0.147
-111.049	-11.162	-0.170	0.112
-110.034	445.531	-0.173	-0.380
-109.020	71.702	-0.091	0.095
-108.005	-1.586	0.042	-0.029
-106.991	56.045	-0.154	0.149
-105.976	-71.049	-0.136	-0.051
-104.962	-153.557	-0.352	0.024
-103.947	-94.967	-0.279	-0.076
-102.932	142.471	0.135	0.179
-101.918	-144.693	0.161	-0.015
-100.903	-65.476	-0.339	0.136
-99.889	102.094	0.292	0.341
-98.874	-24.821	-0.237	-0.140
-97.859	162.408	0.118	0.165
-96.845	-44.842	0.082	0.041
-95.830	272.368	0.055	0.097
-94.816	45.098	0.201	0.185
-93.801	-17.608	0.047	-0.030
-92.786	800.000	0.026	0.110
-91.772	165.576	-0.217	0.306
-90.757	-49.771	-0.110	-0.052
-89.743	684.447	-0.080	0.209
-88.728	800.000	0.043	0.145
-87.713	-200.000	-0.014	0.226
-86.699	-98.186	0.244	-0.063
-85.684	-11.673	0.028	-0.018
-84.670	235.134	0.096	0.158
-83.655	-200.000	0.013	0.279
-82.640	646.041	0.043	0.110
-81.626	-6.876	0.128	0.087
-80.611	417.171	0.049	0.104
-79.597	800.000	-0.052	-0.145
-78.582	229.811	0.081	-0.132
-77.567	95.722	0.059	-0.068
-76.553	116.681	-0.188	-0.230
-75.538	800.000	0.062	0.260
-74.524	371.380	0.164	0.332
-73.509	800.000	0.013	-0.046
-72.494	42.303	0.275	-0.249
-71.480	2.090	0.146	-0.105
-70.465	-120.929	-0.282	-0.047
-69.451	22.355	-0.155	-0.126
-68.436	74.838	0.315	-0.330
-67.422	-72.428	-0.179	0.066
-66.407	457.903	-0.216	-0.478
-65.392	9.245	-0.070	0.053
-64.378	-200.000	-0.026	-0.258
-63.363	-200.000	0.012	0.331
-62.349	328.025	-0.084	0.161
-61.334	21.280	-0.474	-0.384
-60.319	124.449	-0.119	0.150
-59.305	-200.000	-0.063	-0.853
-58.290	596.146	0.350	0.864
-57.276	800.000	0.629	1.838
-56.261	-200.000	70.134	530.807
-55.246	609.558	1251.949	3117.494
-54.232	145.399	2488.905	3322.500
-53.217	122.692	2229.142	2779.976
-52.203	57.627	1676.395	1633.701
-51.188	48.738	1393.421	1302.773
-50.173	44.737	1344.766	1233.077
-49.159	62.273	1376.241	1369.189
-48.144	71.221	1395.012	1442.193
-47.130	48.902	1359.299	1271.669
-46.115	44.659	1342.938	1230.735
-45.100	44.409	1338.464	1225.076
-44.086	44.261	1336.173	1222.042
-43.071	44.353	1333.304	1219.921
-42.057	44.230	1331.564	1217.544
-41.042	44.260	1329.795	1216.057
-40.027	44.314	1328.313	1214.978
-39.013	44.267	1326.560	1213.043
-37.998	44.358	1324.618	1211.762
-36.984	44.373	1322.814	1210.157
-35.969	44.515	1320.741	1209.055
-34.954	44.486	1319.545	1207.740
-33.940	44.473	1317.734	1205.956
-32.925	44.569	1316.535	1205.380
-31.911	44.505	1314.872	1203.434
-30.896	44.594	1313.614	1202.761
-29.881	44.545	1311.865	1200.820
-28.867	44.625	1310.679	1200.160
-27.852	44.561	1309.061	1198.251
-26.838	44.532	1307.482	1196.587
-25.823	44.483	1306.419	1195.279
-24.809	44.522	1304.736	1193.924
-23.794	44.433	1303.771	1192.470
-22.779	44.453	1302.481	1191.360
-21.765	44.570	1300.584	1190.261
-20.750	44.497	1299.989	1189.244
-19.736	44.506	1298.150	1187.565
-18.721	44.363	1296.986	1185.620
-17.706	44.483	1295.973	1185.345
-16.692	44.412	1294.454	1183.497
-15.677	44.419	1293.759	1182.857
-14.663	44.341	1292.619	1181.312
-13.648	44.322	1291.569	1180.194
-12.633	44.369	1290.024	1179.011
-11.619	44.464	1289.446	1178.984
-10.604	44.415	1288.748	1178.016
-9.590	44.413	1287.485	1176.804
-8.575	44.304	1286.641	1175.354
-7.560	44.279	1286.130	1174.694
-6.546	44.354	1285.146	1174.184
-5.531	44.313	1284.004	1172.856
-4.517	44.382	1282.685	1172.007
-3.502	44.469	1282.030	1171.862
-2.487	44.363	1281.512	1170.728
-1.473	44.356	1277.561	1167.037
-0.458	43.189	1262.105	1146.242
0.556	36.374	1240.364	1097.354
1.571	30.832	1240.910	1066.117
2.586	28.553	1254.792	1064.741
3.600	26.550	1243.845	1043.821
4.615	20.523	1171.393	950.094
5.629	11.492	1091.953	839.354
6.644	7.061	1067.725	798.346
7.659	6.570	1065.884	794.423
8.673	6.372	1064.171	792.083
9.688	6.469	1062.164	791.005
10.702	6.777	1061.953	792.325
11.717	11.723	1069.188	822.583
12.731	18.239	1077.897	862.145
13.746	19.120	1077.577	866.249
14.761	17.315	1074.501	854.635
15.775	16.102	1072.250	846.680
16.790	15.084	1070.250	839.925
17.804	14.435	1068.727	835.402
18.819	14.046	1067.117	832.122
19.834	13.573	1066.315	829.055
20.848	13.319	1065.861	827.361
21.863	13.126	1064.684	825.409
22.877	13.035	1064.147	824.464
23.892	13.092	1063.280	824.002
24.907	13.092	1062.435	823.278
25.921	13.102	1061.103	822.222
26.936	13.117	1059.879	821.273
27.950	13.071	1059.083	820.357
28.965	13.166	1057.450	819.489
29.980	13.277	1055.755	818.653
30.994	13.301	1054.296	817.571
32.009	13.433	1053.579	817.594
33.023	13.267	1052.354	815.752
34.038	13.227	1051.289	814.658
35.053	13.304	1049.970	813.939
36.067	13.315	1049.327	813.422
37.082	13.222	1048.751	812.449
38.096	13.203	1047.823	811.566
39.111	13.207	1047.172	811.009
40.126	13.187	1045.551	809.581
41.140	13.037	1044.295	807.805
42.155	12.968	1043.719	806.949
43.169	12.957	1042.519	805.899
44.184	12.889	1041.695	804.857
45.199	12.974	1040.224	804.066
46.213	13.097	1039.070	803.700
47.228	13.111	1037.958	802.838
48.242	13.169	1037.252	802.500
49.257	13.176	1035.863	801.391
50.271	13.161	1035.116	800.666
51.286	13.181	1034.366	800.113
52.301	13.120	1033.431	799.027
53.315	13.098	1032.349	798.012
54.330	13.082	1031.301	797.052
55.344	13.175	1030.182	796.565
56.359	13.095	1029.184	795.342
57.374	13.013	1028.434	794.293
58.388	13.043	1027.779	793.861
59.403	12.886	1027.328	792.687
60.417	13.079	1025.883	792.432
61.432	13.036	1024.778	791.299
62.447	12.914	1024.078	790.107
63.461	12.970	1023.177	789.610
64.476	12.827	1022.646	788.447
65.490	12.950	1022.167	788.592
66.505	12.989	1020.993	787.806
67.520	12.942	1020.377	787.036
68.534	12.907	1019.904	786.433
69.549	12.955	1019.091	785.968
70.563	12.954	1018.152	785.169
71.578	12.951	1017.130	784.297
72.593	12.758	1016.182	782.578
73.607	12.746	1016.209	782.473
74.622	12.820	1015.626	782.308
75.636	13.014	1014.299	782.135
76.651	12.765	1014.268	780.859
77.666	12.904	1013.390	780.775
78.680	12.957	1012.704	780.426
79.695	12.851	1011.727	779.103
80.709	12.963	1011.228	779.181
81.724	12.887	1010.906	778.505
82.739	13.121	1010.054	778.883
83.753	13.014	1009.549	777.921
84.768	13.227	1008.370	777.947
85.782	13.319	1007.297	777.481
86.797	13.263	1006.636	776.641
87.812	13.195	1005.577	775.433
88.826	13.089	1004.969	774.400
89.841	13.202	1003.601	773.808
90.855	13.159	1002.970	773.050
91.870	13.301	1002.195	773.049
92.884	13.267	1001.262	772.104
93.899	13.323	1000.705	771.867
94.914	13.292	999.858	771.001
95.928	13.275	999.061	770.240
96.943	13.241	998.070	769.248
97.957	13.400	997.279	769.310
98.972	13.358	995.858	767.950
99.987	13.239	995.540	767.085
101.001	13.282	994.506	766.421
102.016	13.103	993.927	765.075
103.030	13.314	992.794	765.112
104.045	13.237	992.314	764.316
105.060	13.259	990.829	763.207
106.074	13.168	990.357	762.356
107.089	13.019	989.277	760.772
108.103	13.174	988.280	760.653
109.118	13.127	987.500	759.768
110.133	12.953	986.670	758.263
111.147	12.938	985.603	757.305
112.162	13.216	984.847	757.935
113.176	13.043	984.575	756.864
114.191	12.930	984.141	755.947
115.206	13.045	983.026	755.547
116.220	12.949	982.298	754.485
117.235	13.125	980.899	754.146
118.249	13.057	980.567	753.515
119.264	13.074	979.390	752.620
120.279	13.207	978.555	752.518
121.293	13.037	977.776	751.078
122.308	13.044	976.675	750.197
123.322	13.000	975.940	749.368
124.337	12.993	974.673	748.299
125.352	12.933	973.927	747.388
126.366	13.056	972.763	746.983
127.381	13.092	971.666	746.237
128.395	13.125	970.863	745.704
129.410	13.143	970.099	745.133
130.424	13.050	969.200	743.958
131.439	13.168	968.550	743.923
132.454	13.298	967.959	743.987
133.468	13.409	966.726	743.472
134.483	13.350	966.287	742.806
135.497	13.290	965.528	741.886
136.512	13.331	964.791	741.437
137.527	13.306	963.817	740.513
138.541	13.308	963.273	740.037
139.556	13.255	962.368	739.038
140.570	13.378	961.938	739.194
141.585	13.444	960.967	738.677
142.600	13.375	960.028	737.584
143.614	13.482	959.290	737.427
144.629	13.641	957.895	736.994
145.643	13.536	957.409	736.092
146.658	13.436	956.124	734.595
147.673	13.398	955.661	734.005
148.687	13.384	954.472	732.964
149.702	13.249	953.732	731.732
150.716	13.281	953.021	731.262
151.731	13.259	952.154	730.438
152.746	13.200	951.665	729.739
153.760	13.222	951.413	729.578
154.775	13.376	950.240	729.289
155.789	13.421	949.814	729.097
156.804	13.371	949.129	728.286
157.819	13.464	948.582	728.212
158.833	13.501	947.794	727.704
159.848	13.517	947.141	727.208
160.862	13.506	945.536	725.863
161.877	13.439	944.837	724.973
162.892	13.304	944.015	723.687
163.906	13.398	943.071	723.307
164.921	13.358	941.981	722.235
165.935	13.477	941.123	722.031
166.950	13.451	940.624	721.472
167.964	13.398	939.692	720.463
168.979	13.464	938.641	719.880
169.994	13.429	937.999	719.172
171.008	13.391	937.012	718.188
172.023	13.544	936.496	718.391
173.037	13.659	936.222	718.617
174.052	13.624	935.395	717.765
175.067	13.385	934.997	716.362
176.081	13.427	934.149	715.831
177.096	13.441	933.638	715.436
178.110	13.545	932.889	715.247
179.125	13.606	931.847	714.648
180.140	13.562	931.536	714.159
181.154	13.616	931.465	714.272
182.169	13.600	930.809	713.635
183.183	13.593	930.300	713.155
184.198	13.719	929.301	712.866
185.213	13.704	928.523	712.143
186.227	13.667	927.775	711.347
187.242	13.736	927.475	711.350
188.256	13.860	926.612	711.157
189.271	13.801	925.730	710.163
190.286	13.677	924.769	708.832
191.300	13.599	924.333	708.102
192.315	13.481	923.951	707.246
193.329	13.445	923.416	706.621
194.344	13.644	922.474	706.681
195.359	13.704	921.825	706.378
196.373	13.633	921.526	705.786
197.388	13.737	921.423	706.089
198.402	13.903	920.428	705.969
199.417	13.909	919.756	705.414
200.432	13.983	919.390	705.386
201.446	14.128	918.641	705.362
202.461	14.104	918.539	705.120
203.475	14.058	917.613	704.152
204.490	14.003	917.041	703.418
205.504	13.939	915.982	702.275
206.519	13.818	915.497	701.331
207.534	13.896	914.870	701.117
208.548	14.012	914.221	701.045
209.563	14.024	913.420	700.422
210.577	13.996	912.790	699.757
211.592	14.159	912.302	700.008
212.607	14.039	911.780	699.038
213.621	14.073	910.564	698.187
214.636	14.104	910.517	698.220
215.650	14.184	909.055	697.372
216.665	14.300	908.354	697.260
217.680	14.206	908.075	696.593
218.694	14.202	907.258	695.884
219.709	14.308	906.693	695.834
220.723	14.118	906.470	694.808
221.738	14.196	905.469	694.305
222.753	14.067	905.035	693.371
223.767	14.275	904.170	693.515
224.782	14.381	903.649	693.495
225.796	14.375	903.355	693.181
226.811	14.322	902.438	692.198
227.826	14.249	902.011	691.506
228.840	14.391	900.518	690.886
229.855	14.306	899.885	689.991
230.869	14.194	899.768	689.377
231.884	14.184	898.940	688.639
232.899	14.242	897.916	688.032
233.913	14.204	897.376	687.401
234.928	14.122	896.972	686.692
235.942	14.234	896.156	686.467
236.957	14.329	895.696	686.449
237.972	14.289	895.205	685.847
238.986	14.241	894.365	684.945
240.001	14.322	893.935	684.887
241.015	14.287	893.369	684.250
242.030	14.357	892.850	684.078
243.045	14.485	891.835	683.764
244.059	14.430	891.182	682.978
245.074	14.401	890.979	682.642
246.088	14.441	890.314	682.236
247.103	14.470	889.854	681.945
248.117	14.648	889.122	682.047
249.132	14.565	888.807	681.408
250.147	14.784	887.848	681.505
251.161	14.885	887.170	681.335
252.176	14.745	886.863	680.471
253.190	14.934	886.329	680.771
254.205	14.889	885.460	679.858
255.220	14.937	884.487	679.248
256.234	14.882	884.212	678.755
257.249	14.861	883.622	678.153
258.263	14.889	882.556	677.388
259.278	14.873	881.798	676.682
260.293	15.035	881.448	677.011
261.307	15.028	880.816	676.437
262.322	15.179	879.966	676.332
263.336	15.277	879.343	676.191
264.351	15.002	879.045	674.794
265.366	15.028	878.299	674.266
266.380	15.074	877.887	674.074
267.395	15.075	877.255	673.533
268.409	15.062	875.938	672.411
269.424	15.051	875.455	671.937
270.439	15.014	874.774	671.205
271.453	15.183	874.188	671.372
272.468	15.137	873.709	670.762
273.482	15.059	872.923	669.789
274.497	15.109	872.312	669.458
275.512	15.129	872.098	669.315
276.526	15.137	871.592	668.901
277.541	15.111	871.029	668.306
278.555	15.162	870.848	668.311
279.570	15.362	869.721	668.183
280.585	15.231	869.269	667.253
281.599	15.185	868.505	666.427
282.614	15.207	867.944	666.023
283.628	15.138	866.901	664.893
284.643	15.183	866.467	664.680
285.657	15.309	865.638	664.485
286.672	15.305	865.188	664.062
287.687	15.313	864.622	663.601
288.701	15.335	864.100	663.230
289.716	15.150	863.653	662.095
290.730	15.366	862.784	662.223
291.745	15.221	862.630	661.473
292.760	15.382	861.912	661.500
293.774	15.358	861.240	660.833
294.789	15.511	860.326	660.673
295.803	15.271	859.725	659.211
296.818	15.441	858.942	659.221
297.833	15.438	858.277	658.637
298.847	15.480	857.689	658.293
299.862	15.428	857.782	658.104
300.876	15.480	856.979	657.634
301.891	15.495	856.421	657.206
302.906	15.544	856.045	657.052
303.920	15.853	855.010	657.406
304.935	15.696	854.549	656.378
305.949	15.633	853.950	655.613
306.964	15.686	853.349	655.303
307.979	15.694	852.759	654.823
308.993	15.788	852.249	654.737
310.008	15.733	851.870	654.176
311.022	15.721	851.152	653.520
312.037	15.671	850.443	652.724
313.052	15.587	850.049	652.039
314.066	15.642	849.286	651.607
315.081	15.505	849.077	650.857
316.095	15.474	848.243	650.043
317.110	15.593	847.833	650.132
318.125	15.676	847.141	649.865
319.139	15.642	846.729	649.360
320.154	15.631	845.956	648.664
321.168	15.834	845.569	649.094
322.183	15.573	845.233	647.773
323.197	15.732	844.748	647.957
324.212	15.813	844.077	647.696
325.227	15.820	843.490	647.215
326.241	15.646	843.178	646.248
327.256	15.592	842.778	645.678
328.270	15.689	841.811	645.252
329.285	15.708	841.043	644.679
330.300	15.643	840.774	644.167
331.314	15.829	840.072	644.285
332.329	15.925	839.698	644.308
333.343	15.894	839.383	643.891
334.358	15.808	839.049	643.251
335.373	15.798	838.608	642.816
336.387	15.695	838.239	642.084
337.402	15.964	837.897	642.790
338.416	16.097	837.447	642.895
339.431	16.025	837.211	642.383
340.446	16.182	836.738	642.560
341.460	16.126	836.450	642.068
342.475	16.183	835.813	641.742
343.489	16.296	835.162	641.614
344.504	16.313	834.595	641.185
345.519	16.257	834.286	640.678
346.533	16.408	833.699	640.746
347.548	16.405	833.077	640.200
348.562	16.169	832.767	639.011
349.577	16.212	832.025	638.546
350.592	16.167	831.644	638.026
351.606	16.136	831.050	637.400
352.621	16.059	830.080	636.308
353.635	16.135	829.687	636.237
354.650	16.172	829.203	635.949
355.665	15.979	828.561	634.671
356.679	16.339	827.418	635.096
357.694	16.288	827.143	634.636
358.708	16.265	826.658	634.119
359.723	16.272	825.835	633.460
360.738	16.269	825.507	633.141
361.752	16.454	824.773	633.215
362.767	16.497	824.064	632.777
363.781	16.505	823.521	632.332
364.796	16.469	823.607	632.209
365.810	16.618	822.601	631.937
366.825	16.622	822.482	631.805
367.840	16.513	822.133	631.075
368.854	16.588	821.469	630.787
369.869	16.568	821.106	630.377
370.883	16.477	820.915	629.836
371.898	16.637	820.416	629.996
372.913	16.729	820.107	630.042
373.927	16.677	819.500	629.329
374.942	16.755	818.769	628.999
375.956	16.756	818.402	628.668
376.971	16.694	818.309	628.310
377.986	16.857	817.763	628.439
379.000	16.882	816.899	627.812
380.015	16.798	816.519	627.153
381.029	16.893	815.732	626.846
382.044	16.850	815.485	626.443
383.059	16.862	815.116	626.146
384.073	16.902	814.171	625.512
385.088	16.904	813.606	625.032
386.102	16.804	812.808	623.994
387.117	16.809	812.503	623.721
388.132	16.791	811.753	623.025
389.146	16.945	811.443	623.300
390.161	16.968	811.105	623.071
391.175	17.024	810.436	622.706
392.190	16.786	810.489	621.817
393.205	16.823	809.836	621.396
394.219	16.837	809.435	621.086
395.234	16.835	808.902	620.615
396.248	16.788	808.588	620.145
397.263	16.784	808.130	619.726
398.278	16.758	807.552	619.133
399.292	16.876	807.216	619.251
400.307	16.871	806.704	618.786
401.321	16.817	806.376	618.281
402.336	16.895	805.726	618.011
403.350	16.941	805.090	617.638
404.365	17.129	804.869	618.099
405.380	17.008	804.630	617.418
406.394	17.166	803.827	617.324
407.409	17.129	803.554	616.925
408.423	17.072	803.463	616.594
409.438	17.155	803.044	616.520
410.453	17.294	802.574	616.608
411.467	17.308	801.864	616.059
412.482	17.254	801.748	615.719
413.496	17.368	801.224	615.674
414.511	17.386	800.942	615.469
415.526	17.426	800.369	615.119
416.540	17.270	800.077	614.276
417.555	17.358	799.429	614.042
418.569	17.237	799.620	613.696
419.584	17.248	798.963	613.177
420.599	17.405	798.144	613.061
421.613	77.451	1238.484	1274.390
422.628	65.414	1302.659	1274.535
