DTS Sentinel unit serial number:	SN413079Multiplexer serial number:	ORYXHardware model number:	OX4-SRSoftware version number:	ORYX F/W v4.00 Oryx Data Collector v3.7.2.0data status	okinstallation	princeton_trtdifferential loss correction	single-endedforward channel	channel 1reverse channel	N/Adate	2019/09/15time	04:06:35forward acquisition time	60.00reverse acquisition time	0.00gamma	496.2192k internal	0.2323k external	0.2323temperature offset calibration	0.9990default loss term (dB/km)	0.3790temperature slope calibration	1.0000multiplexer offset coefficient	1.0000multiplexer slope coefficient	1.0000fibre end	0.00T internal ref (°C)	30.94T ext. ref 1 (°C)	4.62T ext. ref 2 (°C)	25.83length (m)	temperature (°C)	Stokes	anti-Stokes-747.200	-37.306	-0.082	-0.044
-746.185	-54.213	-0.051	-0.024
-745.171	100.611	0.045	0.052
-744.156	66.733	-0.193	-0.198
-743.142	800.000	0.061	0.199
-742.127	226.674	-0.123	0.202
-741.112	-2.042	-0.080	-0.057
-740.098	-143.961	0.137	0.013
-739.083	91.893	0.066	-0.075
-738.069	-200.000	-0.007	0.214
-737.054	-200.000	0.004	-0.346
-736.039	118.591	0.114	-0.142
-735.025	70.995	0.077	0.081
-734.010	-200.000	-0.022	-0.230
-732.996	-98.042	0.099	0.026
-731.981	-200.000	-0.026	-0.221
-730.966	-200.000	-0.014	-0.214
-729.952	206.231	-0.041	-0.064
-728.937	71.042	0.079	-0.083
-727.923	260.739	-0.158	-0.276
-726.908	739.605	-0.106	-0.288
-725.894	800.000	-0.034	-0.103
-724.879	-187.373	0.413	-0.006
-723.864	-200.000	-0.083	-0.391
-722.850	342.323	-0.055	-0.109
-721.835	-200.000	0.008	0.215
-720.821	800.000	0.139	-0.484
-719.806	-200.000	-0.027	-0.140
-718.791	-178.956	-0.122	-0.003
-717.777	430.548	-0.038	-0.083
-716.762	9.855	-0.233	-0.178
-715.748	-63.666	0.242	-0.100
-714.733	-200.000	-0.072	-0.322
-713.718	54.184	0.112	-0.109
-712.704	-200.000	-0.044	-0.248
-711.689	800.000	0.137	0.430
-710.675	112.131	0.103	0.126
-709.660	-133.422	-0.142	0.018
-708.645	551.516	-0.098	0.238
-707.631	161.549	0.191	-0.270
-706.616	-88.206	-0.572	-0.173
-705.602	-200.000	-0.025	0.317
-704.587	395.681	0.090	0.189
-703.572	800.000	0.022	0.062
-702.558	188.378	0.137	0.206
-701.543	513.202	-0.108	-0.253
-700.529	-200.000	-0.009	-0.122
-699.514	49.803	-0.078	-0.074
-698.499	-159.096	-0.252	-0.014
-697.485	-200.000	0.015	0.339
-696.470	49.019	0.100	0.095
-695.456	-120.224	0.253	0.044
-694.441	54.662	0.193	-0.188
-693.426	800.000	-0.068	0.236
-692.412	77.336	0.058	0.062
-691.397	12.798	0.237	-0.185
-690.383	-100.161	-0.272	0.068
-689.368	-148.530	-0.194	-0.016
-688.354	218.615	-0.080	0.128
-687.339	-99.076	-0.149	-0.038
-686.324	-92.903	0.231	-0.065
-685.310	-86.165	-0.085	-0.026
-684.295	146.590	0.162	0.219
-683.281	-6.432	0.197	-0.135
-682.266	-41.734	-0.303	-0.157
-681.251	654.500	-0.096	-0.247
-680.237	-120.794	-0.285	0.048
-679.222	561.548	-0.049	-0.119
-678.208	24.420	0.269	0.224
-677.193	-19.640	-0.234	0.146
-676.178	-8.202	-0.152	0.103
-675.164	-200.000	-0.015	-0.090
-674.149	-28.659	-0.303	-0.175
-673.135	436.458	-0.076	-0.167
-672.120	562.237	-0.084	-0.204
-671.105	-36.995	-0.093	0.050
-670.091	50.021	-0.229	-0.218
-669.076	53.053	0.071	-0.068
-668.062	-200.000	0.038	0.239
-667.047	-46.017	0.049	0.025
-666.032	-200.000	0.073	-0.349
-665.018	115.786	0.067	-0.083
-664.003	107.588	-0.131	-0.157
-662.989	82.424	-0.137	0.150
-661.974	685.064	0.167	0.439
-660.959	-15.858	0.210	-0.135
-659.945	541.026	-0.143	0.344
-658.930	800.000	-0.083	-0.309
-657.916	-111.622	-0.139	-0.028
-656.901	0.131	-0.221	-0.159
-655.886	-113.700	0.302	0.059
-654.872	-126.725	0.418	-0.062
-653.857	22.392	-0.320	-0.264
-652.843	-200.000	-0.028	-0.306
-651.828	-7.135	0.050	0.034
-650.814	209.178	-0.131	-0.206
-649.799	-121.927	-0.100	-0.017
-648.784	55.272	-0.245	0.238
-647.770	-19.445	0.087	-0.054
-646.755	83.154	0.159	-0.174
-645.741	-56.853	-0.107	0.048
-644.726	-118.006	0.103	-0.019
-643.711	-127.840	0.115	-0.017
-642.697	-200.000	-0.002	0.057
-641.682	100.342	0.031	-0.036
-640.668	-100.917	0.292	0.072
-639.653	-137.110	-0.256	0.029
-638.638	137.781	0.108	-0.142
-637.624	-39.760	0.038	-0.020
-636.609	800.000	-0.018	-0.076
-635.595	81.150	-0.200	0.217
-634.580	102.033	-0.109	-0.128
-633.565	343.817	-0.142	-0.279
-632.551	-200.000	-0.010	-0.051
-631.536	800.000	0.040	-0.113
-630.522	-151.311	-0.257	-0.019
-629.507	-164.658	0.184	0.008
-628.492	-45.734	0.299	0.149
-627.478	-148.089	-0.260	-0.022
-626.463	522.530	-0.015	0.035
-625.449	20.699	0.260	-0.211
-624.434	-62.129	0.143	-0.060
-623.419	-200.000	0.041	-0.247
-622.405	-140.150	-0.401	0.042
-621.390	-106.545	-0.244	-0.055
-620.376	-200.000	-0.006	-0.110
-619.361	82.064	0.044	-0.048
-618.346	87.743	-0.196	0.218
-617.332	-200.000	0.040	-0.345
-616.317	40.056	-0.224	-0.202
-615.303	-97.172	0.190	0.050
-614.288	-132.305	-0.257	-0.033
-613.273	-200.000	0.016	0.185
-612.259	249.406	-0.029	0.049
-611.244	449.480	-0.116	-0.258
-610.230	360.950	-0.076	0.153
-609.215	-1.262	0.291	0.207
-608.201	-200.000	0.011	-0.060
-607.186	-81.209	0.048	0.016
-606.171	693.878	0.088	0.232
-605.157	55.766	-0.257	-0.250
-604.142	-42.085	-0.308	-0.158
-603.128	130.915	0.088	0.113
-602.113	-121.866	0.319	0.053
-601.098	-38.468	-0.119	0.063
-600.084	-21.619	0.254	0.155
-599.069	153.584	-0.199	0.274
-598.055	-157.552	-0.201	0.012
-597.040	-135.341	-0.219	-0.026
-596.025	304.740	-0.102	0.190
-595.011	-200.000	0.033	0.271
-593.996	-119.087	0.310	0.054
-592.982	-101.173	-0.275	0.068
-591.967	-200.000	0.013	0.129
-590.952	20.094	0.090	-0.073
-589.938	-200.000	0.265	0.000
-588.923	-3.824	0.239	0.167
-587.909	-19.320	-0.126	0.078
-586.894	679.733	0.075	-0.195
-585.879	-200.000	-0.013	0.062
-584.865	-58.496	0.410	0.179
-583.850	-93.829	-0.094	-0.026
-582.836	210.930	0.207	-0.326
-581.821	-83.873	-0.423	-0.135
-580.806	337.422	-0.137	-0.267
-579.792	234.824	-0.007	-0.012
-578.777	-119.675	-0.204	-0.035
-577.763	5.329	-0.210	-0.155
-576.748	89.155	-0.123	-0.137
-575.733	-47.393	-0.175	0.086
-574.719	-108.594	0.107	-0.023
-573.704	800.000	0.136	-0.419
-572.690	-138.943	0.085	0.009
-571.675	-65.848	0.182	0.073
-570.661	23.526	0.296	0.244
-569.646	-135.007	-0.160	-0.019
-568.631	303.839	-0.203	-0.377
-567.617	-200.000	0.004	-0.339
-566.602	-74.418	-0.228	0.082
-565.588	68.422	-0.253	0.260
-564.573	39.026	-0.252	-0.226
-563.558	89.353	-0.139	0.156
-562.544	-200.000	0.012	0.249
-561.529	176.840	-0.131	-0.191
-560.515	-95.768	0.306	-0.082
-559.500	209.085	-0.123	-0.193
-558.485	262.504	-0.136	-0.237
-557.471	-200.000	-0.011	0.182
-556.456	-200.000	0.001	0.186
-555.442	4.146	0.118	0.087
-554.427	800.000	0.021	-0.077
-553.412	32.533	0.184	0.159
-552.398	17.041	-0.149	0.118
-551.383	35.035	0.168	0.148
-550.369	449.775	-0.038	0.084
-549.354	223.529	-0.215	-0.348
-548.339	800.000	-0.083	-0.270
-547.325	30.661	-0.102	-0.088
-546.310	137.829	0.107	-0.141
-545.296	63.534	-0.063	0.063
-544.281	29.240	0.189	0.161
-543.266	-200.000	0.020	0.344
-542.252	-16.087	-0.364	0.232
-541.237	67.215	0.167	0.171
-540.223	200.221	-0.143	-0.220
-539.208	114.733	0.184	-0.224
-538.193	-19.912	-0.171	-0.106
-537.179	-200.000	-0.005	0.027
-536.164	-96.171	0.093	0.025
-535.150	800.000	-0.124	0.367
-534.135	-41.305	0.189	0.098
-533.121	-200.000	0.003	0.087
-532.106	-200.000	0.012	-0.173
-531.091	24.627	0.031	0.026
-530.077	114.925	0.074	0.090
-529.062	77.852	0.223	-0.237
-528.048	-40.997	0.132	0.069
-527.033	223.328	0.079	0.127
-526.018	-183.784	-0.386	0.007
-525.004	82.890	-0.114	-0.124
-523.989	-200.000	0.023	0.191
-522.975	34.782	-0.145	-0.127
-521.960	-200.000	0.014	-0.248
-520.945	800.000	-0.057	-0.186
-519.931	-136.096	0.193	-0.023
-518.916	-160.156	-0.180	-0.010
-517.902	137.823	0.147	-0.192
-516.887	7.504	0.264	-0.198
-515.872	-9.249	0.082	-0.055
-514.858	-20.901	-0.179	-0.110
-513.843	-66.372	0.313	0.125
-512.829	10.286	-0.053	0.041
-511.814	18.487	0.177	-0.142
-510.799	-27.666	-0.069	0.040
-509.785	3.742	-0.008	0.006
-508.770	-130.331	0.373	0.051
-507.756	317.482	-0.239	-0.453
-506.741	272.117	0.240	-0.424
-505.726	800.000	-0.106	-0.310
-504.712	800.000	-0.042	-0.131
-503.697	-17.521	-0.406	0.255
-502.683	94.813	0.202	-0.230
-501.668	58.328	-0.136	0.133
-500.653	-46.120	-0.024	0.012
-499.639	-200.000	0.079	-0.423
-498.624	93.445	0.083	-0.094
-497.610	-200.000	0.033	0.313
-496.595	-135.430	0.265	-0.032
-495.581	63.755	-0.179	0.180
-494.566	-32.431	-0.188	0.105
-493.551	-73.373	-0.231	0.084
-492.537	-127.707	0.218	-0.031
-491.522	-200.000	0.002	0.158
-490.508	-122.614	0.321	0.052
-489.493	-103.999	-0.267	0.062
-488.478	-200.000	0.014	0.113
-487.464	148.371	-0.187	0.252
-486.449	-200.000	0.015	0.252
-485.435	569.287	0.022	0.054
-484.420	-200.000	-0.019	0.118
-483.405	-127.452	0.121	-0.018
-482.391	800.000	0.027	-0.109
-481.376	-9.440	-0.255	0.170
-480.362	-24.228	0.176	-0.105
-479.347	187.063	0.254	-0.379
-478.332	-19.442	-0.244	0.151
-477.318	-124.029	0.483	0.076
-476.303	-200.000	-0.007	0.079
-475.289	-130.109	0.271	-0.037
-474.274	526.007	-0.026	-0.062
-473.259	271.201	-0.047	0.083
-472.245	641.553	0.033	-0.085
-471.230	-197.646	0.151	0.001
-470.216	435.963	-0.093	0.203
-469.201	259.524	-0.010	-0.017
-468.186	-55.050	-0.189	0.085
-467.172	-200.000	0.015	-0.113
-466.157	-71.321	0.390	0.146
-465.143	-36.511	-0.091	-0.049
-464.128	-200.000	0.042	0.309
-463.113	-45.353	0.179	0.089
-462.099	-1.731	-0.350	-0.246
-461.084	236.656	0.143	0.236
-460.070	737.972	-0.155	0.415
-459.055	-131.425	-0.366	0.048
-458.040	19.364	0.154	0.123
-457.026	-128.479	0.401	-0.057
-456.011	86.887	0.193	0.213
-454.997	303.101	-0.223	-0.413
-453.982	-108.123	-0.116	-0.025
-452.968	-35.118	0.171	0.093
-451.953	75.729	-0.146	-0.154
-450.938	-65.547	-0.017	-0.007
-449.924	696.929	0.174	-0.457
-448.909	575.693	-0.092	-0.224
-447.895	-111.759	-0.321	0.065
-446.880	-59.775	-0.123	-0.053
-445.865	-120.399	-0.172	0.029
-444.851	-200.000	-0.011	-0.057
-443.836	110.843	0.066	-0.079
-442.822	-145.858	-0.182	-0.016
-441.807	-174.283	-0.199	-0.006
-440.792	800.000	-0.082	-0.322
-439.778	-200.000	0.008	0.312
-438.763	367.743	-0.093	0.187
-437.749	-41.999	0.288	-0.147
-436.734	7.100	0.146	0.108
-435.719	-105.518	0.126	0.029
-434.705	-200.000	0.054	0.351
-433.690	-200.000	0.002	0.128
-432.676	-200.000	-0.034	0.173
-431.661	800.000	-0.049	0.167
-430.646	66.042	-0.105	0.107
-429.632	40.495	0.223	-0.200
-428.617	-88.855	0.140	0.041
-427.603	-150.558	0.147	-0.011
-426.588	-111.587	0.321	0.065
-425.573	800.000	0.074	0.310
-424.559	63.460	-0.158	0.158
-423.544	-200.000	-0.019	0.098
-422.530	-38.667	0.268	0.141
-421.515	800.000	0.038	0.129
-420.500	557.250	-0.166	0.398
-419.486	-200.000	-0.005	-0.062
-418.471	-94.425	-0.282	0.077
-417.457	800.000	0.042	0.142
-416.442	611.338	0.099	-0.247
-415.428	-111.586	0.220	0.044
-414.413	175.966	-0.047	0.068
-413.398	-200.000	-0.002	-0.016
-412.384	-33.487	-0.201	0.111
-411.369	800.000	-0.064	0.177
-410.355	93.273	-0.116	-0.130
-409.340	-7.207	0.157	-0.106
-408.325	-125.727	-0.158	0.024
-407.311	144.981	-0.155	0.207
-406.296	131.912	0.068	0.087
-405.282	52.506	-0.292	0.278
-404.267	377.440	0.046	-0.093
-403.252	41.947	0.058	0.053
-402.238	-200.000	0.007	-0.098
-401.223	-175.175	-0.311	-0.009
-400.209	72.574	-0.165	0.172
-399.194	116.340	0.200	-0.244
-398.179	-48.448	-0.190	-0.091
-397.165	198.614	0.083	0.126
-396.150	115.128	0.085	0.103
-395.136	5.391	0.218	-0.160
-394.121	-37.981	-0.122	0.064
-393.106	-135.706	0.209	0.025
-392.092	-200.000	0.025	-0.199
-391.077	-122.663	0.158	-0.026
-390.063	800.000	-0.048	0.137
-389.048	-134.517	0.172	-0.021
-388.033	-29.790	-0.232	-0.132
-387.019	325.777	-0.086	0.163
-386.004	115.139	-0.180	0.218
-384.990	-95.401	-0.090	0.024
-383.975	-200.000	-0.069	-0.336
-382.960	-71.253	-0.142	-0.053
-381.946	-155.161	-0.057	-0.004
-380.931	800.000	0.166	0.549
-379.917	-200.000	-0.031	0.408
-378.902	-89.722	-0.044	0.013
-377.888	-86.710	0.186	-0.057
-376.873	800.000	0.053	-0.188
-375.858	-134.724	0.322	0.039
-374.844	35.194	0.269	-0.235
-373.829	-2.269	0.232	0.162
-372.815	-132.803	0.290	0.037
-371.800	-164.709	0.305	0.014
-370.785	360.244	-0.115	-0.228
-369.771	-156.089	0.230	0.014
-368.756	255.251	-0.098	-0.167
-367.742	-22.409	0.248	0.149
-366.727	8.012	-0.196	-0.147
-365.712	800.000	0.048	0.178
-364.698	-60.589	0.091	-0.039
-363.683	800.000	0.047	-0.157
-362.669	-6.848	-0.113	0.077
-361.654	176.007	0.170	0.246
-360.639	-38.782	-0.141	0.074
-359.625	-130.758	0.310	-0.041
-358.610	668.233	0.116	-0.297
-357.596	13.879	0.268	0.208
-356.581	-24.916	0.178	0.105
-355.566	-9.492	-0.285	0.189
-354.552	-200.000	0.004	0.036
-353.537	-196.595	0.084	-0.001
-352.523	177.754	-0.101	-0.146
-351.508	45.392	-0.083	-0.076
-350.493	112.070	0.041	0.050
-349.479	800.000	0.101	0.283
-348.464	203.435	0.079	0.122
-347.450	-100.541	0.189	0.047
-346.435	-172.468	-0.195	0.006
-345.420	-200.000	0.042	-0.192
-344.406	-200.000	-0.047	-0.215
-343.391	800.000	0.057	-0.200
-342.377	57.097	0.154	0.149
-341.362	2.231	-0.198	-0.143
-340.348	-71.764	-0.262	-0.097
-339.333	-11.492	0.099	0.064
-338.318	-133.933	-0.127	0.016
-337.304	-144.798	-0.043	0.004
-336.289	11.514	0.141	0.107
-335.275	497.207	-0.133	-0.304
-334.260	264.985	0.132	-0.228
-333.245	-60.239	0.226	-0.095
-332.231	-26.149	-0.115	-0.067
-331.216	-200.000	-0.033	-0.261
-330.202	88.733	0.095	0.105
-329.187	203.609	-0.092	-0.142
-328.172	-200.000	-0.005	0.191
-327.158	-200.000	-0.010	0.223
-326.143	264.984	0.126	-0.218
-325.129	-51.228	0.113	0.052
-324.114	1.345	0.125	-0.089
-323.099	-24.491	0.230	-0.136
-322.085	-5.612	-0.244	0.166
-321.070	-200.000	-0.006	0.279
-320.056	800.000	0.059	-0.202
-319.041	0.259	-0.305	-0.216
-318.026	134.330	-0.111	-0.143
-317.012	190.466	-0.136	-0.203
-315.997	260.281	0.057	0.099
-314.983	189.005	0.205	-0.305
-313.968	-126.856	0.217	0.032
-312.953	4.832	0.340	0.249
-311.939	249.493	0.222	-0.373
-310.924	30.674	-0.245	0.208
-309.910	-99.191	-0.196	0.049
-308.895	-117.207	0.415	0.075
-307.880	-22.290	0.197	-0.119
-306.866	-24.006	-0.336	0.199
-305.851	-200.000	0.043	-0.192
-304.837	800.000	-0.072	-0.282
-303.822	-89.609	-0.235	-0.068
-302.807	-34.888	0.135	0.073
-301.793	46.961	-0.108	-0.100
-300.778	-96.173	0.096	0.025
-299.764	68.902	-0.091	-0.092
-298.749	800.000	-0.061	0.192
-297.735	531.518	-0.060	0.141
-296.720	-13.030	0.117	-0.075
-295.705	31.300	-0.113	-0.096
-294.691	-200.000	-0.014	0.149
-293.676	-9.749	0.086	0.057
-292.662	72.396	-0.136	-0.140
-291.647	-37.751	-0.068	0.036
-290.632	-200.000	-0.004	0.040
-289.618	174.029	0.052	0.074
-288.603	-140.504	-0.159	0.016
-287.589	278.483	0.052	0.091
-286.574	-110.317	0.046	0.010
-285.559	-200.000	0.048	0.216
-284.545	91.102	-0.185	0.206
-283.530	-158.567	-0.266	0.015
-282.516	800.000	0.080	0.277
-281.501	51.001	0.137	-0.129
-280.486	100.258	0.021	0.024
-279.472	-95.836	-0.097	0.026
-278.457	-145.727	0.043	-0.004
-277.443	800.000	0.087	-0.274
-276.428	369.461	0.035	0.070
-275.413	396.861	-0.051	0.105
-274.399	18.476	-0.413	0.327
-273.384	-200.000	0.000	0.008
-272.370	-200.000	-0.003	-0.029
-271.355	95.944	0.135	-0.153
-270.340	370.284	-0.145	-0.290
-269.326	-200.000	-0.078	-0.358
-268.311	-200.000	0.012	-0.250
-267.297	1.194	0.184	-0.131
-266.282	46.133	-0.137	-0.126
-265.267	-200.000	0.011	0.172
-264.253	577.810	-0.063	-0.153
-263.238	-124.951	0.401	-0.061
-262.224	800.000	0.192	0.530
-261.209	-30.550	0.011	-0.006
-260.195	222.775	-0.070	-0.111
-259.180	-87.429	-0.182	0.055
-258.165	-139.865	0.128	0.013
-257.151	708.748	-0.049	-0.129
-256.136	800.000	-0.036	0.105
-255.122	115.350	-0.110	0.134
-254.107	-200.000	-0.024	-0.387
-253.092	-25.324	-0.050	0.029
-252.078	-6.160	0.175	0.118
-251.063	126.301	-0.181	-0.227
-250.049	-133.341	-0.136	0.017
-249.034	-84.917	-0.445	-0.138
-248.019	-200.000	-0.017	0.249
-247.005	39.397	-0.205	0.181
-245.990	800.000	0.047	0.181
-244.976	-125.074	0.302	0.046
-243.961	-81.625	0.213	-0.069
-242.946	144.841	-0.080	-0.106
-241.932	-79.062	0.125	-0.042
-240.917	170.022	-0.058	0.082
-239.903	800.000	0.093	-0.344
-238.888	17.445	-0.148	-0.116
-237.873	34.143	-0.141	0.122
-236.859	-61.474	0.260	0.108
-235.844	800.000	-0.019	-0.057
-234.830	-200.000	0.009	-0.113
-233.815	68.401	0.092	0.093
-232.800	581.365	-0.072	0.174
-231.786	-169.107	-0.165	-0.006
-230.771	-29.780	-0.121	-0.069
-229.757	4.196	0.378	-0.274
-228.742	4.406	0.331	0.240
-227.727	-104.303	-0.365	0.084
-226.713	-175.213	0.371	0.010
-225.698	128.944	0.100	0.126
-224.684	-104.915	-0.429	0.097
-223.669	-83.958	-0.286	-0.090
-222.655	-200.000	-0.037	-0.315
-221.640	-200.000	-0.006	0.148
-220.625	-200.000	-0.014	-0.097
-219.611	205.767	-0.118	-0.181
-218.596	-89.906	0.155	0.045
-217.582	800.000	0.163	0.454
-216.567	-17.180	-0.221	0.138
-215.552	-87.531	0.177	-0.053
-214.538	17.456	0.321	0.252
-213.523	-78.388	-0.073	-0.025
-212.509	346.138	-0.047	0.092
-211.494	80.072	0.085	-0.091
-210.479	-42.018	0.146	-0.074
-209.465	800.000	-0.075	0.216
-208.450	-200.000	-0.001	0.070
-207.436	-159.824	-0.040	-0.002
-206.421	572.122	-0.042	-0.101
-205.406	199.186	-0.046	0.069
-204.392	512.470	-0.061	0.140
-203.377	5.338	0.157	-0.114
-202.363	767.771	0.043	-0.116
-201.348	37.113	-0.179	0.157
-200.333	-200.000	-0.013	0.104
-199.319	-46.486	-0.066	-0.032
-198.304	7.219	-0.302	-0.222
-197.290	-86.615	-0.085	-0.026
-196.275	-47.545	-0.285	-0.137
-195.260	800.000	0.088	0.297
-194.246	373.120	-0.140	-0.281
-193.231	-200.000	-0.003	-0.029
-192.217	175.548	-0.127	0.183
-191.202	238.649	-0.256	-0.421
-190.187	199.051	-0.100	-0.151
-189.173	-45.825	0.209	0.102
-188.158	89.525	0.082	-0.091
-187.144	52.468	-0.192	0.181
-186.129	-200.000	-0.007	-0.138
-185.114	105.607	0.093	0.108
-184.100	379.967	0.085	0.172
-183.085	6.754	-0.178	-0.131
-182.071	-200.000	-0.044	0.215
-181.056	228.696	0.131	0.211
-180.042	-52.360	0.239	0.109
-179.027	-173.661	-0.170	-0.005
-178.012	331.327	-0.146	-0.278
-176.998	304.431	-0.065	0.119
-175.983	17.718	-0.103	0.081
-174.969	36.061	-0.247	-0.215
-173.954	-187.313	0.075	-0.001
-172.939	254.818	0.101	0.171
-171.925	-82.020	-0.294	0.095
-170.910	-200.000	0.017	-0.123
-169.896	-94.640	0.224	0.060
-168.881	-200.000	0.110	-0.491
-167.866	-138.941	-0.086	0.009
-166.852	-200.000	0.035	-0.239
-165.837	28.277	0.046	-0.038
-164.823	64.398	0.041	-0.040
-163.808	225.036	0.080	0.128
-162.793	149.606	0.133	0.177
-161.779	-200.000	0.030	0.133
-160.764	-103.463	0.141	-0.033
-159.750	-83.757	0.104	-0.033
-158.735	-73.510	-0.032	-0.012
-157.720	-118.613	0.046	-0.008
-156.706	-91.165	0.193	-0.054
-155.691	-39.549	0.179	0.093
-154.677	800.000	-0.047	0.160
-153.662	-95.779	-0.228	0.060
-152.647	-200.000	0.059	-0.385
-151.633	5.785	0.109	-0.080
-150.618	-56.801	0.236	0.103
-149.604	800.000	-0.061	0.236
-148.589	219.119	-0.128	-0.202
-147.574	-200.000	0.032	-0.318
-146.560	-200.000	0.010	0.150
-145.545	30.636	-0.237	0.200
-144.531	-200.000	-0.028	-0.431
-143.516	-18.799	0.186	0.114
-142.502	207.791	0.009	-0.013
-141.487	-109.265	-0.233	-0.049
-140.472	352.280	0.058	-0.114
-139.458	-23.672	-0.086	0.051
-138.443	-200.000	-0.020	-0.174
-137.429	105.194	0.089	0.104
-136.414	322.554	-0.158	-0.297
-135.399	-200.000	0.002	-0.076
-134.385	-8.739	-0.185	0.123
-133.370	497.094	0.035	-0.080
-132.356	-141.963	-0.227	0.022
-131.341	-75.054	0.259	0.091
-130.326	-200.000	0.019	-0.140
-129.312	800.000	0.110	0.337
-128.297	-148.367	0.081	0.007
-127.283	-200.000	-0.031	-0.189
-126.268	501.463	0.117	0.265
-125.253	134.806	-0.135	0.172
-124.239	-127.834	-0.177	0.025
-123.224	-68.575	0.125	0.048
-122.210	268.212	0.094	-0.162
-121.195	776.080	-0.169	-0.455
-120.180	454.246	0.055	-0.121
-119.166	20.796	0.093	0.074
-118.151	-106.423	-0.340	0.075
-117.137	18.298	0.139	-0.110
-116.122	163.810	-0.231	0.320
-115.107	-200.000	-0.012	0.200
-114.093	-200.000	0.044	0.204
-113.078	-88.462	-0.353	0.104
-112.064	-125.790	-0.176	-0.026
-111.049	-50.483	-0.134	0.062
-110.034	-16.016	-0.400	0.251
-109.020	8.705	0.127	0.094
-108.005	506.722	-0.091	0.208
-106.991	388.545	-0.053	-0.108
-105.976	-119.914	0.208	0.035
-104.962	36.904	-0.287	-0.250
-103.947	-154.067	0.197	-0.013
-102.932	-43.499	-0.149	-0.074
-101.918	-159.202	0.096	-0.005
-100.903	252.147	-0.083	-0.140
-99.889	417.957	-0.090	-0.190
-98.874	93.028	0.280	-0.312
-97.859	-10.364	0.062	-0.040
-96.845	-145.690	0.279	0.025
-95.830	110.458	0.125	0.148
-94.816	98.438	0.107	0.122
-93.801	73.528	0.152	-0.156
-92.786	-200.000	-0.025	0.237
-91.772	-11.790	0.206	0.133
-90.757	-38.744	0.082	-0.043
-89.743	-111.379	-0.061	0.012
-88.728	288.829	-0.113	0.201
-87.713	-98.312	0.335	-0.085
-86.699	487.673	0.064	-0.144
-85.684	276.799	-0.079	-0.138
-84.670	-169.647	-0.469	-0.017
-83.655	800.000	-0.138	0.380
-82.640	-200.000	-0.022	0.162
-81.626	41.737	0.368	-0.328
-80.611	-200.000	-0.047	-0.236
-79.597	18.724	0.242	-0.191
-78.582	-98.760	-0.371	-0.093
-77.567	-200.000	-0.011	0.186
-76.553	-42.512	0.241	-0.121
-75.538	-48.127	0.196	0.093
-74.524	200.259	-0.093	0.140
-73.509	-68.535	0.255	-0.097
-72.494	-34.893	0.093	-0.050
-71.480	221.756	-0.115	0.181
-70.465	800.000	-0.034	0.120
-69.451	103.749	-0.251	-0.290
-68.436	37.778	0.098	-0.086
-67.422	800.000	0.112	0.330
-66.407	-200.000	0.006	0.108
-65.392	-119.988	0.390	0.066
-64.378	-68.121	-0.412	-0.158
-63.363	590.199	-0.039	-0.094
-62.349	-116.506	0.254	0.046
-61.334	55.993	-0.983	-0.938
-60.319	162.186	0.392	0.540
-59.305	782.976	-0.333	-0.897
-58.290	205.502	0.658	1.005
-57.276	-200.000	0.209	1.443
-56.261	-200.000	101.302	592.437
-55.246	568.358	1416.316	3382.389
-54.232	190.865	2601.164	3844.787
-53.217	117.627	2143.354	2592.613
-52.203	42.950	1593.902	1428.251
-51.188	34.501	1328.541	1140.192
-50.173	31.380	1286.677	1086.112
-49.159	53.874	1337.262	1262.648
-48.144	55.759	1353.817	1289.391
-47.130	34.530	1311.080	1125.195
-46.115	31.143	1292.989	1089.886
-45.100	30.783	1288.332	1083.818
-44.086	30.887	1285.769	1082.224
-43.071	30.826	1283.347	1079.790
-42.057	30.762	1281.604	1077.914
-41.042	30.806	1279.957	1076.735
-40.027	30.877	1278.067	1075.512
-39.013	30.845	1276.463	1073.938
-37.998	30.968	1274.443	1072.904
-36.984	30.956	1272.897	1071.490
-35.969	31.001	1271.004	1070.116
-34.954	30.890	1269.721	1068.356
-33.940	30.976	1268.553	1067.825
-32.925	30.930	1267.367	1066.519
-31.911	31.003	1265.618	1065.418
-30.896	31.083	1264.737	1065.096
-29.881	31.135	1262.577	1063.531
-28.867	31.077	1261.441	1062.199
-27.852	31.037	1260.229	1060.907
-26.838	31.118	1258.543	1059.909
-25.823	31.015	1257.617	1058.500
-24.809	30.949	1256.180	1056.874
-23.794	31.047	1254.754	1056.186
-22.779	31.034	1253.567	1055.071
-21.765	31.003	1252.429	1053.900
-20.750	30.992	1250.982	1052.578
-19.736	30.943	1249.425	1050.950
-18.721	30.840	1248.325	1049.401
-17.706	30.800	1247.497	1048.438
-16.692	30.852	1246.422	1047.789
-15.677	30.890	1244.996	1046.761
-14.663	30.856	1243.491	1045.263
-13.648	30.922	1242.774	1044.990
-12.633	30.837	1241.887	1043.727
-11.619	30.917	1240.861	1043.268
-10.604	30.930	1240.322	1042.847
-9.590	30.857	1239.606	1041.793
-8.575	30.839	1238.503	1040.728
-7.560	30.832	1237.620	1039.906
-6.546	30.792	1236.439	1038.650
-5.531	30.925	1235.505	1038.563
-4.517	30.856	1234.680	1037.446
-3.502	30.897	1233.987	1037.050
-2.487	30.958	1233.095	1036.596
-1.473	30.930	1228.737	1032.735
-0.458	29.365	1214.030	1011.760
0.556	24.849	1197.195	975.651
1.571	21.132	1203.061	959.940
2.586	20.296	1217.616	966.809
3.600	19.846	1206.652	955.538
4.615	15.205	1136.678	875.840
5.629	7.951	1064.953	784.864
6.644	4.766	1046.275	755.591
7.659	4.564	1043.380	752.454
8.673	4.609	1042.667	752.090
9.688	4.531	1041.903	751.094
10.702	4.817	1038.914	750.253
11.717	8.991	1044.824	774.646
12.731	15.732	1054.678	814.635
13.746	18.603	1057.387	830.577
14.761	17.978	1056.288	826.618
15.775	16.937	1054.127	819.823
16.790	15.911	1052.173	813.278
17.804	15.204	1050.608	808.587
18.819	14.827	1049.621	805.939
19.834	14.509	1048.794	803.700
20.848	14.305	1047.839	801.914
21.863	14.123	1046.524	799.964
22.877	14.080	1046.207	799.441
23.892	14.065	1044.946	798.337
24.907	13.971	1044.787	797.691
25.921	14.118	1043.187	797.102
26.936	14.034	1042.619	796.197
27.950	14.055	1041.366	795.269
28.965	14.090	1039.664	794.069
29.980	14.238	1037.583	793.113
30.994	14.291	1037.038	792.879
32.009	14.353	1036.151	792.425
33.023	14.326	1034.851	791.235
34.038	14.232	1033.661	789.809
35.053	14.139	1033.075	788.849
36.067	14.076	1032.337	787.918
37.082	14.177	1031.311	787.544
38.096	14.139	1030.964	787.028
39.111	14.256	1029.559	786.438
40.126	14.163	1028.633	785.222
41.140	13.991	1027.491	783.472
42.155	13.884	1026.140	781.865
43.169	13.829	1025.506	781.056
44.184	13.917	1024.346	780.519
45.199	13.874	1022.980	779.204
46.213	13.976	1021.812	778.725
47.228	14.075	1021.101	778.578
48.242	14.116	1020.166	777.990
49.257	14.201	1018.718	777.213
50.271	14.179	1017.983	776.478
51.286	14.171	1017.331	775.875
52.301	14.145	1016.519	775.069
53.315	14.063	1015.696	773.989
54.330	14.052	1014.244	772.764
55.344	13.993	1013.228	771.645
56.359	14.052	1012.508	771.305
57.374	14.034	1011.386	770.298
58.388	13.956	1010.961	769.545
59.403	13.966	1010.272	768.996
60.417	13.874	1009.619	768.006
61.432	13.860	1008.945	767.362
62.447	13.961	1007.696	766.812
63.461	13.764	1007.229	765.478
64.476	13.873	1005.956	764.945
65.490	13.874	1005.286	764.372
66.505	13.809	1004.232	763.206
67.520	13.839	1004.031	763.125
68.534	13.825	1003.418	762.525
69.549	13.899	1002.478	762.081
70.563	13.862	1002.209	761.643
71.578	13.846	1000.816	760.442
72.593	13.814	1000.256	759.801
73.607	13.694	999.597	758.688
74.622	13.715	999.399	758.566
75.636	13.689	998.423	757.639
76.651	13.794	997.382	757.262
77.666	13.721	996.981	756.554
78.680	13.831	996.062	756.292
79.695	13.984	995.273	756.325
80.709	13.791	995.450	755.513
81.724	13.875	994.559	755.153
82.739	14.021	993.741	755.126
83.753	14.091	993.259	755.010
84.768	14.156	992.470	754.641
85.782	14.190	991.304	753.841
86.797	14.308	990.688	753.837
87.812	14.132	989.579	752.132
88.826	14.219	988.769	751.846
89.841	14.214	987.608	750.871
90.855	14.142	986.952	749.983
91.870	14.194	986.572	749.862
92.884	14.319	985.687	749.685
93.899	14.297	984.490	748.609
94.914	14.457	983.810	748.745
95.928	14.498	982.803	748.098
96.943	14.267	982.224	746.556
97.957	14.183	981.333	745.433
98.972	14.110	980.687	744.552
99.987	14.206	979.548	744.049
101.001	14.249	978.527	743.400
102.016	14.226	977.690	742.594
103.030	14.304	976.773	742.182
104.045	14.219	976.310	741.384
105.060	14.190	975.077	740.253
106.074	14.010	974.531	738.975
107.089	13.970	973.081	737.631
108.103	14.017	972.210	737.116
109.118	13.899	971.846	736.248
110.133	13.928	971.089	735.738
111.147	13.991	970.458	735.474
112.162	14.051	969.445	734.907
113.176	14.029	968.742	734.212
114.191	14.063	968.077	733.793
115.206	14.129	967.296	733.429
116.220	13.950	966.586	732.037
117.235	13.974	965.405	731.181
118.249	14.066	964.523	730.856
119.264	14.043	963.785	730.130
120.279	13.986	962.804	729.071
121.293	13.947	962.101	728.303
122.308	13.814	961.799	727.429
123.322	13.984	960.311	726.983
124.337	13.855	959.520	725.755
125.352	13.935	958.139	724.994
126.366	13.971	957.031	724.251
127.381	13.973	955.989	723.408
128.395	13.938	955.578	722.877
129.410	13.966	954.826	722.367
130.424	14.004	953.888	721.759
131.439	14.116	953.065	721.558
132.454	14.073	952.531	720.903
133.468	14.060	951.966	720.356
134.483	14.092	950.670	719.452
135.497	14.117	949.960	718.959
136.512	14.119	949.234	718.354
137.527	14.103	948.375	717.569
138.541	14.157	947.497	717.076
139.556	14.169	946.735	716.486
140.570	14.229	946.200	716.277
141.585	14.241	945.491	715.727
142.600	14.286	944.818	715.350
143.614	14.421	943.962	715.218
144.629	14.259	943.437	714.062
145.643	14.371	942.015	713.400
146.658	14.336	941.069	712.474
147.673	14.161	940.168	710.979
148.687	14.228	939.484	710.683
149.702	14.178	938.464	709.637
150.716	14.118	937.835	708.844
151.731	14.298	936.518	708.552
152.746	14.134	936.322	707.644
153.760	14.352	935.530	707.909
154.775	14.409	935.073	707.742
155.789	14.326	934.754	707.085
156.804	14.396	933.681	706.507
157.819	14.341	933.095	705.766
158.833	14.468	932.458	705.763
159.848	14.479	931.813	705.257
160.862	14.365	930.711	703.879
161.877	14.181	930.009	702.509
162.892	14.317	928.749	702.070
163.906	14.158	928.051	700.809
164.921	14.184	927.069	700.114
165.935	14.155	926.404	699.427
166.950	14.334	925.422	699.379
167.964	14.424	924.499	698.998
168.979	14.328	923.559	697.819
169.994	14.378	923.138	697.651
171.008	14.415	922.567	697.311
172.023	14.383	921.897	696.612
173.037	14.484	921.150	696.404
174.052	14.449	920.597	695.782
175.067	14.271	919.709	694.303
176.081	14.382	919.109	694.255
177.096	14.343	918.564	693.616
178.110	14.396	918.082	693.412
179.125	14.372	917.577	692.870
180.140	14.401	916.961	692.463
181.154	14.405	916.241	691.877
182.169	14.574	915.737	692.135
183.183	14.572	915.575	691.942
184.198	14.660	914.568	691.488
185.213	14.683	913.681	690.851
186.227	14.601	913.176	690.065
187.242	14.587	912.996	689.814
188.256	14.813	912.050	689.969
189.271	14.808	911.091	689.161
190.286	14.602	910.045	687.461
191.300	14.357	909.604	686.060
192.315	14.378	908.952	685.595
193.329	14.270	908.830	684.996
194.344	14.396	908.085	684.891
195.359	14.630	907.178	685.109
196.373	14.663	906.651	684.784
197.388	14.708	906.150	684.531
198.402	14.792	906.318	684.941
199.417	14.795	905.365	684.171
200.432	15.067	904.780	684.783
201.446	15.060	904.337	684.356
202.461	14.979	903.914	683.645
203.475	15.033	902.956	683.079
204.490	14.817	902.226	681.586
205.504	14.770	901.756	680.982
206.519	14.804	900.854	680.377
207.534	14.886	900.495	680.382
208.548	14.750	899.873	679.295
209.563	14.882	899.253	679.307
210.577	14.844	898.765	678.724
211.592	14.867	897.919	678.117
212.607	14.950	897.107	677.780
213.621	14.934	896.614	677.282
214.636	15.018	895.459	676.690
215.650	15.122	894.726	676.498
216.665	15.060	894.014	675.647
217.680	15.218	893.409	675.767
218.694	15.179	892.808	675.098
219.709	15.032	892.481	674.198
220.723	15.089	891.544	673.660
221.738	15.134	890.990	673.364
222.753	15.146	890.407	672.908
223.767	15.388	889.690	673.280
224.782	15.223	889.372	672.316
225.796	15.205	889.363	672.181
226.811	15.280	888.207	671.547
227.826	15.154	887.742	670.630
228.840	15.230	886.866	670.215
229.855	15.246	885.804	669.415
230.869	15.162	885.263	668.613
231.884	15.152	884.338	667.815
232.899	15.126	883.647	667.132
233.913	15.081	883.250	666.591
234.928	14.970	882.815	665.765
235.942	15.033	881.889	665.257
236.957	15.190	881.325	665.396
237.972	15.154	880.990	664.943
238.986	15.080	880.091	663.910
240.001	15.201	879.638	663.990
241.015	15.225	878.766	663.366
242.030	15.336	878.318	663.410
243.045	15.288	877.876	662.828
244.059	15.180	877.474	662.039
245.074	15.215	876.550	661.422
246.088	15.434	875.838	661.689
247.103	15.416	875.403	661.229
248.117	15.472	875.251	661.278
249.132	15.553	874.684	661.109
250.147	15.720	873.782	661.025
251.161	15.510	873.638	660.032
252.176	15.775	872.482	660.140
253.190	15.738	872.039	659.603
254.205	15.749	871.861	659.454
255.220	15.918	870.554	659.069
256.234	15.731	870.105	657.936
257.249	15.760	869.443	657.493
258.263	15.796	868.429	656.807
259.278	15.766	867.719	656.095
260.293	15.840	867.885	656.451
261.307	15.970	867.184	656.371
262.322	15.799	866.299	654.977
263.336	16.060	865.931	655.657
264.351	15.953	864.765	654.300
265.366	16.089	864.423	654.509
266.380	15.989	863.983	653.732
267.395	15.951	863.084	652.846
268.409	15.899	862.612	652.231
269.424	15.847	861.698	651.280
270.439	15.854	861.111	650.807
271.453	15.907	860.213	650.275
272.468	15.994	859.732	650.190
273.482	15.937	859.385	649.649
274.497	15.906	858.566	648.854
275.512	15.929	857.924	648.397
276.526	15.968	857.792	648.393
277.541	15.993	857.189	647.977
278.555	16.050	856.482	647.603
279.570	16.080	856.314	647.532
280.585	16.164	855.105	646.883
281.599	16.119	854.450	646.160
282.614	16.146	853.414	645.423
283.628	16.102	852.904	644.810
284.643	16.189	852.442	644.735
285.657	16.127	851.957	644.074
286.672	16.131	851.344	643.571
287.687	16.236	850.615	643.362
288.701	16.162	850.063	642.606
289.716	16.170	849.623	642.248
290.730	16.029	849.593	641.629
291.745	16.280	848.706	641.858
292.760	16.240	847.882	641.028
293.774	16.295	847.640	640.997
294.789	16.202	846.927	640.046
295.803	16.179	846.268	639.404
296.818	16.144	845.684	638.776
297.833	16.226	844.583	638.198
298.847	16.227	844.373	637.985
299.862	16.282	843.580	637.537
300.876	16.413	843.219	637.702
301.891	16.334	842.992	637.177
302.906	16.552	842.178	637.327
303.920	16.591	841.706	637.059
304.935	16.609	841.395	636.838
305.949	16.505	840.532	635.736
306.964	16.554	839.731	635.258
307.979	16.427	839.665	634.676
308.993	16.552	839.077	634.644
310.008	16.696	837.748	634.122
311.022	16.477	837.596	633.130
312.037	16.430	837.198	632.596
313.052	16.479	836.234	631.997
314.066	16.391	835.709	631.215
315.081	16.243	835.608	630.528
316.095	16.436	834.531	630.381
317.110	16.442	834.152	630.061
318.125	16.510	833.437	629.721
319.139	16.448	833.336	629.355
320.154	16.387	832.929	628.765
321.168	16.561	831.759	628.473
322.183	16.502	831.397	627.926
323.197	16.637	831.229	628.245
324.212	16.595	830.238	627.284
325.227	16.500	829.977	626.680
326.241	16.678	829.129	626.641
327.256	16.490	828.905	625.720
328.270	16.458	828.670	625.371
329.285	16.522	827.427	624.614
330.300	16.510	827.204	624.344
331.314	16.646	826.658	624.379
332.329	16.786	826.072	624.398
333.343	16.650	826.121	623.880
334.358	16.812	825.242	623.755
335.373	16.775	825.074	623.438
336.387	16.799	824.778	623.248
337.402	16.858	824.400	623.124
338.416	16.991	823.809	623.111
339.431	16.926	823.661	622.705
340.446	16.877	823.289	622.187
341.460	17.051	822.978	622.538
342.475	17.117	822.496	622.359
343.489	17.064	822.542	622.145
344.504	17.036	822.108	621.656
345.519	17.161	821.437	621.554
346.533	17.218	820.542	621.028
347.548	16.960	820.003	619.623
348.562	16.878	819.466	618.865
349.577	16.864	818.896	618.329
350.592	16.953	818.186	618.060
351.606	16.929	817.447	617.362
352.621	16.880	817.097	616.863
353.635	17.049	816.419	616.913
354.650	17.060	815.579	616.262
355.665	17.066	815.303	616.023
356.679	17.207	814.438	615.823
357.694	17.011	814.237	614.907
358.708	17.060	813.703	614.627
359.723	17.044	812.835	613.861
360.738	17.207	812.297	613.989
361.752	17.190	811.763	613.470
362.767	17.212	811.433	613.243
363.781	17.249	810.581	612.677
364.796	17.361	810.355	612.858
365.810	17.553	809.710	613.007
366.825	17.412	809.439	612.239
367.840	17.355	809.065	611.698
368.854	17.340	808.663	611.286
369.869	17.465	808.148	611.290
370.883	17.451	807.579	610.759
371.898	17.437	807.390	610.508
372.913	17.618	806.861	610.706
373.927	17.561	806.472	610.154
374.942	17.567	806.043	609.795
375.956	17.806	805.272	610.013
376.971	17.643	805.357	609.441
377.986	17.705	805.032	609.362
379.000	17.718	804.223	608.742
380.015	17.729	803.611	608.262
381.029	17.597	803.487	607.645
382.044	17.660	802.679	607.203
383.059	17.792	802.088	607.175
384.073	17.775	801.386	606.530
385.088	17.638	800.769	605.521
386.102	17.533	800.460	604.861
387.117	17.593	799.803	604.524
388.132	17.715	799.199	604.445
389.146	17.601	798.510	603.468
390.161	17.691	798.487	603.715
391.175	17.832	797.624	603.509
392.190	17.747	797.246	602.868
393.205	17.586	796.974	602.041
394.219	17.580	796.565	601.658
395.234	17.576	796.061	601.211
396.248	17.748	795.391	601.258
397.263	17.607	794.947	600.371
398.278	17.799	794.520	600.671
399.292	17.584	794.029	599.491
400.307	17.663	794.001	599.695
401.321	17.580	793.406	598.899
402.336	17.608	793.237	598.819
403.350	17.734	792.625	598.747
404.365	17.872	792.031	598.727
405.380	17.923	791.625	598.548
406.394	17.877	791.435	598.187
407.409	17.949	790.796	597.904
408.423	17.895	790.464	597.412
409.438	18.140	790.052	597.906
410.453	18.126	789.910	597.695
411.467	18.195	789.225	597.364
412.482	18.089	788.918	596.711
413.496	18.195	788.557	596.755
414.511	18.076	788.589	596.309
415.526	18.128	787.881	595.902
416.540	18.160	787.214	595.459
417.555	18.245	786.673	595.292
418.569	18.345	785.826	594.945
419.584	18.209	785.797	594.399
420.599	18.314	785.448	594.445
421.613	157.503	1370.173	1797.654
422.628	136.133	1455.365	1797.773
