DTS Sentinel unit serial number:	SN413079Multiplexer serial number:	ORYXHardware model number:	OX4-SRSoftware version number:	ORYX F/W v4.00 Oryx Data Collector v3.7.2.0data status	okinstallation	princeton_trtdifferential loss correction	single-endedforward channel	channel 1reverse channel	N/Adate	2019/09/18time	18:46:35forward acquisition time	60.00reverse acquisition time	0.00gamma	496.2192k internal	0.2302k external	0.2302temperature offset calibration	1.0018default loss term (dB/km)	0.3790temperature slope calibration	1.0000multiplexer offset coefficient	1.0000multiplexer slope coefficient	1.0000fibre end	0.00T internal ref (°C)	37.37T ext. ref 1 (°C)	0.94T ext. ref 2 (°C)	27.64length (m)	temperature (°C)	Stokes	anti-Stokes-747.200	35.894	0.091	0.081
-746.185	286.805	0.040	0.073
-745.171	-62.331	0.146	0.062
-744.156	800.000	-0.077	0.218
-743.142	2.920	0.104	0.077
-742.127	-200.000	-0.020	0.318
-741.112	-200.000	-0.012	-0.082
-740.098	-110.356	0.215	0.046
-739.083	-62.764	-0.144	-0.061
-738.069	0.184	-0.248	0.181
-737.054	-200.000	-0.026	-0.182
-736.039	77.833	-0.136	0.148
-735.025	-116.711	0.339	0.063
-734.010	-54.157	-0.342	-0.158
-732.996	800.000	0.098	-0.341
-731.981	381.802	-0.143	-0.300
-730.966	141.379	0.096	0.130
-729.952	-137.486	-0.528	0.061
-728.937	-116.030	-0.125	0.024
-727.923	-165.871	-0.244	0.011
-726.908	366.709	-0.130	-0.266
-725.894	-103.049	0.181	-0.044
-724.879	-24.449	-0.144	-0.088
-723.864	-200.000	0.020	-0.090
-722.850	87.850	0.094	-0.106
-721.835	800.000	0.045	0.173
-720.821	95.393	0.160	-0.186
-719.806	-16.478	-0.010	0.006
-718.791	-200.000	0.007	-0.065
-717.777	-191.435	-0.578	-0.006
-716.762	9.428	0.069	-0.053
-715.748	-200.000	-0.019	0.203
-714.733	38.777	-0.023	0.021
-713.718	-118.930	0.306	-0.055
-712.704	-30.231	0.026	-0.015
-711.689	662.572	0.082	-0.216
-710.675	-187.367	0.291	0.004
-709.660	-200.000	-0.017	-0.129
-708.645	-0.585	0.200	-0.145
-707.631	-168.668	-0.269	-0.010
-706.616	-200.000	0.048	0.302
-705.602	-20.654	-0.412	0.257
-704.587	752.871	-0.106	0.291
-703.572	73.496	0.156	0.166
-702.558	-75.670	0.163	0.059
-701.543	-13.029	-0.100	-0.066
-700.529	-114.758	-0.313	-0.061
-699.514	-17.059	0.104	0.067
-698.499	-200.000	-0.008	0.069
-697.485	-200.000	0.031	0.179
-696.470	-200.000	-0.016	0.258
-695.456	62.207	-0.154	0.157
-694.441	-92.648	-0.305	-0.087
-693.426	49.720	0.055	0.052
-692.412	-186.172	0.312	-0.005
-691.397	-17.374	-0.224	0.143
-690.383	-53.410	-0.241	0.112
-689.368	-171.509	-0.330	-0.011
-688.354	23.696	0.118	0.099
-687.339	138.495	0.064	-0.085
-686.324	-64.400	0.332	0.137
-685.310	-133.021	-0.260	0.034
-684.295	-200.000	-0.005	-0.230
-683.281	148.317	0.049	-0.067
-682.266	-200.000	-0.001	0.112
-681.251	-142.279	0.303	0.030
-680.237	150.325	0.050	-0.068
-679.222	7.943	0.091	-0.070
-678.208	-48.240	-0.308	0.151
-677.193	254.091	-0.153	0.266
-676.178	-200.000	0.019	0.248
-675.164	-119.114	-0.370	-0.066
-674.149	-200.000	0.002	0.193
-673.135	-117.154	0.214	0.040
-672.120	64.832	0.162	-0.166
-671.105	39.706	0.138	0.126
-670.091	-36.726	-0.165	-0.090
-669.076	69.725	0.078	-0.081
-668.062	492.172	-0.132	-0.306
-667.047	-200.000	-0.031	0.275
-666.032	-200.000	0.061	0.335
-665.018	-1.873	-0.135	-0.096
-664.003	-130.955	0.265	0.036
-662.989	-182.934	-0.318	0.006
-661.974	-200.000	-0.007	0.309
-660.959	90.592	-0.110	-0.125
-659.945	-200.000	0.018	0.083
-658.930	74.305	-0.176	-0.188
-657.916	147.831	-0.053	0.073
-656.901	-69.135	-0.209	0.082
-655.886	-65.717	-0.103	0.042
-654.872	-200.000	-0.038	-0.311
-653.857	423.702	-0.099	0.217
-652.843	-1.837	-0.305	-0.218
-651.828	99.774	0.149	0.175
-650.814	-61.099	0.022	-0.010
-649.799	28.196	-0.164	0.141
-648.784	-200.000	0.091	-0.529
-647.770	74.607	0.228	-0.243
-646.755	-200.000	0.034	0.257
-645.741	524.643	-0.158	-0.377
-644.726	96.417	0.206	-0.239
-643.711	27.295	0.108	0.092
-642.697	115.955	-0.073	-0.091
-641.682	22.210	0.185	-0.153
-640.668	-99.791	0.033	-0.008
-639.653	-176.248	0.118	-0.003
-638.638	-69.046	-0.192	-0.075
-637.624	-158.651	0.175	0.010
-636.609	800.000	0.093	-0.292
-635.595	-44.334	-0.213	0.108
-634.580	79.547	0.096	-0.105
-633.565	61.779	0.028	-0.028
-632.551	27.059	0.192	0.163
-631.536	-93.679	0.082	-0.023
-630.522	800.000	0.127	-0.384
-629.507	-150.277	0.484	-0.038
-628.492	420.465	-0.098	0.213
-627.478	-67.709	0.294	0.117
-626.463	-55.995	0.113	0.051
-625.449	-200.000	-0.010	0.106
-624.434	-90.335	-0.111	0.033
-623.419	800.000	0.125	-0.366
-622.405	-0.737	-0.106	0.076
-621.390	98.537	0.222	-0.259
-620.376	87.330	-0.211	-0.237
-619.361	-108.649	0.320	-0.070
-618.346	61.149	-0.072	-0.072
-617.332	-105.144	-0.190	0.044
-616.317	36.385	0.100	0.090
-615.303	-189.318	-0.172	0.002
-614.288	-34.216	-0.164	0.091
-613.273	2.853	-0.186	0.137
-612.259	-61.366	-0.201	0.086
-611.244	33.085	0.071	0.063
-610.230	-200.000	-0.038	-0.341
-609.215	-68.023	0.225	-0.089
-608.201	535.191	0.184	-0.443
-607.186	54.190	0.174	-0.170
-606.171	5.404	-0.169	-0.127
-605.157	-97.536	0.124	0.033
-604.142	-200.000	-0.002	-0.072
-603.128	800.000	-0.091	0.280
-602.113	430.578	-0.037	-0.080
-601.098	-61.837	-0.594	-0.252
-600.084	81.772	-0.066	-0.073
-599.069	438.828	-0.079	-0.175
-598.055	800.000	-0.054	-0.182
-597.040	72.589	-0.167	0.177
-596.025	-200.000	0.067	0.432
-595.011	800.000	-0.025	0.104
-593.996	-35.126	0.225	0.124
-592.982	-200.000	0.038	-0.205
-591.967	118.131	0.194	-0.242
-590.952	-47.798	-0.291	0.143
-589.938	-112.118	-0.384	-0.078
-588.923	188.587	-0.159	0.241
-587.909	228.985	0.130	-0.215
-586.894	740.171	-0.029	0.080
-585.879	77.964	-0.179	0.194
-584.865	105.205	0.165	-0.197
-583.850	-97.657	-0.206	-0.054
-582.836	-200.000	-0.003	-0.221
-581.821	-73.757	-0.295	-0.109
-580.806	-20.390	-0.046	0.029
-579.792	-35.589	0.221	-0.121
-578.777	155.170	-0.038	0.053
-577.763	-200.000	0.042	0.305
-576.748	192.646	-0.005	-0.008
-575.733	160.145	0.089	-0.125
-574.719	800.000	-0.085	0.353
-573.704	593.654	-0.069	-0.172
-572.690	-101.713	-0.140	0.034
-571.675	-22.162	0.197	-0.121
-570.661	-36.685	-0.218	0.119
-569.646	-200.000	-0.014	0.091
-568.631	-183.080	0.084	-0.002
-567.617	-17.846	-0.249	-0.158
-566.602	-71.724	0.314	0.119
-565.588	-200.000	0.009	-0.401
-564.573	-34.394	0.210	-0.117
-563.558	183.809	-0.087	-0.130
-562.544	-200.000	-0.050	0.235
-561.529	-144.246	-0.142	-0.013
-560.515	-56.793	-0.231	0.103
-559.500	-114.109	-0.164	-0.032
-558.485	103.300	-0.194	0.230
-557.471	94.589	0.021	0.025
-556.456	800.000	-0.073	-0.320
-555.442	-40.867	0.329	0.172
-554.427	359.902	0.067	-0.136
-553.412	800.000	0.058	0.195
-552.398	499.688	-0.066	-0.153
-551.383	-113.240	0.189	-0.038
-550.369	-200.000	0.021	0.220
-549.354	152.757	-0.101	-0.140
-548.339	-57.572	-0.204	-0.090
-547.325	56.836	0.200	-0.197
-546.310	22.129	-0.074	-0.061
-545.296	-28.614	0.282	-0.164
-544.281	800.000	0.014	-0.051
-543.266	-42.040	0.181	0.094
-542.252	-88.770	-0.096	0.029
-541.237	-200.000	-0.001	-0.217
-540.223	-0.778	-0.208	-0.149
-539.208	-200.000	-0.001	-0.218
-538.193	-157.921	0.176	0.011
-537.179	-19.585	-0.248	0.155
-536.164	-11.564	-0.111	-0.074
-535.150	-200.000	-0.025	-0.218
-534.135	-172.012	0.072	0.002
-533.121	419.735	-0.076	-0.164
-532.106	379.885	0.095	-0.198
-531.091	414.903	-0.200	0.431
-530.077	-118.013	-0.192	0.035
-529.062	-65.513	-0.102	-0.041
-528.048	-78.252	-0.168	0.058
-527.033	-32.146	0.050	0.028
-526.018	-200.000	0.010	0.382
-525.004	800.000	-0.121	0.459
-523.989	-142.544	-0.165	-0.016
-522.975	85.262	0.123	-0.136
-521.960	424.939	0.091	-0.198
-520.945	161.839	-0.149	0.211
-519.931	-48.878	0.163	0.079
-518.916	-200.000	-0.033	-0.372
-517.902	-28.104	-0.085	-0.050
-516.887	50.453	0.067	-0.064
-515.872	-81.307	0.380	0.126
-514.858	126.118	0.244	0.312
-513.843	800.000	0.069	0.253
-512.829	319.897	0.083	0.159
-511.814	-12.447	-0.021	-0.014
-510.799	-200.000	0.037	0.203
-509.785	-65.972	-0.056	-0.023
-508.770	-85.651	-0.177	-0.056
-507.756	-76.277	0.182	-0.065
-506.741	-100.629	0.312	-0.078
-505.726	800.000	-0.048	-0.176
-504.712	-200.000	0.040	-0.195
-503.697	-27.658	0.204	0.120
-502.683	73.016	0.221	0.233
-501.668	75.211	-0.163	-0.173
-500.653	-15.348	0.214	-0.138
-499.639	-200.000	-0.054	0.241
-498.624	-62.054	0.215	0.091
-497.610	-137.452	0.218	0.025
-496.595	357.074	-0.034	0.068
-495.581	-172.010	0.430	0.014
-494.566	-200.000	0.001	-0.140
-493.551	398.106	-0.119	0.252
-492.537	127.067	0.191	0.244
-491.522	-197.895	-0.315	0.002
-490.508	-134.734	0.136	0.017
-489.493	-83.217	-0.126	-0.041
-488.478	800.000	-0.086	-0.352
-487.464	714.026	0.122	-0.326
-486.449	610.110	0.136	0.343
-485.435	-80.929	0.151	0.050
-484.420	800.000	-0.089	0.352
-483.405	-200.000	-0.007	0.049
-482.391	800.000	0.034	-0.147
-481.376	-54.743	0.197	0.090
-480.362	-200.000	-0.012	-0.141
-479.347	-10.029	0.436	0.292
-478.332	71.627	-0.400	0.419
-477.318	-191.533	-0.232	0.002
-476.303	800.000	0.044	0.139
-475.289	800.000	0.043	0.122
-474.274	350.514	-0.078	0.155
-473.259	-137.461	0.330	0.038
-472.245	-171.961	-0.068	0.002
-471.230	-48.128	-0.216	0.105
-470.216	75.710	-0.092	0.098
-469.201	-81.643	-0.281	0.093
-468.186	54.360	-0.095	-0.092
-467.172	-200.000	0.044	-0.201
-466.157	391.390	0.021	-0.044
-465.143	-120.463	0.419	0.072
-464.128	23.715	0.143	-0.118
-463.113	421.432	-0.180	-0.389
-462.099	-51.371	0.205	0.097
-461.084	-69.677	0.186	-0.072
-460.070	115.715	0.288	0.355
-459.055	-125.693	0.434	-0.066
-458.040	-82.756	0.115	-0.038
-457.026	168.394	-0.178	0.255
-456.011	60.924	-0.234	-0.234
-454.997	-76.509	0.370	-0.131
-453.982	262.300	-0.078	-0.136
-452.968	588.353	0.138	0.342
-451.953	-160.441	-0.102	-0.005
-450.938	739.888	-0.161	0.436
-449.924	11.850	-0.252	-0.195
-448.909	-46.723	-0.231	0.114
-447.895	63.639	-0.136	0.137
-446.880	-55.355	0.304	-0.137
-445.865	715.176	-0.067	-0.179
-444.851	39.807	-0.155	-0.140
-443.836	-200.000	-0.026	0.176
-442.822	800.000	-0.023	0.093
-441.807	25.459	0.228	-0.191
-440.792	572.470	0.097	0.237
-439.778	800.000	0.059	-0.194
-438.763	144.771	0.194	-0.261
-437.749	800.000	-0.103	-0.375
-436.734	226.193	-0.139	0.227
-435.719	388.843	0.074	-0.155
-434.705	234.919	-0.153	-0.255
-433.690	-127.945	-0.214	0.031
-432.676	-58.233	-0.125	0.055
-431.661	-200.000	-0.024	-0.240
-430.646	578.120	-0.107	-0.264
-429.632	569.112	0.068	0.167
-428.617	208.145	0.126	0.199
-427.603	-200.000	-0.012	-0.173
-426.588	290.301	0.092	0.168
-425.573	-47.122	-0.127	-0.062
-424.559	-73.658	-0.126	0.046
-423.544	-49.805	0.322	0.154
-422.530	131.516	-0.080	0.104
-421.515	800.000	-0.071	-0.219
-420.500	-200.000	0.014	0.099
-419.486	-70.444	-0.231	0.088
-418.471	22.516	0.015	0.012
-417.457	-138.141	0.189	-0.021
-416.442	336.226	-0.154	-0.301
-415.428	-200.000	0.005	-0.228
-414.413	-122.202	-0.217	-0.036
-413.398	800.000	-0.016	0.052
-412.384	348.567	0.071	0.140
-411.369	-96.046	-0.291	-0.078
-410.355	800.000	-0.106	-0.357
-409.340	40.693	0.166	-0.151
-408.325	-7.722	-0.181	0.123
-407.311	-85.084	0.055	-0.017
-406.296	-200.000	0.023	-0.143
-405.282	800.000	-0.085	0.339
-404.267	447.717	-0.133	-0.293
-403.252	8.046	0.191	-0.144
-402.238	65.305	0.105	-0.107
-401.223	101.137	0.105	-0.123
-400.209	800.000	0.047	-0.159
-399.194	-90.516	-0.035	0.010
-398.179	800.000	0.065	-0.221
-397.165	415.185	-0.090	0.192
-396.150	-140.415	0.158	0.017
-395.136	11.121	0.251	0.193
-394.121	251.817	-0.126	-0.215
-393.106	41.969	0.154	-0.140
-392.092	800.000	0.036	-0.152
-391.077	-100.383	0.145	0.036
-390.063	800.000	0.057	0.242
-389.048	285.414	-0.131	0.238
-388.033	-164.012	-0.357	-0.017
-387.019	-200.000	0.041	-0.235
-386.004	800.000	-0.019	0.081
-384.990	36.214	0.134	0.118
-383.975	800.000	-0.050	0.187
-382.960	260.705	0.190	0.330
-381.946	-56.067	-0.106	-0.047
-380.931	-200.000	-0.009	0.292
-379.917	-69.834	-0.190	0.073
-378.902	800.000	0.084	0.314
-377.888	-200.000	-0.055	0.324
-376.873	10.025	0.159	-0.122
-375.858	-70.694	0.287	0.109
-374.844	247.524	-0.124	0.211
-373.829	48.976	-0.069	-0.065
-372.815	278.046	0.035	0.062
-371.800	-59.910	0.211	0.091
-370.785	-103.228	-0.159	-0.038
-369.771	-200.000	0.005	0.111
-368.756	589.941	0.095	0.236
-367.742	114.048	0.165	0.202
-366.727	-200.000	-0.007	-0.075
-365.712	687.505	-0.111	-0.292
-364.698	123.010	-0.088	0.111
-363.683	-3.923	0.183	-0.127
-362.669	213.345	0.174	0.276
-361.654	40.642	-0.220	0.199
-360.639	-200.000	0.014	-0.161
-359.625	-200.000	0.034	0.223
-358.610	-172.120	-0.316	-0.010
-357.596	498.675	0.103	-0.238
-356.581	-5.189	0.181	-0.125
-355.566	-84.025	0.095	0.030
-354.552	11.347	0.223	-0.172
-353.537	-160.674	0.364	0.019
-352.523	101.524	0.058	-0.067
-351.508	13.472	-0.047	0.036
-350.493	-200.000	-0.006	0.073
-349.479	613.077	-0.093	-0.234
-348.464	-130.006	-0.173	-0.024
-347.450	-200.000	0.006	0.117
-346.435	-24.224	-0.176	0.105
-345.420	-166.439	0.169	0.007
-344.406	74.836	0.237	0.250
-343.391	-123.208	0.307	0.049
-342.377	-81.119	-0.201	0.067
-341.362	800.000	-0.059	-0.222
-340.348	111.717	-0.177	0.215
-339.333	80.183	-0.091	-0.098
-338.318	-200.000	0.071	0.497
-337.304	56.049	-0.339	0.330
-336.289	281.985	-0.151	0.272
-335.275	-39.609	0.367	-0.193
-334.260	800.000	0.094	-0.335
-333.245	-48.391	0.271	-0.131
-332.231	-200.000	-0.394	0.000
-331.216	114.555	-0.367	-0.448
-330.202	-200.000	0.003	-0.127
-329.187	235.033	-0.218	-0.362
-328.172	-86.869	0.090	0.027
-327.158	162.048	-0.094	-0.132
-326.143	-133.854	-0.180	0.022
-325.129	-79.956	0.078	0.026
-324.114	-200.000	0.050	0.538
-323.099	-200.000	-0.001	0.020
-322.085	-143.831	0.329	0.031
-321.070	332.758	-0.118	0.228
-320.056	20.328	0.184	-0.149
-319.041	-159.321	0.413	-0.023
-318.026	-106.581	0.278	0.062
-317.012	385.125	-0.097	0.201
-315.997	-113.086	-0.182	0.036
-314.983	-200.000	0.017	0.259
-313.968	-87.395	0.167	0.051
-312.953	-162.080	-0.235	0.012
-311.939	800.000	-0.107	0.316
-310.924	-200.000	0.043	0.336
-309.910	-126.594	-0.157	0.023
-308.895	507.893	-0.093	-0.216
-307.880	-200.000	-0.083	-0.367
-306.866	-199.354	0.164	0.001
-305.851	-65.363	-0.221	0.089
-304.837	434.852	-0.173	0.377
-303.822	6.705	0.317	0.236
-302.807	-200.000	0.066	-0.389
-301.793	-35.350	-0.357	-0.194
-300.778	115.564	-0.220	0.269
-299.764	631.104	0.133	0.337
-298.749	-45.891	0.240	0.119
-297.735	-21.035	-0.349	0.214
-296.720	-200.000	-0.032	-0.215
-295.705	-200.000	0.027	-0.167
-294.691	-122.925	-0.294	-0.047
-293.676	-200.000	-0.013	-0.184
-292.662	800.000	0.045	0.149
-291.647	-37.455	0.125	-0.067
-290.632	104.624	-0.190	0.225
-289.618	-50.223	0.153	0.072
-288.603	-84.927	0.149	0.047
-287.589	779.368	0.225	0.617
-286.574	-160.216	0.258	-0.014
-285.559	63.453	-0.194	0.195
-284.545	-134.047	-0.505	-0.063
-283.530	-200.000	0.041	-0.225
-282.516	674.249	0.120	0.313
-281.501	-114.843	-0.073	-0.014
-280.486	113.254	0.148	-0.179
-279.472	800.000	0.118	-0.338
-278.457	-143.357	0.025	0.002
-277.443	553.302	-0.086	-0.207
-276.428	-115.055	-0.052	0.010
-275.413	-32.658	0.332	0.185
-274.399	-200.000	0.025	0.124
-273.384	-149.440	-0.209	0.017
-272.370	-200.000	-0.026	-0.134
-271.355	-23.172	-0.241	0.145
-270.340	304.985	-0.100	-0.185
-269.326	241.032	0.136	0.228
-268.311	139.330	-0.167	-0.220
-267.297	-200.000	0.000	-0.023
-266.282	-200.000	0.029	0.251
-265.267	-200.000	-0.036	-0.168
-264.253	-80.192	-0.158	-0.053
-263.238	135.951	-0.108	0.140
-262.224	-69.267	0.216	-0.083
-261.209	-200.000	0.013	0.113
-260.195	153.505	0.270	0.369
-259.180	192.618	-0.078	-0.118
-258.165	800.000	0.037	-0.132
-257.151	-23.899	0.177	0.106
-256.136	800.000	0.037	0.107
-255.122	639.203	-0.055	-0.141
-254.107	235.828	-0.231	-0.382
-253.092	800.000	0.045	-0.193
-252.078	800.000	-0.155	-0.448
-251.063	398.330	-0.123	-0.257
-250.049	318.726	0.189	-0.358
-249.034	-117.015	0.133	0.024
-248.019	75.547	0.029	-0.031
-247.005	800.000	0.123	-0.395
-245.990	-189.547	-0.118	-0.001
-244.976	35.086	0.135	0.118
-243.961	-84.706	0.105	0.033
-242.946	-10.146	0.060	0.040
-241.932	-200.000	-0.049	-0.283
-240.917	190.974	-0.183	0.274
-239.903	-200.000	0.040	0.195
-238.888	-148.609	-0.252	-0.020
-237.873	-200.000	0.003	0.420
-236.859	-200.000	0.001	-0.301
-235.844	-31.356	-0.116	0.065
-234.830	197.294	0.168	0.256
-233.815	-165.783	-0.314	-0.014
-232.800	430.388	-0.156	-0.337
-231.786	-73.599	0.365	-0.133
-230.771	-200.000	0.027	0.450
-229.757	24.513	-0.141	-0.117
-228.742	-131.078	0.155	-0.021
-227.727	-200.000	-0.036	0.305
-226.713	-200.000	-0.023	-0.396
-225.698	-52.840	-0.268	0.123
-224.684	-116.029	-0.215	0.040
-223.669	340.117	-0.096	0.187
-222.655	67.046	-0.149	-0.151
-221.640	-200.000	0.011	0.080
-220.625	251.472	-0.091	0.154
-219.611	-94.401	-0.423	0.115
-218.596	104.703	0.175	0.206
-217.582	82.042	0.054	0.058
-216.567	11.042	0.045	-0.035
-215.552	-85.840	-0.337	0.104
-214.538	-90.719	0.280	0.081
-213.523	-200.000	-0.021	0.260
-212.509	-25.849	-0.192	-0.113
-211.494	-108.063	-0.306	0.066
-210.479	800.000	-0.054	0.186
-209.465	37.475	0.221	0.196
-208.450	124.011	0.078	0.097
-207.436	-200.000	-0.005	-0.234
-206.421	-35.346	0.113	0.061
-205.406	-36.712	0.006	-0.003
-204.392	-27.624	-0.203	-0.118
-203.377	260.581	0.152	0.262
-202.363	-37.693	-0.150	-0.080
-201.348	-200.000	0.043	-0.345
-200.333	66.774	-0.033	0.033
-199.319	-56.570	-0.151	0.067
-198.304	254.564	-0.191	0.327
-197.290	-128.037	0.364	-0.052
-196.275	5.890	0.174	0.128
-195.260	-168.760	0.106	0.004
-194.246	-200.000	0.051	-0.468
-193.231	24.991	0.235	-0.194
-192.217	800.000	0.104	-0.340
-191.202	767.826	0.169	0.458
-190.187	108.881	-0.111	-0.132
-189.173	22.465	-0.287	-0.234
-188.158	-200.000	-0.005	0.090
-187.144	-200.000	0.001	0.402
-186.129	-99.431	0.371	-0.093
-185.114	454.666	0.139	-0.307
-184.100	47.903	0.210	0.196
-183.085	727.776	0.139	-0.369
-182.071	800.000	0.038	0.106
-181.056	80.999	0.172	0.185
-180.042	-200.000	-0.027	0.309
-179.027	-53.331	-0.228	-0.104
-178.012	-117.106	-0.272	0.049
-176.998	-36.614	-0.117	-0.063
-175.983	-200.000	0.014	-0.300
-174.969	138.754	-0.095	-0.124
-173.954	-138.297	0.111	-0.012
-172.939	169.983	0.178	-0.254
-171.925	-41.660	-0.122	-0.062
-170.910	-200.000	0.072	0.415
-169.896	-200.000	0.023	-0.124
-168.881	568.939	-0.068	-0.164
-167.866	-200.000	-0.048	0.235
-166.852	120.600	0.143	0.177
-165.837	353.925	-0.098	0.194
-164.823	-200.000	-0.030	0.218
-163.808	23.281	0.044	0.036
-162.793	-122.239	-0.228	-0.037
-161.779	-52.388	-0.216	0.100
-160.764	-200.000	-0.007	0.155
-159.750	-164.932	-0.077	0.003
-158.735	61.742	-0.206	-0.204
-157.720	-200.000	-0.032	0.295
-156.706	83.259	0.345	-0.374
-155.691	-200.000	-0.070	-0.348
-154.677	-98.435	-0.157	0.040
-153.662	110.348	-0.220	0.264
-152.647	800.000	-0.134	-0.449
-151.633	-200.000	-0.084	-0.423
-150.618	140.385	-0.025	0.032
-149.604	800.000	-0.055	0.169
-148.589	-200.000	-0.025	0.269
-147.574	-200.000	-0.049	0.247
-146.560	193.890	-0.054	0.081
-145.545	-131.855	-0.395	0.051
-144.531	-200.000	0.016	-0.110
-143.516	-103.933	0.215	0.050
-142.502	-76.324	0.318	0.111
-141.487	-43.097	-0.190	0.096
-140.472	721.666	-0.148	0.391
-139.458	41.979	-0.047	0.042
-138.443	-109.691	0.218	-0.046
-137.429	11.996	0.282	0.216
-136.414	-200.000	0.095	0.439
-135.399	-33.901	0.269	-0.147
-134.385	-33.693	0.130	0.071
-133.370	84.879	0.141	-0.154
-132.356	-96.907	0.228	-0.059
-131.341	27.459	-0.229	-0.192
-130.326	48.992	0.145	0.136
-129.312	-91.003	0.259	-0.074
-128.297	800.000	0.039	0.153
-127.283	244.195	-0.082	0.138
-126.268	-149.607	0.278	0.022
-125.253	-200.000	0.000	0.263
-124.239	-91.936	-0.123	-0.035
-123.224	-150.757	0.029	0.002
-122.210	274.678	-0.088	0.154
-121.195	479.497	-0.044	-0.100
-120.180	-5.683	0.170	-0.116
-119.166	800.000	-0.037	0.142
-118.151	-110.100	0.199	-0.041
-117.137	313.374	-0.086	0.160
-116.122	207.288	-0.219	0.340
-115.107	-48.947	0.058	0.027
-114.093	164.598	-0.157	-0.220
-113.078	742.671	0.075	-0.201
-112.064	212.023	0.106	0.167
-111.049	-125.813	-0.373	0.056
-110.034	-154.977	0.097	0.006
-109.020	45.820	0.359	0.330
-108.005	-108.922	0.099	-0.021
-106.991	398.000	0.036	-0.075
-105.976	159.125	-0.108	0.149
-104.962	274.236	0.014	0.025
-103.947	-200.000	-0.031	-0.198
-102.932	-200.000	-0.016	-0.171
-101.918	-200.000	0.017	-0.088
-100.903	-47.795	0.114	0.055
-99.889	-9.560	0.061	-0.040
-98.874	35.660	-0.210	-0.183
-97.859	-98.181	-0.253	0.065
-96.845	-12.043	-0.172	0.112
-95.830	-86.391	0.302	-0.092
-94.816	39.844	0.231	-0.206
-93.801	-116.437	-0.124	-0.023
-92.786	-97.353	0.122	-0.031
-91.772	-200.000	-0.022	0.353
-90.757	4.239	-0.166	-0.121
-89.743	-200.000	-0.007	-0.221
-88.728	-200.000	0.005	0.404
-87.713	166.444	0.220	0.309
-86.699	-200.000	-0.010	-0.149
-85.684	800.000	-0.066	0.238
-84.670	-29.606	0.092	-0.052
-83.655	45.376	0.100	0.092
-82.640	-200.000	0.030	0.137
-81.626	-137.235	-0.326	-0.037
-80.611	-200.000	0.006	-0.157
-79.597	-200.000	0.108	-0.576
-78.582	41.171	-0.181	-0.163
-77.567	428.381	0.140	0.301
-76.553	97.703	0.190	0.217
-75.538	-11.074	0.272	0.178
-74.524	-158.595	-0.278	-0.016
-73.509	107.071	-0.123	0.145
-72.494	-200.000	0.016	0.159
-71.480	-71.963	-0.349	-0.129
-70.465	-140.940	0.265	0.027
-69.451	-66.780	0.206	-0.081
-68.436	-136.982	0.151	0.017
-67.422	-91.358	0.090	0.026
-66.407	-200.000	-0.037	-0.182
-65.392	762.244	-0.120	0.323
-64.378	-200.000	-0.028	0.130
-63.363	-111.338	0.162	-0.033
-62.349	800.000	-0.023	0.088
-61.334	56.004	-0.909	-0.875
-60.319	248.028	0.118	0.198
-59.305	-200.000	-0.203	-1.009
-58.290	114.123	0.603	0.728
-57.276	800.000	0.494	1.582
-56.261	-200.000	91.453	531.197
-55.246	497.977	1393.079	3181.312
-54.232	147.693	2600.423	3475.724
-53.217	114.983	2209.926	2674.275
-52.203	48.941	1659.816	1545.341
-51.188	40.937	1391.427	1245.540
-50.173	37.608	1348.322	1186.652
-49.159	57.402	1394.840	1350.717
-48.144	61.857	1412.269	1395.116
-47.130	41.245	1368.701	1226.899
-46.115	37.456	1351.445	1188.284
-45.100	37.166	1346.999	1182.562
-44.086	37.162	1343.764	1179.651
-43.071	37.096	1341.650	1177.345
-42.057	37.200	1339.630	1176.156
-41.042	37.231	1337.968	1174.839
-40.027	37.233	1336.177	1173.233
-39.013	37.199	1334.615	1171.605
-37.998	37.280	1332.259	1169.980
-36.984	37.359	1330.532	1168.893
-35.969	37.428	1328.657	1167.614
-34.954	37.408	1326.715	1165.743
-33.940	37.380	1325.909	1164.820
-32.925	37.459	1323.977	1163.548
-31.911	37.526	1322.552	1162.652
-30.896	37.478	1321.022	1160.974
-29.881	37.465	1319.694	1159.681
-28.867	37.471	1318.205	1158.362
-27.852	37.423	1317.149	1157.105
-26.838	37.481	1315.678	1156.107
-25.823	37.434	1314.134	1154.428
-24.809	37.497	1312.278	1153.124
-23.794	37.477	1311.267	1152.070
-22.779	37.534	1309.358	1150.689
-21.765	37.533	1308.023	1149.459
-20.750	37.448	1306.775	1147.817
-19.736	37.354	1305.760	1146.329
-18.721	37.331	1304.587	1145.115
-17.706	37.245	1303.561	1143.665
-16.692	37.306	1301.935	1142.549
-15.677	37.305	1300.935	1141.623
-14.663	37.304	1299.862	1140.631
-13.648	37.402	1298.257	1139.749
-12.633	37.292	1297.552	1138.441
-11.619	37.321	1296.601	1137.730
-10.604	37.274	1296.053	1136.930
-9.590	37.304	1294.993	1136.127
-8.575	37.364	1294.027	1135.590
-7.560	37.294	1293.427	1134.610
-6.546	37.351	1292.206	1133.827
-5.531	37.262	1291.630	1132.757
-4.517	37.334	1290.365	1132.022
-3.502	37.311	1289.220	1130.836
-2.487	37.365	1288.114	1130.136
-1.473	37.230	1284.037	1125.730
-0.458	34.839	1267.196	1097.221
0.556	28.337	1245.499	1041.247
1.571	22.157	1248.531	1008.353
2.586	20.103	1261.809	1007.065
3.600	18.952	1250.542	991.352
4.615	13.950	1177.534	906.172
5.629	5.584	1099.251	803.092
6.644	1.325	1077.261	765.515
7.659	0.776	1075.278	761.277
8.673	0.808	1074.244	760.637
9.688	0.833	1072.866	759.718
10.702	1.146	1071.087	759.961
11.717	5.525	1077.026	786.142
12.731	13.279	1087.895	833.214
13.746	17.304	1091.826	856.469
14.761	17.586	1091.686	857.702
15.775	16.830	1089.745	852.304
16.790	15.745	1087.685	845.169
17.804	15.056	1086.274	840.538
18.819	14.788	1084.784	837.966
19.834	14.423	1083.758	835.268
20.848	14.130	1083.094	833.217
21.863	13.975	1082.263	831.728
22.877	13.771	1081.476	830.031
23.892	13.772	1080.857	829.487
24.907	13.670	1079.905	828.170
25.921	13.687	1079.160	827.611
26.936	13.779	1078.076	827.166
27.950	13.849	1077.000	826.614
28.965	13.849	1076.233	825.956
29.980	13.986	1074.514	825.243
30.994	13.962	1073.513	824.282
32.009	14.025	1072.694	823.893
33.023	13.972	1071.739	822.825
34.038	13.971	1070.593	821.864
35.053	13.880	1069.838	820.765
36.067	13.882	1068.967	820.031
37.082	13.849	1068.368	819.340
38.096	13.830	1067.100	818.197
39.111	13.870	1066.678	818.000
40.126	13.862	1065.563	817.032
41.140	13.732	1064.408	815.438
42.155	13.781	1062.799	814.370
43.169	13.707	1061.778	813.157
44.184	13.703	1061.012	812.476
45.199	13.681	1059.870	811.422
46.213	13.747	1058.660	810.750
47.228	13.772	1057.506	809.917
48.242	13.728	1056.938	809.192
49.257	13.739	1056.074	808.514
50.271	13.881	1054.683	808.067
51.286	13.794	1054.195	807.201
52.301	13.822	1052.953	806.314
53.315	13.842	1051.923	805.549
54.330	13.704	1051.038	804.134
55.344	13.842	1049.897	803.858
56.359	13.824	1049.007	803.017
57.374	13.733	1048.422	802.058
58.388	13.797	1047.508	801.597
59.403	13.778	1046.551	800.700
60.417	13.733	1045.646	799.720
61.432	13.677	1044.978	798.871
62.447	13.720	1043.742	798.061
63.461	13.502	1043.656	796.879
64.476	13.490	1042.716	796.028
65.490	13.621	1041.508	795.669
66.505	13.655	1040.941	795.328
67.520	13.742	1039.700	794.726
68.534	13.724	1039.247	794.221
69.549	13.702	1038.508	793.481
70.563	13.765	1037.651	793.056
71.578	13.720	1036.886	792.186
72.593	13.569	1036.552	791.143
73.607	13.645	1035.762	790.832
74.622	13.594	1035.189	790.082
75.636	13.665	1034.403	789.748
76.651	13.621	1033.541	788.810
77.666	13.633	1033.003	788.390
78.680	13.686	1032.084	787.867
79.695	13.624	1031.719	787.224
80.709	13.559	1031.313	786.536
81.724	13.726	1030.140	786.366
82.739	13.742	1029.794	786.106
83.753	13.787	1028.666	785.392
84.768	13.967	1027.597	785.356
85.782	13.879	1026.955	784.382
86.797	13.951	1025.965	783.895
87.812	13.864	1024.956	782.644
88.826	13.817	1024.031	781.645
89.841	13.749	1023.239	780.652
90.855	13.929	1021.829	780.356
91.870	13.915	1021.492	779.962
92.884	13.819	1020.666	778.813
93.899	13.925	1019.711	778.512
94.914	14.050	1018.442	778.057
95.928	13.987	1017.956	777.326
96.943	13.936	1017.581	776.731
97.957	13.977	1016.512	776.038
98.972	14.034	1015.304	775.313
99.987	13.860	1014.724	773.990
101.001	13.931	1013.652	773.432
102.016	13.904	1012.722	772.531
103.030	13.868	1012.085	771.807
104.045	13.770	1011.204	770.614
105.060	13.876	1010.354	770.388
106.074	13.921	1009.090	769.566
107.089	13.828	1008.109	768.320
108.103	13.790	1007.456	767.577
109.118	13.797	1006.173	766.567
110.133	13.676	1005.565	765.473
111.147	13.867	1004.972	765.838
112.162	13.968	1003.548	765.149
113.176	13.903	1003.006	764.368
114.191	13.883	1002.417	763.761
115.206	13.892	1001.930	763.362
116.220	13.880	1001.046	762.568
117.235	13.857	999.985	761.585
118.249	13.886	999.027	760.922
119.264	13.866	998.426	760.306
120.279	13.837	997.478	759.385
121.293	13.752	997.009	758.570
122.308	13.712	996.487	757.921
123.322	13.803	995.060	757.186
124.337	13.821	994.057	756.438
125.352	13.852	993.092	755.778
126.366	13.970	991.515	755.046
127.381	13.912	990.842	754.206
128.395	13.833	989.877	753.043
129.410	13.932	989.287	752.979
130.424	13.933	988.002	751.940
131.439	13.947	987.198	751.323
132.454	13.882	987.060	750.859
133.468	13.934	986.083	750.281
134.483	14.036	984.741	749.656
135.497	13.944	984.072	748.667
136.512	13.883	983.370	747.789
137.527	13.890	982.398	747.017
138.541	13.914	981.674	746.507
139.556	14.081	980.827	746.549
140.570	14.042	979.894	745.596
141.585	14.134	979.078	745.320
142.600	14.014	978.612	744.362
143.614	14.021	978.099	743.939
144.629	14.086	976.931	743.275
145.643	14.057	976.136	742.477
146.658	14.111	974.769	741.612
147.673	14.039	973.845	740.519
148.687	14.035	972.984	739.782
149.702	13.929	972.539	738.908
150.716	14.024	971.516	738.487
151.731	13.951	971.148	737.817
152.746	13.867	970.522	736.906
153.760	14.011	969.670	736.832
154.775	14.106	969.287	736.898
155.789	14.103	968.419	736.157
156.804	14.169	967.094	735.375
157.819	14.058	966.789	734.590
158.833	14.128	965.902	734.160
159.848	14.364	965.068	734.499
160.862	14.152	964.476	733.049
161.877	14.066	963.585	731.931
162.892	14.136	962.286	731.187
163.906	14.124	961.575	730.527
164.921	13.996	960.815	729.325
165.935	14.260	959.693	729.566
166.950	14.162	958.824	728.410
167.964	14.096	958.077	727.492
168.979	14.232	957.027	727.223
169.994	14.139	956.143	726.084
171.008	14.204	955.817	726.054
172.023	14.336	954.543	725.597
173.037	14.224	954.294	724.854
174.052	14.106	953.708	723.833
175.067	14.183	953.181	723.703
176.081	14.202	952.442	723.163
177.096	14.266	951.510	722.666
178.110	14.167	951.084	721.851
179.125	14.418	950.418	722.369
180.140	14.255	950.148	721.392
181.154	14.271	949.662	721.031
182.169	14.352	948.729	720.610
183.183	14.297	948.421	720.072
184.198	14.487	947.312	719.986
185.213	14.378	946.527	718.855
186.227	14.469	946.264	718.986
187.242	14.447	945.677	718.381
188.256	14.572	944.849	718.229
189.271	14.359	943.907	716.530
190.286	14.412	943.303	716.237
191.300	14.186	942.841	714.854
192.315	14.242	942.238	714.572
193.329	14.391	941.027	714.230
194.344	14.436	940.582	714.023
195.359	14.360	940.151	713.307
196.373	14.404	939.562	712.983
197.388	14.439	939.178	712.780
198.402	14.644	938.182	712.834
199.417	14.624	937.678	712.305
200.432	14.689	937.084	712.066
201.446	14.702	936.789	711.837
202.461	14.702	936.464	711.526
203.475	14.691	935.603	710.764
204.490	14.635	935.083	710.064
205.504	14.836	933.750	709.842
206.519	14.721	933.222	708.892
207.534	14.622	932.470	707.839
208.548	14.763	931.821	707.881
209.563	14.737	931.112	707.169
210.577	14.811	930.421	706.897
211.592	14.718	929.975	706.102
212.607	14.821	929.188	705.874
213.621	14.813	928.240	705.059
214.636	14.833	927.379	704.427
215.650	14.744	926.711	703.483
216.665	14.837	926.156	703.389
217.680	14.958	925.281	703.173
218.694	15.042	924.541	702.899
219.709	15.009	924.026	702.307
220.723	14.867	923.534	701.276
221.738	14.998	922.875	701.262
222.753	14.937	922.187	700.422
223.767	14.921	921.633	699.871
224.782	15.089	921.058	700.075
225.796	14.901	920.634	698.905
226.811	14.988	919.778	698.557
227.826	15.056	918.943	698.147
228.840	15.044	917.857	697.208
229.855	15.068	917.089	696.665
230.869	15.096	916.210	696.052
231.884	15.084	915.994	695.775
232.899	14.973	915.307	694.733
233.913	15.055	914.558	694.440
234.928	14.945	913.866	693.399
235.942	14.908	913.455	692.872
236.957	15.080	912.998	693.178
237.972	15.105	912.391	692.759
238.986	14.953	911.750	691.581
240.001	14.935	911.127	690.975
241.015	14.994	910.261	690.501
242.030	15.120	909.417	690.317
243.045	15.141	909.166	690.153
244.059	15.267	908.215	689.886
245.074	15.211	907.543	689.085
246.088	15.175	907.022	688.482
247.103	15.333	906.130	688.392
248.117	15.209	905.830	687.595
249.132	15.345	905.298	687.686
250.147	15.322	904.868	687.205
251.161	15.368	903.810	686.531
252.176	15.511	902.918	686.375
253.190	15.451	902.557	685.796
254.205	15.566	901.970	685.756
255.220	15.465	901.214	684.712
256.234	15.507	900.397	684.201
257.249	15.466	899.718	683.458
258.263	15.530	898.863	683.007
259.278	15.445	898.249	682.136
260.293	15.505	898.282	682.346
261.307	15.604	897.070	681.762
262.322	15.628	896.719	681.535
263.336	15.646	895.863	680.896
264.351	15.699	895.117	680.482
265.366	15.757	894.499	680.188
266.380	15.767	893.818	679.651
267.395	15.700	893.269	678.902
268.409	15.552	892.912	677.975
269.424	15.728	891.749	677.738
270.439	15.711	890.830	676.915
271.453	15.636	890.463	676.271
272.468	15.705	890.037	676.167
273.482	15.849	889.007	675.903
274.497	15.760	888.529	675.121
275.512	15.787	888.037	674.798
276.526	15.806	887.665	674.530
277.541	15.777	887.078	673.909
278.555	15.875	886.642	673.910
279.570	15.973	885.691	673.521
280.585	15.844	885.141	672.528
281.599	15.921	884.097	671.982
282.614	15.859	883.511	671.229
283.628	15.885	882.959	670.853
284.643	15.829	882.401	670.147
285.657	15.984	881.606	670.102
286.672	15.918	881.167	669.445
287.687	15.962	880.393	668.972
288.701	15.953	879.700	668.350
289.716	16.080	879.276	668.473
290.730	15.952	878.935	667.649
291.745	16.101	878.124	667.565
292.760	16.040	877.551	666.826
293.774	16.069	876.882	666.373
294.789	16.126	876.172	665.999
295.803	16.032	875.689	665.202
296.818	16.059	874.655	664.467
297.833	16.054	873.867	663.789
298.847	16.192	873.187	663.759
299.862	16.268	872.645	663.585
300.876	16.223	872.036	662.888
301.891	16.165	871.745	662.377
302.906	16.290	870.913	662.179
303.920	16.188	870.476	661.389
304.935	16.304	869.536	661.069
305.949	16.406	869.001	661.002
306.964	16.433	868.451	660.632
307.979	16.487	867.803	660.290
308.993	16.408	867.522	659.710
310.008	16.349	867.123	659.119
311.022	16.406	866.200	658.582
312.037	16.408	865.725	658.169
313.052	16.262	865.802	657.602
314.066	16.325	864.989	657.170
315.081	16.186	864.929	656.525
316.095	16.296	863.649	655.925
317.110	16.139	863.374	655.046
318.125	16.370	862.500	655.221
319.139	16.479	861.936	655.158
320.154	16.484	861.782	655.003
321.168	16.424	861.030	654.141
322.183	16.483	860.467	653.884
323.197	16.502	859.656	653.282
324.212	16.495	859.473	653.060
325.227	16.571	858.800	652.784
326.241	16.534	858.071	652.028
327.256	16.470	857.640	651.396
328.270	16.456	856.923	650.741
329.285	16.524	856.340	650.500
330.300	16.431	855.972	649.807
331.314	16.622	855.282	649.960
332.329	16.599	854.819	649.461
333.343	16.722	854.326	649.501
334.358	16.677	853.782	648.858
335.373	16.580	853.467	648.190
336.387	16.683	853.472	648.528
337.402	16.632	852.885	647.831
338.416	16.586	852.678	647.441
339.431	16.706	851.794	647.170
340.446	16.726	851.567	647.016
341.460	16.794	851.186	646.930
342.475	16.798	850.775	646.577
343.489	16.827	850.730	646.597
344.504	16.780	850.106	645.886
345.519	16.940	849.608	646.057
346.533	17.090	848.543	645.761
347.548	16.799	848.607	644.645
348.562	16.721	847.924	643.774
349.577	16.826	847.369	643.694
350.592	16.719	846.794	642.793
351.606	16.889	845.886	642.693
352.621	17.026	845.164	642.606
353.635	16.886	844.929	641.840
354.650	17.006	843.964	641.503
355.665	16.931	843.315	640.671
356.679	17.016	842.594	640.390
357.694	17.088	842.004	640.155
358.708	17.174	841.270	639.865
359.723	17.138	840.924	639.407
360.738	16.988	840.332	638.338
361.752	17.079	839.640	638.097
362.767	17.148	839.269	638.020
363.781	17.065	838.566	637.115
364.796	17.124	838.032	636.876
365.810	17.185	837.537	636.670
366.825	17.179	837.530	636.588
367.840	17.281	836.771	636.334
368.854	17.182	836.505	635.707
369.869	17.091	836.308	635.161
370.883	17.297	835.373	635.162
371.898	17.292	835.324	635.052
372.913	17.248	834.747	634.393
373.927	17.268	834.222	634.010
374.942	17.270	833.651	633.531
375.956	17.436	833.499	633.977
376.971	17.415	832.861	633.355
377.986	17.405	832.403	632.915
379.000	17.433	831.931	632.605
380.015	17.412	831.614	632.230
381.029	17.645	831.200	632.724
382.044	17.370	830.532	631.141
383.059	17.632	829.578	631.330
384.073	17.599	829.186	630.852
385.088	17.628	828.384	630.294
386.102	17.404	827.691	628.882
387.117	17.580	827.186	629.094
388.132	17.528	826.530	628.346
389.146	17.529	826.207	628.051
390.161	17.578	825.988	628.008
391.175	17.680	825.253	627.772
392.190	17.517	825.283	627.136
393.205	17.531	824.328	626.408
394.219	17.582	824.383	626.579
395.234	17.662	823.694	626.296
396.248	17.524	823.355	625.474
397.263	17.576	822.636	625.064
398.278	17.593	822.341	624.847
399.292	17.729	821.793	624.873
400.307	17.613	821.316	624.031
401.321	17.833	820.643	624.270
402.336	17.723	820.094	623.397
403.350	17.711	820.020	623.239
404.365	17.864	819.372	623.251
405.380	17.899	818.883	622.951
406.394	17.797	818.498	622.232
407.409	17.808	818.049	621.876
408.423	17.920	817.526	621.831
409.438	17.933	817.213	621.586
410.453	17.902	817.013	621.264
411.467	17.937	816.430	620.893
412.482	18.138	815.709	621.021
413.496	18.079	815.533	620.617
414.511	18.124	815.410	620.632
415.526	18.040	815.058	620.003
416.540	17.970	814.277	619.104
417.555	18.077	813.698	618.994
418.569	18.106	813.196	618.663
419.584	18.097	812.958	618.393
420.599	18.185	812.401	618.235
421.613	102.316	1280.970	1427.685
422.628	88.165	1349.236	1427.787
