DTS Sentinel unit serial number:	SN413079Multiplexer serial number:	ORYXHardware model number:	OX4-SRSoftware version number:	ORYX F/W v4.00 Oryx Data Collector v3.7.2.0data status	okinstallation	princeton_trtdifferential loss correction	single-endedforward channel	channel 1reverse channel	N/Adate	2019/09/11time	23:12:11forward acquisition time	60.00reverse acquisition time	0.00gamma	496.2192k internal	0.2318k external	0.2318temperature offset calibration	1.0059default loss term (dB/km)	0.3790temperature slope calibration	1.0000multiplexer offset coefficient	1.0000multiplexer slope coefficient	1.0000fibre end	0.00T internal ref (°C)	34.50T ext. ref 1 (°C)	1.86T ext. ref 2 (°C)	28.07length (m)	temperature (°C)	Stokes	anti-Stokes-747.200	151.135	-0.078	0.108
-746.185	-56.511	0.089	-0.040
-745.171	-20.304	0.052	-0.033
-744.156	-73.079	0.222	-0.082
-743.142	-90.172	0.077	0.023
-742.127	188.342	0.199	0.301
-741.112	122.266	0.079	-0.100
-740.098	-200.000	-0.088	0.463
-739.083	5.275	-0.089	-0.066
-738.069	-83.734	0.171	-0.055
-737.054	-20.172	-0.253	-0.158
-736.039	-105.732	-0.437	-0.100
-735.025	366.002	0.216	0.440
-734.010	800.000	0.074	0.241
-732.996	-79.303	0.268	0.092
-731.981	81.936	-0.169	0.185
-730.966	45.513	0.119	0.111
-729.952	-200.000	-0.003	-0.041
-728.937	-135.080	-0.224	-0.027
-727.923	-87.037	0.345	-0.106
-726.908	86.899	0.076	0.085
-725.894	-39.922	-0.080	0.042
-724.879	-125.842	-0.175	-0.027
-723.864	-200.000	0.020	0.245
-722.850	-102.485	-0.161	0.039
-721.835	-88.229	-0.149	-0.045
-720.821	-113.346	-0.430	-0.085
-719.806	38.665	-0.109	-0.099
-718.791	119.796	-0.010	-0.013
-717.777	800.000	0.043	-0.132
-716.762	-89.275	-0.105	0.031
-715.748	2.163	-0.174	-0.127
-714.733	800.000	-0.076	-0.268
-713.718	-69.467	0.246	-0.095
-712.704	-86.621	0.212	-0.066
-711.689	-89.008	-0.198	-0.059
-710.675	93.037	0.134	0.153
-709.660	-49.100	0.171	0.083
-708.645	-150.375	-0.181	0.014
-707.631	132.323	-0.082	-0.107
-706.616	254.643	0.089	-0.154
-705.602	403.510	-0.089	0.189
-704.587	-96.848	-0.071	-0.019
-703.572	-18.764	-0.241	0.152
-702.558	-41.443	0.095	-0.049
-701.543	455.526	-0.101	0.227
-700.529	64.579	-0.068	0.069
-699.514	-200.000	0.013	-0.219
-698.499	-197.441	0.256	0.002
-697.485	-75.039	-0.229	0.083
-696.470	-200.000	0.013	-0.251
-695.456	42.564	0.142	-0.130
-694.441	20.273	-0.166	-0.136
-693.426	40.821	0.135	0.123
-692.412	-39.138	-0.196	-0.104
-691.397	15.385	0.081	-0.064
-690.383	217.556	-0.106	-0.170
-689.368	75.882	-0.282	-0.301
-688.354	800.000	-0.086	-0.254
-687.339	-60.370	0.118	-0.051
-686.324	432.149	-0.119	0.261
-685.310	-98.698	-0.292	-0.075
-684.295	800.000	0.017	-0.071
-683.281	-200.000	-0.023	0.200
-682.266	-141.230	0.165	-0.017
-681.251	-138.745	-0.209	0.023
-680.237	800.000	-0.017	-0.063
-679.222	-10.913	0.050	0.033
-678.208	85.371	0.238	-0.264
-677.193	-79.033	-0.160	-0.055
-676.178	-200.000	-0.094	-0.420
-675.164	-200.000	0.058	0.441
-674.149	800.000	-0.122	-0.347
-673.135	-153.041	-0.061	-0.004
-672.120	-149.125	-0.123	0.010
-671.105	296.011	-0.130	-0.241
-670.091	-24.651	0.242	-0.145
-669.076	-119.720	-0.504	0.088
-668.062	9.650	-0.109	-0.084
-667.047	-59.927	0.135	-0.058
-666.032	800.000	-0.013	0.042
-665.018	88.618	0.166	0.186
-664.003	-102.641	0.287	0.069
-662.989	75.385	0.085	-0.091
-661.974	201.427	0.114	0.178
-660.959	-45.653	0.245	-0.122
-659.945	211.559	-0.256	-0.407
-658.930	-10.828	0.055	-0.037
-657.916	-140.197	-0.331	0.035
-656.901	-158.047	0.133	0.008
-655.886	328.360	0.058	0.112
-654.872	-67.524	0.129	0.051
-653.857	-93.006	0.252	-0.071
-652.843	540.222	-0.029	0.070
-651.828	-7.527	-0.069	0.047
-650.814	-126.026	-0.172	0.026
-649.799	-86.186	-0.223	-0.069
-648.784	-12.912	-0.134	0.088
-647.770	-75.944	0.145	-0.052
-646.755	-200.000	-0.013	-0.168
-645.741	394.207	0.066	-0.139
-644.726	-36.713	-0.200	-0.108
-643.711	419.613	-0.001	-0.003
-642.697	-200.000	-0.008	-0.069
-641.682	-143.887	-0.333	-0.032
-640.668	-9.040	0.079	-0.054
-639.653	-8.332	0.161	0.109
-638.638	650.991	-0.165	0.425
-637.624	-200.000	-0.044	-0.252
-636.609	58.926	-0.182	0.180
-635.595	94.056	0.035	0.041
-634.580	-200.000	0.031	0.299
-633.565	-6.794	-0.278	0.191
-632.551	-109.968	-0.224	0.047
-631.536	26.297	0.297	-0.250
-630.522	-134.195	0.116	-0.014
-629.507	-200.000	-0.044	0.240
-628.492	-78.079	0.143	-0.049
-627.478	110.000	0.192	0.232
-626.463	307.562	0.294	0.552
-625.449	-134.646	-0.028	0.003
-624.434	-200.000	0.019	0.183
-623.419	-200.000	-0.010	0.168
-622.405	181.422	0.092	0.137
-621.390	-200.000	-0.025	0.155
-620.376	-112.712	0.116	-0.023
-619.361	-113.927	0.410	0.080
-618.346	-105.176	0.102	0.023
-617.332	-91.853	-0.090	-0.026
-616.317	-56.075	0.164	-0.073
-615.303	800.000	0.048	-0.180
-614.288	297.459	0.133	0.246
-613.273	-135.945	0.160	-0.019
-612.259	-66.061	0.166	-0.067
-611.244	60.991	0.153	0.153
-610.230	-80.566	0.261	-0.088
-609.215	73.228	0.191	0.201
-608.201	-46.949	-0.374	0.184
-607.186	188.120	-0.218	0.328
-606.171	-200.000	0.002	-0.212
-605.157	-200.000	0.005	0.109
-604.142	-41.179	0.200	0.104
-603.128	-99.504	0.232	0.059
-602.113	318.586	0.035	0.067
-601.098	-200.000	0.009	0.044
-600.084	800.000	-0.063	-0.270
-599.069	-73.510	0.383	0.140
-598.055	-200.000	0.041	-0.296
-597.040	800.000	-0.078	0.244
-596.025	-77.174	-0.280	0.098
-595.011	30.352	-0.282	0.242
-593.996	373.352	0.160	0.328
-592.982	23.000	-0.094	0.078
-591.967	-200.000	0.020	0.423
-590.952	800.000	-0.097	0.399
-589.938	-200.000	-0.011	0.204
-588.923	120.633	0.042	-0.052
-587.909	-200.000	0.015	0.147
-586.894	-200.000	-0.013	-0.221
-585.879	109.959	-0.060	0.073
-584.865	621.791	0.146	-0.371
-583.850	144.567	0.161	-0.216
-582.836	-11.814	-0.170	0.112
-581.821	178.169	-0.179	-0.263
-580.806	-113.858	0.261	0.051
-579.792	-200.000	-0.002	-0.128
-578.777	-172.870	0.214	-0.007
-577.763	218.783	-0.152	0.245
-576.748	57.758	0.277	0.273
-575.733	-18.980	-0.344	-0.215
-574.719	-92.922	-0.028	0.008
-573.704	-53.962	0.395	0.181
-572.690	-200.000	0.311	0.000
-571.675	135.677	0.088	-0.115
-570.661	-29.029	0.070	0.041
-569.646	228.835	0.276	0.453
-568.631	-50.863	0.175	0.083
-567.617	26.258	-0.120	-0.101
-566.602	80.831	0.338	0.366
-565.588	123.070	-0.161	-0.202
-564.573	800.000	0.063	-0.277
-563.558	-85.941	-0.320	-0.100
-562.544	147.538	0.104	-0.141
-561.529	-39.696	0.113	0.060
-560.515	-200.000	0.032	-0.393
-559.500	-82.453	0.239	0.078
-558.485	800.000	-0.089	-0.300
-557.471	-58.125	-0.029	-0.013
-556.456	70.969	-0.082	0.085
-555.442	-96.869	0.117	0.031
-554.427	-81.683	-0.447	-0.147
-553.412	-121.202	0.296	0.050
-552.398	50.164	-0.142	-0.135
-551.383	-79.170	-0.137	-0.047
-550.369	92.036	0.174	-0.197
-549.354	800.000	-0.067	-0.272
-548.339	-200.000	0.024	-0.301
-547.325	-200.000	-0.002	-0.335
-546.310	105.295	0.183	0.217
-545.296	41.121	-0.160	0.145
-544.281	43.456	0.131	-0.120
-543.266	17.743	-0.245	-0.196
-542.252	48.023	0.064	-0.060
-541.237	-44.650	-0.094	-0.047
-540.223	89.814	0.222	-0.249
-539.208	99.824	-0.212	-0.247
-538.193	244.823	0.131	-0.222
-537.179	-200.000	-0.028	-0.202
-536.164	-200.000	0.004	-0.083
-535.150	-44.675	-0.285	-0.143
-534.135	15.233	-0.223	0.175
-533.121	-36.069	0.042	0.023
-532.106	-45.241	0.273	-0.136
-531.091	-82.603	0.339	-0.110
-530.077	-55.710	-0.058	0.026
-529.062	-110.348	0.257	0.054
-528.048	303.168	0.205	0.381
-527.033	112.626	0.276	-0.336
-526.018	-82.167	-0.184	-0.060
-525.004	800.000	0.014	0.059
-523.989	2.484	0.132	-0.096
-522.975	154.888	-0.186	-0.257
-521.960	304.953	-0.087	0.162
-520.945	-81.905	-0.138	-0.045
-519.931	800.000	0.017	0.051
-518.916	-20.765	-0.035	0.021
-517.902	43.760	-0.184	-0.169
-516.887	-200.000	0.014	0.266
-515.872	-200.000	-0.016	0.117
-514.858	-200.000	0.002	0.324
-513.843	-200.000	-0.005	-0.147
-512.829	112.975	-0.102	-0.124
-511.814	800.000	-0.062	0.180
-510.799	-102.595	-0.146	-0.035
-509.785	81.965	-0.158	-0.171
-508.770	91.086	-0.125	0.140
-507.756	325.597	-0.101	0.195
-506.741	-200.000	-0.045	0.223
-505.726	133.677	-0.094	-0.122
-504.712	35.982	-0.192	-0.169
-503.697	-200.000	-0.079	-0.348
-502.683	-38.888	0.221	0.117
-501.668	-9.964	0.196	-0.131
-500.653	-200.000	-0.041	0.413
-499.639	128.405	-0.169	0.216
-498.624	371.294	0.216	-0.439
-497.610	-200.000	-0.031	0.142
-496.595	290.951	0.094	-0.172
-495.581	-177.844	-0.450	0.011
-494.566	36.550	-0.234	0.207
-493.551	-131.296	-0.287	-0.038
-492.537	800.000	0.002	-0.008
-491.522	153.244	0.173	0.237
-490.508	96.775	-0.116	0.134
-489.493	16.791	0.112	0.089
-488.478	-147.747	-0.115	-0.010
-487.464	-3.477	-0.503	-0.351
-486.449	134.684	-0.130	-0.168
-485.435	-145.306	-0.243	-0.022
-484.420	-172.983	-0.230	-0.007
-483.405	-94.380	-0.395	-0.108
-482.391	433.849	0.118	0.258
-481.376	43.858	0.156	-0.143
-480.362	253.670	0.091	-0.156
-479.347	133.596	0.036	0.046
-478.332	-200.000	-0.018	-0.092
-477.318	200.171	0.069	0.107
-476.303	-147.011	0.157	0.014
-475.289	419.895	0.024	0.052
-474.274	-15.683	-0.413	0.264
-473.259	-23.552	0.101	0.061
-472.245	445.622	0.155	-0.341
-471.230	38.245	-0.025	0.023
-470.216	-130.914	-0.333	0.045
-469.201	-50.410	0.315	-0.149
-468.186	-92.303	-0.270	0.076
-467.172	153.335	-0.035	-0.048
-466.157	141.012	0.128	0.170
-465.143	-200.000	0.006	-0.275
-464.128	281.237	-0.077	-0.138
-463.113	187.450	-0.049	0.073
-462.099	494.667	-0.058	-0.134
-461.084	36.189	-0.110	0.097
-460.070	800.000	0.091	-0.287
-459.055	-76.046	-0.297	0.105
-458.040	71.327	0.282	0.293
-457.026	81.591	0.061	0.067
-456.011	-15.299	0.149	0.095
-454.997	190.676	-0.082	0.123
-453.982	788.492	0.056	0.155
-452.968	-143.208	0.413	0.040
-451.953	-48.713	0.125	0.060
-450.938	-127.289	-0.199	0.029
-449.924	-74.682	0.217	-0.078
-448.909	17.483	-0.177	0.141
-447.895	1.062	-0.138	0.099
-446.880	-200.000	-0.032	0.425
-445.865	-200.000	-0.118	0.000
-444.851	762.549	-0.116	0.314
-443.836	-200.000	0.005	-0.261
-442.822	-6.892	0.261	0.178
-441.807	-17.329	0.123	-0.077
-440.792	77.889	-0.078	-0.083
-439.778	75.934	-0.051	-0.054
-438.763	139.773	0.016	0.021
-437.749	-90.428	-0.237	-0.069
-436.734	231.440	-0.050	-0.083
-435.719	-82.462	0.144	-0.047
-434.705	-13.124	-0.056	0.037
-433.690	226.083	-0.225	0.365
-432.676	327.217	-0.030	0.058
-431.661	-87.910	-0.280	-0.084
-430.646	-200.000	0.008	-0.470
-429.632	133.165	-0.179	0.232
-428.617	290.069	0.072	0.130
-427.603	260.583	-0.107	-0.185
-426.588	-7.408	-0.197	-0.134
-425.573	-102.571	0.295	0.071
-424.559	33.682	-0.099	0.086
-423.544	-200.000	-0.004	0.295
-422.530	-200.000	-0.033	-0.214
-421.515	-200.000	0.008	-0.108
-420.500	-200.000	0.008	-0.536
-419.486	63.947	0.156	-0.157
-418.471	415.412	-0.025	-0.052
-417.457	-200.000	0.002	-0.130
-416.442	-200.000	-0.064	0.305
-415.428	-89.035	-0.290	0.086
-414.413	280.190	-0.043	0.076
-413.398	10.227	0.274	0.208
-412.384	54.691	0.358	0.345
-411.369	-200.000	-0.008	0.331
-410.355	800.000	-0.079	0.312
-409.340	800.000	-0.055	0.196
-408.325	460.805	-0.041	-0.091
-407.311	-159.259	0.299	-0.017
-406.296	-2.905	-0.089	0.062
-405.282	-120.883	0.311	0.052
-404.267	106.720	0.055	0.066
-403.252	31.536	0.119	-0.102
-402.238	-200.000	0.025	-0.147
-401.223	800.000	0.010	-0.043
-400.209	-17.996	0.181	0.113
-399.194	-200.000	0.016	-0.236
-398.179	14.605	-0.249	-0.194
-397.165	-5.970	-0.079	0.054
-396.150	-122.354	0.403	-0.066
-395.136	-61.737	0.289	0.121
-394.121	39.656	0.174	-0.156
-393.106	-157.360	-0.284	0.017
-392.092	800.000	0.088	0.296
-391.077	-136.339	0.094	-0.011
-390.063	-14.393	0.260	0.167
-389.048	-9.218	-0.158	0.106
-388.033	-170.224	0.178	-0.006
-387.019	800.000	-0.022	0.079
-386.004	-12.179	-0.202	-0.132
-384.990	-43.019	0.324	0.164
-383.975	256.088	0.102	-0.175
-382.960	-46.851	-0.118	-0.058
-381.946	-27.596	0.092	0.054
-380.931	-105.602	0.183	-0.041
-379.917	-200.000	-0.043	0.379
-378.902	610.807	0.072	-0.179
-377.888	800.000	-0.084	-0.234
-376.873	460.097	0.124	0.275
-375.858	800.000	0.065	0.216
-374.844	382.918	-0.095	-0.194
-373.829	-88.263	-0.087	-0.026
-372.815	183.511	0.049	-0.073
-371.800	-132.082	0.299	-0.039
-370.785	-191.189	-0.188	0.002
-369.771	72.415	-0.126	0.131
-368.756	800.000	0.065	-0.239
-367.742	-9.720	0.145	0.096
-366.727	-5.751	-0.357	-0.244
-365.712	23.913	-0.182	-0.150
-364.698	800.000	-0.078	0.274
-363.683	800.000	0.033	0.120
-362.669	230.362	-0.132	0.216
-361.654	-74.102	-0.184	0.066
-360.639	-44.486	-0.301	0.150
-359.625	117.908	-0.039	0.048
-358.610	-200.000	-0.042	-0.272
-357.596	269.651	0.106	0.186
-356.581	-81.831	0.116	-0.038
-355.566	-119.594	0.123	-0.021
-354.552	-0.911	0.134	-0.095
-353.537	-200.000	-0.029	0.277
-352.523	-200.000	0.014	0.295
-351.508	13.376	-0.234	0.181
-350.493	-200.000	-0.043	0.214
-349.479	496.581	-0.095	-0.219
-348.464	-53.977	-0.378	-0.172
-347.450	-40.200	-0.159	0.083
-346.435	-200.000	0.042	0.204
-345.420	-200.000	0.065	0.418
-344.406	339.057	-0.056	-0.108
-343.391	391.857	-0.160	-0.331
-342.377	72.009	0.218	-0.226
-341.362	298.396	0.142	-0.260
-340.348	100.930	-0.288	-0.333
-339.333	800.000	0.124	0.353
-338.318	-9.081	-0.120	-0.080
-337.304	95.912	0.162	0.184
-336.289	70.278	-0.210	-0.216
-335.275	-97.612	0.217	-0.056
-334.260	751.561	0.208	-0.560
-333.245	447.878	0.070	0.155
-332.231	21.050	0.162	-0.131
-331.216	530.626	0.088	0.206
-330.202	-90.735	0.054	0.015
-329.187	7.345	0.216	-0.161
-328.172	-95.627	0.029	-0.008
-327.158	-200.000	-0.040	0.369
-326.143	-200.000	-0.026	-0.229
-325.129	96.928	0.434	-0.496
-324.114	-55.178	0.134	-0.060
-323.099	90.892	-0.191	-0.214
-322.085	78.128	0.031	-0.033
-321.070	-103.607	-0.177	-0.041
-320.056	-200.000	-0.092	0.465
-319.041	-19.628	-0.250	-0.154
-318.026	-19.784	-0.041	-0.025
-317.012	-63.477	-0.331	-0.135
-315.997	122.489	0.069	0.086
-314.983	310.327	-0.031	-0.058
-313.968	-200.000	0.066	-0.344
-312.953	78.098	-0.276	0.293
-311.939	680.272	0.073	0.188
-310.924	7.670	0.091	0.068
-309.910	-154.550	-0.161	0.011
-308.895	92.469	-0.156	0.175
-307.880	-200.000	-0.016	-0.081
-306.866	342.676	-0.163	-0.317
-305.851	-137.915	0.120	0.013
-304.837	16.367	-0.146	0.114
-303.822	-200.000	-0.023	-0.217
-302.807	-118.991	0.271	-0.047
-301.793	-24.307	0.134	0.079
-300.778	800.000	0.084	-0.352
-299.764	-176.569	-0.151	0.004
-298.749	159.429	0.022	-0.031
-297.735	9.988	0.174	0.132
-296.720	333.437	0.014	-0.027
-295.705	-200.000	-0.035	0.192
-294.691	206.112	0.295	0.456
-293.676	-124.354	-0.196	0.030
-292.662	-155.421	0.373	0.024
-291.647	800.000	0.033	-0.125
-290.632	-85.401	-0.417	-0.129
-289.618	-3.469	0.273	-0.189
-288.603	29.813	0.113	0.096
-287.589	-134.413	0.128	0.016
-286.574	-83.465	0.196	0.062
-285.559	154.100	-0.108	-0.147
-284.545	272.782	0.064	-0.112
-283.530	-59.817	-0.156	0.067
-282.516	198.269	-0.244	-0.371
-281.501	-135.038	0.260	-0.031
-280.486	-44.877	0.159	0.079
-279.472	167.448	0.141	0.199
-278.457	-34.426	-0.069	0.037
-277.443	184.854	0.113	-0.166
-276.428	-45.427	0.085	-0.042
-275.413	-200.000	-0.046	0.331
-274.399	-77.484	-0.386	-0.133
-273.384	-70.388	-0.076	0.029
-272.370	800.000	0.060	0.168
-271.355	182.893	0.226	-0.331
-270.340	-200.000	0.011	-0.160
-269.326	-74.670	-0.153	0.055
-268.311	-100.826	-0.086	0.021
-267.297	-96.909	-0.234	-0.061
-266.282	-74.727	0.088	0.031
-265.267	118.582	0.069	-0.085
-264.253	800.000	-0.009	-0.037
-263.238	-49.373	-0.173	0.082
-262.224	-132.010	0.125	-0.016
-261.209	123.231	0.213	0.265
-260.195	-200.000	-0.045	-0.370
-259.180	29.196	-0.158	0.133
-258.165	160.804	0.102	0.141
-257.151	186.139	0.193	0.286
-256.136	-168.596	0.138	-0.005
-255.122	-132.319	-0.241	0.031
-254.107	-83.022	0.289	-0.093
-253.092	55.679	-0.386	0.372
-252.078	87.829	0.378	0.416
-251.063	28.573	0.087	0.073
-250.049	-200.000	0.055	-0.248
-249.034	-200.000	-0.095	-0.554
-248.019	-118.590	-0.256	0.045
-247.005	9.162	-0.141	0.106
-245.990	-31.001	0.154	0.086
-244.976	-69.483	0.151	0.058
-243.961	617.779	-0.044	0.109
-242.946	0.117	0.210	-0.148
-241.932	-111.358	-0.193	0.039
-240.917	283.949	0.104	0.185
-239.903	-137.371	-0.357	-0.040
-238.888	-172.738	0.124	0.004
-237.873	-30.861	-0.280	0.157
-236.859	800.000	-0.029	-0.106
-235.844	69.037	-0.172	-0.176
-234.830	162.747	0.188	-0.262
-233.815	-94.427	0.327	-0.089
-232.800	-200.000	0.023	0.430
-231.786	800.000	-0.181	0.556
-230.771	312.361	0.106	0.197
-229.757	800.000	-0.071	-0.247
-228.742	800.000	0.068	-0.293
-227.727	44.571	-0.076	-0.069
-226.713	250.976	-0.098	-0.166
-225.698	245.138	0.128	-0.213
-224.684	466.387	0.103	-0.228
-223.669	-13.560	-0.219	-0.141
-222.655	-200.000	-0.005	0.151
-221.640	-31.174	-0.126	0.071
-220.625	-100.886	-0.125	-0.031
-219.611	-200.000	-0.028	0.128
-218.596	-95.300	-0.080	0.021
-217.582	-88.009	0.166	-0.049
-216.567	67.999	-0.072	-0.073
-215.552	-200.000	0.002	0.114
-214.538	616.773	-0.105	-0.262
-213.523	-200.000	0.079	-0.342
-212.509	-175.754	0.179	0.005
-211.494	-200.000	0.060	0.278
-210.479	-12.974	0.241	0.155
-209.465	800.000	-0.087	-0.278
-208.450	279.540	-0.082	0.145
-207.436	-100.541	0.270	-0.066
-206.421	331.545	0.149	-0.285
-205.406	528.557	-0.033	0.076
-204.392	-141.427	-0.186	-0.019
-203.377	-200.000	-0.024	0.109
-202.363	277.121	-0.107	-0.188
-201.348	-135.363	-0.118	0.014
-200.333	4.258	-0.161	-0.117
-199.319	-25.129	-0.112	0.066
-198.304	94.708	0.158	0.179
-197.290	800.000	0.113	-0.364
-196.275	-127.443	-0.091	0.013
-195.260	-200.000	0.008	-0.437
-194.246	8.506	0.347	-0.259
-193.231	-95.086	0.231	0.062
-192.217	29.513	-0.055	-0.046
-191.202	-152.050	-0.298	0.022
-190.187	108.009	-0.132	0.156
-189.173	-200.000	-0.025	0.177
-188.158	514.809	-0.071	0.164
-187.144	120.936	0.096	-0.118
-186.129	500.945	0.069	0.158
-185.114	202.945	-0.048	-0.073
-184.100	139.843	0.104	0.135
-183.085	-59.091	0.014	0.006
-182.071	92.097	0.185	-0.206
-181.056	-200.000	0.000	-0.150
-180.042	-96.568	-0.380	0.099
-179.027	-200.000	0.058	0.293
-178.012	103.372	-0.087	-0.101
-176.998	76.034	-0.094	-0.098
-175.983	-160.445	0.140	0.007
-174.969	104.613	-0.102	-0.119
-173.954	-136.273	-0.198	0.023
-172.939	-200.000	-0.042	0.324
-171.925	-41.397	-0.092	-0.047
-170.910	129.011	-0.032	-0.041
-169.896	-9.416	0.115	0.076
-168.881	85.752	-0.297	-0.323
-167.866	678.267	0.166	-0.428
-166.852	800.000	-0.021	0.066
-165.837	-33.286	-0.205	0.112
-164.823	-34.792	-0.424	-0.229
-163.808	18.195	0.219	-0.173
-162.793	-48.071	-0.155	0.074
-161.779	81.822	-0.138	0.147
-160.764	-200.000	0.024	-0.106
-159.750	-21.969	0.057	0.034
-158.735	70.584	0.163	-0.167
-157.720	-98.048	0.163	-0.041
-156.706	-200.000	-0.019	-0.150
-155.691	-200.000	0.016	-0.195
-154.677	34.163	-0.223	-0.192
-153.662	-127.842	-0.161	0.023
-152.647	-200.000	-0.028	-0.251
-151.633	-94.008	0.481	0.131
-150.618	-82.185	0.280	-0.090
-149.604	364.815	-0.032	0.063
-148.589	-159.446	-0.113	0.006
-147.574	-116.601	0.311	-0.057
-146.560	30.495	0.211	-0.178
-145.545	44.926	0.131	0.119
-144.531	715.508	0.030	0.079
-143.516	-113.361	0.205	0.040
-142.502	-129.672	0.324	0.044
-141.487	-105.211	-0.306	0.069
-140.472	322.096	0.033	-0.062
-139.458	34.796	0.210	0.182
-138.443	-3.510	-0.182	0.125
-137.429	-200.000	-0.034	0.162
-136.414	537.366	-0.104	0.244
-135.399	505.013	-0.049	0.112
-134.385	-31.769	0.179	-0.099
-133.370	-200.000	0.007	-0.286
-132.356	-141.193	0.207	-0.021
-131.341	-200.000	-0.014	0.087
-130.326	-39.128	-0.165	0.086
-129.312	-120.435	0.379	0.064
-128.297	14.528	-0.270	-0.208
-127.283	-85.833	0.122	0.037
-126.268	-200.000	0.009	-0.213
-125.253	5.056	-0.169	-0.123
-124.239	187.639	-0.210	0.310
-123.224	374.008	-0.070	-0.140
-122.210	122.909	-0.222	-0.275
-121.195	-116.117	0.226	0.042
-120.180	-133.813	0.353	-0.043
-119.166	-115.755	0.267	-0.049
-118.151	-125.113	0.133	0.020
-117.137	-200.000	-0.020	0.130
-116.122	-69.445	-0.343	0.130
-115.107	-123.140	0.173	-0.027
-114.093	449.764	-0.118	0.257
-113.078	-6.784	-0.162	0.109
-112.064	-105.156	-0.091	-0.021
-111.049	786.025	0.109	0.296
-110.034	800.000	-0.133	0.366
-109.020	-39.960	-0.191	-0.098
-108.005	-47.441	-0.078	-0.038
-106.991	-200.000	0.002	-0.144
-105.976	-18.079	-0.089	-0.055
-104.962	800.000	-0.135	0.465
-103.947	-200.000	-0.025	-0.273
-102.932	-136.960	0.072	-0.008
-101.918	65.746	0.241	0.241
-100.903	357.012	-0.129	0.253
-99.889	-77.457	-0.189	-0.065
-98.874	-80.381	-0.133	-0.044
-97.859	-78.399	0.077	-0.026
-96.845	800.000	0.037	-0.125
-95.830	741.525	-0.107	-0.284
-94.816	170.066	0.185	-0.261
-93.801	14.964	0.183	0.142
-92.786	18.926	-0.133	-0.105
-91.772	84.699	-0.114	-0.123
-90.757	-101.290	0.219	0.053
-89.743	1.170	-0.079	0.056
-88.728	91.424	0.213	0.236
-87.713	113.007	0.179	0.214
-86.699	-52.970	0.253	0.115
-85.684	351.694	-0.088	-0.171
-84.670	-1.541	0.241	-0.168
-83.655	-200.000	-0.024	-0.148
-82.640	-74.796	0.055	0.019
-81.626	-200.000	0.040	-0.208
-80.611	-21.195	0.304	-0.184
-79.597	-1.289	0.338	-0.235
-78.582	-97.297	0.153	0.039
-77.567	-200.000	-0.019	-0.097
-76.553	800.000	-0.028	0.087
-75.538	-200.000	-0.063	-0.296
-74.524	-5.263	-0.238	0.161
-73.509	-107.529	0.216	0.047
-72.494	-200.000	-0.055	0.309
-71.480	-150.463	0.439	0.033
-70.465	-51.144	0.333	0.154
-69.451	-71.900	0.209	0.077
-68.436	22.330	-0.179	0.145
-67.422	-50.833	-0.186	0.086
-66.407	57.927	0.160	0.154
-65.392	-200.000	0.248	0.000
-64.378	-110.919	0.162	-0.033
-63.363	-200.000	0.030	-0.399
-62.349	-23.471	0.289	-0.171
-61.334	-27.092	-0.746	-0.428
-60.319	800.000	0.150	0.617
-59.305	-200.000	-0.223	-1.134
-58.290	398.297	0.531	1.094
-57.276	552.488	0.513	1.214
-56.261	-200.000	98.403	593.369
-55.246	558.651	1392.210	3309.669
-54.232	153.500	2590.837	3495.226
-53.217	115.643	2158.620	2600.222
-52.203	46.373	1613.706	1473.925
-51.188	38.077	1350.677	1183.609
-50.173	34.769	1308.055	1126.744
-49.159	58.271	1358.065	1311.395
-48.144	62.107	1376.266	1351.879
-47.130	38.292	1330.150	1166.714
-46.115	34.658	1312.213	1129.491
-45.100	34.423	1307.541	1124.041
-44.086	34.348	1305.235	1121.572
-43.071	34.359	1302.709	1119.419
-42.057	34.281	1301.212	1117.635
-41.042	34.338	1299.140	1116.142
-40.027	34.268	1297.641	1114.401
-39.013	34.482	1295.747	1113.981
-37.998	34.448	1293.700	1111.977
-36.984	34.438	1292.237	1110.620
-35.969	34.449	1290.459	1109.108
-34.954	34.535	1288.461	1107.845
-33.940	34.553	1287.525	1107.101
-32.925	34.629	1285.803	1106.020
-31.911	34.589	1284.871	1104.942
-30.896	34.603	1283.229	1103.567
-29.881	34.617	1282.153	1102.681
-28.867	34.596	1280.666	1101.232
-27.852	34.634	1279.292	1100.227
-26.838	34.695	1277.735	1099.197
-25.823	34.637	1276.390	1097.665
-24.809	34.652	1275.007	1096.518
-23.794	34.586	1273.631	1094.908
-22.779	34.653	1272.473	1094.257
-21.765	34.659	1271.015	1092.993
-20.750	34.519	1270.413	1091.630
-19.736	34.433	1268.724	1089.645
-18.721	34.486	1267.377	1088.747
-17.706	34.424	1266.464	1087.565
-16.692	34.282	1265.287	1085.701
-15.677	34.539	1263.984	1086.004
-14.663	34.448	1263.134	1084.713
-13.648	34.433	1262.114	1083.708
-12.633	34.400	1261.270	1082.755
-11.619	34.375	1260.436	1081.856
-10.604	34.462	1259.398	1081.412
-9.590	34.445	1258.198	1080.245
-8.575	34.344	1257.558	1079.077
-7.560	34.432	1256.416	1078.555
-6.546	34.480	1255.270	1077.799
-5.531	34.283	1254.815	1076.255
-4.517	34.460	1253.457	1076.045
-3.502	34.460	1252.970	1075.582
-2.487	34.337	1252.315	1074.283
-1.473	34.402	1247.644	1070.600
-0.458	32.831	1233.278	1049.503
0.556	29.397	1215.081	1010.757
1.571	25.741	1220.826	995.275
2.586	24.757	1236.123	1002.150
3.600	24.061	1225.334	989.448
4.615	17.570	1152.627	896.599
5.629	7.047	1074.351	783.753
6.644	2.239	1052.671	744.489
7.659	1.851	1050.255	740.831
8.673	1.727	1048.807	739.141
9.688	1.634	1047.612	737.781
10.702	2.157	1046.648	739.568
11.717	8.925	1056.278	779.294
12.731	19.148	1070.841	840.095
13.746	23.909	1076.481	867.736
14.761	24.809	1077.444	872.831
15.775	24.870	1076.911	872.620
16.790	24.630	1076.031	870.660
17.804	24.546	1075.325	869.600
18.819	24.765	1074.789	870.156
19.834	24.853	1074.763	870.486
20.848	24.812	1074.192	869.750
21.863	24.883	1073.293	869.288
22.877	24.732	1073.368	868.540
23.892	24.684	1072.488	867.516
24.907	24.764	1071.617	867.123
25.921	24.787	1070.222	866.030
26.936	24.699	1069.182	864.683
27.950	24.714	1067.518	863.336
28.965	24.598	1065.656	861.193
29.980	24.675	1063.956	860.114
30.994	24.965	1063.101	860.741
32.009	24.705	1062.590	859.001
33.023	24.455	1061.904	857.173
34.038	24.670	1060.696	857.152
35.053	24.818	1059.772	857.036
36.067	24.749	1059.432	856.357
37.082	24.907	1058.589	856.355
38.096	25.048	1057.595	856.149
39.111	25.004	1057.314	855.636
40.126	24.862	1056.103	853.902
41.140	24.541	1054.092	850.672
42.155	24.286	1053.152	848.625
43.169	24.426	1051.596	847.964
44.184	24.469	1050.891	847.522
45.199	24.306	1049.838	845.824
46.213	24.443	1048.723	845.499
47.228	24.579	1048.461	845.861
48.242	24.657	1047.470	845.355
49.257	24.688	1046.775	844.866
50.271	24.869	1045.423	844.553
51.286	24.915	1045.237	844.544
52.301	24.854	1044.578	843.652
53.315	24.846	1043.014	842.273
54.330	24.733	1042.852	841.537
55.344	24.713	1042.196	840.842
56.359	24.722	1041.255	840.049
57.374	24.512	1039.917	837.910
58.388	24.492	1038.887	836.911
59.403	24.470	1038.285	836.250
60.417	24.371	1037.639	835.192
61.432	24.474	1036.973	835.063
62.447	24.482	1036.534	834.673
63.461	24.522	1036.076	834.417
64.476	24.445	1034.904	833.040
65.490	24.372	1033.676	831.640
66.505	24.522	1033.045	831.755
67.520	24.506	1032.613	831.260
68.534	24.351	1031.041	829.201
69.549	23.941	1030.517	826.802
70.563	23.999	1029.281	826.004
71.578	24.090	1028.304	825.570
72.593	23.816	1027.897	823.901
73.607	24.032	1027.094	824.183
74.622	24.343	1026.544	825.107
75.636	24.493	1025.877	825.192
76.651	24.047	1025.330	822.619
77.666	24.169	1024.481	822.429
78.680	24.220	1023.609	821.890
79.695	24.329	1022.790	821.663
80.709	24.354	1022.401	821.391
81.724	24.458	1021.362	820.964
82.739	24.425	1020.617	820.142
83.753	24.905	1020.164	821.907
84.768	25.100	1019.211	821.960
85.782	25.167	1018.544	821.659
86.797	25.080	1017.727	820.529
87.812	24.940	1016.481	818.811
88.826	25.008	1015.543	818.291
89.841	25.018	1015.132	817.933
90.855	25.097	1013.812	817.159
91.870	25.145	1012.717	816.424
92.884	24.974	1011.604	814.676
93.899	24.952	1010.725	813.796
94.914	25.048	1009.866	813.469
95.928	24.928	1008.991	812.149
96.943	24.709	1007.493	809.880
97.957	24.504	1006.205	807.841
98.972	24.261	1005.336	805.975
99.987	24.452	1005.332	806.763
101.001	24.853	1004.062	807.482
102.016	24.827	1003.288	806.674
103.030	24.744	1002.169	805.326
104.045	24.512	1001.561	803.723
105.060	24.335	1000.407	801.932
106.074	24.486	1000.002	802.215
107.089	24.710	999.634	802.853
108.103	24.785	998.292	802.042
109.118	24.590	996.970	800.033
110.133	24.530	996.417	799.254
111.147	24.328	994.727	796.922
112.162	24.271	993.750	795.815
113.176	24.522	993.121	796.362
114.191	24.337	992.884	795.277
115.206	24.044	991.634	792.899
116.220	24.162	990.648	792.565
117.235	24.284	989.672	792.256
118.249	24.266	988.973	791.545
119.264	24.104	988.821	790.638
120.279	24.103	988.117	789.996
121.293	24.166	987.152	789.438
122.308	24.255	986.241	789.030
123.322	24.108	985.259	787.525
124.337	24.118	983.582	786.159
125.352	23.563	982.500	782.777
126.366	23.523	981.485	781.723
127.381	24.264	981.242	784.723
128.395	24.728	980.760	786.313
129.410	24.690	980.183	785.613
130.424	24.672	979.228	784.699
131.439	24.785	977.886	784.049
132.454	24.758	977.432	783.496
133.468	24.662	976.364	782.152
134.483	24.764	975.971	782.215
135.497	25.064	974.950	782.636
136.512	24.905	974.472	781.490
137.527	25.044	973.275	781.064
138.541	24.945	972.680	780.088
139.556	24.931	971.879	779.317
140.570	25.163	970.958	779.519
141.585	25.079	970.077	778.375
142.600	25.033	969.065	777.294
143.614	25.183	968.786	777.654
144.629	25.248	968.141	777.350
145.643	25.130	966.450	775.409
146.658	24.939	965.306	773.602
147.673	24.936	963.948	772.430
148.687	24.872	962.993	771.320
149.702	24.772	962.202	770.188
150.716	24.686	961.337	769.057
151.731	24.932	960.711	769.545
152.746	25.086	960.272	769.790
153.760	25.009	959.808	769.020
154.775	25.133	959.041	768.866
155.789	25.129	957.833	767.813
156.804	25.223	956.479	767.062
157.819	25.192	955.910	766.407
158.833	25.382	955.566	766.872
159.848	25.486	953.916	765.926
160.862	25.078	952.986	763.372
161.877	24.979	952.664	762.627
162.892	25.158	951.269	762.204
163.906	25.219	950.252	761.579
164.921	25.028	949.519	760.115
165.935	25.246	948.176	759.897
166.950	25.087	947.828	758.876
167.964	25.146	947.063	758.448
168.979	24.980	945.936	756.774
169.994	24.914	944.880	755.582
171.008	25.164	944.370	756.163
172.023	25.239	943.316	755.571
173.037	24.901	942.678	753.568
174.052	24.819	941.513	752.228
175.067	24.895	941.090	752.140
176.081	25.009	940.317	751.934
177.096	25.002	939.934	751.533
178.110	24.548	938.768	748.630
179.125	24.402	938.355	747.625
180.140	24.582	937.750	747.830
181.154	24.601	937.781	747.870
182.169	25.031	937.602	749.456
183.183	25.041	937.549	749.389
184.198	25.100	935.845	748.209
185.213	25.123	935.096	747.642
186.227	25.138	934.845	747.436
187.242	25.123	934.095	746.705
188.256	25.207	933.641	746.629
189.271	25.185	933.000	745.958
190.286	24.900	931.505	743.514
191.300	24.281	929.899	739.598
192.315	23.590	928.437	735.507
193.329	23.566	928.141	735.109
194.344	24.293	928.753	738.540
195.359	24.918	928.607	740.948
196.373	25.028	927.954	740.813
197.388	25.137	926.894	740.352
198.402	24.919	926.899	739.389
199.417	25.075	925.530	738.875
200.432	24.748	924.873	736.940
201.446	24.633	924.027	735.727
202.461	24.666	923.513	735.386
203.475	23.916	921.458	730.608
204.490	23.165	920.007	726.313
205.504	23.998	920.715	730.226
206.519	24.553	920.454	732.230
207.534	24.638	920.567	732.605
208.548	25.001	920.056	733.620
209.563	24.958	918.565	732.190
210.577	24.872	918.344	731.595
211.592	25.200	918.077	732.659
212.607	25.114	917.687	731.933
213.621	25.268	916.551	731.589
214.636	25.230	916.178	731.072
215.650	25.099	915.545	729.969
216.665	25.225	914.673	729.720
217.680	25.103	913.661	728.355
218.694	24.887	912.209	726.255
219.709	24.604	912.195	725.032
220.723	24.965	911.549	725.917
221.738	24.903	911.349	725.444
222.753	24.872	910.478	724.558
223.767	25.180	909.857	725.245
224.782	25.116	910.341	725.312
225.796	25.231	909.001	724.644
226.811	24.429	907.709	720.311
227.826	24.016	906.266	717.439
228.840	24.204	905.821	717.783
229.855	24.171	905.468	717.303
230.869	23.928	904.180	715.244
231.884	24.383	904.019	716.884
232.899	24.978	904.237	719.381
233.913	25.005	903.537	718.871
234.928	24.962	902.837	718.075
235.942	24.862	902.428	717.287
236.957	24.548	901.460	715.199
237.972	24.459	901.171	714.549
238.986	24.595	900.353	714.379
240.001	24.675	899.597	714.037
241.015	24.773	899.418	714.223
242.030	24.980	898.852	714.535
243.045	25.029	898.508	714.394
244.059	25.184	897.557	714.193
245.074	24.984	896.764	712.705
246.088	24.571	895.780	710.217
247.103	25.043	895.429	711.750
248.117	25.550	895.356	713.641
249.132	25.580	895.519	713.830
250.147	25.821	894.883	714.213
251.161	25.815	894.347	713.699
252.176	25.836	893.769	713.259
253.190	25.894	893.039	712.844
254.205	26.115	892.499	713.220
255.220	25.972	892.213	712.367
256.234	25.909	890.904	711.007
257.249	25.937	890.268	710.549
258.263	25.877	889.820	709.891
259.278	25.880	889.368	709.481
260.293	25.964	888.500	709.054
261.307	25.851	887.924	708.090
262.322	25.670	887.094	706.654
263.336	24.862	884.776	701.577
264.351	23.782	883.398	696.195
265.366	24.069	883.011	696.952
266.380	25.110	883.770	701.567
267.395	25.502	883.577	702.885
268.409	25.452	882.757	701.974
269.424	25.725	882.198	702.532
270.439	25.606	881.791	701.683
271.453	25.641	881.371	701.423
272.468	25.903	880.880	701.991
273.482	25.992	880.369	701.868
274.497	25.471	879.129	698.790
275.512	25.089	878.288	696.578
276.526	25.499	878.377	698.179
277.541	25.802	877.870	698.888
278.555	25.551	877.124	697.260
279.570	25.411	876.048	695.799
280.585	25.533	875.451	695.736
281.599	25.481	875.083	695.181
282.614	25.028	873.459	692.082
283.628	24.921	873.221	691.418
284.643	25.337	872.853	692.669
285.657	24.924	871.839	690.215
286.672	24.688	870.905	688.505
287.687	25.354	870.619	690.781
288.701	25.521	870.009	690.879
289.716	25.050	869.241	688.395
290.730	24.926	868.987	687.660
291.745	24.770	867.905	686.145
292.760	24.935	867.995	686.785
293.774	25.857	868.318	690.517
294.789	26.309	867.900	691.854
295.803	26.302	867.357	691.335
296.818	26.317	866.653	690.768
297.833	25.891	865.692	688.314
298.847	25.806	864.888	687.290
299.862	26.121	864.839	688.391
300.876	26.220	864.392	688.352
301.891	26.004	863.866	687.050
302.906	25.849	862.337	685.185
303.920	25.952	862.261	685.454
304.935	26.184	862.313	686.315
305.949	26.256	861.392	685.798
306.964	25.897	861.098	684.141
307.979	26.113	859.971	684.002
308.993	26.340	859.805	684.671
310.008	26.373	859.368	684.388
311.022	26.111	858.626	682.745
312.037	26.020	857.852	681.723
313.052	25.701	857.205	679.943
314.066	24.960	855.464	675.708
315.081	24.500	854.736	673.340
316.095	25.372	855.329	677.035
317.110	25.915	854.747	678.561
318.125	24.987	853.563	674.071
319.139	24.060	851.752	669.097
320.154	24.080	851.495	668.910
321.168	24.917	851.704	672.162
322.183	25.573	852.107	674.882
323.197	25.788	851.954	675.506
324.212	25.945	851.235	675.465
325.227	26.015	850.801	675.323
326.241	25.773	849.855	673.607
327.256	25.792	849.527	673.360
328.270	25.739	848.630	672.390
329.285	25.539	847.887	670.996
330.300	25.243	847.318	669.382
331.314	25.545	846.774	670.020
332.329	26.044	846.620	671.698
333.343	26.172	846.409	671.947
334.358	26.054	845.806	670.969
335.373	26.299	845.102	671.262
336.387	26.447	845.587	672.138
337.402	26.504	845.653	672.342
338.416	26.488	845.109	671.790
339.431	26.632	844.455	671.745
340.446	26.810	844.305	672.226
341.460	26.542	843.913	670.863
342.475	26.486	843.220	670.045
343.489	26.587	842.694	669.940
344.504	26.776	842.393	670.341
345.519	27.020	841.890	670.783
346.533	26.949	841.727	670.332
347.548	26.842	841.297	669.534
348.562	26.969	840.860	669.596
349.577	26.848	840.235	668.592
350.592	26.834	839.462	667.867
351.606	26.792	838.877	667.188
352.621	26.636	837.867	665.752
353.635	26.601	836.891	664.789
354.650	26.122	835.234	661.659
355.665	25.057	833.824	656.585
356.679	25.422	834.019	658.016
357.694	25.872	833.349	659.076
358.708	25.824	833.034	658.595
359.723	26.188	833.270	660.053
360.738	26.481	832.630	660.558
361.752	26.704	832.009	660.820
362.767	27.064	831.427	661.611
363.781	27.216	831.353	662.045
364.796	27.304	831.301	662.267
365.810	27.194	830.934	661.517
366.825	27.338	830.065	661.290
367.840	27.021	829.452	659.592
368.854	26.609	828.222	657.060
369.869	26.657	828.259	657.203
370.883	26.697	827.662	656.820
371.898	26.461	827.422	655.713
372.913	26.639	827.127	656.066
373.927	26.722	826.586	655.879
374.942	26.990	825.720	656.103
375.956	26.863	825.545	655.447
376.971	27.116	825.159	655.996
377.986	27.198	825.235	656.296
379.000	27.147	824.471	655.446
380.015	27.082	823.476	654.363
381.029	27.198	823.179	654.485
382.044	27.101	823.321	654.193
383.059	27.380	822.319	654.340
384.073	27.279	821.510	653.277
385.088	27.256	821.014	652.742
386.102	26.841	820.280	650.612
387.117	26.765	819.651	649.784
388.132	26.493	818.790	648.068
389.146	26.261	817.438	646.114
390.161	26.543	817.757	647.316
391.175	27.117	817.423	649.046
392.190	26.636	816.314	646.390
393.205	25.302	814.445	640.100
394.219	23.678	812.725	632.907
395.234	23.752	812.205	632.712
396.248	25.261	813.908	639.364
397.263	26.721	814.708	645.136
398.278	26.647	814.379	644.557
399.292	26.571	813.457	643.498
400.307	26.498	812.955	642.784
401.321	26.770	812.342	643.211
402.336	26.972	812.664	644.124
403.350	27.459	812.320	645.521
404.365	27.738	812.378	646.499
405.380	27.953	811.822	646.759
406.394	28.099	810.997	646.561
407.409	27.948	810.806	645.820
408.423	27.887	810.493	645.296
409.438	27.766	810.287	644.650
410.453	28.048	809.592	645.034
411.467	27.855	809.007	643.830
412.482	27.913	809.036	644.000
413.496	27.950	808.677	643.787
414.511	28.101	808.250	643.924
415.526	27.915	807.768	642.828
416.540	27.934	806.507	641.835
417.555	27.604	806.063	640.266
418.569	27.771	805.569	640.400
419.584	27.661	805.160	639.633
420.599	27.484	804.853	638.712
421.613	109.086	1282.125	1447.155
422.628	94.194	1351.659	1447.295
