DTS Sentinel unit serial number:	SN413079Multiplexer serial number:	ORYXHardware model number:	OX4-SRSoftware version number:	ORYX F/W v4.00 Oryx Data Collector v3.7.2.0data status	okinstallation	princeton_trtdifferential loss correction	single-endedforward channel	channel 1reverse channel	N/Adate	2019/09/11time	23:16:11forward acquisition time	60.00reverse acquisition time	0.00gamma	496.2192k internal	0.2318k external	0.2318temperature offset calibration	1.0063default loss term (dB/km)	0.3790temperature slope calibration	1.0000multiplexer offset coefficient	1.0000multiplexer slope coefficient	1.0000fibre end	0.00T internal ref (°C)	34.42T ext. ref 1 (°C)	1.87T ext. ref 2 (°C)	28.82length (m)	temperature (°C)	Stokes	anti-Stokes-747.200	-115.500	-0.300	0.057
-746.185	6.863	0.272	0.205
-745.171	17.142	0.235	0.189
-744.156	-31.349	-0.069	-0.039
-743.142	-145.448	-0.255	-0.023
-742.127	-200.000	-0.006	-0.097
-741.112	354.594	0.134	0.269
-740.098	126.949	-0.169	0.217
-739.083	94.119	0.145	0.167
-738.069	-136.228	0.320	0.038
-737.054	368.938	-0.127	0.259
-736.039	-200.000	-0.009	-0.080
-735.025	-200.000	-0.094	0.573
-734.010	-95.928	-0.244	-0.066
-732.996	800.000	-0.077	-0.217
-731.981	173.414	0.085	-0.123
-730.966	-144.551	0.272	0.025
-729.952	101.990	-0.065	0.077
-728.937	-165.212	0.154	-0.007
-727.923	-200.000	0.023	0.140
-726.908	-81.973	-0.203	-0.067
-725.894	26.888	-0.234	-0.198
-724.879	152.886	-0.182	0.251
-723.864	800.000	0.039	0.169
-722.850	800.000	0.027	0.116
-721.835	-200.000	0.028	-0.267
-720.821	-178.148	-0.331	-0.008
-719.806	113.983	-0.132	0.162
-718.791	-200.000	-0.002	0.038
-717.777	-200.000	-0.021	-0.221
-716.762	-142.480	-0.244	-0.024
-715.748	-190.393	0.257	0.003
-714.733	-200.000	0.034	-0.286
-713.718	-200.000	-0.040	-0.330
-712.704	-200.000	0.034	0.321
-711.689	-200.000	-0.016	0.091
-710.675	360.438	0.033	0.067
-709.660	476.998	0.065	-0.148
-708.645	415.171	-0.250	-0.538
-707.631	57.448	-0.123	0.121
-706.616	-99.005	-0.089	-0.023
-705.602	800.000	-0.098	-0.318
-704.587	93.933	0.116	-0.133
-703.572	-102.773	-0.337	0.081
-702.558	-70.385	0.029	-0.011
-701.543	57.622	-0.107	-0.105
-700.529	192.390	0.049	0.074
-699.514	-22.589	0.206	0.126
-698.499	33.750	0.120	0.105
-697.485	18.725	-0.192	-0.155
-696.470	83.146	-0.220	0.242
-695.456	64.121	0.224	-0.228
-694.441	-138.162	0.121	0.014
-693.426	-200.000	0.028	-0.156
-692.412	91.581	-0.170	0.193
-691.397	-49.252	0.384	0.185
-690.383	35.936	-0.137	0.121
-689.368	-137.030	-0.232	-0.027
-688.354	498.138	-0.131	0.304
-687.339	-25.943	-0.235	0.140
-686.324	-5.349	0.164	-0.114
-685.310	-62.479	0.103	-0.043
-684.295	800.000	-0.097	-0.277
-683.281	-81.517	-0.200	-0.066
-682.266	-179.913	0.215	-0.005
-681.251	85.874	-0.088	0.097
-680.237	-200.000	-0.017	-0.180
-679.222	-200.000	-0.018	0.106
-678.208	800.000	-0.054	-0.179
-677.193	31.387	-0.148	-0.129
-676.178	151.743	0.099	-0.136
-675.164	273.730	-0.258	-0.461
-674.149	-200.000	-0.004	0.121
-673.135	-200.000	-0.069	0.313
-672.120	-75.611	0.159	0.057
-671.105	800.000	0.024	0.082
-670.091	21.506	-0.138	-0.113
-669.076	-161.711	-0.325	-0.017
-668.062	-46.678	-0.111	-0.055
-667.047	-200.000	0.001	0.210
-666.032	199.608	-0.067	-0.103
-665.018	-149.599	-0.313	-0.025
-664.003	323.110	-0.233	-0.447
-662.989	145.629	0.080	0.108
-661.974	287.428	-0.056	-0.102
-660.959	-200.000	0.025	0.154
-659.945	50.378	0.233	0.222
-658.930	-47.348	-0.192	0.094
-657.916	-35.861	0.195	-0.107
-656.901	-75.633	0.190	0.068
-655.886	49.836	0.118	0.112
-654.872	495.621	-0.026	0.060
-653.857	526.291	0.070	-0.165
-652.843	-31.845	-0.237	0.134
-651.828	800.000	-0.073	-0.285
-650.814	-49.104	0.359	-0.173
-649.799	3.289	-0.296	0.218
-648.784	-100.817	-0.223	-0.055
-647.770	-70.621	0.246	0.094
-646.755	54.582	0.148	0.144
-645.741	-55.733	0.217	-0.098
-644.726	413.621	0.044	0.094
-643.711	800.000	0.052	-0.197
-642.697	240.873	-0.065	0.109
-641.682	544.660	0.056	-0.135
-640.668	-154.667	0.234	-0.016
-639.653	288.883	0.036	0.065
-638.638	114.388	-0.152	0.186
-637.624	58.885	0.151	-0.149
-636.609	-150.133	0.364	-0.028
-635.595	-30.308	0.337	-0.193
-634.580	800.000	0.033	-0.094
-633.565	-143.646	-0.433	0.041
-632.551	593.240	0.068	-0.170
-631.536	-47.142	0.232	-0.114
-630.522	-21.551	0.164	-0.101
-629.507	59.139	-0.065	0.064
-628.492	-2.533	-0.033	-0.023
-627.478	239.728	0.188	0.316
-626.463	-165.078	-0.159	0.007
-625.449	68.825	-0.179	0.185
-624.434	224.408	-0.238	-0.387
-623.419	-70.351	0.107	-0.041
-622.405	165.046	-0.118	0.169
-621.390	-79.269	-0.065	0.022
-620.376	-200.000	0.032	-0.357
-619.361	200.872	-0.200	-0.310
-618.346	338.531	-0.137	0.270
-617.332	-122.518	0.063	-0.010
-616.317	-173.970	0.365	-0.011
-615.303	-200.000	0.057	-0.338
-614.288	-20.456	-0.217	0.134
-613.273	396.144	-0.128	0.269
-612.259	-200.000	0.024	-0.115
-611.244	-109.925	-0.148	0.031
-610.230	-27.123	-0.191	0.112
-609.215	-154.528	-0.105	0.007
-608.201	7.623	0.298	0.224
-607.186	55.172	-0.119	0.116
-606.171	-68.643	-0.141	-0.055
-605.157	159.202	0.256	0.359
-604.142	-148.417	0.207	0.017
-603.128	-200.000	0.009	0.128
-602.113	-27.432	0.123	0.072
-601.098	-200.000	-0.066	-0.375
-600.084	-113.463	0.269	-0.053
-599.069	800.000	-0.074	-0.265
-598.055	105.141	0.208	-0.247
-597.040	-15.702	0.320	0.206
-596.025	-200.000	0.028	-0.203
-595.011	-118.328	0.296	-0.053
-593.996	-109.343	0.269	-0.057
-592.982	-200.000	-0.059	0.314
-591.967	-200.000	-0.017	-0.128
-590.952	-70.855	-0.204	-0.077
-589.938	84.005	0.188	-0.206
-588.923	76.247	-0.180	-0.192
-587.909	-200.000	-0.020	-0.304
-586.894	413.738	0.099	0.211
-585.879	17.114	-0.195	-0.155
-584.865	199.144	-0.159	0.246
-583.850	-49.418	0.347	-0.166
-582.836	-70.377	-0.257	-0.098
-581.821	-48.132	-0.071	0.034
-580.806	477.138	0.023	0.053
-579.792	122.087	-0.086	-0.108
-578.777	-121.478	-0.222	0.037
-577.763	-200.000	-0.021	-0.163
-576.748	22.211	0.234	-0.192
-575.733	-200.000	-0.006	0.089
-574.719	-200.000	0.020	-0.266
-573.704	-44.467	0.173	0.087
-572.690	-73.091	0.180	0.067
-571.675	-24.454	0.332	-0.199
-570.661	-200.000	0.040	0.454
-569.646	-200.000	0.009	0.360
-568.631	-95.602	0.382	0.103
-567.617	-109.679	-0.242	0.051
-566.602	312.760	-0.135	-0.256
-565.588	800.000	-0.043	0.156
-564.573	204.639	0.115	-0.179
-563.558	106.937	-0.176	-0.211
-562.544	-29.797	-0.148	-0.085
-561.529	800.000	0.050	0.190
-560.515	-64.910	0.153	-0.062
-559.500	691.981	-0.069	0.181
-558.485	602.518	-0.029	-0.072
-557.471	-126.181	0.249	-0.038
-556.456	800.000	-0.042	-0.119
-555.442	-64.419	0.276	0.113
-554.427	-101.954	0.434	-0.105
-553.412	-200.000	-0.062	0.320
-552.398	-200.000	-0.045	0.418
-551.383	-128.352	-0.286	-0.041
-550.369	-200.000	0.019	-0.130
-549.354	-24.925	-0.015	0.009
-548.339	-32.653	-0.420	0.235
-547.325	265.447	-0.075	0.131
-546.310	-151.278	-0.214	-0.016
-545.296	-181.186	0.313	0.006
-544.281	800.000	0.041	-0.169
-543.266	688.756	-0.093	0.243
-542.252	800.000	-0.026	-0.086
-541.237	-109.388	0.292	0.062
-540.223	180.669	-0.052	-0.077
-539.208	234.148	0.197	-0.326
-538.193	57.401	-0.181	-0.177
-537.179	-45.706	0.185	0.092
-536.164	264.975	0.149	0.260
-535.150	-200.000	-0.004	-0.087
-534.135	128.353	-0.223	0.285
-533.121	11.038	-0.350	0.269
-532.106	62.097	0.102	-0.102
-531.091	21.984	-0.231	-0.189
-530.077	-140.574	0.142	0.015
-529.062	52.893	-0.095	0.091
-528.048	152.053	0.124	0.170
-527.033	-61.317	0.191	0.081
-526.018	123.938	-0.088	0.111
-525.004	253.178	-0.116	0.199
-523.989	-30.549	0.069	-0.039
-522.975	-200.000	-0.020	-0.202
-521.960	261.013	0.095	0.166
-520.945	-200.000	-0.016	0.415
-519.931	136.865	-0.210	0.276
-518.916	-190.936	0.253	-0.003
-517.902	-200.000	-0.004	0.087
-516.887	28.275	-0.024	0.020
-515.872	-131.609	-0.159	-0.021
-514.858	-200.000	-0.008	0.198
-513.843	454.973	-0.042	-0.093
-512.829	1.808	-0.137	-0.099
-511.814	157.279	-0.108	0.150
-510.799	436.196	0.078	-0.171
-509.785	-78.336	-0.344	-0.118
-508.770	-72.636	-0.329	0.122
-507.756	-101.272	0.095	0.023
-506.741	579.883	0.079	-0.194
-505.726	47.607	0.168	-0.157
-504.712	24.784	0.080	-0.066
-503.697	486.175	-0.067	0.153
-502.683	224.640	0.240	-0.389
-501.668	56.671	0.055	0.054
-500.653	800.000	-0.068	-0.240
-499.639	-49.251	0.315	-0.151
-498.624	176.530	0.166	0.242
-497.610	-55.277	-0.311	-0.140
-496.595	-200.000	0.014	-0.103
-495.581	232.769	-0.250	-0.412
-494.566	-52.607	-0.130	-0.060
-493.551	129.264	-0.031	0.040
-492.537	544.802	-0.237	-0.567
-491.522	-94.226	0.208	0.057
-490.508	10.348	-0.356	-0.272
-489.493	800.000	-0.092	-0.256
-488.478	183.784	0.179	0.266
-487.464	-130.771	0.447	-0.060
-486.449	162.364	-0.128	-0.179
-485.435	122.457	0.227	-0.284
-484.420	12.136	0.191	-0.147
-483.405	-140.638	-0.378	-0.039
-482.391	49.476	-0.100	0.095
-481.376	-200.000	0.001	-0.058
-480.362	800.000	-0.021	0.068
-479.347	-200.000	-0.058	-0.257
-478.332	-200.000	0.015	-0.364
-477.318	-200.000	-0.008	0.107
-476.303	-25.623	0.123	-0.073
-475.289	-200.000	0.005	-0.140
-474.274	56.560	0.226	-0.220
-473.259	800.000	0.080	0.283
-472.245	-43.255	-0.376	0.191
-471.230	183.073	-0.082	0.121
-470.216	87.656	-0.092	0.102
-469.201	800.000	-0.077	-0.248
-468.186	800.000	0.098	-0.319
-467.172	-14.375	0.300	-0.193
-466.157	45.198	-0.273	0.252
-465.143	800.000	0.022	0.089
-464.128	800.000	-0.095	0.396
-463.113	623.931	0.124	0.314
-462.099	800.000	0.046	0.169
-461.084	800.000	0.002	-0.006
-460.070	29.136	0.190	-0.162
-459.055	800.000	-0.143	0.428
-458.040	-200.000	-0.041	0.206
-457.026	-66.427	0.183	-0.073
-456.011	800.000	0.044	0.139
-454.997	700.553	0.113	-0.296
-453.982	800.000	0.061	-0.183
-452.968	124.781	-0.154	-0.193
-451.953	18.024	0.063	-0.050
-450.938	-124.394	-0.379	0.059
-449.924	-10.555	-0.145	0.096
-448.909	-200.000	0.031	-0.155
-447.895	-130.379	0.125	0.017
-446.880	-136.059	-0.108	0.013
-445.865	-200.000	-0.279	0.000
-444.851	800.000	0.072	-0.245
-443.836	138.169	0.130	-0.170
-442.822	26.301	-0.506	-0.423
-441.807	752.129	0.045	-0.121
-440.792	-17.042	-0.364	-0.230
-439.778	-136.454	0.070	0.008
-438.763	-98.953	0.337	-0.086
-437.749	-80.287	-0.070	0.023
-436.734	-56.560	0.095	0.042
-435.719	-200.000	0.018	0.291
-434.705	-15.885	0.368	-0.234
-433.690	72.069	-0.165	0.172
-432.676	-200.000	0.005	-0.266
-431.661	313.496	0.072	0.136
-430.646	37.207	0.030	-0.027
-429.632	10.899	0.208	0.159
-428.617	100.045	-0.177	-0.205
-427.603	74.545	-0.146	0.153
-426.588	152.903	0.100	0.137
-425.573	9.179	0.118	0.089
-424.559	43.565	-0.152	-0.139
-423.544	56.794	0.295	0.287
-422.530	-84.478	0.152	-0.048
-421.515	36.108	-0.196	-0.173
-420.500	131.758	0.165	-0.213
-419.486	27.550	-0.115	-0.097
-418.471	82.996	0.114	-0.124
-417.457	183.521	-0.068	0.101
-416.442	3.448	-0.139	0.101
-415.428	80.066	0.134	0.143
-414.413	-91.952	-0.089	0.025
-413.398	-115.798	-0.189	0.035
-412.384	32.422	-0.080	-0.069
-411.369	651.878	-0.047	0.121
-410.355	-163.514	-0.021	0.001
-409.340	73.816	-0.120	0.126
-408.325	-160.635	0.297	-0.016
-407.311	214.981	-0.160	-0.254
-406.296	800.000	0.076	-0.326
-405.282	-106.001	-0.226	0.051
-404.267	-117.337	0.338	-0.061
-403.252	-143.526	0.471	0.045
-402.238	-40.543	0.335	0.174
-401.223	400.073	-0.135	-0.283
-400.209	603.023	-0.108	0.268
-399.194	-200.000	0.004	-0.146
-398.179	52.118	-0.193	-0.183
-397.165	-39.488	0.204	-0.106
-396.150	-11.315	-0.234	-0.154
-395.136	-18.502	0.089	-0.056
-394.121	-200.000	-0.039	0.352
-393.106	-36.046	-0.250	-0.135
-392.092	-200.000	0.028	-0.179
-391.077	32.323	-0.148	0.127
-390.063	48.781	-0.109	0.102
-389.048	-31.102	-0.089	0.050
-388.033	14.157	-0.115	-0.090
-387.019	-52.565	0.249	-0.115
-386.004	103.729	0.181	-0.212
-384.990	460.566	0.059	-0.131
-383.975	468.530	-0.224	0.501
-382.960	-25.508	0.387	-0.228
-381.946	205.061	-0.030	-0.046
-380.931	446.138	0.089	-0.195
-379.917	-200.000	-0.025	-0.174
-378.902	800.000	-0.068	0.260
-377.888	176.016	-0.246	0.356
-376.873	82.345	-0.244	0.264
-375.858	98.300	-0.117	0.134
-374.844	-8.271	-0.217	0.146
-373.829	-148.125	0.284	-0.023
-372.815	-200.000	0.026	-0.322
-371.800	-48.779	0.056	-0.027
-370.785	-21.643	-0.354	-0.215
-369.771	161.141	-0.058	0.082
-368.756	-130.845	0.459	-0.061
-367.742	-9.503	-0.062	0.041
-366.727	84.782	-0.052	0.057
-365.712	-200.000	0.052	0.357
-364.698	190.272	-0.154	0.231
-363.683	800.000	0.075	0.209
-362.669	247.381	-0.083	0.140
-361.654	-200.000	0.022	0.333
-360.639	-157.352	-0.187	-0.011
-359.625	-200.000	-0.029	0.194
-358.610	-56.607	-0.238	0.105
-357.596	-10.824	0.184	-0.122
-356.581	800.000	0.038	0.123
-355.566	800.000	-0.058	-0.179
-354.552	58.106	-0.314	-0.307
-353.537	-114.185	-0.308	-0.059
-352.523	800.000	-0.078	0.231
-351.508	660.247	0.045	0.114
-350.493	-104.379	0.210	0.049
-349.479	-200.000	0.027	-0.198
-348.464	-145.975	-0.304	0.027
-347.450	-17.564	-0.182	0.114
-346.435	-44.460	-0.156	-0.078
-345.420	30.675	-0.217	0.185
-344.406	-200.000	-0.011	0.236
-343.391	800.000	0.007	0.022
-342.377	-96.941	0.124	-0.032
-341.362	-70.275	0.121	0.046
-340.348	114.219	-0.155	0.187
-339.333	-143.676	-0.197	-0.019
-338.318	411.606	0.067	0.142
-337.304	-98.164	-0.124	0.032
-336.289	296.638	0.218	0.398
-335.275	-27.678	-0.394	0.228
-334.260	309.771	-0.153	0.285
-333.245	135.623	0.041	0.053
-332.231	-127.713	0.070	0.010
-331.216	-200.000	0.027	0.459
-330.202	800.000	0.073	-0.220
-329.187	-82.883	0.228	0.073
-328.172	-136.592	-0.208	-0.024
-327.158	-1.020	0.200	-0.141
-326.143	177.469	0.161	0.233
-325.129	43.359	-0.031	0.028
-324.114	234.876	0.149	0.244
-323.099	19.758	0.245	-0.196
-322.085	-200.000	0.051	-0.265
-321.070	-200.000	0.008	-0.261
-320.056	-200.000	0.007	-0.226
-319.041	21.771	0.271	0.220
-318.026	-38.139	0.175	0.092
-317.012	800.000	-0.044	0.155
-315.997	438.240	0.107	0.231
-314.983	119.277	-0.034	-0.042
-313.968	11.109	0.130	0.099
-312.953	57.379	0.110	0.107
-311.939	-113.956	-0.388	-0.075
-310.924	-156.977	-0.301	-0.018
-309.910	800.000	-0.155	-0.527
-308.895	-88.048	-0.317	0.095
-307.880	800.000	0.073	-0.289
-306.866	193.492	-0.140	-0.211
-305.851	137.118	0.099	0.128
-304.837	-200.000	-0.076	-0.379
-303.822	-200.000	-0.007	0.109
-302.807	-200.000	0.036	-0.329
-301.793	-53.506	-0.066	0.030
-300.778	-14.406	-0.091	0.059
-299.764	-168.659	-0.129	-0.005
-298.749	651.415	0.013	-0.032
-297.735	800.000	0.093	-0.268
-296.720	-138.935	-0.072	0.008
-295.705	-92.591	0.204	-0.057
-294.691	-200.000	0.022	-0.121
-293.676	800.000	0.031	-0.130
-292.662	-200.000	-0.005	-0.096
-291.647	800.000	0.166	0.555
-290.632	-200.000	0.008	0.180
-289.618	-112.668	-0.289	-0.057
-288.603	46.442	0.154	0.142
-287.589	60.525	-0.064	0.063
-286.574	-151.795	-0.223	0.016
-285.559	-200.000	-0.017	-0.133
-284.545	-200.000	0.001	0.045
-283.530	-39.845	-0.027	-0.014
-282.516	391.840	-0.084	-0.173
-281.501	145.683	-0.081	-0.108
-280.486	537.561	0.062	0.147
-279.472	-200.000	0.011	0.230
-278.457	69.723	0.182	-0.186
-277.443	-200.000	-0.051	-0.318
-276.428	800.000	-0.080	0.229
-275.413	-118.876	-0.221	-0.039
-274.399	332.139	0.145	-0.277
-273.384	-200.000	0.039	0.306
-272.370	249.109	-0.117	0.196
-271.355	70.500	-0.099	0.102
-270.340	166.598	0.067	-0.094
-269.326	-104.388	-0.205	0.047
-268.311	800.000	0.037	-0.115
-267.297	97.103	-0.118	-0.135
-266.282	29.257	-0.254	0.214
-265.267	-116.702	0.094	0.017
-264.253	340.993	-0.062	0.119
-263.238	-93.602	-0.149	-0.041
-262.224	270.493	-0.158	-0.277
-261.209	594.193	0.070	0.172
-260.195	-200.000	-0.007	0.146
-259.180	387.787	-0.090	0.184
-258.165	-4.595	0.153	-0.105
-257.151	-76.798	-0.250	-0.087
-256.136	-44.784	0.252	-0.125
-255.122	-200.000	0.046	0.273
-254.107	-125.845	-0.303	0.045
-253.092	-200.000	-0.055	-0.308
-252.078	184.219	-0.203	-0.298
-251.063	-60.896	0.100	0.042
-250.049	-8.794	0.118	0.078
-249.034	12.895	-0.206	0.158
-248.019	30.347	0.143	0.122
-247.005	52.856	0.068	-0.065
-245.990	-200.000	-0.014	0.288
-244.976	-96.109	0.340	-0.090
-243.961	398.446	-0.156	0.324
-242.946	-155.194	-0.281	-0.018
-241.932	132.581	0.125	-0.161
-240.917	-200.000	-0.030	0.287
-239.903	-156.598	0.314	-0.019
-238.888	129.407	0.212	0.268
-237.873	171.147	0.137	0.196
-236.859	-200.000	0.047	-0.267
-235.844	792.772	0.059	0.161
-234.830	20.446	0.220	0.176
-233.815	258.811	-0.079	-0.135
-232.800	-13.274	0.199	0.128
-231.786	44.797	-0.123	0.113
-230.771	-111.895	-0.168	-0.034
-229.757	730.911	0.099	0.262
-228.742	-45.825	-0.144	0.070
-227.727	-44.053	0.221	0.110
-226.713	-200.000	-0.031	-0.240
-225.698	220.731	-0.177	-0.282
-224.684	108.707	-0.169	-0.200
-223.669	1.756	0.256	-0.183
-222.655	84.839	0.159	0.173
-221.640	-66.645	0.098	0.039
-220.625	-118.272	0.118	0.021
-219.611	-114.065	0.102	0.020
-218.596	382.130	-0.042	0.085
-217.582	-48.229	0.145	0.070
-216.567	412.992	0.088	-0.185
-215.552	-9.154	-0.143	-0.095
-214.538	190.359	-0.062	0.093
-213.523	-200.000	0.019	-0.247
-212.509	-56.357	-0.116	-0.051
-211.494	312.039	0.047	-0.087
-210.479	800.000	0.060	-0.249
-209.465	-200.000	0.006	-0.105
-208.450	-37.325	0.321	0.170
-207.436	340.776	0.098	-0.190
-206.421	-200.000	-0.346	0.001
-205.406	-115.128	-0.112	-0.021
-204.392	-101.343	-0.105	0.025
-203.377	-174.122	0.217	-0.006
-202.363	120.136	-0.157	0.193
-201.348	-168.955	0.254	0.009
-200.333	-47.016	0.068	0.033
-199.319	-121.269	0.017	0.003
-198.304	-200.000	0.020	0.151
-197.290	96.286	0.289	0.327
-196.275	-200.000	0.001	0.058
-195.260	-200.000	-0.009	0.127
-194.246	-200.000	-0.032	0.261
-193.231	37.299	0.299	0.263
-192.217	548.905	-0.162	-0.384
-191.202	-10.814	0.329	0.215
-190.187	800.000	-0.058	-0.198
-189.173	-148.282	0.056	0.005
-188.158	43.109	-0.086	-0.078
-187.144	-74.099	-0.306	-0.110
-186.129	-114.311	0.215	-0.041
-185.114	118.248	-0.134	0.164
-184.100	-200.000	0.010	0.048
-183.085	800.000	0.115	-0.447
-182.071	-45.594	-0.131	0.064
-181.056	68.034	0.159	0.161
-180.042	-200.000	-0.020	0.124
-179.027	800.000	-0.066	0.223
-178.012	-87.703	0.278	0.083
-176.998	481.221	-0.198	0.445
-175.983	-101.518	-0.277	-0.067
-174.969	-85.361	-0.236	-0.073
-173.954	-68.176	0.246	0.095
-172.939	-200.000	-0.017	0.350
-171.925	-200.000	-0.009	-0.557
-170.910	-200.000	-0.039	-0.275
-169.896	9.772	-0.154	-0.116
-168.881	254.697	0.038	0.064
-167.866	27.440	-0.083	-0.069
-166.852	-7.703	-0.139	-0.093
-165.837	-159.638	0.227	-0.012
-164.823	-122.445	-0.270	-0.044
-163.808	111.327	0.264	0.315
-162.793	225.959	-0.234	0.375
-161.779	50.293	0.162	-0.151
-160.764	116.412	-0.154	0.186
-159.750	-114.882	0.388	0.073
-158.735	-105.993	0.326	-0.073
-157.720	188.685	-0.124	-0.184
-156.706	800.000	-0.071	-0.258
-155.691	209.561	0.175	-0.271
-154.677	38.688	0.282	-0.249
-153.662	216.017	-0.199	-0.313
-152.647	-116.102	-0.179	0.033
-151.633	-200.000	0.015	0.138
-150.618	167.814	0.237	0.333
-149.604	-149.810	0.086	-0.007
-148.589	8.946	-0.041	0.030
-147.574	-124.783	0.230	-0.035
-146.560	800.000	0.044	0.125
-145.545	-200.000	0.010	0.057
-144.531	86.604	-0.140	0.153
-143.516	-71.270	0.096	0.036
-142.502	140.859	0.137	-0.179
-141.487	586.163	-0.280	0.680
-140.472	-39.795	0.265	-0.137
-139.458	-77.607	-0.205	0.070
-138.443	170.862	0.220	-0.312
-137.429	253.435	-0.052	0.089
-136.414	-6.254	-0.151	0.102
-135.399	231.751	-0.049	0.080
-134.385	181.337	-0.181	-0.263
-133.370	40.321	0.157	-0.140
-132.356	-141.150	0.265	-0.027
-131.341	-59.221	-0.187	0.080
-130.326	-200.000	-0.018	0.079
-129.312	139.785	0.198	-0.258
-128.297	128.869	0.083	-0.104
-127.283	35.358	0.130	-0.113
-126.268	-200.000	-0.051	0.414
-125.253	535.870	-0.068	0.160
-124.239	800.000	-0.064	0.270
-123.224	190.350	-0.142	0.210
-122.210	294.792	-0.196	0.354
-121.195	263.855	-0.106	0.182
-120.180	-15.348	-0.166	-0.105
-119.166	-200.000	0.025	0.327
-118.151	-200.000	0.065	0.328
-117.137	-15.663	-0.047	-0.030
-116.122	15.332	0.170	-0.132
-115.107	61.167	-0.122	-0.120
-114.093	-43.052	-0.266	-0.133
-113.078	-200.000	-0.020	0.109
-112.064	451.554	-0.092	0.202
-111.049	204.422	-0.209	0.319
-110.034	4.948	-0.192	0.139
-109.020	-115.827	0.265	-0.049
-108.005	-28.192	-0.224	-0.128
-106.991	800.000	-0.053	0.185
-105.976	476.479	0.121	0.270
-104.962	-79.031	-0.152	-0.051
-103.947	48.656	-0.194	-0.180
-102.932	-41.169	0.292	-0.149
-101.918	-178.982	-0.276	-0.006
-100.903	-138.088	-0.055	-0.006
-99.889	16.308	-0.178	-0.138
-98.874	568.658	-0.081	-0.194
-97.859	-63.803	-0.209	0.085
-96.845	144.834	-0.123	-0.162
-95.830	61.890	0.205	-0.201
-94.816	-102.441	-0.173	-0.041
-93.801	-47.950	-0.265	0.127
-92.786	-200.000	-0.001	-0.036
-91.772	-200.000	0.018	0.156
-90.757	-68.182	0.224	-0.086
-89.743	92.851	0.130	-0.144
-88.728	-112.646	0.298	-0.058
-87.713	-200.000	-0.006	0.127
-86.699	119.512	-0.032	-0.039
-85.684	192.910	-0.123	-0.183
-84.670	-104.307	-0.359	0.082
-83.655	-200.000	0.026	0.221
-82.640	-97.081	-0.183	0.047
-81.626	-200.000	0.028	-0.186
-80.611	203.426	0.036	-0.055
-79.597	-200.000	-0.002	-0.130
-78.582	-96.508	0.274	0.071
-77.567	-107.095	0.126	-0.027
-76.553	264.399	0.056	0.096
-75.538	-79.890	0.145	-0.048
-74.524	347.643	-0.030	-0.058
-73.509	18.610	0.119	-0.094
-72.494	-96.640	-0.155	0.040
-71.480	23.992	-0.235	0.191
-70.465	-43.577	-0.140	-0.070
-69.451	497.217	-0.055	-0.125
-68.436	140.077	0.029	0.037
-67.422	800.000	0.030	0.111
-66.407	-200.000	0.049	-0.550
-65.392	677.486	0.009	0.024
-64.378	-86.745	0.307	0.092
-63.363	800.000	-0.078	-0.268
-62.349	467.431	0.090	-0.200
-61.334	33.661	-1.079	-0.924
-60.319	163.273	0.344	0.476
-59.305	800.000	-0.293	-0.850
-58.290	800.000	0.226	0.859
-57.276	599.544	0.625	1.528
-56.261	-200.000	98.747	588.724
-55.246	551.758	1392.976	3294.796
-54.232	153.588	2590.211	3494.980
-53.217	114.693	2158.164	2591.384
-52.203	46.005	1613.697	1471.177
-51.188	37.965	1350.174	1182.406
-50.173	34.520	1308.045	1125.193
-49.159	57.800	1357.927	1308.381
-48.144	61.567	1375.872	1348.176
-47.130	38.302	1329.830	1166.414
-46.115	34.553	1311.976	1128.591
-45.100	34.242	1307.753	1123.075
-44.086	34.311	1304.979	1121.054
-43.071	34.197	1303.223	1118.835
-42.057	34.192	1300.380	1116.316
-41.042	34.320	1298.691	1115.572
-40.027	34.253	1297.602	1114.200
-39.013	34.258	1295.765	1112.611
-37.998	34.321	1293.412	1110.912
-36.984	34.451	1291.920	1110.344
-35.969	34.511	1289.964	1108.967
-34.954	34.467	1288.153	1107.111
-33.940	34.408	1287.252	1105.950
-32.925	34.531	1285.905	1105.464
-31.911	34.589	1284.593	1104.625
-30.896	34.529	1283.377	1103.190
-29.881	34.605	1281.705	1102.148
-28.867	34.596	1280.582	1101.089
-27.852	34.528	1278.639	1098.981
-26.838	34.546	1277.408	1097.984
-25.823	34.572	1276.135	1096.993
-24.809	34.518	1274.828	1095.517
-23.794	34.441	1273.522	1093.911
-22.779	34.564	1272.226	1093.460
-21.765	34.482	1271.069	1091.949
-20.750	34.526	1269.591	1090.891
-19.736	34.434	1268.571	1089.444
-18.721	34.380	1267.304	1088.006
-17.706	34.339	1266.436	1086.984
-16.692	34.375	1264.841	1085.776
-15.677	34.371	1263.970	1084.964
-14.663	34.350	1262.849	1083.835
-13.648	34.408	1261.809	1083.230
-12.633	34.380	1260.479	1081.884
-11.619	34.322	1259.841	1080.967
-10.604	34.265	1259.085	1079.951
-9.590	34.276	1257.907	1078.959
-8.575	34.325	1256.733	1078.190
-7.560	34.293	1256.404	1077.681
-6.546	34.273	1255.453	1076.710
-5.531	34.335	1254.277	1076.008
-4.517	34.337	1253.654	1075.444
-3.502	34.393	1252.769	1074.957
-2.487	34.373	1252.014	1074.155
-1.473	34.318	1247.935	1070.304
-0.458	32.854	1232.852	1049.192
0.556	29.595	1215.131	1011.333
1.571	25.959	1221.319	996.340
2.586	24.914	1236.888	1003.099
3.600	24.147	1225.472	989.494
4.615	17.521	1152.810	895.996
5.629	6.963	1074.570	783.066
6.644	2.193	1053.099	744.161
7.659	1.898	1050.587	740.884
8.673	1.772	1049.018	739.104
9.688	1.598	1048.222	737.635
10.702	2.222	1046.921	739.671
11.717	8.857	1056.572	778.754
12.731	19.161	1071.211	839.989
13.746	24.066	1076.986	868.438
14.761	24.836	1077.502	872.530
15.775	24.955	1076.755	872.429
16.790	24.697	1076.185	870.632
17.804	24.590	1075.962	869.857
18.819	24.717	1075.401	869.945
19.834	24.940	1074.927	870.569
20.848	24.968	1074.228	870.061
21.863	24.873	1073.914	869.266
22.877	24.829	1073.334	868.509
23.892	24.746	1072.440	867.307
24.907	24.799	1072.232	867.315
25.921	24.725	1071.021	865.902
26.936	24.880	1069.148	865.062
27.950	24.652	1067.917	862.888
28.965	24.719	1065.974	861.564
29.980	24.701	1064.475	860.190
30.994	24.934	1064.084	860.917
32.009	24.835	1063.010	859.498
33.023	24.784	1061.504	857.959
34.038	24.816	1060.749	857.424
35.053	24.914	1060.452	857.577
36.067	24.843	1059.802	856.638
37.082	24.979	1059.122	856.664
38.096	25.071	1058.347	856.402
39.111	25.080	1057.949	856.045
40.126	24.918	1056.214	853.791
41.140	24.617	1054.126	850.596
42.155	24.417	1053.135	848.771
43.169	24.431	1052.125	847.948
44.184	24.588	1051.129	847.816
45.199	24.490	1049.830	846.229
46.213	24.552	1049.182	845.924
47.228	24.688	1048.699	846.106
48.242	24.731	1047.736	845.458
49.257	24.915	1046.926	845.595
50.271	24.959	1046.071	845.038
51.286	24.852	1045.625	844.101
52.301	25.024	1044.532	843.954
53.315	24.830	1043.730	842.319
54.330	24.864	1042.359	841.294
55.344	24.889	1041.843	840.920
56.359	24.710	1040.879	839.232
57.374	24.599	1040.397	838.246
58.388	24.634	1039.279	837.433
59.403	24.653	1038.245	836.618
60.417	24.370	1037.853	834.903
61.432	24.475	1037.127	834.736
62.447	24.629	1036.521	834.892
63.461	24.677	1035.930	834.567
64.476	24.565	1034.993	833.216
65.490	24.543	1033.955	832.206
66.505	24.600	1033.440	831.982
67.520	24.594	1032.650	831.244
68.534	24.362	1031.700	829.327
69.549	24.151	1030.525	827.332
70.563	24.108	1029.915	826.569
71.578	24.107	1028.733	825.539
72.593	23.989	1027.744	824.129
73.607	24.109	1027.361	824.304
74.622	24.536	1026.772	825.733
75.636	24.499	1026.107	824.954
76.651	24.241	1025.195	822.955
77.666	24.188	1024.459	822.047
78.680	24.267	1023.847	821.847
79.695	24.441	1022.940	821.850
80.709	24.478	1022.315	821.444
81.724	24.417	1021.977	820.820
82.739	24.532	1020.741	820.281
83.753	24.940	1020.123	821.587
84.768	25.156	1019.681	822.147
85.782	25.309	1018.734	822.013
86.797	25.165	1017.697	820.446
87.812	24.953	1017.098	818.920
88.826	25.003	1016.237	818.383
89.841	25.082	1015.473	818.055
90.855	25.054	1014.355	816.955
91.870	25.120	1013.244	816.289
92.884	24.940	1012.330	814.659
93.899	25.042	1011.328	814.248
94.914	25.098	1010.527	813.781
95.928	24.862	1009.594	811.887
96.943	24.765	1008.090	810.167
97.957	24.635	1006.498	808.228
98.972	24.342	1005.802	806.273
99.987	24.588	1005.157	806.795
101.001	24.858	1004.317	807.271
102.016	24.819	1003.634	806.471
103.030	24.634	1002.798	804.899
104.045	24.623	1001.802	803.978
105.060	24.448	1000.813	802.325
106.074	24.523	1000.219	802.115
107.089	24.935	999.688	803.469
108.103	24.856	998.207	801.851
109.118	24.538	997.374	799.688
110.133	24.587	996.518	799.151
111.147	24.451	994.867	797.148
112.162	24.404	994.121	796.271
113.176	24.529	993.795	796.498
114.191	24.456	992.730	795.247
115.206	24.139	992.421	793.518
116.220	24.235	990.971	792.716
117.235	24.221	990.570	792.263
118.249	24.273	989.215	791.338
119.264	24.242	988.362	790.450
120.279	24.365	987.583	790.302
121.293	24.398	987.492	790.307
122.308	24.293	986.468	788.948
123.322	24.150	985.565	787.527
124.337	24.095	984.177	786.107
125.352	23.645	982.601	782.791
126.366	23.530	981.471	781.318
127.381	24.296	981.941	784.993
128.395	24.713	981.268	786.223
129.410	24.876	980.271	786.069
130.424	24.870	979.403	785.278
131.439	24.910	978.322	784.516
132.454	24.878	977.681	783.795
133.468	24.723	976.978	782.482
134.483	24.927	976.124	782.620
135.497	25.058	975.326	782.483
136.512	25.068	974.803	782.038
137.527	25.092	973.826	781.290
138.541	25.099	973.090	780.663
139.556	25.211	972.181	780.348
140.570	25.126	971.682	779.509
141.585	25.161	970.511	778.656
142.600	25.071	969.634	777.490
143.614	25.293	968.993	777.872
144.629	25.399	968.107	777.551
145.643	25.201	966.844	775.611
146.658	25.077	965.413	773.859
147.673	24.950	964.089	772.180
148.687	24.773	963.798	771.115
149.702	24.732	962.636	769.944
150.716	24.818	961.750	769.536
151.731	25.105	960.721	769.878
152.746	25.167	960.656	770.024
153.760	25.254	959.914	769.732
154.775	25.330	959.137	769.367
155.789	25.214	958.126	767.992
156.804	25.259	957.340	767.488
157.819	25.216	956.530	766.585
158.833	25.401	955.974	766.861
159.848	25.487	954.402	765.901
160.862	25.151	953.791	763.913
161.877	25.160	952.621	762.945
162.892	25.223	952.062	762.696
163.906	25.140	950.806	761.272
164.921	24.991	950.323	760.183
165.935	25.225	948.911	759.978
166.950	25.171	948.468	759.329
167.964	25.160	947.435	758.388
168.979	25.009	946.027	756.557
169.994	24.906	945.558	755.681
171.008	25.237	944.960	756.532
172.023	25.462	943.742	756.435
173.037	25.055	943.062	754.111
174.052	24.958	942.184	752.936
175.067	24.868	941.711	752.113
176.081	25.039	940.886	752.105
177.096	25.044	940.270	751.565
178.110	24.718	939.387	749.428
179.125	24.609	938.236	747.987
180.140	24.656	938.477	748.312
181.154	24.742	938.012	748.233
182.169	25.037	937.655	749.115
183.183	25.225	937.442	749.663
184.198	25.039	936.504	748.072
185.213	25.142	935.772	747.851
186.227	25.245	935.086	747.664
187.242	25.262	934.722	747.381
188.256	25.223	933.983	746.559
189.271	25.286	933.190	746.121
190.286	24.948	931.981	743.687
191.300	24.360	930.389	739.910
192.315	23.500	928.866	735.073
193.329	23.639	928.182	735.041
194.344	24.381	928.900	738.619
195.359	25.074	928.571	741.159
196.373	25.068	928.182	740.757
197.388	25.064	927.601	740.213
198.402	25.038	926.970	739.534
199.417	25.185	925.990	739.292
200.432	24.826	925.509	737.366
201.446	24.630	924.565	735.741
202.461	24.699	923.959	735.478
203.475	23.886	921.918	730.451
204.490	23.164	920.575	726.359
205.504	23.951	920.951	729.822
206.519	24.666	920.950	732.688
207.534	24.754	920.747	732.821
208.548	25.139	920.271	733.956
209.563	24.854	919.330	731.975
210.577	24.942	918.244	731.404
211.592	25.357	918.105	732.923
212.607	25.283	917.238	731.864
213.621	25.212	916.752	731.123
214.636	25.162	916.263	730.464
215.650	25.200	915.387	729.855
216.665	25.380	914.940	730.167
217.680	25.232	913.988	728.740
218.694	24.940	912.583	726.372
219.709	24.801	912.000	725.279
220.723	25.008	911.723	725.834
221.738	25.195	911.210	726.118
222.753	25.019	910.616	724.868
223.767	25.263	910.495	725.695
224.782	25.407	910.191	725.971
225.796	25.412	909.290	725.207
226.811	24.555	908.072	720.717
227.826	24.102	906.744	717.774
228.840	24.265	905.941	717.729
229.855	24.327	905.541	717.601
230.869	23.968	904.170	715.006
231.884	24.212	904.669	716.320
232.899	25.081	904.573	719.669
233.913	25.128	903.880	719.243
234.928	25.013	903.241	718.208
235.942	25.065	902.269	717.582
236.957	24.705	901.330	715.331
237.972	24.712	900.739	714.829
238.986	24.811	900.622	715.067
240.001	24.814	899.893	714.438
241.015	24.909	899.177	714.184
242.030	25.007	899.226	714.551
243.045	25.163	898.486	714.523
244.059	25.301	897.875	714.522
245.074	24.934	897.237	712.490
246.088	24.781	896.003	710.838
247.103	25.069	895.499	711.522
248.117	25.546	895.887	713.659
249.132	25.819	895.159	714.097
250.147	25.814	894.907	713.814
251.161	26.099	894.389	714.467
252.176	25.933	893.853	713.319
253.190	26.096	893.126	713.322
254.205	26.158	893.012	713.412
255.220	25.969	892.395	712.108
256.234	25.912	891.265	710.918
257.249	25.978	890.564	710.557
258.263	25.834	890.059	709.525
259.278	26.008	889.429	709.645
260.293	26.002	888.830	709.079
261.307	25.982	888.149	708.396
262.322	25.671	886.823	706.055
263.336	25.136	884.891	702.360
264.351	23.950	883.297	696.394
265.366	24.174	883.169	697.107
266.380	25.131	884.281	701.667
267.395	25.704	883.573	703.283
268.409	25.604	882.766	702.188
269.424	25.715	882.494	702.347
270.439	25.851	881.442	701.976
271.453	26.059	881.266	702.582
272.468	26.103	881.037	702.508
273.482	26.189	880.413	702.283
274.497	25.766	879.367	699.742
275.512	25.229	878.437	696.859
276.526	25.644	878.669	698.593
277.541	25.908	877.996	699.020
278.555	25.611	876.992	697.007
279.570	25.618	876.171	696.321
280.585	25.700	875.899	696.360
281.599	25.815	874.894	695.941
282.614	24.982	874.075	692.012
283.628	25.143	873.244	691.916
284.643	25.422	873.269	692.949
285.657	24.989	871.895	690.129
286.672	24.674	871.336	688.414
287.687	25.295	871.349	690.752
288.701	25.449	870.301	690.453
289.716	25.098	869.673	688.546
290.730	25.079	868.589	687.554
291.745	24.745	867.993	685.743
292.760	25.056	868.204	687.041
293.774	26.046	868.478	690.991
294.789	26.523	867.834	692.241
295.803	26.415	867.521	691.519
296.818	26.429	867.157	691.219
297.833	25.958	865.823	688.300
298.847	25.787	865.449	687.286
299.862	26.190	864.871	688.304
300.876	26.427	864.526	688.873
301.891	26.228	863.768	687.447
302.906	25.843	863.002	685.313
303.920	25.924	862.721	685.339
304.935	26.311	862.393	686.486
305.949	26.310	861.857	685.995
306.964	25.979	861.030	684.023
307.979	26.024	860.578	683.774
308.993	26.496	860.421	685.377
310.008	26.424	859.859	684.597
311.022	26.268	858.734	683.049
312.037	25.939	858.141	681.274
313.052	25.650	857.255	679.420
314.066	25.021	855.706	675.759
315.081	24.548	855.501	673.756
316.095	25.548	855.060	677.115
317.110	25.923	855.192	678.573
318.125	25.081	853.473	673.985
319.139	24.072	852.490	669.357
320.154	24.027	852.051	668.782
321.168	24.915	852.254	672.217
322.183	25.671	852.042	674.827
323.197	25.881	852.020	675.539
324.212	26.027	851.440	675.566
325.227	26.106	851.070	675.510
326.241	25.923	850.538	674.343
327.256	25.965	849.755	673.818
328.270	25.876	848.829	672.693
329.285	25.598	847.951	670.901
330.300	25.393	847.379	669.623
331.314	25.609	847.439	670.418
332.329	25.962	847.111	671.414
333.343	26.085	847.060	671.772
334.358	26.077	846.506	671.243
335.373	26.273	845.751	671.313
336.387	26.480	846.059	672.269
337.402	26.440	845.957	671.979
338.416	26.482	845.088	671.386
339.431	26.686	844.869	671.908
340.446	26.877	844.595	672.339
341.460	26.717	844.101	671.294
342.475	26.482	843.645	670.000
343.489	26.450	843.246	669.505
344.504	26.934	842.601	670.726
345.519	27.169	842.229	671.236
346.533	27.086	841.718	670.464
347.548	27.019	841.295	669.821
348.562	27.021	840.613	669.226
349.577	26.850	840.200	668.209
350.592	27.080	839.210	668.209
351.606	26.920	838.779	667.215
352.621	26.760	838.180	666.093
353.635	26.768	837.532	665.547
354.650	26.270	835.408	661.978
355.665	25.045	834.628	656.815
356.679	25.447	834.390	658.041
357.694	25.897	833.817	659.178
358.708	25.912	832.875	658.429
359.723	26.292	833.005	659.863
360.738	26.762	832.653	661.240
361.752	26.643	832.249	660.425
362.767	26.961	831.995	661.325
363.781	27.215	831.981	662.180
364.796	27.328	831.101	661.832
365.810	27.447	830.764	661.938
366.825	27.433	830.538	661.649
367.840	26.978	829.752	659.312
368.854	26.653	828.629	657.183
369.869	26.701	828.393	657.112
370.883	26.676	828.064	656.702
371.898	26.737	827.534	656.446
372.913	26.775	826.989	656.092
373.927	26.735	827.049	655.935
374.942	27.072	826.095	656.337
375.956	27.127	825.452	655.970
376.971	27.056	825.799	655.930
377.986	27.300	825.421	656.453
379.000	27.221	824.598	655.456
380.015	27.161	823.891	654.618
381.029	27.383	823.217	654.826
382.044	27.237	823.098	654.146
383.059	27.312	822.654	654.005
384.073	27.311	821.896	653.343
385.088	27.248	821.588	652.813
386.102	27.160	820.628	651.675
387.117	27.121	819.673	650.721
388.132	26.607	818.595	647.967
389.146	26.251	817.737	645.959
390.161	26.674	817.961	647.592
391.175	27.046	817.601	648.580
392.190	26.821	816.430	646.791
393.205	25.335	814.462	639.883
394.219	23.865	812.715	633.222
395.234	23.712	812.592	632.523
396.248	25.366	813.882	639.367
397.263	26.744	815.032	645.123
398.278	26.854	814.352	644.918
399.292	26.481	813.770	643.074
400.307	26.633	813.343	643.220
401.321	26.702	812.946	643.095
402.336	27.111	812.896	644.448
403.350	27.510	812.566	645.546
404.365	27.819	812.442	646.485
405.380	27.820	812.374	646.374
406.394	28.163	811.590	646.906
407.409	27.878	811.327	645.632
408.423	27.947	810.947	645.515
409.438	28.100	810.510	645.651
410.453	28.044	810.251	645.191
411.467	28.033	809.369	644.392
412.482	27.999	809.531	644.346
413.496	28.121	808.814	644.148
414.511	28.072	808.419	643.601
415.526	27.967	808.099	642.921
416.540	27.904	807.090	641.840
417.555	27.690	806.415	640.495
418.569	27.840	806.069	640.690
419.584	27.841	805.433	640.132
420.599	27.396	805.216	638.343
421.613	109.078	1282.696	1446.971
422.628	94.175	1352.268	1447.057
