DTS Sentinel unit serial number:	SN413079Multiplexer serial number:	ORYXHardware model number:	OX4-SRSoftware version number:	ORYX F/W v4.00 Oryx Data Collector v3.7.2.0data status	okinstallation	princeton_trtdifferential loss correction	single-endedforward channel	channel 1reverse channel	N/Adate	2019/09/14time	18:22:35forward acquisition time	60.00reverse acquisition time	0.00gamma	496.2192k internal	0.2301k external	0.2301temperature offset calibration	1.0037default loss term (dB/km)	0.3790temperature slope calibration	1.0000multiplexer offset coefficient	1.0000multiplexer slope coefficient	1.0000fibre end	0.00T internal ref (°C)	36.83T ext. ref 1 (°C)	4.94T ext. ref 2 (°C)	30.75length (m)	temperature (°C)	Stokes	anti-Stokes-747.200	-83.025	-0.555	0.182
-746.185	-42.315	0.226	-0.117
-745.171	-130.704	-0.067	0.009
-744.156	-110.192	0.152	-0.032
-743.142	268.433	0.053	0.094
-742.127	257.769	-0.145	0.254
-741.112	207.433	0.142	-0.226
-740.098	135.121	-0.142	0.188
-739.083	-96.708	-0.057	0.015
-738.069	-200.000	0.017	0.227
-737.054	189.111	0.062	-0.095
-736.039	800.000	0.015	0.066
-735.025	558.006	0.086	-0.211
-734.010	555.221	0.082	0.201
-732.996	-69.962	-0.375	-0.146
-731.981	-52.229	0.182	-0.086
-730.966	-200.000	-0.001	-0.056
-729.952	-138.176	-0.215	0.024
-728.937	-200.000	0.058	0.315
-727.923	-200.000	0.022	-0.192
-726.908	-169.999	-0.099	0.004
-725.894	-101.778	-0.143	-0.035
-724.879	-69.828	-0.192	0.075
-723.864	-200.000	0.023	-0.157
-722.850	375.449	0.023	0.048
-721.835	-74.644	-0.227	-0.083
-720.821	632.529	0.119	0.308
-719.806	-151.931	-0.284	-0.021
-718.791	-142.527	0.344	-0.034
-717.777	-200.000	0.006	-0.301
-716.762	-131.485	-0.315	0.042
-715.748	166.188	-0.053	-0.077
-714.733	800.000	0.053	-0.217
-713.718	-70.446	-0.290	0.112
-712.704	24.843	-0.245	0.207
-711.689	-56.568	0.313	-0.141
-710.675	-200.000	0.015	-0.283
-709.660	-200.000	-0.023	-0.183
-708.645	58.304	-0.332	-0.332
-707.631	-57.337	-0.139	-0.062
-706.616	-200.000	-0.000	0.080
-705.602	-139.979	0.189	0.020
-704.587	8.427	0.212	0.162
-703.572	18.653	-0.204	0.166
-702.558	-200.000	-0.032	-0.330
-701.543	178.283	0.080	-0.119
-700.529	-21.922	0.261	0.161
-699.514	-36.899	-0.168	0.092
-698.499	800.000	-0.015	0.060
-697.485	-78.906	-0.130	-0.045
-696.470	-129.040	-0.179	0.026
-695.456	-78.848	0.401	-0.139
-694.441	404.567	-0.088	0.189
-693.426	-106.433	-0.165	0.037
-692.412	-52.329	-0.209	0.099
-691.397	-200.000	0.005	0.334
-690.383	800.000	-0.106	-0.354
-689.368	800.000	0.056	0.217
-688.354	219.244	-0.099	0.161
-687.339	-200.000	-0.059	-0.303
-686.324	-84.806	0.374	-0.120
-685.310	-27.513	-0.119	0.070
-684.295	-200.000	-0.001	-0.019
-683.281	-200.000	0.010	0.156
-682.266	350.137	-0.119	-0.240
-681.251	-146.365	-0.104	0.009
-680.237	218.311	0.113	0.183
-679.222	-113.404	0.140	0.028
-678.208	-153.080	-0.305	-0.022
-677.193	17.007	0.201	0.162
-676.178	-105.736	-0.354	0.081
-675.164	18.705	0.150	0.122
-674.149	800.000	0.056	-0.230
-673.135	-14.870	0.252	-0.164
-672.120	800.000	0.039	-0.134
-671.105	-126.641	0.012	-0.002
-670.091	-103.381	-0.222	0.053
-669.076	192.310	-0.037	0.056
-668.062	-91.011	-0.438	-0.128
-667.047	444.323	-0.121	0.270
-666.032	-35.447	-0.200	-0.110
-665.018	-1.468	0.088	0.063
-664.003	456.808	-0.094	0.212
-662.989	800.000	0.091	-0.262
-661.974	-29.754	-0.062	0.036
-660.959	-197.049	-0.326	-0.002
-659.945	152.300	0.078	-0.109
-658.930	302.772	-0.118	-0.221
-657.916	-15.179	0.080	0.052
-656.901	-120.330	-0.042	-0.007
-655.886	158.852	-0.170	0.240
-654.872	165.072	-0.104	-0.149
-653.857	189.382	-0.082	0.125
-652.843	800.000	-0.051	0.194
-651.828	32.094	0.242	-0.212
-650.814	97.861	-0.077	0.090
-649.799	800.000	0.057	-0.208
-648.784	106.571	0.234	0.282
-647.770	-175.902	0.221	0.006
-646.755	-200.000	0.001	0.354
-645.741	111.996	0.082	-0.101
-644.726	-87.123	0.193	-0.060
-643.711	228.897	0.024	-0.040
-642.697	254.786	0.092	-0.160
-641.682	-93.338	0.097	0.027
-640.668	-46.961	-0.099	0.049
-639.653	104.652	0.145	-0.173
-638.638	-68.255	0.069	0.027
-637.624	-200.000	-0.022	-0.111
-636.609	-200.000	-0.017	0.301
-635.595	212.799	0.169	0.270
-634.580	-100.266	0.250	-0.063
-633.565	-79.306	-0.197	0.068
-632.551	-200.000	-0.014	-0.240
-631.536	-34.855	-0.348	-0.193
-630.522	4.535	-0.131	-0.098
-629.507	70.485	-0.102	-0.107
-628.492	164.265	-0.296	0.423
-627.478	48.890	-0.256	-0.244
-626.463	11.342	0.159	-0.124
-625.449	347.704	-0.101	0.202
-624.434	69.825	-0.090	-0.094
-623.419	-58.057	-0.194	-0.086
-622.405	-88.524	0.038	0.012
-621.390	-200.000	-0.005	0.242
-620.376	39.096	-0.117	-0.106
-619.361	263.460	-0.088	-0.155
-618.346	-12.700	-0.136	-0.090
-617.332	800.000	-0.039	-0.166
-616.317	-82.983	-0.260	-0.085
-615.303	-159.477	-0.216	0.012
-614.288	-89.822	-0.157	-0.046
-613.273	143.050	-0.055	0.074
-612.259	-200.000	-0.018	0.251
-611.244	-31.693	-0.158	-0.090
-610.230	42.845	-0.117	0.108
-609.215	10.167	-0.165	0.127
-608.201	-140.099	0.243	-0.026
-607.186	800.000	0.008	0.024
-606.171	-50.772	-0.237	0.113
-605.157	-200.000	0.027	0.211
-604.142	-60.790	0.210	-0.090
-603.128	-77.393	0.070	0.025
-602.113	-199.390	-0.128	0.001
-601.098	384.065	-0.150	0.313
-600.084	-97.564	-0.245	0.064
-599.069	-100.516	0.100	-0.025
-598.055	55.981	-0.071	0.070
-597.040	121.107	-0.261	-0.329
-596.025	67.370	0.073	-0.076
-595.011	481.168	-0.092	0.211
-593.996	-86.158	0.104	0.033
-592.982	658.231	0.121	0.316
-591.967	127.800	-0.088	-0.113
-590.952	214.364	0.093	-0.149
-589.938	348.648	0.071	-0.142
-588.923	-71.117	0.217	0.083
-587.909	300.185	0.149	-0.279
-586.894	-155.269	0.146	-0.010
-585.879	-136.750	-0.088	-0.010
-584.865	311.664	-0.101	-0.192
-583.850	-88.409	-0.247	-0.075
-582.836	-13.620	-0.132	-0.086
-581.821	-48.366	0.247	-0.121
-580.806	-200.000	-0.004	-0.232
-579.792	-113.030	-0.093	0.019
-578.777	129.404	0.105	-0.136
-577.763	13.036	-0.204	0.160
-576.748	51.034	-0.194	-0.187
-575.733	800.000	0.028	0.101
-574.719	84.244	-0.179	0.199
-573.704	-200.000	0.049	0.225
-572.690	-160.157	-0.280	-0.015
-571.675	-143.944	0.322	0.031
-570.661	218.766	-0.080	0.129
-569.646	-16.434	-0.307	0.197
-568.631	256.158	0.089	0.155
-567.617	372.932	-0.009	0.019
-566.602	-29.769	-0.172	-0.099
-565.588	106.309	-0.128	-0.153
-564.573	640.940	-0.051	-0.131
-563.558	-103.425	-0.101	-0.024
-562.544	196.931	0.077	-0.120
-561.529	-200.000	-0.010	-0.100
-560.515	800.000	0.081	-0.294
-559.500	504.770	-0.138	-0.324
-558.485	-200.000	-0.002	-0.106
-557.471	114.855	0.254	0.314
-556.456	800.000	0.003	-0.012
-555.442	-200.000	0.058	0.304
-554.427	-200.000	-0.008	-0.134
-553.412	-131.681	-0.181	-0.024
-552.398	-200.000	0.008	0.202
-551.383	-62.974	0.475	-0.199
-550.369	170.661	-0.156	0.227
-549.354	244.660	-0.172	-0.293
-548.339	-102.319	-0.239	-0.058
-547.325	616.002	-0.065	-0.166
-546.310	-50.233	0.157	0.075
-545.296	-26.801	-0.316	0.187
-544.281	295.418	0.084	-0.156
-543.266	-200.000	0.014	0.127
-542.252	-57.799	0.336	0.149
-541.237	-110.513	-0.402	-0.084
-540.223	145.468	-0.125	0.170
-539.208	13.455	0.173	-0.136
-538.193	-173.429	0.079	0.002
-537.179	282.766	-0.072	-0.130
-536.164	-12.932	-0.058	0.038
-535.150	-116.258	0.032	0.006
-534.135	95.731	0.031	-0.036
-533.121	159.739	-0.108	-0.152
-532.106	-200.000	-0.047	0.217
-531.091	-78.581	0.272	0.094
-530.077	-52.174	-0.194	0.091
-529.062	164.341	-0.039	0.055
-528.048	-103.280	0.091	-0.022
-527.033	-47.895	-0.039	-0.019
-526.018	20.585	-0.157	0.128
-525.004	800.000	-0.195	0.545
-523.989	-200.000	-0.042	-0.274
-522.975	-31.532	0.199	0.113
-521.960	312.095	0.206	-0.390
-520.945	-141.990	-0.170	0.017
-519.931	275.432	-0.138	-0.247
-518.916	-135.092	-0.285	-0.035
-517.902	-176.096	-0.082	-0.002
-516.887	-146.020	0.061	0.005
-515.872	75.264	0.123	0.131
-514.858	-72.324	-0.142	0.053
-513.843	-200.000	0.030	0.165
-512.829	279.573	0.071	-0.127
-511.814	378.426	-0.094	0.195
-510.799	800.000	-0.008	0.033
-509.785	-21.643	-0.111	0.068
-508.770	-71.933	-0.162	0.061
-507.756	517.819	0.009	-0.022
-506.741	800.000	-0.072	0.231
-505.726	-59.840	-0.349	0.151
-504.712	800.000	-0.045	-0.198
-503.697	-79.535	-0.204	0.069
-502.683	-145.164	0.394	-0.036
-501.668	221.862	-0.025	0.041
-500.653	180.095	-0.122	0.181
-499.639	41.527	-0.042	-0.038
-498.624	-200.000	0.011	-0.088
-497.610	-200.000	0.020	0.171
-496.595	47.271	-0.089	0.084
-495.581	-200.000	0.032	0.282
-494.566	132.666	-0.284	0.369
-493.551	782.085	-0.073	0.202
-492.537	-132.113	-0.230	0.030
-491.522	422.650	-0.083	-0.180
-490.508	96.023	-0.096	-0.110
-489.493	-109.502	0.065	-0.014
-488.478	-200.000	-0.044	-0.235
-487.464	-70.959	0.174	-0.066
-486.449	-55.640	-0.156	0.070
-485.435	144.783	0.078	0.105
-484.420	0.422	-0.216	-0.156
-483.405	-161.504	0.169	0.009
-482.391	114.708	0.050	-0.061
-481.376	53.964	-0.175	0.170
-480.362	605.457	0.100	0.251
-479.347	31.995	0.132	-0.115
-478.332	800.000	0.064	-0.248
-477.318	-110.246	-0.086	0.018
-476.303	355.056	0.106	-0.212
-475.289	-127.307	-0.275	0.041
-474.274	184.935	-0.200	-0.300
-473.259	92.490	0.065	0.074
-472.245	336.274	0.156	-0.306
-471.230	-111.367	0.260	0.053
-470.216	45.652	-0.096	0.089
-469.201	800.000	0.079	0.233
-468.186	-61.743	0.277	-0.117
-467.172	472.458	-0.093	-0.211
-466.157	-4.024	-0.158	-0.110
-465.143	-100.951	-0.183	-0.045
-464.128	183.792	-0.058	-0.086
-463.113	800.000	-0.045	-0.169
-462.099	174.597	-0.102	0.149
-461.084	219.436	0.133	-0.215
-460.070	-200.000	-0.038	-0.181
-459.055	-112.557	-0.098	0.020
-458.040	-200.000	-0.004	0.196
-457.026	156.709	-0.106	0.147
-456.011	-112.252	0.212	0.043
-454.997	-28.601	-0.033	0.019
-453.982	-200.000	0.033	-0.181
-452.968	644.313	0.115	0.294
-451.953	-97.898	0.105	0.027
-450.938	189.164	-0.060	0.091
-449.924	106.221	0.081	0.097
-448.909	-79.086	-0.163	0.056
-447.895	-200.000	0.039	-0.183
-446.880	-14.643	0.335	0.217
-445.865	-69.500	-0.292	-0.113
-444.851	192.788	-0.115	0.174
-443.836	11.696	0.099	0.076
-442.822	800.000	0.094	-0.399
-441.807	245.818	0.134	0.228
-440.792	-89.536	-0.174	-0.051
-439.778	-119.054	0.243	-0.043
-438.763	133.106	-0.051	-0.067
-437.749	335.599	0.151	-0.295
-436.734	73.320	-0.240	-0.252
-435.719	143.061	-0.026	-0.034
-434.705	687.528	0.082	-0.216
-433.690	355.209	0.163	0.327
-432.676	-151.686	0.378	0.028
-431.661	2.213	-0.289	-0.211
-430.646	-79.878	0.059	-0.020
-429.632	15.472	0.107	-0.085
-428.617	-173.625	0.205	-0.006
-427.603	40.539	-0.037	0.033
-426.588	800.000	0.126	-0.374
-425.573	204.359	-0.148	0.231
-424.559	-126.797	-0.226	-0.034
-423.544	-119.992	-0.105	0.018
-422.530	64.760	-0.325	0.330
-421.515	-67.177	-0.338	0.134
-420.500	23.339	0.105	0.087
-419.486	109.615	-0.279	0.337
-418.471	800.000	-0.060	0.243
-417.457	-12.555	-0.182	0.120
-416.442	-35.644	-0.310	0.169
-415.428	-128.063	0.085	-0.012
-414.413	27.312	-0.269	0.228
-413.398	-141.204	0.102	-0.010
-412.384	-104.958	0.064	-0.015
-411.369	-167.364	-0.240	-0.010
-410.355	-90.877	0.235	0.068
-409.340	92.822	0.079	0.089
-408.325	-200.000	-0.022	-0.158
-407.311	-158.775	0.231	0.013
-406.296	-50.460	0.272	-0.129
-405.282	-200.000	-0.024	0.179
-404.267	-98.153	0.321	-0.083
-403.252	-51.892	-0.279	-0.131
-402.238	91.825	-0.212	0.240
-401.223	147.081	0.150	0.202
-400.209	-143.440	-0.142	-0.014
-399.194	800.000	-0.083	0.286
-398.179	-200.000	0.004	-0.071
-397.165	-149.786	0.200	0.016
-396.150	-162.275	-0.286	-0.014
-395.136	-88.862	0.220	-0.066
-394.121	-61.607	-0.278	-0.117
-393.106	140.505	-0.265	0.352
-392.092	264.296	-0.102	-0.179
-391.077	142.382	-0.125	-0.167
-390.063	-132.043	0.343	-0.045
-389.048	-200.000	0.030	0.156
-388.033	183.211	0.127	0.189
-387.019	325.158	0.128	0.246
-386.004	-200.000	0.007	0.203
-384.990	-200.000	-0.033	0.162
-383.975	-53.311	-0.276	0.127
-382.960	-200.000	-0.011	0.051
-381.946	59.720	0.114	-0.113
-380.931	800.000	0.036	0.142
-379.917	-200.000	-0.012	0.216
-378.902	91.087	-0.163	-0.184
-377.888	-72.110	0.147	-0.055
-376.873	-109.170	-0.316	-0.068
-375.858	109.806	0.111	0.134
-374.844	800.000	0.106	0.410
-373.829	130.792	0.067	0.087
-372.815	103.583	-0.043	-0.051
-371.800	-200.000	-0.013	-0.077
-370.785	428.838	0.094	-0.204
-369.771	-52.780	-0.097	-0.045
-368.756	-136.556	0.077	0.009
-367.742	-200.000	-0.018	0.378
-366.727	-148.698	-0.150	-0.012
-365.712	27.930	0.068	-0.058
-364.698	51.062	0.280	0.267
-363.683	87.630	0.048	0.053
-362.669	56.049	-0.216	0.211
-361.654	-118.232	0.264	-0.047
-360.639	96.423	-0.167	-0.192
-359.625	-94.398	-0.162	0.044
-358.610	397.352	-0.044	0.093
-357.596	-160.252	0.255	0.014
-356.581	-200.000	-0.006	0.316
-355.566	92.023	0.169	0.190
-354.552	53.077	0.053	0.051
-353.537	-68.222	0.285	-0.111
-352.523	195.911	0.211	-0.323
-351.508	-200.000	-0.001	0.308
-350.493	-103.608	-0.078	0.018
-349.479	-128.562	-0.079	-0.011
-348.464	-59.142	-0.204	0.088
-347.450	-200.000	0.008	-0.079
-346.435	-174.325	-0.161	0.005
-345.420	-19.922	0.274	0.170
-344.406	-61.703	0.279	0.117
-343.391	800.000	-0.160	-0.589
-342.377	-83.886	-0.180	-0.057
-341.362	-123.309	-0.253	-0.041
-340.348	298.573	-0.079	-0.147
-339.333	800.000	0.034	0.125
-338.318	-85.175	-0.190	-0.060
-337.304	78.187	0.316	-0.338
-336.289	-136.492	0.150	-0.017
-335.275	-40.131	0.293	-0.153
-334.260	592.746	0.172	-0.426
-333.245	-170.582	-0.269	0.009
-332.231	-89.748	0.050	-0.015
-331.216	55.091	-0.015	-0.015
-330.202	190.250	0.115	0.173
-329.187	-200.000	0.001	-0.049
-328.172	190.993	0.182	-0.275
-327.158	124.209	0.136	0.171
-326.143	173.696	0.215	0.311
-325.129	-148.584	-0.276	0.023
-324.114	67.927	0.190	-0.195
-323.099	-114.137	-0.365	-0.071
-322.085	-78.725	-0.161	0.055
-321.070	-200.000	-0.040	-0.267
-320.056	-92.719	0.189	-0.053
-319.041	-56.455	0.254	0.113
-318.026	-81.075	0.584	-0.194
-317.012	112.444	-0.046	0.055
-315.997	-142.221	0.164	-0.016
-314.983	66.072	0.135	-0.138
-313.968	-40.925	0.200	0.104
-312.953	-63.834	-0.143	0.058
-311.939	-3.977	0.396	-0.275
-310.924	-97.423	0.200	-0.052
-309.910	-76.906	0.196	0.069
-308.895	-99.972	-0.300	0.075
-307.880	-140.882	-0.188	0.019
-306.866	-66.325	0.283	0.113
-305.851	-117.979	0.419	0.075
-304.837	-200.000	0.031	-0.407
-303.822	-76.741	0.200	0.070
-302.807	-200.000	-0.022	0.327
-301.793	-183.394	-0.039	0.001
-300.778	129.656	0.250	-0.320
-299.764	115.537	-0.152	0.186
-298.749	-82.194	-0.138	0.045
-297.735	242.523	-0.035	0.059
-296.720	-153.091	-0.292	-0.021
-295.705	-98.617	0.133	-0.034
-294.691	279.257	-0.045	-0.081
-293.676	-170.301	-0.247	0.009
-292.662	6.403	-0.240	-0.179
-291.647	800.000	-0.119	-0.408
-290.632	-171.225	0.243	0.008
-289.618	-66.455	0.453	0.180
-288.603	-175.123	0.164	-0.005
-287.589	345.374	0.088	-0.173
-286.574	-114.148	0.166	0.032
-285.559	-200.000	-0.013	0.305
-284.545	-102.250	0.184	-0.044
-283.530	-142.363	-0.420	-0.041
-282.516	-188.899	-0.217	-0.003
-281.501	800.000	-0.056	-0.194
-280.486	-63.736	0.185	-0.076
-279.472	-133.082	-0.241	-0.031
-278.457	71.794	0.263	0.274
-277.443	800.000	-0.031	-0.101
-276.428	800.000	-0.058	-0.177
-275.413	122.520	-0.284	0.355
-274.399	-200.000	-0.006	0.253
-273.384	102.183	-0.075	-0.087
-272.370	444.208	-0.027	-0.060
-271.355	-4.499	0.188	-0.130
-270.340	-200.000	-0.025	0.221
-269.326	303.399	0.134	-0.248
-268.311	-78.457	0.205	-0.070
-267.297	-200.000	-0.006	0.112
-266.282	800.000	0.096	-0.325
-265.267	-200.000	-0.008	-0.102
-264.253	-106.037	0.317	0.071
-263.238	-35.591	-0.358	-0.194
-262.224	-152.590	-0.300	-0.021
-261.209	189.224	-0.142	-0.214
-260.195	-200.000	0.051	0.263
-259.180	-200.000	0.046	0.357
-258.165	-200.000	0.033	-0.196
-257.151	-6.400	0.149	-0.102
-256.136	-123.579	0.379	0.060
-255.122	-189.077	-0.340	-0.004
-254.107	-110.863	-0.077	0.016
-253.092	-200.000	-0.016	0.092
-252.078	515.995	-0.050	-0.116
-251.063	-57.135	-0.185	-0.082
-250.049	-149.616	-0.323	-0.025
-249.034	-88.518	0.091	0.027
-248.019	-58.175	-0.108	-0.047
-247.005	-35.431	0.146	-0.080
-245.990	-200.000	0.032	-0.193
-244.976	-66.548	-0.105	-0.042
-243.961	-200.000	-0.022	-0.170
-242.946	306.818	0.208	-0.388
-241.932	30.930	-0.202	-0.173
-240.917	190.843	-0.162	0.244
-239.903	-200.000	0.020	0.292
-238.888	-200.000	-0.038	-0.176
-237.873	800.000	0.035	0.117
-236.859	-91.413	-0.423	-0.121
-235.844	54.726	-0.176	0.169
-234.830	-91.487	0.287	-0.082
-233.815	297.785	0.121	-0.221
-232.800	-11.423	0.179	0.118
-231.786	-115.092	-0.148	-0.028
-230.771	-110.781	0.023	-0.005
-229.757	-108.119	0.389	0.084
-228.742	-50.227	-0.235	-0.111
-227.727	372.073	0.034	-0.069
-226.713	-11.619	0.278	-0.183
-225.698	-200.000	0.011	-0.191
-224.684	-62.106	0.256	0.107
-223.669	-200.000	0.037	0.229
-222.655	146.095	0.051	0.068
-221.640	13.535	-0.065	-0.051
-220.625	26.236	0.061	-0.051
-219.611	274.524	0.112	-0.198
-218.596	-39.550	-0.057	0.030
-217.582	-52.747	0.208	0.096
-216.567	20.607	-0.131	-0.106
-215.552	800.000	-0.047	0.156
-214.538	-50.823	-0.208	0.098
-213.523	7.402	-0.064	-0.048
-212.509	88.632	0.054	-0.060
-211.494	-120.842	0.377	0.063
-210.479	-9.315	0.226	-0.151
-209.465	-131.744	0.422	0.055
-208.450	800.000	-0.099	-0.278
-207.436	22.976	-0.091	-0.074
-206.421	-59.505	-0.298	0.128
-205.406	49.712	0.177	0.166
-204.392	-107.256	-0.091	-0.020
-203.377	344.367	0.113	0.221
-202.363	-200.000	-0.014	-0.065
-201.348	800.000	-0.137	-0.393
-200.333	800.000	0.089	0.288
-199.319	800.000	-0.140	0.497
-198.304	8.578	0.129	-0.097
-197.290	-44.158	0.145	0.073
-196.275	-200.000	-0.028	0.180
-195.260	-200.000	0.002	-0.380
-194.246	11.296	-0.105	-0.080
-193.231	262.699	-0.123	-0.213
-192.217	45.672	0.291	-0.268
-191.202	19.195	0.214	-0.172
-190.187	-200.000	0.024	-0.293
-189.173	-189.300	0.281	0.003
-188.158	-200.000	0.001	-0.437
-187.144	-16.933	0.220	-0.139
-186.129	-128.829	-0.140	0.020
-185.114	140.855	0.226	0.298
-184.100	59.160	0.098	-0.096
-183.085	-90.790	0.169	0.049
-182.071	98.025	-0.145	0.166
-181.056	34.060	0.071	0.062
-180.042	-33.057	0.189	0.105
-179.027	96.312	-0.317	-0.361
-178.012	800.000	-0.105	-0.316
-176.998	-164.815	0.294	-0.013
-175.983	-200.000	0.063	0.327
-174.969	-200.000	0.062	0.378
-173.954	25.226	0.074	0.061
-172.939	-160.479	-0.178	0.010
-171.925	-75.982	0.280	-0.099
-170.910	33.525	0.206	0.178
-169.896	-44.527	0.204	0.102
-168.881	440.744	-0.060	0.131
-167.866	-21.342	0.249	0.152
-166.852	800.000	-0.130	-0.395
-165.837	-78.205	0.252	-0.086
-164.823	88.696	-0.130	-0.144
-163.808	142.980	0.052	-0.069
-162.793	305.407	-0.165	0.305
-161.779	-200.000	0.001	-0.147
-160.764	-102.707	-0.332	-0.079
-159.750	-126.613	0.190	0.028
-158.735	95.608	0.104	-0.118
-157.720	9.625	0.217	0.164
-156.706	-104.047	0.149	0.035
-155.691	-9.083	0.257	0.171
-154.677	-24.479	-0.183	-0.109
-153.662	423.597	-0.044	0.094
-152.647	-6.499	-0.261	0.177
-151.633	379.049	0.048	0.097
-150.618	-88.896	-0.193	-0.057
-149.604	-117.993	-0.238	0.042
-148.589	129.323	0.195	-0.248
-147.574	800.000	-0.049	0.201
-146.560	344.973	-0.121	0.236
-145.545	563.825	0.051	0.122
-144.531	-132.150	0.166	0.021
-143.516	117.320	-0.013	0.016
-142.502	28.817	0.129	0.109
-141.487	-52.327	0.123	0.057
-140.472	-8.327	0.174	-0.117
-139.458	-81.588	-0.105	-0.034
-138.443	30.256	-0.085	0.072
-137.429	152.308	-0.146	-0.199
-136.414	379.966	0.203	0.414
-135.399	-200.000	-0.028	0.326
-134.385	54.232	-0.048	0.046
-133.370	-96.311	0.186	-0.049
-132.356	37.503	-0.028	-0.025
-131.341	216.081	0.164	0.259
-130.326	800.000	0.007	-0.022
-129.312	-107.622	-0.099	0.021
-128.297	176.570	-0.133	0.193
-127.283	800.000	-0.070	0.240
-126.268	-50.049	-0.290	0.137
-125.253	-165.394	-0.141	0.006
-124.239	-105.940	-0.319	-0.071
-123.224	-108.141	-0.254	0.055
-122.210	224.996	0.042	-0.068
-121.195	330.126	-0.071	-0.136
-120.180	79.446	-0.272	-0.290
-119.166	525.077	0.100	0.235
-118.151	-113.489	0.176	0.034
-117.137	11.168	0.058	-0.044
-116.122	10.405	-0.183	0.139
-115.107	-116.681	0.443	0.081
-114.093	31.190	-0.262	-0.224
-113.078	44.184	0.123	0.113
-112.064	242.620	-0.093	-0.155
-111.049	-200.000	0.027	-0.121
-110.034	-103.179	-0.197	-0.046
-109.020	-77.680	0.107	0.037
-108.005	800.000	0.139	0.543
-106.991	-116.856	-0.308	0.056
-105.976	-200.000	0.039	-0.329
-104.962	97.888	0.132	-0.151
-103.947	-16.315	0.206	-0.130
-102.932	-200.000	-0.087	0.447
-101.918	-200.000	-0.277	-0.001
-100.903	-200.000	-0.015	0.162
-99.889	-33.950	-0.113	-0.062
-98.874	800.000	0.047	0.187
-97.859	176.887	0.101	0.146
-96.845	185.734	-0.155	0.229
-95.830	-105.117	0.095	-0.021
-94.816	229.764	-0.213	-0.346
-93.801	380.176	0.119	0.243
-92.786	-120.860	0.261	0.044
-91.772	54.599	-0.140	0.134
-90.757	591.438	0.013	0.032
-89.743	-111.542	0.165	0.033
-88.728	217.594	0.042	0.067
-87.713	503.787	-0.052	0.119
-86.699	-138.318	0.397	0.044
-85.684	-200.000	0.008	0.252
-84.670	456.369	-0.108	0.237
-83.655	-200.000	0.042	0.242
-82.640	36.420	-0.155	-0.135
-81.626	800.000	0.020	-0.066
-80.611	-98.149	-0.224	0.057
-79.597	-100.023	-0.094	-0.023
-78.582	-113.345	-0.116	-0.023
-77.567	-76.022	-0.484	0.170
-76.553	-58.939	0.056	-0.024
-75.538	-126.951	0.037	0.005
-74.524	-200.000	-0.035	-0.208
-73.509	-200.000	-0.025	0.228
-72.494	800.000	-0.057	0.180
-71.480	784.325	0.082	0.224
-70.465	800.000	-0.112	0.470
-69.451	-85.388	0.151	0.047
-68.436	800.000	0.015	0.048
-67.422	-200.000	0.090	-0.461
-66.407	-7.166	0.039	-0.026
-65.392	49.663	0.190	-0.178
-64.378	-80.779	0.148	0.049
-63.363	35.921	-0.354	0.309
-62.349	-53.574	-0.098	-0.044
-61.334	119.624	-0.795	-0.978
-60.319	-124.666	0.158	-0.024
-59.305	285.139	-0.464	-0.830
-58.290	207.108	0.529	0.818
-57.276	514.305	0.580	1.343
-56.261	-200.000	90.309	517.115
-55.246	563.690	1382.980	3323.250
-54.232	187.316	2590.297	3833.421
-53.217	122.418	2193.380	2719.878
-52.203	48.161	1646.119	1527.471
-51.188	40.149	1379.868	1230.781
-50.173	36.952	1336.563	1172.799
-49.159	56.785	1382.354	1335.397
-48.144	61.330	1401.151	1381.449
-47.130	40.590	1357.134	1213.008
-46.115	36.933	1339.687	1175.236
-45.100	36.671	1334.712	1169.245
-44.086	36.641	1332.420	1167.011
-43.071	36.635	1330.306	1165.073
-42.057	36.571	1327.917	1162.550
-41.042	36.606	1325.857	1160.914
-40.027	36.766	1324.538	1160.670
-39.013	36.724	1322.559	1158.637
-37.998	36.819	1320.822	1157.638
-36.984	36.728	1318.901	1155.366
-35.969	36.869	1316.842	1154.355
-34.954	36.850	1314.862	1152.466
-33.940	36.902	1313.497	1151.531
-32.925	36.913	1312.685	1150.840
-31.911	36.906	1311.282	1149.519
-30.896	36.909	1309.366	1147.815
-29.881	36.955	1308.276	1147.085
-28.867	36.965	1306.553	1145.586
-27.852	36.890	1305.234	1143.945
-26.838	36.891	1303.603	1142.472
-25.823	36.918	1302.002	1141.183
-24.809	36.960	1300.567	1140.129
-23.794	36.984	1299.335	1139.146
-22.779	36.920	1298.005	1137.555
-21.765	36.932	1296.847	1136.567
-20.750	36.716	1296.081	1134.582
-19.736	36.826	1294.306	1133.629
-18.721	36.841	1292.890	1132.434
-17.706	36.797	1291.816	1131.186
-16.692	36.639	1291.122	1129.616
-15.677	36.854	1289.489	1129.396
-14.663	36.758	1288.244	1127.700
-13.648	36.817	1286.798	1126.733
-12.633	36.841	1285.939	1126.074
-11.619	36.790	1285.124	1125.017
-10.604	36.780	1284.148	1124.060
-9.590	36.721	1283.757	1123.334
-8.575	36.656	1282.683	1121.970
-7.560	36.806	1281.706	1121.944
-6.546	36.734	1280.894	1120.769
-5.531	36.780	1279.535	1119.802
-4.517	36.867	1278.479	1119.337
-3.502	36.704	1278.049	1117.975
-2.487	36.801	1276.539	1117.168
-1.473	36.816	1272.287	1113.488
-0.458	35.062	1257.165	1090.234
0.556	30.549	1238.128	1046.045
1.571	26.352	1240.984	1024.631
2.586	24.952	1256.062	1028.953
3.600	23.921	1244.890	1013.834
4.615	18.019	1171.432	922.168
5.629	9.166	1093.748	816.136
6.644	5.012	1072.714	779.635
7.659	4.987	1069.130	776.839
8.673	4.912	1069.086	776.363
9.688	4.839	1067.711	774.932
10.702	5.066	1065.809	774.611
11.717	10.012	1072.442	804.023
12.731	17.801	1083.498	851.256
13.746	20.158	1085.991	864.913
14.761	19.084	1083.723	857.677
15.775	17.984	1081.804	850.613
16.790	16.850	1079.741	843.275
17.804	16.105	1078.178	838.277
18.819	15.722	1077.315	835.630
19.834	15.523	1076.197	833.701
20.848	15.322	1075.762	832.293
21.863	15.039	1074.854	830.110
22.877	15.056	1073.838	829.338
23.892	15.010	1073.171	828.520
24.907	15.073	1072.270	828.066
25.921	15.087	1071.043	827.111
26.936	15.037	1070.314	826.231
27.950	15.017	1068.960	825.014
28.965	15.082	1067.494	824.128
29.980	15.272	1065.705	823.607
30.994	15.373	1064.618	823.191
32.009	15.350	1063.408	822.070
33.023	15.402	1062.226	821.340
34.038	15.301	1061.709	820.372
35.053	15.121	1060.684	818.625
36.067	15.100	1059.876	817.829
37.082	15.303	1058.522	817.702
38.096	15.180	1058.537	817.041
39.111	15.275	1057.726	816.806
40.126	15.118	1056.163	814.760
41.140	14.909	1054.670	812.521
42.155	14.976	1053.207	811.648
43.169	14.992	1052.249	810.916
44.184	14.870	1051.602	809.755
45.199	14.844	1050.321	808.570
46.213	14.898	1049.517	808.143
47.228	15.033	1048.586	808.006
48.242	15.186	1047.140	807.555
49.257	15.103	1046.276	806.421
50.271	15.187	1045.315	806.009
51.286	15.064	1044.949	805.069
52.301	15.105	1043.344	803.955
53.315	15.036	1042.554	802.946
54.330	14.958	1041.737	801.870
55.344	15.126	1040.457	801.617
56.359	15.066	1039.711	800.686
57.374	15.042	1039.116	800.045
58.388	14.925	1038.086	798.618
59.403	14.877	1037.092	797.554
60.417	14.949	1036.622	797.469
61.432	14.797	1035.675	795.946
62.447	14.872	1034.921	795.649
63.461	14.765	1034.318	794.605
64.476	14.824	1032.995	793.800
65.490	14.849	1032.188	793.230
66.505	14.864	1031.006	792.321
67.520	14.711	1030.998	791.521
68.534	14.882	1030.304	791.727
69.549	14.949	1029.225	791.144
70.563	14.832	1028.496	789.963
71.578	14.618	1027.673	788.250
72.593	14.733	1026.645	787.932
73.607	14.773	1025.828	787.427
74.622	14.766	1024.988	786.678
75.636	14.759	1024.828	786.450
76.651	14.841	1023.532	785.772
77.666	14.702	1023.435	784.975
78.680	14.692	1022.819	784.388
79.695	14.778	1022.036	784.124
80.709	14.791	1021.696	783.851
81.724	15.034	1020.636	784.108
82.739	15.044	1020.052	783.638
83.753	15.107	1019.390	783.355
84.768	15.117	1018.614	782.736
85.782	15.350	1017.226	782.689
86.797	15.292	1016.621	781.881
87.812	15.130	1015.574	780.251
88.826	15.192	1014.477	779.628
89.841	15.169	1013.809	778.938
90.855	15.182	1013.144	778.421
91.870	15.231	1011.784	777.533
92.884	15.308	1010.939	777.174
93.899	15.388	1010.240	776.938
94.914	15.372	1009.312	776.080
95.928	15.433	1008.765	775.873
96.943	15.319	1007.914	774.623
97.957	15.346	1006.409	773.522
98.972	15.231	1005.956	772.575
99.987	15.234	1005.264	771.991
101.001	15.127	1004.559	770.888
102.016	15.277	1003.328	770.563
103.030	15.386	1002.106	770.060
104.045	15.240	1001.907	769.167
105.060	15.204	1000.924	768.179
106.074	14.966	1000.249	766.502
107.089	14.951	998.887	765.321
108.103	14.872	997.970	764.190
109.118	15.002	996.829	763.843
110.133	14.914	996.092	762.809
111.147	14.803	995.492	761.777
112.162	14.970	994.646	761.822
113.176	14.969	993.666	760.999
114.191	14.954	993.150	760.471
115.206	14.954	992.490	759.898
116.220	14.931	991.319	758.830
117.235	15.000	990.086	758.129
118.249	15.097	988.995	757.666
119.264	14.968	988.807	756.871
120.279	14.895	988.205	756.015
121.293	14.894	987.158	755.142
122.308	14.876	986.130	754.209
123.322	14.730	985.406	752.931
124.337	14.742	984.549	752.260
125.352	14.920	983.294	752.035
126.366	14.869	982.536	751.163
127.381	14.925	981.128	750.268
128.395	14.996	979.924	749.602
129.410	14.872	979.374	748.560
130.424	15.030	978.587	748.600
131.439	15.026	978.204	748.221
132.454	15.015	976.964	747.157
133.468	14.943	976.356	746.306
134.483	15.115	975.115	746.058
135.497	15.053	974.371	745.147
136.512	15.053	973.290	744.254
137.527	15.188	972.428	744.128
138.541	15.182	972.090	743.774
139.556	15.218	971.137	743.139
140.570	15.283	970.706	743.034
141.585	15.324	970.293	742.834
142.600	15.340	969.344	742.113
143.614	15.497	967.814	741.569
144.629	15.418	967.743	741.101
145.643	15.386	966.625	740.034
146.658	15.246	965.287	738.331
147.673	15.222	964.339	737.435
148.687	15.161	963.742	736.643
149.702	15.083	962.748	735.477
150.716	15.033	962.379	734.911
151.731	15.191	961.521	734.884
152.746	15.107	960.800	733.898
153.760	15.269	959.887	733.846
154.775	15.297	959.155	733.343
155.789	15.516	958.501	733.736
156.804	15.291	957.847	732.186
157.819	15.339	957.103	731.761
158.833	15.420	956.351	731.478
159.848	15.534	955.784	731.475
160.862	15.429	954.678	730.106
161.877	15.234	953.747	728.482
162.892	15.196	952.435	727.251
163.906	15.158	951.898	726.611
164.921	15.214	950.451	725.688
165.935	15.161	950.004	725.049
166.950	15.291	948.997	724.782
167.964	15.170	948.316	723.673
168.979	15.301	946.862	723.064
169.994	15.382	946.321	722.938
171.008	15.288	946.051	722.261
172.023	15.280	945.573	721.796
173.037	15.449	944.024	721.278
174.052	15.450	943.696	720.970
175.067	15.417	942.982	720.217
176.081	15.255	942.422	719.032
177.096	15.097	942.227	718.140
178.110	15.348	941.251	718.407
179.125	15.245	940.705	717.489
180.140	15.404	940.051	717.605
181.154	15.348	940.180	717.402
182.169	15.369	939.446	716.864
183.183	15.531	938.740	716.956
184.198	15.597	938.006	716.613
185.213	15.680	937.390	716.434
186.227	15.480	937.112	715.305
187.242	15.525	936.479	714.951
188.256	15.698	935.326	714.745
189.271	15.620	934.906	714.028
190.286	15.408	933.888	712.285
191.300	15.193	932.921	710.574
192.315	15.209	932.090	709.948
193.329	15.153	931.692	709.344
194.344	15.378	930.726	709.497
195.359	15.343	930.501	709.114
196.373	15.517	929.243	708.827
197.388	15.690	929.469	709.666
198.402	15.754	928.889	709.429
199.417	15.871	928.223	709.356
200.432	15.936	927.704	709.167
201.446	15.963	927.204	708.834
202.461	16.020	927.054	708.900
203.475	15.946	926.409	708.033
204.490	15.816	925.188	706.491
205.504	15.848	924.357	705.926
206.519	15.672	923.867	704.751
207.534	15.781	922.592	704.174
208.548	15.767	922.405	703.912
209.563	15.740	921.928	703.371
210.577	15.848	921.067	703.104
211.592	15.951	920.543	703.072
212.607	16.020	919.692	702.645
213.621	16.094	918.938	702.315
214.636	16.043	918.401	701.634
215.650	15.997	917.826	700.940
216.665	16.051	917.340	700.731
217.680	16.109	916.247	700.075
218.694	15.968	915.846	699.123
219.709	15.965	915.382	698.692
220.723	16.164	914.411	698.716
221.738	16.097	913.591	697.749
222.753	16.190	912.980	697.604
223.767	16.110	912.705	697.003
224.782	16.177	912.305	696.914
225.796	16.277	911.422	696.589
226.811	16.053	911.307	695.515
227.826	16.150	910.289	695.074
228.840	16.019	909.385	693.784
229.855	16.127	908.439	693.447
230.869	16.161	907.531	692.830
231.884	15.990	907.502	692.047
232.899	15.988	906.449	691.173
233.913	15.926	905.698	690.284
234.928	15.899	905.123	689.676
235.942	15.830	904.588	688.923
236.957	16.016	903.998	689.172
237.972	16.035	903.464	688.784
238.986	15.947	903.122	688.102
240.001	16.025	902.168	687.633
241.015	16.053	901.562	687.223
242.030	16.107	901.167	687.081
243.045	16.154	900.286	686.540
244.059	16.233	899.760	686.398
245.074	16.359	898.818	686.132
246.088	16.146	898.713	685.127
247.103	16.267	898.012	685.024
248.117	16.402	897.851	685.388
249.132	16.481	897.005	685.000
250.147	16.780	896.182	685.524
251.161	16.826	895.578	685.184
252.176	16.670	894.918	683.988
253.190	16.679	894.233	683.443
254.205	16.725	893.813	683.244
255.220	16.794	893.075	682.900
256.234	16.648	892.605	681.893
257.249	16.783	891.910	681.845
258.263	16.660	891.125	680.690
259.278	16.748	890.394	680.424
260.293	16.751	889.993	680.068
261.307	16.836	889.537	680.000
262.322	16.802	888.986	679.385
263.336	16.920	888.244	679.228
264.351	16.926	887.212	678.404
265.366	16.962	886.788	678.165
266.380	16.910	886.056	677.338
267.395	16.783	885.232	676.138
268.409	16.869	884.185	675.622
269.424	16.959	883.549	675.437
270.439	16.766	883.286	674.405
271.453	16.885	882.377	674.126
272.468	16.767	881.839	673.188
273.482	16.810	881.555	673.082
274.497	16.798	880.492	672.163
275.512	16.937	879.856	672.167
276.526	16.793	879.458	671.233
277.541	17.086	878.974	671.965
278.555	17.068	878.524	671.490
279.570	16.998	878.003	670.758
280.585	17.088	877.061	670.333
281.599	17.036	876.105	669.339
282.614	16.998	875.364	668.564
283.628	16.950	875.103	668.116
284.643	16.981	874.233	667.515
285.657	16.963	873.949	667.166
286.672	17.016	873.326	666.842
287.687	17.026	872.735	666.369
288.701	17.110	872.220	666.246
289.716	17.105	871.401	665.541
290.730	17.099	870.889	665.070
291.745	17.235	870.204	665.020
292.760	17.194	869.671	664.393
293.774	17.314	868.750	664.101
294.789	17.153	868.369	663.119
295.803	17.112	867.784	662.456
296.818	17.141	867.008	661.916
297.833	17.114	866.461	661.336
298.847	17.151	865.896	660.991
299.862	17.187	865.214	660.553
300.876	17.341	864.790	660.768
301.891	17.392	864.133	660.404
302.906	17.247	864.276	659.895
303.920	17.527	863.432	660.278
304.935	17.534	862.724	659.705
305.949	17.415	862.010	658.639
306.964	17.524	861.238	658.410
307.979	17.555	860.525	657.926
308.993	17.400	860.321	657.115
310.008	17.539	859.607	657.047
311.022	17.553	858.610	656.283
312.037	17.427	858.240	655.456
313.052	17.349	857.679	654.668
314.066	17.350	857.153	654.214
315.081	17.425	856.604	654.025
316.095	17.370	856.277	653.505
317.110	17.321	855.277	652.498
318.125	17.409	854.967	652.542
319.139	17.288	854.788	651.880
320.154	17.373	854.162	651.674
321.168	17.385	853.525	651.176
322.183	17.596	852.665	651.267
323.197	17.350	852.555	650.186
324.212	17.364	851.981	649.746
325.227	17.521	851.204	649.692
326.241	17.437	850.678	648.914
327.256	17.320	849.976	647.874
328.270	17.405	849.590	647.846
329.285	17.403	848.936	647.285
330.300	17.544	848.334	647.304
331.314	17.489	847.704	646.555
332.329	17.695	847.125	646.838
333.343	17.664	847.078	646.628
334.358	17.722	846.591	646.421
335.373	17.799	846.051	646.242
336.387	17.841	846.052	646.345
337.402	17.814	845.806	645.996
338.416	17.842	845.561	645.858
339.431	17.915	845.201	645.804
340.446	17.900	844.697	645.304
341.460	17.902	844.152	644.838
342.475	18.008	843.948	645.025
343.489	18.173	842.990	644.859
344.504	18.054	842.953	644.325
345.519	18.056	842.557	643.973
346.533	18.040	841.981	643.413
347.548	17.936	841.115	642.303
348.562	17.941	840.398	641.718
349.577	17.776	840.056	640.780
350.592	17.843	839.168	640.298
351.606	17.714	838.928	639.574
352.621	17.860	838.235	639.537
353.635	17.927	837.505	639.174
354.650	17.968	836.663	638.628
355.665	17.972	836.173	638.215
356.679	17.989	835.614	637.792
357.694	17.981	834.923	637.180
358.708	18.114	834.364	637.191
359.723	18.052	833.787	636.463
360.738	18.084	833.141	636.034
361.752	18.136	832.363	635.576
362.767	18.196	832.047	635.505
363.781	18.165	831.418	634.851
364.796	18.248	831.320	635.027
365.810	18.281	831.018	634.863
366.825	18.418	830.558	634.965
367.840	18.322	830.323	634.374
368.854	18.347	829.195	633.548
369.869	18.225	829.062	632.939
370.883	18.261	828.689	632.732
371.898	18.494	828.110	633.092
372.913	18.535	827.742	632.908
373.927	18.465	827.098	632.099
374.942	18.365	826.402	631.145
375.956	18.595	826.260	631.826
376.971	18.669	825.728	631.638
377.986	18.617	825.540	631.244
379.000	18.496	825.289	630.553
380.015	18.685	824.407	630.517
381.029	18.592	823.979	629.794
382.044	18.730	823.083	629.560
383.059	18.667	822.705	628.983
384.073	18.620	822.189	628.362
385.088	18.586	821.426	627.597
386.102	18.686	820.797	627.426
387.117	18.565	820.094	626.391
388.132	18.405	820.114	625.768
389.146	18.447	819.327	625.264
390.161	18.704	818.675	625.647
391.175	18.535	818.375	624.747
392.190	18.626	817.736	624.536
393.205	18.544	817.295	623.847
394.219	18.460	817.376	623.547
395.234	18.482	816.679	623.039
396.248	18.465	815.942	622.359
397.263	18.479	815.424	621.963
398.278	18.334	815.423	621.381
399.292	18.398	814.944	621.193
400.307	18.547	814.027	620.978
401.321	18.530	813.693	620.608
402.336	18.446	813.225	619.891
403.350	18.737	812.595	620.405
404.365	18.644	812.438	619.897
405.380	18.858	811.728	620.072
406.394	18.816	811.503	619.693
407.409	18.988	810.915	619.810
408.423	18.876	811.221	619.584
409.438	19.061	810.564	619.695
410.453	19.061	809.907	619.138
411.467	19.129	809.640	619.123
412.482	19.104	809.112	618.575
413.496	19.259	808.622	618.704
414.511	19.071	808.629	617.979
415.526	19.039	808.028	617.348
416.540	19.014	807.606	616.882
417.555	19.016	807.153	616.490
418.569	19.116	806.560	616.338
419.584	19.196	805.913	616.077
420.599	19.074	805.919	615.591
421.613	153.774	1368.376	1785.857
422.628	133.485	1450.328	1786.006
