DTS Sentinel unit serial number:	SN413079Multiplexer serial number:	ORYXHardware model number:	OX4-SRSoftware version number:	ORYX F/W v4.00 Oryx Data Collector v3.7.2.0data status	okinstallation	princeton_trtdifferential loss correction	single-endedforward channel	channel 1reverse channel	N/Adate	2019/09/11time	11:20:11forward acquisition time	60.00reverse acquisition time	0.00gamma	496.2192k internal	0.2296k external	0.2296temperature offset calibration	0.9953default loss term (dB/km)	0.3790temperature slope calibration	1.0000multiplexer offset coefficient	1.0000multiplexer slope coefficient	1.0000fibre end	0.00T internal ref (°C)	37.73T ext. ref 1 (°C)	0.17T ext. ref 2 (°C)	34.77length (m)	temperature (°C)	Stokes	anti-Stokes-747.200	800.000	-0.065	-0.191
-746.185	800.000	-0.090	-0.357
-745.171	-200.000	-0.062	-0.358
-744.156	-22.687	-0.445	-0.275
-743.142	109.554	0.204	-0.250
-742.127	800.000	0.080	0.295
-741.112	-45.459	-0.222	0.112
-740.098	23.620	0.188	0.158
-739.083	-72.982	-0.258	-0.097
-738.069	-200.000	-0.106	0.603
-737.054	-200.000	-0.026	0.120
-736.039	-68.599	-0.263	0.104
-735.025	-105.904	0.277	-0.064
-734.010	-54.535	-0.381	-0.176
-732.996	800.000	-0.104	-0.408
-731.981	-78.363	-0.146	0.051
-730.966	-200.000	0.001	0.045
-729.952	141.380	-0.142	-0.192
-728.937	800.000	-0.105	-0.437
-727.923	524.103	-0.101	-0.243
-726.908	-157.641	-0.181	-0.011
-725.894	-69.152	-0.082	0.032
-724.879	-192.929	-0.313	-0.003
-723.864	165.629	-0.206	0.298
-722.850	78.174	0.149	0.162
-721.835	13.658	-0.147	0.117
-720.821	35.573	-0.195	-0.175
-719.806	-81.478	-0.193	0.065
-718.791	-200.000	0.027	-0.273
-717.777	109.625	-0.199	-0.244
-716.762	-191.017	-0.104	-0.001
-715.748	-200.000	0.014	0.174
-714.733	-153.363	0.097	-0.007
-713.718	-45.796	0.176	0.089
-712.704	-62.057	0.393	-0.167
-711.689	-23.080	-0.249	-0.153
-710.675	293.710	-0.115	0.214
-709.660	155.539	-0.041	-0.058
-708.645	-106.679	0.097	0.022
-707.631	-27.613	0.222	0.131
-706.616	-200.000	-0.003	-0.245
-705.602	-200.000	-0.074	-0.399
-704.587	-63.785	0.144	-0.060
-703.572	-37.711	0.189	-0.103
-702.558	-99.692	0.125	0.032
-701.543	118.707	-0.282	-0.356
-700.529	159.780	-0.053	-0.075
-699.514	-186.942	-0.071	0.001
-698.499	-62.605	-0.316	-0.134
-697.485	57.061	0.303	-0.301
-696.470	297.924	0.111	-0.208
-695.456	150.107	-0.081	-0.112
-694.441	-74.827	-0.139	0.051
-693.426	-200.000	-0.043	0.222
-692.412	32.723	-0.198	-0.174
-691.397	-152.533	-0.138	0.010
-690.383	-99.804	-0.212	-0.054
-689.368	-173.662	0.045	-0.001
-688.354	-200.000	-0.005	0.137
-687.339	87.795	-0.061	0.069
-686.324	508.142	-0.108	-0.255
-685.310	212.572	-0.198	-0.319
-684.295	224.922	-0.147	-0.242
-683.281	-71.597	-0.095	-0.036
-682.266	-98.514	-0.250	0.065
-681.251	-200.000	-0.070	0.566
-680.237	-119.641	-0.200	0.035
-679.222	-95.965	0.087	-0.024
-678.208	-69.722	-0.191	0.074
-677.193	-200.000	-0.002	-0.037
-676.178	-88.998	0.264	-0.080
-675.164	378.465	-0.080	-0.166
-674.149	311.970	-0.067	-0.129
-673.135	-200.000	-0.000	0.008
-672.120	800.000	0.044	-0.143
-671.105	53.532	0.104	0.102
-670.091	288.461	0.140	0.258
-669.076	-200.000	-0.033	-0.263
-668.062	271.759	-0.005	-0.009
-667.047	-200.000	-0.011	0.094
-666.032	-87.419	-0.248	-0.076
-665.018	-177.728	-0.041	0.001
-664.003	-200.000	0.040	-0.231
-662.989	371.766	-0.025	0.051
-661.974	22.491	-0.384	-0.320
-660.959	3.991	-0.235	0.175
-659.945	480.240	0.021	-0.049
-658.930	218.868	-0.127	0.206
-657.916	545.581	0.067	-0.164
-656.901	370.426	0.072	-0.149
-655.886	32.131	-0.173	-0.152
-654.872	255.263	-0.027	0.046
-653.857	21.547	-0.134	-0.111
-652.843	-200.000	-0.073	-0.445
-651.828	10.149	0.196	-0.152
-650.814	110.854	-0.020	0.025
-649.799	-200.000	0.004	-0.221
-648.784	800.000	0.093	0.330
-647.770	-200.000	0.018	0.135
-646.755	-21.025	0.379	-0.236
-645.741	584.110	-0.101	-0.253
-644.726	-117.335	-0.189	-0.035
-643.711	-5.434	0.410	0.286
-642.697	-27.564	0.297	-0.176
-641.682	-173.861	0.240	0.007
-640.668	-149.797	-0.282	0.023
-639.653	-74.251	0.229	0.084
-638.638	800.000	0.058	0.206
-637.624	800.000	-0.074	-0.263
-636.609	70.674	-0.260	0.274
-635.595	-64.254	-0.424	0.176
-634.580	104.178	-0.143	0.171
-633.565	-9.190	0.112	-0.076
-632.551	-135.225	0.231	0.028
-631.536	-36.661	-0.425	0.233
-630.522	800.000	-0.136	-0.408
-629.507	195.611	-0.178	-0.276
-628.492	-12.635	0.117	-0.078
-627.478	196.344	-0.142	0.221
-626.463	-112.743	-0.314	-0.063
-625.449	49.398	-0.212	-0.203
-624.434	306.908	0.061	-0.115
-623.419	800.000	0.029	0.097
-622.405	800.000	0.096	0.297
-621.390	-65.612	-0.067	-0.027
-620.376	-27.147	0.090	0.054
-619.361	182.294	-0.196	-0.294
-618.346	25.315	-0.156	-0.132
-617.332	-200.000	-0.018	-0.216
-616.317	-118.400	-0.096	-0.017
-615.303	-153.805	0.253	0.018
-614.288	-200.000	-0.018	-0.278
-613.273	420.548	-0.127	-0.276
-612.259	195.543	-0.057	-0.088
-611.244	113.179	-0.081	-0.099
-610.230	16.335	0.113	0.090
-609.215	-35.206	-0.067	0.037
-608.201	-200.000	0.009	-0.351
-607.186	-200.000	0.026	-0.228
-606.171	-69.691	-0.118	-0.046
-605.157	-81.435	0.468	0.156
-604.142	-200.000	-0.013	-0.063
-603.128	-40.975	0.186	0.098
-602.113	-200.000	-0.021	0.137
-601.098	-128.369	0.264	-0.038
-600.084	-59.039	0.148	0.065
-599.069	800.000	0.042	0.141
-598.055	-52.833	0.184	-0.086
-597.040	-200.000	-0.020	0.103
-596.025	0.582	0.216	-0.157
-595.011	800.000	-0.064	0.204
-593.996	-200.000	-0.013	-0.063
-592.982	225.908	0.222	0.366
-591.967	-200.000	0.003	0.044
-590.952	-130.543	0.207	0.028
-589.938	-200.000	0.005	-0.126
-588.923	215.390	0.101	-0.163
-587.909	-200.000	-0.022	0.146
-586.894	-46.835	-0.075	-0.037
-585.879	118.452	0.154	0.193
-584.865	286.478	0.023	0.042
-583.850	-65.843	-0.272	-0.111
-582.836	-20.752	-0.215	-0.134
-581.821	-48.359	-0.096	-0.047
-580.806	-97.082	-0.325	-0.086
-579.792	-174.142	-0.327	-0.010
-578.777	88.757	-0.007	-0.008
-577.763	402.728	0.066	0.140
-576.748	252.326	0.074	0.128
-575.733	-6.641	-0.230	-0.159
-574.719	2.829	-0.232	-0.171
-573.704	-58.816	0.043	0.019
-572.690	36.123	-0.246	0.220
-571.675	251.111	0.156	-0.269
-570.661	800.000	-0.048	-0.140
-569.646	233.331	0.179	-0.299
-568.631	-200.000	0.044	-0.251
-567.617	56.493	-0.147	-0.145
-566.602	55.258	-0.187	0.183
-565.588	55.481	0.129	-0.126
-564.573	-200.000	-0.050	-0.279
-563.558	49.799	-0.284	0.272
-562.544	-22.485	0.078	-0.048
-561.529	-41.859	0.113	-0.059
-560.515	-102.332	-0.274	0.067
-559.500	-64.891	-0.212	0.087
-558.485	586.595	-0.065	0.162
-557.471	-122.303	0.193	0.032
-556.456	-200.000	-0.034	0.258
-555.442	-200.000	-0.016	0.164
-554.427	541.459	-0.132	-0.319
-553.412	-200.000	0.035	0.212
-552.398	-146.777	-0.016	0.001
-551.383	-37.109	0.254	0.138
-550.369	-114.332	-0.387	-0.076
-549.354	-200.000	-0.002	-0.179
-548.339	157.873	0.094	-0.132
-547.325	-17.064	0.122	0.078
-546.310	800.000	0.070	0.234
-545.296	-200.000	0.073	0.380
-544.281	-68.091	-0.213	0.084
-543.266	-4.090	-0.354	-0.249
-542.252	-10.432	0.232	0.156
-541.237	-200.000	0.008	0.075
-540.223	-200.000	0.015	-0.326
-539.208	133.754	0.121	0.158
-538.193	-138.649	0.084	0.009
-537.179	94.921	-0.154	-0.177
-536.164	-82.103	-0.440	0.145
-535.150	122.569	0.046	-0.059
-534.135	-69.059	-0.020	0.008
-533.121	333.687	-0.033	0.064
-532.106	267.926	0.154	0.273
-531.091	800.000	0.039	0.165
-530.077	-193.186	-0.107	-0.001
-529.062	-47.965	0.339	0.166
-528.048	-157.754	-0.307	-0.018
-527.033	-16.788	0.105	0.067
-526.018	186.532	-0.175	-0.263
-525.004	-54.079	0.177	-0.081
-523.989	190.017	-0.082	0.125
-522.975	-20.993	0.351	-0.217
-521.960	-120.983	0.158	0.027
-520.945	75.139	-0.206	-0.220
-519.931	800.000	0.080	0.295
-518.916	-112.199	0.413	0.084
-517.902	-200.000	-0.015	-0.429
-516.887	39.138	0.149	-0.135
-515.872	35.489	-0.383	-0.341
-514.858	17.480	-0.194	-0.156
-513.843	800.000	0.053	-0.148
-512.829	-200.000	0.048	0.232
-511.814	-165.567	-0.089	-0.004
-510.799	-59.478	0.248	0.108
-509.785	56.730	0.508	0.501
-508.770	-200.000	-0.033	-0.222
-507.756	-200.000	0.048	-0.247
-506.741	-5.006	0.217	-0.152
-505.726	110.868	0.053	-0.064
-504.712	-70.836	0.244	-0.093
-503.697	23.452	-0.194	0.161
-502.683	-166.490	-0.243	-0.010
-501.668	239.678	-0.092	-0.155
-500.653	-200.000	-0.002	-0.337
-499.639	59.188	0.093	-0.093
-498.624	87.265	-0.316	0.354
-497.610	-200.000	-0.012	0.066
-496.595	48.321	-0.431	0.408
-495.581	246.083	-0.133	0.226
-494.566	-200.000	-0.035	-0.412
-493.551	-122.956	-0.568	0.092
-492.537	-116.115	-0.417	0.079
-491.522	-165.590	0.096	-0.004
-490.508	-200.000	-0.043	0.194
-489.493	-150.265	-0.197	0.015
-488.478	-9.421	0.195	0.132
-487.464	651.079	0.024	0.062
-486.449	800.000	-0.080	-0.326
-485.435	-200.000	0.001	-0.223
-484.420	4.124	-0.117	-0.087
-483.405	-132.973	-0.256	-0.033
-482.391	-200.000	-0.049	0.350
-481.376	-200.000	0.001	-0.012
-480.362	380.727	0.101	-0.210
-479.347	-200.000	-0.008	0.133
-478.332	-18.866	0.198	-0.124
-477.318	132.426	0.315	0.411
-476.303	3.404	0.031	-0.023
-475.289	425.245	0.074	-0.161
-474.274	-81.504	0.132	-0.044
-473.259	-155.982	0.189	-0.012
-472.245	130.082	-0.120	0.156
-471.230	-146.217	0.467	-0.041
-470.216	136.298	0.031	0.041
-469.201	54.828	-0.193	-0.188
-468.186	-200.000	0.003	0.186
-467.172	-96.806	-0.076	0.020
-466.157	-150.825	-0.059	-0.004
-465.143	-145.425	0.076	0.007
-464.128	-68.636	-0.166	0.065
-463.113	-18.536	-0.110	0.069
-462.099	-3.527	0.117	0.083
-461.084	-91.370	0.133	-0.038
-460.070	800.000	0.021	-0.064
-459.055	800.000	-0.022	-0.098
-458.040	800.000	0.075	-0.266
-457.026	-151.146	0.199	0.015
-456.011	156.878	-0.041	0.057
-454.997	-101.273	0.131	0.032
-453.982	211.961	0.152	0.242
-452.968	-200.000	0.039	-0.215
-451.953	-24.615	0.023	0.014
-450.938	-200.000	-0.050	-0.256
-449.924	-65.125	0.291	0.119
-448.909	-144.269	0.133	-0.013
-447.895	-161.767	-0.336	-0.017
-446.880	-200.000	-0.027	0.138
-445.865	-94.958	-0.209	-0.057
-444.851	137.940	0.029	-0.038
-443.836	800.000	-0.093	-0.328
-442.822	-92.125	0.323	-0.092
-441.807	800.000	0.031	-0.126
-440.792	133.532	0.144	-0.188
-439.778	-26.926	-0.068	-0.040
-438.763	-200.000	-0.024	0.197
-437.749	-22.609	-0.120	0.073
-436.734	-39.872	0.326	0.172
-435.719	42.622	0.071	0.065
-434.705	-2.989	-0.100	-0.070
-433.690	800.000	0.039	-0.159
-432.676	25.479	-0.253	0.213
-431.661	-109.074	0.329	0.071
-430.646	243.897	0.059	-0.100
-429.632	75.390	-0.100	-0.107
-428.617	-63.562	-0.243	0.101
-427.603	19.327	-0.290	0.235
-426.588	-121.735	0.229	0.038
-425.573	-15.965	0.194	0.124
-424.559	227.593	0.196	-0.321
-423.544	112.183	0.141	0.172
-422.530	-100.621	0.213	-0.053
-421.515	135.271	-0.070	-0.092
-420.500	156.771	-0.021	-0.029
-419.486	4.909	-0.092	0.069
-418.471	-200.000	-0.010	-0.207
-417.457	348.930	-0.149	-0.297
-416.442	638.001	-0.058	-0.149
-415.428	-79.191	-0.123	0.042
-414.413	800.000	0.059	-0.186
-413.398	-4.096	0.264	-0.184
-412.384	-200.000	0.018	0.128
-411.369	149.155	0.072	0.098
-410.355	-200.000	-0.004	0.317
-409.340	-83.278	-0.034	-0.011
-408.325	66.924	-0.106	-0.109
-407.311	-35.308	-0.323	-0.177
-406.296	-62.244	-0.310	0.130
-405.282	-11.777	0.122	0.080
-404.267	-200.000	0.063	0.329
-403.252	-200.000	0.013	-0.251
-402.238	197.131	0.382	0.588
-401.223	410.442	-0.110	0.236
-400.209	-200.000	-0.011	0.128
-399.194	-200.000	0.024	0.216
-398.179	-69.212	0.358	0.139
-397.165	188.386	0.047	0.071
-396.150	800.000	0.055	0.192
-395.136	681.290	-0.057	-0.149
-394.121	-106.005	0.066	-0.015
-393.106	-71.681	0.134	0.050
-392.092	-200.000	0.213	-0.001
-391.077	-129.090	0.202	0.028
-390.063	800.000	-0.064	0.260
-389.048	102.625	-0.110	-0.130
-388.033	-200.000	0.053	-0.239
-387.019	138.364	-0.007	-0.009
-386.004	-88.252	0.183	-0.055
-384.990	-200.000	0.032	-0.227
-383.975	337.558	0.087	-0.170
-382.960	-23.412	-0.057	0.034
-381.946	-83.344	0.440	-0.142
-380.931	498.385	-0.107	0.248
-379.917	-123.616	-0.212	0.034
-378.902	-200.000	0.057	-0.292
-377.888	-86.153	-0.279	-0.087
-376.873	-162.737	0.410	-0.020
-375.858	-200.000	0.028	-0.194
-374.844	230.229	-0.099	0.163
-373.829	800.000	0.028	0.079
-372.815	0.803	0.090	0.065
-371.800	-78.088	0.028	-0.010
-370.785	1.511	0.086	0.062
-369.771	-200.000	0.123	0.607
-368.756	11.088	0.239	-0.184
-367.742	237.013	-0.137	-0.229
-366.727	-200.000	0.036	0.274
-365.712	566.098	-0.117	-0.285
-364.698	136.041	-0.286	-0.375
-363.683	35.336	0.260	-0.230
-362.669	-183.748	-0.158	-0.003
-361.654	-130.623	-0.230	-0.031
-360.639	701.610	-0.088	0.232
-359.625	159.792	0.193	0.270
-358.610	332.873	0.188	-0.365
-357.596	170.444	-0.075	0.107
-356.581	-200.000	0.034	0.282
-355.566	291.026	-0.060	-0.110
-354.552	254.293	-0.050	0.086
-353.537	800.000	-0.086	0.263
-352.523	653.697	0.055	0.142
-351.508	510.116	-0.094	0.221
-350.493	-105.477	-0.227	0.052
-349.479	-5.234	0.095	-0.065
-348.464	60.524	0.179	-0.179
-347.450	-134.747	-0.346	-0.042
-346.435	-119.281	-0.212	0.037
-345.420	-102.595	-0.171	0.041
-344.406	34.890	0.107	-0.094
-343.391	148.024	0.261	-0.354
-342.377	800.000	0.032	0.113
-341.362	195.002	-0.051	0.078
-340.348	33.691	0.103	0.090
-339.333	-97.843	-0.306	-0.080
-338.318	-200.000	0.054	0.252
-337.304	354.931	0.049	-0.098
-336.289	-87.913	-0.340	0.103
-335.275	98.191	0.257	-0.298
-334.260	-186.382	0.331	-0.005
-333.245	-200.000	0.031	0.184
-332.231	-200.000	-0.018	-0.136
-331.216	94.127	-0.119	0.135
-330.202	373.099	-0.044	0.091
-329.187	9.922	0.290	0.222
-328.172	-86.515	-0.291	0.090
-327.158	-200.000	0.061	0.315
-326.143	-31.853	0.263	0.148
-325.129	-55.802	0.117	-0.052
-324.114	370.395	0.120	-0.245
-323.099	65.469	0.179	-0.182
-322.085	-200.000	-0.074	-0.497
-321.070	160.170	-0.038	0.053
-320.056	-105.823	0.207	0.047
-319.041	263.746	-0.078	-0.137
-318.026	56.475	0.074	-0.073
-317.012	-200.000	0.016	-0.112
-315.997	-53.921	-0.024	-0.011
-314.983	-134.260	0.365	-0.045
-313.968	-137.954	-0.227	-0.025
-312.953	800.000	-0.028	-0.101
-311.939	-7.866	0.360	0.244
-310.924	-200.000	-0.030	-0.196
-309.910	-40.104	-0.295	-0.154
-308.895	-66.568	-0.300	0.119
-307.880	-107.940	-0.414	-0.090
-306.866	46.701	0.078	-0.073
-305.851	377.345	0.123	0.253
-304.837	33.072	0.074	-0.064
-303.822	459.524	-0.114	0.254
-302.807	-44.974	0.177	-0.088
-301.793	-200.000	0.072	0.396
-300.778	800.000	-0.062	-0.205
-299.764	-148.045	-0.026	0.002
-298.749	613.295	0.076	-0.192
-297.735	-200.000	-0.019	-0.307
-296.720	142.417	-0.059	-0.079
-295.705	-4.057	-0.319	-0.222
-294.691	-62.530	-0.115	-0.048
-293.676	-200.000	0.049	0.275
-292.662	-29.946	0.204	-0.117
-291.647	-200.000	-0.019	-0.295
-290.632	-68.942	-0.214	-0.083
-289.618	-73.094	0.161	-0.059
-288.603	225.661	-0.054	0.088
-287.589	370.048	0.071	-0.145
-286.574	299.616	-0.177	-0.327
-285.559	21.711	-0.176	0.144
-284.545	418.677	0.149	0.321
-283.530	-15.647	-0.295	0.189
-282.516	90.241	0.145	-0.163
-281.501	435.235	0.078	0.170
-280.486	233.459	0.101	0.166
-279.472	-200.000	-0.008	0.235
-278.457	303.127	0.035	0.064
-277.443	112.060	0.206	-0.250
-276.428	800.000	-0.046	0.158
-275.413	-85.035	-0.101	-0.032
-274.399	-16.139	-0.162	0.104
-273.384	120.182	-0.075	-0.094
-272.370	-170.998	0.063	-0.002
-271.355	223.387	-0.106	-0.172
-270.340	-29.686	-0.470	-0.269
-269.326	800.000	0.069	0.246
-268.311	-65.082	0.401	-0.162
-267.297	-17.021	-0.069	-0.044
-266.282	-200.000	-0.007	-0.068
-265.267	-52.749	0.253	-0.117
-264.253	-38.693	-0.327	-0.173
-263.238	-72.914	0.157	-0.058
-262.224	-72.356	0.061	0.023
-261.209	736.227	-0.087	0.235
-260.195	-200.000	-0.021	0.268
-259.180	-200.000	-0.003	-0.119
-258.165	-200.000	0.024	0.291
-257.151	136.418	0.062	-0.081
-256.136	21.834	-0.108	-0.089
-255.122	587.552	-0.081	-0.199
-254.107	-52.949	0.360	-0.166
-253.092	659.852	-0.138	0.356
-252.078	-85.450	-0.276	0.086
-251.063	-51.834	-0.146	0.068
-250.049	-200.000	0.070	0.442
-249.034	-200.000	0.003	0.075
-248.019	-200.000	-0.008	0.179
-247.005	92.002	-0.234	-0.264
-245.990	90.353	-0.122	-0.136
-244.976	219.681	-0.099	0.159
-243.961	-200.000	-0.027	0.469
-242.946	735.454	0.057	0.152
-241.932	415.450	0.050	-0.107
-240.917	800.000	-0.021	-0.060
-239.903	89.915	0.126	-0.141
-238.888	-61.998	0.177	-0.074
-237.873	-31.589	-0.135	0.076
-236.859	800.000	0.076	-0.267
-235.844	-45.907	-0.079	0.039
-234.830	81.159	0.135	0.146
-233.815	284.137	0.091	-0.164
-232.800	-23.395	-0.203	0.122
-231.786	-13.924	0.320	0.207
-230.771	275.795	0.115	0.204
-229.757	-17.351	0.065	-0.041
-228.742	262.109	-0.054	0.094
-227.727	188.481	-0.222	0.332
-226.713	99.674	0.038	-0.044
-225.698	488.352	0.069	0.159
-224.684	-200.000	0.008	-0.437
-223.669	-142.554	-0.086	0.008
-222.655	-11.091	0.305	0.201
-221.640	-119.577	-0.403	0.070
-220.625	625.984	0.118	0.299
-219.611	-114.447	0.241	0.046
-218.596	197.358	-0.082	0.126
-217.582	265.981	-0.059	-0.104
-216.567	343.199	0.100	0.196
-215.552	-193.718	0.395	0.003
-214.538	243.942	-0.054	-0.091
-213.523	-177.985	-0.102	-0.002
-212.509	45.354	-0.022	0.021
-211.494	-26.594	0.093	-0.055
-210.479	-200.000	-0.027	-0.339
-209.465	-47.891	-0.087	-0.042
-208.450	44.697	0.122	-0.112
-207.436	-95.843	-0.094	0.025
-206.421	-95.691	-0.187	-0.050
-205.406	-75.662	0.338	0.120
-204.392	-104.305	0.055	-0.013
-203.377	-200.000	-0.022	-0.156
-202.363	82.705	-0.150	-0.163
-201.348	-200.000	0.004	0.076
-200.333	-40.560	0.277	0.144
-199.319	98.637	0.112	-0.129
-198.304	137.286	0.103	0.134
-197.290	-77.021	0.485	0.169
-196.275	170.677	-0.195	0.280
-195.260	-22.189	-0.356	-0.216
-194.246	558.848	-0.043	0.103
-193.231	-200.000	0.044	-0.201
-192.217	-80.037	-0.358	-0.120
-191.202	-33.413	0.086	0.048
-190.187	800.000	-0.034	-0.123
-189.173	537.119	-0.134	0.317
-188.158	-119.553	0.204	-0.035
-187.144	800.000	-0.063	0.205
-186.129	-45.687	-0.249	-0.123
-185.114	20.684	-0.279	-0.226
-184.100	-163.305	-0.305	-0.015
-183.085	13.049	-0.278	0.215
-182.071	-200.000	0.058	0.288
-181.056	422.729	-0.147	0.316
-180.042	131.995	-0.239	0.307
-179.027	172.238	-0.140	-0.202
-178.012	-139.149	0.066	0.007
-176.998	48.068	-0.180	-0.168
-175.983	-200.000	0.042	-0.492
-174.969	-75.755	-0.134	-0.047
-173.954	183.312	0.111	0.164
-172.939	107.068	0.187	-0.222
-171.925	-28.437	0.210	0.121
-170.910	58.410	0.166	0.162
-169.896	-38.046	-0.426	0.226
-168.881	163.100	-0.217	0.305
-167.866	-84.497	-0.041	0.013
-166.852	-7.761	0.146	-0.098
-165.837	21.888	0.043	-0.035
-164.823	26.881	0.055	-0.046
-163.808	-48.531	0.248	-0.119
-162.793	-171.824	-0.243	-0.008
-161.779	-116.425	0.166	-0.031
-160.764	-62.913	0.096	0.040
-159.750	97.256	-0.064	0.074
-158.735	800.000	0.057	0.191
-157.720	-200.000	-0.023	-0.123
-156.706	-200.000	0.026	-0.171
-155.691	-200.000	0.018	-0.136
-154.677	-200.000	-0.003	-0.109
-153.662	-68.980	0.218	0.084
-152.647	71.230	0.241	-0.250
-151.633	-21.233	0.108	-0.066
-150.618	141.475	-0.124	0.164
-149.604	56.353	0.238	0.231
-148.589	-148.783	0.276	0.022
-147.574	-195.361	-0.376	0.003
-146.560	-200.000	-0.013	-0.133
-145.545	69.024	-0.144	-0.148
-144.531	80.869	-0.076	-0.082
-143.516	-200.000	-0.037	-0.300
-142.502	-61.190	-0.088	-0.037
-141.487	303.907	-0.084	0.156
-140.472	-200.000	-0.002	0.075
-139.458	-100.957	0.175	0.043
-138.443	109.807	0.109	-0.130
-137.429	-200.000	0.032	0.558
-136.414	244.872	-0.156	0.261
-135.399	-83.144	-0.196	0.063
-134.385	24.103	0.413	0.340
-133.370	800.000	-0.039	0.126
-132.356	35.063	0.015	-0.013
-131.341	-18.029	0.072	0.045
-130.326	459.938	0.203	0.450
-129.312	-70.126	0.229	-0.087
-128.297	174.541	0.106	0.153
-127.283	-191.431	0.224	-0.002
-126.268	-186.634	0.089	-0.001
-125.253	-129.782	-0.347	-0.048
-124.239	-200.000	0.001	0.242
-123.224	-148.342	0.174	-0.014
-122.210	80.753	0.132	0.142
-121.195	143.592	-0.131	-0.174
-120.180	800.000	0.032	-0.098
-119.166	30.872	-0.162	-0.138
-118.151	-200.000	0.048	-0.320
-117.137	103.806	0.142	0.167
-116.122	301.632	0.066	-0.122
-115.107	-123.420	-0.170	0.027
-114.093	-145.891	-0.330	-0.029
-113.078	800.000	-0.043	0.127
-112.064	-15.906	0.259	0.164
-111.049	-200.000	0.031	-0.218
-110.034	-30.250	-0.040	0.023
-109.020	64.706	0.114	0.114
-108.005	317.221	0.016	-0.029
-106.991	-164.160	0.294	-0.014
-105.976	-4.105	0.377	0.260
-104.962	709.859	-0.028	-0.075
-103.947	10.975	0.060	-0.046
-102.932	10.531	0.159	-0.121
-101.918	-126.358	0.423	0.063
-100.903	47.795	0.368	0.342
-99.889	800.000	-0.071	0.256
-98.874	-45.245	-0.055	-0.027
-97.859	800.000	-0.049	-0.156
-96.845	800.000	-0.054	-0.199
-95.830	84.387	0.048	0.052
-94.816	-53.648	-0.341	0.155
-93.801	-200.000	-0.015	0.211
-92.786	-200.000	-0.066	-0.532
-91.772	-111.351	-0.117	0.024
-90.757	-200.000	-0.014	-0.138
-89.743	800.000	-0.050	-0.158
-88.728	-178.054	0.152	-0.004
-87.713	-85.752	-0.258	0.080
-86.699	-112.796	0.299	0.059
-85.684	-34.172	0.070	-0.038
-84.670	-154.306	0.401	-0.027
-83.655	-28.270	0.198	0.114
-82.640	-200.000	0.002	-0.037
-81.626	267.054	-0.109	-0.191
-80.611	-87.138	-0.220	-0.067
-79.597	-103.409	0.183	0.043
-78.582	66.058	0.097	-0.098
-77.567	462.276	-0.115	-0.256
-76.553	-36.101	0.027	-0.015
-75.538	-156.057	-0.115	0.007
-74.524	-189.552	0.093	-0.001
-73.509	316.285	0.075	0.141
-72.494	216.826	0.200	0.317
-71.480	65.178	0.120	0.120
-70.465	-43.002	0.152	0.077
-69.451	-200.000	-0.030	-0.190
-68.436	-200.000	-0.008	-0.115
-67.422	131.879	-0.218	0.279
-66.407	34.691	-0.062	-0.054
-65.392	800.000	0.062	-0.196
-64.378	223.975	-0.159	0.255
-63.363	106.319	0.063	-0.074
-62.349	-149.561	-0.185	0.015
-61.334	23.183	-0.853	-0.697
-60.319	-88.400	0.470	0.140
-59.305	-200.000	-0.204	-0.903
-58.290	36.516	0.876	0.769
-57.276	341.092	0.697	1.354
-56.261	-200.000	84.524	510.760
-55.246	565.049	1379.367	3325.357
-54.232	182.017	2612.902	3827.412
-53.217	121.318	2248.928	2785.392
-52.203	48.960	1697.281	1584.614
-51.188	41.047	1428.133	1282.542
-50.173	37.769	1384.260	1222.562
-49.159	56.991	1423.793	1379.872
-48.144	61.460	1441.861	1425.665
-47.130	41.488	1402.902	1262.476
-46.115	37.748	1386.086	1223.853
-45.100	37.590	1381.346	1218.626
-44.086	37.474	1379.088	1215.865
-43.071	37.536	1376.433	1213.858
-42.057	37.532	1374.130	1211.754
-41.042	37.506	1372.609	1210.202
-40.027	37.531	1371.539	1209.371
-39.013	37.711	1368.908	1208.118
-37.998	37.772	1367.190	1206.929
-36.984	37.734	1365.623	1205.264
-35.969	37.846	1363.577	1204.104
-34.954	37.728	1362.298	1202.201
-33.940	37.757	1360.752	1200.963
-32.925	37.812	1358.755	1199.495
-31.911	37.804	1357.195	1198.017
-30.896	37.716	1356.392	1196.720
-29.881	37.859	1354.429	1195.822
-28.867	37.839	1352.871	1194.273
-27.852	37.879	1351.547	1193.305
-26.838	37.839	1350.302	1191.913
-25.823	37.892	1349.050	1191.085
-24.809	37.838	1347.484	1189.325
-23.794	37.905	1345.810	1188.208
-22.779	37.942	1344.433	1187.169
-21.765	37.883	1343.369	1185.824
-20.750	37.743	1342.279	1183.966
-19.736	37.572	1341.454	1182.150
-18.721	37.681	1339.627	1181.154
-17.706	37.722	1338.385	1180.262
-16.692	37.712	1337.149	1179.066
-15.677	37.640	1336.071	1177.632
-14.663	37.659	1335.072	1176.819
-13.648	37.630	1333.579	1175.284
-12.633	37.661	1332.788	1174.724
-11.619	37.648	1331.609	1173.560
-10.604	37.744	1330.730	1173.317
-9.590	37.646	1329.796	1171.858
-8.575	37.676	1328.801	1171.114
-7.560	37.584	1328.154	1169.944
-6.546	37.480	1327.580	1168.770
-5.531	37.654	1325.793	1168.193
-4.517	37.637	1324.936	1167.286
-3.502	37.701	1323.937	1166.744
-2.487	37.753	1322.832	1166.039
-1.473	37.831	1318.751	1162.857
-0.458	36.833	1304.482	1144.334
0.556	32.090	1286.238	1107.503
1.571	28.663	1291.033	1091.200
2.586	27.641	1307.101	1098.531
3.600	26.295	1295.537	1080.672
4.615	18.243	1214.996	968.040
5.629	5.951	1129.150	834.567
6.644	0.518	1105.425	788.624
7.659	0.036	1102.546	783.991
8.673	0.035	1101.277	783.014
9.688	0.072	1099.223	781.673
10.702	0.550	1098.316	783.443
11.717	7.984	1110.565	831.007
12.731	18.630	1126.379	898.828
13.746	22.307	1130.403	921.255
14.761	22.216	1129.702	920.121
15.775	22.182	1129.065	919.346
16.790	21.860	1128.475	917.099
17.804	21.781	1127.585	915.883
18.819	21.979	1126.898	916.275
19.834	22.040	1126.421	916.124
20.848	22.013	1125.974	915.539
21.863	22.048	1125.430	915.203
22.877	21.892	1125.011	913.967
23.892	21.894	1124.152	913.198
24.907	21.877	1123.569	912.554
25.921	22.025	1122.191	912.124
26.936	22.015	1120.551	910.659
27.950	21.848	1119.475	908.836
28.965	21.791	1117.606	906.946
29.980	21.795	1115.776	905.399
30.994	22.063	1114.733	905.856
32.009	21.957	1113.832	904.498
33.023	21.712	1112.582	902.140
34.038	21.944	1111.482	902.363
35.053	22.013	1110.780	902.067
36.067	21.963	1109.954	901.059
37.082	22.025	1109.347	900.807
38.096	22.187	1108.344	900.741
39.111	22.252	1107.200	900.069
40.126	22.169	1105.609	898.266
41.140	21.785	1103.742	894.713
42.155	21.574	1102.520	892.570
43.169	21.618	1101.566	891.938
44.184	21.696	1100.608	891.485
45.199	21.486	1099.530	889.463
46.213	21.548	1099.061	889.321
47.228	21.673	1098.283	889.249
48.242	21.903	1096.533	888.914
49.257	21.868	1096.319	888.487
50.271	22.081	1095.548	888.864
51.286	22.118	1094.307	887.961
52.301	22.045	1094.045	887.304
53.315	21.938	1092.685	885.580
54.330	21.899	1091.535	884.376
55.344	22.002	1091.224	884.564
56.359	21.801	1090.516	882.898
57.374	21.782	1089.113	881.591
58.388	21.814	1088.300	881.014
59.403	21.624	1087.533	879.360
60.417	21.486	1086.073	877.409
61.432	21.480	1085.757	877.048
62.447	21.746	1084.957	877.657
63.461	21.868	1084.302	877.660
64.476	21.747	1083.481	876.313
65.490	21.602	1082.497	874.712
66.505	21.693	1081.467	874.260
67.520	21.613	1081.198	873.567
68.534	21.597	1079.783	872.263
69.549	21.230	1078.609	869.413
70.563	21.357	1077.402	868.995
71.578	21.249	1077.012	868.066
72.593	21.030	1076.131	866.191
73.607	21.211	1075.085	866.169
74.622	21.498	1075.051	867.492
75.636	21.604	1074.471	867.471
76.651	21.406	1073.304	865.474
77.666	21.477	1072.051	864.736
78.680	21.393	1071.842	864.074
79.695	21.467	1071.409	864.015
80.709	21.509	1070.558	863.462
81.724	21.416	1070.066	862.526
82.739	21.652	1068.882	862.659
83.753	21.942	1068.427	863.646
84.768	22.238	1067.862	864.568
85.782	22.249	1066.758	863.652
86.797	22.229	1065.490	862.449
87.812	22.026	1064.387	860.486
88.826	22.093	1063.458	859.984
89.841	22.160	1062.380	859.364
90.855	22.243	1061.313	858.833
91.870	22.167	1060.403	857.650
92.884	22.048	1059.160	855.985
93.899	22.058	1058.313	855.277
94.914	22.219	1057.506	855.331
95.928	22.000	1056.539	853.408
96.943	21.740	1054.859	850.714
97.957	21.539	1053.722	848.746
98.972	21.307	1052.999	846.965
99.987	21.729	1052.056	848.178
101.001	21.924	1051.455	848.559
102.016	21.951	1050.665	847.975
103.030	21.827	1049.490	846.357
104.045	21.615	1048.431	844.406
105.060	21.525	1046.836	842.612
106.074	21.756	1046.639	843.489
107.089	22.092	1045.951	844.479
108.103	21.925	1044.678	842.572
109.118	21.684	1043.669	840.529
110.133	21.677	1042.430	839.424
111.147	21.515	1041.363	837.713
112.162	21.447	1040.104	836.303
113.176	21.731	1039.283	836.926
114.191	21.547	1039.015	835.756
115.206	21.201	1037.407	832.741
116.220	21.193	1036.693	832.052
117.235	21.325	1036.070	832.106
118.249	21.423	1034.855	831.524
119.264	21.375	1034.070	830.594
120.279	21.348	1033.611	830.021
121.293	21.454	1032.726	829.740
122.308	21.526	1031.778	829.248
123.322	21.356	1030.214	827.114
124.337	21.308	1029.038	825.867
125.352	20.745	1027.484	821.891
126.366	20.774	1026.555	821.213
127.381	21.537	1026.152	824.411
128.395	21.868	1026.170	825.911
129.410	21.989	1025.105	825.553
130.424	22.044	1023.802	824.687
131.439	21.949	1023.326	823.784
132.454	21.859	1022.274	822.445
133.468	22.005	1021.234	822.218
134.483	21.970	1020.674	821.531
135.497	22.278	1019.207	821.715
136.512	22.167	1019.375	821.259
137.527	22.315	1017.518	820.383
138.541	22.286	1017.176	819.899
139.556	22.176	1016.494	818.765
140.570	22.283	1015.639	818.500
141.585	22.294	1013.956	817.123
142.600	22.294	1012.679	816.024
143.614	22.410	1012.296	816.176
144.629	22.412	1011.880	815.782
145.643	22.299	1010.114	813.764
146.658	22.125	1008.988	811.979
147.673	22.160	1007.483	810.856
148.687	22.072	1006.744	809.785
149.702	21.923	1006.135	808.538
150.716	21.953	1004.900	807.610
151.731	22.183	1004.432	808.222
152.746	22.166	1003.849	807.600
153.760	22.402	1002.939	807.881
154.775	22.393	1002.243	807.208
155.789	22.254	1001.640	806.012
156.804	22.372	1000.103	805.246
157.819	22.392	999.633	804.886
158.833	22.409	999.455	804.753
159.848	22.455	998.040	803.751
160.862	22.227	996.567	801.453
161.877	22.303	995.567	800.925
162.892	22.327	994.798	800.342
163.906	22.416	993.075	799.293
164.921	22.300	992.267	798.046
165.935	22.245	991.712	797.279
166.950	22.317	990.509	796.566
167.964	22.275	989.739	795.685
168.979	22.177	988.529	794.200
169.994	22.131	987.481	793.080
171.008	22.341	987.057	793.617
172.023	22.332	986.136	792.768
173.037	22.256	984.677	791.181
174.052	22.053	983.897	789.570
175.067	22.103	983.405	789.332
176.081	22.226	982.806	789.332
177.096	22.057	982.314	788.108
178.110	21.727	981.487	785.897
179.125	21.631	980.230	784.389
180.140	21.683	979.926	784.312
181.154	21.815	979.542	784.528
182.169	22.163	979.446	785.937
183.183	22.271	979.112	786.079
184.198	22.274	977.548	784.770
185.213	22.182	977.252	784.052
186.227	22.236	976.550	783.658
187.242	22.371	975.618	783.441
188.256	22.342	974.907	782.673
189.271	22.338	974.071	781.916
190.286	22.154	972.677	779.913
191.300	21.566	971.539	776.325
192.315	20.707	970.418	771.552
193.329	20.679	969.750	770.827
194.344	21.583	969.852	774.846
195.359	22.028	970.243	777.059
196.373	22.219	969.523	777.259
197.388	22.066	968.575	775.751
198.402	22.119	967.972	775.437
199.417	22.143	967.135	774.801
200.432	21.827	966.149	772.551
201.446	21.913	965.158	772.068
202.461	21.727	965.124	771.156
203.475	21.053	962.794	766.266
204.490	20.357	961.021	761.735
205.504	21.123	962.294	766.040
206.519	21.787	961.920	768.586
207.534	21.837	961.595	768.475
208.548	22.320	961.067	770.103
209.563	22.026	959.965	767.865
210.577	21.939	959.504	767.046
211.592	22.453	958.934	768.770
212.607	22.342	958.218	767.645
213.621	22.376	957.636	767.257
214.636	22.441	956.891	766.873
215.650	22.203	956.423	765.396
216.665	22.446	955.568	765.702
217.680	22.393	954.063	764.197
218.694	21.917	953.263	761.426
219.709	21.770	952.907	760.433
220.723	22.145	952.644	761.782
221.738	22.096	952.147	761.107
222.753	22.108	951.099	760.254
223.767	22.217	950.928	760.521
224.782	22.435	950.669	761.187
225.796	22.464	949.513	760.320
226.811	21.768	948.185	756.187
227.826	21.196	946.770	752.530
228.840	21.252	946.644	752.602
229.855	21.333	945.756	752.180
230.869	21.103	944.194	749.880
231.884	21.466	944.430	751.564
232.899	22.323	944.559	755.279
233.913	22.183	943.367	753.660
234.928	22.045	943.172	752.847
235.942	21.999	942.532	752.072
236.957	21.815	941.334	750.263
237.972	21.770	940.917	749.671
238.986	21.946	940.160	749.752
240.001	21.941	939.907	749.463
241.015	22.094	938.726	749.110
242.030	22.060	938.426	748.658
243.045	22.214	937.754	748.712
244.059	22.327	937.723	749.099
245.074	22.078	936.782	747.223
246.088	21.864	935.491	745.218
247.103	22.025	935.727	746.026
248.117	22.683	935.373	748.469
249.132	22.811	934.916	748.582
250.147	23.066	934.044	748.895
251.161	23.232	933.161	748.826
252.176	23.081	932.919	747.926
253.190	23.017	932.700	747.413
254.205	23.294	931.654	747.679
255.220	23.230	931.074	746.877
256.234	23.149	930.067	745.660
257.249	22.865	929.543	743.977
258.263	22.927	929.048	743.779
259.278	23.062	928.163	743.571
260.293	23.143	927.527	743.335
261.307	23.021	926.693	742.093
262.322	22.744	925.803	740.149
263.336	22.030	923.960	735.620
264.351	21.011	921.968	729.710
265.366	21.064	921.599	729.573
266.380	22.262	922.142	734.947
267.395	22.871	921.665	737.046
268.409	22.695	921.492	736.107
269.424	22.843	920.644	735.982
270.439	23.003	920.052	736.111
271.453	23.091	919.403	735.892
272.468	22.993	919.586	735.567
273.482	22.953	919.210	735.035
274.497	22.745	917.572	732.794
275.512	22.361	916.483	730.267
276.526	22.794	916.210	731.781
277.541	23.030	915.650	732.245
278.555	22.691	915.098	730.336
279.570	22.514	914.324	728.923
280.585	22.698	913.652	729.081
281.599	22.648	912.846	728.170
282.614	22.223	911.524	725.297
283.628	22.154	910.790	724.362
284.643	22.605	910.726	726.108
285.657	22.067	909.452	722.813
286.672	21.765	908.798	720.987
287.687	22.220	908.629	722.663
288.701	22.542	907.693	723.174
289.716	22.232	906.751	721.089
290.730	22.181	906.156	720.341
291.745	21.904	905.263	718.436
292.760	22.133	905.007	719.106
293.774	23.016	905.579	723.111
294.789	23.505	905.136	724.692
295.803	23.415	904.930	724.096
296.818	23.384	904.036	723.190
297.833	22.863	903.034	720.200
298.847	22.723	902.565	719.191
299.862	23.190	902.249	720.776
300.876	23.529	901.377	721.395
301.891	23.429	900.514	720.236
302.906	22.839	899.987	717.353
303.920	23.119	899.521	718.056
304.935	23.372	899.641	719.114
305.949	23.426	898.373	718.258
306.964	23.063	897.885	716.331
307.979	23.182	897.576	716.505
308.993	23.673	896.740	717.760
310.008	23.485	896.321	716.601
311.022	23.180	895.540	714.680
312.037	23.105	894.984	713.870
313.052	22.893	893.989	712.162
314.066	22.077	892.347	707.505
315.081	21.804	891.516	705.682
316.095	22.574	891.967	709.077
317.110	23.020	891.903	710.759
318.125	22.087	890.555	705.874
319.139	21.302	888.793	701.264
320.154	21.224	888.519	700.676
321.168	22.023	888.954	704.161
322.183	22.744	889.372	707.320
323.197	22.920	888.692	707.421
324.212	23.153	888.059	707.787
325.227	23.160	887.264	707.121
326.241	23.080	886.561	706.178
327.256	22.914	885.964	704.978
328.270	22.919	885.203	704.329
329.285	22.627	884.415	702.478
330.300	22.524	883.549	701.315
331.314	22.524	883.582	701.281
332.329	23.037	883.291	703.027
333.343	23.237	882.917	703.464
334.358	23.151	882.643	702.838
335.373	23.348	882.127	703.150
336.387	23.557	881.667	703.549
337.402	23.703	881.946	704.287
338.416	23.664	881.286	703.545
339.431	23.868	880.565	703.715
340.446	23.871	880.650	703.731
341.460	23.708	880.018	702.519
342.475	23.564	879.404	701.398
343.489	23.570	879.422	701.374
344.504	24.047	878.917	702.795
345.519	24.086	878.152	702.274
346.533	24.145	878.019	702.336
347.548	24.118	877.442	701.706
348.562	24.071	877.043	701.141
349.577	23.894	876.375	699.850
350.592	24.073	875.376	699.694
351.606	23.974	874.814	698.791
352.621	23.918	873.906	697.786
353.635	23.773	873.167	696.564
354.650	23.257	871.169	692.890
355.665	22.256	869.877	687.888
356.679	22.612	869.396	688.840
357.694	23.059	869.319	690.461
358.708	23.045	868.637	689.804
359.723	23.257	868.935	690.809
360.738	23.594	868.507	691.722
361.752	23.800	867.881	691.965
362.767	24.098	867.239	692.549
363.781	24.318	867.068	693.207
364.796	24.319	866.914	693.026
365.810	24.455	866.515	693.174
366.825	24.417	865.829	692.418
367.840	23.939	865.175	689.979
368.854	23.803	863.919	688.388
369.869	23.658	863.403	687.356
370.883	23.885	862.970	687.828
371.898	23.618	862.796	686.597
372.913	23.797	862.241	686.788
373.927	23.815	862.064	686.654
374.942	23.996	861.560	686.890
375.956	24.048	861.188	686.732
376.971	24.188	861.050	687.102
377.986	24.365	860.397	687.202
379.000	24.367	859.669	686.569
380.015	24.127	858.861	684.941
381.029	24.260	858.494	685.095
382.044	24.441	857.692	685.091
383.059	24.509	856.845	684.615
384.073	24.422	856.593	684.020
385.088	24.299	856.231	683.199
386.102	24.149	855.176	681.723
387.117	24.167	854.568	681.246
388.132	23.811	853.420	678.910
389.146	23.299	852.646	676.282
390.161	23.585	852.873	677.494
391.175	24.054	852.152	678.651
392.190	23.770	851.173	676.728
393.205	22.344	848.989	669.512
394.219	20.911	847.477	662.814
395.234	20.832	847.045	662.116
396.248	22.459	848.839	669.652
397.263	23.950	849.489	675.773
398.278	23.834	849.295	675.118
399.292	23.660	848.258	673.575
400.307	23.498	847.985	672.683
401.321	23.666	847.770	673.091
402.336	24.171	847.269	674.548
403.350	24.505	847.262	675.746
404.365	24.762	847.118	676.545
405.380	25.097	846.698	677.416
406.394	24.959	846.394	676.589
407.409	24.938	845.650	675.855
408.423	24.843	845.267	675.131
409.438	25.027	845.092	675.625
410.453	25.082	844.138	675.009
411.467	24.860	843.725	673.785
412.482	24.948	843.084	673.543
413.496	25.080	842.816	673.765
414.511	24.990	842.554	673.159
415.526	25.152	841.701	673.026
416.540	25.004	840.852	671.732
417.555	24.722	840.403	670.258
418.569	24.717	840.154	669.980
419.584	24.737	839.565	669.526
420.599	24.540	838.934	668.226
421.613	148.910	1367.385	1779.801
422.628	130.166	1444.406	1779.922
