DTS Sentinel unit serial number:	SN413079Multiplexer serial number:	ORYXHardware model number:	OX4-SRSoftware version number:	ORYX F/W v4.00 Oryx Data Collector v3.7.2.0data status	okinstallation	princeton_trtdifferential loss correction	single-endedforward channel	channel 1reverse channel	N/Adate	2019/09/16time	06:22:35forward acquisition time	60.00reverse acquisition time	0.00gamma	496.2192k internal	0.2331k external	0.2331temperature offset calibration	0.9984default loss term (dB/km)	0.3790temperature slope calibration	1.0000multiplexer offset coefficient	1.0000multiplexer slope coefficient	1.0000fibre end	0.00T internal ref (°C)	27.41T ext. ref 1 (°C)	11.33T ext. ref 2 (°C)	21.62length (m)	temperature (°C)	Stokes	anti-Stokes-747.200	150.094	-0.132	0.181
-746.185	87.266	-0.141	0.157
-745.171	-200.000	0.083	-0.470
-744.156	800.000	-0.057	0.167
-743.142	-31.101	0.092	-0.052
-742.127	800.000	-0.020	-0.061
-741.112	91.833	-0.108	-0.122
-740.098	24.240	0.325	-0.270
-739.083	-23.653	0.224	0.135
-738.069	-200.000	0.110	0.000
-737.054	395.585	-0.027	-0.056
-736.039	49.711	-0.439	-0.416
-735.025	-200.000	0.014	0.104
-734.010	21.797	0.170	0.139
-732.996	459.350	-0.161	-0.360
-731.981	57.140	0.193	-0.190
-730.966	-200.000	0.009	-0.266
-729.952	110.911	-0.238	-0.289
-728.937	-200.000	0.001	-0.231
-727.923	603.971	-0.109	-0.273
-726.908	-200.000	-0.007	-0.090
-725.894	180.657	-0.239	-0.352
-724.879	23.909	0.091	0.076
-723.864	-90.046	-0.307	-0.090
-722.850	288.928	0.040	0.073
-721.835	-79.380	-0.224	0.076
-720.821	164.263	-0.222	0.315
-719.806	97.789	0.230	-0.266
-718.791	800.000	0.153	-0.548
-717.777	-200.000	0.006	-0.325
-716.762	800.000	-0.060	-0.178
-715.748	26.455	0.165	-0.138
-714.733	223.816	0.133	0.215
-713.718	-100.816	0.131	-0.032
-712.704	100.451	0.070	-0.082
-711.689	-37.164	0.335	-0.180
-710.675	3.057	0.084	0.061
-709.660	800.000	0.036	0.106
-708.645	55.139	-0.116	-0.112
-707.631	65.141	0.194	-0.197
-706.616	267.997	0.151	-0.266
-705.602	-123.983	0.242	-0.038
-704.587	39.184	0.081	0.072
-703.572	209.928	0.270	0.426
-702.558	133.407	-0.111	0.145
-701.543	-112.415	-0.089	0.018
-700.529	800.000	0.035	-0.101
-699.514	-200.000	-0.005	0.321
-698.499	64.582	-0.089	-0.090
-697.485	89.182	0.213	-0.238
-696.470	800.000	0.025	0.071
-695.456	472.015	0.132	0.299
-694.441	-64.079	0.075	0.031
-693.426	-92.196	0.235	0.067
-692.412	-78.682	0.213	0.073
-691.397	-123.293	-0.280	0.045
-690.383	-200.000	0.038	-0.359
-689.368	-200.000	0.051	-0.292
-688.354	800.000	0.046	-0.135
-687.339	-148.506	0.325	-0.027
-686.324	116.293	0.024	-0.029
-685.310	154.888	0.164	-0.227
-684.295	-22.949	-0.269	-0.163
-683.281	51.009	0.152	0.145
-682.266	800.000	0.101	-0.309
-681.251	559.555	-0.123	-0.298
-680.237	112.214	-0.092	-0.112
-679.222	-200.000	0.006	-0.144
-678.208	-200.000	-0.000	-0.049
-677.193	-7.111	0.272	-0.185
-676.178	-70.947	-0.413	-0.156
-675.164	195.156	0.074	0.113
-674.149	-162.103	0.251	0.013
-673.135	-126.136	-0.011	-0.002
-672.120	-17.777	-0.077	0.048
-671.105	800.000	-0.018	0.077
-670.091	800.000	-0.105	-0.332
-669.076	-114.650	-0.075	-0.014
-668.062	137.650	-0.213	-0.280
-667.047	800.000	-0.061	-0.180
-666.032	-200.000	-0.017	-0.140
-665.018	39.512	0.169	-0.152
-664.003	-123.657	-0.207	-0.033
-662.989	152.213	-0.189	0.259
-661.974	-8.386	-0.348	-0.235
-660.959	80.764	0.392	0.424
-659.945	635.056	0.121	0.307
-658.930	607.102	-0.094	0.235
-657.916	557.934	0.071	-0.173
-656.901	772.385	0.091	0.249
-655.886	-97.848	-0.515	0.133
-654.872	80.198	0.206	0.222
-653.857	542.013	0.041	0.098
-652.843	90.433	-0.139	-0.156
-651.828	-6.504	-0.184	0.126
-650.814	-129.558	0.090	-0.013
-649.799	-88.237	-0.160	-0.048
-648.784	800.000	0.103	0.354
-647.770	232.046	-0.027	0.045
-646.755	7.618	-0.124	0.093
-645.741	67.233	0.176	-0.180
-644.726	105.340	-0.071	-0.084
-643.711	762.557	-0.033	0.091
-642.697	-200.000	0.014	0.129
-641.682	108.395	0.235	0.282
-640.668	-107.972	-0.186	-0.040
-639.653	397.757	-0.041	-0.087
-638.638	690.293	-0.079	-0.208
-637.624	13.902	0.213	0.166
-636.609	135.705	0.081	0.106
-635.595	-200.000	0.039	0.292
-634.580	103.765	0.174	-0.205
-633.565	-97.335	-0.337	-0.088
-632.551	-21.874	0.210	-0.128
-631.536	-200.000	-0.028	0.199
-630.522	-38.820	-0.071	0.038
-629.507	-200.000	-0.032	-0.276
-628.492	-200.000	0.041	0.344
-627.478	301.786	-0.133	-0.246
-626.463	800.000	-0.089	-0.340
-625.449	-46.062	0.078	-0.038
-624.434	-64.501	0.145	0.059
-623.419	367.334	0.008	0.017
-622.405	643.359	0.064	-0.163
-621.390	40.602	0.136	-0.123
-620.376	-21.531	0.154	-0.094
-619.361	-200.000	0.049	0.279
-618.346	608.921	0.118	-0.294
-617.332	329.901	-0.072	-0.139
-616.317	800.000	-0.012	0.037
-615.303	-200.000	0.008	-0.277
-614.288	172.823	0.105	-0.151
-613.273	-28.971	-0.188	0.108
-612.259	-84.487	0.272	0.086
-611.244	-64.082	-0.108	-0.044
-610.230	124.279	-0.121	-0.153
-609.215	-31.217	-0.241	-0.136
-608.201	-104.582	-0.322	-0.074
-607.186	140.578	-0.182	-0.241
-606.171	-200.000	-0.026	0.232
-605.157	-196.525	0.161	0.001
-604.142	-200.000	-0.025	-0.283
-603.128	96.102	0.107	-0.122
-602.113	-38.908	-0.267	-0.141
-601.098	-92.419	-0.301	0.085
-600.084	-146.812	0.168	0.014
-599.069	474.277	0.073	0.166
-598.055	800.000	-0.130	0.409
-597.040	73.310	0.438	0.458
-596.025	-88.073	-0.286	-0.086
-595.011	270.419	-0.151	0.266
-593.996	-200.000	-0.006	0.305
-592.982	85.837	-0.091	0.100
-591.967	800.000	0.058	0.239
-590.952	800.000	-0.058	-0.249
-589.938	-200.000	-0.049	0.313
-588.923	-167.882	0.334	0.013
-587.909	-97.414	-0.249	0.065
-586.894	-129.801	0.232	-0.032
-585.879	144.112	-0.096	-0.128
-584.865	800.000	0.012	-0.050
-583.850	-6.300	0.155	-0.106
-582.836	-176.513	-0.215	0.006
-581.821	-200.000	0.002	0.075
-580.806	127.443	-0.141	-0.180
-579.792	43.799	-0.054	-0.049
-578.777	-200.000	-0.009	0.074
-577.763	-133.020	0.269	0.034
-576.748	-30.273	0.236	0.134
-575.733	211.742	0.078	-0.123
-574.719	87.708	-0.214	-0.237
-573.704	103.195	-0.103	-0.121
-572.690	541.265	0.098	0.233
-571.675	-79.578	-0.148	-0.050
-570.661	46.506	-0.146	-0.135
-569.646	-52.611	0.168	-0.078
-568.631	-200.000	0.038	0.170
-567.617	158.956	0.245	0.340
-566.602	-113.341	-0.172	-0.034
-565.588	14.248	0.154	0.120
-564.573	-86.791	-0.154	-0.047
-563.558	163.414	0.091	-0.129
-562.544	-200.000	-0.029	-0.174
-561.529	178.689	0.169	-0.247
-560.515	-32.940	0.190	0.106
-559.500	800.000	-0.101	-0.307
-558.485	-163.186	-0.355	-0.017
-557.471	-200.000	0.012	0.263
-556.456	800.000	-0.156	-0.449
-555.442	-200.000	-0.034	0.399
-554.427	-13.906	-0.150	-0.097
-553.412	-200.000	-0.073	-0.349
-552.398	-121.235	0.248	0.041
-551.383	160.872	-0.172	0.239
-550.369	-15.937	0.220	0.140
-549.354	153.318	0.177	-0.242
-548.339	126.904	0.183	-0.232
-547.325	-44.240	0.304	0.152
-546.310	800.000	0.036	-0.127
-545.296	-59.233	0.099	-0.043
-544.281	108.688	-0.040	-0.047
-543.266	-200.000	-0.018	0.095
-542.252	50.288	-0.201	0.190
-541.237	800.000	0.071	-0.307
-540.223	228.088	0.208	-0.338
-539.208	-9.876	0.394	-0.262
-538.193	16.271	0.049	0.039
-537.179	-200.000	0.003	-0.225
-536.164	225.819	0.303	0.490
-535.150	800.000	0.200	-0.554
-534.135	753.516	-0.113	-0.305
-533.121	97.398	-0.161	-0.184
-532.106	509.422	-0.025	-0.057
-531.091	-21.224	-0.159	-0.097
-530.077	365.745	0.100	-0.201
-529.062	-200.000	0.076	0.000
-528.048	46.584	-0.232	-0.215
-527.033	448.050	0.080	-0.176
-526.018	222.470	-0.224	0.360
-525.004	-115.677	-0.223	0.042
-523.989	273.667	0.030	-0.053
-522.975	-200.000	0.012	-0.141
-521.960	800.000	-0.067	-0.270
-520.945	-51.136	-0.088	-0.041
-519.931	-173.311	0.334	0.010
-518.916	64.298	-0.044	-0.044
-517.902	-34.095	-0.039	0.022
-516.887	-200.000	-0.006	0.056
-515.872	-93.943	-0.261	-0.072
-514.858	-200.000	0.049	0.367
-513.843	-200.000	0.049	0.250
-512.829	-183.578	-0.134	-0.002
-511.814	176.046	-0.095	-0.137
-510.799	506.175	0.070	0.163
-509.785	-200.000	-0.097	-0.484
-508.770	-167.172	-0.351	0.014
-507.756	-103.276	-0.289	0.068
-506.741	-38.943	0.276	0.145
-505.726	-27.771	0.155	0.090
-504.712	-120.333	-0.112	-0.019
-503.697	800.000	-0.038	0.141
-502.683	66.540	0.061	0.062
-501.668	-200.000	0.029	0.209
-500.653	118.023	-0.158	0.194
-499.639	800.000	0.041	-0.147
-498.624	24.903	-0.168	-0.139
-497.610	-115.610	0.159	0.030
-496.595	61.316	0.118	-0.117
-495.581	160.416	-0.113	0.157
-494.566	14.776	-0.217	-0.169
-493.551	-44.491	0.288	-0.143
-492.537	91.673	-0.204	0.228
-491.522	-40.741	0.102	-0.053
-490.508	2.079	-0.116	0.084
-489.493	601.656	0.113	0.281
-488.478	393.491	-0.035	-0.072
-487.464	-68.877	-0.243	-0.094
-486.449	80.664	-0.051	-0.055
-485.435	-119.527	0.157	-0.027
-484.420	-200.000	-0.010	0.120
-483.405	101.719	-0.135	-0.157
-482.391	39.763	0.154	0.138
-481.376	476.745	-0.089	-0.201
-480.362	89.839	-0.105	-0.117
-479.347	428.426	-0.061	-0.132
-478.332	762.579	0.094	-0.255
-477.318	26.901	0.146	0.122
-476.303	-10.237	0.118	-0.078
-475.289	39.511	-0.124	0.111
-474.274	-62.759	-0.122	0.050
-473.259	-31.582	0.159	-0.089
-472.245	-137.415	-0.251	-0.028
-471.230	130.444	-0.205	0.262
-470.216	24.091	0.186	-0.153
-469.201	-200.000	0.069	-0.328
-468.186	800.000	0.110	-0.373
-467.172	154.205	-0.029	-0.040
-466.157	106.164	-0.238	-0.281
-465.143	-82.139	-0.337	-0.109
-464.128	800.000	0.027	-0.103
-463.113	408.830	0.039	0.083
-462.099	800.000	-0.020	0.070
-461.084	-200.000	-0.012	0.135
-460.070	800.000	-0.039	-0.140
-459.055	-117.202	0.356	-0.064
-458.040	-33.465	-0.186	-0.103
-457.026	164.209	0.070	-0.099
-456.011	501.065	0.105	0.241
-454.997	47.500	-0.055	0.051
-453.982	-200.000	-0.017	-0.214
-452.968	110.206	0.097	0.116
-451.953	800.000	-0.086	-0.240
-450.938	631.924	-0.022	0.055
-449.924	158.166	-0.207	-0.286
-448.909	222.827	-0.109	-0.175
-447.895	-127.998	0.267	-0.038
-446.880	359.341	-0.036	0.071
-445.865	-125.500	-0.327	-0.050
-444.851	-200.000	0.034	0.306
-443.836	245.485	-0.164	-0.274
-442.822	-200.000	-0.011	-0.066
-441.807	-200.000	0.015	0.191
-440.792	-17.735	0.358	-0.224
-439.778	-67.273	-0.204	-0.080
-438.763	48.781	-0.204	-0.191
-437.749	-98.353	-0.325	-0.083
-436.734	76.745	-0.072	-0.076
-435.719	-57.293	-0.105	0.046
-434.705	-130.757	0.343	-0.046
-433.690	402.912	-0.087	-0.181
-432.676	324.992	0.117	-0.222
-431.661	800.000	0.068	0.228
-430.646	800.000	-0.030	0.105
-429.632	-77.493	-0.156	-0.054
-428.617	154.512	0.245	-0.334
-427.603	-200.000	0.004	-0.177
-426.588	365.540	-0.151	-0.302
-425.573	2.840	0.159	0.115
-424.559	-94.600	-0.190	0.051
-423.544	405.382	-0.185	0.387
-422.530	-142.478	0.205	-0.020
-421.515	64.299	-0.071	-0.071
-420.500	-103.568	0.030	-0.007
-419.486	-20.368	0.136	-0.083
-418.471	-113.517	0.418	-0.081
-417.457	-177.161	-0.393	-0.010
-416.442	-200.000	0.101	0.577
-415.428	-88.487	-0.248	0.074
-414.413	-200.000	0.009	0.176
-413.398	29.390	-0.250	0.211
-412.384	-200.000	-0.010	-0.068
-411.369	-200.000	-0.015	0.182
-410.355	-28.759	-0.090	-0.051
-409.340	-200.000	-0.025	-0.111
-408.325	59.735	-0.298	0.293
-407.311	47.904	-0.312	-0.290
-406.296	636.185	-0.040	0.102
-405.282	145.249	-0.057	0.076
-404.267	63.044	0.157	0.156
-403.252	291.097	-0.144	0.261
-402.238	142.129	-0.151	-0.198
-401.223	800.000	0.032	-0.117
-400.209	165.581	-0.239	0.336
-399.194	-22.709	-0.133	0.080
-398.179	800.000	-0.021	-0.091
-397.165	-86.535	0.103	-0.031
-396.150	-200.000	0.000	0.206
-395.136	-50.941	-0.258	0.120
-394.121	132.950	0.066	0.084
-393.106	-200.000	-0.022	0.128
-392.092	94.704	0.139	0.157
-391.077	-200.000	-0.039	0.257
-390.063	-176.313	-0.208	0.005
-389.048	755.699	0.203	-0.546
-388.033	198.204	-0.078	-0.118
-387.019	238.268	-0.043	-0.071
-386.004	-86.888	0.096	0.029
-384.990	25.779	-0.424	-0.351
-383.975	-148.979	-0.451	-0.036
-382.960	131.186	-0.125	-0.160
-381.946	-58.962	0.154	-0.066
-380.931	10.452	0.249	0.188
-379.917	162.283	0.204	-0.283
-378.902	-74.097	-0.147	0.053
-377.888	-19.479	0.071	-0.044
-376.873	359.189	-0.103	0.205
-375.858	120.807	0.276	-0.340
-374.844	321.768	0.109	-0.206
-373.829	-200.000	-0.014	-0.082
-372.815	-33.945	0.284	0.155
-371.800	-200.000	-0.022	-0.144
-370.785	-137.066	-0.175	0.020
-369.771	800.000	-0.029	0.095
-368.756	54.958	0.047	0.045
-367.742	393.001	0.172	0.356
-366.727	-184.640	0.275	0.004
-365.712	-200.000	-0.016	0.280
-364.698	-12.023	-0.232	0.151
-363.683	-200.000	-0.008	-0.238
-362.669	-112.360	-0.179	0.036
-361.654	-200.000	-0.069	0.565
-360.639	-80.152	0.227	-0.075
-359.625	89.169	-0.104	-0.114
-358.610	-135.518	-0.221	0.026
-357.596	-13.985	0.169	0.108
-356.581	152.413	0.076	0.103
-355.566	54.979	-0.208	0.199
-354.552	-39.701	0.186	-0.096
-353.537	800.000	0.083	0.238
-352.523	-93.743	0.286	-0.078
-351.508	25.691	0.038	0.031
-350.493	-132.623	-0.189	-0.024
-349.479	238.232	0.174	-0.286
-348.464	72.398	-0.111	0.114
-347.450	-15.247	0.083	-0.053
-346.435	800.000	0.106	0.333
-345.420	107.193	0.348	0.410
-344.406	0.302	0.221	0.156
-343.391	586.603	0.060	0.147
-342.377	-54.928	-0.091	-0.041
-341.362	511.795	-0.094	0.216
-340.348	-36.587	-0.204	0.109
-339.333	68.976	0.072	-0.074
-338.318	-200.000	0.001	0.372
-337.304	-71.990	-0.245	-0.090
-336.289	-200.000	-0.007	-0.051
-335.275	-102.187	-0.440	0.105
-334.260	-107.164	-0.588	0.128
-333.245	-200.000	0.026	0.120
-332.231	-8.896	-0.202	0.134
-331.216	77.563	-0.062	-0.066
-330.202	-54.025	0.201	-0.090
-329.187	584.296	0.072	-0.176
-328.172	88.900	0.052	-0.057
-327.158	-129.777	-0.032	-0.004
-326.143	-42.015	0.343	-0.174
-325.129	-91.157	-0.377	-0.107
-324.114	311.401	0.106	-0.196
-323.099	219.007	0.037	0.059
-322.085	541.050	-0.058	0.136
-321.070	-105.565	-0.205	0.046
-320.056	96.006	0.247	0.279
-319.041	-90.363	-0.323	-0.093
-318.026	-200.000	-0.055	0.251
-317.012	35.324	0.072	0.062
-315.997	-143.045	-0.300	-0.029
-314.983	17.867	-0.169	-0.133
-313.968	-200.000	0.007	-0.341
-312.953	225.625	0.221	-0.355
-311.939	800.000	0.094	-0.305
-310.924	-69.679	0.359	0.136
-309.910	221.333	0.031	-0.049
-308.895	-172.316	-0.077	0.002
-307.880	-200.000	0.014	0.124
-306.866	-200.000	-0.022	-0.176
-305.851	-113.350	0.143	-0.028
-304.837	-79.290	-0.237	0.079
-303.822	-200.000	0.017	-0.296
-302.807	-133.160	0.054	-0.007
-301.793	800.000	0.134	-0.387
-300.778	-1.078	-0.124	-0.087
-299.764	394.731	0.011	0.024
-298.749	-200.000	-0.003	-0.283
-297.735	-200.000	-0.033	-0.165
-296.720	-200.000	0.051	-0.231
-295.705	-63.743	-0.214	0.087
-294.691	-200.000	0.025	0.189
-293.676	26.981	0.120	0.099
-292.662	800.000	0.103	-0.298
-291.647	-129.052	0.171	-0.024
-290.632	26.324	-0.224	0.185
-289.618	97.169	0.317	0.359
-288.603	800.000	0.030	0.098
-287.589	-200.000	-0.031	0.297
-286.574	40.449	-0.239	0.213
-285.559	69.631	0.045	0.046
-284.545	-200.000	-0.029	-0.521
-283.530	-156.208	0.206	-0.013
-282.516	-16.199	-0.351	-0.220
-281.501	35.340	-0.090	-0.078
-280.486	-32.238	0.296	-0.163
-279.472	104.752	-0.182	0.211
-278.457	-60.759	0.144	-0.060
-277.443	-134.996	0.444	0.053
-276.428	-33.560	0.222	0.121
-275.413	-200.000	-0.049	-0.238
-274.399	49.785	-0.250	0.233
-273.384	-200.000	0.038	-0.286
-272.370	629.929	-0.099	0.248
-271.355	100.264	0.118	-0.136
-270.340	404.106	-0.135	0.282
-269.326	800.000	-0.091	0.277
-268.311	-200.000	0.017	-0.100
-267.297	612.393	0.239	0.590
-266.282	97.827	-0.117	0.133
-265.267	111.667	0.045	-0.054
-264.253	-124.798	-0.065	-0.010
-263.238	-200.000	0.014	0.173
-262.224	-112.031	0.210	-0.042
-261.209	-86.954	0.289	-0.087
-260.195	-21.035	0.422	0.255
-259.180	439.060	0.058	0.125
-258.165	252.471	0.053	-0.090
-257.151	199.576	0.022	0.034
-256.136	-200.000	-0.043	0.353
-255.122	-200.000	0.038	0.277
-254.107	9.914	-0.050	0.038
-253.092	-200.000	0.267	-0.001
-252.078	-69.363	0.087	-0.033
-251.063	800.000	0.076	0.249
-250.049	-200.000	-0.032	0.326
-249.034	17.988	0.216	0.170
-248.019	-62.765	0.068	0.028
-247.005	-200.000	0.011	0.319
-245.990	-40.527	-0.105	-0.054
-244.976	800.000	-0.120	-0.470
-243.961	-181.986	-0.093	-0.002
-242.946	800.000	-0.081	0.230
-241.932	-200.000	-0.016	0.265
-240.917	800.000	0.039	0.120
-239.903	800.000	-0.045	0.146
-238.888	-43.580	0.070	-0.035
-237.873	-25.453	0.144	-0.084
-236.859	-182.070	0.276	0.005
-235.844	-200.000	0.001	-0.214
-234.830	-200.000	0.021	-0.217
-233.815	-200.000	-0.001	-0.051
-232.800	89.573	0.094	-0.103
-231.786	81.079	-0.248	0.264
-230.771	0.101	-0.066	0.046
-229.757	-200.000	0.020	-0.140
-228.742	-77.385	0.515	0.176
-227.727	-200.000	-0.055	-0.255
-226.713	110.293	-0.185	-0.219
-225.698	-142.000	0.197	0.019
-224.684	-0.410	-0.023	0.016
-223.669	96.879	-0.129	0.146
-222.655	132.138	-0.089	-0.113
-221.640	123.026	0.152	-0.188
-220.625	-127.451	-0.171	-0.025
-219.611	-200.000	-0.014	0.258
-218.596	0.521	0.281	-0.198
-217.582	800.000	-0.030	0.082
-216.567	800.000	-0.062	0.187
-215.552	-69.495	0.082	-0.031
-214.538	-50.095	0.200	0.093
-213.523	158.603	0.046	0.063
-212.509	-101.207	-0.220	-0.053
-211.494	44.945	0.169	-0.154
-210.479	-200.000	0.037	-0.245
-209.465	126.955	0.167	-0.208
-208.450	81.131	0.228	-0.243
-207.436	168.832	-0.108	0.152
-206.421	-65.715	0.278	-0.110
-205.406	-200.000	0.060	-0.452
-204.392	800.000	0.194	0.560
-203.377	-200.000	0.072	0.325
-202.363	-200.000	-0.024	0.321
-201.348	-83.830	-0.309	-0.097
-200.333	58.196	-0.145	-0.140
-199.319	800.000	0.077	0.305
-198.304	-50.313	-0.149	0.069
-197.290	-200.000	-0.027	0.262
-196.275	-65.660	-0.297	-0.117
-195.260	800.000	-0.049	-0.142
-194.246	-28.187	-0.052	-0.030
-193.231	-30.172	0.468	-0.262
-192.217	133.660	0.108	0.137
-191.202	-200.000	-0.041	0.250
-190.187	-167.649	-0.545	0.021
-189.173	112.571	-0.240	-0.287
-188.158	-200.000	0.048	0.224
-187.144	-137.866	-0.141	0.015
-186.129	175.299	0.100	-0.143
-185.114	222.783	0.132	-0.209
-184.100	18.484	0.053	-0.042
-183.085	0.764	0.272	0.192
-182.071	800.000	-0.031	0.117
-181.056	76.340	-0.068	-0.071
-180.042	-159.370	-0.347	-0.019
-179.027	-200.000	0.056	0.361
-178.012	-60.071	0.219	0.092
-176.998	20.146	-0.197	0.156
-175.983	-200.000	-0.055	0.286
-174.969	447.521	0.116	0.252
-173.954	26.439	0.056	0.046
-172.939	-19.654	0.111	0.067
-171.925	-63.859	0.092	-0.037
-170.910	491.683	0.057	0.130
-169.896	-18.988	0.154	-0.095
-168.881	-79.378	0.357	0.119
-167.866	800.000	-0.109	0.316
-166.852	-60.049	-0.208	-0.087
-165.837	2.427	-0.155	-0.110
-164.823	-179.543	-0.196	0.004
-163.808	52.918	0.160	-0.151
-162.793	-0.217	-0.126	-0.088
-161.779	272.398	-0.098	0.170
-160.764	351.427	0.120	-0.233
-159.750	-57.236	0.304	0.132
-158.735	-200.000	0.051	-0.391
-157.720	800.000	0.052	-0.146
-156.706	-56.552	0.288	0.126
-155.691	-96.297	0.093	0.024
-154.677	136.044	-0.003	0.004
-153.662	-104.635	0.095	0.022
-152.647	184.601	-0.188	-0.273
-151.633	-136.761	0.315	0.036
-150.618	-200.000	-0.011	-0.435
-149.604	153.873	0.218	0.293
-148.589	287.288	-0.071	0.126
-147.574	-143.745	-0.444	0.041
-146.560	-109.138	-0.204	-0.043
-145.545	138.017	-0.160	0.207
-144.531	274.330	0.165	-0.288
-143.516	346.392	-0.031	-0.059
-142.502	800.000	0.020	0.061
-141.487	-0.364	0.099	-0.069
-140.472	74.741	-0.178	0.184
-139.458	-175.307	0.141	0.004
-138.443	7.286	-0.137	-0.101
-137.429	800.000	-0.043	-0.174
-136.414	-200.000	-0.016	-0.085
-135.399	-83.292	-0.109	0.035
-134.385	-200.000	-0.030	0.347
-133.370	-12.107	-0.054	0.035
-132.356	275.172	0.059	0.103
-131.341	-1.796	0.128	-0.089
-130.326	-31.279	-0.155	-0.086
-129.312	-52.216	0.060	0.027
-128.297	800.000	0.055	-0.155
-127.283	-200.000	0.005	-0.238
-126.268	-109.935	-0.038	0.008
-125.253	-11.111	-0.057	0.037
-124.239	-52.675	-0.184	-0.083
-123.224	-61.480	0.268	-0.110
-122.210	800.000	0.060	-0.245
-121.195	415.643	0.102	0.214
-120.180	-140.618	0.141	0.014
-119.166	472.220	-0.094	-0.207
-118.151	-200.000	-0.006	-0.280
-117.137	-68.946	-0.283	-0.107
-116.122	78.364	-0.148	-0.156
-115.107	800.000	0.051	-0.151
-114.093	-200.000	0.001	0.013
-113.078	376.445	0.130	0.261
-112.064	800.000	-0.077	-0.211
-111.049	-119.936	0.253	-0.043
-110.034	186.201	-0.292	0.427
-109.020	800.000	0.160	0.469
-108.005	424.906	0.040	-0.085
-106.991	-134.012	-0.079	0.010
-105.976	467.882	0.088	0.193
-104.962	-129.759	0.207	-0.028
-103.947	-170.011	0.226	0.008
-102.932	80.496	-0.193	-0.204
-101.918	-36.479	-0.153	-0.081
-100.903	-200.000	-0.030	0.150
-99.889	800.000	-0.114	-0.380
-98.874	177.780	0.139	-0.199
-97.859	-195.946	-0.079	-0.001
-96.845	231.439	0.199	-0.320
-95.830	-133.889	-0.217	-0.026
-94.816	-145.023	0.189	0.017
-93.801	434.363	-0.090	0.193
-92.786	-75.465	-0.212	0.074
-91.772	522.585	0.078	-0.181
-90.757	800.000	0.122	-0.445
-89.743	62.579	0.101	-0.099
-88.728	-94.553	0.413	-0.110
-87.713	265.872	0.046	0.078
-86.699	77.434	-0.151	-0.158
-85.684	-38.548	-0.120	0.062
-84.670	-16.078	-0.226	-0.141
-83.655	-1.555	-0.323	-0.223
-82.640	115.508	-0.075	-0.090
-81.626	800.000	0.079	0.303
-80.611	53.309	-0.068	-0.064
-79.597	-200.000	0.037	0.200
-78.582	-200.000	0.058	0.263
-77.567	-91.609	0.230	0.064
-76.553	-20.636	0.202	0.121
-75.538	-180.062	0.241	-0.005
-74.524	-168.731	0.134	-0.005
-73.509	250.671	0.129	0.215
-72.494	-9.292	-0.072	-0.047
-71.480	-200.000	-0.018	-0.179
-70.465	-18.010	0.079	0.049
-69.451	-57.225	-0.173	0.074
-68.436	325.799	0.121	-0.227
-67.422	29.045	-0.161	-0.134
-66.407	284.053	-0.126	0.221
-65.392	-20.867	-0.149	0.089
-64.378	240.770	-0.070	0.115
-63.363	800.000	0.037	0.143
-62.349	800.000	-0.200	0.581
-61.334	27.342	-1.238	-1.020
-60.319	15.675	0.403	0.311
-59.305	-200.000	-0.131	-0.992
-58.290	800.000	0.409	1.471
-57.276	466.392	0.769	1.687
-56.261	-200.000	113.839	642.940
-55.246	463.177	1512.038	3308.344
-54.232	146.342	2678.629	3522.819
-53.217	103.400	2157.896	2479.733
-52.203	38.812	1603.614	1402.701
-51.188	30.616	1350.284	1131.449
-50.173	27.868	1311.699	1082.805
-49.159	55.950	1367.312	1299.142
-48.144	54.179	1382.413	1302.764
-47.130	30.993	1337.810	1123.094
-46.115	27.602	1320.037	1087.926
-45.100	27.266	1315.328	1082.008
-44.086	27.229	1312.812	1079.675
-43.071	27.148	1310.722	1077.435
-42.057	27.208	1308.599	1075.998
-41.042	27.217	1306.842	1074.563
-40.027	27.247	1305.301	1073.431
-39.013	27.303	1303.165	1071.962
-37.998	27.412	1300.926	1070.720
-36.984	27.321	1299.789	1069.205
-35.969	27.389	1297.742	1067.878
-34.954	27.446	1295.936	1066.688
-33.940	27.419	1294.927	1065.652
-32.925	27.504	1293.711	1065.108
-31.911	27.494	1291.973	1063.575
-30.896	27.622	1290.091	1062.734
-29.881	27.516	1289.188	1061.327
-28.867	27.544	1287.569	1060.115
-27.852	27.511	1286.132	1058.700
-26.838	27.437	1285.183	1057.448
-25.823	27.406	1284.089	1056.326
-24.809	27.461	1282.464	1055.261
-23.794	27.448	1280.778	1053.759
-22.779	27.386	1279.927	1052.660
-21.765	27.510	1278.160	1051.881
-20.750	27.576	1276.905	1051.188
-19.736	27.424	1276.078	1049.589
-18.721	27.292	1274.833	1047.759
-17.706	27.310	1273.766	1046.946
-16.692	27.356	1272.573	1046.187
-15.677	27.395	1271.277	1045.306
-14.663	27.225	1270.375	1043.546
-13.648	27.346	1268.871	1042.967
-12.633	27.407	1267.994	1042.552
-11.619	27.328	1266.972	1041.217
-10.604	27.329	1266.457	1040.756
-9.590	27.363	1265.253	1039.923
-8.575	27.391	1264.340	1039.288
-7.560	27.360	1263.370	1038.276
-6.546	27.347	1262.526	1037.468
-5.531	27.460	1261.330	1037.086
-4.517	27.323	1261.220	1036.171
-3.502	27.314	1260.274	1035.306
-2.487	27.378	1259.014	1034.593
-1.473	27.338	1254.836	1030.890
-0.458	25.762	1239.779	1009.653
0.556	20.895	1223.342	972.309
1.571	17.387	1229.899	957.717
2.586	16.695	1244.558	965.108
3.600	16.633	1234.052	956.524
4.615	15.489	1167.062	898.403
5.629	12.731	1102.238	834.467
6.644	11.441	1085.411	815.220
7.659	11.355	1082.774	812.737
8.673	11.269	1081.517	811.293
9.688	11.265	1080.225	810.231
10.702	11.404	1078.054	809.223
11.717	12.945	1079.338	817.758
12.731	15.662	1082.646	833.686
13.746	17.615	1084.636	844.840
14.761	17.662	1084.311	844.742
15.775	16.695	1082.511	838.478
16.790	15.714	1080.468	831.970
17.804	14.946	1079.054	827.015
18.819	14.431	1077.631	823.306
19.834	14.218	1076.737	821.501
20.848	13.941	1075.887	819.413
21.863	13.692	1074.880	817.346
22.877	13.693	1073.943	816.565
23.892	13.433	1073.783	815.091
24.907	13.625	1072.363	814.884
25.921	13.719	1071.124	814.333
26.936	13.638	1070.125	813.101
27.950	13.668	1068.564	811.994
28.965	13.751	1067.159	811.259
29.980	13.803	1065.940	810.513
30.994	13.878	1064.661	809.835
32.009	13.784	1064.104	808.883
33.023	13.873	1062.584	808.091
34.038	13.711	1061.489	806.397
35.053	13.614	1060.887	805.397
36.067	13.737	1059.737	805.050
37.082	13.733	1058.965	804.371
38.096	13.731	1058.346	803.820
39.111	13.832	1057.487	803.587
40.126	13.592	1056.758	801.802
41.140	13.542	1055.099	800.230
42.155	13.556	1053.822	799.257
43.169	13.538	1052.814	798.338
44.184	13.477	1052.051	797.395
45.199	13.499	1051.346	796.895
46.213	13.611	1049.537	795.988
47.228	13.577	1048.705	795.127
48.242	13.594	1047.600	794.297
49.257	13.545	1046.717	793.323
50.271	13.695	1046.252	793.619
51.286	13.574	1045.397	792.324
52.301	13.679	1044.195	791.843
53.315	13.579	1043.303	790.620
54.330	13.643	1041.536	789.516
55.344	13.633	1041.029	789.014
56.359	13.609	1040.130	788.146
57.374	13.500	1039.734	787.259
58.388	13.487	1038.451	786.158
59.403	13.544	1037.619	785.730
60.417	13.449	1036.684	784.499
61.432	13.337	1036.172	783.512
62.447	13.366	1035.292	782.916
63.461	13.376	1034.424	782.239
64.476	13.393	1033.513	781.560
65.490	13.528	1032.475	781.345
66.505	13.412	1031.796	780.214
67.520	13.520	1031.473	780.407
68.534	13.428	1030.227	778.965
69.549	13.474	1030.081	779.002
70.563	13.478	1028.974	778.113
71.578	13.424	1028.013	777.066
72.593	13.310	1027.766	776.271
73.607	13.492	1026.616	776.191
74.622	13.450	1026.316	775.699
75.636	13.472	1025.394	775.036
76.651	13.452	1024.854	774.462
77.666	13.537	1023.854	774.036
78.680	13.402	1023.382	772.983
79.695	13.470	1022.628	772.659
80.709	13.504	1021.745	772.085
81.724	13.783	1021.066	772.803
82.739	13.583	1020.610	771.457
83.753	13.640	1020.165	771.318
84.768	13.767	1018.734	770.759
85.782	13.836	1018.187	770.595
86.797	13.783	1017.090	769.452
87.812	13.761	1016.323	768.703
88.826	13.706	1015.220	767.544
89.841	13.693	1014.502	766.876
90.855	13.690	1013.624	766.130
91.870	13.819	1012.354	765.694
92.884	13.846	1011.931	765.432
93.899	13.863	1010.835	764.613
94.914	13.923	1010.415	764.507
95.928	13.799	1009.600	763.252
96.943	13.876	1008.259	762.523
97.957	13.724	1007.952	761.525
98.972	13.879	1006.317	760.932
99.987	13.767	1006.154	760.229
101.001	13.760	1005.107	759.338
102.016	13.795	1004.348	758.857
103.030	13.757	1002.998	757.600
104.045	13.846	1002.399	757.484
105.060	13.735	1001.551	756.271
106.074	13.649	1000.766	755.220
107.089	13.563	999.472	753.784
108.103	13.567	998.744	753.187
109.118	13.509	997.659	752.037
110.133	13.532	997.097	751.653
111.147	13.593	995.711	750.820
112.162	13.616	994.814	750.178
113.176	13.625	994.462	749.889
114.191	13.601	993.680	749.124
115.206	13.702	992.542	748.654
116.220	13.633	991.773	747.700
117.235	13.564	991.477	747.098
118.249	13.645	989.849	746.172
119.264	13.625	989.579	745.813
120.279	13.688	988.624	745.307
121.293	13.595	987.583	744.038
122.308	13.613	986.511	743.245
123.322	13.566	985.905	742.512
124.337	13.538	984.481	741.248
125.352	13.477	983.264	739.996
126.366	13.402	982.296	738.866
127.381	13.579	981.387	738.907
128.395	13.599	980.273	738.093
129.410	13.642	979.429	737.582
130.424	13.655	978.579	736.935
131.439	13.740	978.097	736.885
132.454	13.689	977.534	736.171
133.468	13.787	976.382	735.671
134.483	13.701	975.299	734.409
135.497	13.689	974.862	733.961
136.512	13.621	973.951	732.911
137.527	13.718	972.854	732.450
138.541	13.657	972.778	732.056
139.556	13.716	971.656	731.407
140.570	13.811	970.982	731.256
141.585	13.735	970.460	730.462
142.600	13.831	969.160	729.841
143.614	13.829	968.476	729.252
144.629	13.894	967.733	728.915
145.643	14.026	966.555	728.544
146.658	13.819	965.789	726.995
147.673	13.764	965.105	726.171
148.687	13.762	964.233	725.445
149.702	13.650	963.264	724.163
150.716	13.721	962.377	723.740
151.731	13.884	961.554	723.769
152.746	13.707	961.339	722.771
153.760	13.843	960.318	722.529
154.775	13.924	959.716	722.368
155.789	13.964	959.109	722.020
156.804	13.909	958.339	721.137
157.819	14.008	957.705	721.026
158.833	13.949	957.520	720.568
159.848	14.035	956.387	720.024
160.862	14.023	955.302	719.092
161.877	13.956	953.998	717.757
162.892	13.901	953.282	716.919
163.906	13.891	952.330	716.093
164.921	13.896	951.689	715.571
165.935	14.047	950.510	715.271
166.950	13.943	949.686	714.140
167.964	13.923	948.888	713.391
168.979	13.986	948.069	712.981
169.994	13.980	946.889	712.005
171.008	14.065	946.218	711.802
172.023	14.132	945.491	711.477
173.037	14.032	944.978	710.605
174.052	14.162	944.054	710.401
175.067	14.028	943.585	709.412
176.081	14.005	943.015	708.825
177.096	13.968	942.550	708.252
178.110	14.026	941.875	707.930
179.125	14.042	941.074	707.331
180.140	14.144	940.346	707.158
181.154	14.019	940.256	706.497
182.169	14.184	939.544	706.598
183.183	14.184	939.078	706.187
184.198	14.310	938.131	705.944
185.213	14.220	937.623	705.118
186.227	14.376	936.994	705.246
187.242	14.323	936.283	704.422
188.256	14.373	935.541	704.012
189.271	14.249	935.135	703.121
190.286	14.259	934.111	702.334
191.300	14.110	933.227	700.978
192.315	14.003	932.685	700.059
193.329	14.055	932.569	700.128
194.344	14.138	931.733	699.788
195.359	14.278	930.955	699.731
196.373	14.309	930.413	699.389
197.388	14.417	929.906	699.402
198.402	14.460	929.560	699.260
199.417	14.578	928.827	699.140
200.432	14.584	928.132	698.581
201.446	14.512	928.037	698.144
202.461	14.548	927.792	698.048
203.475	14.521	926.778	697.113
204.490	14.513	925.890	696.349
205.504	14.415	925.425	695.529
206.519	14.449	924.377	694.819
207.534	14.400	924.023	694.290
208.548	14.559	923.038	694.152
209.563	14.595	922.294	693.679
210.577	14.533	921.827	693.008
211.592	14.709	920.981	693.043
212.607	14.820	920.052	692.742
213.621	14.680	919.567	691.735
214.636	14.759	918.631	691.295
215.650	14.702	917.940	690.482
216.665	14.803	917.089	690.195
217.680	14.637	916.885	689.296
218.694	14.719	916.397	689.205
219.709	14.808	915.300	688.688
220.723	14.695	914.876	687.841
221.738	14.673	914.231	687.205
222.753	14.605	913.632	686.413
223.767	14.757	913.045	686.539
224.782	14.776	912.583	686.207
225.796	14.990	911.903	686.513
226.811	14.847	911.269	685.388
227.826	14.765	910.373	684.319
228.840	14.830	909.612	683.952
229.855	14.808	908.631	683.064
230.869	14.675	908.290	682.205
231.884	14.939	907.234	682.426
232.899	14.739	907.008	681.382
233.913	14.862	905.854	680.955
234.928	14.776	905.186	680.043
235.942	14.819	904.669	679.770
236.957	14.844	904.153	679.424
237.972	14.882	903.632	679.126
238.986	14.775	903.037	678.185
240.001	14.889	902.627	678.281
241.015	14.933	901.531	677.574
242.030	14.882	901.189	677.051
243.045	14.834	900.733	676.453
244.059	14.856	900.505	676.312
245.074	15.139	898.913	676.198
246.088	14.984	898.771	675.407
247.103	15.026	898.028	674.958
248.117	15.063	897.784	674.863
249.132	15.248	896.919	674.899
250.147	15.263	896.101	674.282
251.161	15.200	895.831	673.768
252.176	15.366	894.919	673.688
253.190	15.346	894.241	673.037
254.205	15.462	893.703	673.040
255.220	15.264	893.059	671.703
256.234	15.453	892.144	671.709
257.249	15.341	891.976	671.078
258.263	15.419	890.925	670.539
259.278	15.359	890.215	669.703
260.293	15.591	889.622	670.125
261.307	15.423	889.388	669.218
262.322	15.511	888.720	669.006
263.336	15.579	887.722	668.466
264.351	15.600	887.219	668.114
265.366	15.630	886.420	667.573
266.380	15.574	885.830	666.846
267.395	15.609	885.199	666.449
268.409	15.666	884.523	666.111
269.424	15.614	883.534	665.099
270.439	15.563	883.126	664.531
271.453	15.525	882.251	663.663
272.468	15.466	881.871	663.087
273.482	15.618	881.219	663.136
274.497	15.602	880.701	662.626
275.512	15.682	879.911	662.287
276.526	15.571	879.837	661.737
277.541	15.749	878.946	661.710
278.555	15.797	878.291	661.344
279.570	15.677	878.006	660.600
280.585	15.724	877.082	660.031
281.599	15.709	876.142	659.207
282.614	15.666	875.584	658.560
283.628	15.595	875.063	657.830
284.643	15.812	874.124	657.917
285.657	15.724	874.182	657.557
286.672	15.742	873.252	656.872
287.687	15.922	872.496	656.946
288.701	15.817	871.997	656.102
289.716	15.840	871.305	655.614
290.730	15.892	870.579	655.211
291.745	15.780	870.242	654.463
292.760	15.908	869.686	654.487
293.774	15.877	869.213	653.950
294.789	16.002	868.340	653.721
295.803	15.960	867.205	652.648
296.818	15.816	867.067	651.927
297.833	15.998	866.355	652.041
298.847	15.861	865.833	651.057
299.862	15.988	865.395	651.163
300.876	16.107	864.520	650.906
301.891	16.246	863.714	650.776
302.906	16.228	863.335	650.366
303.920	16.182	863.244	650.061
304.935	16.219	862.533	649.609
305.949	16.074	862.089	648.661
306.964	16.179	861.202	648.339
307.979	16.194	860.838	648.066
308.993	16.268	859.927	647.606
310.008	16.258	859.672	647.319
311.022	16.228	858.650	646.378
312.037	16.325	858.220	646.366
313.052	16.055	858.091	645.179
314.066	16.071	857.611	644.825
315.081	16.141	856.703	644.353
316.095	16.285	855.724	644.107
317.110	16.193	855.495	643.528
318.125	16.246	854.546	642.957
319.139	16.297	854.306	642.915
320.154	16.284	853.909	642.508
321.168	16.164	853.732	641.863
322.183	16.252	852.900	641.515
323.197	16.222	852.495	641.040
324.212	16.130	852.238	640.440
325.227	16.220	851.156	639.913
326.241	16.283	850.440	639.557
327.256	16.435	849.785	639.584
328.270	16.260	849.259	638.467
329.285	16.330	848.899	638.404
330.300	16.285	848.152	637.615
331.314	16.354	847.832	637.582
332.329	16.397	847.447	637.398
333.343	16.508	846.760	637.242
334.358	16.503	846.492	636.966
335.373	16.444	846.398	636.616
336.387	16.378	845.853	635.901
337.402	16.394	845.729	635.813
338.416	16.530	845.290	635.936
339.431	16.546	844.806	635.577
340.446	16.512	844.437	635.116
341.460	16.640	843.638	634.940
342.475	16.721	843.244	634.888
343.489	16.773	842.774	634.676
344.504	16.798	842.866	634.782
345.519	16.797	841.775	633.897
346.533	16.820	841.428	633.668
347.548	16.658	840.879	632.593
348.562	16.671	840.219	632.087
349.577	16.797	839.639	632.068
350.592	16.657	839.296	631.229
351.606	16.637	838.472	630.478
352.621	16.898	837.491	630.656
353.635	16.713	837.330	629.793
354.650	16.688	836.470	628.998
355.665	16.750	836.042	628.850
356.679	16.776	835.469	628.458
357.694	16.800	834.754	627.955
358.708	16.879	833.901	627.549
359.723	16.886	833.450	627.181
360.738	16.860	833.011	626.698
361.752	16.851	832.323	626.093
362.767	16.926	831.607	625.777
363.781	17.013	831.390	625.879
364.796	17.130	830.453	625.549
365.810	17.149	830.435	625.550
366.825	16.973	830.232	624.695
367.840	17.068	829.816	624.673
368.854	16.992	829.335	623.977
369.869	17.103	828.628	623.799
370.883	16.997	828.383	623.170
371.898	17.055	827.807	622.893
372.913	17.268	827.447	623.348
373.927	17.180	827.102	622.713
374.942	17.120	826.693	622.128
375.956	17.028	826.491	621.584
376.971	17.238	825.936	621.881
377.986	17.254	825.127	621.274
379.000	17.317	824.759	621.173
380.015	17.223	824.405	620.510
381.029	17.374	823.527	620.343
382.044	17.465	823.117	620.310
383.059	17.466	822.572	619.850
384.073	17.367	821.862	618.900
385.088	17.332	821.182	618.205
386.102	17.291	820.626	617.584
387.117	17.246	820.430	617.216
388.132	17.344	819.474	616.801
389.146	17.392	818.937	616.514
390.161	17.670	818.542	617.169
391.175	17.493	818.009	616.073
392.190	17.281	817.814	615.103
393.205	17.477	816.901	615.073
394.219	17.405	816.695	614.601
395.234	17.353	816.583	614.274
396.248	17.463	815.768	614.004
397.263	17.424	815.271	613.434
398.278	17.422	814.749	612.982
399.292	17.286	814.618	612.340
400.307	17.395	814.438	612.542
401.321	17.453	813.671	612.120
402.336	17.499	813.449	612.062
403.350	17.548	812.923	611.789
404.365	17.500	812.385	611.159
405.380	17.632	812.072	611.342
406.394	17.698	811.309	610.949
407.409	17.603	811.143	610.432
408.423	17.681	811.013	610.557
409.438	17.582	810.552	609.802
410.453	17.684	809.893	609.617
411.467	17.792	809.302	609.504
412.482	17.770	808.913	609.080
413.496	17.798	808.676	608.948
414.511	18.008	808.245	609.316
415.526	17.928	807.581	608.479
416.540	17.887	806.844	607.723
417.555	17.844	806.641	607.364
418.569	17.976	806.271	607.500
419.584	17.911	805.610	606.718
420.599	17.936	805.549	606.707
421.613	111.231	1295.021	1475.093
422.628	95.959	1366.291	1475.197
