DTS Sentinel unit serial number:	SN413079Multiplexer serial number:	ORYXHardware model number:	OX4-SRSoftware version number:	ORYX F/W v4.00 Oryx Data Collector v3.7.2.0data status	okinstallation	princeton_trtdifferential loss correction	single-endedforward channel	channel 1reverse channel	N/Adate	2019/09/18time	19:30:35forward acquisition time	60.00reverse acquisition time	0.00gamma	496.2192k internal	0.2324k external	0.2324temperature offset calibration	1.0024default loss term (dB/km)	0.3790temperature slope calibration	1.0000multiplexer offset coefficient	1.0000multiplexer slope coefficient	1.0000fibre end	0.00T internal ref (°C)	32.87T ext. ref 1 (°C)	1.04T ext. ref 2 (°C)	22.73length (m)	temperature (°C)	Stokes	anti-Stokes-747.200	-200.000	0.359	0.000
-746.185	-200.000	0.100	0.465
-745.171	51.101	0.162	-0.155
-744.156	-200.000	-0.014	-0.324
-743.142	290.988	-0.146	-0.268
-742.127	-200.000	0.017	0.372
-741.112	203.528	0.099	0.155
-740.098	-200.000	0.035	0.247
-739.083	-183.678	0.204	0.004
-738.069	800.000	-0.115	0.336
-737.054	-20.231	-0.275	-0.171
-736.039	-162.066	-0.213	0.011
-735.025	25.038	0.132	0.111
-734.010	287.968	0.174	-0.317
-732.996	27.513	-0.132	-0.112
-731.981	-200.000	-0.017	-0.483
-730.966	-127.489	-0.133	0.020
-729.952	-55.431	-0.382	-0.173
-728.937	225.185	0.271	-0.443
-727.923	-73.502	-0.199	0.073
-726.908	-200.000	-0.026	0.130
-725.894	435.111	-0.037	0.081
-724.879	-200.000	0.073	-0.429
-723.864	168.950	-0.206	0.296
-722.850	415.108	-0.131	0.281
-721.835	394.882	-0.044	-0.092
-720.821	-200.000	-0.053	-0.276
-719.806	-93.718	0.166	-0.046
-718.791	67.904	0.117	-0.120
-717.777	800.000	0.060	-0.235
-716.762	80.919	0.176	-0.192
-715.748	23.186	0.120	0.099
-714.733	-200.000	-0.014	0.160
-713.718	-124.789	-0.055	-0.009
-712.704	-131.336	-0.371	-0.050
-711.689	704.057	-0.125	0.332
-710.675	-200.000	-0.018	-0.201
-709.660	10.826	0.170	-0.131
-708.645	-129.544	0.274	0.038
-707.631	4.424	0.083	0.061
-706.616	30.107	0.381	0.328
-705.602	-54.184	0.162	0.074
-704.587	-78.920	-0.113	0.039
-703.572	658.770	-0.081	0.209
-702.558	20.998	0.072	0.059
-701.543	-83.144	-0.045	-0.015
-700.529	800.000	-0.097	-0.330
-699.514	146.842	-0.201	-0.273
-698.499	-56.659	0.167	0.075
-697.485	-67.452	-0.283	-0.112
-696.470	-17.011	-0.174	-0.111
-695.456	26.723	-0.083	-0.070
-694.441	39.646	0.100	-0.091
-693.426	146.206	-0.054	0.073
-692.412	-138.942	-0.287	0.031
-691.397	178.621	-0.206	0.302
-690.383	-200.000	-0.014	0.221
-689.368	99.183	-0.231	0.269
-688.354	-200.000	0.012	0.232
-687.339	-166.154	-0.264	0.011
-686.324	800.000	0.067	0.200
-685.310	293.196	-0.225	0.414
-684.295	-101.469	0.152	0.037
-683.281	0.354	-0.246	0.177
-682.266	-114.050	-0.175	0.034
-681.251	-23.598	-0.107	0.064
-680.237	133.852	-0.165	0.215
-679.222	707.413	-0.118	0.315
-678.208	70.392	0.014	-0.014
-677.193	-192.246	-0.310	-0.003
-676.178	-61.262	-0.408	0.173
-675.164	-200.000	0.001	0.029
-674.149	377.072	-0.133	0.274
-673.135	129.840	-0.247	0.318
-672.120	732.780	-0.017	-0.046
-671.105	-192.119	0.123	-0.001
-670.091	-29.825	-0.224	-0.129
-669.076	-60.425	-0.079	0.034
-668.062	47.347	-0.205	-0.192
-667.047	-200.000	0.037	-0.184
-666.032	-66.965	-0.119	-0.047
-665.018	-60.773	0.085	0.036
-664.003	-70.838	0.202	0.077
-662.989	154.944	-0.049	-0.068
-661.974	-52.227	0.102	-0.048
-660.959	597.951	0.112	0.279
-659.945	-16.554	-0.157	0.100
-658.930	604.767	0.136	-0.341
-657.916	-88.048	-0.544	-0.164
-656.901	286.430	0.183	-0.332
-655.886	-187.489	-0.158	-0.002
-654.872	-26.731	-0.359	-0.212
-653.857	278.184	0.035	0.063
-652.843	-54.528	-0.044	0.020
-651.828	2.437	0.231	-0.169
-650.814	261.051	-0.135	-0.236
-649.799	47.439	0.036	-0.034
-648.784	-200.000	-0.067	0.360
-647.770	-70.561	-0.383	0.146
-646.755	-200.000	-0.011	0.282
-645.741	717.237	-0.065	0.174
-644.726	-200.000	0.030	-0.185
-643.711	-152.295	0.165	0.012
-642.697	154.147	-0.175	0.242
-641.682	-51.262	0.543	-0.255
-640.668	-200.000	0.060	-0.275
-639.653	25.906	-0.300	0.251
-638.638	-34.049	0.233	-0.129
-637.624	-89.616	0.202	-0.060
-636.609	-142.348	0.338	0.034
-635.595	800.000	0.075	0.309
-634.580	800.000	-0.066	0.276
-633.565	44.985	-0.266	-0.246
-632.551	-200.000	0.016	0.198
-631.536	-42.045	-0.266	0.137
-630.522	-166.605	0.415	-0.017
-629.507	-180.607	-0.041	0.001
-628.492	-72.971	0.140	-0.052
-627.478	-185.619	-0.540	-0.008
-626.463	132.893	0.063	-0.081
-625.449	-47.566	0.193	0.094
-624.434	100.040	0.159	-0.185
-623.419	800.000	0.026	-0.074
-622.405	265.094	0.039	0.068
-621.390	-2.859	0.251	0.176
-620.376	-39.825	-0.214	0.112
-619.361	-200.000	-0.012	-0.291
-618.346	206.985	-0.254	0.398
-617.332	-48.172	0.281	-0.136
-616.317	-200.000	0.012	-0.084
-615.303	58.832	0.318	-0.314
-614.288	115.292	0.185	0.227
-613.273	-53.584	0.241	0.110
-612.259	-61.234	0.302	-0.128
-611.244	157.361	-0.179	0.249
-610.230	-200.000	-0.035	0.293
-609.215	-200.000	-0.004	0.090
-608.201	81.303	-0.223	-0.242
-607.186	-135.206	-0.212	0.026
-606.171	-99.835	-0.180	-0.045
-605.157	167.796	-0.111	0.159
-604.142	-200.000	-0.004	-0.147
-603.128	58.121	-0.125	0.123
-602.113	-200.000	-0.027	-0.203
-601.098	87.535	-0.359	0.399
-600.084	800.000	0.070	0.267
-599.069	-133.782	-0.041	0.005
-598.055	-19.702	-0.393	-0.244
-597.040	-38.932	-0.218	-0.115
-596.025	-26.734	0.025	-0.015
-595.011	-100.358	0.283	-0.071
-593.996	422.440	-0.155	-0.333
-592.982	165.175	-0.157	-0.223
-591.967	-200.000	-0.002	-0.182
-590.952	-120.062	0.203	0.035
-589.938	198.278	-0.128	-0.197
-588.923	334.865	-0.166	-0.323
-587.909	-86.416	-0.466	-0.144
-586.894	-200.000	0.009	-0.312
-585.879	76.183	-0.207	0.220
-584.865	237.713	0.098	-0.164
-583.850	800.000	-0.050	0.178
-582.836	292.287	-0.146	-0.267
-581.821	716.724	0.199	-0.530
-580.806	800.000	0.064	-0.185
-579.792	-89.861	0.098	-0.029
-578.777	61.198	0.253	-0.252
-577.763	-56.668	0.041	0.018
-576.748	207.456	0.017	0.026
-575.733	6.333	0.047	0.035
-574.719	-121.713	-0.083	-0.014
-573.704	-49.624	0.025	-0.012
-572.690	398.041	0.130	0.272
-571.675	64.180	-0.123	0.124
-570.661	-45.212	-0.084	0.042
-569.646	-28.341	0.130	0.075
-568.631	82.596	-0.165	0.180
-567.617	219.025	0.167	0.268
-566.602	-131.409	0.379	-0.050
-565.588	12.206	-0.146	0.113
-564.573	-114.352	0.137	0.026
-563.558	-124.722	0.141	0.022
-562.544	-157.748	0.350	0.021
-561.529	72.576	-0.292	-0.306
-560.515	137.515	-0.184	-0.241
-559.500	25.563	-0.154	-0.128
-558.485	448.941	-0.118	-0.261
-557.471	-111.097	0.246	-0.051
-556.456	252.147	0.142	-0.243
-555.442	-50.726	-0.255	-0.120
-554.427	800.000	0.039	-0.131
-553.412	800.000	0.041	-0.146
-552.398	270.142	-0.036	-0.063
-551.383	96.913	0.113	0.130
-550.369	-200.000	-0.031	-0.339
-549.354	-64.537	-0.136	-0.055
-548.339	-200.000	0.006	-0.272
-547.325	181.160	-0.152	0.223
-546.310	96.873	-0.084	0.097
-545.296	-200.000	-0.004	0.033
-544.281	25.872	-0.236	0.197
-543.266	-121.694	-0.258	0.043
-542.252	288.197	-0.145	-0.263
-541.237	279.166	-0.032	-0.057
-540.223	-200.000	0.016	-0.459
-539.208	275.437	0.120	-0.213
-538.193	800.000	-0.082	-0.331
-537.179	-200.000	-0.023	0.186
-536.164	-74.473	0.106	0.038
-535.150	-49.897	-0.127	0.060
-534.135	-200.000	-0.020	0.220
-533.121	-102.724	-0.122	0.029
-532.106	-106.088	0.285	0.064
-531.091	-166.281	-0.278	-0.012
-530.077	-65.426	-0.204	-0.082
-529.062	-200.000	-0.037	-0.256
-528.048	-0.166	0.230	-0.164
-527.033	-34.149	-0.327	-0.180
-526.018	800.000	-0.137	-0.389
-525.004	436.549	-0.036	-0.078
-523.989	800.000	-0.084	0.282
-522.975	-200.000	-0.038	0.276
-521.960	-26.268	-0.048	-0.028
-520.945	76.518	0.420	0.445
-519.931	800.000	0.057	-0.204
-518.916	25.243	0.145	-0.120
-517.902	-27.424	0.074	-0.043
-516.887	-200.000	-0.001	-0.184
-515.872	-82.096	-0.120	-0.039
-514.858	800.000	-0.032	0.110
-513.843	152.928	0.323	0.441
-512.829	141.220	-0.058	0.077
-511.814	-88.561	-0.073	0.022
-510.799	-10.098	-0.278	-0.185
-509.785	51.890	0.268	-0.255
-508.770	-108.889	0.423	0.090
-507.756	-77.002	-0.170	0.059
-506.741	-59.528	-0.218	-0.094
-505.726	193.397	0.062	0.094
-504.712	796.636	-0.072	-0.199
-503.697	73.456	0.122	-0.128
-502.683	61.625	-0.104	-0.103
-501.668	128.689	0.023	0.029
-500.653	67.297	-0.175	-0.179
-499.639	34.334	-0.234	-0.204
-498.624	-34.574	0.105	-0.058
-497.610	3.204	0.357	0.260
-496.595	800.000	-0.124	-0.386
-495.581	-16.483	0.146	0.092
-494.566	800.000	0.008	0.024
-493.551	-53.374	-0.248	-0.113
-492.537	16.375	0.136	-0.107
-491.522	-167.372	0.176	0.007
-490.508	-175.528	-0.230	-0.006
-489.493	-86.562	-0.165	-0.051
-488.478	537.783	0.081	-0.192
-487.464	11.699	-0.283	0.217
-486.449	621.765	0.051	0.129
-485.435	120.313	-0.178	0.220
-484.420	-200.000	0.034	0.262
-483.405	575.826	0.115	0.282
-482.391	163.893	-0.037	0.053
-481.376	135.390	0.114	0.149
-480.362	1.623	0.131	-0.094
-479.347	-200.000	-0.011	-0.139
-478.332	-170.890	-0.182	-0.006
-477.318	-123.864	-0.349	0.055
-476.303	377.305	-0.102	0.208
-475.289	-200.000	0.013	-0.092
-474.274	127.391	-0.119	0.151
-473.259	-80.748	-0.237	-0.079
-472.245	11.244	-0.125	0.096
-471.230	-200.000	0.016	0.367
-470.216	-91.778	0.174	-0.049
-469.201	-128.464	-0.165	-0.023
-468.186	-143.953	0.213	-0.020
-467.172	-114.575	0.264	-0.050
-466.157	-52.005	0.175	-0.081
-465.143	695.073	-0.015	-0.039
-464.128	-69.520	-0.074	-0.028
-463.113	800.000	-0.069	0.277
-462.099	800.000	-0.057	-0.231
-461.084	258.816	-0.132	-0.227
-460.070	-45.463	0.152	-0.075
-459.055	-103.886	0.058	-0.014
-458.040	24.957	0.172	0.143
-457.026	-84.383	-0.416	0.131
-456.011	253.677	-0.121	-0.206
-454.997	129.633	0.106	0.135
-453.982	-125.195	0.162	-0.025
-452.968	89.969	0.182	0.203
-451.953	-200.000	-0.009	0.445
-450.938	47.978	-0.169	0.158
-449.924	563.071	-0.105	-0.255
-448.909	-89.083	-0.294	-0.087
-447.895	-77.536	-0.088	0.031
-446.880	-139.800	-0.288	0.031
-445.865	554.036	0.158	-0.379
-444.851	800.000	0.042	-0.164
-443.836	-94.611	-0.161	-0.044
-442.822	-52.946	-0.261	-0.120
-441.807	-8.839	-0.219	-0.147
-440.792	-200.000	0.015	0.168
-439.778	23.987	0.117	0.096
-438.763	-200.000	0.015	0.000
-437.749	21.045	-0.167	0.135
-436.734	-200.000	-0.016	0.253
-435.719	10.922	-0.206	-0.157
-434.705	-174.571	0.158	-0.004
-433.690	351.580	-0.140	-0.276
-432.676	-200.000	0.014	-0.296
-431.661	204.635	-0.086	0.132
-430.646	-133.484	-0.246	0.031
-429.632	-89.778	-0.098	-0.029
-428.617	277.253	-0.157	0.279
-427.603	-200.000	0.014	0.088
-426.588	-200.000	-0.024	0.108
-425.573	180.811	0.085	0.125
-424.559	-40.233	0.125	0.065
-423.544	-112.196	-0.094	0.019
-422.530	-12.303	0.060	0.039
-421.515	-47.627	-0.181	0.088
-420.500	-200.000	-0.006	-0.239
-419.486	800.000	0.030	0.095
-418.471	-112.772	-0.229	0.045
-417.457	800.000	0.134	-0.502
-416.442	-5.468	0.337	-0.230
-415.428	-200.000	0.015	0.110
-414.413	-200.000	0.008	-0.185
-413.398	-187.261	-0.461	0.006
-412.384	8.557	0.041	0.031
-411.369	72.695	-0.263	0.273
-410.355	252.660	0.363	-0.617
-409.340	-151.364	0.230	-0.017
-408.325	-200.000	0.044	-0.193
-407.311	38.510	-0.012	-0.011
-406.296	599.217	-0.167	-0.413
-405.282	-200.000	-0.005	0.197
-404.267	-200.000	-0.057	0.370
-403.252	-200.000	-0.072	0.386
-402.238	25.475	-0.157	-0.130
-401.223	463.942	0.109	-0.243
-400.209	73.957	0.192	0.201
-399.194	800.000	-0.050	-0.163
-398.179	800.000	0.076	-0.247
-397.165	151.093	0.054	-0.073
-396.150	-25.265	0.085	0.050
-395.136	-153.671	0.337	0.023
-394.121	476.613	0.180	-0.406
-393.106	275.505	0.081	-0.144
-392.092	800.000	0.016	-0.057
-391.077	-91.218	-0.317	0.090
-390.063	-137.439	-0.316	0.036
-389.048	800.000	-0.041	0.157
-388.033	-200.000	0.036	0.185
-387.019	-26.369	0.063	-0.037
-386.004	45.844	-0.203	0.187
-384.990	-200.000	0.002	-0.179
-383.975	-136.931	-0.002	-0.000
-382.960	-18.864	-0.307	-0.190
-381.946	-200.000	0.026	0.215
-380.931	570.930	-0.095	-0.229
-379.917	-200.000	0.030	0.151
-378.902	-61.422	0.347	0.145
-377.888	154.628	-0.038	0.053
-376.873	-200.000	0.006	0.214
-375.858	-200.000	-0.031	0.265
-374.844	-23.677	0.155	-0.092
-373.829	-200.000	0.004	0.241
-372.815	244.482	-0.024	-0.041
-371.800	-90.336	0.096	-0.028
-370.785	-200.000	0.014	0.230
-369.771	7.167	0.328	-0.243
-368.756	89.703	0.011	-0.012
-367.742	22.639	0.131	-0.107
-366.727	-94.551	0.353	0.096
-365.712	378.908	0.062	-0.127
-364.698	-48.722	0.171	0.082
-363.683	800.000	0.122	-0.380
-362.669	-101.329	-0.037	-0.009
-361.654	292.855	0.234	-0.424
-360.639	-183.202	-0.237	0.004
-359.625	-200.000	0.029	-0.164
-358.610	-25.275	0.140	-0.082
-357.596	-114.834	0.023	-0.004
-356.581	-200.000	-0.025	-0.170
-355.566	-200.000	0.010	0.113
-354.552	-174.506	0.125	-0.004
-353.537	-116.828	-0.060	0.011
-352.523	524.609	0.086	-0.200
-351.508	-10.207	0.140	0.092
-350.493	-160.750	-0.256	-0.014
-349.479	-50.198	0.025	0.012
-348.464	86.024	-0.129	-0.141
-347.450	-146.439	-0.159	0.014
-346.435	-64.887	0.129	-0.052
-345.420	195.312	-0.113	-0.171
-344.406	770.081	0.064	-0.174
-343.391	214.494	0.089	-0.140
-342.377	107.822	0.048	0.057
-341.362	538.452	-0.103	0.242
-340.348	800.000	0.085	-0.237
-339.333	-200.000	-0.024	0.247
-338.318	450.863	-0.131	0.287
-337.304	173.292	0.273	-0.391
-336.289	-62.382	0.031	-0.013
-335.275	11.857	0.214	-0.163
-334.260	800.000	0.090	-0.335
-333.245	56.587	-0.119	0.115
-332.231	800.000	-0.041	0.158
-331.216	-91.716	0.210	0.059
-330.202	-60.310	-0.183	0.077
-329.187	-200.000	-0.001	0.105
-328.172	-146.124	0.191	0.017
-327.158	397.827	-0.122	-0.253
-326.143	800.000	-0.017	0.054
-325.129	-200.000	0.004	-0.070
-324.114	800.000	0.091	0.294
-323.099	-200.000	-0.064	0.312
-322.085	-117.644	0.254	0.045
-321.070	-58.059	-0.195	0.085
-320.056	-129.472	0.197	0.027
-319.041	-195.987	0.142	0.001
-318.026	122.388	-0.018	-0.023
-317.012	-91.423	0.169	0.048
-315.997	800.000	-0.057	0.182
-314.983	281.491	-0.098	-0.174
-313.968	142.796	-0.192	-0.253
-312.953	165.682	0.192	-0.270
-311.939	-46.588	-0.196	-0.096
-310.924	800.000	-0.036	-0.106
-309.910	-90.625	0.426	0.122
-308.895	22.600	0.252	0.205
-307.880	800.000	0.064	-0.258
-306.866	414.004	-0.117	0.248
-305.851	800.000	0.031	0.125
-304.837	623.598	-0.075	-0.186
-303.822	-103.563	-0.185	0.043
-302.807	-159.039	0.167	-0.009
-301.793	-104.567	-0.064	-0.015
-300.778	73.541	-0.160	0.167
-299.764	-25.973	-0.063	-0.036
-298.749	-138.829	-0.089	0.010
-297.735	79.584	0.051	0.054
-296.720	310.424	0.141	-0.262
-295.705	52.333	0.292	-0.276
-294.691	-92.057	-0.024	-0.007
-293.676	249.839	-0.077	0.130
-292.662	-3.444	0.284	-0.196
-291.647	-200.000	0.026	0.245
-290.632	800.000	0.061	-0.193
-289.618	37.314	0.449	0.395
-288.603	-57.018	0.141	0.062
-287.589	106.680	0.204	-0.240
-286.574	800.000	-0.097	0.295
-285.559	-91.649	-0.238	0.067
-284.545	-200.000	0.071	-0.332
-283.530	-8.117	0.091	0.061
-282.516	121.602	0.098	0.121
-281.501	-200.000	0.011	0.103
-280.486	-98.053	0.172	-0.044
-279.472	-98.169	-0.142	0.036
-278.457	528.090	-0.058	0.136
-277.443	96.809	-0.038	-0.043
-276.428	39.656	0.316	-0.281
-275.413	-55.406	-0.112	-0.050
-274.399	17.065	0.222	-0.175
-273.384	-184.295	0.091	0.001
-272.370	422.686	-0.052	-0.112
-271.355	112.159	-0.142	-0.170
-270.340	-103.496	0.072	0.017
-269.326	70.087	-0.121	-0.124
-268.311	-52.272	-0.122	-0.056
-267.297	557.514	0.028	0.066
-266.282	-77.082	-0.241	0.083
-265.267	137.757	-0.171	0.222
-264.253	-200.000	0.028	0.263
-263.238	-61.208	-0.155	0.065
-262.224	800.000	-0.177	0.550
-261.209	-9.799	-0.047	0.031
-260.195	-200.000	0.003	-0.051
-259.180	-41.325	-0.253	0.129
-258.165	466.035	-0.119	0.264
-257.151	669.362	0.136	0.349
-256.136	800.000	0.041	0.172
-255.122	57.991	-0.100	0.097
-254.107	561.346	-0.075	0.180
-253.092	800.000	0.050	-0.200
-252.078	745.177	0.105	-0.279
-251.063	58.544	-0.060	-0.058
-250.049	24.148	-0.118	-0.096
-249.034	-200.000	0.024	0.148
-248.019	12.617	0.199	0.152
-247.005	306.616	0.049	-0.090
-245.990	-161.828	0.138	0.007
-244.976	450.001	-0.031	-0.068
-243.961	164.961	-0.193	-0.270
-242.946	-173.027	0.257	0.008
-241.932	-83.420	0.183	0.058
-240.917	-31.899	0.075	0.042
-239.903	-163.658	-0.303	-0.014
-238.888	148.522	-0.079	-0.105
-237.873	-146.034	-0.079	-0.007
-236.859	218.964	0.112	0.177
-235.844	-65.329	0.247	-0.098
-234.830	-133.256	-0.120	0.015
-233.815	-96.384	0.145	0.038
-232.800	-119.556	0.280	-0.048
-231.786	-148.466	0.168	0.014
-230.771	513.538	0.091	-0.209
-229.757	-200.000	-0.011	0.216
-228.742	-200.000	-0.002	-0.059
-227.727	-14.910	0.282	-0.179
-226.713	800.000	0.052	0.153
-225.698	174.160	0.284	0.406
-224.684	-200.000	-0.036	0.238
-223.669	271.949	-0.032	-0.055
-222.655	-122.787	-0.062	-0.010
-221.640	10.480	-0.226	0.170
-220.625	-200.000	0.015	0.066
-219.611	224.510	-0.061	0.098
-218.596	41.377	0.156	-0.139
-217.582	6.826	0.057	0.042
-216.567	-136.642	-0.221	-0.025
-215.552	-200.000	0.018	0.091
-214.538	-102.670	0.133	-0.031
-213.523	-123.389	-0.045	0.007
-212.509	800.000	0.029	-0.100
-211.494	-6.939	0.038	-0.025
-210.479	78.030	0.243	0.256
-209.465	33.598	-0.119	0.102
-208.450	-180.173	0.399	-0.008
-207.436	800.000	0.063	-0.181
-206.421	-97.364	0.206	-0.053
-205.406	-200.000	-0.022	-0.132
-204.392	256.139	0.067	0.113
-203.377	598.294	0.059	0.145
-202.363	276.001	0.221	-0.388
-201.348	336.347	0.029	-0.055
-200.333	-74.990	0.252	0.089
-199.319	-29.245	-0.153	0.087
-198.304	-200.000	0.004	0.192
-197.290	66.858	-0.344	0.346
-196.275	-142.134	0.301	0.030
-195.260	-104.949	-0.213	0.048
-194.246	-200.000	-0.042	-0.281
-193.231	38.794	0.046	-0.040
-192.217	800.000	0.028	-0.077
-191.202	-86.180	-0.300	0.091
-190.187	-39.061	0.099	-0.052
-189.173	650.261	-0.087	0.220
-188.158	-13.710	-0.061	-0.039
-187.144	-7.059	0.126	-0.085
-186.129	197.484	-0.279	0.421
-185.114	-200.000	-0.007	0.044
-184.100	81.962	0.244	0.261
-183.085	83.235	0.118	0.127
-182.071	755.099	-0.100	0.266
-181.056	-200.000	0.039	0.406
-180.042	85.326	-0.135	-0.147
-179.027	-22.987	-0.282	0.168
-178.012	267.335	0.126	-0.219
-176.998	463.232	0.180	0.396
-175.983	132.687	0.104	0.132
-174.969	-54.167	0.056	-0.025
-173.954	198.184	-0.101	-0.152
-172.939	-200.000	-0.028	0.234
-171.925	-200.000	0.049	0.472
-170.910	522.603	0.197	-0.456
-169.896	800.000	0.082	0.244
-168.881	221.260	-0.174	-0.276
-167.866	601.927	-0.061	-0.150
-166.852	-200.000	-0.003	0.513
-165.837	-200.000	0.022	-0.299
-164.823	-200.000	-0.053	0.288
-163.808	-129.738	0.167	0.023
-162.793	29.455	-0.179	-0.150
-161.779	-96.160	-0.358	0.094
-160.764	20.383	-0.026	-0.021
-159.750	139.698	0.307	0.399
-158.735	-200.000	-0.047	0.371
-157.720	334.883	-0.149	0.284
-156.706	48.778	-0.262	0.243
-155.691	150.330	-0.221	-0.296
-154.677	528.323	0.049	-0.113
-153.662	324.546	0.101	-0.189
-152.647	72.623	-0.086	-0.088
-151.633	-69.398	-0.253	-0.096
-150.618	159.464	0.142	-0.195
-149.604	-108.006	-0.181	0.039
-148.589	-200.000	-0.053	-0.331
-147.574	25.422	0.055	0.045
-146.560	800.000	-0.032	0.117
-145.545	179.397	-0.073	0.106
-144.531	-67.974	0.382	-0.147
-143.516	800.000	-0.047	0.173
-142.502	289.654	-0.078	0.140
-141.487	-40.095	-0.223	0.115
-140.472	-200.000	0.002	-0.292
-139.458	-34.902	0.047	0.025
-138.443	800.000	0.054	-0.180
-137.429	-94.102	0.185	0.050
-136.414	-56.541	0.225	0.098
-135.399	590.956	-0.051	0.125
-134.385	58.445	-0.243	0.235
-133.370	105.131	-0.055	0.064
-132.356	148.590	0.119	0.159
-131.341	-27.927	0.189	0.108
-130.326	265.486	-0.116	0.200
-129.312	-200.000	-0.033	-0.264
-128.297	-112.167	-0.294	0.058
-127.283	-78.412	0.391	0.132
-126.268	-31.629	-0.306	0.169
-125.253	-34.511	0.422	0.228
-124.239	56.220	0.132	-0.126
-123.224	-122.734	0.339	-0.054
-122.210	-200.000	0.041	-0.262
-121.195	-93.776	-0.419	0.114
-120.180	76.558	-0.036	-0.038
-119.166	-10.227	-0.258	0.169
-118.151	108.896	0.397	-0.468
-117.137	-200.000	-0.015	-0.313
-116.122	-41.299	0.319	-0.162
-115.107	800.000	-0.111	0.305
-114.093	-112.903	-0.223	-0.044
-113.078	-57.107	0.073	0.032
-112.064	-50.722	0.092	0.043
-111.049	656.953	0.064	-0.161
-110.034	-65.141	-0.276	0.110
-109.020	-123.239	0.058	-0.009
-108.005	-54.704	0.096	-0.043
-106.991	546.662	0.068	-0.160
-105.976	19.658	0.123	-0.098
-104.962	800.000	-0.008	0.025
-103.947	-200.000	0.020	-0.154
-102.932	99.548	0.145	-0.165
-101.918	-183.267	-0.140	-0.002
-100.903	61.936	0.170	-0.167
-99.889	-82.376	0.091	-0.029
-98.874	472.969	-0.065	-0.144
-97.859	-101.439	0.205	0.049
-96.845	-145.271	0.240	-0.021
-95.830	203.970	-0.214	-0.326
-94.816	-200.000	-0.058	0.285
-93.801	276.185	-0.015	-0.026
-92.786	231.635	-0.047	-0.076
-91.772	-78.446	-0.407	0.137
-90.757	151.779	0.108	0.144
-89.743	800.000	0.077	0.292
-88.728	765.455	0.059	0.157
-87.713	-31.225	0.264	0.147
-86.699	314.188	-0.103	-0.191
-85.684	-136.659	-0.021	-0.002
-84.670	122.909	-0.082	0.101
-83.655	340.646	0.091	-0.175
-82.640	800.000	-0.057	0.229
-81.626	-134.042	0.259	0.032
-80.611	-77.676	-0.647	-0.220
-79.597	262.942	0.120	0.205
-78.582	-105.412	0.182	0.041
-77.567	-43.108	0.190	-0.095
-76.553	-14.383	-0.260	-0.165
-75.538	124.537	-0.047	-0.059
-74.524	412.155	0.105	-0.218
-73.509	-153.355	0.071	0.005
-72.494	365.732	-0.078	-0.155
-71.480	-195.206	0.074	0.001
-70.465	-3.250	0.145	-0.100
-69.451	169.883	0.109	0.153
-68.436	574.809	-0.170	0.409
-67.422	-59.721	0.263	0.111
-66.407	-200.000	0.018	0.217
-65.392	-86.298	0.099	-0.030
-64.378	-0.568	-0.162	-0.113
-63.363	28.971	0.076	0.064
-62.349	-77.679	-0.214	0.073
-61.334	225.336	-0.773	-1.230
-60.319	-62.884	0.679	0.276
-59.305	-200.000	-0.118	-0.893
-58.290	106.004	0.766	0.892
-57.276	591.147	0.676	1.640
-56.261	-200.000	96.827	587.129
-55.246	514.915	1398.066	3207.257
-54.232	158.866	2570.773	3509.761
-53.217	112.162	2147.481	2550.716
-52.203	44.503	1612.324	1455.585
-51.188	36.472	1352.088	1172.132
-50.173	33.149	1310.581	1116.522
-49.159	55.883	1357.588	1293.502
-48.144	57.798	1374.469	1321.008
-47.130	36.567	1333.698	1156.573
-46.115	33.188	1315.953	1121.149
-45.100	32.851	1311.493	1115.314
-44.086	32.765	1308.493	1112.215
-43.071	32.709	1306.617	1110.243
-42.057	32.795	1304.401	1108.822
-41.042	32.824	1302.955	1107.720
-40.027	32.868	1300.928	1106.213
-39.013	32.810	1299.245	1104.398
-37.998	32.793	1297.375	1102.663
-36.984	32.900	1295.524	1101.668
-35.969	32.858	1294.121	1100.190
-34.954	32.914	1292.162	1098.805
-33.940	32.923	1290.934	1097.774
-32.925	32.855	1290.061	1096.588
-31.911	33.031	1288.193	1095.978
-30.896	32.878	1287.085	1094.107
-29.881	32.955	1285.850	1093.461
-28.867	32.905	1284.199	1091.724
-27.852	32.958	1282.660	1090.675
-26.838	32.940	1281.175	1089.265
-25.823	32.992	1280.150	1088.655
-24.809	32.985	1278.580	1087.235
-23.794	32.972	1277.368	1086.083
-22.779	32.949	1275.823	1084.595
-21.765	33.008	1274.697	1083.935
-20.750	32.941	1273.227	1082.261
-19.736	32.875	1272.060	1080.847
-18.721	32.871	1270.957	1079.842
-17.706	32.851	1270.047	1078.911
-16.692	32.845	1268.579	1077.587
-15.677	32.880	1267.693	1076.992
-14.663	32.870	1266.157	1075.588
-13.648	32.811	1265.386	1074.552
-12.633	32.712	1264.761	1073.415
-11.619	32.867	1263.552	1073.229
-10.604	32.833	1262.666	1072.238
-9.590	32.798	1261.978	1071.417
-8.575	32.748	1260.838	1070.121
-7.560	32.814	1259.719	1069.506
-6.546	32.855	1258.723	1068.846
-5.531	32.786	1258.149	1067.927
-4.517	32.778	1257.021	1066.879
-3.502	32.810	1256.674	1066.726
-2.487	32.892	1255.267	1065.953
-1.473	32.521	1251.492	1060.616
-0.458	30.188	1234.326	1033.047
0.556	23.982	1213.774	980.857
1.571	18.612	1217.386	953.913
2.586	17.128	1231.333	956.406
3.600	16.618	1220.700	945.211
4.615	12.604	1149.546	868.887
5.629	5.054	1075.988	775.776
6.644	1.252	1055.854	742.615
7.659	1.030	1053.601	739.881
8.673	0.951	1052.442	738.616
9.688	0.947	1051.596	737.934
10.702	1.019	1049.938	737.056
11.717	5.433	1055.567	762.499
12.731	13.105	1064.732	806.655
13.746	17.176	1069.604	830.213
14.761	17.559	1069.834	832.189
15.775	16.772	1068.063	826.897
16.790	15.906	1065.934	820.956
17.804	15.182	1064.366	816.152
18.819	14.698	1063.316	812.916
19.834	14.509	1062.308	811.156
20.848	14.305	1061.372	809.378
21.863	13.919	1060.426	806.707
22.877	13.846	1059.920	805.899
23.892	13.778	1059.107	804.881
24.907	13.954	1057.936	804.769
25.921	13.791	1057.643	803.686
26.936	13.920	1056.883	803.662
27.950	13.986	1055.693	803.007
28.965	14.124	1054.182	802.450
29.980	13.995	1053.217	801.026
30.994	14.126	1052.423	800.981
32.009	14.094	1051.192	799.816
33.023	14.061	1050.618	799.150
34.038	13.978	1049.843	798.093
35.053	14.036	1048.667	797.409
36.067	13.992	1047.759	796.434
37.082	14.119	1046.696	796.163
38.096	14.075	1045.998	795.353
39.111	13.983	1045.267	794.287
40.126	14.048	1043.628	793.284
41.140	13.893	1043.028	792.015
42.155	13.808	1042.080	790.821
43.169	13.741	1041.133	789.714
44.184	13.964	1039.496	789.463
45.199	13.794	1038.862	788.103
46.213	13.897	1037.342	787.369
47.228	13.910	1036.361	786.614
48.242	13.947	1035.500	786.067
49.257	13.897	1034.330	784.871
50.271	13.933	1033.893	784.643
51.286	13.810	1033.259	783.510
52.301	14.056	1031.418	783.205
53.315	13.936	1031.157	782.373
54.330	13.857	1030.254	781.244
55.344	13.988	1029.241	781.025
56.359	14.053	1028.103	780.400
57.374	13.799	1027.578	778.738
58.388	13.931	1026.823	778.718
59.403	13.857	1026.063	777.724
60.417	13.822	1025.221	776.852
61.432	13.839	1024.274	776.147
62.447	13.682	1024.133	775.238
63.461	13.770	1023.099	774.798
64.476	13.840	1021.966	774.197
65.490	13.819	1021.305	773.528
66.505	13.770	1020.571	772.676
67.520	13.815	1019.808	772.238
68.534	13.944	1018.804	772.013
69.549	13.781	1018.407	770.886
70.563	13.820	1017.839	770.569
71.578	13.865	1016.694	769.839
72.593	13.754	1016.036	768.759
73.607	13.807	1015.039	768.186
74.622	13.762	1014.735	767.679
75.636	13.857	1013.608	767.195
76.651	13.723	1013.410	766.357
77.666	13.802	1012.466	765.941
78.680	13.816	1011.879	765.493
79.695	13.756	1011.530	764.886
80.709	13.882	1011.092	765.068
81.724	13.936	1009.837	764.301
82.739	13.968	1009.367	764.023
83.753	14.099	1007.843	763.403
84.768	13.917	1007.651	762.354
85.782	13.993	1006.897	762.066
86.797	14.097	1005.560	761.463
87.812	13.907	1005.142	760.208
88.826	13.918	1003.841	759.207
89.841	14.022	1003.103	759.060
90.855	14.010	1002.208	758.259
91.870	14.076	1001.272	757.784
92.884	14.098	1000.249	757.045
93.899	14.131	999.423	756.503
94.914	14.137	999.020	756.157
95.928	14.145	998.025	755.373
96.943	14.033	997.584	754.465
97.957	14.005	996.856	753.721
98.972	14.139	995.421	753.175
99.987	14.141	994.499	752.419
101.001	14.051	993.687	751.333
102.016	14.108	993.156	751.123
103.030	14.005	992.591	750.165
104.045	14.072	991.724	749.742
105.060	14.020	990.595	748.589
106.074	13.999	989.789	747.819
107.089	13.892	988.768	746.502
108.103	13.913	988.128	746.045
109.118	14.011	987.208	745.725
110.133	13.961	986.284	744.739
111.147	13.899	985.506	743.804
112.162	13.949	984.678	743.339
113.176	14.107	983.698	743.238
114.191	14.059	983.048	742.470
115.206	13.992	982.379	741.600
116.220	14.122	981.148	741.183
117.235	13.993	980.888	740.346
118.249	13.981	979.753	739.371
119.264	13.949	978.984	738.582
120.279	14.015	978.222	738.235
121.293	13.892	977.472	737.058
122.308	14.084	976.410	737.041
123.322	13.889	975.548	735.463
124.337	13.985	974.718	735.200
125.352	14.061	973.590	734.616
126.366	13.991	972.590	733.489
127.381	14.032	971.588	732.851
128.395	14.085	970.523	732.216
129.410	14.072	969.830	731.571
130.424	14.091	968.982	730.950
131.439	14.160	968.394	730.742
132.454	14.115	967.577	729.866
133.468	14.182	966.606	729.363
134.483	14.077	965.758	728.198
135.497	14.148	964.582	727.556
136.512	14.195	963.924	727.201
137.527	14.092	963.227	726.164
138.541	14.210	962.079	725.749
139.556	14.127	961.765	725.084
140.570	14.227	960.653	724.617
141.585	14.245	959.707	723.917
142.600	14.196	959.408	723.417
143.614	14.322	958.136	722.939
144.629	14.181	957.340	721.662
145.643	14.208	956.576	721.140
146.658	14.061	955.973	719.985
147.673	14.210	955.317	720.071
148.687	14.141	953.880	718.626
149.702	14.084	953.439	717.986
150.716	14.136	952.290	717.282
151.731	14.115	951.651	716.647
152.746	14.194	951.080	716.490
153.760	14.241	950.573	716.249
154.775	14.196	950.169	715.688
155.789	14.320	949.053	715.317
156.804	14.309	948.277	714.622
157.819	14.265	947.982	714.146
158.833	14.367	947.276	713.990
159.848	14.309	946.599	713.170
160.862	14.206	945.592	711.904
161.877	14.256	944.685	711.373
162.892	14.300	943.384	710.518
163.906	14.235	942.671	709.640
164.921	14.199	942.087	708.985
165.935	14.261	941.134	708.469
166.950	14.350	940.144	708.038
167.964	14.340	939.293	707.293
168.979	14.363	938.298	706.581
169.994	14.463	937.482	706.326
171.008	14.245	937.503	705.357
172.023	14.450	936.078	705.087
173.037	14.334	936.033	704.502
174.052	14.539	934.616	704.239
175.067	14.316	934.257	702.965
176.081	14.366	933.762	702.742
177.096	14.456	932.923	702.426
178.110	14.415	932.561	701.918
179.125	14.538	932.060	701.999
180.140	14.432	931.593	701.137
181.154	14.389	931.216	700.611
182.169	14.570	929.939	700.348
183.183	14.533	929.500	699.798
184.198	14.689	928.373	699.542
185.213	14.666	928.017	699.119
186.227	14.682	927.348	698.618
187.242	14.783	926.548	698.377
188.256	14.564	926.123	697.078
189.271	14.543	925.617	696.551
190.286	14.517	924.760	695.732
191.300	14.423	924.333	694.959
192.315	14.496	923.752	694.763
193.329	14.462	922.884	693.911
194.344	14.684	922.101	694.180
195.359	14.577	921.367	693.124
196.373	14.537	921.071	692.671
197.388	14.784	920.403	693.134
198.402	14.687	920.090	692.433
199.417	14.904	918.923	692.394
200.432	14.861	918.620	691.926
201.446	14.706	918.261	690.954
202.461	14.894	917.297	690.942
203.475	14.928	916.954	690.764
204.490	14.842	916.377	689.916
205.504	14.710	915.782	688.862
206.519	14.838	914.710	688.521
207.534	14.919	913.718	688.045
208.548	14.969	913.132	687.748
209.563	14.889	912.778	687.092
210.577	14.836	912.279	686.441
211.592	14.942	911.643	686.337
212.607	14.999	910.777	685.855
213.621	15.088	909.779	685.410
214.636	14.963	909.534	684.650
215.650	15.033	908.631	684.198
216.665	15.051	907.815	683.596
217.680	15.163	907.302	683.607
218.694	15.003	906.775	682.494
219.709	15.121	906.133	682.432
220.723	15.061	905.233	681.449
221.738	15.127	904.716	681.268
222.753	15.118	903.979	680.620
223.767	15.114	903.554	680.222
224.782	15.133	903.289	680.040
225.796	15.197	902.626	679.740
226.811	15.256	901.611	679.152
227.826	15.079	901.139	678.023
228.840	15.234	900.347	677.993
229.855	15.284	899.164	677.244
230.869	15.243	898.812	676.753
231.884	15.239	898.106	676.146
232.899	15.181	896.995	675.017
233.913	15.253	896.324	674.742
234.928	15.201	896.245	674.412
235.942	15.111	895.732	673.607
236.957	15.221	894.902	673.363
237.972	15.227	894.165	672.773
238.986	15.223	893.553	672.238
240.001	15.229	893.336	672.038
241.015	15.359	892.209	671.651
242.030	15.162	891.976	670.629
243.045	15.190	891.419	670.262
244.059	15.300	890.759	670.146
245.074	15.235	890.335	669.510
246.088	15.479	888.728	669.214
247.103	15.350	888.434	668.420
248.117	15.393	888.431	668.529
249.132	15.513	887.467	668.221
250.147	15.645	886.608	668.040
251.161	15.633	885.825	667.344
252.176	15.398	886.029	666.507
253.190	15.704	884.661	666.632
254.205	15.681	884.015	665.992
255.220	15.561	883.616	665.159
256.234	15.588	883.130	664.842
257.249	15.599	881.928	663.922
258.263	15.658	881.393	663.692
259.278	15.765	880.644	663.492
260.293	15.753	880.414	663.213
261.307	15.787	879.898	662.900
262.322	15.937	879.106	662.835
263.336	15.907	878.123	661.914
264.351	15.973	877.468	661.623
265.366	15.902	876.605	660.634
266.380	15.804	876.386	660.029
267.395	15.885	875.521	659.634
268.409	15.924	874.783	659.175
269.424	15.863	873.977	658.270
270.439	15.849	873.447	657.759
271.453	16.010	873.129	658.086
272.468	15.956	872.394	657.264
273.482	15.973	871.797	656.823
274.497	15.851	870.912	655.624
275.512	15.890	870.527	655.427
276.526	16.026	870.049	655.537
277.541	16.156	869.383	655.485
278.555	16.093	868.894	654.812
279.570	16.111	867.915	654.086
280.585	16.163	867.112	653.627
281.599	16.038	866.637	652.727
282.614	16.035	865.741	651.979
283.628	16.086	865.857	652.207
284.643	16.157	865.501	652.156
285.657	15.927	864.987	650.822
286.672	16.172	863.603	650.669
287.687	16.161	862.977	650.098
288.701	16.229	863.096	650.392
289.716	16.270	862.045	649.701
290.730	16.258	861.502	649.189
291.745	16.442	860.787	649.297
292.760	16.174	860.474	647.973
293.774	16.361	859.417	647.838
294.789	16.422	858.846	647.585
295.803	16.286	858.319	646.611
296.818	16.241	857.790	645.983
297.833	16.315	856.794	645.456
298.847	16.363	856.125	645.079
299.862	16.383	855.772	644.833
300.876	16.559	855.088	644.932
301.891	16.473	854.470	644.082
302.906	16.403	854.351	643.667
303.920	16.536	853.735	643.653
304.935	16.562	853.408	643.450
305.949	16.398	852.515	642.095
306.964	16.460	852.081	641.945
307.979	16.442	851.530	641.405
308.993	16.520	850.912	641.178
310.008	16.555	850.408	640.877
311.022	16.685	849.383	640.539
312.037	16.597	848.998	639.860
313.052	16.533	848.596	639.256
314.066	16.647	847.753	638.995
315.081	16.629	847.458	638.650
316.095	16.614	846.729	637.987
317.110	16.552	846.209	637.305
318.125	16.630	845.604	637.085
319.139	16.548	845.249	636.455
320.154	16.635	845.026	636.556
321.168	16.697	844.271	636.165
322.183	16.633	843.700	635.438
323.197	16.589	843.508	635.073
324.212	16.660	842.844	634.784
325.227	16.738	842.012	634.391
326.241	16.627	841.308	633.390
327.256	16.682	840.735	633.108
328.270	16.751	840.143	632.863
329.285	16.693	839.710	632.264
330.300	16.843	838.916	632.173
331.314	16.759	838.437	631.441
332.329	16.699	838.265	631.032
333.343	16.704	838.165	630.920
334.358	16.904	837.244	630.913
335.373	16.847	836.663	630.207
336.387	16.835	836.422	629.929
337.402	16.853	836.345	629.879
338.416	16.915	836.066	629.844
339.431	16.865	835.652	629.292
340.446	17.096	834.805	629.455
341.460	17.058	834.787	629.246
342.475	17.085	834.384	628.984
343.489	16.962	834.190	628.327
344.504	17.176	833.314	628.404
345.519	17.129	833.068	627.988
346.533	17.048	832.288	627.047
347.548	17.088	832.167	627.047
348.562	16.957	831.704	626.161
349.577	17.108	830.729	625.926
350.592	17.137	830.128	625.524
351.606	17.201	829.581	625.295
352.621	17.254	828.637	624.721
353.635	17.168	828.377	624.154
354.650	17.236	827.278	623.519
355.665	17.069	826.951	622.607
356.679	17.063	826.527	622.211
357.694	17.275	825.599	622.231
358.708	17.228	825.087	621.619
359.723	17.310	824.418	621.359
360.738	17.360	823.982	621.159
361.752	17.332	823.658	620.757
362.767	17.257	823.034	619.957
363.781	17.301	822.499	619.661
364.796	17.399	821.897	619.508
365.810	17.376	821.482	619.057
366.825	17.397	821.401	619.019
367.840	17.607	820.681	619.185
368.854	17.420	820.030	617.961
369.869	17.324	820.116	617.623
370.883	17.519	819.251	617.622
371.898	17.569	818.734	617.360
372.913	17.497	818.661	616.990
373.927	17.696	817.771	616.985
374.942	17.559	817.521	616.244
375.956	17.713	816.918	616.294
376.971	17.620	816.867	615.865
377.986	17.628	816.492	615.557
379.000	17.579	816.167	615.077
380.015	17.678	815.480	614.865
381.029	17.812	814.340	614.431
382.044	17.934	814.093	614.632
383.059	17.622	813.864	613.282
384.073	17.719	813.208	613.082
385.088	17.799	812.423	612.722
386.102	17.785	811.886	612.214
387.117	17.876	811.415	612.129
388.132	17.679	810.901	610.981
389.146	17.659	810.691	610.696
390.161	17.859	809.669	610.591
391.175	17.874	809.467	610.439
392.190	17.762	809.035	609.655
393.205	17.827	808.773	609.637
394.219	17.813	808.145	609.061
395.234	17.730	808.110	608.686
396.248	17.826	807.522	608.528
397.263	17.886	806.629	608.017
398.278	17.832	806.447	607.632
399.292	17.819	805.974	607.176
400.307	17.841	805.393	606.763
401.321	17.833	805.147	606.495
402.336	17.874	804.547	606.136
403.350	18.051	803.890	606.217
404.365	17.941	803.807	605.708
405.380	17.994	803.507	605.618
406.394	17.951	802.992	605.024
407.409	18.033	802.380	604.799
408.423	18.098	801.996	604.685
409.438	18.123	801.891	604.643
410.453	18.009	801.261	603.709
411.467	18.115	800.936	603.785
412.482	18.205	800.285	603.558
413.496	18.324	799.671	603.464
414.511	18.229	799.828	603.193
415.526	18.161	799.285	602.491
416.540	18.281	798.309	602.123
417.555	18.307	798.123	602.022
418.569	18.439	797.836	602.215
419.584	18.328	797.176	601.276
420.599	18.447	797.048	601.542
421.613	110.101	1289.433	1461.792
422.628	94.771	1361.134	1461.904
