DTS Sentinel unit serial number:	SN413079Multiplexer serial number:	ORYXHardware model number:	OX4-SRSoftware version number:	ORYX F/W v4.00 Oryx Data Collector v3.7.2.0data status	okinstallation	princeton_trtdifferential loss correction	single-endedforward channel	channel 1reverse channel	N/Adate	2019/09/19time	15:18:35forward acquisition time	60.00reverse acquisition time	0.00gamma	496.2192k internal	0.2314k external	0.2314temperature offset calibration	1.0019default loss term (dB/km)	0.3790temperature slope calibration	1.0000multiplexer offset coefficient	1.0000multiplexer slope coefficient	1.0000fibre end	0.00T internal ref (°C)	33.69T ext. ref 1 (°C)	1.14T ext. ref 2 (°C)	30.50length (m)	temperature (°C)	Stokes	anti-Stokes-747.200	60.462	-0.210	-0.211
-746.185	155.068	-0.118	0.165
-745.171	-93.791	0.272	-0.076
-744.156	259.695	0.149	0.261
-743.142	-200.000	-0.033	0.440
-742.127	-200.000	-0.017	0.120
-741.112	45.007	-0.135	0.126
-740.098	83.187	0.182	0.201
-739.083	-57.012	-0.269	0.120
-738.069	122.054	-0.026	0.033
-737.054	39.687	-0.198	0.180
-736.039	56.018	-0.071	-0.070
-735.025	800.000	0.062	0.194
-734.010	14.805	-0.120	-0.095
-732.996	-30.535	-0.171	-0.098
-731.981	-29.699	-0.036	0.021
-730.966	-21.124	0.250	0.155
-729.952	-200.000	-0.017	-0.117
-728.937	-200.000	0.001	-0.038
-727.923	477.462	0.091	0.208
-726.908	-94.763	-0.121	0.033
-725.894	-99.458	-0.391	-0.100
-724.879	-89.540	0.060	-0.018
-723.864	16.869	0.068	-0.055
-722.850	26.703	0.124	-0.105
-721.835	-98.017	-0.036	-0.009
-720.821	-200.000	-0.018	-0.228
-719.806	112.348	0.222	0.271
-718.791	32.466	-0.170	0.149
-717.777	437.876	-0.026	0.057
-716.762	-200.000	-0.014	0.104
-715.748	57.060	0.117	0.116
-714.733	31.167	0.152	0.132
-713.718	246.887	0.156	-0.266
-712.704	-177.564	0.292	0.007
-711.689	-104.492	0.189	0.044
-710.675	28.679	-0.065	-0.056
-709.660	163.692	-0.120	-0.171
-708.645	112.629	-0.107	0.131
-707.631	206.023	0.154	-0.243
-706.616	141.859	-0.249	-0.334
-705.602	55.241	0.056	-0.055
-704.587	-72.166	0.372	0.140
-703.572	53.065	-0.038	0.037
-702.558	146.299	0.147	-0.199
-701.543	-200.000	-0.071	0.377
-700.529	-200.000	-0.013	-0.288
-699.514	800.000	0.144	-0.463
-698.499	-11.392	-0.215	-0.143
-697.485	-174.433	-0.105	0.003
-696.470	800.000	-0.006	0.024
-695.456	-59.872	-0.076	-0.033
-694.441	584.598	0.071	-0.177
-693.426	133.973	0.158	-0.207
-692.412	-200.000	-0.000	-0.109
-691.397	-8.905	0.344	-0.233
-690.383	-200.000	0.011	0.186
-689.368	-48.817	0.133	-0.065
-688.354	758.447	0.177	-0.486
-687.339	486.096	-0.062	0.143
-686.324	-130.440	0.108	0.015
-685.310	-88.962	0.355	0.106
-684.295	651.251	0.016	0.041
-683.281	-29.593	0.069	-0.040
-682.266	93.729	-0.222	0.255
-681.251	-200.000	0.008	-0.218
-680.237	-40.460	-0.112	0.059
-679.222	800.000	-0.028	-0.120
-678.208	-33.176	-0.236	-0.132
-677.193	-129.611	-0.093	0.013
-676.178	-200.000	-0.016	-0.150
-675.164	-200.000	-0.026	-0.244
-674.149	-200.000	0.007	-0.202
-673.135	147.340	-0.116	0.157
-672.120	151.139	0.243	-0.335
-671.105	800.000	0.111	0.326
-670.091	101.173	0.068	0.080
-669.076	43.988	-0.123	-0.114
-668.062	593.656	-0.064	0.161
-667.047	-175.581	0.344	0.009
-666.032	-13.878	0.115	-0.075
-665.018	-200.000	0.041	0.241
-664.003	80.006	-0.155	0.169
-662.989	800.000	-0.075	0.212
-661.974	116.919	0.296	-0.367
-660.959	188.249	0.204	-0.308
-659.945	800.000	-0.064	-0.235
-658.930	373.989	-0.122	-0.252
-657.916	-11.871	0.326	-0.216
-656.901	800.000	0.055	-0.182
-655.886	49.508	-0.307	-0.292
-654.872	-200.000	-0.014	-0.228
-653.857	-6.679	0.196	0.135
-652.843	-200.000	0.004	0.221
-651.828	-200.000	0.037	-0.365
-650.814	245.528	0.111	0.188
-649.799	800.000	-0.062	-0.206
-648.784	-28.355	0.158	-0.092
-647.770	-166.642	-0.225	0.009
-646.755	49.830	0.288	-0.274
-645.741	800.000	0.043	-0.161
-644.726	404.973	-0.109	0.232
-643.711	-200.000	0.006	0.094
-642.697	-200.000	0.005	-0.308
-641.682	-73.614	0.170	0.062
-640.668	723.542	-0.015	-0.040
-639.653	42.912	0.191	0.175
-638.638	-200.000	-0.004	-0.061
-637.624	-200.000	-0.082	0.369
-636.609	-5.304	0.168	-0.116
-635.595	-174.149	-0.164	0.005
-634.580	71.960	0.068	-0.071
-633.565	60.191	0.113	-0.113
-632.551	-56.469	-0.330	0.148
-631.536	-19.043	0.167	0.105
-630.522	-5.552	-0.335	0.232
-629.507	-113.107	-0.047	0.009
-628.492	-111.917	0.064	0.013
-627.478	-73.028	-0.366	0.136
-626.463	-200.000	0.075	0.333
-625.449	-163.425	0.292	-0.014
-624.434	-187.918	-0.119	-0.002
-623.419	-200.000	0.038	-0.210
-622.405	8.320	-0.176	0.134
-621.390	-41.330	-0.220	-0.114
-620.376	-21.276	-0.188	0.116
-619.361	183.220	0.057	0.086
-618.346	-16.228	-0.041	0.026
-617.332	-171.506	0.223	-0.007
-616.317	-68.967	-0.222	-0.086
-615.303	-163.066	-0.148	0.007
-614.288	-25.541	0.261	-0.155
-613.273	-87.345	0.305	-0.093
-612.259	-55.332	-0.337	-0.153
-611.244	322.174	0.036	0.069
-610.230	-3.647	-0.280	-0.196
-609.215	6.397	-0.198	-0.148
-608.201	-127.600	-0.314	0.046
-607.186	-161.348	-0.380	0.020
-606.171	-186.506	-0.191	-0.003
-605.157	-200.000	-0.000	-0.190
-604.142	-26.691	-0.161	-0.095
-603.128	-64.139	0.189	-0.078
-602.113	595.957	0.130	0.325
-601.098	-200.000	-0.001	-0.034
-600.084	-115.473	-0.061	0.012
-599.069	-103.637	0.411	0.097
-598.055	580.964	-0.089	0.219
-597.040	-19.133	0.376	-0.236
-596.025	-46.669	0.445	-0.220
-595.011	-200.000	0.011	-0.133
-593.996	67.475	0.257	0.265
-592.982	-200.000	0.021	0.112
-591.967	34.977	-0.055	0.049
-590.952	-83.024	0.289	-0.094
-589.938	-200.000	0.005	0.131
-588.923	-30.342	-0.288	0.164
-587.909	-61.550	-0.264	0.112
-586.894	800.000	0.117	-0.403
-585.879	800.000	0.125	0.452
-584.865	-110.513	0.466	0.097
-583.850	492.180	0.053	0.123
-582.836	96.328	0.170	0.196
-581.821	477.436	-0.195	0.443
-580.806	-94.794	-0.099	0.027
-579.792	-117.785	0.291	0.053
-578.777	436.838	0.149	-0.327
-577.763	127.167	-0.049	-0.063
-576.748	-67.529	-0.370	-0.146
-575.733	-17.518	0.213	-0.135
-574.719	113.626	-0.152	-0.186
-573.704	257.337	-0.256	-0.443
-572.690	-111.249	-0.128	-0.026
-571.675	84.338	-0.097	-0.107
-570.661	603.195	-0.142	-0.357
-569.646	-170.902	-0.071	-0.002
-568.631	-101.490	-0.296	0.073
-567.617	-200.000	0.039	0.184
-566.602	-189.971	0.098	-0.001
-565.588	109.045	0.068	0.081
-564.573	118.470	-0.208	0.259
-563.558	-31.406	-0.187	0.106
-562.544	20.703	-0.245	-0.200
-561.529	435.287	-0.089	-0.195
-560.515	-200.000	0.021	-0.302
-559.500	74.446	-0.059	0.062
-558.485	127.967	0.138	0.176
-557.471	-183.025	0.277	0.005
-556.456	240.021	0.064	-0.108
-555.442	800.000	-0.094	-0.337
-554.427	-200.000	0.001	0.004
-553.412	-137.154	0.059	0.007
-552.398	-23.374	-0.123	0.075
-551.383	511.010	0.197	-0.462
-550.369	-115.817	-0.101	0.019
-549.354	-8.072	0.037	-0.025
-548.339	-200.000	-0.003	-0.065
-547.325	-200.000	-0.010	-0.075
-546.310	-200.000	-0.002	0.039
-545.296	-200.000	0.031	-0.357
-544.281	-56.175	0.322	-0.144
-543.266	800.000	0.095	-0.274
-542.252	-45.523	-0.165	0.082
-541.237	257.254	-0.167	0.289
-540.223	-200.000	0.012	0.081
-539.208	214.293	0.092	-0.147
-538.193	-63.265	0.305	0.126
-537.179	161.938	0.243	0.342
-536.164	-56.803	-0.125	-0.055
-535.150	-200.000	-0.065	-0.434
-534.135	-112.229	0.314	-0.063
-533.121	-200.000	0.066	0.330
-532.106	-200.000	0.053	0.379
-531.091	-200.000	0.084	0.395
-530.077	200.517	-0.069	0.106
-529.062	25.427	0.062	0.052
-528.048	-70.805	0.521	0.197
-527.033	-200.000	0.000	-0.336
-526.018	800.000	-0.099	-0.384
-525.004	-26.726	0.182	0.107
-523.989	7.682	0.287	0.216
-522.975	449.712	-0.038	-0.084
-521.960	-31.782	-0.049	-0.028
-520.945	364.790	0.016	-0.033
-519.931	-134.685	-0.211	0.026
-518.916	-156.840	0.316	-0.020
-517.902	-200.000	0.026	0.117
-516.887	-172.011	-0.116	0.004
-515.872	-42.775	0.222	0.113
-514.858	-64.254	0.088	-0.036
-513.843	61.959	0.065	-0.066
-512.829	-200.000	-0.036	0.189
-511.814	102.497	-0.079	0.092
-510.799	-152.953	0.355	0.025
-509.785	37.562	-0.087	-0.077
-508.770	-135.138	0.206	0.025
-507.756	800.000	0.086	-0.364
-506.741	15.289	0.122	-0.096
-505.726	-82.001	-0.275	-0.090
-504.712	-16.209	0.355	0.227
-503.697	-62.400	0.102	0.043
-502.683	-200.000	0.001	-0.071
-501.668	800.000	-0.152	-0.433
-500.653	-200.000	0.001	-0.135
-499.639	-200.000	-0.043	0.282
-498.624	216.610	0.039	-0.062
-497.610	-84.876	0.248	0.078
-496.595	67.713	0.091	-0.094
-495.581	491.894	-0.107	0.246
-494.566	-200.000	0.024	-0.187
-493.551	-39.653	-0.203	0.106
-492.537	800.000	0.089	-0.341
-491.522	800.000	0.061	-0.171
-490.508	-75.491	0.238	0.085
-489.493	69.117	0.148	0.152
-488.478	-200.000	-0.051	0.235
-487.464	23.604	-0.177	0.146
-486.449	-161.723	0.033	0.002
-485.435	322.000	-0.104	-0.198
-484.420	205.937	-0.156	-0.243
-483.405	800.000	0.052	-0.169
-482.391	485.214	0.036	-0.083
-481.376	-107.924	0.185	-0.040
-480.362	171.252	-0.175	0.252
-479.347	187.554	-0.033	0.050
-478.332	175.757	0.117	-0.171
-477.318	39.802	0.227	0.204
-476.303	-85.405	0.312	0.098
-475.289	-141.453	-0.064	-0.006
-474.274	-200.000	0.032	0.357
-473.259	98.257	-0.041	0.047
-472.245	223.372	0.094	0.152
-471.230	-200.000	0.079	0.498
-470.216	-200.000	-0.004	0.247
-469.201	-200.000	-0.051	0.244
-468.186	221.190	-0.205	0.330
-467.172	228.967	0.121	0.197
-466.157	22.807	-0.271	-0.223
-465.143	92.667	0.131	0.149
-464.128	-74.470	-0.249	-0.090
-463.113	-178.809	0.153	0.003
-462.099	-59.708	0.474	0.204
-461.084	729.561	-0.041	-0.111
-460.070	-171.791	-0.332	-0.011
-459.055	-81.251	-0.133	0.044
-458.040	-30.470	0.118	0.067
-457.026	-75.150	0.197	0.071
-456.011	-168.381	-0.352	-0.014
-454.997	-76.198	0.168	0.059
-453.982	104.934	0.095	0.113
-452.968	800.000	-0.080	-0.247
-451.953	-24.322	0.277	-0.165
-450.938	74.312	0.080	-0.084
-449.924	88.969	-0.167	-0.186
-448.909	-200.000	0.030	-0.133
-447.895	-115.101	0.084	-0.016
-446.880	-107.233	-0.103	-0.023
-445.865	800.000	-0.007	-0.027
-444.851	-112.972	-0.225	-0.045
-443.836	-87.900	-0.272	-0.082
-442.822	-200.000	0.016	0.282
-441.807	6.302	0.105	0.078
-440.792	46.176	0.091	0.085
-439.778	-92.672	-0.279	0.078
-438.763	-57.187	-0.086	0.038
-437.749	-22.954	-0.082	0.050
-436.734	-73.074	0.118	-0.043
-435.719	153.382	0.270	0.371
-434.705	-56.147	0.181	-0.081
-433.690	-12.604	-0.202	-0.132
-432.676	424.104	0.111	-0.238
-431.661	141.806	0.147	-0.196
-430.646	800.000	-0.017	0.066
-429.632	800.000	0.044	-0.130
-428.617	-200.000	0.015	0.098
-427.603	-95.151	-0.112	0.030
-426.588	154.966	0.126	0.173
-425.573	14.086	0.034	0.027
-424.559	549.916	0.034	-0.082
-423.544	189.856	0.016	0.024
-422.530	321.637	0.075	-0.143
-421.515	389.412	-0.085	-0.177
-420.500	-147.263	-0.207	0.018
-419.486	800.000	-0.039	-0.129
-418.471	170.979	-0.165	0.237
-417.457	275.014	0.128	0.226
-416.442	28.003	0.077	0.065
-415.428	-200.000	-0.029	0.284
-414.413	-200.000	0.030	-0.135
-413.398	800.000	0.071	-0.228
-412.384	164.023	0.179	0.252
-411.369	11.929	-0.159	0.122
-410.355	800.000	0.055	-0.207
-409.340	558.381	-0.061	0.148
-408.325	273.329	-0.082	-0.146
-407.311	800.000	-0.014	-0.052
-406.296	132.615	-0.049	0.064
-405.282	-97.906	-0.240	-0.062
-404.267	36.647	-0.315	0.278
-403.252	-12.101	0.434	0.284
-402.238	-11.592	-0.126	0.083
-401.223	-99.865	0.228	-0.057
-400.209	-13.675	-0.379	0.245
-399.194	-63.324	0.165	0.068
-398.179	326.489	-0.175	0.335
-397.165	51.948	-0.376	0.358
-396.150	800.000	-0.062	0.232
-395.136	258.014	-0.102	-0.176
-394.121	602.561	-0.089	-0.220
-393.106	-42.768	0.209	-0.106
-392.092	-123.066	-0.040	0.006
-391.077	69.184	0.126	0.130
-390.063	232.742	0.198	0.325
-389.048	164.342	0.120	0.170
-388.033	-44.404	-0.147	0.073
-387.019	71.152	-0.045	0.046
-386.004	81.366	-0.008	0.009
-384.990	-59.235	0.139	-0.060
-383.975	-78.526	0.331	0.113
-382.960	800.000	0.076	0.281
-381.946	-30.455	-0.279	0.158
-380.931	195.267	-0.133	0.202
-379.917	645.496	0.050	-0.127
-378.902	-200.000	-0.044	0.381
-377.888	-146.394	-0.412	0.036
-376.873	800.000	0.035	0.121
-375.858	800.000	0.068	-0.203
-374.844	-150.565	-0.020	-0.002
-373.829	-161.269	-0.368	0.019
-372.815	-123.347	0.163	0.026
-371.800	172.449	0.150	-0.216
-370.785	-102.201	0.165	-0.040
-369.771	-200.000	-0.031	-0.162
-368.756	83.955	-0.154	0.168
-367.742	-70.439	0.027	-0.010
-366.727	800.000	0.064	-0.182
-365.712	-103.813	-0.489	0.114
-364.698	-181.584	0.019	0.000
-363.683	-194.107	-0.371	0.003
-362.669	50.183	-0.094	-0.089
-361.654	215.883	-0.157	-0.249
-360.639	-140.949	0.177	0.018
-359.625	30.212	0.255	-0.217
-358.610	660.775	0.054	-0.139
-357.596	139.357	0.064	0.084
-356.581	153.102	0.208	0.284
-355.566	274.178	-0.165	-0.291
-354.552	800.000	0.095	-0.275
-353.537	-158.312	0.111	-0.006
-352.523	40.266	-0.293	-0.263
-351.508	96.825	0.080	-0.091
-350.493	56.410	0.115	-0.112
-349.479	781.371	-0.064	0.175
-348.464	800.000	-0.083	-0.279
-347.450	-144.625	0.073	-0.007
-346.435	-69.453	0.194	-0.074
-345.420	-106.481	0.144	-0.032
-344.406	-131.480	-0.234	0.031
-343.391	-15.973	-0.156	-0.099
-342.377	-200.000	0.020	-0.303
-341.362	29.255	0.223	0.189
-340.348	-66.893	-0.207	0.082
-339.333	-55.180	-0.213	0.095
-338.318	-97.578	0.321	-0.083
-337.304	228.298	-0.072	-0.116
-336.289	149.411	0.257	-0.347
-335.275	231.571	0.282	0.461
-334.260	-11.174	0.172	-0.113
-333.245	-200.000	0.026	-0.282
-332.231	-200.000	0.006	0.178
-331.216	-200.000	-0.025	0.176
-330.202	74.285	0.078	-0.081
-329.187	72.171	-0.056	0.058
-328.172	14.881	0.230	-0.180
-327.158	-156.093	-0.187	0.012
-326.143	-200.000	-0.027	0.196
-325.129	-10.154	0.161	-0.107
-324.114	-103.924	0.182	-0.042
-323.099	232.881	-0.055	0.090
-322.085	-41.982	0.045	-0.023
-321.070	379.645	0.016	-0.033
-320.056	-33.678	0.115	-0.063
-319.041	-126.833	-0.337	0.049
-318.026	15.663	0.078	0.061
-317.012	220.564	0.099	-0.157
-315.997	625.356	-0.116	0.292
-314.983	125.593	0.197	-0.248
-313.968	69.993	-0.130	0.134
-312.953	233.224	0.166	0.272
-311.939	-200.000	0.001	-0.410
-310.924	210.287	-0.128	-0.200
-309.910	-49.000	0.220	0.105
-308.895	-200.000	0.005	0.049
-307.880	-200.000	0.020	-0.125
-306.866	800.000	-0.069	0.230
-305.851	-21.176	0.067	-0.041
-304.837	-200.000	0.091	-0.514
-303.822	-110.570	0.333	-0.069
-302.807	-94.956	-0.091	-0.024
-301.793	-200.000	-0.098	-0.570
-300.778	-92.191	-0.257	-0.072
-299.764	30.258	0.086	0.074
-298.749	800.000	0.101	-0.433
-297.735	-108.477	-0.341	-0.073
-296.720	-200.000	-0.049	-0.232
-295.705	-194.940	0.145	0.001
-294.691	-51.545	-0.318	-0.148
-293.676	76.479	0.187	-0.197
-292.662	-191.313	-0.124	-0.001
-291.647	470.284	-0.031	0.069
-290.632	-101.789	-0.188	0.045
-289.618	800.000	-0.045	-0.152
-288.603	-200.000	-0.017	-0.244
-287.589	800.000	0.023	0.091
-286.574	707.311	-0.061	0.161
-285.559	-200.000	-0.020	-0.179
-284.545	-6.267	0.152	0.103
-283.530	800.000	0.021	0.072
-282.516	-200.000	0.037	0.244
-281.501	-29.558	-0.284	0.161
-280.486	127.415	0.104	0.131
-279.472	3.682	0.009	-0.006
-278.457	-74.375	-0.267	0.096
-277.443	39.850	0.277	0.248
-276.428	154.552	-0.130	-0.177
-275.413	-200.000	0.015	0.098
-274.399	-47.938	0.185	0.089
-273.384	44.396	-0.172	0.157
-272.370	63.418	-0.054	-0.054
-271.355	-87.418	0.228	0.069
-270.340	296.746	0.033	0.061
-269.326	12.005	0.092	0.070
-268.311	187.962	-0.099	0.147
-267.297	-59.837	-0.250	0.107
-266.282	-76.429	-0.085	0.030
-265.267	-119.942	-0.363	-0.062
-264.253	-154.231	0.178	-0.012
-263.238	-144.995	-0.241	0.022
-262.224	18.659	-0.275	-0.219
-261.209	-52.962	0.131	-0.060
-260.195	800.000	0.019	0.074
-259.180	-6.941	0.264	-0.178
-258.165	800.000	-0.066	-0.183
-257.151	-148.861	-0.075	0.006
-256.136	-75.596	0.009	-0.003
-255.122	91.113	-0.191	0.213
-254.107	80.796	-0.285	-0.306
-253.092	-109.676	-0.345	0.072
-252.078	-126.101	-0.337	-0.050
-251.063	588.267	-0.046	-0.112
-250.049	800.000	0.100	0.350
-249.034	-200.000	-0.039	0.326
-248.019	515.739	-0.157	-0.364
-247.005	-200.000	-0.012	0.190
-245.990	-28.052	-0.256	-0.147
-244.976	-156.210	0.473	0.030
-243.961	95.816	-0.153	0.174
-242.946	-117.685	0.170	-0.030
-241.932	27.125	-0.117	0.098
-240.917	-139.958	-0.271	0.028
-239.903	800.000	-0.125	-0.369
-238.888	-127.949	0.042	0.006
-237.873	156.523	0.056	0.077
-236.859	-140.811	-0.221	0.023
-235.844	-200.000	0.103	0.488
-234.830	-200.000	0.019	0.205
-233.815	176.296	0.106	-0.153
-232.800	-200.000	0.020	0.153
-231.786	-116.080	0.211	-0.039
-230.771	-66.606	-0.125	-0.049
-229.757	160.068	0.069	0.096
-228.742	-200.000	-0.043	0.252
-227.727	-75.776	0.199	-0.070
-226.713	-200.000	-0.013	0.101
-225.698	321.220	-0.060	-0.113
-224.684	30.448	-0.167	-0.142
-223.669	-62.361	-0.192	0.079
-222.655	-13.322	-0.315	0.203
-221.640	547.342	-0.054	-0.128
-220.625	-81.369	0.271	0.089
-219.611	800.000	-0.024	-0.069
-218.596	220.910	-0.079	0.125
-217.582	96.918	0.134	0.152
-216.567	-43.541	-0.216	-0.108
-215.552	139.867	-0.070	-0.091
-214.538	800.000	0.036	0.106
-213.523	-125.456	0.075	-0.011
-212.509	800.000	-0.064	-0.221
-211.494	-200.000	0.024	0.242
-210.479	-200.000	-0.075	-0.354
-209.465	-138.973	-0.050	0.005
-208.450	-53.977	-0.292	-0.132
-207.436	-159.766	0.378	-0.021
-206.421	325.297	0.123	0.234
-205.406	-113.509	0.237	-0.046
-204.392	-74.754	-0.140	0.050
-203.377	338.883	0.047	-0.091
-202.363	-55.543	-0.207	0.092
-201.348	800.000	0.070	-0.204
-200.333	-51.100	0.145	-0.067
-199.319	13.902	0.155	0.120
-198.304	9.875	-0.151	-0.114
-197.290	-200.000	0.039	0.250
-196.275	13.783	0.167	0.129
-195.260	155.386	-0.090	-0.123
-194.246	-200.000	0.037	-0.166
-193.231	-131.031	0.091	0.012
-192.217	-30.152	0.401	0.226
-191.202	356.132	0.050	0.099
-190.187	459.737	-0.095	-0.210
-189.173	-75.442	0.490	0.173
-188.158	-25.745	-0.239	0.140
-187.144	800.000	0.091	0.279
-186.129	800.000	0.072	0.302
-185.114	318.856	-0.061	0.115
-184.100	-98.282	-0.070	0.018
-183.085	800.000	0.111	-0.419
-182.071	800.000	0.043	-0.162
-181.056	-186.279	0.242	-0.003
-180.042	31.232	-0.221	-0.188
-179.027	-200.000	0.002	0.106
-178.012	-65.650	-0.413	0.164
-176.998	42.622	-0.310	0.280
-175.983	51.912	-0.193	-0.182
-174.969	-40.096	-0.178	-0.092
-173.954	329.264	0.077	-0.146
-172.939	169.377	-0.086	-0.122
-171.925	631.280	-0.100	-0.251
-170.910	-72.134	0.048	0.018
-169.896	-125.659	-0.251	-0.038
-168.881	-163.098	0.501	-0.024
-167.866	-200.000	-0.120	-0.602
-166.852	37.218	-0.262	0.230
-165.837	-200.000	-0.002	0.075
-164.823	93.330	0.366	-0.410
-163.808	800.000	-0.050	-0.210
-162.793	409.207	-0.097	-0.204
-161.779	100.837	0.066	-0.076
-160.764	68.128	-0.253	0.256
-159.750	-3.681	-0.167	0.115
-158.735	117.337	0.200	-0.244
-157.720	81.352	0.180	-0.193
-156.706	48.818	0.161	0.149
-155.691	188.687	-0.144	-0.214
-154.677	12.105	0.096	0.073
-153.662	504.473	-0.108	0.247
-152.647	357.952	0.086	0.170
-151.633	86.856	0.209	-0.229
-150.618	-53.178	0.406	0.185
-149.604	71.466	0.168	-0.173
-148.589	693.097	0.096	0.250
-147.574	-46.100	-0.021	-0.010
-146.560	-200.000	-0.024	0.336
-145.545	-189.741	-0.111	0.001
-144.531	-27.707	0.317	0.182
-143.516	102.598	-0.034	0.039
-142.502	334.431	-0.089	0.170
-141.487	800.000	-0.038	0.162
-140.472	373.952	0.176	0.354
-139.458	-96.021	-0.029	0.008
-138.443	-42.885	-0.049	-0.025
-137.429	-88.025	0.177	0.053
-136.414	126.128	-0.189	0.237
-135.399	160.905	0.093	-0.128
-134.385	53.066	0.106	-0.100
-133.370	53.641	-0.080	-0.076
-132.356	93.968	-0.083	0.093
-131.341	-200.000	0.013	-0.270
-130.326	420.903	-0.116	0.247
-129.312	-10.576	0.106	0.069
-128.297	-8.093	0.146	-0.097
-127.283	270.583	0.095	0.165
-126.268	-188.925	0.179	-0.002
-125.253	28.033	0.249	-0.208
-124.239	-200.000	-0.007	0.109
-123.224	441.372	0.111	0.241
-122.210	-112.455	-0.170	0.034
-121.195	124.173	0.059	-0.073
-120.180	60.355	0.130	-0.127
-119.166	-23.962	0.068	0.040
-118.151	52.461	-0.225	0.212
-117.137	241.513	0.110	0.181
-116.122	-200.000	-0.030	0.232
-115.107	173.660	0.158	-0.225
-114.093	-87.326	-0.194	0.058
-113.078	45.528	0.121	-0.111
-112.064	55.212	-0.032	0.031
-111.049	709.684	0.102	0.266
-110.034	59.397	-0.189	-0.184
-109.020	69.041	-0.028	-0.028
-108.005	198.966	0.093	-0.141
-106.991	-200.000	-0.045	0.246
-105.976	-135.924	0.156	0.018
-104.962	110.515	-0.156	0.185
-103.947	-55.648	-0.241	-0.107
-102.932	-127.662	-0.123	0.018
-101.918	-35.968	0.339	-0.181
-100.903	118.952	-0.118	-0.144
-99.889	8.901	-0.192	-0.143
-98.874	-200.000	0.019	0.221
-97.859	313.165	-0.084	-0.157
-96.845	-106.293	-0.263	0.058
-95.830	800.000	0.155	0.493
-94.816	800.000	-0.060	0.212
-93.801	111.452	0.010	0.012
-92.786	-102.177	-0.252	0.060
-91.772	-62.561	0.154	-0.063
-90.757	-200.000	-0.019	-0.149
-89.743	-200.000	-0.030	-0.253
-88.728	107.251	-0.114	-0.134
-87.713	-116.214	0.238	-0.044
-86.699	-120.724	0.313	0.052
-85.684	800.000	-0.072	0.199
-84.670	123.212	-0.120	0.148
-83.655	187.178	0.144	0.212
-82.640	14.704	0.370	0.286
-81.626	-7.189	-0.095	-0.063
-80.611	-46.632	0.137	0.067
-79.597	-52.034	-0.238	0.109
-78.582	-158.949	0.250	0.014
-77.567	109.787	0.158	0.187
-76.553	53.863	0.070	-0.066
-75.538	-200.000	-0.043	-0.207
-74.524	800.000	0.085	-0.334
-73.509	-200.000	-0.041	-0.219
-72.494	-69.036	-0.154	-0.059
-71.480	117.661	0.182	0.222
-70.465	528.232	0.013	-0.030
-69.451	-115.018	0.138	-0.026
-68.436	124.331	0.136	0.169
-67.422	122.239	-0.021	0.025
-66.407	-141.420	0.333	0.033
-65.392	-50.546	0.138	-0.064
-64.378	-111.857	-0.230	0.046
-63.363	-18.752	-0.285	-0.175
-62.349	-30.865	-0.072	0.040
-61.334	92.704	-0.855	-0.953
-60.319	-101.554	0.671	0.161
-59.305	800.000	-0.229	-0.863
-58.290	444.650	0.455	0.986
-57.276	424.264	0.779	1.653
-56.261	-200.000	96.721	555.097
-55.246	484.430	1441.419	3237.265
-54.232	142.051	2672.025	3496.532
-53.217	109.699	2229.700	2637.337
-52.203	45.332	1664.409	1514.945
-51.188	37.117	1394.315	1217.769
-50.173	33.811	1351.323	1160.021
-49.159	55.378	1399.663	1335.985
-48.144	58.282	1417.493	1370.971
-47.130	37.428	1372.489	1200.437
-46.115	33.857	1354.992	1163.267
-45.100	33.764	1349.812	1158.208
-44.086	33.599	1347.493	1155.165
-43.071	33.575	1345.214	1153.020
-42.057	33.504	1343.123	1150.751
-41.042	33.599	1341.830	1150.176
-40.027	33.666	1340.129	1149.077
-39.013	33.655	1338.313	1147.405
-37.998	33.645	1336.448	1145.701
-36.984	33.694	1334.668	1144.426
-35.969	33.688	1332.764	1142.713
-34.954	33.711	1331.058	1141.340
-33.940	33.796	1329.382	1140.367
-32.925	33.774	1328.336	1139.294
-31.911	33.700	1327.004	1137.666
-30.896	33.826	1324.860	1136.538
-29.881	33.743	1324.094	1135.336
-28.867	33.850	1322.231	1134.332
-27.852	33.872	1321.128	1133.474
-26.838	33.823	1319.475	1131.716
-25.823	33.707	1318.191	1129.881
-24.809	33.740	1316.879	1128.906
-23.794	33.779	1315.646	1128.037
-22.779	33.732	1314.071	1126.365
-21.765	33.725	1313.018	1125.373
-20.750	33.751	1311.562	1124.239
-19.736	33.732	1309.917	1122.669
-18.721	33.591	1309.302	1121.267
-17.706	33.657	1307.826	1120.346
-16.692	33.642	1306.699	1119.246
-15.677	33.583	1305.806	1118.090
-14.663	33.699	1304.762	1117.837
-13.648	33.591	1303.283	1115.888
-12.633	33.521	1302.621	1114.865
-11.619	33.721	1301.387	1114.941
-10.604	33.749	1300.158	1114.008
-9.590	33.582	1299.359	1112.299
-8.575	33.554	1298.736	1111.556
-7.560	33.587	1297.910	1110.997
-6.546	33.582	1296.929	1110.088
-5.531	33.595	1295.733	1109.094
-4.517	33.501	1295.170	1108.017
-3.502	33.653	1294.043	1107.899
-2.487	33.600	1293.394	1106.992
-1.473	33.690	1289.593	1104.215
-0.458	32.811	1275.125	1086.726
0.556	28.782	1257.455	1048.271
1.571	24.301	1261.667	1025.974
2.586	22.234	1276.112	1025.587
3.600	20.713	1264.313	1007.219
4.615	15.011	1187.706	915.011
5.629	5.897	1108.068	806.900
6.644	1.387	1086.625	768.438
7.659	1.078	1084.346	765.197
8.673	1.065	1082.860	764.016
9.688	1.040	1082.137	763.315
10.702	1.336	1080.114	763.308
11.717	5.954	1086.477	791.043
12.731	13.529	1096.257	836.485
13.746	17.142	1100.504	857.935
14.761	17.615	1100.704	860.406
15.775	16.887	1098.663	855.063
16.790	15.947	1096.710	848.733
17.804	15.141	1095.181	843.418
18.819	14.911	1093.898	841.197
19.834	14.525	1093.012	838.500
20.848	14.278	1092.157	836.528
21.863	14.045	1091.140	834.506
22.877	13.819	1090.227	832.603
23.892	13.782	1089.738	831.966
24.907	13.792	1089.128	831.479
25.921	13.904	1088.120	831.198
26.936	13.944	1087.245	830.653
27.950	13.909	1086.191	829.603
28.965	14.008	1084.911	829.046
29.980	13.972	1083.931	828.043
30.994	14.077	1082.220	827.183
32.009	14.070	1081.333	826.396
33.023	14.108	1080.380	825.784
34.038	14.028	1079.462	824.612
35.053	14.017	1078.858	824.025
36.067	13.953	1078.300	823.209
37.082	14.125	1077.111	823.078
38.096	14.076	1076.361	822.191
39.111	14.056	1075.454	821.325
40.126	13.902	1074.384	819.676
41.140	13.929	1073.285	818.902
42.155	13.892	1072.188	817.809
43.169	13.912	1070.914	816.864
44.184	13.813	1070.271	815.812
45.199	13.770	1068.759	814.378
46.213	13.925	1067.565	814.156
47.228	13.965	1066.479	813.450
48.242	13.906	1065.589	812.412
49.257	13.912	1064.726	811.712
50.271	13.999	1063.724	811.301
51.286	13.976	1062.583	810.244
52.301	14.009	1061.624	809.601
53.315	14.035	1060.682	808.942
54.330	14.014	1059.722	808.033
55.344	13.949	1058.867	806.993
56.359	13.814	1058.390	805.907
57.374	13.841	1057.429	805.231
58.388	13.839	1056.263	804.265
59.403	13.832	1055.309	803.433
60.417	13.835	1054.719	802.925
61.432	13.910	1053.920	802.609
62.447	13.862	1053.062	801.656
63.461	13.775	1052.478	800.716
64.476	13.877	1051.245	800.202
65.490	13.772	1050.354	798.948
66.505	13.726	1049.605	798.084
67.520	13.887	1049.091	798.395
68.534	13.888	1048.352	797.769
69.549	13.874	1047.480	796.968
70.563	13.804	1046.887	796.111
71.578	13.841	1045.942	795.498
72.593	13.800	1045.347	794.779
73.607	13.757	1044.645	793.971
74.622	13.836	1043.994	793.784
75.636	13.816	1043.007	792.868
76.651	13.701	1043.067	792.291
77.666	13.618	1042.369	791.297
78.680	13.707	1041.701	791.144
79.695	13.758	1040.599	790.479
80.709	13.820	1039.713	790.034
81.724	13.855	1039.279	789.798
82.739	13.965	1038.372	789.561
83.753	13.950	1037.311	788.615
84.768	14.035	1036.353	788.218
85.782	13.972	1035.977	787.566
86.797	13.943	1034.610	786.318
87.812	13.877	1033.901	785.400
88.826	13.932	1033.019	784.916
89.841	13.937	1031.885	784.012
90.855	14.059	1030.981	783.831
91.870	14.030	1030.393	783.179
92.884	14.110	1029.196	782.574
93.899	14.077	1028.873	782.102
94.914	14.186	1027.374	781.406
95.928	14.018	1026.778	780.099
96.943	14.020	1026.238	779.624
97.957	14.069	1025.011	778.855
98.972	14.181	1023.842	778.422
99.987	14.074	1023.568	777.643
101.001	14.050	1022.390	776.569
102.016	14.090	1021.491	776.006
103.030	14.076	1020.768	775.319
104.045	13.993	1020.008	774.286
105.060	14.087	1018.682	773.649
106.074	13.893	1018.289	772.382
107.089	14.082	1016.777	772.045
108.103	13.930	1016.183	770.820
109.118	13.980	1015.151	770.201
110.133	13.850	1014.347	768.917
111.147	13.978	1013.577	768.859
112.162	14.014	1012.796	768.365
113.176	14.029	1011.865	767.660
114.191	14.124	1010.828	767.245
115.206	13.983	1010.403	766.202
116.220	14.049	1009.449	765.717
117.235	14.024	1008.614	764.902
118.249	14.055	1007.574	764.187
119.264	13.952	1007.242	763.394
120.279	13.879	1006.492	762.425
121.293	14.032	1005.138	762.032
122.308	14.026	1004.472	761.433
123.322	13.944	1003.673	760.382
124.337	13.901	1002.506	759.235
125.352	13.941	1001.035	758.234
126.366	14.049	1000.066	757.926
127.381	14.041	999.121	757.107
128.395	14.020	998.242	756.282
129.410	14.010	997.103	755.305
130.424	13.950	996.338	754.385
131.439	14.083	995.459	754.256
132.454	14.126	994.735	753.835
133.468	14.110	994.310	753.376
134.483	14.153	992.957	752.478
135.497	14.019	992.512	751.466
136.512	14.095	991.509	750.985
137.527	14.122	990.596	750.350
138.541	14.192	989.687	749.908
139.556	14.149	989.159	749.248
140.570	14.017	988.311	747.947
141.585	14.196	987.472	748.050
142.600	14.304	986.300	747.581
143.614	14.356	985.528	747.165
144.629	14.260	984.655	746.004
145.643	14.219	984.079	745.319
146.658	14.168	982.951	744.172
147.673	14.201	981.782	743.369
148.687	14.067	980.982	742.097
149.702	14.222	980.060	742.026
150.716	14.185	979.488	741.364
151.731	14.154	978.787	740.630
152.746	14.172	978.080	740.106
153.760	14.163	977.369	739.464
154.775	14.139	977.207	739.171
155.789	14.274	976.414	739.105
156.804	14.256	975.649	738.379
157.819	14.241	974.942	737.714
158.833	14.423	973.921	737.682
159.848	14.388	973.186	736.902
160.862	14.360	972.404	736.120
161.877	14.328	971.327	735.102
162.892	14.315	970.666	734.478
163.906	14.336	969.405	733.552
164.921	14.244	968.708	732.554
165.935	14.351	967.461	732.018
166.950	14.362	966.963	731.625
167.964	14.274	966.512	730.834
168.979	14.283	965.180	729.797
169.994	14.346	964.492	729.489
171.008	14.394	963.115	728.593
172.023	14.522	962.665	728.748
173.037	14.395	961.925	727.571
174.052	14.458	960.929	727.027
175.067	14.371	960.397	726.181
176.081	14.452	960.103	726.247
177.096	14.379	959.420	725.350
178.110	14.350	958.772	724.669
179.125	14.429	958.369	724.640
180.140	14.421	957.688	724.028
181.154	14.475	957.120	723.770
182.169	14.510	956.598	723.461
183.183	14.492	956.196	723.018
184.198	14.660	954.978	722.758
185.213	14.686	954.201	722.219
186.227	14.487	954.053	721.184
187.242	14.644	953.356	721.271
188.256	14.831	952.663	721.491
189.271	14.638	951.864	719.988
190.286	14.576	951.286	719.221
191.300	14.588	950.233	718.414
192.315	14.527	949.585	717.597
193.329	14.453	949.444	717.109
194.344	14.543	948.683	716.854
195.359	14.604	947.819	716.403
196.373	14.624	947.399	716.107
197.388	14.631	946.911	715.707
198.402	14.723	946.309	715.580
199.417	14.907	945.375	715.598
200.432	14.726	944.626	714.193
201.446	14.852	944.549	714.612
202.461	14.900	943.956	714.304
203.475	14.942	943.120	713.786
204.490	15.023	942.408	713.531
205.504	14.839	941.895	712.298
206.519	14.875	940.793	711.554
207.534	14.742	940.179	710.462
208.548	14.910	939.488	710.587
209.563	14.901	939.180	710.256
210.577	14.814	938.518	709.324
211.592	15.077	937.353	709.493
212.607	15.025	937.061	708.991
213.621	14.907	936.386	707.918
214.636	14.924	935.432	707.204
215.650	14.965	934.660	706.730
216.665	15.084	933.698	706.444
217.680	15.063	933.457	706.112
218.694	15.008	932.690	705.237
219.709	15.051	932.045	704.866
220.723	15.146	930.867	704.312
221.738	15.070	930.564	703.704
222.753	15.133	929.626	703.196
223.767	15.151	929.407	703.044
224.782	15.307	928.916	703.263
225.796	15.085	928.524	701.976
226.811	15.118	927.836	701.531
227.826	15.235	926.694	701.094
228.840	15.141	925.810	699.971
229.855	15.204	925.294	699.782
230.869	15.281	924.280	699.275
231.884	15.181	923.963	698.556
232.899	15.158	922.945	697.626
233.913	15.114	922.407	696.975
234.928	15.195	921.551	696.604
235.942	15.217	921.182	696.356
236.957	15.332	920.304	696.106
237.972	15.165	920.354	695.389
238.986	15.244	919.296	694.856
240.001	15.344	918.437	694.563
241.015	15.220	917.877	693.564
242.030	15.286	917.126	693.208
243.045	15.306	916.650	692.869
244.059	15.308	916.458	692.670
245.074	15.323	915.814	692.185
246.088	15.423	914.285	691.380
247.103	15.486	913.958	691.329
248.117	15.369	913.891	690.736
249.132	15.403	913.071	690.196
250.147	15.497	912.358	689.982
251.161	15.541	911.720	689.618
252.176	15.562	911.154	689.216
253.190	15.592	910.152	688.519
254.205	15.575	909.918	688.210
255.220	15.723	908.856	687.954
256.234	15.720	908.336	687.486
257.249	15.787	907.260	686.884
258.263	15.670	906.789	685.990
259.278	15.720	905.930	685.486
260.293	15.844	905.213	685.384
261.307	15.810	905.083	685.086
262.322	15.799	904.526	684.562
263.336	15.795	903.637	683.811
264.351	15.825	902.862	683.285
265.366	15.965	902.302	683.368
266.380	15.947	901.241	682.433
267.395	15.803	901.054	681.646
268.409	15.759	900.560	681.037
269.424	15.898	899.376	680.641
270.439	15.858	898.660	679.880
271.453	15.838	898.263	679.438
272.468	15.844	897.275	678.653
273.482	15.999	896.990	679.002
274.497	15.959	896.282	678.247
275.512	15.913	895.921	677.726
276.526	15.967	895.126	677.281
277.541	16.002	894.972	677.249
278.555	15.988	894.551	676.814
279.570	16.150	893.227	676.402
280.585	16.112	892.462	675.608
281.599	16.159	891.753	675.202
282.614	16.140	891.451	674.838
283.628	16.152	890.431	674.052
284.643	16.046	890.235	673.420
285.657	16.076	889.630	673.025
286.672	16.112	889.023	672.650
287.687	16.236	887.611	672.014
288.701	16.227	887.392	671.755
289.716	16.165	886.841	671.031
290.730	16.328	886.310	671.218
291.745	16.295	885.844	670.673
292.760	16.174	885.222	669.663
293.774	16.364	884.332	669.686
294.789	16.381	883.854	669.331
295.803	16.237	883.336	668.310
296.818	16.186	882.835	667.669
297.833	16.285	881.915	667.304
298.847	16.244	881.266	666.594
299.862	16.256	880.734	666.177
300.876	16.374	880.144	666.140
301.891	16.396	879.814	665.917
302.906	16.479	878.832	665.443
303.920	16.426	878.419	664.861
304.935	16.448	877.951	664.533
305.949	16.506	876.809	663.839
306.964	16.550	876.469	663.696
307.979	16.528	875.926	663.138
308.993	16.563	875.549	662.934
310.008	16.586	875.319	662.790
311.022	16.505	874.720	661.961
312.037	16.676	873.663	661.769
313.052	16.575	873.020	660.831
314.066	16.530	872.891	660.498
315.081	16.509	871.998	659.682
316.095	16.675	871.767	660.098
317.110	16.496	870.802	658.612
318.125	16.658	870.050	658.615
319.139	16.674	869.798	658.427
320.154	16.502	869.639	657.581
321.168	16.689	868.647	657.496
322.183	16.813	867.874	657.337
323.197	16.683	867.759	656.685
324.212	16.764	867.255	656.561
325.227	16.686	866.388	655.546
326.241	16.762	865.969	655.464
327.256	16.694	865.249	654.598
328.270	16.709	864.819	654.271
329.285	16.721	864.070	653.692
330.300	16.753	863.758	653.525
331.314	16.856	862.636	653.012
332.329	16.846	862.684	652.953
333.343	16.832	862.072	652.379
334.358	16.865	861.272	651.842
335.373	16.817	861.455	651.739
336.387	16.900	861.197	651.807
337.402	16.937	860.905	651.669
338.416	16.886	860.625	651.203
339.431	16.985	859.954	651.017
340.446	17.021	859.448	650.717
341.460	17.016	859.260	650.494
342.475	17.140	858.874	650.623
343.489	17.112	857.724	649.587
344.504	17.158	857.881	649.822
345.519	17.081	857.015	648.814
346.533	17.165	856.579	648.749
347.548	17.217	855.932	648.398
348.562	17.040	855.842	647.597
349.577	17.184	855.307	647.684
350.592	17.099	854.665	646.818
351.606	17.165	853.639	646.235
352.621	17.145	853.002	645.622
353.635	17.229	852.275	645.333
354.650	17.242	851.478	644.720
355.665	17.167	850.967	643.991
356.679	17.227	850.471	643.788
357.694	17.229	849.730	643.178
358.708	17.217	849.145	642.632
359.723	17.251	848.531	642.238
360.738	17.238	847.726	641.524
361.752	17.311	847.367	641.468
362.767	17.326	847.038	641.221
363.781	17.383	846.309	640.826
364.796	17.390	845.676	640.317
365.810	17.558	845.246	640.568
366.825	17.461	844.905	639.886
367.840	17.414	844.625	639.442
368.854	17.365	844.132	638.828
369.869	17.603	843.238	638.990
370.883	17.445	843.004	638.163
371.898	17.474	842.871	638.113
372.913	17.570	842.504	638.139
373.927	17.581	841.631	637.461
374.942	17.627	841.300	637.325
375.956	17.608	840.841	636.851
376.971	17.487	840.567	636.137
377.986	17.666	840.195	636.465
379.000	17.760	839.322	636.102
380.015	17.742	839.042	635.762
381.029	17.686	838.465	635.061
382.044	17.744	837.831	634.743
383.059	17.648	837.309	633.931
384.073	17.857	836.360	633.935
385.088	17.764	836.170	633.390
386.102	17.740	835.548	632.772
387.117	17.809	834.796	632.404
388.132	17.747	834.293	631.738
389.146	17.742	833.903	631.366
390.161	17.648	833.621	630.748
391.175	17.808	832.736	630.614
392.190	17.970	832.107	630.681
393.205	17.786	831.833	629.739
394.219	17.806	831.806	629.737
395.234	17.905	831.318	629.675
396.248	17.719	830.809	628.549
397.263	17.711	830.278	628.063
398.278	17.760	830.056	628.021
399.292	17.676	829.670	627.365
400.307	17.712	828.924	626.876
401.321	17.825	828.411	626.848
402.336	17.874	827.978	626.645
403.350	18.032	827.483	626.793
404.365	17.951	827.145	626.186
405.380	18.084	826.343	626.010
406.394	18.106	826.060	625.821
407.409	18.156	825.466	625.498
408.423	18.140	825.296	625.257
409.438	18.046	825.005	624.638
410.453	18.257	824.165	624.716
411.467	18.344	823.801	624.703
412.482	18.269	823.252	623.954
413.496	18.255	822.935	623.610
414.511	18.271	822.756	623.479
415.526	18.264	822.290	623.043
416.540	18.448	821.333	622.931
417.555	18.248	821.086	621.963
418.569	18.364	820.457	621.852
419.584	18.409	820.300	621.842
420.599	18.358	819.949	621.335
421.613	106.528	1287.511	1448.536
422.628	92.163	1355.617	1448.629
