DTS Sentinel unit serial number:	SN413079Multiplexer serial number:	ORYXHardware model number:	OX4-SRSoftware version number:	ORYX F/W v4.00 Oryx Data Collector v3.7.2.0data status	okinstallation	princeton_trtdifferential loss correction	single-endedforward channel	channel 1reverse channel	N/Adate	2019/09/12time	05:44:11forward acquisition time	60.00reverse acquisition time	0.00gamma	496.2192k internal	0.2321k external	0.2321temperature offset calibration	1.0052default loss term (dB/km)	0.3790temperature slope calibration	1.0000multiplexer offset coefficient	1.0000multiplexer slope coefficient	1.0000fibre end	0.00T internal ref (°C)	32.00T ext. ref 1 (°C)	1.59T ext. ref 2 (°C)	27.52length (m)	temperature (°C)	Stokes	anti-Stokes-747.200	-86.869	-0.156	0.048
-746.185	113.056	0.078	0.096
-745.171	800.000	-0.054	0.199
-744.156	800.000	0.040	0.161
-743.142	33.617	0.081	0.071
-742.127	49.778	-0.045	0.043
-741.112	184.257	-0.294	0.440
-740.098	-95.436	-0.232	-0.063
-739.083	14.082	0.312	0.246
-738.069	329.015	0.072	0.140
-737.054	-106.789	-0.055	-0.012
-736.039	-3.313	-0.293	-0.206
-735.025	-155.196	0.159	-0.010
-734.010	-23.550	-0.449	-0.272
-732.996	159.775	-0.046	-0.065
-731.981	299.196	-0.113	0.210
-730.966	-162.679	0.286	0.014
-729.952	196.858	0.170	-0.262
-728.937	3.711	0.162	0.119
-727.923	-200.000	0.009	0.144
-726.908	195.843	-0.180	-0.277
-725.894	578.777	0.081	-0.201
-724.879	-75.324	0.295	-0.106
-723.864	210.662	-0.075	-0.120
-722.850	177.608	0.146	0.214
-721.835	-93.253	-0.099	0.028
-720.821	18.449	0.159	0.129
-719.806	-47.826	-0.354	0.173
-718.791	-30.114	-0.029	0.017
-717.777	-155.991	-0.032	0.002
-716.762	-108.590	-0.231	0.050
-715.748	-106.497	0.167	-0.038
-714.733	-200.000	-0.037	0.313
-713.718	8.812	-0.056	-0.042
-712.704	800.000	0.059	0.171
-711.689	268.732	0.153	-0.272
-710.675	-200.000	-0.006	-0.352
-709.660	-97.438	-0.253	0.066
-708.645	36.841	-0.106	-0.094
-707.631	-136.224	0.484	0.057
-706.616	800.000	0.060	0.188
-705.602	484.018	0.064	0.147
-704.587	800.000	0.025	-0.070
-703.572	-200.000	-0.002	0.086
-702.558	-200.000	-0.016	-0.125
-701.543	123.935	-0.110	0.140
-700.529	-200.000	-0.002	-0.011
-699.514	667.238	-0.081	-0.211
-698.499	-67.301	0.256	-0.102
-697.485	273.141	-0.069	0.122
-696.470	-121.967	0.342	0.057
-695.456	-160.177	-0.161	-0.009
-694.441	-106.251	0.132	-0.030
-693.426	-33.362	0.390	0.218
-692.412	800.000	-0.036	-0.115
-691.397	22.262	-0.131	-0.108
-690.383	310.154	0.212	-0.399
-689.368	76.642	0.070	0.075
-688.354	128.013	-0.404	0.518
-687.339	226.154	0.228	0.372
-686.324	203.844	-0.131	-0.204
-685.310	-200.000	-0.040	-0.743
-684.295	84.834	-0.223	0.246
-683.281	-23.143	-0.163	-0.099
-682.266	85.224	0.050	0.055
-681.251	82.937	0.145	-0.159
-680.237	536.223	0.232	-0.554
-679.222	178.768	0.271	0.400
-678.208	381.268	-0.052	0.107
-677.193	303.075	-0.090	-0.169
-676.178	60.932	-0.277	0.277
-675.164	-163.807	0.379	0.018
-674.149	-185.826	-0.241	-0.004
-673.135	800.000	-0.019	0.062
-672.120	-94.496	-0.157	-0.043
-671.105	33.197	-0.254	-0.222
-670.091	-200.000	0.006	-0.391
-669.076	800.000	0.069	-0.241
-668.062	-41.631	0.047	0.024
-667.047	-107.972	-0.243	-0.053
-666.032	-91.510	-0.123	-0.035
-665.018	-122.450	0.123	-0.020
-664.003	-37.019	0.183	-0.099
-662.989	-200.000	-0.002	-0.039
-661.974	-200.000	0.002	-0.158
-660.959	-200.000	0.056	-0.477
-659.945	40.407	-0.070	0.063
-658.930	111.147	-0.093	0.113
-657.916	176.096	-0.227	-0.333
-656.901	627.500	-0.057	0.145
-655.886	-90.038	0.104	0.030
-654.872	57.044	-0.098	-0.096
-653.857	39.419	0.251	0.226
-652.843	-103.201	-0.371	0.088
-651.828	800.000	-0.101	-0.309
-650.814	494.031	0.063	-0.145
-649.799	-117.372	0.226	-0.041
-648.784	-200.000	-0.011	-0.093
-647.770	122.762	0.149	-0.188
-646.755	-169.001	-0.392	-0.015
-645.741	800.000	0.057	-0.192
-644.726	-200.000	0.003	-0.133
-643.711	193.647	-0.110	-0.168
-642.697	800.000	-0.013	-0.048
-641.682	-200.000	0.005	-0.096
-640.668	176.708	-0.182	-0.266
-639.653	800.000	0.057	-0.226
-638.638	137.449	-0.136	0.179
-637.624	-69.186	0.125	-0.049
-636.609	-200.000	0.022	-0.202
-635.595	150.114	-0.049	0.067
-634.580	800.000	-0.036	-0.139
-633.565	177.227	0.119	-0.174
-632.551	15.446	0.383	-0.302
-631.536	79.458	-0.023	0.025
-630.522	-117.921	-0.399	-0.072
-629.507	174.412	0.152	-0.221
-628.492	119.282	0.196	-0.244
-627.478	-46.426	0.185	0.091
-626.463	-101.227	-0.091	-0.022
-625.449	52.812	0.110	0.106
-624.434	200.457	-0.037	0.057
-623.419	-13.160	0.118	0.077
-622.405	800.000	0.034	0.116
-621.390	-98.351	0.303	-0.078
-620.376	-200.000	-0.009	-0.171
-619.361	-200.000	0.005	0.233
-618.346	-49.146	-0.046	0.022
-617.332	120.745	-0.205	-0.256
-616.317	219.092	-0.141	0.226
-615.303	161.824	0.109	0.153
-614.288	263.643	0.029	0.051
-613.273	-163.356	0.135	0.006
-612.259	-200.000	0.017	-0.124
-611.244	18.499	-0.100	-0.080
-610.230	316.930	0.135	-0.256
-609.215	-200.000	-0.007	-0.064
-608.201	-154.103	-0.315	0.021
-607.186	43.812	0.109	0.100
-606.171	-156.404	0.226	0.014
-605.157	-200.000	0.009	-0.125
-604.142	93.910	-0.225	0.256
-603.128	800.000	-0.091	0.307
-602.113	126.929	0.306	-0.391
-601.098	-81.709	-0.245	-0.081
-600.084	779.199	-0.033	0.090
-599.069	60.484	0.195	-0.194
-598.055	57.931	0.185	0.182
-597.040	-200.000	-0.021	0.467
-596.025	-66.548	0.219	-0.087
-595.011	-98.327	-0.087	0.022
-593.996	-96.815	0.204	0.054
-592.982	183.234	0.102	-0.151
-591.967	233.550	-0.108	-0.178
-590.952	-200.000	0.007	-0.075
-589.938	-200.000	-0.018	0.471
-588.923	34.721	-0.098	0.086
-587.909	-200.000	0.053	0.247
-586.894	-89.618	-0.029	0.009
-585.879	-91.364	0.121	0.035
-584.865	800.000	-0.088	-0.255
-583.850	-173.022	-0.224	0.007
-582.836	-200.000	0.014	-0.382
-581.821	800.000	-0.007	-0.024
-580.806	-99.172	0.458	0.116
-579.792	-59.143	-0.361	-0.156
-578.777	-200.000	-0.032	0.143
-577.763	800.000	0.058	0.240
-576.748	800.000	-0.096	-0.342
-575.733	-88.566	0.619	-0.185
-574.719	65.859	-0.176	0.179
-573.704	-123.715	-0.038	0.006
-572.690	-37.402	0.124	-0.066
-571.675	-200.000	-0.047	-0.242
-570.661	-18.812	0.186	0.116
-569.646	37.298	0.088	0.078
-568.631	-153.196	-0.208	0.015
-567.617	-67.315	-0.111	0.044
-566.602	710.816	-0.114	0.302
-565.588	800.000	0.026	0.078
-564.573	-52.020	0.191	0.089
-563.558	-200.000	-0.068	0.335
-562.544	-142.581	-0.088	0.009
-561.529	18.562	-0.132	0.106
-560.515	94.138	-0.154	0.176
-559.500	-115.366	0.088	0.017
-558.485	-35.364	0.168	-0.092
-557.471	-200.000	0.017	0.120
-556.456	-79.947	-0.150	-0.051
-555.442	-200.000	0.028	-0.180
-554.427	-45.359	-0.272	-0.135
-553.412	215.672	0.061	0.096
-552.398	-117.587	0.209	-0.038
-551.383	800.000	0.042	0.146
-550.369	-22.459	0.082	-0.050
-549.354	143.421	-0.076	-0.101
-548.339	-163.134	0.284	-0.014
-547.325	-75.479	0.275	-0.098
-546.310	179.064	0.072	0.106
-545.296	526.332	-0.114	-0.269
-544.281	94.104	-0.223	-0.254
-543.266	-200.000	0.017	-0.099
-542.252	36.076	-0.183	0.162
-541.237	-113.239	-0.308	-0.061
-540.223	249.951	-0.050	-0.085
-539.208	-42.175	-0.191	-0.098
-538.193	494.680	-0.172	0.397
-537.179	162.357	0.088	-0.123
-536.164	-200.000	0.002	-0.062
-535.150	174.256	0.181	0.262
-534.135	27.786	0.068	-0.057
-533.121	-200.000	0.018	0.300
-532.106	-35.688	-0.063	0.034
-531.091	249.726	0.201	-0.341
-530.077	800.000	0.026	-0.100
-529.062	308.818	-0.163	0.305
-528.048	800.000	-0.034	0.101
-527.033	41.670	0.080	-0.073
-526.018	381.997	-0.131	0.270
-525.004	-102.897	-0.228	-0.054
-523.989	-47.985	-0.156	0.075
-522.975	-200.000	-0.030	0.256
-521.960	124.534	-0.221	-0.279
-520.945	-200.000	-0.006	-0.120
-519.931	-200.000	0.016	0.236
-518.916	544.873	-0.294	-0.705
-517.902	19.731	-0.269	-0.217
-516.887	-27.732	-0.348	0.202
-515.872	-200.000	0.003	-0.236
-514.858	248.787	-0.057	-0.097
-513.843	-7.371	-0.092	-0.063
-512.829	33.721	0.173	-0.151
-511.814	800.000	0.100	0.330
-510.799	62.232	-0.113	0.113
-509.785	-17.360	0.084	-0.053
-508.770	-200.000	-0.056	-0.289
-507.756	88.797	0.162	-0.181
-506.741	90.051	-0.281	-0.315
-505.726	-59.794	0.040	0.017
-504.712	37.053	-0.256	0.227
-503.697	46.781	-0.193	-0.180
-502.683	-183.849	0.304	0.005
-501.668	800.000	-0.064	-0.179
-500.653	-200.000	-0.042	0.311
-499.639	-29.116	0.116	-0.067
-498.624	-38.939	-0.088	-0.047
-497.610	800.000	0.014	-0.060
-496.595	-120.494	0.193	-0.033
-495.581	-176.098	-0.042	0.001
-494.566	800.000	0.070	0.299
-493.551	-20.132	-0.218	0.134
-492.537	-200.000	-0.036	-0.303
-491.522	-138.787	0.043	0.005
-490.508	15.066	0.227	-0.178
-489.493	500.558	-0.069	-0.160
-488.478	-40.574	-0.291	-0.151
-487.464	7.568	0.276	-0.207
-486.449	79.900	-0.228	0.245
-485.435	-155.778	0.235	-0.015
-484.420	-100.758	-0.077	0.019
-483.405	-63.317	0.069	-0.028
-482.391	88.579	0.095	-0.105
-481.376	-45.720	0.134	0.066
-480.362	-64.832	0.242	-0.098
-479.347	-200.000	-0.019	0.191
-478.332	-17.056	-0.275	0.173
-477.318	61.764	0.316	-0.315
-476.303	-120.810	-0.506	-0.085
-475.289	-52.766	-0.103	0.048
-474.274	33.042	0.174	0.151
-473.259	81.011	0.197	0.213
-472.245	48.549	-0.213	0.200
-471.230	-48.354	0.167	0.081
-470.216	246.500	-0.074	-0.124
-469.201	800.000	0.037	-0.133
-468.186	249.773	0.086	0.147
-467.172	743.508	0.005	0.013
-466.157	514.109	-0.127	-0.296
-465.143	-86.955	-0.401	-0.122
-464.128	-165.547	0.362	-0.016
-463.113	-62.615	-0.156	0.065
-462.099	-184.389	-0.043	0.001
-461.084	-129.696	-0.041	-0.006
-460.070	115.967	-0.195	-0.238
-459.055	535.416	0.131	-0.311
-458.040	-200.000	-0.062	-0.287
-457.026	676.122	-0.131	-0.339
-456.011	-29.287	0.100	-0.057
-454.997	-99.930	-0.201	0.050
-453.982	236.777	0.147	0.243
-452.968	63.648	0.118	0.118
-451.953	-200.000	0.014	0.249
-450.938	234.105	-0.100	-0.165
-449.924	26.336	-0.225	0.188
-448.909	161.909	-0.034	0.048
-447.895	-17.889	-0.355	0.222
-446.880	579.468	0.029	0.071
-445.865	-119.600	-0.261	-0.045
-444.851	3.208	0.117	-0.085
-443.836	-200.000	0.039	-0.193
-442.822	132.709	-0.099	-0.128
-441.807	154.311	0.059	0.081
-440.792	-121.843	0.155	-0.026
-439.778	3.606	0.257	0.187
-438.763	-97.111	-0.102	-0.027
-437.749	134.099	-0.082	0.106
-436.734	-200.000	-0.026	-0.271
-435.719	28.974	0.145	0.123
-434.705	-186.741	-0.365	-0.005
-433.690	-79.804	0.417	-0.140
-432.676	53.706	0.073	0.070
-431.661	289.673	0.103	-0.186
-430.646	87.699	-0.117	0.129
-429.632	-200.000	0.011	0.442
-428.617	81.816	-0.228	0.246
-427.603	-169.718	-0.463	0.017
-426.588	-81.221	-0.223	0.074
-425.573	15.192	0.029	0.023
-424.559	-200.000	-0.002	0.275
-423.544	41.874	-0.087	-0.079
-422.530	-33.873	-0.146	0.080
-421.515	-200.000	0.015	0.288
-420.500	-200.000	-0.006	-0.232
-419.486	112.537	-0.142	0.172
-418.471	186.724	0.051	0.076
-417.457	562.479	-0.128	-0.308
-416.442	-48.859	0.158	0.076
-415.428	495.411	0.109	0.250
-414.413	234.045	0.196	0.322
-413.398	800.000	-0.080	0.267
-412.384	22.452	-0.286	0.233
-411.369	625.462	0.032	-0.081
-410.355	-73.571	-0.204	0.074
-409.340	105.480	0.047	0.056
-408.325	-30.151	0.178	0.101
-407.311	800.000	-0.081	-0.251
-406.296	-200.000	-0.019	-0.289
-405.282	-178.729	0.073	-0.002
-404.267	1.348	-0.055	0.040
-403.252	-96.811	-0.178	-0.047
-402.238	-56.166	0.264	0.117
-401.223	-94.035	0.371	0.101
-400.209	-200.000	0.006	-0.049
-399.194	-102.687	0.246	0.059
-398.179	18.874	0.140	0.111
-397.165	43.761	0.087	0.079
-396.150	338.545	-0.106	0.205
-395.136	209.305	0.141	0.220
-394.121	-200.000	0.013	-0.339
-393.106	787.027	-0.019	-0.051
-392.092	31.468	-0.079	0.068
-391.077	31.422	-0.090	-0.077
-390.063	552.277	0.164	0.394
-389.048	-78.159	-0.256	0.088
-388.033	-200.000	-0.016	-0.284
-387.019	26.261	0.186	0.155
-386.004	-90.141	-0.095	-0.028
-384.990	17.359	-0.251	-0.199
-383.975	800.000	0.084	0.276
-382.960	-200.000	0.011	-0.195
-381.946	54.981	-0.046	-0.045
-380.931	-62.369	-0.318	-0.132
-379.917	24.423	-0.173	0.143
-378.902	720.012	0.074	-0.195
-377.888	-200.000	-0.015	-0.183
-376.873	-128.335	0.236	0.033
-375.858	800.000	0.027	0.104
-374.844	800.000	0.010	0.044
-373.829	100.552	0.135	-0.156
-372.815	-50.791	0.225	-0.106
-371.800	-200.000	0.042	-0.198
-370.785	29.746	0.173	-0.146
-369.771	83.296	0.127	0.138
-368.756	-104.161	0.060	-0.014
-367.742	407.781	-0.093	0.195
-366.727	-200.000	0.019	-0.322
-365.712	-109.225	-0.280	-0.059
-364.698	-85.365	0.217	0.067
-363.683	-121.858	0.201	-0.033
-362.669	-200.000	0.000	0.062
-361.654	-157.760	0.127	0.007
-360.639	72.595	-0.093	-0.096
-359.625	-158.006	0.173	-0.010
-358.610	-200.000	-0.029	0.466
-357.596	-75.814	0.189	0.067
-356.581	-16.821	0.141	-0.089
-355.566	-106.186	-0.227	0.051
-354.552	440.429	-0.161	-0.350
-353.537	37.443	0.128	-0.113
-352.523	-193.611	0.187	0.002
-351.508	449.226	-0.129	-0.283
-350.493	232.937	0.131	-0.215
-349.479	1.533	-0.126	-0.090
-348.464	351.800	0.095	-0.188
-347.450	-106.269	0.164	0.037
-346.435	-200.000	-0.030	0.142
-345.420	609.714	0.067	-0.167
-344.406	-43.412	-0.270	-0.136
-343.391	-0.119	0.153	-0.109
-342.377	-97.669	0.118	0.030
-341.362	-115.386	0.239	0.045
-340.348	59.838	-0.272	0.267
-339.333	192.075	-0.078	-0.118
-338.318	-142.334	0.285	-0.028
-337.304	-135.786	-0.219	0.026
-336.289	52.904	-0.232	-0.221
-335.275	91.422	-0.258	-0.288
-334.260	-107.819	0.296	-0.064
-333.245	199.332	0.137	0.209
-332.231	-168.213	0.275	-0.011
-331.216	180.550	-0.141	0.206
-330.202	800.000	0.078	-0.238
-329.187	14.589	0.176	0.136
-328.172	-66.418	-0.269	0.106
-327.158	30.372	0.087	0.074
-326.143	-86.949	-0.571	-0.173
-325.129	-30.922	0.066	0.037
-324.114	201.948	0.089	0.137
-323.099	-107.067	-0.265	0.058
-322.085	239.080	0.103	-0.171
-321.070	691.640	-0.053	0.137
-320.056	37.180	-0.281	0.247
-319.041	-200.000	-0.092	0.435
-318.026	-143.751	-0.232	-0.022
-317.012	264.028	-0.192	0.331
-315.997	-61.368	0.110	0.046
-314.983	-85.684	-0.478	0.147
-313.968	122.661	0.084	0.105
-312.953	564.467	0.094	0.228
-311.939	-159.680	0.203	-0.011
-310.924	-20.646	0.146	-0.089
-309.910	800.000	-0.057	0.166
-308.895	94.119	-0.121	0.137
-307.880	-76.283	-0.156	0.055
-306.866	70.175	-0.008	0.008
-305.851	800.000	0.017	0.068
-304.837	43.219	0.230	0.209
-303.822	-200.000	-0.051	0.290
-302.807	-117.682	0.257	-0.046
-301.793	-56.394	-0.178	0.079
-300.778	20.053	0.100	-0.080
-299.764	-107.415	0.453	-0.099
-298.749	328.334	0.053	-0.101
-297.735	-1.254	0.136	0.096
-296.720	-200.000	0.010	0.095
-295.705	-112.660	0.119	-0.023
-294.691	17.920	0.235	-0.186
-293.676	27.811	-0.496	-0.415
-292.662	-11.980	0.125	0.081
-291.647	800.000	0.029	-0.108
-290.632	-200.000	-0.054	-0.264
-289.618	155.362	0.200	0.273
-288.603	321.910	-0.107	0.203
-287.589	-16.576	0.033	-0.021
-286.574	800.000	-0.109	-0.379
-285.559	362.039	0.134	-0.266
-284.545	266.647	-0.194	-0.337
-283.530	800.000	0.048	0.137
-282.516	133.409	-0.094	0.121
-281.501	800.000	0.062	-0.170
-280.486	-28.619	-0.302	0.173
-279.472	533.259	0.014	0.034
-278.457	223.791	-0.105	-0.168
-277.443	-51.137	0.193	-0.090
-276.428	-135.200	-0.429	0.051
-275.413	-9.929	0.261	0.172
-274.399	-60.035	0.150	-0.063
-273.384	379.822	-0.082	0.166
-272.370	-200.000	0.011	-0.148
-271.355	-102.714	0.192	-0.045
-270.340	-31.586	-0.284	0.159
-269.326	123.759	0.332	-0.414
-268.311	-200.000	0.096	-0.421
-267.297	-145.385	-0.157	0.014
-266.282	251.771	0.129	-0.218
-265.267	-37.988	0.125	0.066
-264.253	-103.969	-0.289	-0.067
-263.238	-200.000	-0.007	0.353
-262.224	-200.000	0.038	0.267
-261.209	-128.363	0.221	0.031
-260.195	-200.000	0.012	0.092
-259.180	-152.877	0.264	0.019
-258.165	399.435	-0.124	0.258
-257.151	12.399	0.147	0.113
-256.136	-82.180	0.301	-0.097
-255.122	201.467	0.206	-0.315
-254.107	227.961	-0.129	0.208
-253.092	-17.691	0.183	0.114
-252.078	-82.317	0.199	0.064
-251.063	219.369	0.128	-0.203
-250.049	-200.000	-0.066	-0.328
-249.034	87.013	-0.178	-0.195
-248.019	545.519	-0.121	-0.287
-247.005	-200.000	-0.004	0.173
-245.990	62.235	-0.037	0.036
-244.976	-101.811	0.131	-0.031
-243.961	-200.000	0.021	0.111
-242.946	-126.621	-0.298	0.044
-241.932	273.783	0.085	0.149
-240.917	-200.000	0.031	-0.171
-239.903	-156.968	0.388	0.024
-238.888	40.106	-0.101	0.090
-237.873	-200.000	0.046	0.216
-236.859	-200.000	0.012	-0.163
-235.844	-113.356	-0.193	0.038
-234.830	800.000	-0.047	0.157
-233.815	23.890	-0.162	-0.132
-232.800	24.139	0.134	-0.110
-231.786	-145.121	0.121	0.011
-230.771	124.851	0.232	0.290
-229.757	-107.341	-0.041	-0.009
-228.742	-135.495	-0.294	0.035
-227.727	261.454	0.060	-0.103
-226.713	124.809	0.104	0.130
-225.698	243.142	0.083	0.138
-224.684	-125.426	-0.185	0.028
-223.669	7.961	-0.319	0.237
-222.655	99.506	-0.161	0.185
-221.640	-105.368	-0.048	0.011
-220.625	-14.042	0.112	-0.071
-219.611	-200.000	-0.029	0.356
-218.596	22.031	-0.294	-0.237
-217.582	-200.000	0.058	-0.367
-216.567	800.000	0.075	0.276
-215.552	-108.665	0.167	-0.035
-214.538	72.804	0.024	-0.025
-213.523	-41.095	0.247	0.126
-212.509	-200.000	0.043	0.238
-211.494	68.044	0.259	0.262
-210.479	-200.000	-0.003	-0.176
-209.465	-200.000	-0.056	0.269
-208.450	-189.815	-0.352	0.004
-207.436	230.185	0.075	-0.121
-206.421	506.890	0.127	-0.292
-205.406	-32.868	0.070	0.039
-204.392	-134.239	-0.125	0.015
-203.377	7.653	-0.106	0.078
-202.363	-200.000	-0.035	0.187
-201.348	-71.965	0.134	0.049
-200.333	-200.000	-0.034	0.156
-199.319	-124.376	0.353	-0.055
-198.304	-191.628	0.200	-0.002
-197.290	17.771	0.148	0.117
-196.275	119.217	-0.378	-0.463
-195.260	74.353	-0.196	-0.204
-194.246	162.855	0.189	0.263
-193.231	-200.000	-0.034	-0.158
-192.217	-86.449	0.094	-0.029
-191.202	460.215	-0.061	0.135
-190.187	186.233	-0.057	0.084
-189.173	94.344	0.116	-0.131
-188.158	800.000	0.057	0.227
-187.144	13.275	0.135	-0.103
-186.129	124.117	-0.266	0.330
-185.114	373.761	-0.087	0.175
-184.100	-140.444	0.357	0.037
-183.085	357.603	0.050	-0.099
-182.071	707.125	-0.079	-0.207
-181.056	120.845	0.017	-0.020
-180.042	-57.603	0.076	-0.033
-179.027	-200.000	0.016	-0.135
-178.012	55.373	-0.160	-0.153
-176.998	76.677	0.024	0.025
-175.983	32.350	0.148	-0.127
-174.969	-58.397	-0.119	0.051
-173.954	-48.372	0.276	-0.131
-172.939	-200.000	-0.008	-0.051
-171.925	800.000	-0.093	-0.350
-170.910	127.668	-0.149	-0.187
-169.896	-133.186	0.131	0.016
-168.881	39.455	0.097	0.086
-167.866	-78.396	-0.208	0.070
-166.852	-95.660	-0.043	0.012
-165.837	156.069	-0.271	0.369
-164.823	-92.972	-0.501	0.138
-163.808	99.638	-0.275	0.315
-162.793	148.494	-0.071	-0.095
-161.779	276.414	0.060	-0.106
-160.764	185.117	0.025	0.036
-159.750	-27.502	0.559	0.321
-158.735	-91.298	0.337	-0.095
-157.720	-200.000	0.001	0.302
-156.706	291.180	0.016	-0.029
-155.691	-57.522	-0.122	-0.053
-154.677	-200.000	0.032	-0.144
-153.662	-200.000	-0.020	0.229
-152.647	-200.000	-0.011	0.364
-151.633	-53.594	0.170	-0.077
-150.618	-44.575	0.138	-0.068
-149.604	-125.331	0.196	-0.030
-148.589	800.000	-0.024	0.077
-147.574	800.000	0.049	0.139
-146.560	800.000	-0.028	-0.112
-145.545	-12.766	-0.235	-0.151
-144.531	363.325	0.158	-0.313
-143.516	-200.000	0.021	0.349
-142.502	-110.616	0.229	0.047
-141.487	154.241	-0.026	-0.036
-140.472	-156.824	-0.424	-0.026
-139.458	800.000	-0.092	0.352
-138.443	185.847	0.044	-0.065
-137.429	-200.000	0.020	0.200
-136.414	-59.784	0.438	-0.185
-135.399	-200.000	-0.044	-0.351
-134.385	103.992	0.166	-0.193
-133.370	-179.285	-0.479	0.010
-132.356	-72.488	-0.179	0.065
-131.341	-200.000	0.034	0.167
-130.326	15.480	-0.029	-0.022
-129.312	-200.000	0.023	-0.121
-128.297	-118.813	0.007	-0.001
-127.283	332.030	0.090	0.171
-126.268	-155.523	-0.206	0.013
-125.253	800.000	-0.112	-0.328
-124.239	-86.818	-0.379	0.114
-123.224	-72.126	-0.152	-0.056
-122.210	-139.744	0.141	0.015
-121.195	-123.438	0.164	-0.026
-120.180	-77.790	0.123	0.042
-119.166	-103.647	-0.231	0.054
-118.151	-200.000	0.018	0.205
-117.137	800.000	0.067	0.205
-116.122	-200.000	-0.032	-0.207
-115.107	70.666	0.293	-0.299
-114.093	121.080	0.323	0.396
-113.078	-200.000	-0.019	0.239
-112.064	-57.415	-0.066	0.028
-111.049	-29.818	0.203	0.114
-110.034	132.246	0.155	-0.196
-109.020	215.890	-0.182	-0.285
-108.005	-72.292	0.280	-0.102
-106.991	-200.000	-0.008	-0.134
-105.976	-200.000	0.040	0.313
-104.962	-200.000	-0.031	-0.247
-103.947	-161.821	-0.218	0.011
-102.932	-200.000	0.030	0.406
-101.918	-20.377	0.187	-0.114
-100.903	800.000	-0.160	-0.502
-99.889	-128.204	-0.291	0.041
-98.874	-200.000	0.005	-0.149
-97.859	200.345	0.082	0.124
-96.845	161.129	-0.031	-0.042
-95.830	-130.541	0.302	0.040
-94.816	519.173	-0.049	-0.113
-93.801	70.088	-0.332	0.337
-92.786	208.042	-0.061	-0.093
-91.772	-65.602	0.189	-0.075
-90.757	-63.186	0.331	0.135
-89.743	619.918	0.079	0.196
-88.728	-16.049	0.088	0.055
-87.713	-127.479	-0.116	0.017
-86.699	5.108	-0.350	-0.254
-85.684	316.654	0.092	0.171
-84.670	-6.404	0.374	-0.251
-83.655	745.827	0.091	0.241
-82.640	-3.317	-0.140	0.096
-81.626	-200.000	0.045	-0.212
-80.611	19.863	-0.182	-0.145
-79.597	463.981	-0.111	-0.244
-78.582	-200.000	-0.022	-0.104
-77.567	-200.000	0.007	-0.171
-76.553	800.000	-0.052	0.176
-75.538	58.961	0.213	-0.206
-74.524	386.780	0.142	-0.288
-73.509	200.876	-0.099	-0.150
-72.494	90.079	-0.049	-0.054
-71.480	73.438	-0.327	0.337
-70.465	-164.763	-0.058	-0.003
-69.451	-85.118	0.344	-0.106
-68.436	800.000	0.083	-0.354
-67.422	247.763	0.092	0.153
-66.407	-69.437	0.132	-0.050
-65.392	-200.000	-0.039	0.187
-64.378	-179.032	0.069	-0.002
-63.363	409.322	-0.129	-0.268
-62.349	-113.553	0.290	-0.056
-61.334	232.373	-0.778	-1.258
-60.319	-5.952	0.533	0.359
-59.305	-200.000	-0.213	-0.996
-58.290	149.608	0.650	0.867
-57.276	-200.000	0.224	1.666
-56.261	-200.000	95.662	596.388
-55.246	567.040	1370.224	3272.532
-54.232	161.454	2548.661	3507.657
-53.217	113.504	2141.554	2558.138
-52.203	43.959	1602.878	1444.922
-51.188	35.529	1340.300	1157.625
-50.173	32.423	1298.485	1103.292
-49.159	54.311	1346.244	1274.966
-48.144	56.530	1362.297	1303.347
-47.130	35.724	1321.053	1141.980
-46.115	32.260	1304.024	1106.857
-45.100	31.968	1299.233	1101.033
-44.086	31.963	1296.581	1098.715
-43.071	31.946	1294.177	1096.535
-42.057	31.810	1292.348	1094.147
-41.042	31.953	1290.550	1093.414
-40.027	31.955	1288.949	1092.026
-39.013	31.990	1286.610	1090.207
-37.998	31.888	1285.154	1088.335
-36.984	31.958	1283.757	1087.519
-35.969	32.010	1282.059	1086.339
-34.954	32.038	1280.011	1084.721
-33.940	32.010	1279.056	1083.706
-32.925	32.049	1277.567	1082.627
-31.911	32.115	1275.516	1081.227
-30.896	32.077	1274.442	1080.054
-29.881	32.156	1272.813	1079.083
-28.867	32.095	1271.843	1077.868
-27.852	32.237	1270.001	1077.079
-26.838	32.099	1268.911	1075.323
-25.823	32.219	1267.211	1074.522
-24.809	32.073	1266.506	1073.050
-23.794	31.972	1265.739	1071.778
-22.779	32.120	1263.598	1070.768
-21.765	32.058	1262.565	1069.499
-20.750	32.118	1261.336	1068.755
-19.736	31.989	1259.539	1066.459
-18.721	31.891	1258.706	1065.152
-17.706	31.998	1257.597	1064.778
-16.692	32.001	1256.093	1063.478
-15.677	32.014	1254.718	1062.347
-14.663	31.990	1254.024	1061.581
-13.648	31.828	1253.428	1060.119
-12.633	31.905	1251.780	1059.120
-11.619	31.919	1251.193	1058.658
-10.604	31.895	1250.378	1057.791
-9.590	31.916	1249.114	1056.802
-8.575	31.875	1248.302	1055.841
-7.560	31.935	1247.341	1055.320
-6.546	31.865	1246.336	1054.039
-5.531	31.933	1245.627	1053.778
-4.517	31.927	1244.519	1052.763
-3.502	31.857	1243.987	1051.879
-2.487	31.776	1243.512	1050.982
-1.473	31.926	1238.799	1047.795
-0.458	30.524	1224.340	1027.777
0.556	27.345	1207.166	992.332
1.571	23.892	1213.118	978.175
2.586	23.154	1228.278	986.202
3.600	22.450	1217.169	973.306
4.615	15.995	1143.829	880.936
5.629	6.037	1066.965	772.879
6.644	1.910	1047.206	738.541
7.659	1.530	1045.249	735.258
8.673	1.488	1043.742	733.929
9.688	1.422	1041.880	732.237
10.702	1.700	1040.649	732.646
11.717	7.781	1048.928	767.835
12.731	18.050	1063.819	828.711
13.746	23.851	1070.393	861.975
14.761	24.830	1071.804	867.789
15.775	25.069	1071.570	868.680
16.790	24.625	1070.953	865.951
17.804	24.689	1070.163	865.545
18.819	24.755	1070.056	865.704
19.834	24.934	1069.531	866.067
20.848	24.929	1068.977	865.515
21.863	24.805	1069.013	864.873
22.877	24.858	1067.883	864.135
23.892	24.840	1067.312	863.508
24.907	25.007	1066.387	863.489
25.921	24.902	1064.922	861.723
26.936	24.867	1064.103	860.814
27.950	24.883	1062.283	859.344
28.965	24.681	1060.564	856.911
29.980	24.839	1059.285	856.557
30.994	24.998	1058.451	856.564
32.009	25.046	1056.844	855.418
33.023	24.859	1055.790	853.598
34.038	24.801	1055.225	852.792
35.053	24.895	1055.198	853.140
36.067	24.912	1054.306	852.423
37.082	25.087	1052.861	852.014
38.096	25.192	1053.084	852.617
39.111	25.217	1051.998	851.781
40.126	25.108	1050.524	849.995
41.140	24.697	1049.006	846.745
42.155	24.375	1047.744	844.130
43.169	24.603	1046.782	844.356
44.184	24.697	1045.298	843.529
45.199	24.482	1044.377	841.699
46.213	24.568	1043.656	841.447
47.228	24.750	1042.985	841.686
48.242	24.873	1041.952	841.357
49.257	24.930	1041.457	841.150
50.271	25.026	1040.691	840.910
51.286	24.973	1040.053	840.073
52.301	24.863	1039.458	838.999
53.315	24.781	1038.154	837.491
54.330	24.753	1037.803	837.003
55.344	24.878	1036.670	836.600
56.359	24.814	1035.628	835.385
57.374	24.815	1034.312	834.253
58.388	24.600	1034.215	833.099
59.403	24.737	1032.999	832.683
60.417	24.574	1031.951	831.005
61.432	24.570	1031.902	830.875
62.447	24.659	1031.352	830.771
63.461	24.697	1030.423	830.127
64.476	24.619	1028.775	828.367
65.490	24.548	1028.319	827.593
66.505	24.630	1027.464	827.212
67.520	24.576	1027.076	826.576
68.534	24.560	1025.705	825.329
69.549	24.209	1024.635	822.774
70.563	24.085	1024.025	821.637
71.578	24.034	1023.413	820.841
72.593	23.982	1022.594	819.871
73.607	24.145	1021.940	820.026
74.622	24.430	1021.718	821.083
75.636	24.550	1020.525	820.606
76.651	24.385	1019.892	819.265
77.666	24.197	1019.348	817.895
78.680	24.354	1018.549	817.900
79.695	24.487	1018.052	818.039
80.709	24.579	1017.454	817.907
81.724	24.475	1016.369	816.484
82.739	24.614	1015.811	816.600
83.753	25.077	1015.002	817.992
84.768	25.342	1014.040	818.352
85.782	25.261	1013.527	817.496
86.797	25.075	1012.795	815.986
87.812	24.989	1011.757	814.686
88.826	25.198	1010.790	814.787
89.841	25.260	1009.770	814.173
90.855	25.300	1009.192	813.815
91.870	25.184	1008.261	812.466
92.884	24.971	1007.227	810.598
93.899	25.045	1005.947	809.832
94.914	25.237	1005.330	810.132
95.928	25.047	1004.515	808.546
96.943	24.692	1003.341	805.928
97.957	24.453	1002.174	803.846
98.972	24.390	1000.981	802.531
99.987	24.589	1000.508	802.978
101.001	24.936	999.482	803.639
102.016	24.866	998.621	802.561
103.030	24.788	997.886	801.552
104.045	24.660	996.837	800.064
105.060	24.595	996.004	799.034
106.074	24.684	995.534	798.986
107.089	25.035	994.997	800.051
108.103	24.977	993.554	798.560
109.118	24.831	992.449	796.951
110.133	24.621	991.796	795.420
111.147	24.385	990.390	793.175
112.162	24.333	989.516	792.172
113.176	24.648	988.903	793.010
114.191	24.580	988.282	792.142
115.206	24.194	987.097	789.414
116.220	24.302	986.381	789.248
117.235	24.283	985.803	788.631
118.249	24.344	984.858	788.077
119.264	24.211	983.822	786.591
120.279	24.366	983.157	786.671
121.293	24.432	982.233	786.153
122.308	24.458	981.770	785.830
123.322	24.319	980.492	784.123
124.337	24.149	979.312	782.365
125.352	23.600	978.028	778.863
126.366	23.625	976.816	777.936
127.381	24.324	977.208	781.245
128.395	24.718	976.549	782.370
129.410	24.815	976.030	782.312
130.424	24.889	974.188	781.088
131.439	24.724	973.947	780.105
132.454	24.775	973.042	779.534
133.468	24.850	971.783	778.784
134.483	25.118	970.912	779.180
135.497	25.154	970.436	778.888
136.512	25.144	969.763	778.234
137.527	25.071	968.774	777.055
138.541	24.986	968.531	776.421
139.556	25.169	967.262	776.128
140.570	25.183	966.426	775.450
141.585	25.103	965.610	774.379
142.600	25.216	964.573	773.970
143.614	25.515	963.666	774.463
144.629	25.462	962.934	773.574
145.643	25.285	961.907	771.920
146.658	24.998	961.155	770.018
147.673	25.070	959.722	769.108
148.687	24.995	958.476	767.720
149.702	24.795	957.788	766.248
150.716	24.870	957.050	765.909
151.731	24.964	956.391	765.714
152.746	25.103	955.979	765.913
153.760	25.352	955.436	766.471
154.775	25.416	954.127	765.626
155.789	25.423	953.255	764.890
156.804	25.360	952.614	764.038
157.819	25.257	952.073	763.099
158.833	25.410	951.521	763.242
159.848	25.356	950.655	762.247
160.862	25.296	949.124	760.698
161.877	25.286	948.318	759.941
162.892	25.331	947.202	759.173
163.906	25.179	945.865	757.391
164.921	25.328	944.945	757.217
165.935	25.359	944.574	756.983
166.950	25.256	943.601	755.701
167.964	25.111	943.356	754.828
168.979	25.181	941.497	753.567
169.994	25.074	940.561	752.303
171.008	25.391	939.967	753.093
172.023	25.434	939.035	752.459
173.037	25.165	938.154	750.561
174.052	24.897	937.459	748.815
175.067	24.951	936.899	748.529
176.081	25.028	936.306	748.311
177.096	24.937	936.039	747.650
178.110	24.707	934.892	745.711
179.125	24.601	934.046	744.525
180.140	24.636	933.841	744.443
181.154	24.858	933.347	744.909
182.169	25.073	933.404	745.783
183.183	25.414	932.771	746.626
184.198	25.162	931.736	744.689
185.213	25.170	931.327	744.327
186.227	25.374	930.642	744.559
187.242	25.243	930.229	743.621
188.256	25.274	929.612	743.190
189.271	25.371	928.651	742.758
190.286	24.932	927.618	740.052
191.300	24.368	925.827	736.229
192.315	23.693	924.224	732.109
193.329	23.584	924.224	731.593
194.344	24.671	924.501	736.230
195.359	25.062	924.678	737.917
196.373	25.183	923.891	737.719
197.388	25.007	923.486	736.607
198.402	25.182	922.764	736.685
199.417	25.341	922.072	736.721
200.432	24.844	921.067	733.814
201.446	24.819	920.531	733.219
202.461	24.929	919.599	732.864
203.475	24.001	917.861	727.622
204.490	23.256	916.267	723.252
205.504	24.122	917.139	727.412
206.519	24.693	917.337	729.839
207.534	24.838	916.434	729.647
208.548	25.330	916.259	731.445
209.563	25.046	915.193	729.376
210.577	25.032	914.809	728.948
211.592	25.280	914.772	729.864
212.607	25.230	913.791	728.812
213.621	25.235	913.179	728.279
214.636	25.447	912.283	728.360
215.650	25.241	911.713	727.006
216.665	25.503	911.026	727.455
217.680	25.326	910.265	726.066
218.694	24.883	909.171	723.341
219.709	24.598	908.540	721.622
220.723	25.066	908.049	723.058
221.738	25.120	907.523	722.794
222.753	25.227	906.994	722.738
223.767	25.222	906.427	722.201
224.782	25.434	906.500	723.050
225.796	25.395	905.829	722.296
226.811	24.836	903.945	718.485
227.826	24.195	902.369	714.598
228.840	24.419	902.610	715.623
229.855	24.289	902.112	714.645
230.869	24.040	901.052	712.745
231.884	24.533	900.851	714.496
232.899	25.172	900.884	717.016
233.913	25.074	900.282	716.080
234.928	25.056	899.692	715.476
235.942	25.095	898.913	714.948
236.957	24.704	898.048	712.640
237.972	24.543	897.926	711.836
238.986	24.805	897.016	712.098
240.001	24.940	896.380	712.067
241.015	25.231	895.561	712.506
242.030	25.090	895.199	711.598
243.045	25.134	895.144	711.666
244.059	25.284	894.546	711.723
245.074	25.133	893.775	710.446
246.088	24.817	892.639	708.231
247.103	25.152	892.498	709.383
248.117	25.851	892.034	711.711
249.132	25.899	892.214	711.981
250.147	25.861	891.695	711.358
251.161	26.179	890.835	711.861
252.176	25.978	890.702	710.897
253.190	26.129	889.954	710.834
254.205	26.348	889.224	711.051
255.220	26.278	888.744	710.328
256.234	26.161	888.173	709.346
257.249	26.028	887.128	707.929
258.263	26.120	886.598	707.805
259.278	26.193	885.982	707.535
260.293	26.113	885.520	706.791
261.307	26.029	884.814	705.838
262.322	25.792	884.003	704.202
263.336	25.087	882.044	699.827
264.351	24.055	880.247	694.317
265.366	24.162	880.420	694.809
266.380	25.217	881.002	699.322
267.395	25.656	880.692	700.723
268.409	25.528	879.946	699.569
269.424	25.926	879.118	700.396
270.439	25.931	878.203	699.624
271.453	25.923	878.000	699.369
272.468	26.261	877.741	700.413
273.482	26.227	877.372	699.924
274.497	25.803	876.233	697.312
275.512	25.510	875.225	695.316
276.526	25.819	875.370	696.564
277.541	26.000	874.866	696.799
278.555	25.641	874.314	694.913
279.570	25.541	873.388	693.729
280.585	25.810	872.490	693.990
281.599	25.623	871.928	692.762
282.614	25.067	870.641	689.542
283.628	25.163	870.129	689.442
284.643	25.536	869.923	690.654
285.657	25.087	868.843	688.010
286.672	24.811	868.228	686.405
287.687	25.371	868.263	688.521
288.701	25.322	867.810	687.910
289.716	25.091	866.361	685.819
290.730	25.217	865.811	685.804
291.745	24.760	865.104	683.439
292.760	25.112	865.284	684.865
293.774	26.080	865.743	688.863
294.789	26.445	865.163	689.733
295.803	26.392	864.733	689.126
296.818	26.487	863.960	688.812
297.833	26.007	862.719	685.938
298.847	25.809	861.927	684.493
299.862	26.136	862.220	685.910
300.876	26.421	861.476	686.337
301.891	26.452	860.402	685.540
302.906	25.928	860.109	683.261
303.920	25.998	859.754	683.182
304.935	26.305	859.323	683.942
305.949	26.339	858.507	683.361
306.964	26.008	857.776	681.468
307.979	26.228	857.323	681.876
308.993	26.544	857.356	683.035
310.008	26.500	856.768	682.340
311.022	26.326	855.757	680.822
312.037	26.096	855.260	679.500
313.052	25.800	853.981	677.310
314.066	25.090	852.506	673.414
315.081	24.622	852.131	671.299
316.095	25.587	852.618	675.250
317.110	26.031	852.040	676.396
318.125	25.221	850.513	672.090
319.139	24.187	849.123	667.067
320.154	24.199	848.698	666.717
321.168	25.104	849.339	670.551
322.183	25.884	849.346	673.409
323.197	26.029	849.304	673.859
324.212	26.010	849.038	673.520
325.227	26.256	848.030	673.575
326.241	26.052	847.661	672.463
327.256	25.874	847.194	671.371
328.270	25.749	846.297	670.137
329.285	25.654	845.485	669.079
330.300	25.541	844.652	667.940
331.314	25.699	844.399	668.267
332.329	26.058	844.515	669.633
333.343	26.313	844.082	670.175
334.358	26.196	843.615	669.312
335.373	26.180	843.620	669.198
336.387	26.708	843.326	670.861
337.402	26.667	843.507	670.795
338.416	26.576	842.869	669.891
339.431	26.686	842.595	670.023
340.446	26.981	842.131	670.684
341.460	26.701	841.665	669.218
342.475	26.498	840.931	667.828
343.489	26.908	840.260	668.747
344.504	26.976	840.602	669.209
345.519	27.021	840.206	669.002
346.533	27.109	839.776	668.924
347.548	27.118	839.176	668.421
348.562	27.003	838.464	667.372
349.577	27.079	837.736	667.010
350.592	26.893	837.159	665.812
351.606	26.953	836.310	665.297
352.621	26.849	835.593	664.286
353.635	26.791	835.045	663.580
354.650	26.091	833.222	659.514
355.665	25.343	831.298	655.204
356.679	25.748	831.578	656.846
357.694	26.107	831.221	657.814
358.708	25.931	830.655	656.668
359.723	26.369	830.887	658.386
360.738	26.654	830.395	658.976
361.752	26.696	829.915	658.690
362.767	27.056	829.623	659.709
363.781	27.357	829.147	660.363
364.796	27.418	828.960	660.376
365.810	27.490	828.452	660.175
366.825	27.515	828.236	660.034
367.840	27.079	827.194	657.568
368.854	26.814	826.390	655.915
369.869	26.781	826.016	655.439
370.883	26.838	825.565	655.229
371.898	26.511	825.136	653.648
372.913	26.892	824.639	654.571
373.927	26.950	824.534	654.641
374.942	27.230	823.551	654.811
375.956	27.223	823.538	654.717
376.971	27.256	823.142	654.462
377.986	27.298	823.207	654.608
379.000	27.352	822.269	653.997
380.015	27.276	821.640	653.168
381.029	27.291	821.398	652.971
382.044	27.353	820.740	652.613
383.059	27.475	819.936	652.353
384.073	27.448	819.283	651.679
385.088	27.404	818.820	651.095
386.102	27.225	818.218	649.919
387.117	27.230	817.692	649.461
388.132	26.771	816.442	646.776
389.146	26.172	815.625	643.934
390.161	26.750	815.525	645.857
391.175	27.184	815.229	647.112
392.190	26.823	814.122	644.894
393.205	25.563	811.975	638.664
394.219	23.899	810.456	631.509
395.234	23.827	810.393	631.147
396.248	25.489	811.979	638.234
397.263	26.921	812.599	643.748
398.278	26.999	811.942	643.447
399.292	26.769	811.366	642.122
400.307	26.642	811.121	641.419
401.321	26.874	810.823	641.949
402.336	27.108	810.545	642.500
403.350	27.573	810.533	644.078
404.365	27.926	810.251	645.043
405.380	28.095	809.965	645.355
406.394	28.248	809.268	645.282
407.409	28.159	808.968	644.670
408.423	28.067	808.629	644.019
409.438	28.136	808.226	643.886
410.453	28.251	807.579	643.718
411.467	28.244	806.853	643.057
412.482	28.112	806.983	642.641
413.496	28.151	806.414	642.268
414.511	28.055	806.617	642.035
415.526	28.093	805.723	641.398
416.540	27.906	804.880	640.016
417.555	27.784	804.031	638.858
418.569	27.812	803.751	638.676
419.584	27.837	803.306	638.352
420.599	27.548	803.132	637.147
421.613	110.731	1286.904	1459.685
422.628	95.567	1357.370	1459.770
