DTS Sentinel unit serial number:	SN413079Multiplexer serial number:	ORYXHardware model number:	OX4-SRSoftware version number:	ORYX F/W v4.00 Oryx Data Collector v3.7.2.0data status	okinstallation	princeton_trtdifferential loss correction	single-endedforward channel	channel 1reverse channel	N/Adate	2019/09/18time	16:26:35forward acquisition time	60.00reverse acquisition time	0.00gamma	496.2192k internal	0.2293k external	0.2293temperature offset calibration	0.9995default loss term (dB/km)	0.3790temperature slope calibration	1.0000multiplexer offset coefficient	1.0000multiplexer slope coefficient	1.0000fibre end	0.00T internal ref (°C)	39.02T ext. ref 1 (°C)	0.82T ext. ref 2 (°C)	36.09length (m)	temperature (°C)	Stokes	anti-Stokes-747.200	-200.000	-0.009	-0.096
-746.185	30.234	-0.176	-0.154
-745.171	-64.317	-0.200	-0.083
-744.156	-200.000	-0.010	-0.078
-743.142	-200.000	0.015	0.132
-742.127	-153.356	-0.224	-0.016
-741.112	571.374	0.029	-0.073
-740.098	-200.000	-0.052	0.358
-739.083	-20.894	-0.040	-0.025
-738.069	-200.000	0.001	0.018
-737.054	-113.777	0.070	0.014
-736.039	188.245	-0.051	0.078
-735.025	-129.130	-0.215	0.031
-734.010	-87.777	-0.188	-0.058
-732.996	181.371	0.162	-0.243
-731.981	477.572	-0.073	0.169
-730.966	130.683	0.054	0.071
-729.952	70.876	0.162	0.171
-728.937	-71.554	0.109	-0.042
-727.923	28.583	-0.136	0.117
-726.908	348.779	0.163	-0.329
-725.894	-200.000	-0.023	0.327
-724.879	-200.000	-0.105	-0.530
-723.864	213.756	-0.065	0.105
-722.850	74.174	0.064	-0.069
-721.835	138.764	-0.032	-0.043
-720.821	800.000	0.086	-0.381
-719.806	6.818	0.286	-0.217
-718.791	9.347	-0.156	0.120
-717.777	-141.146	0.201	0.021
-716.762	239.368	-0.150	0.255
-715.748	-200.000	0.056	-0.314
-714.733	31.653	0.052	0.045
-713.718	126.233	-0.203	-0.262
-712.704	-200.000	-0.005	-0.066
-711.689	-136.893	-0.109	-0.013
-710.675	-200.000	-0.121	0.000
-709.660	-128.467	0.465	-0.067
-708.645	-125.387	-0.198	0.031
-707.631	186.827	0.179	-0.272
-706.616	-94.328	0.046	-0.013
-705.602	755.978	-0.105	0.292
-704.587	50.058	-0.252	-0.243
-703.572	-200.000	-0.008	-0.404
-702.558	456.096	0.075	-0.170
-701.543	-154.197	0.098	-0.007
-700.529	198.750	0.079	-0.123
-699.514	-80.362	-0.111	-0.038
-698.499	-97.062	-0.366	-0.098
-697.485	-81.108	-0.110	0.037
-696.470	-123.296	0.277	-0.045
-695.456	-190.302	-0.337	-0.004
-694.441	292.805	-0.040	0.074
-693.426	199.644	-0.092	0.145
-692.412	66.746	0.106	0.110
-691.397	800.000	0.026	0.078
-690.383	-131.436	-0.259	0.035
-689.368	28.241	-0.181	-0.156
-688.354	327.765	-0.040	-0.079
-687.339	-200.000	0.049	0.289
-686.324	81.273	-0.162	0.178
-685.310	800.000	0.031	-0.106
-684.295	57.153	0.077	-0.077
-683.281	800.000	-0.078	0.246
-682.266	646.482	-0.044	0.115
-681.251	5.944	-0.272	0.205
-680.237	19.659	0.159	0.130
-679.222	-2.686	-0.346	0.247
-678.208	191.566	-0.038	-0.058
-677.193	-148.157	-0.287	-0.024
-676.178	23.054	-0.064	-0.053
-675.164	71.235	0.064	-0.068
-674.149	-38.936	-0.160	-0.086
-673.135	68.394	-0.227	0.237
-672.120	-71.973	0.215	0.081
-671.105	-42.327	0.373	0.195
-670.091	125.588	0.176	0.227
-669.076	-99.549	-0.286	0.073
-668.062	-200.000	-0.007	0.084
-667.047	-21.971	0.204	-0.127
-666.032	2.847	-0.152	0.113
-665.018	111.222	0.122	0.150
-664.003	-0.848	0.301	-0.217
-662.989	-200.000	0.060	-0.328
-661.974	-200.000	-0.006	-0.034
-660.959	-134.199	0.144	0.018
-659.945	-28.713	0.245	-0.144
-658.930	-200.000	-0.045	-0.256
-657.916	800.000	0.109	-0.323
-656.901	-200.000	0.020	0.349
-655.886	800.000	-0.017	0.058
-654.872	-200.000	-0.037	-0.235
-653.857	-200.000	-0.080	0.000
-652.843	-200.000	-0.008	-0.099
-651.828	-180.419	0.508	0.011
-650.814	261.844	-0.088	0.155
-649.799	800.000	-0.075	0.250
-648.784	539.983	-0.093	-0.225
-647.770	118.631	0.137	0.173
-646.755	-19.420	-0.217	-0.137
-645.741	-46.577	0.182	0.091
-644.726	-151.122	-0.313	0.024
-643.711	-107.776	0.265	0.059
-642.697	-200.000	0.051	-0.347
-641.682	-122.140	-0.099	-0.017
-640.668	148.041	-0.133	-0.183
-639.653	17.685	-0.207	-0.168
-638.638	503.089	-0.081	0.192
-637.624	-200.000	0.022	0.106
-636.609	-127.091	-0.052	0.008
-635.595	-15.452	-0.401	-0.261
-634.580	-200.000	0.031	-0.173
-633.565	4.788	-0.168	0.126
-632.551	800.000	0.007	-0.030
-631.536	-55.793	0.177	-0.081
-630.522	800.000	-0.055	-0.229
-629.507	-145.548	-0.139	-0.013
-628.492	521.097	-0.023	-0.055
-627.478	-169.320	0.180	0.007
-626.463	-194.470	-0.099	-0.001
-625.449	-188.368	-0.053	0.001
-624.434	6.423	0.013	-0.010
-623.419	1.719	-0.128	-0.094
-622.405	-113.916	0.244	0.048
-621.390	306.187	-0.116	0.219
-620.376	17.169	-0.097	0.078
-619.361	-152.401	-0.240	-0.018
-618.346	778.296	0.054	0.150
-617.332	18.374	0.157	0.128
-616.317	295.396	-0.234	-0.436
-615.303	35.326	0.110	0.098
-614.288	-200.000	0.029	-0.142
-613.273	12.781	0.383	0.301
-612.259	38.842	0.200	0.182
-611.244	41.506	0.215	0.199
-610.230	-200.000	-0.230	-0.001
-609.215	430.509	-0.043	0.095
-608.201	108.068	-0.140	-0.169
-607.186	-103.599	0.130	-0.031
-606.171	-3.024	0.071	0.050
-605.157	435.440	0.093	-0.206
-604.142	800.000	0.031	0.097
-603.128	84.974	0.085	0.094
-602.113	44.074	0.103	0.096
-601.098	-200.000	0.014	0.113
-600.084	232.655	-0.050	0.083
-599.069	34.694	0.121	0.108
-598.055	113.872	-0.164	0.203
-597.040	-200.000	0.032	0.271
-596.025	-200.000	-0.034	-0.255
-595.011	24.297	-0.336	-0.282
-593.996	99.250	0.026	0.031
-592.982	800.000	0.108	-0.351
-591.967	13.700	0.127	0.100
-590.952	-133.572	0.267	-0.034
-589.938	1.788	0.159	-0.117
-588.923	-144.257	-0.264	0.025
-587.909	-88.382	-0.392	0.119
-586.894	-21.167	-0.275	-0.171
-585.879	118.861	-0.194	-0.244
-584.865	800.000	0.032	-0.096
-583.850	800.000	0.203	-0.628
-582.836	-200.000	0.005	-0.147
-581.821	800.000	-0.071	-0.204
-580.806	365.049	0.082	0.169
-579.792	162.013	-0.066	-0.094
-578.777	-145.088	-0.380	-0.035
-577.763	65.085	-0.168	-0.173
-576.748	219.069	0.038	-0.062
-575.733	27.561	-0.185	0.158
-574.719	-6.733	0.363	0.251
-573.704	-70.658	-0.208	0.080
-572.690	222.530	-0.098	0.160
-571.675	-126.407	0.163	0.025
-570.661	-126.912	-0.287	0.043
-569.646	-24.178	-0.236	-0.143
-568.631	403.368	0.029	-0.062
-567.617	-200.000	-0.016	-0.154
-566.602	800.000	-0.037	-0.158
-565.588	134.265	0.077	-0.102
-564.573	800.000	0.041	-0.137
-563.558	-4.313	-0.118	0.083
-562.544	-126.523	0.338	-0.051
-561.529	-122.970	0.187	0.031
-560.515	-153.138	0.084	-0.006
-559.500	-170.765	0.210	0.007
-558.485	-107.628	0.230	-0.051
-557.471	426.247	0.101	0.220
-556.456	-10.281	-0.280	-0.189
-555.442	-200.000	0.023	-0.242
-554.427	-51.060	-0.011	-0.005
-553.412	800.000	0.049	0.212
-552.398	-200.000	0.015	0.184
-551.383	34.683	-0.150	0.133
-550.369	52.504	-0.217	0.211
-549.354	102.599	0.278	0.331
-548.339	-145.027	0.062	0.006
-547.325	180.954	-0.145	0.216
-546.310	108.981	0.317	-0.385
-545.296	-110.620	-0.181	0.038
-544.281	800.000	0.052	-0.212
-543.266	-152.976	0.386	-0.028
-542.252	-33.854	0.165	0.092
-541.237	-200.000	-0.016	-0.301
-540.223	-83.484	-0.095	-0.031
-539.208	52.685	0.142	-0.137
-538.193	144.964	-0.185	0.251
-537.179	-153.992	-0.130	-0.009
-536.164	-200.000	0.010	-0.249
-535.150	578.783	0.127	-0.316
-534.135	800.000	-0.071	0.314
-533.121	-147.637	-0.180	0.015
-532.106	138.914	0.169	-0.225
-531.091	-131.629	0.303	-0.040
-530.077	-36.151	-0.103	-0.057
-529.062	-93.593	0.354	-0.099
-528.048	-65.723	0.147	-0.060
-527.033	-127.353	0.187	-0.028
-526.018	27.763	-0.231	0.198
-525.004	-12.531	-0.211	-0.140
-523.989	-36.223	0.491	-0.269
-522.975	-200.000	0.033	-0.245
-521.960	463.360	0.084	-0.190
-520.945	-28.705	0.172	-0.100
-519.931	-74.890	-0.094	-0.034
-518.916	-147.182	0.025	0.002
-517.902	56.906	0.228	-0.225
-516.887	-60.943	0.210	-0.090
-515.872	285.624	-0.097	0.177
-514.858	312.947	-0.076	-0.144
-513.843	-26.402	-0.127	-0.075
-512.829	-200.000	-0.029	0.156
-511.814	-125.593	-0.307	0.047
-510.799	-119.202	-0.197	0.035
-509.785	-200.000	0.002	-0.172
-508.770	-152.891	-0.171	-0.012
-507.756	-166.197	-0.448	-0.019
-506.741	-200.000	-0.024	0.373
-505.726	-200.000	0.298	-0.001
-504.712	109.211	0.093	-0.113
-503.697	-122.277	0.142	-0.024
-502.683	412.227	-0.084	-0.181
-501.668	716.490	-0.073	-0.196
-500.653	83.602	0.258	-0.285
-499.639	206.423	-0.115	-0.182
-498.624	-200.000	-0.025	0.180
-497.610	800.000	0.029	0.086
-496.595	-50.705	0.117	0.056
-495.581	-142.134	0.073	0.007
-494.566	98.962	-0.317	-0.370
-493.551	-140.819	-0.122	0.013
-492.537	383.564	0.059	-0.124
-491.522	-200.000	-0.033	-0.231
-490.508	-52.222	0.148	-0.069
-489.493	-52.662	0.258	-0.121
-488.478	-171.156	0.085	0.003
-487.464	-14.694	0.261	-0.170
-486.449	-200.000	-0.099	-0.450
-485.435	-110.248	-0.155	0.033
-484.420	-38.744	-0.065	-0.035
-483.405	137.331	-0.119	0.158
-482.391	-105.204	-0.207	-0.048
-481.376	-144.569	0.215	-0.020
-480.362	136.667	-0.107	0.142
-479.347	800.000	0.042	-0.158
-478.332	-49.324	0.170	0.082
-477.318	-47.286	-0.058	-0.029
-476.303	195.377	-0.102	0.157
-475.289	-200.000	0.009	0.305
-474.274	-86.415	-0.270	0.084
-473.259	-77.504	0.236	0.083
-472.245	-65.230	0.031	0.013
-471.230	-168.018	0.242	-0.010
-470.216	2.201	0.166	0.122
-469.201	-122.082	-0.349	0.058
-468.186	199.558	-0.229	0.356
-467.172	689.815	-0.045	-0.119
-466.157	-17.047	0.178	-0.114
-465.143	136.721	0.106	-0.140
-464.128	-153.828	-0.355	0.025
-463.113	-127.033	-0.284	0.042
-462.099	6.558	-0.228	-0.172
-461.084	610.730	-0.032	-0.080
-460.070	-55.065	-0.052	-0.024
-459.055	-102.334	0.520	-0.126
-458.040	16.006	0.210	-0.168
-457.026	18.879	0.093	0.076
-456.011	168.586	0.084	0.122
-454.997	800.000	-0.082	0.266
-453.982	800.000	0.054	0.207
-452.968	469.769	0.123	-0.280
-451.953	-75.962	0.227	0.081
-450.938	-119.259	0.372	0.066
-449.924	-73.841	-0.189	-0.069
-448.909	192.701	-0.019	0.030
-447.895	-83.044	-0.172	0.056
-446.880	-67.123	0.172	-0.068
-445.865	-40.799	0.216	0.113
-444.851	-86.401	-0.346	0.108
-443.836	800.000	0.034	-0.146
-442.822	563.112	0.099	0.241
-441.807	26.769	0.139	0.118
-440.792	-103.256	-0.041	-0.010
-439.778	800.000	-0.082	0.295
-438.763	29.600	-0.073	-0.063
-437.749	800.000	-0.068	-0.297
-436.734	-200.000	0.000	-0.261
-435.719	-33.215	-0.217	0.121
-434.705	134.268	-0.167	0.218
-433.690	-106.512	0.319	0.072
-432.676	8.393	0.155	0.118
-431.661	-68.174	-0.172	0.068
-430.646	432.740	-0.028	-0.062
-429.632	111.054	0.075	0.092
-428.617	-200.000	0.038	-0.277
-427.603	224.146	-0.241	0.393
-426.588	-193.512	0.146	0.001
-425.573	-70.451	0.253	0.097
-424.559	130.438	-0.142	-0.184
-423.544	-116.371	0.260	-0.049
-422.530	-19.194	0.251	-0.157
-421.515	-83.683	0.152	-0.049
-420.500	207.291	0.096	0.151
-419.486	99.036	-0.217	-0.253
-418.471	4.548	0.095	-0.071
-417.457	-129.147	0.329	0.046
-416.442	-106.268	0.303	0.069
-415.428	-39.241	-0.237	0.126
-414.413	-59.356	0.147	-0.064
-413.398	60.337	-0.060	0.060
-412.384	677.630	0.074	0.194
-411.369	-91.331	-0.165	0.048
-410.355	-85.608	-0.109	-0.034
-409.340	135.155	-0.210	0.275
-408.325	121.549	0.103	0.129
-407.311	-58.925	-0.297	-0.130
-406.296	-94.684	-0.160	0.044
-405.282	-200.000	-0.002	0.050
-404.267	34.103	-0.249	0.219
-403.252	-24.798	0.082	-0.049
-402.238	96.320	0.092	-0.106
-401.223	-68.150	0.253	0.099
-400.209	352.535	-0.110	0.221
-399.194	800.000	0.058	0.247
-398.179	-200.000	-0.017	0.194
-397.165	-68.537	-0.082	-0.032
-396.150	-18.268	-0.123	0.077
-395.136	-200.000	-0.022	-0.119
-394.121	6.863	-0.201	-0.151
-393.106	-169.357	-0.038	-0.001
-392.092	-112.013	0.072	0.015
-391.077	800.000	0.021	0.077
-390.063	57.006	-0.224	0.221
-389.048	-200.000	0.006	0.266
-388.033	401.931	-0.154	0.325
-387.019	242.648	0.108	0.183
-386.004	-200.000	-0.016	0.182
-384.990	-79.580	0.333	0.113
-383.975	-200.000	-0.029	-0.444
-382.960	104.052	0.187	0.222
-381.946	-200.000	0.014	0.079
-380.931	65.909	-0.187	0.191
-379.917	-12.745	0.064	-0.042
-378.902	-200.000	0.013	0.326
-377.888	314.436	0.060	-0.115
-376.873	-139.098	-0.225	0.025
-375.858	7.950	-0.156	0.118
-374.844	-74.016	-0.271	0.099
-373.829	800.000	-0.121	0.339
-372.815	-200.000	-0.027	0.368
-371.800	714.198	0.071	0.191
-370.785	65.307	0.092	0.094
-369.771	213.686	-0.130	-0.207
-368.756	-163.760	-0.350	0.017
-367.742	-200.000	0.005	-0.413
-366.727	800.000	-0.039	-0.136
-365.712	-200.000	-0.005	0.333
-364.698	800.000	-0.058	-0.215
-363.683	-136.558	0.111	0.013
-362.669	-58.033	0.100	0.044
-361.654	-200.000	-0.021	-0.230
-360.639	338.570	-0.099	-0.194
-359.625	-115.086	0.104	-0.020
-358.610	297.480	-0.044	-0.081
-357.596	-134.620	0.450	0.055
-356.581	36.022	0.071	0.063
-355.566	-65.139	-0.230	-0.094
-354.552	87.445	-0.144	0.161
-353.537	-200.000	0.007	0.354
-352.523	-200.000	-0.009	-0.084
-351.508	-71.131	0.054	0.020
-350.493	-10.138	0.118	-0.079
-349.479	-48.036	-0.270	0.132
-348.464	-200.000	0.018	0.119
-347.450	-6.758	-0.181	0.124
-346.435	-200.000	0.048	0.325
-345.420	-200.000	-0.003	0.041
-344.406	88.299	0.112	-0.125
-343.391	-200.000	-0.007	0.075
-342.377	-99.488	0.050	-0.013
-341.362	736.267	0.088	-0.237
-340.348	133.302	0.102	-0.133
-339.333	-66.587	0.207	-0.083
-338.318	-200.000	-0.008	-0.309
-337.304	-64.312	0.244	-0.100
-336.289	253.424	-0.178	0.306
-335.275	528.522	-0.176	-0.418
-334.260	-127.576	0.141	0.021
-333.245	-34.124	-0.280	-0.155
-332.231	-200.000	-0.015	-0.139
-331.216	-56.362	0.369	-0.165
-330.202	800.000	0.069	-0.210
-329.187	-119.550	0.048	-0.008
-328.172	69.631	-0.087	0.090
-327.158	163.009	0.045	0.063
-326.143	-40.483	0.320	-0.167
-325.129	143.721	-0.153	0.205
-324.114	-89.489	-0.146	-0.043
-323.099	-54.667	-0.361	-0.164
-322.085	-122.448	-0.324	-0.053
-321.070	164.014	-0.151	0.214
-320.056	-12.557	0.104	0.068
-319.041	234.604	-0.181	0.300
-318.026	-94.511	0.109	0.030
-317.012	800.000	0.083	0.276
-315.997	-75.679	0.148	0.053
-314.983	98.558	-0.268	-0.311
-313.968	35.801	0.091	0.080
-312.953	64.386	-0.224	0.227
-311.939	-200.000	-0.016	0.141
-310.924	-113.409	0.098	0.019
-309.910	-0.067	0.063	0.045
-308.895	-88.907	0.137	-0.041
-307.880	153.768	0.207	0.286
-306.866	-79.299	0.160	0.054
-305.851	-200.000	0.033	-0.173
-304.837	-200.000	-0.040	0.303
-303.822	800.000	-0.058	0.251
-302.807	-132.142	-0.342	0.045
-301.793	-153.298	0.342	0.024
-300.778	486.050	0.069	-0.157
-299.764	48.856	0.052	-0.049
-298.749	-70.338	0.131	0.050
-297.735	800.000	0.103	0.294
-296.720	-0.914	-0.166	-0.118
-295.705	472.004	0.162	0.366
-294.691	302.525	0.118	0.219
-293.676	114.746	-0.070	-0.086
-292.662	244.840	-0.134	-0.226
-291.647	365.607	-0.069	-0.141
-290.632	800.000	-0.072	0.293
-289.618	-200.000	-0.042	0.200
-288.603	253.773	-0.169	0.290
-287.589	253.696	0.095	0.163
-286.574	-46.725	0.223	-0.110
-285.559	366.801	0.054	0.109
-284.545	484.645	0.076	-0.175
-283.530	-61.505	-0.077	-0.033
-282.516	337.142	-0.122	0.239
-281.501	55.333	-0.177	-0.172
-280.486	-20.550	-0.176	0.108
-279.472	489.811	-0.076	-0.174
-278.457	-200.000	0.027	-0.186
-277.443	28.391	-0.377	-0.320
-276.428	-16.746	-0.298	-0.189
-275.413	800.000	0.081	0.250
-274.399	-69.357	0.265	0.102
-273.384	-200.000	-0.005	0.198
-272.370	-86.720	-0.445	0.137
-271.355	-8.704	-0.067	-0.045
-270.340	739.304	-0.051	-0.137
-269.326	-21.053	0.026	0.016
-268.311	-112.455	0.258	-0.052
-267.297	-99.746	-0.150	0.038
-266.282	187.500	0.104	-0.155
-265.267	800.000	0.048	-0.177
-264.253	-88.023	0.188	0.057
-263.238	-87.359	0.342	-0.104
-262.224	238.019	-0.043	-0.072
-261.209	-200.000	0.012	0.087
-260.195	-200.000	0.008	0.098
-259.180	313.647	0.081	-0.153
-258.165	-200.000	-0.008	-0.056
-257.151	280.316	0.041	-0.074
-256.136	-150.640	-0.330	-0.025
-255.122	667.895	-0.010	0.026
-254.107	-153.954	-0.313	0.021
-253.092	-15.985	-0.328	0.209
-252.078	-200.000	-0.008	-0.189
-251.063	-200.000	0.048	-0.267
-250.049	-40.930	0.220	0.114
-249.034	299.122	-0.117	-0.216
-248.019	800.000	-0.028	0.099
-247.005	-200.000	0.037	-0.272
-245.990	-152.196	-0.424	-0.031
-244.976	49.398	0.068	0.064
-243.961	154.129	0.138	0.190
-242.946	-71.773	-0.091	-0.034
-241.932	-200.000	-0.002	-0.042
-240.917	800.000	-0.028	-0.103
-239.903	97.927	0.289	-0.333
-238.888	-200.000	0.012	0.277
-237.873	184.656	0.084	0.125
-236.859	-42.708	0.208	-0.106
-235.844	-133.558	0.229	-0.029
-234.830	85.767	0.202	-0.223
-233.815	778.510	-0.168	-0.462
-232.800	378.320	0.084	0.172
-231.786	-67.009	0.205	-0.081
-230.771	-116.973	0.342	0.063
-229.757	-158.405	-0.103	-0.006
-228.742	-103.041	0.173	-0.041
-227.727	-200.000	0.006	-0.289
-226.713	-83.696	0.336	-0.108
-225.698	-145.976	-0.153	-0.014
-224.684	286.676	-0.054	-0.098
-223.669	-72.070	0.117	-0.044
-222.655	800.000	-0.060	0.228
-221.640	435.446	0.139	0.303
-220.625	-25.701	0.446	-0.264
-219.611	145.606	-0.044	0.059
-218.596	-195.640	-0.131	-0.001
-217.582	721.942	-0.077	-0.206
-216.567	-83.967	0.050	-0.016
-215.552	-79.985	0.184	-0.062
-214.538	800.000	0.058	0.198
-213.523	-61.069	0.305	-0.129
-212.509	29.531	-0.188	-0.160
-211.494	41.771	0.051	-0.046
-210.479	90.537	0.111	0.125
-209.465	-200.000	0.006	-0.120
-208.450	125.056	0.105	-0.132
-207.436	-15.980	-0.286	0.183
-206.421	-56.355	-0.138	-0.061
-205.406	-2.521	-0.239	-0.167
-204.392	59.560	-0.321	-0.317
-203.377	320.346	0.033	-0.063
-202.363	-113.067	-0.067	0.013
-201.348	271.217	-0.202	-0.356
-200.333	212.705	-0.062	0.097
-199.319	-56.081	-0.120	0.054
-198.304	-90.410	0.350	0.102
-197.290	-127.187	-0.231	-0.034
-196.275	-125.766	-0.358	0.054
-195.260	-71.518	0.248	0.093
-194.246	-111.902	-0.122	0.025
-193.231	6.571	0.108	-0.080
-192.217	620.558	0.107	0.269
-191.202	-200.000	-0.012	0.118
-190.187	720.321	0.057	0.151
-189.173	-200.000	-0.070	0.440
-188.158	544.190	-0.172	0.411
-187.144	-24.432	-0.294	0.176
-186.129	-200.000	0.011	0.146
-185.114	-200.000	0.007	-0.274
-184.100	39.871	0.205	0.184
-183.085	208.322	0.027	-0.043
-182.071	800.000	-0.120	-0.332
-181.056	499.107	-0.191	0.440
-180.042	97.032	-0.160	0.183
-179.027	14.479	0.206	0.161
-178.012	-200.000	-0.027	-0.180
-176.998	175.629	0.160	0.232
-175.983	95.018	0.038	-0.043
-174.969	330.312	-0.075	-0.145
-173.954	-95.123	-0.264	0.071
-172.939	723.232	0.041	0.109
-171.925	-16.300	0.089	0.056
-170.910	6.670	-0.087	0.065
-169.896	-90.022	0.297	-0.087
-168.881	529.506	0.085	0.201
-167.866	-56.381	0.309	-0.137
-166.852	-200.000	-0.003	-0.241
-165.837	800.000	0.031	-0.094
-164.823	14.724	0.223	0.174
-163.808	344.140	-0.039	0.076
-162.793	0.909	-0.075	-0.054
-161.779	800.000	-0.025	0.079
-160.764	-200.000	-0.003	-0.196
-159.750	-23.441	-0.199	0.119
-158.735	-39.755	0.200	-0.104
-157.720	-159.294	0.073	0.004
-156.706	286.657	0.097	0.175
-155.691	122.943	-0.084	-0.105
-154.677	-199.099	0.236	0.001
-153.662	-13.402	-0.063	-0.041
-152.647	-15.629	-0.242	-0.154
-151.633	-200.000	0.031	-0.139
-150.618	-200.000	0.021	0.240
-149.604	800.000	0.027	0.085
-148.589	-200.000	0.030	-0.273
-147.574	35.507	0.254	-0.223
-146.560	-92.492	-0.507	-0.143
-145.545	-137.753	-0.099	0.011
-144.531	195.484	0.141	0.215
-143.516	-71.988	-0.076	0.028
-142.502	800.000	0.125	0.474
-141.487	102.544	-0.057	0.067
-140.472	55.828	-0.251	0.243
-139.458	138.746	0.188	0.247
-138.443	118.050	0.151	-0.186
-137.429	204.950	0.104	-0.162
-136.414	552.920	0.078	0.188
-135.399	139.103	-0.259	-0.340
-134.385	-113.813	-0.125	0.024
-133.370	-124.683	-0.219	0.034
-132.356	800.000	-0.060	-0.261
-131.341	14.859	-0.213	-0.166
-130.326	-83.384	-0.129	-0.041
-129.312	756.149	0.106	-0.286
-128.297	17.899	-0.056	0.045
-127.283	13.994	0.118	-0.092
-126.268	800.000	-0.088	-0.383
-125.253	691.967	0.117	-0.307
-124.239	-200.000	0.018	0.140
-123.224	-108.731	0.106	-0.023
-122.210	800.000	-0.035	-0.153
-121.195	-57.094	-0.255	0.112
-120.180	345.790	0.094	0.185
-119.166	-200.000	0.044	0.281
-118.151	254.810	0.140	0.240
-117.137	329.832	-0.010	-0.018
-116.122	-200.000	-0.351	0.000
-115.107	-66.230	0.282	-0.112
-114.093	-144.271	-0.313	0.029
-113.078	562.586	0.137	0.331
-112.064	-101.009	0.416	0.102
-111.049	-200.000	-0.008	0.081
-110.034	157.611	-0.124	0.172
-109.020	142.016	0.261	0.346
-108.005	201.119	0.078	-0.120
-106.991	-155.989	-0.491	0.031
-105.976	-23.652	0.328	-0.196
-104.962	-200.000	0.065	-0.291
-103.947	112.606	-0.204	-0.246
-102.932	338.466	-0.108	-0.211
-101.918	275.076	0.056	-0.100
-100.903	-21.265	-0.443	-0.270
-99.889	-100.674	0.162	-0.040
-98.874	-200.000	0.029	0.197
-97.859	111.100	0.207	-0.249
-96.845	800.000	0.137	-0.395
-95.830	40.472	0.318	0.286
-94.816	39.449	0.147	0.132
-93.801	53.834	-0.283	0.271
-92.786	-200.000	0.002	-0.068
-91.772	800.000	0.082	-0.237
-90.757	248.683	0.060	-0.101
-89.743	800.000	0.026	-0.077
-88.728	-200.000	-0.061	-0.359
-87.713	279.817	-0.040	-0.071
-86.699	84.818	-0.204	0.222
-85.684	-200.000	-0.034	0.420
-84.670	800.000	-0.072	0.198
-83.655	120.619	-0.060	-0.074
-82.640	283.811	-0.044	0.078
-81.626	2.489	0.137	0.099
-80.611	112.595	0.081	0.097
-79.597	-126.768	-0.205	0.030
-78.582	-129.302	-0.194	0.027
-77.567	50.283	-0.140	0.131
-76.553	-103.622	-0.174	0.041
-75.538	-57.780	-0.226	-0.098
-74.524	-8.032	-0.263	0.177
-73.509	-24.836	0.283	0.167
-72.494	-200.000	0.038	0.323
-71.480	-111.251	-0.239	-0.049
-70.465	-123.474	0.339	-0.054
-69.451	-140.633	-0.074	-0.008
-68.436	555.770	0.075	-0.179
-67.422	800.000	-0.118	-0.372
-66.407	-200.000	0.027	-0.161
-65.392	800.000	0.066	0.189
-64.378	-121.968	-0.134	-0.022
-63.363	-200.000	0.008	0.237
-62.349	217.269	-0.067	0.107
-61.334	94.745	-0.675	-0.764
-60.319	-107.425	0.381	-0.083
-59.305	-200.000	-0.111	-0.679
-58.290	-27.856	0.866	0.500
-57.276	453.424	0.698	1.538
-56.261	-200.000	77.999	504.104
-55.246	476.145	1365.615	3073.208
-54.232	140.939	2615.210	3442.952
-53.217	110.827	2269.708	2719.978
-52.203	50.148	1713.196	1610.814
-51.188	42.417	1439.876	1303.814
-50.173	39.127	1395.013	1242.388
-49.159	56.672	1432.642	1388.385
-48.144	62.064	1451.856	1441.412
-47.130	42.935	1412.424	1282.052
-46.115	39.115	1395.863	1242.869
-45.100	39.034	1391.043	1238.022
-44.086	38.846	1388.487	1234.513
-43.071	38.880	1386.312	1232.743
-42.057	38.781	1384.066	1230.078
-41.042	38.808	1382.226	1228.559
-40.027	38.872	1381.000	1227.826
-39.013	38.936	1378.783	1226.203
-37.998	39.057	1376.572	1224.944
-36.984	38.967	1375.127	1223.052
-35.969	39.052	1372.941	1221.587
-34.954	39.147	1371.296	1220.661
-33.940	39.128	1369.913	1219.267
-32.925	39.195	1368.411	1218.297
-31.911	39.103	1367.314	1216.701
-30.896	39.174	1365.210	1215.220
-29.881	39.205	1364.221	1214.485
-28.867	39.176	1362.676	1212.882
-27.852	39.167	1361.269	1211.525
-26.838	39.188	1359.704	1210.212
-25.823	39.143	1357.943	1208.322
-24.809	39.092	1356.739	1206.885
-23.794	39.083	1355.603	1205.773
-22.779	39.089	1353.973	1204.314
-21.765	39.072	1352.848	1203.159
-20.750	39.097	1351.626	1202.180
-19.736	38.951	1349.858	1199.665
-18.721	38.987	1348.478	1198.611
-17.706	38.974	1347.454	1197.575
-16.692	38.899	1346.451	1196.180
-15.677	38.990	1345.494	1195.835
-14.663	38.936	1344.552	1194.619
-13.648	38.975	1342.480	1192.968
-12.633	38.911	1341.801	1191.934
-11.619	38.892	1341.154	1191.195
-10.604	38.829	1340.117	1189.843
-9.590	38.792	1339.231	1188.784
-8.575	38.896	1337.931	1188.212
-7.560	38.911	1336.957	1187.394
-6.546	38.745	1337.119	1186.487
-5.531	39.006	1335.361	1186.456
-4.517	38.979	1334.605	1185.573
-3.502	39.024	1333.202	1184.554
-2.487	38.932	1332.499	1183.328
-1.473	39.112	1328.653	1180.947
-0.458	38.633	1313.886	1164.926
0.556	34.089	1295.097	1123.822
1.571	29.060	1298.118	1096.473
2.586	26.378	1310.936	1091.042
3.600	23.944	1297.475	1065.192
4.615	16.986	1217.592	960.273
5.629	6.484	1133.404	838.193
6.644	1.289	1108.971	792.964
7.659	0.706	1106.542	788.118
8.673	0.625	1105.702	787.028
9.688	0.661	1104.741	786.461
10.702	0.922	1102.808	786.373
11.717	6.141	1110.225	818.831
12.731	14.618	1121.421	871.449
13.746	17.835	1124.926	890.921
14.761	17.518	1123.805	888.298
15.775	16.538	1122.334	881.948
16.790	15.574	1119.897	874.938
17.804	14.814	1118.545	869.851
18.819	14.550	1117.039	867.229
19.834	14.187	1115.464	864.047
20.848	13.863	1115.226	862.102
21.863	13.679	1114.335	860.384
22.877	13.526	1113.310	858.721
23.892	13.460	1112.859	857.959
24.907	13.453	1111.667	856.927
25.921	13.543	1111.028	856.820
26.936	13.592	1109.629	855.922
27.950	13.629	1109.179	855.688
28.965	13.613	1108.062	854.668
29.980	13.745	1106.769	854.276
30.994	13.679	1105.590	852.951
32.009	13.734	1104.679	852.453
33.023	13.609	1103.816	851.073
34.038	13.795	1102.459	850.906
35.053	13.559	1101.870	849.163
36.067	13.667	1100.733	848.767
37.082	13.765	1099.867	848.527
38.096	13.694	1099.276	847.632
39.111	13.599	1099.000	846.858
40.126	13.653	1097.419	845.838
41.140	13.493	1096.025	843.878
42.155	13.490	1094.794	842.837
43.169	13.408	1093.895	841.652
44.184	13.453	1092.574	840.793
45.199	13.512	1091.502	840.190
46.213	13.498	1090.272	839.101
47.228	13.641	1089.147	838.881
48.242	13.486	1088.633	837.630
49.257	13.589	1086.912	836.752
50.271	13.551	1086.285	836.002
51.286	13.620	1085.305	835.522
52.301	13.564	1084.505	834.550
53.315	13.498	1083.901	833.679
54.330	13.473	1082.169	832.148
55.344	13.487	1081.254	831.440
56.359	13.528	1080.716	831.162
57.374	13.479	1079.904	830.217
58.388	13.385	1078.915	828.911
59.403	13.380	1078.233	828.287
60.417	13.443	1077.504	827.972
61.432	13.417	1076.385	826.910
62.447	13.521	1075.350	826.561
63.461	13.376	1074.692	825.257
64.476	13.428	1073.325	824.393
65.490	13.397	1073.124	824.011
66.505	13.404	1072.631	823.594
67.520	13.551	1071.610	823.470
68.534	13.525	1070.901	822.723
69.549	13.532	1069.832	821.863
70.563	13.414	1069.158	820.685
71.578	13.385	1068.623	820.058
72.593	13.417	1067.533	819.312
73.607	13.359	1067.131	818.641
74.622	13.384	1066.144	817.934
75.636	13.320	1065.816	817.296
76.651	13.433	1064.880	817.064
77.666	13.381	1064.121	816.152
78.680	13.413	1063.286	815.596
79.695	13.361	1062.878	814.954
80.709	13.572	1062.028	815.268
81.724	13.551	1061.379	814.596
82.739	13.414	1060.917	813.498
83.753	13.477	1059.900	812.955
84.768	13.619	1058.513	812.515
85.782	13.554	1057.976	811.711
86.797	13.646	1056.870	811.241
87.812	13.567	1056.052	810.155
88.826	13.491	1055.181	809.045
89.841	13.591	1054.164	808.682
90.855	13.703	1052.977	808.245
91.870	13.692	1052.382	807.661
92.884	13.542	1051.678	806.320
93.899	13.593	1050.704	805.754
94.914	13.703	1049.685	805.433
95.928	13.714	1048.788	804.726
96.943	13.629	1047.937	803.593
97.957	13.580	1046.970	802.539
98.972	13.676	1046.409	802.502
99.987	13.598	1045.345	801.241
101.001	13.539	1044.435	800.188
102.016	13.655	1043.298	799.806
103.030	13.697	1042.578	799.383
104.045	13.749	1042.151	799.236
105.060	13.655	1041.213	797.994
106.074	13.671	1040.241	797.255
107.089	13.516	1039.015	795.500
108.103	13.527	1038.113	794.791
109.118	13.496	1037.008	793.727
110.133	13.514	1036.476	793.335
111.147	13.475	1036.163	792.841
112.162	13.616	1034.882	792.466
113.176	13.585	1034.084	791.636
114.191	13.620	1032.889	790.815
115.206	13.620	1031.849	789.949
116.220	13.569	1031.473	789.349
117.235	13.711	1029.984	788.814
118.249	13.564	1029.725	787.850
119.264	13.630	1028.702	787.313
120.279	13.542	1027.913	786.218
121.293	13.618	1027.025	785.829
122.308	13.701	1025.948	785.329
123.322	13.589	1025.043	784.038
124.337	13.525	1024.103	782.948
125.352	13.545	1023.150	782.243
126.366	13.580	1021.615	781.164
127.381	13.632	1020.294	780.331
128.395	13.597	1019.655	779.611
129.410	13.677	1018.678	779.168
130.424	13.584	1018.238	778.327
131.439	13.688	1016.977	777.780
132.454	13.718	1016.321	777.352
133.468	13.702	1015.315	776.437
134.483	13.799	1013.969	775.793
135.497	13.776	1013.404	775.185
136.512	13.676	1012.586	774.027
137.527	13.782	1011.583	773.686
138.541	13.715	1011.232	773.037
139.556	13.831	1010.161	772.687
140.570	13.822	1009.292	771.913
141.585	13.817	1008.424	771.157
142.600	13.804	1007.580	770.383
143.614	13.805	1006.646	769.604
144.629	13.846	1006.104	769.314
145.643	13.946	1004.643	768.590
146.658	13.786	1003.953	767.255
147.673	13.784	1002.995	766.448
148.687	13.810	1001.940	765.690
149.702	13.720	1001.182	764.630
150.716	13.911	1000.031	764.561
151.731	13.773	999.604	763.536
152.746	13.743	998.554	762.526
153.760	13.815	998.131	762.468
154.775	13.840	997.718	762.198
155.789	13.767	997.188	761.389
156.804	13.800	996.342	760.831
157.819	13.952	995.225	760.605
158.833	13.881	994.596	759.730
159.848	13.978	993.918	759.592
160.862	13.944	993.002	758.668
161.877	13.875	991.816	757.381
162.892	13.842	990.821	756.403
163.906	13.884	989.962	755.873
164.921	13.822	989.132	754.887
165.935	13.916	988.256	754.580
166.950	13.888	987.660	753.931
167.964	13.896	986.686	753.156
168.979	13.973	985.697	752.684
169.994	13.956	984.448	751.588
171.008	13.923	984.158	751.152
172.023	13.923	983.048	750.235
173.037	13.996	982.316	749.940
174.052	14.033	981.691	749.565
175.067	13.931	981.275	748.721
176.081	13.986	980.331	748.185
177.096	14.060	979.899	748.120
178.110	13.975	979.430	747.313
179.125	13.906	979.085	746.672
180.140	14.037	977.787	746.206
181.154	14.016	977.836	746.083
182.169	14.119	977.056	745.885
183.183	14.166	976.268	745.428
184.198	14.133	975.659	744.747
185.213	14.239	974.499	744.272
186.227	14.194	974.324	743.869
187.242	14.247	973.513	743.422
188.256	14.383	972.646	743.300
189.271	14.172	972.118	741.891
190.286	14.186	971.318	741.278
191.300	14.168	970.703	740.661
192.315	14.160	969.510	739.651
193.329	14.164	969.233	739.390
194.344	14.116	968.549	738.589
195.359	14.216	967.880	738.459
196.373	14.128	967.627	737.812
197.388	14.337	966.768	738.014
198.402	14.331	966.204	737.493
199.417	14.425	965.634	737.410
200.432	14.361	964.835	736.450
201.446	14.392	964.150	735.999
202.461	14.448	963.669	735.815
203.475	14.478	963.663	735.877
204.490	14.413	962.552	734.679
205.504	14.308	961.566	733.398
206.519	14.442	960.471	733.087
207.534	14.431	960.321	732.860
208.548	14.452	959.668	732.388
209.563	14.395	958.741	731.366
210.577	14.521	958.129	731.385
211.592	14.462	957.318	730.442
212.607	14.607	956.257	730.205
213.621	14.664	955.711	729.972
214.636	14.666	954.927	729.316
215.650	14.503	954.257	728.031
216.665	14.623	953.533	727.935
217.680	14.698	952.551	727.450
218.694	14.796	951.840	727.270
219.709	14.697	951.895	726.817
220.723	14.645	950.895	725.760
221.738	14.682	950.075	725.232
222.753	14.684	949.320	724.600
223.767	14.757	948.442	724.184
224.782	14.713	948.152	723.705
225.796	14.790	948.036	723.889
226.811	14.744	946.887	722.748
227.826	14.741	946.226	722.164
228.840	14.696	945.400	721.276
229.855	14.924	944.298	721.357
230.869	14.722	943.755	720.006
231.884	14.807	942.960	719.704
232.899	14.774	942.017	718.776
233.913	14.732	941.428	718.081
234.928	14.716	940.826	717.490
235.942	14.843	940.509	717.733
236.957	14.772	939.885	716.886
237.972	14.777	939.402	716.478
238.986	14.787	938.435	715.721
240.001	14.842	938.047	715.594
241.015	14.820	937.015	714.648
242.030	14.878	936.717	714.609
243.045	14.855	935.753	713.713
244.059	14.868	935.311	713.368
245.074	15.037	934.408	713.336
246.088	14.906	933.691	712.165
247.103	15.162	932.600	712.361
248.117	15.015	932.528	711.618
249.132	15.136	931.754	711.479
250.147	15.157	931.267	711.133
251.161	15.083	930.900	710.474
252.176	15.093	930.530	710.173
253.190	15.250	929.387	709.900
254.205	15.233	928.450	709.049
255.220	15.292	927.983	708.879
256.234	15.367	927.074	708.439
257.249	15.327	926.352	707.655
258.263	15.368	925.797	707.343
259.278	15.201	924.836	705.844
260.293	15.411	924.715	706.574
261.307	15.264	924.153	705.463
262.322	15.409	923.088	705.195
263.336	15.414	922.012	704.332
264.351	15.466	921.678	704.233
265.366	15.316	921.370	703.309
266.380	15.387	920.577	702.938
267.395	15.494	919.596	702.574
268.409	15.489	918.831	701.905
269.424	15.424	918.056	700.980
270.439	15.524	917.398	700.835
271.453	15.478	916.670	700.022
272.468	15.364	916.554	699.397
273.482	15.477	915.579	699.064
274.497	15.576	914.937	698.921
275.512	15.553	914.677	698.566
276.526	15.523	913.930	697.810
277.541	15.552	913.662	697.662
278.555	15.695	912.500	697.307
279.570	15.605	912.104	696.569
280.585	15.745	911.020	696.261
281.599	15.752	910.153	695.564
282.614	15.702	909.647	694.910
283.628	15.679	909.123	694.354
284.643	15.658	908.606	693.809
285.657	15.695	907.650	693.169
286.672	15.794	907.204	693.176
287.687	15.645	906.714	692.129
288.701	15.847	906.289	692.573
289.716	15.790	905.489	691.666
290.730	15.768	904.957	691.110
291.745	15.810	904.011	690.497
292.760	15.916	903.640	690.586
293.774	15.917	903.401	690.348
294.789	15.953	902.486	689.736
295.803	15.889	901.424	688.601
296.818	15.908	900.933	688.242
297.833	15.777	900.203	687.088
298.847	15.890	899.496	686.952
299.862	15.732	899.579	686.306
300.876	15.897	898.774	686.305
301.891	15.982	897.786	685.837
302.906	15.887	897.528	685.192
303.920	16.080	896.847	685.398
304.935	15.974	896.714	684.802
305.949	15.907	895.970	683.901
306.964	16.059	894.808	683.571
307.979	16.118	894.308	683.370
308.993	16.084	893.845	682.817
310.008	16.223	892.842	682.552
311.022	16.152	892.639	682.047
312.037	16.073	892.091	681.249
313.052	16.079	891.242	680.566
314.066	16.112	890.595	680.143
315.081	16.226	890.176	680.224
316.095	16.247	889.190	679.495
317.110	16.095	889.162	678.802
318.125	16.140	888.576	678.476
319.139	16.154	887.905	677.961
320.154	16.175	887.484	677.660
321.168	16.248	886.313	677.001
322.183	16.273	886.041	676.832
323.197	16.263	886.053	676.742
324.212	16.275	885.338	676.185
325.227	16.259	884.475	675.400
326.241	16.248	884.222	675.105
327.256	16.208	883.522	674.349
328.270	16.398	882.694	674.418
329.285	16.153	882.388	673.145
330.300	16.311	881.747	673.228
331.314	16.357	880.934	672.732
332.329	16.266	880.914	672.294
333.343	16.448	879.792	672.102
334.358	16.442	879.257	671.609
335.373	16.411	879.130	671.328
336.387	16.375	879.051	671.068
337.402	16.451	878.316	670.749
338.416	16.429	878.499	670.743
339.431	16.609	877.628	670.731
340.446	16.463	877.369	669.895
341.460	16.585	876.842	669.915
342.475	16.622	876.535	669.768
343.489	16.614	876.124	669.365
344.504	16.680	875.509	669.094
345.519	16.636	875.178	668.609
346.533	16.573	874.315	667.643
347.548	16.631	873.944	667.530
348.562	16.598	873.617	667.090
349.577	16.578	872.732	666.278
350.592	16.725	872.063	666.286
351.606	16.602	871.515	665.323
352.621	16.543	870.587	664.323
353.635	16.741	869.958	664.562
354.650	16.763	869.302	664.091
355.665	16.720	868.821	663.493
356.679	16.721	868.042	662.844
357.694	16.875	867.343	662.854
358.708	16.801	866.861	662.141
359.723	16.907	866.197	661.987
360.738	16.814	865.660	661.154
361.752	16.723	865.118	660.328
362.767	16.769	864.272	659.801
363.781	16.808	864.061	659.735
364.796	16.971	863.196	659.651
365.810	17.071	862.834	659.706
366.825	17.109	862.394	659.457
367.840	17.096	861.991	659.040
368.854	16.963	861.485	658.080
369.869	16.956	861.191	657.768
370.883	17.059	860.381	657.492
371.898	17.157	860.208	657.680
372.913	17.240	859.550	657.440
373.927	17.140	859.019	656.589
374.942	17.194	858.731	656.520
375.956	17.060	858.536	655.794
376.971	17.238	857.798	655.861
377.986	17.219	857.496	655.498
379.000	17.229	857.056	655.144
380.015	17.299	856.552	654.969
381.029	17.367	855.763	654.570
382.044	17.355	855.067	653.931
383.059	17.353	854.747	653.620
384.073	17.268	854.130	652.767
385.088	17.165	853.623	651.926
386.102	17.269	852.889	651.705
387.117	17.312	852.411	651.447
388.132	17.438	851.434	651.125
389.146	17.284	851.059	650.194
390.161	17.199	850.417	649.320
391.175	17.497	849.952	650.043
392.190	17.332	849.575	649.070
393.205	17.390	849.043	648.825
394.219	17.390	848.664	648.479
395.234	17.444	848.320	648.364
396.248	17.342	847.773	647.503
397.263	17.403	847.301	647.315
398.278	17.295	847.188	646.760
399.292	17.283	846.717	646.298
400.307	17.293	846.108	645.813
401.321	17.304	845.742	645.519
402.336	17.471	845.026	645.549
403.350	17.502	844.531	645.231
404.365	17.541	844.133	645.019
405.380	17.652	843.213	644.680
406.394	17.651	842.671	644.202
407.409	17.594	842.469	643.777
408.423	17.613	842.235	643.612
409.438	17.675	841.648	643.339
410.453	17.746	841.025	643.076
411.467	17.687	840.893	642.696
412.482	17.686	840.299	642.179
413.496	17.926	839.874	642.701
414.511	17.776	839.733	641.974
415.526	17.991	838.737	641.964
416.540	18.030	838.290	641.711
417.555	17.794	838.277	640.757
418.569	17.873	837.711	640.566
419.584	17.901	836.968	640.044
420.599	17.915	836.751	639.873
421.613	95.471	1274.407	1394.905
422.628	82.613	1338.192	1395.045
