DTS Sentinel unit serial number:	SN413079Multiplexer serial number:	ORYXHardware model number:	OX4-SRSoftware version number:	ORYX F/W v4.00 Oryx Data Collector v3.7.2.0data status	okinstallation	princeton_trtdifferential loss correction	single-endedforward channel	channel 1reverse channel	N/Adate	2019/09/14time	02:22:35forward acquisition time	60.00reverse acquisition time	0.00gamma	496.2192k internal	0.2337k external	0.2337temperature offset calibration	1.0077default loss term (dB/km)	0.3790temperature slope calibration	1.0000multiplexer offset coefficient	1.0000multiplexer slope coefficient	1.0000fibre end	0.00T internal ref (°C)	26.52T ext. ref 1 (°C)	3.22T ext. ref 2 (°C)	21.50length (m)	temperature (°C)	Stokes	anti-Stokes-747.200	-103.933	-0.230	0.054
-746.185	-200.000	-0.023	0.386
-745.171	15.088	0.131	0.103
-744.156	-43.172	-0.240	0.122
-743.142	-63.114	-0.091	0.038
-742.127	-142.044	-0.293	-0.029
-741.112	-18.414	-0.070	0.044
-740.098	699.680	-0.094	0.249
-739.083	-61.519	-0.225	0.095
-738.069	-150.904	0.341	-0.026
-737.054	-200.000	-0.011	-0.136
-736.039	-31.692	0.067	0.038
-735.025	-163.568	-0.174	-0.008
-734.010	800.000	-0.127	-0.358
-732.996	-29.762	-0.140	-0.080
-731.981	-76.407	-0.384	-0.135
-730.966	-17.870	0.082	-0.052
-729.952	-91.293	-0.131	0.038
-728.937	-137.820	-0.328	0.037
-727.923	60.956	0.449	-0.447
-726.908	-78.497	-0.236	0.081
-725.894	138.558	-0.116	0.153
-724.879	73.601	-0.160	-0.168
-723.864	-130.909	0.187	0.025
-722.850	-200.000	-0.038	-0.355
-721.835	-200.000	0.022	-0.119
-720.821	-148.337	-0.118	-0.010
-719.806	101.270	0.055	0.064
-718.791	24.038	-0.245	0.203
-717.777	-103.659	-0.156	0.037
-716.762	800.000	-0.083	-0.339
-715.748	15.487	0.060	-0.047
-714.733	-200.000	-0.022	0.223
-713.718	-200.000	0.022	-0.249
-712.704	-200.000	-0.026	-0.168
-711.689	-200.000	0.002	-0.032
-710.675	110.042	-0.124	-0.149
-709.660	-200.000	-0.004	-0.142
-708.645	-72.381	-0.278	0.103
-707.631	-70.273	0.153	-0.058
-706.616	-80.605	0.238	-0.079
-705.602	511.989	-0.064	0.149
-704.587	-200.000	0.042	0.238
-703.572	62.174	-0.167	-0.167
-702.558	132.262	-0.045	-0.058
-701.543	-200.000	0.035	0.278
-700.529	800.000	-0.043	-0.170
-699.514	-33.558	-0.339	-0.187
-698.499	800.000	-0.021	-0.071
-697.485	-200.000	0.048	-0.576
-696.470	-103.768	-0.261	-0.061
-695.456	-200.000	0.008	0.151
-694.441	-107.318	-0.192	0.042
-693.426	369.182	-0.068	0.138
-692.412	745.994	-0.044	-0.119
-691.397	217.206	-0.083	0.132
-690.383	117.961	-0.119	0.147
-689.368	26.513	0.165	0.138
-688.354	-130.498	0.132	0.018
-687.339	92.457	0.233	-0.263
-686.324	539.563	-0.109	-0.259
-685.310	-146.188	-0.200	0.018
-684.295	-110.177	0.222	0.046
-683.281	-48.524	-0.309	-0.149
-682.266	47.083	0.096	0.089
-681.251	-200.000	-0.064	0.301
-680.237	441.792	0.023	0.050
-679.222	198.368	-0.202	0.309
-678.208	-72.472	-0.056	-0.021
-677.193	253.150	0.151	-0.259
-676.178	-64.126	-0.151	-0.061
-675.164	800.000	-0.126	-0.437
-674.149	-73.927	0.360	-0.131
-673.135	-123.536	0.062	-0.010
-672.120	-200.000	-0.085	-0.410
-671.105	11.903	-0.312	0.240
-670.091	-200.000	0.006	-0.083
-669.076	75.217	0.040	-0.042
-668.062	-85.464	-0.233	0.073
-667.047	235.588	0.179	0.296
-666.032	314.480	-0.170	0.321
-665.018	225.046	-0.238	0.386
-664.003	-55.273	0.291	-0.131
-662.989	220.253	-0.112	0.179
-661.974	-81.844	0.282	0.092
-660.959	-46.144	-0.118	-0.058
-659.945	-83.286	0.138	-0.044
-658.930	-53.124	-0.247	0.114
-657.916	187.680	-0.084	-0.125
-656.901	339.332	-0.179	0.349
-655.886	646.138	-0.072	-0.183
-654.872	-200.000	0.058	-0.385
-653.857	800.000	-0.046	-0.156
-652.843	453.031	-0.042	-0.093
-651.828	14.067	-0.225	0.175
-650.814	28.713	-0.077	-0.066
-649.799	155.864	-0.103	-0.142
-648.784	-29.563	-0.118	-0.067
-647.770	-5.847	0.079	0.054
-646.755	800.000	-0.067	0.283
-645.741	271.816	-0.015	-0.026
-644.726	125.394	0.081	-0.102
-643.711	-122.368	0.222	-0.036
-642.697	64.113	-0.193	-0.194
-641.682	-200.000	0.034	-0.153
-640.668	-85.303	0.253	-0.079
-639.653	30.510	0.086	-0.073
-638.638	800.000	0.035	0.121
-637.624	58.913	0.087	0.085
-636.609	-60.861	0.111	-0.047
-635.595	-71.273	-0.380	-0.142
-634.580	37.586	0.278	-0.246
-633.565	83.841	-0.054	-0.058
-632.551	800.000	0.096	-0.272
-631.536	-73.539	-0.149	0.055
-630.522	-159.806	-0.339	-0.019
-629.507	66.252	0.012	-0.013
-628.492	111.223	0.186	-0.224
-627.478	-166.824	0.344	0.014
-626.463	194.905	0.061	-0.093
-625.449	-200.000	-0.003	-0.035
-624.434	275.587	-0.162	-0.287
-623.419	-161.582	-0.143	0.007
-622.405	-75.842	0.092	-0.033
-621.390	-65.964	-0.509	0.203
-620.376	254.033	0.106	0.180
-619.361	800.000	-0.022	-0.072
-618.346	-135.056	0.137	-0.017
-617.332	136.446	0.279	-0.364
-616.317	-200.000	-0.032	-0.165
-615.303	3.939	0.176	-0.128
-614.288	-5.800	0.236	-0.161
-613.273	-200.000	-0.009	0.171
-612.259	800.000	0.119	-0.368
-611.244	-53.899	-0.071	-0.032
-610.230	45.367	-0.134	0.123
-609.215	800.000	-0.028	-0.078
-608.201	-50.033	0.099	-0.047
-607.186	-40.990	0.315	-0.163
-606.171	146.151	0.208	-0.278
-605.157	143.114	0.206	-0.273
-604.142	-32.983	0.258	0.143
-603.128	105.684	-0.100	0.118
-602.113	87.817	0.101	-0.112
-601.098	-60.323	-0.237	0.101
-600.084	-116.660	-0.207	0.038
-599.069	800.000	0.071	-0.276
-598.055	222.778	-0.074	0.119
-597.040	345.815	0.141	-0.277
-596.025	-52.416	0.183	-0.084
-595.011	-31.903	0.052	0.029
-593.996	-148.147	-0.290	-0.024
-592.982	-28.482	-0.216	0.125
-591.967	-83.904	-0.200	-0.063
-590.952	-200.000	-0.048	0.495
-589.938	800.000	0.107	-0.315
-588.923	800.000	0.097	0.364
-587.909	306.098	-0.108	0.200
-586.894	-120.172	-0.154	-0.026
-585.879	-65.933	0.302	0.121
-584.865	-94.356	-0.363	-0.099
-583.850	-102.254	-0.414	0.099
-582.836	-24.958	-0.246	0.146
-581.821	244.442	0.208	0.349
-580.806	-11.245	-0.096	0.063
-579.792	-29.942	0.170	0.097
-578.777	-42.083	-0.044	0.022
-577.763	800.000	0.043	-0.152
-576.748	144.151	0.210	-0.280
-575.733	42.862	0.139	0.126
-574.719	379.824	-0.084	0.172
-573.704	300.484	0.123	0.226
-572.690	651.128	-0.093	-0.238
-571.675	-0.611	0.136	0.096
-570.661	-200.000	0.003	0.082
-569.646	404.347	-0.092	-0.194
-568.631	-200.000	-0.005	-0.212
-567.617	30.172	-0.151	-0.129
-566.602	-24.637	-0.292	0.173
-565.588	-36.908	-0.266	-0.142
-564.573	-12.830	-0.134	-0.087
-563.558	134.832	-0.079	-0.102
-562.544	9.809	0.290	-0.219
-561.529	800.000	0.064	-0.217
-560.515	800.000	0.056	-0.164
-559.500	174.610	-0.248	-0.358
-558.485	-61.481	0.116	-0.049
-557.471	76.072	0.103	-0.108
-556.456	-130.921	-0.133	0.018
-555.442	-200.000	-0.013	-0.172
-554.427	-44.577	0.167	-0.083
-553.412	-41.347	-0.335	-0.172
-552.398	-76.674	0.416	0.145
-551.383	11.632	-0.174	0.133
-550.369	-137.953	0.317	-0.035
-549.354	-200.000	-0.023	-0.195
-548.339	-200.000	-0.010	0.369
-547.325	-79.409	-0.199	-0.067
-546.310	92.072	0.038	-0.043
-545.296	-113.165	-0.138	-0.027
-544.281	-104.041	0.173	0.040
-543.266	124.663	-0.050	0.063
-542.252	-148.949	0.176	0.014
-541.237	595.013	-0.071	-0.175
-540.223	-136.594	-0.329	0.038
-539.208	800.000	-0.033	0.102
-538.193	800.000	0.106	0.427
-537.179	800.000	0.074	0.226
-536.164	-31.760	-0.257	0.144
-535.150	24.498	-0.213	-0.175
-534.135	195.182	-0.011	0.016
-533.121	-80.950	-0.101	0.033
-532.106	800.000	0.037	0.142
-531.091	227.352	-0.146	0.236
-530.077	800.000	0.069	-0.281
-529.062	-29.863	-0.154	0.087
-528.048	45.096	-0.044	0.040
-527.033	5.421	0.322	0.236
-526.018	282.971	-0.130	0.233
-525.004	-80.311	0.177	0.059
-523.989	-37.026	0.040	-0.021
-522.975	155.392	0.066	-0.090
-521.960	-180.276	-0.402	-0.008
-520.945	323.764	0.166	0.315
-519.931	-61.278	-0.257	-0.108
-518.916	768.444	0.145	-0.392
-517.902	-139.115	0.202	0.022
-516.887	8.279	0.169	-0.127
-515.872	800.000	-0.066	-0.285
-514.858	-51.925	-0.240	-0.111
-513.843	595.338	-0.093	-0.230
-512.829	117.335	0.058	-0.071
-511.814	-22.048	0.146	-0.088
-510.799	-118.752	-0.324	-0.057
-509.785	-139.736	-0.124	-0.013
-508.770	-80.601	-0.167	-0.055
-507.756	-200.000	-0.015	0.288
-506.741	-150.464	0.191	-0.015
-505.726	-97.950	-0.364	0.094
-504.712	-57.338	0.291	-0.127
-503.697	-141.336	-0.055	0.006
-502.683	-69.157	-0.191	0.073
-501.668	-91.889	-0.130	0.037
-500.653	667.946	0.052	0.135
-499.639	84.305	-0.134	0.145
-498.624	-122.449	-0.296	0.048
-497.610	800.000	-0.017	0.057
-496.595	242.672	0.051	-0.085
-495.581	347.456	0.058	0.113
-494.566	-34.730	0.382	-0.207
-493.551	112.838	-0.180	-0.216
-492.537	-169.193	0.437	-0.016
-491.522	27.510	0.126	-0.105
-490.508	-140.433	-0.237	-0.025
-489.493	95.133	-0.176	-0.199
-488.478	0.086	0.051	-0.036
-487.464	-96.315	-0.359	0.094
-486.449	-102.820	-0.423	0.100
-485.435	800.000	0.115	0.330
-484.420	-200.000	0.073	0.597
-483.405	95.590	-0.222	-0.251
-482.391	707.295	-0.134	-0.352
-481.376	800.000	0.044	0.185
-480.362	132.206	0.075	-0.095
-479.347	99.883	-0.141	-0.162
-478.332	800.000	-0.028	-0.088
-477.318	85.586	-0.150	-0.164
-476.303	-149.992	-0.208	0.016
-475.289	87.132	0.031	-0.034
-474.274	-200.000	0.015	0.296
-473.259	-73.982	-0.099	-0.036
-472.245	588.040	-0.079	0.192
-471.230	101.340	0.096	-0.111
-470.216	94.353	-0.104	-0.118
-469.201	-68.163	0.211	0.082
-468.186	-98.640	-0.107	0.027
-467.172	-94.681	0.303	0.082
-466.157	37.498	-0.202	0.178
-465.143	11.746	-0.054	-0.041
-464.128	-200.000	0.031	-0.322
-463.113	-70.715	-0.236	-0.088
-462.099	-47.826	-0.295	0.142
-461.084	800.000	-0.148	0.420
-460.070	730.333	-0.170	0.452
-459.055	800.000	-0.161	-0.450
-458.040	-34.130	0.353	-0.193
-457.026	27.820	-0.217	0.182
-456.011	242.243	0.164	-0.272
-454.997	-176.043	-0.505	0.013
-453.982	-130.698	0.306	-0.041
-452.968	-200.000	-0.027	-0.272
-451.953	277.202	0.071	0.126
-450.938	-33.802	0.203	0.111
-449.924	7.612	0.376	0.279
-448.909	800.000	0.045	0.186
-447.895	-27.206	0.159	0.092
-446.880	-129.351	0.354	0.049
-445.865	-38.086	-0.046	-0.024
-444.851	-200.000	-0.025	-0.113
-443.836	-74.048	-0.233	-0.084
-442.822	75.165	0.229	0.239
-441.807	659.874	0.105	-0.267
-440.792	-200.000	0.017	-0.171
-439.778	-109.441	0.070	0.015
-438.763	-68.632	0.184	0.071
-437.749	-200.000	0.007	0.102
-436.734	-124.358	0.054	-0.008
-435.719	49.915	-0.216	0.202
-434.705	208.366	-0.067	-0.104
-433.690	44.494	-0.254	0.231
-432.676	543.669	0.030	-0.071
-431.661	-45.741	-0.202	-0.099
-430.646	-200.000	0.010	-0.079
-429.632	-106.219	-0.124	0.028
-428.617	-200.000	-0.046	0.540
-427.603	61.464	-0.118	-0.116
-426.588	-84.751	0.029	-0.009
-425.573	394.973	-0.033	0.067
-424.559	123.823	0.095	-0.118
-423.544	252.043	-0.181	-0.305
-422.530	-69.000	0.135	-0.052
-421.515	-38.058	0.243	-0.128
-420.500	-40.228	0.197	0.102
-419.486	211.922	-0.180	0.281
-418.471	-21.409	0.447	0.270
-417.457	33.689	0.281	-0.242
-416.442	-82.701	-0.174	-0.056
-415.428	800.000	0.032	0.099
-414.413	-28.965	-0.176	0.100
-413.398	76.944	0.155	-0.163
-412.384	78.383	0.170	-0.180
-411.369	800.000	0.076	0.278
-410.355	87.793	0.144	0.158
-409.340	-189.496	0.341	-0.004
-408.325	-200.000	0.020	-0.101
-407.311	-200.000	-0.021	-0.330
-406.296	-61.768	0.080	0.033
-405.282	-200.000	-0.018	-0.289
-404.267	-49.880	-0.211	-0.099
-403.252	-200.000	0.002	0.123
-402.238	40.457	-0.208	-0.185
-401.223	249.214	0.078	-0.131
-400.209	52.131	0.193	-0.182
-399.194	-200.000	-0.061	-0.404
-398.179	26.231	-0.169	0.139
-397.165	800.000	0.096	0.359
-396.150	173.711	-0.157	-0.225
-395.136	22.255	0.253	-0.205
-394.121	-25.199	-0.294	-0.173
-393.106	-49.983	-0.128	0.060
-392.092	209.801	0.074	-0.115
-391.077	-200.000	-0.011	0.423
-390.063	-157.299	0.276	-0.017
-389.048	-200.000	-0.063	0.376
-388.033	-119.428	-0.017	-0.003
-387.019	-194.298	0.454	0.004
-386.004	7.395	0.156	-0.115
-384.990	800.000	0.023	0.063
-383.975	403.791	0.033	-0.070
-382.960	-200.000	0.004	0.074
-381.946	-8.108	0.100	0.067
-380.931	122.163	-0.051	-0.063
-379.917	-82.827	0.273	-0.087
-378.902	339.768	0.131	-0.253
-377.888	800.000	0.056	-0.233
-376.873	-92.744	-0.226	0.063
-375.858	-153.644	-0.199	0.014
-374.844	800.000	-0.061	0.212
-373.829	800.000	-0.091	0.340
-372.815	-97.085	0.140	0.036
-371.800	-97.358	-0.211	0.055
-370.785	-200.000	0.001	0.031
-369.771	31.436	-0.354	-0.301
-368.756	-97.540	0.396	-0.102
-367.742	237.876	0.166	-0.273
-366.727	-134.797	-0.176	0.021
-365.712	800.000	-0.032	-0.090
-364.698	-102.792	-0.128	0.030
-363.683	-86.718	0.081	0.024
-362.669	248.837	0.106	-0.177
-361.654	-200.000	0.061	-0.325
-360.639	298.367	0.212	0.385
-359.625	-77.373	-0.017	0.006
-358.610	-67.019	0.107	-0.042
-357.596	537.691	0.082	-0.193
-356.581	-200.000	-0.009	-0.069
-355.566	-110.489	0.227	0.047
-354.552	-56.928	0.134	0.059
-353.537	-200.000	0.052	0.261
-352.523	93.108	-0.159	0.178
-351.508	387.533	0.026	0.054
-350.493	18.819	0.120	-0.095
-349.479	-182.310	-0.149	0.003
-348.464	-8.317	0.095	-0.063
-347.450	203.219	0.088	0.135
-346.435	49.036	-0.201	0.186
-345.420	-200.000	-0.025	0.177
-344.406	-84.758	0.184	-0.057
-343.391	170.525	-0.116	-0.164
-342.377	159.082	-0.033	0.045
-341.362	323.592	0.087	0.164
-340.348	33.860	0.226	-0.195
-339.333	69.943	0.191	0.195
-338.318	52.691	-0.141	-0.133
-337.304	68.292	-0.179	-0.181
-336.289	-19.395	0.079	0.049
-335.275	592.162	0.006	0.014
-334.260	-200.000	0.005	-0.091
-333.245	96.416	-0.118	0.133
-332.231	14.417	0.300	0.232
-331.216	-166.115	-0.182	0.008
-330.202	800.000	-0.018	0.068
-329.187	2.680	-0.105	0.075
-328.172	-191.534	0.067	-0.001
-327.158	169.388	0.119	-0.168
-326.143	127.195	-0.169	0.212
-325.129	-123.008	0.097	0.015
-324.114	-200.000	0.028	0.415
-323.099	-17.704	0.083	-0.052
-322.085	-200.000	-0.016	-0.182
-321.070	-200.000	-0.036	-0.563
-320.056	253.210	-0.148	0.249
-319.041	-89.908	0.325	-0.094
-318.026	145.698	0.063	0.084
-317.012	21.224	0.307	-0.246
-315.997	-1.703	0.307	0.214
-314.983	800.000	0.095	0.315
-313.968	-47.641	0.095	-0.045
-312.953	-200.000	0.046	-0.336
-311.939	800.000	0.023	-0.068
-310.924	80.690	0.142	-0.151
-309.910	160.587	0.138	0.190
-308.895	-147.846	0.193	0.016
-307.880	-90.574	0.212	-0.061
-306.866	546.442	-0.100	0.237
-305.851	496.230	0.048	0.108
-304.837	-38.170	0.161	0.084
-303.822	-91.877	-0.132	0.037
-302.807	800.000	0.020	-0.059
-301.793	-105.180	-0.184	0.041
-300.778	-67.741	-0.409	-0.158
-299.764	-1.211	-0.039	0.027
-298.749	-21.242	-0.300	-0.181
-297.735	209.342	-0.098	-0.152
-296.720	-75.014	0.115	-0.041
-295.705	-200.000	-0.001	0.270
-294.691	-128.995	-0.086	0.012
-293.676	265.069	-0.131	-0.226
-292.662	7.823	0.076	0.056
-291.647	-1.564	-0.179	-0.124
-290.632	22.353	-0.116	-0.093
-289.618	66.728	0.436	0.437
-288.603	-9.612	0.202	0.133
-287.589	105.575	0.183	-0.214
-286.574	800.000	-0.002	0.008
-285.559	-9.583	-0.208	0.137
-284.545	-20.194	0.198	-0.120
-283.530	-79.353	0.262	-0.087
-282.516	800.000	0.043	0.182
-281.501	-200.000	0.028	0.259
-280.486	-3.994	-0.186	0.127
-279.472	-56.017	-0.295	0.130
-278.457	-20.796	0.082	-0.050
-277.443	117.702	-0.166	0.202
-276.428	84.566	-0.069	-0.075
-275.413	-22.972	0.359	-0.213
-274.399	-10.665	-0.143	-0.093
-273.384	176.874	0.033	0.048
-272.370	-60.661	-0.183	0.076
-271.355	248.646	0.031	-0.052
-270.340	134.909	-0.039	-0.050
-269.326	74.661	-0.306	0.318
-268.311	-200.000	0.019	0.152
-267.297	92.765	0.118	-0.132
-266.282	424.711	0.173	0.367
-265.267	572.490	0.071	-0.170
-264.253	258.510	0.177	0.301
-263.238	-200.000	-0.033	0.166
-262.224	427.546	0.123	0.262
-261.209	63.734	0.145	0.144
-260.195	52.909	-0.157	-0.148
-259.180	-200.000	-0.004	0.071
-258.165	-200.000	0.011	-0.091
-257.151	-102.126	-0.185	0.044
-256.136	86.999	0.059	0.064
-255.122	37.982	-0.079	0.069
-254.107	4.146	0.285	0.205
-253.092	800.000	0.019	0.067
-252.078	-29.105	0.173	-0.098
-251.063	-68.338	-0.215	-0.082
-250.049	-200.000	-0.016	0.346
-249.034	223.348	0.096	-0.152
-248.019	-200.000	0.038	0.300
-247.005	594.344	-0.164	-0.398
-245.990	43.581	-0.153	0.137
-244.976	186.937	-0.139	-0.204
-243.961	-56.254	0.168	0.073
-242.946	34.053	-0.200	-0.172
-241.932	-200.000	-0.018	0.100
-240.917	-143.415	-0.086	0.008
-239.903	227.521	-0.177	-0.283
-238.888	-64.812	-0.204	-0.081
-237.873	-200.000	-0.056	-0.334
-236.859	-172.147	-0.283	0.009
-235.844	-200.000	-0.038	0.257
-234.830	-84.427	0.093	0.029
-233.815	612.346	0.036	-0.089
-232.800	-200.000	-0.018	-0.120
-231.786	-200.000	-0.025	0.107
-230.771	800.000	-0.021	0.066
-229.757	97.047	0.135	0.153
-228.742	62.233	0.239	0.234
-227.727	-24.523	-0.218	-0.128
-226.713	-117.424	-0.237	0.042
-225.698	-161.853	-0.156	-0.008
-224.684	-125.894	0.118	0.017
-223.669	37.401	0.109	0.095
-222.655	52.648	-0.273	0.257
-221.640	236.325	-0.076	-0.123
-220.625	5.162	0.229	0.166
-219.611	0.595	-0.277	0.195
-218.596	-200.000	0.016	-0.209
-217.582	110.243	0.044	-0.052
-216.567	147.301	-0.090	-0.119
-215.552	83.570	0.348	-0.373
-214.538	-79.396	-0.259	-0.086
-213.523	348.394	0.154	0.300
-212.509	-103.392	0.165	-0.038
-211.494	58.195	0.269	0.259
-210.479	-87.114	-0.171	-0.051
-209.465	800.000	0.031	-0.125
-208.450	800.000	-0.172	-0.527
-207.436	241.222	-0.033	-0.055
-206.421	-200.000	0.007	-0.191
-205.406	40.128	-0.166	0.147
-204.392	-89.243	-0.163	0.047
-203.377	-182.011	0.459	-0.009
-202.363	800.000	0.022	0.074
-201.348	-200.000	-0.057	0.265
-200.333	351.367	0.087	0.169
-199.319	94.055	-0.051	0.057
-198.304	800.000	-0.088	0.257
-197.290	-160.530	-0.383	-0.020
-196.275	800.000	-0.045	0.170
-195.260	800.000	0.009	-0.039
-194.246	304.372	0.113	-0.207
-193.231	-122.196	-0.408	0.066
-192.217	-119.851	-0.199	0.034
-191.202	-177.259	-0.039	0.001
-190.187	-133.947	-0.071	0.009
-189.173	132.416	0.074	-0.093
-188.158	547.897	0.168	0.396
-187.144	186.616	0.198	0.289
-186.129	800.000	-0.015	0.057
-185.114	-200.000	-0.026	0.167
-184.100	-56.065	0.101	-0.044
-183.085	-82.171	-0.226	-0.072
-182.071	-96.706	0.203	0.052
-181.056	-105.223	-0.092	0.021
-180.042	219.308	0.139	0.218
-179.027	-200.000	-0.034	-0.286
-178.012	-123.150	-0.281	0.044
-176.998	383.186	0.124	-0.250
-175.983	19.114	0.160	-0.126
-174.969	5.268	0.175	0.127
-173.954	-129.408	-0.208	0.028
-172.939	126.076	0.164	-0.203
-171.925	17.392	0.091	-0.071
-170.910	-17.922	-0.065	0.040
-169.896	-200.000	-0.034	0.249
-168.881	-0.860	-0.109	0.076
-167.866	-200.000	0.017	-0.081
-166.852	-153.921	0.351	-0.024
-165.837	260.458	0.114	0.194
-164.823	28.821	-0.170	-0.141
-163.808	275.727	-0.071	0.124
-162.793	-200.000	-0.008	0.237
-161.779	-200.000	-0.003	-0.026
-160.764	-122.936	0.074	0.012
-159.750	-200.000	0.009	-0.175
-158.735	114.013	0.245	0.292
-157.720	-102.324	-0.095	0.022
-156.706	477.628	-0.086	0.192
-155.691	562.123	-0.029	-0.069
-154.677	663.928	-0.048	0.121
-153.662	-200.000	-0.049	-0.274
-152.647	163.379	0.257	-0.355
-151.633	-69.668	-0.221	0.083
-150.618	339.941	-0.067	-0.127
-149.604	-83.966	-0.459	0.143
-148.589	-200.000	0.002	0.337
-147.574	-200.000	-0.006	-0.278
-146.560	-200.000	-0.018	0.130
-145.545	800.000	0.028	-0.099
-144.531	-63.613	-0.269	-0.108
-143.516	68.010	0.078	-0.078
-142.502	26.260	-0.161	0.132
-141.487	-49.190	0.326	0.153
-140.472	297.407	-0.266	0.480
-139.458	-17.793	0.193	-0.119
-138.443	800.000	-0.012	-0.053
-137.429	76.984	0.193	0.201
-136.414	-121.895	0.145	-0.023
-135.399	-200.000	-0.049	-0.275
-134.385	-200.000	0.077	-0.343
-133.370	-200.000	0.024	0.144
-132.356	166.709	-0.029	0.041
-131.341	-122.544	0.196	-0.031
-130.326	-74.508	0.166	0.059
-129.312	238.895	0.034	-0.056
-128.297	153.384	-0.126	0.169
-127.283	-5.726	0.429	-0.288
-126.268	-108.423	-0.345	-0.073
-125.253	-116.800	-0.232	-0.042
-124.239	-61.391	0.079	0.033
-123.224	-200.000	0.025	-0.231
-122.210	351.626	-0.090	0.174
-121.195	-89.612	0.207	0.060
-120.180	39.175	-0.229	-0.200
-119.166	-155.609	0.145	-0.009
-118.151	-104.587	0.223	-0.051
-117.137	0.658	0.078	0.055
-116.122	-84.777	0.213	0.066
-115.107	138.170	-0.079	-0.102
-114.093	-33.495	0.094	0.051
-113.078	-200.000	-0.022	-0.170
-112.064	158.599	-0.057	0.077
-111.049	-200.000	0.061	0.279
-110.034	-122.920	0.295	0.046
-109.020	140.623	-0.108	-0.140
-108.005	800.000	0.089	0.249
-106.991	176.184	-0.103	0.146
-105.976	299.082	0.090	0.163
-104.962	-80.420	0.078	-0.026
-103.947	-72.167	-0.315	0.114
-102.932	-142.176	0.285	0.028
-101.918	9.201	0.260	0.192
-100.903	800.000	0.034	-0.135
-99.889	-58.084	0.183	0.078
-98.874	-117.732	0.126	-0.022
-97.859	-71.691	-0.199	0.073
-96.845	325.720	-0.116	0.217
-95.830	417.371	-0.082	0.171
-94.816	-63.256	0.090	-0.036
-93.801	34.218	0.355	0.303
-92.786	-9.914	-0.080	0.052
-91.772	169.598	0.104	-0.145
-90.757	800.000	0.046	0.175
-89.743	-154.774	-0.129	0.008
-88.728	419.063	-0.110	-0.231
-87.713	-200.000	0.076	-0.329
-86.699	-0.572	0.466	-0.323
-85.684	-47.640	0.190	0.090
-84.670	-47.806	-0.265	-0.125
-83.655	252.071	-0.136	-0.227
-82.640	81.206	0.206	-0.218
-81.626	256.847	0.083	0.140
-80.611	800.000	-0.076	-0.211
-79.597	-113.474	0.161	-0.031
-78.582	-105.679	-0.104	0.023
-77.567	403.215	0.074	0.152
-76.553	192.309	-0.219	-0.323
-75.538	-90.204	0.250	0.071
-74.524	482.142	-0.122	0.272
-73.509	28.883	-0.060	0.050
-72.494	800.000	0.033	-0.104
-71.480	-200.000	0.045	-0.289
-70.465	-200.000	-0.009	0.182
-69.451	-200.000	0.016	-0.211
-68.436	800.000	0.051	-0.178
-67.422	-122.047	-0.045	0.007
-66.407	-200.000	0.037	0.436
-65.392	-41.274	-0.132	0.067
-64.378	-20.074	0.187	0.113
-63.363	-169.755	0.120	0.004
-62.349	-200.000	0.027	0.351
-61.334	11.383	-1.030	-0.771
-60.319	429.069	0.242	0.511
-59.305	580.327	-0.512	-1.226
-58.290	249.554	0.748	1.240
-57.276	643.640	0.662	1.651
-56.261	-200.000	116.632	648.421
-55.246	508.552	1539.134	3493.671
-54.232	175.711	2710.414	3842.335
-53.217	106.297	2155.859	2496.508
-52.203	38.283	1588.999	1382.880
-51.188	29.874	1331.121	1108.306
-50.173	27.056	1292.658	1059.820
-49.159	53.381	1351.080	1265.573
-48.144	51.907	1364.179	1269.016
-47.130	30.005	1319.149	1098.938
-46.115	26.678	1300.630	1063.970
-45.100	26.478	1295.783	1058.793
-44.086	26.390	1293.040	1055.994
-43.071	26.337	1290.403	1053.489
-42.057	26.318	1289.041	1052.223
-41.042	26.384	1286.995	1050.898
-40.027	26.388	1285.328	1049.516
-39.013	26.469	1283.055	1048.087
-37.998	26.427	1281.648	1046.654
-36.984	26.497	1279.912	1045.602
-35.969	26.523	1278.087	1044.215
-34.954	26.554	1276.329	1042.917
-33.940	26.467	1275.128	1041.396
-32.925	26.566	1273.864	1040.888
-31.911	26.542	1272.299	1039.430
-30.896	26.539	1270.941	1038.264
-29.881	26.640	1269.502	1037.625
-28.867	26.621	1268.061	1036.296
-27.852	26.688	1266.485	1035.355
-26.838	26.606	1265.343	1033.908
-25.823	26.667	1263.732	1032.899
-24.809	26.583	1262.397	1031.289
-23.794	26.532	1261.326	1030.081
-22.779	26.497	1260.078	1028.823
-21.765	26.557	1258.472	1027.812
-20.750	26.605	1257.576	1027.312
-19.736	26.629	1256.193	1026.277
-18.721	26.494	1255.216	1024.675
-17.706	26.590	1253.930	1024.129
-16.692	26.477	1253.047	1022.726
-15.677	26.434	1251.990	1021.582
-14.663	26.509	1250.214	1020.517
-13.648	26.435	1249.505	1019.477
-12.633	26.534	1248.470	1019.150
-11.619	26.489	1247.361	1017.951
-10.604	26.492	1246.739	1017.419
-9.590	26.489	1245.864	1016.649
-8.575	26.350	1245.305	1015.372
-7.560	26.425	1243.989	1014.681
-6.546	26.448	1243.564	1014.420
-5.531	26.387	1242.608	1013.257
-4.517	26.551	1241.198	1012.989
-3.502	26.428	1240.514	1011.702
-2.487	26.583	1239.359	1011.582
-1.473	26.522	1235.352	1007.934
-0.458	24.938	1221.129	987.565
0.556	21.920	1204.513	951.795
1.571	18.476	1210.979	938.007
2.586	17.530	1226.226	944.484
3.600	17.119	1214.465	933.084
4.615	12.824	1143.625	856.310
5.629	6.140	1073.148	770.787
6.644	3.439	1055.521	745.018
7.659	3.141	1053.339	741.976
8.673	3.095	1052.223	740.903
9.688	3.226	1050.743	740.427
10.702	3.356	1048.743	739.577
11.717	7.234	1053.602	761.610
12.731	14.486	1063.830	804.020
13.746	18.909	1069.417	829.563
14.761	19.697	1069.330	833.223
15.775	18.753	1068.530	827.975
16.790	17.795	1065.847	821.217
17.804	17.084	1064.568	816.735
18.819	16.839	1063.642	814.775
19.834	16.775	1062.843	813.787
20.848	16.660	1061.618	812.223
21.863	16.463	1061.061	810.783
22.877	16.169	1060.420	808.811
23.892	16.165	1059.766	808.221
24.907	16.121	1059.033	807.381
25.921	16.245	1057.807	806.966
26.936	16.191	1056.853	805.908
27.950	16.220	1055.456	804.909
28.965	16.283	1053.762	803.849
29.980	16.598	1052.147	804.041
30.994	16.522	1051.719	803.281
32.009	16.493	1050.694	802.289
33.023	16.431	1049.832	801.265
34.038	16.469	1048.433	800.311
35.053	16.272	1047.592	798.666
36.067	16.362	1046.690	798.332
37.082	16.345	1045.904	797.581
38.096	16.450	1045.108	797.398
39.111	16.430	1044.439	796.722
40.126	16.455	1042.865	795.568
41.140	16.060	1041.559	792.646
42.155	16.130	1040.272	791.925
43.169	16.000	1039.407	790.585
44.184	16.022	1038.477	789.912
45.199	16.075	1036.920	788.907
46.213	16.115	1036.523	788.723
47.228	16.311	1034.918	788.348
48.242	16.302	1034.508	787.922
49.257	16.228	1033.728	786.914
50.271	16.292	1032.582	786.268
51.286	16.496	1031.669	786.456
52.301	16.392	1030.594	785.082
53.315	16.265	1029.626	783.683
54.330	16.254	1028.613	782.795
55.344	16.131	1027.971	781.667
56.359	16.144	1027.160	781.041
57.374	16.129	1025.991	780.013
58.388	16.005	1025.131	778.714
59.403	16.005	1024.398	778.090
60.417	15.940	1023.709	777.201
61.432	16.010	1022.462	776.506
62.447	15.889	1022.082	775.591
63.461	15.920	1021.060	774.889
64.476	15.934	1020.025	774.100
65.490	15.849	1019.411	773.175
66.505	16.007	1018.488	773.131
67.520	15.930	1017.917	772.278
68.534	15.878	1017.120	771.365
69.549	15.850	1016.761	770.899
70.563	15.832	1015.651	769.906
71.578	15.681	1014.820	768.515
72.593	15.856	1013.526	768.269
73.607	15.757	1012.897	767.271
74.622	15.738	1012.578	766.876
75.636	15.745	1011.961	766.370
76.651	15.889	1011.063	766.281
77.666	15.719	1010.897	765.314
78.680	15.841	1010.357	765.390
79.695	15.815	1009.148	764.290
80.709	15.991	1008.671	764.657
81.724	16.146	1007.965	764.759
82.739	16.168	1007.092	764.129
83.753	16.338	1006.639	764.486
84.768	16.411	1006.167	764.390
85.782	16.551	1005.176	764.201
86.797	16.524	1004.133	763.221
87.812	16.340	1003.321	761.705
88.826	16.310	1002.289	760.719
89.841	16.476	1001.455	760.766
90.855	16.479	1000.722	760.157
91.870	16.478	999.976	759.518
92.884	16.484	998.922	758.677
93.899	16.654	998.011	758.680
94.914	16.675	997.229	758.112
95.928	16.674	996.582	757.551
96.943	16.477	995.511	755.789
97.957	16.287	994.941	754.437
98.972	16.525	993.642	754.450
99.987	16.574	992.454	753.699
101.001	16.515	991.898	752.947
102.016	16.521	990.857	752.116
103.030	16.472	990.292	751.404
104.045	16.531	989.733	751.173
105.060	16.390	988.403	749.472
106.074	16.239	987.926	748.377
107.089	16.017	986.751	746.438
108.103	15.890	985.750	745.051
109.118	15.935	984.661	744.364
110.133	15.950	983.873	743.767
111.147	15.945	983.053	743.056
112.162	16.055	982.084	742.744
113.176	16.186	981.528	742.834
114.191	16.043	981.241	741.922
115.206	16.102	980.202	741.329
116.220	16.167	978.997	740.641
117.235	16.030	978.167	739.346
118.249	16.130	977.149	738.947
119.264	16.003	976.637	737.940
120.279	15.899	975.949	736.898
121.293	15.859	975.065	735.990
122.308	15.892	973.860	735.162
123.322	15.876	972.708	734.155
124.337	15.813	971.996	733.278
125.352	16.009	970.504	732.943
126.366	15.955	969.410	731.816
127.381	15.841	969.010	730.954
128.395	15.885	968.484	730.686
129.410	16.034	967.068	730.196
130.424	16.030	966.668	729.814
131.439	16.169	965.662	729.592
132.454	16.131	964.939	728.814
133.468	16.113	964.218	728.127
134.483	16.058	963.596	727.358
135.497	16.123	962.614	726.831
136.512	16.062	961.710	725.821
137.527	16.156	961.174	725.758
138.541	16.133	960.271	724.911
139.556	16.151	959.845	724.603
140.570	16.336	958.873	724.600
141.585	16.496	958.017	724.577
142.600	16.463	957.682	724.116
143.614	16.498	956.895	723.607
144.629	16.485	956.372	723.092
145.643	16.501	955.001	722.061
146.658	16.499	953.475	720.833
147.673	16.312	952.883	719.526
148.687	16.205	952.338	718.594
149.702	16.110	951.425	717.438
150.716	16.177	950.469	716.937
151.731	16.229	949.606	716.444
152.746	16.250	948.984	716.001
153.760	16.270	948.616	715.744
154.775	16.335	947.890	715.408
155.789	16.288	947.588	714.921
156.804	16.497	946.502	714.920
157.819	16.519	945.992	714.564
158.833	16.473	945.684	714.077
159.848	16.698	944.940	714.400
160.862	16.630	943.278	712.795
161.877	16.398	942.535	711.192
162.892	16.316	941.754	710.195
163.906	16.219	940.601	708.854
164.921	16.292	939.550	708.307
165.935	16.458	938.570	708.200
166.950	16.423	937.985	707.549
167.964	16.467	936.663	706.675
168.979	16.321	935.981	705.489
169.994	16.429	935.355	705.404
171.008	16.466	934.227	704.645
172.023	16.606	934.254	705.188
173.037	16.863	933.275	705.456
174.052	16.595	932.434	703.644
175.067	16.306	932.151	702.167
176.081	16.352	931.398	701.728
177.096	16.363	930.901	701.338
178.110	16.399	930.200	700.896
179.125	16.445	929.505	700.499
180.140	16.429	928.673	699.744
181.154	16.507	928.385	699.788
182.169	16.609	928.058	699.904
183.183	16.609	927.998	699.796
184.198	16.710	926.574	699.076
185.213	16.782	925.708	698.657
186.227	16.607	925.468	697.694
187.242	16.795	924.814	697.913
188.256	16.909	924.152	697.820
189.271	16.893	923.569	697.252
190.286	16.714	921.724	695.066
191.300	16.368	921.455	693.380
192.315	16.335	920.689	692.608
193.329	16.388	920.320	692.487
194.344	16.454	919.828	692.324
195.359	16.541	919.463	692.346
196.373	16.680	919.011	692.513
197.388	16.747	918.863	692.615
198.402	16.922	917.914	692.552
199.417	16.960	917.496	692.331
200.432	17.092	916.839	692.309
201.446	17.015	916.949	692.020
202.461	17.182	915.979	691.905
203.475	17.123	915.286	691.080
204.490	16.965	914.027	689.428
205.504	16.729	913.516	688.021
206.519	16.822	912.633	687.674
207.534	17.027	911.928	687.911
208.548	16.901	911.539	687.049
209.563	16.959	910.539	686.469
210.577	16.913	910.403	686.116
211.592	17.211	909.403	686.508
212.607	17.175	908.901	685.922
213.621	17.152	907.960	685.058
214.636	17.002	907.626	684.141
215.650	17.058	906.768	683.662
216.665	17.215	906.060	683.696
217.680	17.196	905.577	683.196
218.694	17.224	904.961	682.784
219.709	17.338	904.299	682.682
220.723	17.262	903.101	681.413
221.738	17.305	902.615	681.156
222.753	17.237	902.504	680.742
223.767	17.423	901.560	680.714
224.782	17.443	901.212	680.469
225.796	17.393	900.917	679.986
226.811	17.485	899.660	679.344
227.826	17.342	898.859	678.111
228.840	17.195	898.820	677.434
229.855	17.208	897.656	676.550
230.869	17.186	896.849	675.795
231.884	17.241	895.867	675.212
232.899	17.128	895.607	674.508
233.913	17.031	894.750	673.418
234.928	17.040	894.221	672.995
235.942	17.035	893.531	672.396
236.957	17.076	893.149	672.212
237.972	17.087	892.354	671.597
238.986	17.038	892.004	671.081
240.001	17.167	891.024	670.795
241.015	17.180	890.340	670.270
242.030	17.201	890.249	670.226
243.045	17.231	889.504	669.725
244.059	17.285	889.095	669.570
245.074	17.359	887.909	668.908
246.088	17.502	887.672	669.233
247.103	17.273	887.411	668.076
248.117	17.506	887.076	668.681
249.132	17.866	886.354	669.490
250.147	17.864	885.975	669.138
251.161	17.919	885.355	668.823
252.176	17.848	884.785	668.057
253.190	17.973	883.948	667.853
254.205	17.966	883.402	667.355
255.220	18.111	882.362	667.078
256.234	18.019	881.999	666.385
257.249	18.000	881.303	665.724
258.263	18.017	880.393	665.045
259.278	18.003	879.788	664.476
260.293	17.945	879.293	663.819
261.307	18.097	878.533	663.777
262.322	18.114	878.029	663.402
263.336	18.239	877.428	663.372
264.351	18.240	876.936	662.946
265.366	18.381	875.550	662.386
266.380	18.239	875.627	661.835
267.395	18.067	874.718	660.425
268.409	17.969	873.969	659.423
269.424	18.042	873.489	659.286
270.439	18.150	872.139	658.623
271.453	18.040	871.533	657.682
272.468	18.072	871.337	657.602
273.482	18.091	870.674	657.116
274.497	17.981	870.077	656.183
275.512	17.977	869.685	655.814
276.526	17.948	869.648	655.616
277.541	17.978	868.996	655.184
278.555	18.140	868.450	655.334
279.570	18.327	867.663	655.398
280.585	18.301	866.784	654.576
281.599	18.143	865.725	653.117
282.614	18.115	865.408	652.712
283.628	18.253	864.371	652.399
284.643	18.101	864.049	651.517
285.657	18.227	863.155	651.267
286.672	18.152	863.293	651.027
287.687	18.178	862.333	650.347
288.701	18.170	862.067	650.057
289.716	18.115	861.716	649.527
290.730	18.307	860.665	649.405
291.745	18.319	860.158	649.009
292.760	18.323	859.607	648.550
293.774	18.473	859.104	648.682
294.789	18.494	857.830	647.744
295.803	18.286	857.623	646.745
296.818	18.284	856.724	645.999
297.833	18.390	856.107	645.877
298.847	18.260	855.729	645.045
299.862	18.471	854.713	645.018
300.876	18.483	854.597	644.917
301.891	18.465	854.005	644.345
302.906	18.617	853.651	644.592
303.920	18.713	853.265	644.605
304.935	18.777	852.772	644.415
305.949	18.596	852.411	643.407
306.964	18.647	851.151	642.590
307.979	18.742	850.685	642.536
308.993	18.667	850.184	641.822
310.008	18.658	849.502	641.215
311.022	18.611	849.133	640.703
312.037	18.550	848.123	639.657
313.052	18.393	847.920	638.865
314.066	18.372	847.226	638.207
315.081	18.380	846.841	637.890
316.095	18.374	846.056	637.218
317.110	18.537	845.285	637.187
318.125	18.375	844.879	636.223
319.139	18.320	844.828	635.924
320.154	18.360	844.283	635.605
321.168	18.527	843.466	635.556
322.183	18.605	842.866	635.334
323.197	18.556	842.710	634.980
324.212	18.671	842.161	634.936
325.227	18.622	841.326	634.067
326.241	18.478	840.543	632.892
327.256	18.564	840.213	632.902
328.270	18.421	839.741	631.965
329.285	18.479	838.866	631.462
330.300	18.434	838.394	630.887
331.314	18.609	837.753	630.993
332.329	18.585	837.520	630.674
333.343	18.855	837.148	631.328
334.358	18.692	836.965	630.537
335.373	18.964	835.965	630.726
336.387	18.769	836.348	630.242
337.402	18.957	835.463	630.207
338.416	19.144	835.248	630.676
339.431	19.028	835.108	630.088
340.446	19.195	834.530	630.209
341.460	19.065	834.459	629.625
342.475	19.133	834.162	629.595
343.489	19.238	833.480	629.406
344.504	19.279	833.328	629.385
345.519	19.271	832.522	628.693
346.533	19.028	832.236	627.533
347.548	19.086	831.271	626.960
348.562	18.918	830.855	625.982
349.577	18.860	830.006	625.073
350.592	18.751	829.609	624.323
351.606	18.822	828.953	624.035
352.621	18.929	828.165	623.771
353.635	18.999	827.638	623.574
354.650	18.970	826.821	622.798
355.665	19.155	826.157	622.913
356.679	19.329	825.476	622.973
357.694	19.095	824.991	621.707
358.708	19.230	824.232	621.566
359.723	19.243	823.510	621.015
360.738	19.197	823.402	620.714
361.752	19.189	822.687	620.090
362.767	19.419	822.147	620.456
363.781	19.329	822.003	619.969
364.796	19.392	821.508	619.767
365.810	19.708	820.939	620.415
366.825	19.622	820.510	619.730
367.840	19.409	820.302	618.754
368.854	19.380	819.557	618.033
369.869	19.532	819.196	618.248
370.883	19.398	818.859	617.460
371.898	19.558	818.672	617.840
372.913	19.759	817.765	617.816
373.927	19.628	817.119	616.808
374.942	19.553	817.053	616.436
375.956	19.670	816.652	616.495
376.971	19.782	816.088	616.413
377.986	19.806	815.869	616.279
379.000	19.792	815.255	615.712
380.015	19.784	814.927	615.381
381.029	19.860	814.185	615.037
382.044	19.737	813.791	614.247
383.059	19.953	813.044	614.394
384.073	19.870	812.055	613.299
385.088	19.605	811.647	611.997
386.102	19.567	811.222	611.488
387.117	19.554	810.641	610.951
388.132	19.587	810.053	610.569
389.146	19.692	809.665	610.596
390.161	19.865	809.229	610.823
391.175	19.729	809.098	610.192
392.190	19.837	808.387	609.980
393.205	19.651	807.916	608.916
394.219	19.700	807.441	608.676
395.234	19.657	806.949	608.101
396.248	19.501	806.448	607.120
397.263	19.528	805.849	606.712
398.278	19.548	805.599	606.538
399.292	19.605	805.278	606.445
400.307	19.360	805.108	605.403
401.321	19.529	804.643	605.593
402.336	19.637	803.996	605.429
403.350	19.748	803.312	605.249
404.365	19.918	803.198	605.707
405.380	20.010	802.756	605.641
406.394	19.983	802.275	605.129
407.409	20.137	801.733	605.203
408.423	20.019	801.834	604.815
409.438	20.100	801.371	604.694
410.453	20.213	800.676	604.512
411.467	20.246	800.027	604.082
412.482	20.379	799.987	604.461
413.496	20.266	799.647	603.758
414.511	20.291	799.296	603.528
415.526	20.280	798.728	603.006
416.540	20.215	798.128	602.275
417.555	20.296	797.703	602.182
418.569	20.296	797.122	601.688
419.584	20.239	796.867	601.244
420.599	20.143	796.709	600.739
421.613	162.477	1371.504	1797.312
422.628	140.983	1455.237	1797.404
