DTS Sentinel unit serial number:	SN413079Multiplexer serial number:	ORYXHardware model number:	OX4-SRSoftware version number:	ORYX F/W v4.00 Oryx Data Collector v3.7.2.0data status	okinstallation	princeton_trtdifferential loss correction	single-endedforward channel	channel 1reverse channel	N/Adate	2019/09/12time	23:50:35forward acquisition time	60.00reverse acquisition time	0.00gamma	496.2192k internal	0.2328k external	0.2328temperature offset calibration	1.0147default loss term (dB/km)	0.3790temperature slope calibration	1.0000multiplexer offset coefficient	1.0000multiplexer slope coefficient	1.0000fibre end	0.00T internal ref (°C)	28.75T ext. ref 1 (°C)	3.78T ext. ref 2 (°C)	23.51length (m)	temperature (°C)	Stokes	anti-Stokes-747.200	-27.253	0.229	0.134
-746.185	-12.909	-0.135	-0.088
-745.171	473.771	-0.049	0.112
-744.156	-29.672	-0.098	0.056
-743.142	800.000	0.151	0.426
-742.127	800.000	-0.043	0.174
-741.112	800.000	-0.062	0.184
-740.098	-200.000	-0.006	-0.194
-739.083	-152.959	0.268	0.019
-738.069	-200.000	0.064	0.324
-737.054	-105.419	0.038	0.009
-736.039	-31.598	0.109	0.061
-735.025	259.533	0.122	0.213
-734.010	217.513	-0.045	-0.072
-732.996	-18.107	-0.130	0.082
-731.981	-57.944	-0.188	0.083
-730.966	57.240	0.195	0.192
-729.952	320.691	-0.072	-0.137
-728.937	800.000	-0.044	0.191
-727.923	125.133	0.068	-0.086
-726.908	-200.000	-0.044	-0.249
-725.894	36.299	0.172	0.152
-724.879	82.355	0.236	-0.258
-723.864	-75.063	-0.089	-0.032
-722.850	-105.876	-0.076	-0.017
-721.835	-81.542	-0.176	-0.058
-720.821	-167.816	-0.465	0.018
-719.806	-129.672	-0.052	-0.007
-718.791	556.538	-0.136	-0.331
-717.777	103.241	-0.142	-0.167
-716.762	59.522	0.130	0.129
-715.748	15.223	0.144	-0.113
-714.733	-200.000	-0.032	-0.249
-713.718	413.924	-0.146	-0.312
-712.704	-200.000	0.040	-0.271
-711.689	107.569	-0.126	-0.151
-710.675	698.171	0.048	0.128
-709.660	-58.307	0.152	-0.066
-708.645	-125.148	0.153	0.024
-707.631	20.433	-0.093	-0.076
-706.616	-6.739	-0.062	-0.043
-705.602	30.357	-0.060	-0.052
-704.587	-147.635	-0.138	-0.012
-703.572	800.000	-0.068	-0.250
-702.558	-177.787	0.085	-0.002
-701.543	511.264	-0.050	-0.118
-700.529	285.430	-0.109	0.198
-699.514	-23.367	0.369	0.223
-698.499	-108.234	-0.051	0.011
-697.485	129.218	0.053	0.068
-696.470	-130.848	-0.077	-0.010
-695.456	-200.000	0.011	0.078
-694.441	-13.377	0.036	0.023
-693.426	-53.695	-0.227	0.104
-692.412	800.000	0.055	-0.206
-691.397	239.457	-0.265	-0.443
-690.383	273.805	0.024	0.042
-689.368	461.830	-0.176	-0.395
-688.354	134.591	-0.089	-0.116
-687.339	-50.356	-0.196	-0.093
-686.324	-200.000	-0.022	-0.178
-685.310	800.000	-0.105	-0.386
-684.295	-93.883	-0.128	-0.035
-683.281	11.653	0.041	0.031
-682.266	-155.825	-0.236	-0.015
-681.251	707.263	0.171	0.453
-680.237	46.910	0.127	-0.118
-679.222	128.295	0.135	0.172
-678.208	236.028	-0.068	0.112
-677.193	-77.515	-0.051	-0.018
-676.178	774.366	0.114	0.313
-675.164	435.348	0.152	0.332
-674.149	161.809	-0.072	-0.102
-673.135	-38.127	0.085	-0.045
-672.120	-160.273	0.451	-0.024
-671.105	800.000	0.017	0.049
-670.091	-82.500	-0.438	0.143
-669.076	-118.266	0.051	-0.009
-668.062	738.179	-0.180	-0.484
-667.047	-4.732	0.180	-0.124
-666.032	-23.045	-0.214	0.129
-665.018	-27.475	-0.079	-0.046
-664.003	418.999	0.051	0.110
-662.989	40.367	-0.320	0.289
-661.974	-77.670	0.224	-0.078
-660.959	39.996	-0.103	-0.093
-659.945	55.113	-0.147	-0.143
-658.930	-1.684	-0.151	0.106
-657.916	-137.151	0.163	-0.019
-656.901	126.638	0.209	-0.266
-655.886	-0.222	0.085	0.061
-654.872	-200.000	0.019	0.451
-653.857	-200.000	-0.030	0.290
-652.843	-200.000	-0.002	-0.173
-651.828	-200.000	-0.004	-0.144
-650.814	-9.975	-0.222	-0.148
-649.799	21.973	-0.227	0.186
-648.784	-170.023	0.428	0.015
-647.770	-200.000	0.011	0.277
-646.755	-84.841	0.200	0.063
-645.741	-149.234	0.063	-0.005
-644.726	430.712	-0.100	-0.216
-643.711	-200.000	0.034	0.185
-642.697	-193.222	0.103	0.001
-641.682	-1.028	-0.378	-0.268
-640.668	21.940	0.043	0.035
-639.653	33.871	0.067	-0.058
-638.638	36.201	-0.200	-0.177
-637.624	-88.399	-0.082	-0.024
-636.609	-200.000	-0.011	0.103
-635.595	181.361	0.155	0.229
-634.580	-200.000	0.024	-0.190
-633.565	-200.000	0.005	-0.034
-632.551	800.000	-0.035	0.115
-631.536	-107.948	0.033	0.007
-630.522	-60.000	-0.169	0.072
-629.507	-122.079	0.431	-0.071
-628.492	-62.040	-0.230	-0.096
-627.478	800.000	-0.029	0.095
-626.463	-200.000	0.003	-0.280
-625.449	636.105	0.038	0.097
-624.434	-155.372	-0.500	0.033
-623.419	-77.746	0.261	0.090
-622.405	-118.690	0.282	-0.050
-621.390	152.619	-0.247	-0.339
-620.376	91.244	0.276	-0.311
-619.361	-43.796	0.174	0.088
-618.346	506.075	0.115	0.266
-617.332	-179.761	-0.486	-0.011
-616.317	-200.000	0.065	-0.359
-615.303	100.255	-0.131	0.153
-614.288	-200.000	0.031	0.165
-613.273	35.295	0.050	0.044
-612.259	82.895	-0.061	0.067
-611.244	-54.724	0.235	-0.107
-610.230	-200.000	-0.002	-0.070
-609.215	-200.000	-0.017	-0.171
-608.201	-154.733	-0.096	0.006
-607.186	497.202	-0.067	0.153
-606.171	-149.552	0.335	-0.027
-605.157	-10.958	-0.349	-0.231
-604.142	-111.424	0.329	-0.067
-603.128	-103.830	0.410	-0.096
-602.113	-119.982	-0.223	0.038
-601.098	-167.019	0.355	-0.015
-600.084	-4.986	0.115	0.080
-599.069	-60.387	0.371	0.158
-598.055	800.000	-0.028	0.108
-597.040	83.772	-0.098	0.107
-596.025	222.433	-0.019	0.031
-595.011	-200.000	0.009	-0.071
-593.996	193.370	0.263	0.398
-592.982	1.147	-0.126	-0.091
-591.967	-158.584	-0.098	0.006
-590.952	-8.035	0.306	0.206
-589.938	67.950	-0.129	0.132
-588.923	800.000	-0.025	0.086
-587.909	6.512	0.024	-0.018
-586.894	-76.334	-0.307	-0.108
-585.879	-200.000	0.026	-0.226
-584.865	800.000	-0.107	0.352
-583.850	-107.359	-0.349	-0.077
-582.836	104.282	-0.222	0.261
-581.821	779.610	0.053	0.146
-580.806	160.533	-0.173	-0.242
-579.792	221.036	0.114	0.184
-578.777	51.685	0.067	0.064
-577.763	-118.929	-0.394	-0.069
-576.748	800.000	0.071	-0.278
-575.733	61.487	-0.191	0.190
-574.719	522.086	-0.087	-0.205
-573.704	85.383	0.066	-0.072
-572.690	157.561	-0.145	-0.201
-571.675	-133.430	-0.386	-0.049
-570.661	-200.000	0.005	-0.336
-569.646	800.000	0.078	-0.300
-568.631	-85.615	0.245	-0.076
-567.617	-15.838	-0.384	0.245
-566.602	-77.589	-0.057	-0.020
-565.588	39.160	0.155	0.139
-564.573	107.234	-0.199	0.237
-563.558	147.984	0.438	-0.591
-562.544	489.542	-0.081	-0.185
-561.529	28.034	0.154	0.130
-560.515	101.573	-0.186	0.217
-559.500	226.614	-0.097	0.158
-558.485	-200.000	-0.004	0.027
-557.471	-92.314	-0.202	-0.057
-556.456	-40.208	0.203	0.105
-555.442	112.761	0.234	0.283
-554.427	-200.000	-0.058	-0.371
-553.412	80.332	0.150	0.161
-552.398	800.000	0.068	-0.205
-551.383	647.703	0.152	-0.389
-550.369	236.800	-0.072	-0.120
-549.354	54.785	0.170	-0.164
-548.339	-200.000	-0.005	0.030
-547.325	-200.000	-0.016	-0.096
-546.310	635.406	0.120	-0.304
-545.296	215.512	-0.074	-0.118
-544.281	165.379	-0.061	0.086
-543.266	131.514	0.226	0.290
-542.252	-42.277	0.284	0.145
-541.237	-200.000	0.030	0.349
-540.223	553.346	-0.146	0.350
-539.208	126.954	-0.106	-0.135
-538.193	-116.629	-0.474	0.087
-537.179	-200.000	-0.023	-0.119
-536.164	-168.067	0.283	0.011
-535.150	-200.000	0.016	0.080
-534.135	-200.000	0.003	0.380
-533.121	-6.336	-0.150	0.102
-532.106	-46.906	-0.092	-0.045
-531.091	-196.477	0.370	-0.003
-530.077	164.410	0.114	-0.161
-529.062	-200.000	0.012	0.061
-528.048	215.238	-0.117	0.185
-527.033	167.651	-0.126	0.179
-526.018	-143.051	-0.257	-0.025
-525.004	-6.069	0.207	-0.141
-523.989	-200.000	0.013	-0.159
-522.975	800.000	-0.046	-0.188
-521.960	-90.826	0.404	0.116
-520.945	8.823	0.150	0.113
-519.931	-97.187	-0.317	0.083
-518.916	800.000	0.087	0.381
-517.902	-200.000	0.021	-0.387
-516.887	70.810	-0.246	0.254
-515.872	800.000	0.030	0.093
-514.858	81.358	0.116	-0.125
-513.843	20.363	-0.100	-0.081
-512.829	234.042	-0.075	0.123
-511.814	404.971	-0.085	-0.178
-510.799	-162.671	0.152	0.007
-509.785	35.624	0.134	-0.118
-508.770	20.736	-0.035	0.029
-507.756	-70.948	-0.063	0.024
-506.741	676.270	-0.061	0.158
-505.726	-74.886	0.254	0.091
-504.712	75.949	0.221	-0.233
-503.697	-200.000	0.005	0.035
-502.683	-200.000	0.048	-0.272
-501.668	-81.065	0.232	-0.077
-500.653	44.460	-0.091	0.083
-499.639	7.491	-0.135	-0.100
-498.624	391.691	0.113	-0.235
-497.610	-200.000	0.016	-0.073
-496.595	-200.000	-0.004	0.094
-495.581	800.000	0.139	0.463
-494.566	-83.045	0.335	0.108
-493.551	24.585	-0.173	-0.143
-492.537	800.000	0.080	-0.340
-491.522	-30.382	-0.110	-0.062
-490.508	76.232	-0.162	0.171
-489.493	-56.998	0.287	-0.126
-488.478	-60.783	-0.027	-0.011
-487.464	-103.589	-0.112	-0.026
-486.449	800.000	-0.082	0.232
-485.435	-101.542	0.125	0.030
-484.420	301.319	-0.144	-0.265
-483.405	-78.519	-0.323	-0.110
-482.391	323.990	0.090	-0.171
-481.376	84.098	0.213	0.232
-480.362	-46.497	0.089	0.044
-479.347	212.725	-0.046	0.072
-478.332	-200.000	0.009	0.058
-477.318	139.343	-0.134	0.176
-476.303	288.659	-0.077	-0.138
-475.289	-200.000	-0.015	-0.316
-474.274	-200.000	-0.026	-0.151
-473.259	461.998	0.149	-0.332
-472.245	800.000	-0.056	-0.223
-471.230	257.240	0.093	-0.160
-470.216	-140.570	0.294	-0.030
-469.201	-200.000	-0.013	-0.279
-468.186	-200.000	0.035	-0.226
-467.172	764.371	-0.129	-0.349
-466.157	453.401	-0.206	-0.454
-465.143	-70.390	-0.134	-0.051
-464.128	18.481	-0.181	-0.144
-463.113	-200.000	0.051	0.320
-462.099	173.984	-0.208	-0.299
-461.084	189.416	-0.314	-0.469
-460.070	780.248	-0.023	-0.062
-459.055	60.665	-0.093	0.092
-458.040	563.305	0.164	0.395
-457.026	119.184	0.072	-0.089
-456.011	3.561	-0.402	-0.292
-454.997	155.347	0.210	-0.287
-453.982	800.000	-0.066	-0.189
-452.968	-200.000	-0.008	-0.068
-451.953	-68.137	0.397	0.154
-450.938	-5.567	0.277	-0.190
-449.924	42.171	0.055	-0.050
-448.909	-130.314	0.055	0.007
-447.895	-143.799	0.247	-0.023
-446.880	329.030	0.213	-0.407
-445.865	800.000	0.060	-0.236
-444.851	405.001	-0.116	-0.244
-443.836	800.000	-0.049	0.185
-442.822	-166.067	-0.316	0.013
-441.807	800.000	-0.043	-0.135
-440.792	292.733	-0.128	0.232
-439.778	275.309	-0.076	0.134
-438.763	107.901	0.086	0.101
-437.749	339.070	-0.142	0.275
-436.734	-33.379	-0.360	-0.198
-435.719	83.407	0.149	0.162
-434.705	800.000	0.097	-0.341
-433.690	15.454	0.321	0.251
-432.676	-173.721	-0.151	0.004
-431.661	350.126	-0.009	-0.018
-430.646	-136.773	-0.231	0.026
-429.632	48.549	-0.121	0.112
-428.617	-200.000	-0.005	0.159
-427.603	-82.086	-0.130	0.042
-426.588	-186.861	0.095	-0.001
-425.573	164.596	-0.124	0.174
-424.559	-54.552	0.088	0.040
-423.544	-9.116	-0.119	0.079
-422.530	357.378	-0.147	-0.291
-421.515	-57.742	-0.102	0.044
-420.500	-62.762	0.337	-0.139
-419.486	-41.042	0.102	0.053
-418.471	-200.000	0.070	0.352
-417.457	-200.000	0.011	0.201
-416.442	-16.964	-0.133	-0.084
-415.428	234.621	0.183	-0.300
-414.413	800.000	0.059	0.178
-413.398	-184.946	0.351	0.006
-412.384	-8.592	0.236	0.158
-411.369	23.487	-0.141	-0.115
-410.355	-200.000	-0.021	0.417
-409.340	-39.693	0.126	0.066
-408.325	395.272	0.137	-0.283
-407.311	-131.787	-0.420	0.055
-406.296	17.487	0.003	0.002
-405.282	87.141	-0.174	-0.191
-404.267	326.886	-0.059	-0.111
-403.252	394.540	0.147	0.304
-402.238	535.910	-0.042	-0.100
-401.223	112.790	0.245	0.295
-400.209	378.523	-0.026	0.053
-399.194	264.876	-0.116	-0.201
-398.179	-89.251	-0.326	0.096
-397.165	800.000	0.092	0.401
-396.150	800.000	0.085	-0.245
-395.136	296.552	-0.061	0.111
-394.121	-200.000	0.020	-0.238
-393.106	800.000	-0.056	0.195
-392.092	-200.000	-0.016	-0.085
-391.077	232.216	0.065	0.106
-390.063	76.372	-0.071	0.074
-389.048	-200.000	-0.014	-0.116
-388.033	-29.550	0.125	0.071
-387.019	48.231	-0.324	0.301
-386.004	117.169	0.124	0.151
-384.990	32.767	-0.229	-0.197
-383.975	289.663	0.053	0.096
-382.960	-200.000	0.013	0.250
-381.946	800.000	0.061	-0.172
-380.931	506.207	-0.145	0.334
-379.917	214.696	0.122	0.192
-378.902	-200.000	0.025	0.179
-377.888	-16.919	-0.170	0.107
-376.873	-91.173	-0.316	-0.090
-375.858	12.129	0.206	0.157
-374.844	-200.000	0.004	-0.057
-373.829	-72.604	0.074	-0.027
-372.815	7.111	0.246	0.182
-371.800	175.614	-0.064	0.092
-370.785	117.019	0.097	0.119
-369.771	-200.000	0.018	0.179
-368.756	-118.506	-0.104	-0.018
-367.742	125.321	0.180	-0.226
-366.727	248.565	-0.064	0.108
-365.712	800.000	-0.061	0.198
-364.698	99.056	-0.058	0.066
-363.683	800.000	-0.040	0.148
-362.669	16.737	-0.164	-0.129
-361.654	41.810	-0.321	-0.288
-360.639	-163.473	0.166	-0.008
-359.625	-200.000	0.010	0.249
-358.610	408.140	0.143	-0.301
-357.596	-150.968	-0.141	0.011
-356.581	30.025	-0.145	-0.123
-355.566	-200.000	-0.007	0.142
-354.552	-74.677	-0.463	-0.165
-353.537	277.883	0.139	-0.246
-352.523	-122.391	0.190	-0.031
-351.508	114.039	0.162	0.196
-350.493	800.000	-0.071	0.274
-349.479	674.660	-0.022	0.056
-348.464	-111.504	-0.217	-0.044
-347.450	-105.526	0.239	-0.054
-346.435	278.181	0.093	-0.165
-345.420	43.001	0.118	-0.107
-344.406	800.000	-0.049	0.191
-343.391	248.142	-0.223	0.374
-342.377	-180.441	0.086	-0.002
-341.362	215.965	0.065	0.103
-340.348	-6.739	0.175	-0.118
-339.333	-200.000	0.038	0.240
-338.318	800.000	0.086	0.370
-337.304	172.449	0.124	-0.177
-336.289	-61.930	-0.285	-0.118
-335.275	-76.361	0.220	0.077
-334.260	303.869	0.029	0.054
-333.245	-53.179	-0.252	0.115
-332.231	69.149	0.106	-0.108
-331.216	800.000	0.056	0.221
-330.202	-16.381	0.252	0.159
-329.187	-77.618	0.513	-0.176
-328.172	118.335	-0.161	-0.197
-327.158	-151.458	-0.172	0.013
-326.143	-200.000	-0.006	-0.302
-325.129	-200.000	0.013	-0.093
-324.114	-94.657	-0.395	-0.106
-323.099	85.551	0.167	-0.182
-322.085	-200.000	-0.010	0.326
-321.070	128.231	-0.166	0.209
-320.056	800.000	-0.057	0.180
-319.041	41.961	-0.091	0.082
-318.026	-88.513	0.436	-0.129
-317.012	-167.485	0.430	-0.017
-315.997	350.689	-0.065	0.128
-314.983	800.000	-0.089	0.257
-313.968	-67.341	0.269	0.105
-312.953	800.000	0.068	-0.291
-311.939	800.000	-0.006	0.023
-310.924	-200.000	0.004	0.161
-309.910	-40.221	0.229	0.118
-308.895	200.602	-0.100	-0.152
-307.880	800.000	0.042	-0.181
-306.866	-76.989	-0.160	0.055
-305.851	800.000	-0.080	0.312
-304.837	-57.069	-0.314	0.137
-303.822	800.000	-0.087	-0.257
-302.807	-119.527	0.155	0.027
-301.793	-33.846	-0.120	-0.066
-300.778	-200.000	0.034	-0.304
-299.764	800.000	0.008	-0.032
-298.749	-69.087	0.084	0.032
-297.735	554.160	-0.112	0.267
-296.720	109.257	-0.248	0.294
-295.705	-69.973	-0.211	0.080
-294.691	23.208	-0.072	0.059
-293.676	-149.970	0.262	0.020
-292.662	-200.000	-0.004	-0.268
-291.647	-101.117	0.105	0.025
-290.632	34.983	-0.141	0.122
-289.618	201.487	-0.101	0.155
-288.603	-200.000	-0.067	0.349
-287.589	688.280	0.052	-0.134
-286.574	-151.385	-0.131	-0.010
-285.559	296.503	0.046	-0.083
-284.545	-200.000	-0.017	-0.124
-283.530	-18.474	-0.235	-0.145
-282.516	179.515	0.134	0.194
-281.501	800.000	0.080	-0.302
-280.486	-31.262	-0.049	-0.027
-279.472	371.634	0.087	-0.175
-278.457	-200.000	0.014	0.165
-277.443	800.000	-0.047	0.147
-276.428	-200.000	-0.004	0.135
-275.413	-139.853	-0.211	-0.022
-274.399	46.963	-0.154	-0.142
-273.384	-200.000	0.006	0.081
-272.370	489.778	-0.039	0.087
-271.355	365.398	0.039	0.078
-270.340	-200.000	-0.012	-0.052
-269.326	-200.000	-0.006	0.240
-268.311	-200.000	-0.030	0.251
-267.297	16.203	0.200	-0.156
-266.282	-123.900	0.179	0.028
-265.267	-28.706	0.207	-0.118
-264.253	162.970	-0.109	0.152
-263.238	-200.000	0.067	-0.539
-262.224	-38.714	-0.241	-0.126
-261.209	650.638	-0.033	-0.083
-260.195	-100.329	-0.053	-0.013
-259.180	50.945	-0.146	0.136
-258.165	344.788	-0.080	-0.156
-257.151	145.928	-0.071	-0.094
-256.136	375.666	0.112	-0.226
-255.122	470.663	-0.095	-0.211
-254.107	-79.925	-0.103	-0.034
-253.092	-200.000	0.016	0.095
-252.078	-131.821	-0.204	-0.026
-251.063	-200.000	-0.053	0.502
-250.049	40.547	0.145	-0.129
-249.034	-200.000	0.016	-0.142
-248.019	148.393	-0.227	0.302
-247.005	-200.000	-0.041	0.236
-245.990	-200.000	-0.048	-0.257
-244.976	154.397	0.030	0.041
-243.961	800.000	0.005	-0.016
-242.946	-190.863	-0.059	0.001
-241.932	401.753	-0.059	-0.122
-240.917	152.313	-0.101	0.136
-239.903	85.958	0.255	0.277
-238.888	800.000	0.062	0.202
-237.873	-76.953	0.057	0.020
-236.859	37.217	-0.256	0.224
-235.844	206.957	0.065	-0.101
-234.830	800.000	0.084	-0.322
-233.815	-15.724	0.107	0.068
-232.800	-107.110	-0.426	-0.093
-231.786	-81.949	0.377	0.122
-230.771	-26.100	0.129	0.075
-229.757	800.000	0.064	0.260
-228.742	-200.000	0.067	-0.351
-227.727	-200.000	0.030	0.479
-226.713	-32.658	0.125	-0.069
-225.698	121.478	-0.071	-0.088
-224.684	380.071	-0.175	-0.354
-223.669	53.533	-0.230	0.218
-222.655	-200.000	-0.025	-0.293
-221.640	-101.763	-0.238	-0.057
-220.625	800.000	0.037	0.114
-219.611	234.634	-0.175	-0.285
-218.596	-200.000	0.060	0.351
-217.582	800.000	-0.110	0.438
-216.567	-52.273	0.078	0.036
-215.552	176.726	-0.137	-0.196
-214.538	-45.628	0.209	0.102
-213.523	800.000	-0.041	-0.169
-212.509	-102.447	-0.409	0.097
-211.494	126.166	-0.046	0.058
-210.479	166.847	0.083	0.116
-209.465	29.687	0.397	0.334
-208.450	343.355	0.091	0.176
-207.436	338.050	-0.098	-0.189
-206.421	540.195	0.134	-0.314
-205.406	-91.428	-0.183	-0.051
-204.392	-200.000	0.003	0.066
-203.377	336.295	-0.023	0.043
-202.363	-96.925	0.271	0.070
-201.348	-200.000	-0.013	0.166
-200.333	-200.000	-0.021	-0.151
-199.319	-200.000	-0.016	0.084
-198.304	-47.606	0.225	-0.108
-197.290	-200.000	0.021	-0.111
-196.275	-11.408	0.089	0.058
-195.260	-117.196	0.263	0.047
-194.246	-200.000	0.013	0.197
-193.231	71.699	-0.203	-0.208
-192.217	639.487	0.083	-0.209
-191.202	478.470	0.103	0.230
-190.187	-200.000	0.007	-0.035
-189.173	-154.954	0.248	0.016
-188.158	-99.321	-0.068	0.017
-187.144	284.133	0.215	-0.382
-186.129	-200.000	-0.007	-0.214
-185.114	44.970	-0.230	0.209
-184.100	284.788	-0.049	-0.088
-183.085	207.424	-0.032	-0.050
-182.071	-186.462	0.188	-0.003
-181.056	-200.000	0.018	-0.234
-180.042	-14.894	-0.249	0.157
-179.027	34.281	-0.306	0.263
-178.012	-200.000	-0.013	0.278
-176.998	-145.888	0.317	-0.028
-175.983	-200.000	-0.027	0.138
-174.969	-109.029	0.035	0.007
-173.954	93.280	0.276	-0.307
-172.939	800.000	0.031	0.097
-171.925	236.060	-0.058	0.095
-170.910	45.878	-0.071	-0.064
-169.896	7.334	-0.185	-0.136
-168.881	-200.000	0.020	-0.103
-167.866	-200.000	-0.017	-0.238
-166.852	-130.701	0.148	-0.020
-165.837	12.180	0.205	-0.155
-164.823	39.938	-0.252	-0.223
-163.808	800.000	0.131	-0.444
-162.793	225.524	0.117	-0.187
-161.779	239.083	0.055	-0.090
-160.764	672.187	0.066	0.168
-159.750	-6.091	-0.286	0.192
-158.735	800.000	0.032	-0.091
-157.720	-13.196	-0.299	0.191
-156.706	-200.000	0.020	-0.096
-155.691	800.000	0.095	-0.303
-154.677	-96.765	0.375	0.097
-153.662	315.466	-0.150	0.278
-152.647	141.903	0.167	0.217
-151.633	-149.911	-0.156	-0.012
-150.618	-137.446	-0.286	-0.032
-149.604	-73.938	0.288	-0.103
-148.589	-124.333	-0.223	0.034
-147.574	-200.000	-0.045	0.195
-146.560	-200.000	0.005	-0.108
-145.545	-147.172	0.242	-0.020
-144.531	-34.014	0.123	0.066
-143.516	-176.237	0.138	-0.004
-142.502	5.861	-0.182	0.132
-141.487	-145.890	0.320	0.028
-140.472	800.000	0.037	0.130
-139.458	424.956	0.024	0.051
-138.443	-20.095	0.311	-0.189
-137.429	50.737	-0.371	0.345
-136.414	-200.000	-0.003	0.034
-135.399	501.509	-0.079	0.179
-134.385	246.463	0.121	-0.200
-133.370	-187.060	-0.342	0.005
-132.356	478.784	-0.116	0.258
-131.341	-48.026	0.349	0.166
-130.326	-200.000	-0.001	-0.453
-129.312	-71.157	-0.146	0.054
-128.297	419.324	-0.018	-0.038
-127.283	800.000	0.048	0.158
-126.268	-34.094	-0.237	-0.128
-125.253	-200.000	0.041	0.191
-124.239	-30.464	0.046	-0.026
-123.224	-200.000	0.036	-0.276
-122.210	135.663	-0.141	0.180
-121.195	101.708	0.053	-0.061
-120.180	-45.053	0.273	0.133
-119.166	-200.000	-0.000	-0.098
-118.151	32.058	0.350	0.297
-117.137	-18.730	-0.040	0.024
-116.122	145.762	-0.157	0.206
-115.107	-117.499	-0.070	-0.012
-114.093	-81.661	-0.100	-0.032
-113.078	281.967	0.117	0.205
-112.064	-200.000	0.030	-0.331
-111.049	51.688	-0.114	-0.107
-110.034	-189.991	0.123	0.001
-109.020	-156.780	0.353	0.021
-108.005	-29.291	-0.062	0.035
-106.991	131.968	-0.098	-0.124
-105.976	-200.000	-0.016	0.105
-104.962	257.177	-0.090	0.151
-103.947	-38.336	0.197	-0.102
-102.932	712.205	0.059	0.153
-101.918	64.595	0.128	-0.127
-100.903	-141.373	-0.292	-0.029
-99.889	-16.410	0.267	0.167
-98.874	79.479	0.132	0.140
-97.859	203.897	0.083	0.126
-96.845	10.289	-0.237	-0.177
-95.830	-169.794	0.357	0.013
-94.816	118.812	-0.026	-0.031
-93.801	-82.334	0.109	0.035
-92.786	-79.842	-0.156	-0.052
-91.772	56.537	-0.116	0.111
-90.757	696.424	0.076	-0.196
-89.743	-112.577	-0.260	0.051
-88.728	-59.695	0.147	-0.062
-87.713	-177.672	0.469	0.011
-86.699	-5.049	-0.217	0.146
-85.684	-179.649	0.354	-0.008
-84.670	-98.270	-0.366	0.092
-83.655	0.021	-0.165	0.115
-82.640	318.778	-0.093	0.173
-81.626	-95.106	0.155	0.041
-80.611	-200.000	-0.044	-0.195
-79.597	-85.254	0.129	0.040
-78.582	-146.851	-0.231	-0.020
-77.567	-133.973	-0.404	0.049
-76.553	100.377	0.079	0.090
-75.538	-119.183	-0.074	0.013
-74.524	800.000	0.024	-0.069
-73.509	408.495	0.043	-0.088
-72.494	442.183	-0.109	-0.234
-71.480	800.000	-0.046	0.128
-70.465	-200.000	0.025	0.175
-69.451	244.806	-0.179	0.295
-68.436	-200.000	0.004	0.092
-67.422	-87.688	0.100	-0.030
-66.407	32.769	-0.098	-0.084
-65.392	16.999	-0.198	-0.154
-64.378	-143.432	0.130	-0.012
-63.363	-24.447	-0.139	0.081
-62.349	162.233	0.070	0.096
-61.334	69.813	-0.933	-0.944
-60.319	69.034	0.628	0.633
-59.305	663.032	-0.439	-1.110
-58.290	83.718	0.877	0.938
-57.276	162.215	0.774	1.064
-56.261	-200.000	111.963	621.617
-55.246	510.048	1519.770	3465.842
-54.232	176.992	2692.749	3842.559
-53.217	110.544	2150.567	2535.429
-52.203	40.299	1597.455	1409.418
-51.188	32.305	1340.436	1134.609
-50.173	29.222	1301.032	1083.121
-49.159	54.172	1357.898	1281.049
-48.144	54.068	1372.453	1294.104
-47.130	32.301	1326.293	1122.437
-46.115	28.977	1308.514	1087.730
-45.100	28.739	1303.872	1082.427
-44.086	28.646	1301.497	1079.864
-43.071	28.587	1299.108	1077.492
-42.057	28.560	1296.986	1075.534
-41.042	28.724	1294.900	1074.721
-40.027	28.705	1293.590	1073.476
-39.013	28.660	1292.291	1072.092
-37.998	28.657	1290.168	1070.276
-36.984	28.654	1288.634	1068.940
-35.969	28.770	1286.292	1067.627
-34.954	28.864	1284.394	1066.560
-33.940	28.765	1283.532	1065.224
-32.925	28.789	1282.519	1064.484
-31.911	28.881	1280.851	1063.586
-30.896	28.766	1279.448	1061.717
-29.881	28.904	1278.059	1061.319
-28.867	28.902	1276.468	1059.942
-27.852	28.879	1275.417	1058.897
-26.838	28.900	1273.684	1057.533
-25.823	28.868	1272.431	1056.271
-24.809	28.882	1271.336	1055.398
-23.794	28.853	1269.729	1053.854
-22.779	28.774	1268.542	1052.376
-21.765	28.871	1267.059	1051.662
-20.750	28.801	1265.833	1050.202
-19.736	28.800	1264.868	1049.351
-18.721	28.631	1263.763	1047.428
-17.706	28.609	1262.540	1046.250
-16.692	28.763	1261.050	1045.848
-15.677	28.758	1260.000	1044.910
-14.663	28.705	1259.285	1043.974
-13.648	28.674	1257.916	1042.619
-12.633	28.628	1256.823	1041.415
-11.619	28.633	1256.224	1040.905
-10.604	28.792	1255.257	1040.962
-9.590	28.691	1254.338	1039.587
-8.575	28.643	1253.774	1038.806
-7.560	28.696	1252.743	1038.209
-6.546	28.638	1251.837	1037.090
-5.531	28.632	1251.139	1036.437
-4.517	28.716	1250.313	1036.186
-3.502	28.562	1250.036	1035.046
-2.487	28.788	1248.493	1035.003
-1.473	28.629	1244.153	1030.469
-0.458	27.033	1228.848	1008.893
0.556	25.043	1211.372	970.808
1.571	21.239	1216.650	954.208
2.586	20.166	1231.105	959.528
3.600	19.880	1219.534	948.857
4.615	15.341	1149.022	870.413
5.629	7.460	1076.186	776.723
6.644	4.095	1057.117	746.692
7.659	3.816	1054.761	743.620
8.673	3.597	1053.381	741.531
9.688	3.603	1051.756	740.347
10.702	4.043	1050.069	741.203
11.717	8.914	1057.303	769.674
12.731	17.358	1069.306	819.175
13.746	22.341	1074.776	847.352
14.761	23.138	1075.619	851.781
15.775	22.428	1073.729	846.797
16.790	21.730	1071.908	841.936
17.804	21.095	1071.198	838.252
18.819	20.945	1069.988	836.509
19.834	21.004	1069.991	836.721
20.848	21.007	1068.947	835.846
21.863	20.754	1068.777	834.428
22.877	20.573	1067.936	832.831
23.892	20.549	1067.298	832.142
24.907	20.551	1066.273	831.279
25.921	20.597	1064.694	830.192
26.936	20.435	1063.802	828.655
27.950	20.340	1062.360	827.004
28.965	20.446	1061.143	826.490
29.980	20.883	1059.181	826.959
30.994	20.913	1058.389	826.410
32.009	20.830	1057.749	825.445
33.023	20.971	1056.377	824.969
34.038	20.837	1055.545	823.613
35.053	20.587	1054.835	821.805
36.067	20.555	1054.001	820.931
37.082	20.603	1053.097	820.379
38.096	20.744	1052.808	820.748
39.111	20.822	1051.788	820.249
40.126	20.567	1050.632	818.072
41.140	20.043	1048.970	814.247
42.155	20.024	1047.403	812.869
43.169	19.953	1046.497	811.757
44.184	19.929	1045.652	810.919
45.199	19.967	1044.530	810.158
46.213	20.132	1044.022	810.463
47.228	20.545	1043.154	811.646
48.242	20.525	1042.779	811.188
49.257	20.549	1041.682	810.376
50.271	20.722	1040.638	810.298
51.286	20.730	1040.271	809.974
52.301	20.870	1038.593	809.249
53.315	20.565	1037.944	807.254
54.330	20.393	1036.858	805.542
55.344	20.349	1035.755	804.409
56.359	20.385	1034.632	803.632
57.374	20.145	1034.417	802.285
58.388	20.049	1033.119	800.764
59.403	20.010	1032.124	799.742
60.417	20.012	1031.514	799.206
61.432	19.978	1030.888	798.493
62.447	19.754	1030.336	796.965
63.461	19.790	1029.282	796.241
64.476	19.669	1028.448	794.970
65.490	19.744	1027.526	794.534
66.505	19.851	1027.125	794.642
67.520	19.723	1026.724	793.675
68.534	19.828	1025.524	793.158
69.549	19.682	1024.299	791.474
70.563	19.530	1023.665	790.217
71.578	19.350	1022.971	788.787
72.593	19.236	1022.156	787.568
73.607	19.328	1021.217	787.195
74.622	19.496	1020.775	787.554
75.636	19.430	1020.315	786.827
76.651	19.555	1019.528	786.722
77.666	19.555	1018.697	786.007
78.680	19.529	1018.458	785.637
79.695	19.591	1017.630	785.208
80.709	19.780	1017.219	785.681
81.724	19.855	1016.671	785.529
82.739	20.002	1016.257	785.806
83.753	20.537	1015.539	787.609
84.768	20.925	1015.100	788.955
85.782	21.151	1014.291	789.278
86.797	20.942	1013.945	787.993
87.812	20.781	1012.430	786.020
88.826	20.790	1011.451	785.232
89.841	20.846	1010.866	784.958
90.855	20.983	1010.212	784.998
91.870	21.013	1009.133	784.227
92.884	20.870	1008.389	782.936
93.899	20.765	1007.284	781.538
94.914	21.018	1006.306	781.843
95.928	20.988	1005.104	780.707
96.943	20.740	1004.370	778.959
97.957	20.646	1003.441	777.746
98.972	20.845	1002.336	777.713
99.987	20.766	1002.120	777.122
101.001	20.714	1001.161	776.078
102.016	20.615	1000.219	774.840
103.030	20.846	999.055	774.894
104.045	20.763	998.422	773.967
105.060	20.666	997.386	772.664
106.074	20.208	996.253	769.686
107.089	20.142	994.819	768.217
108.103	20.010	993.969	766.909
109.118	19.691	992.831	764.554
110.133	19.733	991.445	763.605
111.147	19.783	990.743	763.216
112.162	19.817	990.223	762.899
113.176	19.965	989.862	763.204
114.191	20.052	988.965	762.828
115.206	20.029	988.212	762.078
116.220	19.871	987.480	760.751
117.235	19.753	986.833	759.668
118.249	19.756	985.611	758.675
119.264	19.665	984.657	757.475
120.279	19.628	983.724	756.525
121.293	19.527	983.144	755.573
122.308	19.428	981.913	754.127
123.322	19.319	981.223	753.052
124.337	19.343	980.131	752.254
125.352	19.377	979.186	751.607
126.366	19.293	978.767	750.854
127.381	19.403	977.474	750.277
128.395	19.461	976.491	749.707
129.410	19.546	975.924	749.572
130.424	19.711	975.197	749.667
131.439	19.953	974.786	750.332
132.454	19.929	974.012	749.567
133.468	19.928	973.012	748.725
134.483	19.988	972.342	748.402
135.497	20.114	971.266	748.055
136.512	19.950	970.893	746.990
137.527	19.968	970.143	746.426
138.541	19.988	969.190	745.713
139.556	20.050	969.088	745.838
140.570	20.383	968.888	747.049
141.585	20.475	967.709	746.467
142.600	20.611	966.712	746.219
143.614	20.768	966.104	746.354
144.629	20.902	964.951	745.970
145.643	20.771	963.652	744.340
146.658	20.446	962.510	742.004
147.673	20.352	961.669	740.892
148.687	20.211	960.046	738.976
149.702	19.995	959.547	737.606
150.716	20.038	958.759	737.116
151.731	20.069	957.954	736.565
152.746	20.127	957.137	736.116
153.760	20.175	956.840	736.027
154.775	20.282	956.434	736.105
155.789	20.398	955.482	735.800
156.804	20.281	955.026	734.887
157.819	20.400	954.723	735.091
158.833	20.798	953.832	736.022
159.848	20.900	952.825	735.612
160.862	20.684	951.485	733.602
161.877	20.324	950.061	730.921
162.892	19.964	949.214	728.692
163.906	19.879	947.819	727.197
164.921	19.904	947.157	726.733
165.935	19.962	946.671	726.539
166.950	20.196	945.427	726.501
167.964	20.127	944.888	725.731
168.979	20.071	943.199	724.135
169.994	20.157	942.346	723.779
171.008	20.232	942.597	724.219
172.023	20.568	942.092	725.167
173.037	20.741	941.405	725.294
174.052	20.383	940.245	722.848
175.067	19.939	939.471	720.342
176.081	19.736	938.571	718.743
177.096	19.885	937.692	718.626
178.110	19.994	937.016	718.497
179.125	20.072	936.506	718.366
180.140	20.075	936.514	718.322
181.154	20.417	936.374	719.566
182.169	20.596	936.215	720.121
183.183	20.561	935.307	719.214
184.198	20.603	934.549	718.742
185.213	20.589	934.036	718.225
186.227	20.571	933.375	717.582
187.242	20.704	932.857	717.667
188.256	20.978	932.033	718.098
189.271	20.923	931.675	717.534
190.286	20.411	930.389	714.373
191.300	19.837	929.222	711.056
192.315	19.615	928.401	709.454
193.329	19.897	928.089	710.311
194.344	19.979	927.642	710.239
195.359	20.314	926.868	710.957
196.373	20.467	926.275	711.067
197.388	20.589	926.487	711.665
198.402	20.865	926.010	712.365
199.417	21.055	925.621	712.778
200.432	21.196	924.971	712.791
201.446	21.239	924.741	712.725
202.461	21.309	924.100	712.457
203.475	21.002	923.401	710.600
204.490	20.756	922.180	708.597
205.504	20.492	921.397	706.859
206.519	20.507	920.517	706.185
207.534	20.670	919.595	706.077
208.548	20.699	919.161	705.798
209.563	20.679	918.365	705.044
210.577	20.647	918.400	704.879
211.592	21.026	917.814	705.898
212.607	21.070	917.157	705.511
213.621	20.829	916.529	703.989
214.636	20.819	915.708	703.255
215.650	21.004	915.141	703.505
216.665	20.989	914.699	703.045
217.680	21.235	913.887	703.348
218.694	21.022	913.318	701.992
219.709	21.157	912.228	701.635
220.723	20.917	911.597	700.120
221.738	20.824	910.937	699.179
222.753	20.791	910.596	698.724
223.767	21.108	909.820	699.335
224.782	21.264	909.542	699.687
225.796	21.155	909.234	698.951
226.811	21.133	907.986	697.841
227.826	20.825	907.438	696.126
228.840	20.776	906.369	695.051
229.855	20.848	905.527	694.630
230.869	20.731	904.915	693.634
231.884	20.698	904.431	693.072
232.899	20.668	903.676	692.311
233.913	20.276	903.221	690.342
234.928	20.342	901.986	689.600
235.942	20.336	901.324	689.005
236.957	20.368	901.106	688.908
237.972	20.417	900.500	688.577
238.986	20.399	899.757	687.876
240.001	20.472	898.993	687.521
241.015	20.510	898.851	687.503
242.030	20.745	898.663	688.226
243.045	20.782	897.764	687.624
244.059	20.746	896.892	686.751
245.074	20.843	896.788	686.994
246.088	20.944	896.186	686.871
247.103	21.163	895.726	687.317
248.117	21.345	895.957	688.153
249.132	21.835	895.519	689.682
250.147	22.034	895.217	690.172
251.161	22.061	894.603	689.743
252.176	22.079	894.013	689.298
253.190	22.145	893.167	688.841
254.205	22.138	892.543	688.273
255.220	22.037	892.143	687.508
256.234	22.005	891.278	686.657
257.249	22.104	890.207	686.158
258.263	21.856	889.866	684.864
259.278	21.913	889.320	684.608
260.293	21.995	889.076	684.679
261.307	22.072	888.625	684.569
262.322	22.210	887.805	684.415
263.336	22.220	886.511	683.397
264.351	22.076	886.150	682.496
265.366	22.104	885.783	682.264
266.380	22.022	884.797	681.126
267.395	21.956	884.089	680.263
268.409	21.808	883.492	679.172
269.424	21.855	882.728	678.707
270.439	21.948	881.352	677.948
271.453	21.568	881.070	676.204
272.468	21.729	880.555	676.369
273.482	21.655	880.154	675.717
274.497	21.587	879.505	674.895
275.512	21.661	878.887	674.647
276.526	21.731	878.419	674.497
277.541	21.869	878.192	674.795
278.555	22.031	878.238	675.393
279.570	22.311	877.247	675.646
280.585	22.186	876.201	674.302
281.599	21.860	875.171	672.201
282.614	21.857	874.215	671.397
283.628	21.616	873.833	670.119
284.643	21.704	873.527	670.162
285.657	21.700	872.662	669.425
286.672	21.869	871.885	669.413
287.687	21.850	871.609	669.069
288.701	21.916	870.890	668.710
289.716	21.751	870.664	667.851
290.730	21.854	870.047	667.710
291.745	22.044	869.185	667.711
292.760	22.023	869.050	667.470
293.774	22.224	869.185	668.277
294.789	22.168	867.845	666.977
295.803	21.842	867.001	665.033
296.818	21.879	866.158	664.468
297.833	21.671	865.469	663.091
298.847	21.772	865.019	663.069
299.862	22.089	864.450	663.772
300.876	22.196	864.347	664.039
301.891	22.235	864.281	664.077
302.906	22.370	863.659	664.049
303.920	22.577	863.158	664.388
304.935	22.681	862.480	664.198
305.949	22.504	861.514	662.730
306.964	22.106	861.159	660.902
307.979	22.194	860.293	660.509
308.993	22.481	859.589	660.986
310.008	22.501	859.124	660.647
311.022	22.271	858.702	659.399
312.037	22.033	858.001	657.911
313.052	21.807	856.787	656.079
314.066	21.522	856.646	654.845
315.081	21.508	856.003	654.243
316.095	21.670	855.558	654.449
317.110	21.712	854.799	653.968
318.125	21.629	854.211	653.152
319.139	21.563	853.761	652.503
320.154	21.639	853.090	652.218
321.168	21.718	853.027	652.405
322.183	21.895	852.496	652.600
323.197	21.917	851.765	652.063
324.212	21.915	851.259	651.613
325.227	21.936	850.615	651.139
326.241	21.720	850.018	649.822
327.256	21.651	849.223	648.904
328.270	21.733	849.109	649.062
329.285	21.658	848.267	648.082
330.300	21.577	847.469	647.117
331.314	21.639	847.411	647.245
332.329	22.017	846.487	647.875
333.343	22.073	846.963	648.390
334.358	22.048	846.461	647.857
335.373	22.271	845.844	648.148
336.387	22.304	845.633	648.049
337.402	22.453	845.423	648.381
338.416	22.717	845.420	649.292
339.431	22.843	844.773	649.201
340.446	22.906	844.614	649.255
341.460	22.905	844.502	649.108
342.475	23.010	844.164	649.176
343.489	23.113	843.725	649.157
344.504	23.239	843.333	649.260
345.519	23.227	842.561	648.567
346.533	23.026	842.237	647.523
347.548	22.696	841.554	645.732
348.562	22.374	840.501	643.691
349.577	22.262	839.861	642.734
350.592	22.188	838.897	641.670
351.606	22.274	838.197	641.390
352.621	22.225	837.649	640.735
353.635	22.335	837.012	640.592
354.650	22.389	836.269	640.163
355.665	22.518	836.166	640.498
356.679	22.660	835.539	640.474
357.694	22.661	834.417	639.564
358.708	22.688	833.961	639.254
359.723	22.475	833.458	638.040
360.738	22.452	833.014	637.560
361.752	22.654	832.361	637.735
362.767	22.797	832.213	638.084
363.781	23.077	831.844	638.756
364.796	23.255	831.618	639.167
365.810	23.287	831.548	639.171
366.825	23.311	830.978	638.765
367.840	23.163	830.315	637.663
368.854	23.090	829.783	636.937
369.869	23.044	828.781	635.947
370.883	22.968	828.494	635.395
371.898	23.212	828.294	636.063
372.913	23.148	828.416	635.872
373.927	22.961	827.511	634.450
374.942	23.017	826.441	633.772
375.956	23.268	826.132	634.380
376.971	23.289	826.043	634.329
377.986	23.605	825.613	635.076
379.000	23.379	825.173	633.872
380.015	23.423	824.653	633.575
381.029	23.444	823.682	632.847
382.044	23.394	823.453	632.435
383.059	23.490	822.693	632.139
384.073	23.356	821.975	631.053
385.088	22.960	821.311	629.078
386.102	22.639	820.742	627.444
387.117	22.825	819.804	627.334
388.132	22.863	818.928	626.743
389.146	22.930	818.840	626.857
390.161	23.226	818.541	627.622
391.175	23.370	818.393	627.964
392.190	23.165	817.396	626.419
393.205	22.810	817.044	624.835
394.219	22.768	816.292	624.058
395.234	22.874	815.690	623.915
396.248	22.560	815.350	622.492
397.263	22.624	814.898	622.317
398.278	22.487	814.206	621.251
399.292	22.539	813.534	620.866
400.307	22.447	813.425	620.406
401.321	22.576	812.786	620.315
402.336	22.794	812.882	621.101
403.350	22.987	812.138	621.155
404.365	23.229	812.303	622.079
405.380	23.573	811.711	622.777
406.394	23.651	811.235	622.630
407.409	23.604	811.005	622.236
408.423	23.767	810.818	622.608
409.438	23.881	810.645	622.820
410.453	23.871	809.749	622.042
411.467	23.796	809.259	621.348
412.482	23.944	809.142	621.718
413.496	24.133	808.680	621.970
414.511	23.924	808.489	621.038
415.526	23.802	807.962	620.152
416.540	23.621	807.281	618.942
417.555	23.557	806.755	618.262
418.569	23.821	805.997	618.545
419.584	23.846	805.885	618.491
420.599	23.761	805.606	617.929
421.613	163.508	1371.920	1796.373
422.628	142.218	1454.406	1796.464
