DTS Sentinel unit serial number:	SN413079Multiplexer serial number:	ORYXHardware model number:	OX4-SRSoftware version number:	ORYX F/W v4.00 Oryx Data Collector v3.7.2.0data status	okinstallation	princeton_trtdifferential loss correction	single-endedforward channel	channel 1reverse channel	N/Adate	2019/09/16time	05:58:35forward acquisition time	60.00reverse acquisition time	0.00gamma	496.2192k internal	0.2331k external	0.2331temperature offset calibration	0.9978default loss term (dB/km)	0.3790temperature slope calibration	1.0000multiplexer offset coefficient	1.0000multiplexer slope coefficient	1.0000fibre end	0.00T internal ref (°C)	27.44T ext. ref 1 (°C)	11.25T ext. ref 2 (°C)	22.13length (m)	temperature (°C)	Stokes	anti-Stokes-747.200	304.964	0.071	-0.133
-746.185	-116.237	-0.210	0.039
-745.171	-200.000	-0.013	0.224
-744.156	752.411	0.066	0.179
-743.142	-141.950	0.393	-0.039
-742.127	58.563	0.146	0.145
-741.112	-8.870	-0.220	-0.149
-740.098	-200.000	-0.028	0.142
-739.083	319.722	0.152	-0.289
-738.069	-174.859	-0.413	-0.012
-737.054	343.649	0.170	0.335
-736.039	-200.000	-0.018	-0.181
-735.025	-200.000	-0.058	0.382
-734.010	397.522	-0.039	0.082
-732.996	50.964	-0.147	0.140
-731.981	-111.727	-0.073	-0.015
-730.966	-93.468	0.149	-0.041
-729.952	-111.156	-0.299	-0.062
-728.937	-118.164	0.130	-0.023
-727.923	-63.262	-0.328	-0.136
-726.908	419.644	-0.260	-0.560
-725.894	24.564	0.205	0.171
-724.879	93.998	-0.219	-0.250
-723.864	-33.553	0.356	0.198
-722.850	-114.047	-0.102	-0.020
-721.835	800.000	0.084	0.322
-720.821	-200.000	-0.005	-0.394
-719.806	-200.000	0.041	-0.289
-718.791	800.000	-0.080	-0.255
-717.777	-127.283	-0.275	0.040
-716.762	-200.000	-0.034	0.231
-715.748	-78.908	0.120	0.041
-714.733	-24.968	-0.080	-0.048
-713.718	-58.470	0.263	-0.115
-712.704	-143.024	0.304	-0.030
-711.689	-200.000	0.058	-0.346
-710.675	-200.000	0.006	-0.263
-709.660	-63.887	-0.151	-0.062
-708.645	-67.569	-0.394	0.155
-707.631	800.000	0.054	-0.231
-706.616	257.435	-0.195	0.337
-705.602	-200.000	-0.060	0.458
-704.587	-32.342	0.298	-0.167
-703.572	-200.000	0.020	0.135
-702.558	20.958	-0.116	-0.094
-701.543	-200.000	0.025	-0.398
-700.529	9.116	0.168	0.127
-699.514	-66.407	0.148	0.059
-698.499	-200.000	0.016	-0.223
-697.485	84.750	0.082	0.090
-696.470	-51.711	-0.030	0.014
-695.456	-92.030	-0.049	0.014
-694.441	-164.048	-0.117	-0.005
-693.426	-29.071	0.253	-0.146
-692.412	-25.392	0.032	-0.019
-691.397	122.525	0.144	0.181
-690.383	-200.000	0.040	-0.340
-689.368	800.000	0.011	0.034
-688.354	73.995	0.290	0.306
-687.339	-200.000	0.025	-0.172
-686.324	-32.272	-0.355	-0.199
-685.310	-69.781	-0.157	-0.060
-684.295	266.941	-0.209	-0.367
-683.281	-200.000	0.037	-0.325
-682.266	-38.159	-0.145	0.077
-681.251	-15.040	-0.271	0.174
-680.237	-21.555	-0.254	0.155
-679.222	1.795	-0.205	-0.148
-678.208	-12.815	-0.154	0.100
-677.193	738.182	0.180	0.484
-676.178	-56.732	-0.242	-0.107
-675.164	800.000	0.087	-0.295
-674.149	-115.006	-0.122	-0.023
-673.135	-196.445	-0.227	0.002
-672.120	337.625	-0.037	-0.071
-671.105	-200.000	0.046	0.295
-670.091	-89.736	-0.078	-0.023
-669.076	-85.303	0.201	-0.063
-668.062	177.025	0.150	-0.220
-667.047	800.000	0.022	-0.083
-666.032	-80.870	-0.141	-0.047
-665.018	206.918	0.047	-0.073
-664.003	800.000	-0.018	0.077
-662.989	205.193	0.163	-0.254
-661.974	-143.556	0.202	-0.019
-660.959	398.649	0.135	0.283
-659.945	-91.189	-0.514	-0.148
-658.930	-127.668	-0.241	-0.035
-657.916	-80.928	-0.322	-0.107
-656.901	37.608	0.232	-0.207
-655.886	-200.000	-0.002	0.163
-654.872	84.436	0.112	-0.123
-653.857	800.000	-0.080	-0.333
-652.843	1.698	0.231	-0.167
-651.828	-134.530	0.106	-0.013
-650.814	-54.804	0.202	0.091
-649.799	-200.000	0.003	-0.242
-648.784	-200.000	0.009	-0.360
-647.770	-200.000	-0.036	0.183
-646.755	800.000	-0.028	0.082
-645.741	92.977	-0.131	0.148
-644.726	-137.589	0.105	-0.012
-643.711	484.330	-0.120	-0.275
-642.697	291.878	-0.068	-0.124
-641.682	11.865	-0.125	-0.096
-640.668	-200.000	0.015	0.148
-639.653	800.000	0.069	0.277
-638.638	322.382	-0.042	-0.080
-637.624	144.790	-0.124	0.166
-636.609	-200.000	-0.014	-0.144
-635.595	-22.185	0.144	-0.087
-634.580	-12.095	0.177	0.116
-633.565	-200.000	-0.062	0.369
-632.551	-15.179	0.206	-0.132
-631.536	-85.270	-0.474	0.148
-630.522	176.738	0.102	-0.148
-629.507	-200.000	0.059	-0.345
-628.492	36.855	-0.301	0.266
-627.478	-72.404	0.112	-0.042
-626.463	174.356	0.085	-0.123
-625.449	800.000	0.076	0.211
-624.434	-179.328	0.110	0.002
-623.419	175.717	0.087	0.127
-622.405	-84.092	-0.074	-0.024
-621.390	278.021	0.023	-0.041
-620.376	-116.760	-0.270	0.050
-619.361	131.744	-0.167	-0.215
-618.346	-200.000	-0.083	-0.491
-617.332	454.193	0.050	0.110
-616.317	121.310	-0.136	0.169
-615.303	-69.779	-0.209	-0.080
-614.288	249.969	0.173	-0.295
-613.273	-200.000	0.035	-0.327
-612.259	-134.336	-0.343	-0.042
-611.244	150.326	-0.217	-0.294
-610.230	28.081	0.262	0.221
-609.215	-127.621	-0.280	0.041
-608.201	800.000	-0.043	-0.120
-607.186	800.000	-0.024	0.074
-606.171	-85.770	-0.254	0.079
-605.157	182.860	0.172	-0.254
-604.142	102.204	-0.272	-0.318
-603.128	-156.305	0.415	0.026
-602.113	3.702	-0.282	-0.206
-601.098	28.474	-0.185	0.156
-600.084	-187.035	-0.383	-0.005
-599.069	132.138	-0.263	0.339
-598.055	-38.963	0.132	-0.070
-597.040	32.218	-0.244	0.210
-596.025	-114.415	0.312	-0.060
-595.011	800.000	-0.017	-0.061
-593.996	201.868	0.107	0.164
-592.982	-4.301	-0.140	0.097
-591.967	-200.000	-0.015	0.323
-590.952	-200.000	-0.022	0.338
-589.938	-200.000	-0.039	0.316
-588.923	-192.537	-0.101	0.001
-587.909	-121.935	0.134	0.022
-586.894	-200.000	-0.027	-0.204
-585.879	-140.483	-0.152	0.016
-584.865	-7.758	0.409	0.276
-583.850	-200.000	0.063	-0.333
-582.836	-92.313	-0.386	-0.109
-581.821	172.077	-0.132	-0.189
-580.806	578.869	0.058	-0.142
-579.792	344.947	0.061	-0.120
-578.777	125.619	-0.131	0.166
-577.763	-200.000	0.006	0.157
-576.748	-200.000	-0.023	0.170
-575.733	172.913	-0.043	-0.062
-574.719	547.290	0.091	-0.217
-573.704	513.654	0.097	-0.227
-572.690	123.243	-0.127	-0.159
-571.675	79.645	-0.408	0.438
-570.661	800.000	-0.060	0.209
-569.646	-86.798	0.322	0.098
-568.631	456.358	-0.022	-0.050
-567.617	-60.786	-0.088	-0.037
-566.602	-60.405	0.217	-0.092
-565.588	-81.179	-0.205	-0.068
-564.573	-85.843	-0.349	-0.108
-563.558	-141.763	-0.208	0.021
-562.544	4.328	-0.170	-0.125
-561.529	-110.370	-0.156	-0.032
-560.515	-13.777	-0.225	-0.145
-559.500	800.000	-0.009	-0.036
-558.485	-123.338	-0.322	-0.051
-557.471	238.918	-0.070	0.116
-556.456	-95.849	0.178	-0.047
-555.442	-200.000	0.003	0.051
-554.427	-200.000	0.035	-0.208
-553.412	34.907	-0.181	-0.158
-552.398	13.489	-0.075	0.058
-551.383	800.000	0.075	-0.218
-550.369	-46.485	0.297	-0.146
-549.354	800.000	-0.072	0.232
-548.339	800.000	0.060	-0.227
-547.325	-109.162	-0.069	0.015
-546.310	-200.000	-0.050	0.269
-545.296	-200.000	0.042	-0.325
-544.281	800.000	-0.069	-0.210
-543.266	232.840	-0.054	0.088
-542.252	-13.804	0.275	0.177
-541.237	-69.454	0.199	-0.076
-540.223	112.074	0.314	-0.379
-539.208	149.742	0.047	0.064
-538.193	-200.000	-0.029	-0.227
-537.179	-111.462	0.372	0.076
-536.164	-85.874	-0.062	0.019
-535.150	-200.000	-0.013	-0.304
-534.135	-156.773	-0.176	-0.011
-533.121	800.000	0.060	0.169
-532.106	21.535	0.150	0.121
-531.091	45.037	-0.313	-0.288
-530.077	626.321	0.017	0.043
-529.062	-200.000	-0.032	-0.295
-528.048	-95.622	-0.255	0.068
-527.033	-200.000	-0.013	0.091
-526.018	357.303	-0.050	0.100
-525.004	-116.673	-0.256	0.047
-523.989	-200.000	-0.015	-0.306
-522.975	-105.052	0.222	-0.051
-521.960	-200.000	-0.006	0.323
-520.945	16.028	0.288	0.226
-519.931	34.053	-0.168	-0.146
-518.916	800.000	0.061	0.171
-517.902	-160.105	0.232	-0.013
-516.887	-61.930	-0.133	0.056
-515.872	75.931	-0.187	0.197
-514.858	-98.329	-0.311	0.080
-513.843	-200.000	-0.006	0.191
-512.829	118.312	0.237	-0.292
-511.814	426.410	-0.165	0.355
-510.799	-200.000	-0.001	0.096
-509.785	-161.286	-0.208	0.011
-508.770	800.000	-0.058	-0.183
-507.756	-56.068	0.256	-0.114
-506.741	-200.000	0.004	-0.151
-505.726	-200.000	-0.032	-0.147
-504.712	-25.107	0.079	-0.047
-503.697	-200.000	0.006	-0.180
-502.683	-63.722	0.550	-0.225
-501.668	-49.831	-0.241	-0.114
-500.653	-55.648	0.135	-0.060
-499.639	800.000	0.053	-0.199
-498.624	-200.000	-0.012	0.217
-497.610	-153.276	-0.349	0.024
-496.595	-157.501	-0.120	0.007
-495.581	-160.838	-0.312	-0.016
-494.566	800.000	-0.042	-0.142
-493.551	-41.285	-0.282	-0.145
-492.537	195.588	0.188	0.285
-491.522	-70.691	0.227	-0.085
-490.508	-35.264	-0.358	-0.194
-489.493	800.000	0.061	-0.176
-488.478	248.412	0.162	0.273
-487.464	-86.764	0.338	0.103
-486.449	-37.114	0.251	0.134
-485.435	-155.854	0.181	0.011
-484.420	-59.075	0.414	-0.178
-483.405	225.566	0.069	-0.111
-482.391	98.932	0.116	-0.133
-481.376	-10.028	-0.115	-0.076
-480.362	-200.000	-0.004	-0.292
-479.347	296.083	-0.073	0.132
-478.332	-83.204	0.117	0.037
-477.318	-108.703	-0.249	0.053
-476.303	-140.055	0.458	-0.048
-475.289	-4.017	0.162	0.112
-474.274	411.617	0.135	0.286
-473.259	50.234	0.318	-0.299
-472.245	800.000	-0.035	0.145
-471.230	79.077	0.046	0.049
-470.216	248.370	-0.069	0.116
-469.201	-200.000	-0.018	-0.391
-468.186	192.639	-0.117	-0.176
-467.172	-200.000	-0.006	-0.346
-466.157	-30.673	0.206	-0.116
-465.143	209.568	-0.131	0.205
-464.128	-7.534	-0.131	0.088
-463.113	-105.428	0.297	-0.067
-462.099	-181.944	0.138	-0.003
-461.084	-166.202	0.158	-0.007
-460.070	-3.003	-0.100	0.070
-459.055	-150.619	-0.166	-0.013
-458.040	-158.250	-0.272	0.016
-457.026	-200.000	-0.002	-0.028
-456.011	145.959	0.140	-0.187
-454.997	6.848	0.117	-0.087
-453.982	457.786	-0.073	-0.162
-452.968	353.203	0.144	0.285
-451.953	136.548	0.181	0.235
-450.938	-144.309	0.304	0.028
-449.924	-104.608	-0.317	0.073
-448.909	-81.729	0.363	0.118
-447.895	182.798	-0.040	0.058
-446.880	-72.997	-0.099	0.036
-445.865	408.039	-0.091	-0.191
-444.851	800.000	0.028	-0.081
-443.836	199.342	0.129	-0.197
-442.822	-200.000	0.009	0.252
-441.807	-96.089	0.115	0.030
-440.792	-200.000	0.010	-0.225
-439.778	-200.000	-0.005	0.090
-438.763	233.076	-0.062	-0.101
-437.749	-108.718	-0.180	0.038
-436.734	-75.393	-0.206	0.073
-435.719	20.481	-0.220	-0.177
-434.705	-45.153	0.533	-0.264
-433.690	-56.459	-0.266	0.117
-432.676	-69.197	0.226	-0.086
-431.661	-200.000	0.043	-0.369
-430.646	-200.000	-0.028	-0.307
-429.632	-16.665	-0.101	0.063
-428.617	-200.000	-0.035	0.156
-427.603	-12.239	0.161	0.105
-426.588	32.694	-0.135	-0.116
-425.573	577.938	-0.045	-0.110
-424.559	-64.504	-0.254	0.102
-423.544	800.000	0.039	0.125
-422.530	-152.907	-0.116	-0.008
-421.515	-80.228	0.104	-0.035
-420.500	189.735	0.042	0.063
-419.486	-158.595	-0.461	-0.026
-418.471	39.765	0.339	-0.302
-417.457	364.540	0.083	0.166
-416.442	102.588	-0.108	0.126
-415.428	-99.098	-0.205	-0.052
-414.413	201.767	-0.113	-0.173
-413.398	-200.000	-0.007	-0.067
-412.384	-82.561	0.441	0.142
-411.369	-2.896	0.326	0.226
-410.355	-156.996	0.444	0.027
-409.340	333.042	0.137	0.264
-408.325	-165.375	-0.105	-0.005
-407.311	-200.000	-0.009	-0.241
-406.296	279.608	0.071	0.126
-405.282	800.000	0.041	0.165
-404.267	267.173	-0.085	0.148
-403.252	62.718	0.081	-0.081
-402.238	99.454	0.189	-0.217
-401.223	55.678	0.298	0.286
-400.209	800.000	0.103	-0.296
-399.194	-30.793	0.129	-0.072
-398.179	-16.770	0.112	-0.070
-397.165	-25.104	0.236	0.139
-396.150	-126.127	-0.387	0.058
-395.136	-145.280	-0.237	0.021
-394.121	-200.000	-0.001	-0.355
-393.106	-33.229	0.256	0.141
-392.092	-200.000	0.003	-0.018
-391.077	-186.167	-0.322	0.005
-390.063	800.000	0.084	0.268
-389.048	-200.000	-0.002	0.137
-388.033	-53.267	-0.110	-0.050
-387.019	0.904	0.286	-0.203
-386.004	-113.910	0.271	0.052
-384.990	-200.000	-0.016	0.179
-383.975	800.000	0.037	0.114
-382.960	-200.000	-0.016	0.216
-381.946	-200.000	0.018	0.141
-380.931	-200.000	-0.001	-0.480
-379.917	-200.000	0.013	0.147
-378.902	104.903	-0.212	0.248
-377.888	159.645	-0.135	0.187
-376.873	297.751	-0.153	0.279
-375.858	-106.804	0.386	0.085
-374.844	-116.258	-0.172	0.032
-373.829	800.000	-0.094	0.383
-372.815	-79.664	-0.231	-0.077
-371.800	-200.000	0.065	-0.475
-370.785	577.836	-0.078	-0.189
-369.771	-67.531	-0.193	-0.075
-368.756	-25.479	0.062	-0.036
-367.742	-70.241	0.231	0.087
-366.727	-77.225	-0.395	0.136
-365.712	-150.852	0.063	-0.005
-364.698	-59.281	0.128	0.054
-363.683	110.513	0.101	-0.121
-362.669	-92.738	-0.071	0.020
-361.654	-45.761	0.193	0.095
-360.639	-159.118	-0.253	0.014
-359.625	471.245	-0.178	-0.397
-358.610	800.000	-0.143	-0.425
-357.596	4.140	0.396	0.287
-356.581	-200.000	-0.113	0.509
-355.566	-48.604	-0.291	-0.139
-354.552	144.533	0.145	-0.191
-353.537	96.453	0.091	0.104
-352.523	-200.000	-0.002	-0.130
-351.508	-13.694	-0.143	0.091
-350.493	-200.000	-0.067	0.624
-349.479	-12.142	0.194	-0.126
-348.464	10.229	-0.158	0.119
-347.450	-71.635	0.171	-0.063
-346.435	538.895	0.030	-0.072
-345.420	430.288	-0.036	0.077
-344.406	33.533	0.091	0.078
-343.391	21.097	-0.100	-0.080
-342.377	-200.000	0.006	0.093
-341.362	-90.744	0.158	0.045
-340.348	92.330	0.223	0.249
-339.333	-139.137	0.128	0.014
-338.318	-4.335	-0.200	0.137
-337.304	-200.000	-0.014	0.132
-336.289	800.000	-0.102	0.343
-335.275	800.000	0.086	0.240
-334.260	-173.453	0.107	-0.003
-333.245	-102.778	0.244	0.058
-332.231	-200.000	0.000	-0.028
-331.216	14.719	-0.160	-0.124
-330.202	-117.320	0.401	-0.072
-329.187	205.237	0.040	-0.062
-328.172	-41.248	0.315	-0.161
-327.158	-200.000	-0.006	-0.194
-326.143	-200.000	-0.034	-0.349
-325.129	800.000	-0.133	-0.403
-324.114	566.712	0.032	0.077
-323.099	-200.000	-0.045	0.681
-322.085	-94.904	-0.286	0.077
-321.070	-67.636	-0.163	0.063
-320.056	200.439	-0.067	0.101
-319.041	-125.264	0.124	0.019
-318.026	27.475	0.136	-0.113
-317.012	-200.000	0.015	0.170
-315.997	115.697	0.220	-0.266
-314.983	-137.124	-0.412	0.047
-313.968	-80.966	-0.027	-0.009
-312.953	800.000	-0.012	0.040
-311.939	-200.000	0.005	0.229
-310.924	186.112	0.119	0.175
-309.910	345.747	-0.018	0.036
-308.895	298.758	-0.121	0.221
-307.880	722.819	0.080	0.210
-306.866	-185.062	0.319	0.005
-305.851	38.666	0.108	0.095
-304.837	-69.694	-0.235	-0.089
-303.822	-131.795	0.045	0.006
-302.807	35.415	-0.100	-0.087
-301.793	-200.000	-0.022	-0.130
-300.778	-26.218	0.169	-0.098
-299.764	-30.735	-0.220	0.123
-298.749	-38.431	-0.176	-0.092
-297.735	800.000	-0.053	-0.148
-296.720	603.846	0.100	0.246
-295.705	10.070	0.190	-0.143
-294.691	-200.000	0.044	-0.208
-293.676	45.009	0.243	0.221
-292.662	-50.481	-0.339	0.158
-291.647	-116.483	-0.277	-0.051
-290.632	-127.078	-0.143	-0.021
-289.618	312.424	-0.116	-0.214
-288.603	-200.000	-0.013	-0.141
-287.589	-200.000	-0.036	-0.161
-286.574	-61.721	0.434	0.180
-285.559	-200.000	-0.044	-0.363
-284.545	-200.000	0.045	-0.338
-283.530	-200.000	0.021	-0.115
-282.516	363.431	-0.129	-0.257
-281.501	-45.129	0.272	0.134
-280.486	433.803	0.062	0.133
-279.472	-21.213	0.049	-0.030
-278.457	-130.696	-0.127	0.017
-277.443	381.387	0.056	-0.114
-276.428	-200.000	-0.015	-0.213
-275.413	72.904	-0.263	0.272
-274.399	97.715	0.129	0.146
-273.384	-128.173	-0.166	0.023
-272.370	208.445	-0.105	0.163
-271.355	-109.182	0.136	-0.029
-270.340	-61.784	-0.053	-0.022
-269.326	18.125	-0.281	0.221
-268.311	193.305	-0.092	-0.138
-267.297	62.423	-0.102	0.100
-266.282	798.216	0.123	-0.336
-265.267	45.952	0.169	-0.154
-264.253	-7.783	-0.185	-0.123
-263.238	266.203	-0.098	-0.169
-262.224	85.988	0.124	0.135
-261.209	-36.465	0.170	0.090
-260.195	-47.592	-0.108	-0.052
-259.180	-200.000	-0.029	0.151
-258.165	74.829	-0.152	-0.158
-257.151	-1.922	-0.099	-0.069
-256.136	471.553	0.038	0.085
-255.122	-200.000	-0.000	0.253
-254.107	173.382	-0.213	-0.304
-253.092	-200.000	-0.057	0.307
-252.078	267.718	0.204	0.352
-251.063	800.000	0.107	0.330
-250.049	-134.261	0.346	-0.042
-249.034	81.574	-0.111	0.119
-248.019	19.947	-0.168	0.134
-247.005	-135.150	-0.270	-0.032
-245.990	220.836	-0.227	0.359
-244.976	-200.000	0.012	0.170
-243.961	91.295	0.032	0.036
-242.946	-85.109	0.253	-0.078
-241.932	358.467	-0.051	-0.101
-240.917	800.000	-0.041	-0.114
-239.903	-200.000	0.030	-0.153
-238.888	648.268	-0.080	-0.202
-237.873	25.403	0.200	-0.164
-236.859	197.372	0.048	0.072
-235.844	-200.000	0.013	0.167
-234.830	396.757	-0.110	-0.228
-233.815	-93.776	0.433	0.118
-232.800	146.880	0.114	0.152
-231.786	361.875	-0.076	-0.150
-230.771	-200.000	-0.032	0.161
-229.757	191.464	-0.058	0.085
-228.742	64.153	-0.081	-0.080
-227.727	19.565	0.309	-0.245
-226.713	225.566	0.153	0.244
-225.698	800.000	0.069	0.208
-224.684	-38.526	0.232	0.121
-223.669	14.685	-0.144	0.111
-222.655	-200.000	-0.028	-0.123
-221.640	259.604	-0.177	0.302
-220.625	-200.000	-0.030	-0.190
-219.611	-200.000	-0.039	-0.205
-218.596	-128.653	-0.390	0.054
-217.582	-100.603	-0.297	0.072
-216.567	-26.207	0.359	-0.208
-215.552	-22.822	-0.146	0.087
-214.538	265.147	0.381	0.655
-213.523	488.834	-0.006	0.014
-212.509	192.357	-0.128	-0.191
-211.494	44.977	-0.181	-0.165
-210.479	-115.749	0.195	0.036
-209.465	-114.116	-0.428	0.082
-208.450	-200.000	-0.012	-0.072
-207.436	75.496	0.153	0.160
-206.421	-200.000	-0.022	0.113
-205.406	537.949	0.170	0.398
-204.392	-152.676	-0.234	0.016
-203.377	501.074	0.173	-0.393
-202.363	292.434	0.048	-0.086
-201.348	-171.597	0.108	-0.004
-200.333	-38.348	0.033	0.017
-199.319	-57.200	0.201	-0.087
-198.304	-82.941	-0.083	-0.026
-197.290	422.346	-0.230	0.486
-196.275	-200.000	-0.007	-0.046
-195.260	-25.279	-0.251	-0.146
-194.246	53.188	-0.137	-0.129
-193.231	266.337	0.135	-0.232
-192.217	384.440	0.178	-0.361
-191.202	54.960	0.250	0.238
-190.187	-44.956	0.150	-0.073
-189.173	-200.000	-0.043	-0.239
-188.158	99.976	-0.110	0.126
-187.144	-42.063	0.126	-0.064
-186.129	-200.000	0.036	0.158
-185.114	-90.945	0.480	0.136
-184.100	-200.000	0.274	0.000
-183.085	-7.053	-0.127	0.085
-182.071	800.000	-0.052	-0.208
-181.056	177.634	0.150	0.215
-180.042	800.000	-0.063	-0.229
-179.027	-22.617	-0.052	-0.031
-178.012	83.963	0.223	0.239
-176.998	-28.313	0.240	0.137
-175.983	239.569	0.121	-0.199
-174.969	505.046	-0.085	-0.193
-173.954	236.238	-0.100	0.162
-172.939	766.152	0.038	0.102
-171.925	-45.449	-0.295	-0.144
-170.910	-200.000	0.028	0.263
-169.896	123.610	0.128	-0.158
-168.881	-200.000	0.065	0.344
-167.866	-200.000	0.032	0.140
-166.852	74.854	-0.215	0.223
-165.837	599.043	-0.104	0.254
-164.823	151.340	0.210	-0.281
-163.808	-200.000	0.023	0.211
-162.793	-200.000	-0.008	0.260
-161.779	-82.336	0.317	-0.102
-160.764	96.864	-0.208	0.234
-159.750	-16.932	-0.113	0.070
-158.735	-87.037	-0.140	0.042
-157.720	222.454	0.094	-0.148
-156.706	71.704	-0.027	0.027
-155.691	120.019	-0.087	-0.106
-154.677	-67.898	-0.099	0.038
-153.662	-107.807	0.082	-0.018
-152.647	128.480	-0.179	-0.224
-151.633	-200.000	0.007	-0.080
-150.618	-97.971	-0.284	-0.072
-149.604	-180.344	-0.083	0.002
-148.589	-53.845	0.030	0.014
-147.574	166.805	-0.129	-0.180
-146.560	-115.318	-0.051	0.010
-145.545	-200.000	0.022	-0.185
-144.531	53.451	-0.139	-0.131
-143.516	116.524	-0.153	0.185
-142.502	800.000	-0.011	-0.032
-141.487	800.000	0.132	-0.425
-140.472	-118.805	0.427	0.074
-139.458	-200.000	-0.016	0.320
-138.443	-200.000	-0.077	0.392
-137.429	800.000	-0.135	-0.402
-136.414	-200.000	-0.023	-0.153
-135.399	-200.000	-0.005	0.218
-134.385	-200.000	0.010	0.136
-133.370	-115.256	0.247	-0.046
-132.356	-66.872	-0.203	-0.079
-131.341	-200.000	0.030	0.241
-130.326	-112.386	-0.059	-0.012
-129.312	800.000	0.028	0.112
-128.297	194.031	0.105	-0.156
-127.283	38.579	0.168	0.147
-126.268	3.963	-0.094	-0.067
-125.253	-178.365	-0.237	-0.005
-124.239	-9.376	-0.349	-0.229
-123.224	729.054	-0.079	-0.207
-122.210	35.229	0.053	-0.046
-121.195	128.603	-0.013	0.016
-120.180	-129.948	-0.224	-0.030
-119.166	441.284	-0.117	0.252
-118.151	-129.993	-0.168	0.023
-117.137	-200.000	0.062	0.302
-116.122	-171.812	0.151	-0.005
-115.107	11.332	-0.180	-0.135
-114.093	187.224	0.122	-0.178
-113.078	37.754	0.288	0.251
-112.064	-112.443	-0.374	-0.073
-111.049	-103.291	-0.302	0.070
-110.034	196.021	0.029	0.043
-109.020	127.298	-0.070	-0.087
-108.005	-61.678	0.230	-0.095
-106.991	43.446	-0.249	-0.223
-105.976	298.989	0.134	-0.241
-104.962	41.836	-0.124	-0.111
-103.947	-164.059	0.301	0.014
-102.932	162.063	0.098	-0.134
-101.918	-86.905	-0.229	0.069
-100.903	62.241	-0.202	-0.198
-99.889	-59.886	-0.202	-0.085
-98.874	-200.000	-0.040	0.312
-97.859	-133.693	-0.243	0.030
-96.845	-101.971	-0.244	-0.058
-95.830	13.019	-0.056	-0.042
-94.816	800.000	-0.070	-0.199
-93.801	800.000	0.035	-0.133
-92.786	490.181	0.053	0.118
-91.772	-150.467	0.164	0.012
-90.757	-73.309	0.243	-0.087
-89.743	-3.933	-0.346	0.235
-88.728	-200.000	-0.021	0.228
-87.713	156.467	0.199	-0.270
-86.699	800.000	0.099	-0.317
-85.684	-200.000	-0.013	-0.071
-84.670	-155.880	0.384	-0.024
-83.655	-109.752	0.075	-0.016
-82.640	800.000	-0.094	0.265
-81.626	227.116	0.138	-0.221
-80.611	656.992	-0.057	0.145
-79.597	-136.657	0.207	-0.023
-78.582	86.921	0.110	-0.119
-77.567	32.800	0.064	0.054
-76.553	-180.843	-0.160	0.003
-75.538	435.104	0.107	-0.229
-74.524	65.114	0.236	-0.234
-73.509	144.132	0.161	-0.210
-72.494	-45.660	-0.160	-0.078
-71.480	-89.805	0.126	-0.036
-70.465	-60.618	0.311	0.129
-69.451	520.416	0.035	0.080
-68.436	-138.973	0.115	-0.012
-67.422	-200.000	0.025	-0.201
-66.407	38.774	0.233	0.204
-65.392	-17.326	0.082	-0.050
-64.378	39.229	-0.104	0.091
-63.363	369.758	0.191	0.379
-62.349	57.078	0.334	0.319
-61.334	228.494	-0.745	-1.190
-60.319	17.281	0.506	0.394
-59.305	800.000	-0.335	-1.229
-58.290	411.021	0.578	1.201
-57.276	800.000	0.573	1.714
-56.261	-200.000	113.684	641.699
-55.246	466.526	1508.964	3311.540
-54.232	146.849	2676.292	3524.597
-53.217	103.749	2157.388	2482.047
-52.203	38.795	1604.343	1403.150
-51.188	30.732	1350.346	1132.153
-50.173	27.998	1311.129	1083.051
-49.159	56.032	1367.398	1299.644
-48.144	54.471	1382.244	1304.303
-47.130	31.135	1337.844	1123.918
-46.115	27.585	1320.288	1087.977
-45.100	27.372	1315.471	1082.697
-44.086	27.298	1312.747	1079.973
-43.071	27.220	1310.600	1077.702
-42.057	27.270	1308.414	1076.161
-41.042	27.284	1306.671	1074.764
-40.027	27.383	1305.137	1074.047
-39.013	27.441	1303.339	1072.862
-37.998	27.448	1301.356	1071.231
-36.984	27.367	1300.066	1069.650
-35.969	27.420	1297.679	1067.958
-34.954	27.438	1296.116	1066.730
-33.940	27.387	1295.187	1065.625
-32.925	27.553	1293.470	1065.141
-31.911	27.480	1292.203	1063.632
-30.896	27.538	1290.431	1062.468
-29.881	27.530	1289.337	1061.479
-28.867	27.602	1287.678	1060.492
-27.852	27.519	1286.483	1058.978
-26.838	27.585	1284.690	1057.844
-25.823	27.630	1283.395	1057.000
-24.809	27.530	1282.672	1055.779
-23.794	27.492	1281.220	1054.326
-22.779	27.469	1279.807	1052.987
-21.765	27.553	1278.374	1052.251
-20.750	27.569	1277.021	1051.190
-19.736	27.491	1275.974	1049.832
-18.721	27.399	1274.767	1048.271
-17.706	27.295	1274.408	1047.334
-16.692	27.397	1273.043	1046.759
-15.677	27.409	1271.455	1045.477
-14.663	27.356	1270.806	1044.600
-13.648	27.431	1269.106	1043.592
-12.633	27.376	1268.300	1042.574
-11.619	27.339	1267.381	1041.566
-10.604	27.338	1266.717	1040.970
-9.590	27.327	1265.550	1039.908
-8.575	27.278	1264.640	1038.840
-7.560	27.331	1263.612	1038.253
-6.546	27.411	1262.480	1037.737
-5.531	27.358	1262.022	1037.022
-4.517	27.275	1261.664	1036.214
-3.502	27.391	1260.219	1035.646
-2.487	27.282	1259.565	1034.444
-1.473	27.291	1255.318	1030.966
-0.458	25.877	1240.495	1010.826
0.556	21.124	1224.330	974.894
1.571	17.805	1230.414	960.988
2.586	16.885	1246.172	967.959
3.600	17.060	1235.211	960.346
4.615	15.853	1168.649	902.050
5.629	12.849	1102.474	835.689
6.644	11.303	1085.637	815.133
7.659	11.289	1083.406	813.317
8.673	11.230	1082.057	811.935
9.688	11.167	1080.678	810.517
10.702	11.390	1078.305	809.773
11.717	13.103	1080.002	819.480
12.731	16.015	1083.862	836.821
13.746	17.557	1085.929	846.006
14.761	17.601	1084.691	845.184
15.775	16.608	1083.021	838.890
16.790	15.465	1081.325	831.839
17.804	14.769	1079.400	826.843
18.819	14.360	1077.912	823.605
19.834	14.145	1077.081	821.835
20.848	13.818	1076.478	819.691
21.863	13.633	1075.652	818.073
22.877	13.484	1074.637	816.495
23.892	13.554	1073.679	816.042
24.907	13.675	1072.717	815.831
25.921	13.523	1071.844	814.350
26.936	13.570	1070.514	813.499
27.950	13.530	1069.569	812.514
28.965	13.737	1067.716	812.047
29.980	13.735	1066.447	810.997
30.994	13.879	1064.694	810.297
32.009	13.771	1064.168	809.299
33.023	13.845	1062.871	808.600
34.038	13.732	1062.160	807.440
35.053	13.631	1061.578	806.431
36.067	13.622	1060.209	805.278
37.082	13.679	1059.744	805.131
38.096	13.680	1059.145	804.609
39.111	13.742	1058.075	804.026
40.126	13.645	1056.744	802.472
41.140	13.507	1055.577	800.846
42.155	13.526	1054.202	799.827
43.169	13.411	1053.422	798.610
44.184	13.588	1051.469	797.910
45.199	13.458	1051.015	796.872
46.213	13.514	1050.130	796.397
47.228	13.581	1049.101	795.866
48.242	13.674	1047.930	795.355
49.257	13.619	1046.947	794.275
50.271	13.732	1046.183	794.168
51.286	13.659	1045.577	793.286
52.301	13.590	1044.486	792.061
53.315	13.673	1043.527	791.660
54.330	13.519	1042.336	789.952
55.344	13.557	1041.283	789.264
56.359	13.607	1040.645	788.946
57.374	13.504	1039.481	787.505
58.388	13.524	1038.731	786.961
59.403	13.430	1037.793	785.739
60.417	13.341	1037.469	785.001
61.432	13.397	1036.592	784.530
62.447	13.368	1035.386	783.412
63.461	13.359	1034.977	782.991
64.476	13.376	1033.674	782.014
65.490	13.488	1032.368	781.490
66.505	13.492	1032.367	781.437
67.520	13.505	1031.321	780.636
68.534	13.394	1030.916	779.738
69.549	13.450	1029.762	779.058
70.563	13.409	1029.072	778.274
71.578	13.388	1028.531	777.700
72.593	13.314	1027.491	776.497
73.607	13.245	1027.266	775.934
74.622	13.286	1026.224	775.273
75.636	13.434	1025.468	775.327
76.651	13.242	1025.094	774.075
77.666	13.330	1024.405	773.895
78.680	13.422	1023.809	773.811
79.695	13.358	1023.265	773.030
80.709	13.444	1022.551	772.826
81.724	13.500	1021.953	772.567
82.739	13.528	1021.053	771.947
83.753	13.637	1019.931	771.539
84.768	13.893	1019.032	771.981
85.782	13.763	1018.077	770.584
86.797	13.739	1017.190	769.732
87.812	13.646	1016.486	768.703
88.826	13.730	1015.415	768.214
89.841	13.650	1014.351	766.969
90.855	13.812	1013.602	767.084
91.870	13.784	1012.908	766.360
92.884	13.645	1012.418	765.282
93.899	13.763	1011.619	765.152
94.914	13.882	1010.569	764.842
95.928	13.875	1009.574	763.988
96.943	13.785	1008.775	762.903
97.957	13.847	1007.735	762.332
98.972	13.771	1006.812	761.216
99.987	13.861	1006.451	761.289
101.001	13.663	1005.389	759.511
102.016	13.657	1004.829	758.994
103.030	13.815	1003.619	758.735
104.045	13.855	1002.372	757.911
105.060	13.754	1001.952	757.064
106.074	13.583	1001.215	755.658
107.089	13.462	1000.101	754.200
108.103	13.478	998.883	753.286
109.118	13.537	997.327	752.314
110.133	13.523	996.881	751.848
111.147	13.524	996.463	751.474
112.162	13.561	995.432	750.798
113.176	13.619	994.608	750.373
114.191	13.722	993.450	749.896
115.206	13.630	993.258	749.269
116.220	13.533	992.207	747.974
117.235	13.696	990.745	747.540
118.249	13.494	990.588	746.443
119.264	13.649	989.433	746.204
120.279	13.640	988.502	745.395
121.293	13.547	987.724	744.327
122.308	13.620	986.544	743.698
123.322	13.569	985.782	742.832
124.337	13.551	984.837	741.972
125.352	13.543	983.771	741.069
126.366	13.633	982.218	740.235
127.381	13.601	981.312	739.344
128.395	13.466	981.086	738.504
129.410	13.614	979.924	738.222
130.424	13.614	979.286	737.680
131.439	13.487	978.555	736.498
132.454	13.660	977.599	736.481
133.468	13.502	976.999	735.263
134.483	13.624	975.976	734.969
135.497	13.638	975.106	734.311
136.512	13.658	974.239	733.679
137.527	13.758	972.801	732.975
138.541	13.597	973.100	732.422
139.556	13.669	972.351	732.114
140.570	13.737	971.554	731.747
141.585	13.892	970.513	731.580
142.600	13.817	969.689	730.565
143.614	13.875	968.996	730.233
144.629	13.846	968.147	729.405
145.643	13.857	967.211	728.683
146.658	13.811	965.987	727.492
147.673	13.797	965.059	726.669
148.687	13.726	964.698	726.022
149.702	13.643	963.081	724.379
150.716	13.705	962.652	724.262
151.731	13.708	961.998	723.720
152.746	13.518	961.513	722.461
153.760	13.811	960.462	722.885
154.775	13.773	960.106	722.385
155.789	13.877	959.191	722.088
156.804	13.896	958.625	721.679
157.819	13.758	958.523	720.938
158.833	13.939	957.194	720.659
159.848	14.036	956.361	720.389
160.862	14.075	955.440	719.803
161.877	13.940	954.326	718.317
162.892	13.931	953.089	717.283
163.906	13.730	953.014	716.296
164.921	13.803	951.830	715.657
165.935	13.934	950.845	715.417
166.950	13.961	950.047	714.867
167.964	13.973	949.085	714.134
168.979	13.893	948.004	712.915
169.994	13.907	947.201	712.305
171.008	13.969	946.589	712.049
172.023	13.980	945.801	711.441
173.037	14.115	945.067	711.404
174.052	14.007	944.353	710.339
175.067	13.942	943.503	709.362
176.081	13.932	943.249	709.062
177.096	13.808	942.600	707.986
178.110	13.929	942.036	708.015
179.125	14.073	941.130	707.885
180.140	14.031	940.984	707.533
181.154	14.177	940.004	707.355
182.169	14.062	940.051	706.839
183.183	14.097	939.322	706.376
184.198	14.063	938.492	705.546
185.213	14.269	937.710	705.768
186.227	14.189	937.268	705.033
187.242	14.223	936.511	704.547
188.256	14.211	936.181	704.185
189.271	14.281	934.911	703.462
190.286	14.139	934.001	702.117
191.300	14.049	933.263	701.118
192.315	14.030	932.705	700.558
193.329	13.895	932.752	699.964
194.344	14.072	931.780	699.915
195.359	14.212	931.012	699.867
196.373	14.156	930.616	699.273
197.388	14.291	930.074	699.367
198.402	14.489	929.586	699.771
199.417	14.427	928.922	698.949
200.432	14.645	928.587	699.549
201.446	14.516	927.809	698.364
202.461	14.624	926.968	698.120
203.475	14.527	926.798	697.523
204.490	14.427	926.124	696.535
205.504	14.406	925.503	695.918
206.519	14.348	924.692	695.007
207.534	14.430	923.744	694.574
208.548	14.430	922.783	693.792
209.563	14.536	922.273	693.785
210.577	14.546	921.948	693.524
211.592	14.497	921.144	692.652
212.607	14.537	920.440	692.227
213.621	14.652	919.217	691.722
214.636	14.570	918.515	690.795
215.650	14.655	918.070	690.749
216.665	14.596	917.578	690.075
217.680	14.749	916.778	690.043
218.694	14.819	915.993	689.680
219.709	14.652	915.877	688.844
220.723	14.548	915.445	688.029
221.738	14.712	914.257	687.749
222.753	14.750	913.425	687.222
223.767	14.762	912.827	686.761
224.782	14.819	912.525	686.704
225.796	14.943	911.643	686.488
226.811	14.780	911.427	685.598
227.826	14.805	910.405	684.869
228.840	14.692	909.875	683.950
229.855	14.788	908.670	683.377
230.869	14.809	907.805	682.752
231.884	14.851	907.410	682.564
232.899	14.698	906.741	681.377
233.913	14.749	905.921	680.907
234.928	14.671	905.697	680.360
235.942	14.698	905.060	679.932
236.957	14.732	904.507	679.594
237.972	14.782	903.708	679.136
238.986	14.801	902.896	678.544
240.001	14.745	902.484	677.948
241.015	14.891	901.322	677.607
242.030	14.767	901.496	677.173
243.045	14.911	900.534	676.974
244.059	14.862	899.799	676.163
245.074	14.973	899.017	675.964
246.088	15.063	898.451	675.843
247.103	15.182	897.725	675.716
248.117	15.047	897.615	675.031
249.132	15.160	897.152	675.077
250.147	15.128	896.489	674.392
251.161	15.045	896.093	673.701
252.176	15.323	894.903	673.862
253.190	15.334	894.132	673.265
254.205	15.371	893.672	673.007
255.220	15.386	892.494	672.120
256.234	15.353	892.368	671.837
257.249	15.348	891.847	671.364
258.263	15.343	891.175	670.778
259.278	15.298	890.623	670.123
260.293	15.268	890.252	669.665
261.307	15.331	889.713	669.450
262.322	15.602	888.568	669.613
263.336	15.486	887.729	668.456
264.351	15.573	887.103	668.272
265.366	15.618	886.517	667.953
266.380	15.696	885.686	667.575
267.395	15.669	885.136	666.998
268.409	15.508	884.719	665.984
269.424	15.465	883.757	665.033
270.439	15.400	883.066	664.194
271.453	15.475	882.425	663.950
272.468	15.387	882.079	663.283
273.482	15.336	881.575	662.643
274.497	15.614	880.359	662.768
275.512	15.513	880.047	662.076
276.526	15.382	879.900	661.391
277.541	15.558	878.970	661.327
278.555	15.680	878.479	661.378
279.570	15.907	877.608	661.556
280.585	15.713	877.205	660.432
281.599	15.807	875.813	659.694
282.614	15.755	875.460	659.166
283.628	15.699	875.209	658.697
284.643	15.659	874.862	658.224
285.657	15.570	874.215	657.330
286.672	15.696	872.891	656.769
287.687	15.668	872.564	656.355
288.701	15.857	871.798	656.457
289.716	15.905	871.305	656.216
290.730	15.801	871.100	655.596
291.745	15.680	870.706	654.771
292.760	15.782	869.797	654.429
293.774	15.782	868.848	653.654
294.789	15.977	868.365	653.993
295.803	15.709	868.108	652.698
296.818	15.717	867.045	651.874
297.833	15.961	866.089	652.040
298.847	15.912	865.850	651.616
299.862	16.003	864.959	651.239
300.876	16.014	864.696	651.024
301.891	16.166	863.801	650.880
302.906	16.013	863.633	650.108
303.920	16.069	863.088	649.854
304.935	16.091	862.916	649.752
305.949	16.164	861.720	649.074
306.964	16.063	861.383	648.373
307.979	16.090	860.597	647.828
308.993	16.048	860.101	647.240
310.008	16.144	859.467	647.074
311.022	16.154	859.049	646.737
312.037	16.079	858.649	646.091
313.052	16.130	857.755	645.557
314.066	15.984	857.162	644.495
315.081	16.126	856.573	644.541
316.095	16.041	855.998	643.724
317.110	16.014	855.415	643.128
318.125	16.144	854.744	643.060
319.139	16.091	854.288	642.458
320.154	16.111	853.914	642.197
321.168	16.295	853.331	642.403
322.183	16.152	852.761	641.372
323.197	16.233	852.290	641.270
324.212	16.122	851.853	640.459
325.227	16.218	851.076	640.184
326.241	16.138	850.550	639.429
327.256	16.194	850.168	639.296
328.270	16.016	849.682	638.201
329.285	16.243	849.114	638.579
330.300	16.296	847.921	637.822
331.314	16.413	847.644	638.003
332.329	16.319	847.178	637.239
333.343	16.444	846.818	637.384
334.358	16.307	846.510	636.577
335.373	16.469	845.947	636.708
336.387	16.450	845.980	636.607
337.402	16.474	845.664	636.403
338.416	16.536	845.306	636.311
339.431	16.514	845.027	635.962
340.446	16.573	844.703	635.882
341.460	16.677	844.027	635.708
342.475	16.645	843.355	635.023
343.489	16.703	843.291	635.140
344.504	16.595	842.820	634.323
345.519	16.744	842.120	634.296
346.533	16.764	841.374	633.753
347.548	16.600	841.110	632.888
348.562	16.717	840.168	632.557
349.577	16.684	839.786	632.090
350.592	16.530	839.157	630.988
351.606	16.654	838.261	630.719
352.621	16.667	837.982	630.505
353.635	16.731	837.258	630.141
354.650	16.756	836.319	629.471
355.665	16.771	835.772	629.058
356.679	16.778	835.255	628.639
357.694	16.791	834.689	628.209
358.708	16.856	833.808	627.728
359.723	16.907	833.370	627.532
360.738	16.814	832.799	626.703
361.752	16.845	832.287	626.377
362.767	16.895	831.685	626.052
363.781	17.002	831.311	626.111
364.796	16.982	831.019	625.761
365.810	16.880	830.814	625.176
366.825	17.138	830.096	625.530
367.840	17.129	829.609	625.075
368.854	17.019	829.009	624.164
369.869	17.065	828.734	624.069
370.883	16.928	828.680	623.469
371.898	17.072	827.972	623.413
372.913	17.164	827.501	623.340
373.927	17.076	826.886	622.500
374.942	17.180	826.301	622.385
375.956	17.027	826.110	621.625
376.971	17.256	825.394	621.868
377.986	17.102	825.241	621.135
379.000	17.207	824.868	621.185
380.015	17.220	824.240	620.703
381.029	17.203	823.549	620.068
382.044	17.295	822.797	619.782
383.059	17.210	822.559	619.238
384.073	17.425	821.800	619.392
385.088	17.213	821.166	618.090
386.102	17.381	820.620	618.233
387.117	17.359	819.741	617.437
388.132	17.158	819.707	616.629
389.146	17.446	818.960	617.054
390.161	17.454	818.224	616.477
391.175	17.374	818.001	615.965
392.190	17.285	817.942	615.540
393.205	17.395	816.698	614.947
394.219	17.339	816.704	614.695
395.234	17.424	815.830	614.292
396.248	17.271	815.963	613.784
397.263	17.299	815.485	613.472
398.278	17.306	815.027	613.097
399.292	17.317	814.669	612.814
400.307	17.412	813.879	612.507
401.321	17.421	813.274	612.029
402.336	17.280	813.215	611.425
403.350	17.394	812.674	611.373
404.365	17.530	812.322	611.544
405.380	17.576	811.764	611.233
406.394	17.451	811.118	610.245
407.409	17.678	810.490	610.534
408.423	17.649	810.321	610.246
409.438	17.708	810.234	610.337
410.453	17.669	809.989	609.960
411.467	17.693	809.033	609.272
412.482	17.585	809.055	608.847
413.496	17.846	808.523	609.328
414.511	17.850	807.926	608.838
415.526	17.827	807.896	608.681
416.540	17.875	806.941	608.076
417.555	17.756	806.313	607.125
418.569	17.855	806.105	607.269
419.584	17.783	805.640	606.608
420.599	17.988	805.567	607.229
421.613	111.373	1295.278	1476.872
422.628	96.082	1366.592	1476.969
