DTS Sentinel unit serial number:	SN413079Multiplexer serial number:	ORYXHardware model number:	OX4-SRSoftware version number:	ORYX F/W v4.00 Oryx Data Collector v3.7.2.0data status	okinstallation	princeton_trtdifferential loss correction	single-endedforward channel	channel 1reverse channel	N/Adate	2019/09/12time	18:20:34forward acquisition time	15.00reverse acquisition time	0.00gamma	496.2192k internal	0.2318k external	0.2318temperature offset calibration	1.0108default loss term (dB/km)	0.3790temperature slope calibration	1.0000multiplexer offset coefficient	1.0000multiplexer slope coefficient	1.0000fibre end	0.00T internal ref (°C)	33.44T ext. ref 1 (°C)	2.99T ext. ref 2 (°C)	28.06length (m)	temperature (°C)	Stokes	anti-Stokes-747.200	800.000	0.179	-0.790
-746.185	252.406	0.263	0.455
-745.171	149.720	0.349	0.479
-744.156	546.487	-0.309	0.747
-743.142	-27.574	0.327	0.192
-742.127	352.798	0.266	0.534
-741.112	-131.688	-0.540	-0.072
-740.098	107.665	-0.437	0.527
-739.083	379.290	0.093	0.193
-738.069	-59.086	0.045	0.020
-737.054	-155.089	0.843	-0.056
-736.039	-9.492	-0.591	0.399
-735.025	313.537	0.467	0.889
-734.010	-58.300	-0.538	0.237
-732.996	540.498	0.132	0.319
-731.981	-200.000	0.145	0.743
-730.966	-200.000	0.004	-0.335
-729.952	-54.624	-0.405	-0.186
-728.937	204.567	0.498	-0.781
-727.923	800.000	-0.158	-0.536
-726.908	164.304	0.433	0.617
-725.894	-200.000	-0.082	0.446
-724.879	-20.881	0.636	0.394
-723.864	800.000	0.266	0.788
-722.850	38.804	0.348	0.314
-721.835	-61.775	-0.817	0.346
-720.821	-200.000	-0.001	-0.010
-719.806	-88.400	0.657	-0.199
-718.791	-38.009	0.168	0.090
-717.777	110.054	-0.196	-0.238
-716.762	17.465	-0.106	-0.085
-715.748	39.504	-0.218	0.198
-714.733	85.919	0.461	0.512
-713.718	-200.000	0.073	-0.606
-712.704	108.725	-0.199	-0.240
-711.689	-25.724	0.452	0.269
-710.675	-75.345	0.523	0.189
-709.660	-0.258	0.533	0.383
-708.645	-60.866	-0.650	-0.278
-707.631	4.618	-0.499	-0.370
-706.616	59.518	0.352	0.351
-705.602	38.645	-0.107	0.096
-704.587	108.318	-0.238	0.287
-703.572	130.296	0.332	-0.429
-702.558	-78.883	-0.461	-0.159
-701.543	-79.120	-0.317	0.109
-700.529	78.066	0.158	-0.170
-699.514	-200.000	0.097	0.828
-698.499	-83.968	0.209	-0.067
-697.485	-200.000	0.017	0.074
-696.470	192.198	0.406	-0.619
-695.456	510.192	-0.254	-0.598
-694.441	800.000	0.283	0.979
-693.426	-99.070	-0.325	0.083
-692.412	-6.822	-0.420	-0.289
-691.397	-38.634	0.113	0.060
-690.383	-187.697	0.512	-0.007
-689.368	800.000	0.169	0.637
-688.354	-84.589	0.159	0.051
-687.339	55.977	0.610	0.598
-686.324	800.000	0.254	1.015
-685.310	429.269	-0.206	-0.449
-684.295	-56.721	-0.530	0.237
-683.281	6.461	-0.341	-0.256
-682.266	800.000	-0.159	0.570
-681.251	800.000	0.214	-0.707
-680.237	48.579	-0.213	-0.201
-679.222	-200.000	-0.036	0.175
-678.208	-116.193	-0.696	-0.130
-677.193	117.808	-0.589	-0.732
-676.178	-200.000	0.024	-0.915
-675.164	-175.205	1.197	-0.033
-674.149	-160.008	-0.642	0.035
-673.135	120.201	0.324	-0.406
-672.120	355.603	0.403	0.809
-671.105	203.998	0.387	0.605
-670.091	-100.215	-0.428	-0.107
-669.076	800.000	-0.148	0.449
-668.062	-130.053	-0.600	0.083
-667.047	95.641	-0.425	-0.489
-666.032	-100.877	0.582	0.144
-665.018	-40.206	-0.405	-0.213
-664.003	-113.228	0.461	0.091
-662.989	186.129	-0.424	0.636
-661.974	-65.329	-0.637	0.259
-660.959	-115.591	0.227	0.043
-659.945	-56.968	-0.777	0.346
-658.930	240.877	0.115	-0.194
-657.916	-30.205	-0.368	0.211
-656.901	13.839	-0.436	0.342
-655.886	-162.701	0.700	-0.035
-654.872	513.867	0.066	-0.154
-653.857	9.227	0.136	-0.104
-652.843	118.666	-0.242	0.301
-651.828	-26.741	0.697	-0.411
-650.814	226.470	0.081	0.132
-649.799	171.062	0.124	0.179
-648.784	-78.723	0.744	0.256
-647.770	-187.761	-0.683	-0.009
-646.755	-200.000	-0.019	-0.551
-645.741	-200.000	0.055	0.527
-644.726	800.000	0.181	-0.764
-643.711	-92.806	0.165	-0.047
-642.697	321.216	-0.479	-0.918
-641.682	-115.536	0.128	0.024
-640.668	411.899	0.335	0.716
-639.653	800.000	0.067	0.238
-638.638	-40.751	0.492	0.257
-637.624	-12.776	-0.242	-0.159
-636.609	-18.551	-0.310	0.195
-635.595	2.319	0.386	-0.282
-634.580	173.929	0.256	-0.373
-633.565	84.850	0.510	-0.563
-632.551	6.682	0.095	-0.072
-631.536	-15.603	-0.226	0.145
-630.522	-200.000	0.004	-1.018
-629.507	-11.703	0.831	-0.550
-628.492	-164.035	0.629	0.029
-627.478	-23.179	-0.148	-0.090
-626.463	164.840	-0.382	0.543
-625.449	207.273	-0.415	0.653
-624.434	-159.293	0.333	0.019
-623.419	17.963	0.406	0.326
-622.405	239.548	0.193	-0.324
-621.390	-200.000	-0.015	0.175
-620.376	-200.000	-0.106	0.516
-619.361	-200.000	-0.033	0.342
-618.346	8.256	0.511	0.387
-617.332	-138.945	-0.701	0.077
-616.317	-134.082	-0.448	-0.056
-615.303	-200.000	0.000	-0.264
-614.288	-27.944	0.668	0.390
-613.273	357.572	0.084	0.168
-612.259	-42.103	0.506	0.261
-611.244	-170.500	0.223	-0.008
-610.230	-22.325	0.482	0.294
-609.215	800.000	-0.127	0.544
-608.201	460.390	0.318	-0.712
-607.186	-200.000	0.131	0.608
-606.171	-61.186	0.177	-0.075
-605.157	18.753	-0.677	-0.545
-604.142	-70.280	0.155	0.059
-603.128	551.171	-0.226	-0.546
-602.113	167.635	-0.076	0.109
-601.098	-200.000	-0.129	-0.606
-600.084	-2.530	-0.668	-0.471
-599.069	800.000	-0.006	0.023
-598.055	203.054	-0.081	0.126
-597.040	135.837	0.217	-0.284
-596.025	-200.000	0.073	0.339
-595.011	-167.712	-0.132	-0.005
-593.996	-4.565	0.485	0.337
-592.982	-108.662	-1.029	0.222
-591.967	-123.225	-0.525	-0.084
-590.952	-200.000	0.012	-0.361
-589.938	-88.743	-0.770	0.230
-588.923	-106.878	-0.168	-0.037
-587.909	-84.307	0.192	0.061
-586.894	204.665	0.127	-0.198
-585.879	15.360	0.037	-0.029
-584.865	-200.000	0.005	-0.428
-583.850	-200.000	0.079	-0.747
-582.836	-189.630	-0.604	0.007
-581.821	-9.147	-0.247	-0.166
-580.806	-48.874	0.277	-0.134
-579.792	190.372	-0.395	-0.596
-578.777	-200.000	0.028	0.321
-577.763	-64.228	-0.261	0.107
-576.748	-38.254	-0.490	0.261
-575.733	7.057	0.306	-0.229
-574.719	-115.906	-0.596	0.112
-573.704	381.328	-0.342	-0.705
-572.690	-71.048	0.389	-0.147
-571.675	-200.000	0.076	-0.398
-570.661	754.707	-0.140	0.379
-569.646	-87.311	0.909	0.277
-568.631	800.000	-0.109	-0.330
-567.617	-156.974	-1.052	0.065
-566.602	681.305	-0.349	0.913
-565.588	196.286	-0.038	0.058
-564.573	127.596	-0.242	0.309
-563.558	-44.584	0.149	-0.075
-562.544	12.141	-0.560	-0.433
-561.529	206.860	0.180	-0.282
-560.515	-60.603	0.260	-0.111
-559.500	61.958	0.524	-0.525
-558.485	-200.000	0.088	-0.428
-557.471	140.716	0.388	-0.515
-556.456	-200.000	0.087	-0.529
-555.442	-10.061	-0.236	-0.158
-554.427	159.447	0.305	0.426
-553.412	589.585	-0.135	0.334
-552.398	213.734	-0.179	-0.285
-551.383	83.246	0.710	0.777
-550.369	101.765	0.285	0.334
-549.354	-23.040	-0.363	0.220
-548.339	34.359	0.483	0.424
-547.325	800.000	-0.045	-0.193
-546.310	-139.817	0.452	-0.048
-545.296	-27.777	-1.063	-0.619
-544.281	58.430	-0.378	-0.372
-543.266	-200.000	-0.060	-0.494
-542.252	800.000	0.103	-0.432
-541.237	800.000	0.211	0.692
-540.223	326.728	-0.269	-0.518
-539.208	-200.000	0.158	-1.221
-538.193	281.876	0.644	-1.159
-537.179	-24.181	-0.339	-0.203
-536.164	1.660	-0.499	0.361
-535.150	66.287	0.337	0.344
-534.135	-160.563	0.591	0.032
-533.121	-83.505	-0.115	0.037
-532.106	-90.998	0.284	-0.082
-531.091	-20.601	0.567	-0.350
-530.077	800.000	0.226	-0.883
-529.062	94.596	0.665	0.759
-528.048	-40.212	0.561	0.293
-527.033	-81.332	-0.171	0.057
-526.018	-11.147	-0.476	-0.315
-525.004	8.621	0.258	-0.195
-523.989	-140.857	0.242	0.025
-522.975	-95.950	-0.624	-0.167
-521.960	-200.000	0.121	0.542
-520.945	103.366	0.229	-0.270
-519.931	-159.188	-0.610	0.034
-518.916	-168.248	-0.863	-0.033
-517.902	-200.000	-0.045	0.258
-516.887	-200.000	-0.042	-0.316
-515.872	150.089	0.052	-0.071
-514.858	148.202	-0.416	-0.563
-513.843	98.746	0.239	0.276
-512.829	-98.621	-0.251	-0.064
-511.814	208.834	-0.125	-0.197
-510.799	22.087	0.210	-0.172
-509.785	282.726	-0.376	0.677
-508.770	-159.727	-0.350	-0.019
-507.756	256.740	-0.305	-0.525
-506.741	-138.414	0.306	-0.034
-505.726	3.434	0.881	-0.643
-504.712	-42.531	-0.372	-0.190
-503.697	89.164	0.545	-0.608
-502.683	103.528	0.347	0.408
-501.668	-200.000	-0.020	0.108
-500.653	-45.640	0.200	0.099
-499.639	179.346	0.260	0.382
-498.624	-122.975	0.124	0.020
-497.610	-69.800	0.477	-0.183
-496.595	800.000	0.128	0.373
-495.581	-51.658	-0.954	0.446
-494.566	153.295	-0.293	0.402
-493.551	-86.373	0.723	-0.223
-492.537	800.000	-0.165	0.492
-491.522	327.366	0.221	-0.424
-490.508	-67.949	-0.580	-0.227
-489.493	-57.826	-0.504	0.221
-488.478	800.000	-0.160	0.579
-487.464	-29.031	0.275	0.158
-486.449	-111.479	0.566	-0.116
-485.435	83.916	0.424	-0.463
-484.420	-116.311	-0.224	0.042
-483.405	96.732	-0.400	-0.459
-482.391	18.135	-0.317	0.253
-481.376	-58.909	0.548	-0.237
-480.362	-37.795	-0.586	-0.313
-479.347	101.481	-0.254	-0.296
-478.332	-200.000	0.038	0.401
-477.318	-78.326	1.168	-0.402
-476.303	-34.448	-0.186	-0.102
-475.289	-200.000	0.003	-0.189
-474.274	70.235	0.212	0.219
-473.259	-87.099	0.600	-0.183
-472.245	419.816	-0.179	0.384
-471.230	14.663	0.478	-0.374
-470.216	-200.000	-0.043	-0.315
-469.201	57.131	-0.200	-0.195
-468.186	-43.256	-0.204	0.103
-467.172	800.000	0.073	0.226
-466.157	789.958	0.107	0.295
-465.143	20.895	0.672	-0.545
-464.128	628.152	0.132	-0.335
-463.113	530.375	0.044	0.105
-462.099	104.238	-0.092	-0.109
-461.084	368.123	0.073	-0.148
-460.070	-144.942	-0.633	-0.058
-459.055	480.339	-0.183	-0.415
-458.040	65.262	-0.444	-0.449
-457.026	-170.097	0.316	0.011
-456.011	-61.720	-0.152	-0.064
-454.997	-95.597	0.980	0.263
-453.982	800.000	-0.139	-0.554
-452.968	172.156	0.370	0.532
-451.953	30.301	0.117	0.100
-450.938	-133.222	-1.212	-0.153
-449.924	-77.304	-0.723	0.251
-448.909	-68.125	-0.400	-0.156
-447.895	-200.000	-0.012	0.053
-446.880	-200.000	-0.054	-0.665
-445.865	-200.000	0.051	-0.243
-444.851	-127.346	-0.737	0.107
-443.836	61.302	-0.451	-0.448
-442.822	-151.528	-0.704	0.052
-441.807	112.435	0.190	-0.230
-440.792	511.483	0.247	0.576
-439.778	23.899	-0.650	-0.536
-438.763	-131.463	-0.512	0.068
-437.749	800.000	0.094	-0.340
-436.734	800.000	-0.162	0.494
-435.719	20.572	0.528	-0.428
-434.705	-51.303	-0.432	0.202
-433.690	800.000	-0.191	-0.618
-432.676	152.055	-0.653	-0.891
-431.661	-109.316	-0.293	0.062
-430.646	-139.886	0.561	-0.059
-429.632	800.000	0.150	0.466
-428.617	-200.000	0.716	-0.002
-427.603	800.000	-0.107	-0.368
-426.588	-130.708	0.035	0.005
-425.573	238.328	-0.271	0.449
-424.559	-36.983	-0.407	0.218
-423.544	-57.516	0.575	-0.252
-422.530	-80.133	-0.573	0.192
-421.515	-38.629	-0.102	-0.054
-420.500	437.999	0.413	-0.900
-419.486	74.872	-0.169	0.178
-418.471	-188.789	-0.631	-0.008
-417.457	137.360	-0.442	-0.578
-416.442	99.127	0.247	-0.285
-415.428	278.438	-0.351	0.625
-414.413	154.163	-0.176	0.241
-413.398	205.888	-0.090	0.139
-412.384	237.464	0.116	-0.192
-411.369	334.413	0.346	0.669
-410.355	66.392	-0.497	0.505
-409.340	-13.161	0.157	0.102
-408.325	800.000	-0.265	-0.788
-407.311	91.109	-0.201	0.226
-406.296	800.000	0.160	0.586
-405.282	-200.000	0.047	0.528
-404.267	-200.000	0.031	-0.271
-403.252	204.772	-0.098	-0.152
-402.238	425.436	-0.364	0.784
-401.223	-94.383	0.181	0.049
-400.209	-162.782	-0.192	-0.009
-399.194	800.000	-0.040	-0.171
-398.179	56.571	-0.251	0.243
-397.165	-200.000	-0.090	-0.412
-396.150	-52.866	0.731	0.336
-395.136	-99.422	-0.433	0.109
-394.121	-76.278	-0.461	0.162
-393.106	-154.294	0.849	-0.057
-392.092	103.314	0.320	-0.375
-391.077	-20.284	-0.424	-0.260
-390.063	-200.000	-0.039	0.271
-389.048	-56.063	0.404	0.180
-388.033	99.132	0.161	-0.185
-387.019	23.661	0.366	0.301
-386.004	36.705	0.685	-0.604
-384.990	-200.000	0.009	-0.627
-383.975	124.491	0.140	-0.176
-382.960	548.371	-0.243	-0.581
-381.946	141.713	-0.515	-0.680
-380.931	223.285	-0.156	-0.251
-379.917	509.198	-0.583	1.353
-378.902	-158.505	0.579	-0.033
-377.888	8.695	-0.252	-0.190
-376.873	-49.726	0.301	-0.143
-375.858	139.501	0.206	-0.270
-374.844	172.019	0.264	-0.378
-373.829	-34.175	-0.404	0.221
-372.815	14.358	-0.973	0.757
-371.800	279.811	0.246	0.439
-370.785	-200.000	0.083	-0.384
-369.771	-200.000	-0.054	-0.464
-368.756	-29.189	-0.280	-0.160
-367.742	83.867	0.584	-0.636
-366.727	106.806	0.667	0.790
-365.712	-150.936	0.918	-0.069
-364.698	-200.000	0.032	0.260
-363.683	-119.058	-0.349	-0.061
-362.669	42.154	-0.497	0.450
-361.654	-48.819	0.418	-0.200
-360.639	-79.348	-0.573	0.193
-359.625	25.367	0.491	-0.407
-358.610	52.900	0.731	0.697
-357.596	146.310	-0.144	-0.192
-356.581	-200.000	-0.031	0.361
-355.566	105.197	-0.195	0.230
-354.552	-133.219	-0.156	0.020
-353.537	-65.705	0.297	0.119
-352.523	-112.370	-0.920	0.184
-351.508	281.142	0.269	0.480
-350.493	800.000	-0.072	0.208
-349.479	292.905	-0.299	-0.543
-348.464	-79.678	0.520	0.175
-347.450	66.552	-0.276	-0.280
-346.435	82.348	0.363	-0.393
-345.420	800.000	0.351	0.964
-344.406	-200.000	-0.062	0.503
-343.391	399.049	0.158	-0.329
-342.377	121.424	0.132	0.164
-341.362	-153.781	-0.751	-0.051
-340.348	-200.000	0.020	0.501
-339.333	-200.000	0.028	-0.206
-338.318	-200.000	0.039	0.215
-337.304	-200.000	-0.047	-0.380
-336.289	-18.654	-1.029	-0.639
-335.275	-39.097	-0.213	-0.112
-334.260	208.356	0.215	0.336
-333.245	-38.952	-0.331	0.174
-332.231	-55.933	0.099	-0.044
-331.216	61.683	0.172	0.170
-330.202	-200.000	0.076	-0.662
-329.187	-0.603	0.254	-0.180
-328.172	-50.885	-1.143	-0.535
-327.158	-200.000	0.004	-0.317
-326.143	159.552	-0.108	0.150
-325.129	-200.000	-0.082	-0.460
-324.114	-200.000	0.070	0.489
-323.099	175.415	-0.579	0.836
-322.085	252.944	0.186	0.315
-321.070	-187.717	-1.265	0.017
-320.056	191.214	0.499	-0.747
-319.041	800.000	-0.132	-0.367
-318.026	800.000	-0.222	-0.692
-317.012	94.242	0.337	0.381
-315.997	150.245	-0.266	0.359
-314.983	-96.371	0.565	0.149
-313.968	-200.000	0.044	0.207
-312.953	71.750	0.348	0.360
-311.939	-106.978	0.293	0.065
-310.924	17.172	0.083	0.066
-309.910	-186.769	-1.309	0.018
-308.895	263.401	-0.372	-0.644
-307.880	-184.483	-0.414	0.007
-306.866	-73.224	0.560	0.204
-305.851	121.779	-0.168	-0.209
-304.837	-64.715	-1.097	-0.442
-303.822	-200.000	-0.037	-0.730
-302.807	26.683	-0.546	-0.455
-301.793	-47.281	-0.896	-0.434
-300.778	-73.820	0.442	-0.160
-299.764	-128.978	0.832	-0.116
-298.749	163.882	0.082	0.115
-297.735	-156.162	0.435	0.027
-296.720	-200.000	0.023	0.127
-295.705	800.000	0.262	0.848
-294.691	27.450	-0.645	0.540
-293.676	163.942	0.580	-0.812
-292.662	29.045	-0.516	0.435
-291.647	-200.000	0.099	-0.690
-290.632	-7.247	-0.415	0.280
-289.618	412.901	0.216	-0.457
-288.603	46.882	0.930	0.860
-287.589	-126.123	0.362	0.054
-286.574	-42.632	0.478	0.242
-285.559	800.000	0.085	-0.346
-284.545	175.950	-0.330	0.476
-283.530	66.446	-0.392	0.396
-282.516	-61.228	0.226	-0.095
-281.501	-16.086	-0.049	0.031
-280.486	800.000	0.167	-0.530
-279.472	-51.248	0.243	0.113
-278.457	494.881	-0.271	0.619
-277.443	185.828	-0.408	-0.602
-276.428	13.608	0.341	-0.263
-275.413	370.137	0.010	0.020
-274.399	-122.119	0.275	0.045
-273.384	43.151	0.772	0.700
-272.370	-122.331	-0.708	0.115
-271.355	-56.850	0.251	0.110
-270.340	48.004	0.310	0.288
-269.326	-123.427	-0.254	-0.040
-268.311	800.000	0.058	0.231
-267.297	-200.000	-0.084	0.674
-266.282	99.807	0.182	0.210
-265.267	74.250	0.361	0.377
-264.253	-0.304	0.447	0.316
-263.238	-102.579	0.425	-0.101
-262.224	558.413	-0.343	0.822
-261.209	-200.000	0.023	0.648
-260.195	-148.568	-0.288	0.023
-259.180	-86.366	0.109	0.033
-258.165	-57.942	0.353	0.153
-257.151	-14.619	-0.714	0.456
-256.136	324.943	0.392	0.744
-255.122	140.526	0.480	0.630
-254.107	631.007	0.418	-1.052
-253.092	-136.137	-0.593	-0.069
-252.078	-73.674	0.621	0.225
-251.063	-114.948	0.175	-0.033
-250.049	-200.000	0.000	-0.081
-249.034	117.107	-0.428	0.522
-248.019	800.000	-0.231	0.814
-247.005	52.199	-0.259	-0.245
-245.990	-78.685	-0.451	0.153
-244.976	800.000	0.174	0.529
-243.961	-90.268	1.074	0.310
-242.946	-200.000	0.070	-0.404
-241.932	-122.481	-0.111	0.018
-240.917	-39.055	-0.489	-0.255
-239.903	10.204	0.535	-0.404
-238.888	-122.441	0.855	0.138
-237.873	41.362	0.121	0.109
-236.859	375.027	-0.352	0.713
-235.844	-200.000	-0.130	0.935
-234.830	800.000	0.318	-1.030
-233.815	-200.000	-0.067	0.770
-232.800	-200.000	-0.011	-0.319
-231.786	-19.834	0.210	-0.129
-230.771	27.233	0.062	0.051
-229.757	-187.190	0.117	-0.002
-228.742	321.183	0.406	0.766
-227.727	109.706	-0.640	-0.761
-226.713	-105.455	-0.448	0.101
-225.698	-200.000	0.022	-0.199
-224.684	-171.994	0.750	-0.024
-223.669	-200.000	0.110	-0.780
-222.655	29.064	0.064	0.054
-221.640	800.000	0.095	0.269
-220.625	-61.216	0.460	0.192
-219.611	-106.380	0.716	-0.159
-218.596	-200.000	0.085	-0.768
-217.582	-160.870	0.376	0.020
-216.567	-6.195	-0.629	0.426
-215.552	-65.772	-0.241	0.095
-214.538	800.000	0.325	-0.924
-213.523	-200.000	-0.047	0.336
-212.509	800.000	0.182	0.551
-211.494	43.448	0.484	0.438
-210.479	-141.505	0.649	0.065
-209.465	-200.000	-0.098	-0.606
-208.450	404.141	0.144	0.301
-207.436	237.905	0.351	0.578
-206.421	116.605	0.147	0.179
-205.406	-168.199	-0.948	-0.036
-204.392	-200.000	0.068	0.648
-203.377	98.493	-0.540	-0.617
-202.363	345.095	-0.434	0.845
-201.348	-56.976	0.518	-0.227
-200.333	133.717	0.559	0.717
-199.319	179.323	0.810	1.174
-198.304	-5.053	0.188	-0.128
-197.290	-109.269	-0.492	0.103
-196.275	-83.304	0.383	0.122
-195.260	-200.000	-0.069	0.504
-194.246	-60.534	0.880	0.370
-193.231	70.879	0.100	-0.102
-192.217	94.186	0.099	-0.111
-191.202	-200.000	0.098	-0.534
-190.187	-200.000	0.108	0.560
-189.173	310.067	-0.140	-0.259
-188.158	-7.328	0.294	-0.197
-187.144	800.000	-0.216	0.756
-186.129	-87.600	0.070	0.021
-185.114	-20.497	0.603	-0.367
-184.100	245.274	0.115	-0.192
-183.085	-17.952	-0.434	0.269
-182.071	-200.000	-0.022	0.407
-181.056	-28.662	-0.143	-0.082
-180.042	-36.412	0.508	-0.271
-179.027	-83.406	-0.452	0.143
-178.012	-106.286	-0.186	0.041
-176.998	425.803	0.340	-0.725
-175.983	-68.039	0.216	-0.083
-174.969	-72.258	0.211	0.077
-173.954	-125.257	-0.087	-0.013
-172.939	-200.000	-0.003	0.046
-171.925	-200.000	-0.030	0.256
-170.910	-200.000	-0.103	-0.466
-169.896	623.483	-0.148	0.368
-168.881	564.998	-0.348	0.834
-167.866	48.522	0.087	-0.080
-166.852	-35.813	0.011	-0.006
-165.837	65.251	0.271	-0.271
-164.823	34.093	0.472	-0.407
-163.808	-200.000	0.088	0.396
-162.793	336.282	-0.166	0.318
-161.779	192.977	0.276	0.412
-160.764	-91.974	0.382	-0.107
-159.750	-200.000	-0.116	-0.617
-158.735	45.080	0.051	-0.047
-157.720	170.458	-0.428	-0.606
-156.706	-22.041	-0.921	0.553
-155.691	800.000	-0.223	0.615
-154.677	-78.387	-0.800	0.271
-153.662	-69.729	-0.655	-0.248
-152.647	-55.701	-0.388	0.172
-151.633	-124.107	-0.717	0.111
-150.618	-107.615	0.417	-0.090
-149.604	-112.459	-0.303	-0.060
-148.589	107.276	-0.037	-0.043
-147.574	-200.000	0.024	0.408
-146.560	-200.000	-0.092	0.808
-145.545	-89.113	0.667	-0.195
-144.531	71.359	0.431	0.442
-143.516	467.483	0.011	-0.024
-142.502	-31.365	-0.501	-0.279
-141.487	-200.000	-0.016	-0.362
-140.472	-88.330	0.367	0.108
-139.458	800.000	0.108	0.357
-138.443	-150.691	0.320	-0.024
-137.429	179.812	-0.769	-1.114
-136.414	28.276	0.564	-0.471
-135.399	27.845	0.018	0.015
-134.385	-39.688	0.238	0.123
-133.370	-113.063	-0.322	-0.063
-132.356	360.604	-0.257	0.508
-131.341	47.046	0.427	0.392
-130.326	170.167	-0.265	0.374
-129.312	66.461	-0.245	0.246
-128.297	-21.528	0.555	0.334
-127.283	-148.903	-0.133	0.011
-126.268	-16.079	0.455	-0.286
-125.253	605.642	-0.173	0.426
-124.239	-68.020	0.600	-0.231
-123.224	-33.419	1.046	-0.571
-122.210	48.358	-0.445	-0.412
-121.195	280.282	-0.387	0.684
-120.180	-110.327	-0.607	0.125
-119.166	-200.000	0.074	0.552
-118.151	-200.000	-0.084	-0.494
-117.137	-115.502	-0.259	-0.048
-116.122	-200.000	-0.058	0.666
-115.107	-200.000	0.079	0.580
-114.093	-200.000	0.014	0.282
-113.078	800.000	-0.251	-0.716
-112.064	211.793	-0.061	0.095
-111.049	-44.391	-0.729	0.360
-110.034	-200.000	0.201	-1.078
-109.020	673.297	0.246	-0.629
-108.005	6.071	0.458	0.335
-106.991	-52.652	-0.961	0.438
-105.976	-44.490	-0.338	0.167
-104.962	-200.000	0.074	-0.708
-103.947	70.137	-0.422	0.430
-102.932	-11.085	0.341	0.222
-101.918	-200.000	-0.142	0.721
-100.903	-117.989	0.664	0.117
-99.889	770.003	0.203	-0.546
-98.874	186.615	0.441	-0.649
-97.859	161.936	-0.381	-0.526
-96.845	441.230	0.391	-0.845
-95.830	268.797	-0.114	0.198
-94.816	-157.969	0.560	-0.033
-93.801	-200.000	-0.037	0.522
-92.786	-200.000	-0.039	-0.315
-91.772	313.740	0.202	0.375
-90.757	-125.943	0.760	0.113
-89.743	800.000	-0.221	0.822
-88.728	-56.163	-0.416	-0.183
-87.713	98.637	0.110	0.125
-86.699	-200.000	0.045	-0.398
-85.684	-200.000	-0.023	-0.322
-84.670	50.445	0.306	0.286
-83.655	270.913	0.260	0.451
-82.640	-116.940	0.236	-0.043
-81.626	-74.137	0.808	-0.289
-80.611	647.170	0.244	-0.615
-79.597	-34.153	0.652	-0.353
-78.582	279.100	-0.298	0.525
-77.567	45.244	-0.862	-0.784
-76.553	-200.000	-0.025	-0.458
-75.538	-200.000	0.010	0.408
-74.524	0.700	0.113	-0.080
-73.509	-46.658	0.643	0.310
-72.494	-149.012	-0.640	0.051
-71.480	156.535	0.468	-0.636
-70.465	-102.782	-0.517	-0.121
-69.451	110.012	-0.252	-0.299
-68.436	35.271	-0.258	0.223
-67.422	-134.654	0.032	0.004
-66.407	-138.550	-0.432	-0.047
-65.392	2.682	-0.396	0.283
-64.378	-29.411	0.483	-0.272
-63.363	-200.000	-0.064	-0.649
-62.349	-119.418	0.423	0.072
-61.334	63.486	-1.207	-1.193
-60.319	-138.497	0.601	0.065
-59.305	734.324	-0.621	-1.638
-58.290	100.222	-0.466	0.532
-57.276	412.728	0.568	1.189
-56.261	-200.000	96.113	570.237
-55.246	633.369	1374.952	3433.686
-54.232	198.681	2545.930	3839.615
-53.217	118.550	2133.119	2594.192
-52.203	45.127	1599.215	1451.967
-51.188	37.182	1339.493	1168.528
-50.173	33.743	1298.082	1112.247
-49.159	57.296	1347.772	1295.831
-48.144	58.057	1364.773	1316.664
-47.130	36.984	1321.059	1151.083
-46.115	33.651	1303.810	1116.436
-45.100	33.418	1298.736	1110.681
-44.086	33.319	1297.007	1108.575
-43.071	33.158	1294.936	1105.821
-42.057	33.331	1292.914	1105.064
-41.042	33.611	1291.289	1105.259
-40.027	33.265	1289.406	1101.594
-39.013	33.235	1287.979	1100.154
-37.998	33.400	1285.900	1099.293
-36.984	33.559	1284.298	1098.800
-35.969	33.504	1282.615	1096.998
-34.954	33.496	1280.461	1095.068
-33.940	33.332	1280.752	1094.325
-32.925	33.498	1278.697	1093.485
-31.911	33.650	1276.754	1092.651
-30.896	33.326	1276.278	1090.336
-29.881	33.487	1273.263	1088.640
-28.867	33.307	1273.205	1087.515
-27.852	33.411	1271.807	1086.873
-26.838	33.707	1269.562	1086.608
-25.823	33.602	1268.418	1084.986
-24.809	33.442	1268.029	1083.695
-23.794	33.574	1265.432	1082.187
-22.779	33.729	1264.018	1081.817
-21.765	33.547	1262.762	1079.663
-20.750	33.320	1262.062	1077.729
-19.736	33.493	1260.651	1077.468
-18.721	33.146	1261.150	1075.875
-17.706	33.371	1259.967	1076.101
-16.692	33.428	1258.244	1074.909
-15.677	33.397	1255.890	1072.681
-14.663	33.318	1256.256	1072.505
-13.648	33.431	1254.124	1071.284
-12.633	33.738	1253.795	1072.690
-11.619	33.474	1252.661	1070.192
-10.604	33.319	1251.125	1067.961
-9.590	33.231	1251.189	1067.478
-8.575	33.598	1249.199	1067.801
-7.560	33.517	1249.063	1067.189
-6.546	33.174	1248.168	1064.453
-5.531	33.345	1247.695	1064.968
-4.517	33.470	1245.640	1063.872
-3.502	33.229	1246.217	1062.971
-2.487	33.348	1244.508	1062.139
-1.473	33.095	1241.293	1057.934
-0.458	31.988	1225.015	1037.903
0.556	29.135	1207.997	998.599
1.571	24.936	1214.008	980.540
2.586	24.012	1228.399	986.957
3.600	23.539	1216.925	975.052
4.615	17.657	1145.775	887.430
5.629	8.049	1068.451	780.602
6.644	3.674	1048.156	744.647
7.659	2.887	1046.757	739.795
8.673	2.825	1045.320	738.419
9.688	2.578	1044.075	736.287
10.702	3.402	1042.800	739.274
11.717	9.460	1051.776	774.804
12.731	19.103	1065.912	831.982
13.746	24.481	1071.082	861.987
14.761	25.685	1072.428	868.810
15.775	25.869	1071.159	868.595
16.790	25.637	1070.773	867.085
17.804	25.537	1070.080	865.967
18.819	25.772	1070.179	867.101
19.834	25.856	1069.412	866.807
20.848	25.618	1069.852	865.941
21.863	25.547	1069.191	864.986
22.877	26.128	1067.481	866.317
23.892	25.543	1067.183	863.191
24.907	25.690	1066.472	863.247
25.921	25.467	1066.165	861.852
26.936	25.582	1064.019	860.590
27.950	25.555	1062.360	859.045
28.965	25.542	1061.435	858.158
29.980	25.489	1059.785	856.496
30.994	25.520	1059.331	856.201
32.009	25.500	1057.958	854.920
33.023	25.736	1056.594	854.861
34.038	25.846	1055.386	854.329
35.053	25.726	1055.145	853.493
36.067	25.578	1054.586	852.263
37.082	25.573	1053.247	851.082
38.096	25.844	1053.932	852.841
39.111	25.845	1051.967	851.181
40.126	25.747	1051.339	850.136
41.140	25.473	1049.205	847.045
42.155	25.269	1048.219	845.210
43.169	25.433	1047.392	845.242
44.184	25.311	1047.119	844.375
45.199	25.259	1045.459	842.715
46.213	25.219	1044.505	841.686
47.228	25.357	1044.500	842.251
48.242	25.575	1043.935	842.743
49.257	25.951	1042.303	843.113
50.271	25.930	1041.573	842.348
51.286	25.581	1041.318	840.437
52.301	26.012	1038.840	840.372
53.315	25.635	1039.407	839.000
54.330	25.754	1037.439	837.890
55.344	25.598	1038.204	837.708
56.359	25.408	1037.308	836.027
57.374	25.668	1035.001	835.300
58.388	25.552	1034.628	834.384
59.403	25.479	1033.972	833.444
60.417	25.074	1033.980	831.499
61.432	25.351	1032.829	831.782
62.447	25.640	1032.707	832.948
63.461	25.513	1030.408	830.433
64.476	25.186	1030.333	828.791
65.490	25.466	1029.308	829.186
66.505	25.373	1029.114	828.527
67.520	25.246	1028.634	827.482
68.534	25.062	1027.804	825.890
69.549	25.126	1025.136	823.968
70.563	24.664	1026.986	823.253
71.578	24.892	1024.431	822.184
72.593	24.763	1024.180	821.313
73.607	24.711	1024.190	821.013
74.622	25.105	1023.027	821.815
75.636	25.035	1022.918	821.331
76.651	25.155	1020.449	819.826
77.666	25.310	1020.050	820.138
78.680	25.185	1020.739	820.051
79.695	25.268	1018.833	818.825
80.709	25.265	1018.047	818.108
81.724	25.417	1018.145	818.809
82.739	25.231	1017.889	817.680
83.753	25.906	1016.018	819.174
84.768	26.265	1015.970	820.694
85.782	26.141	1016.102	820.164
86.797	26.004	1014.234	817.963
87.812	25.952	1013.948	817.424
88.826	25.666	1012.960	815.260
89.841	26.036	1011.553	815.729
90.855	26.026	1011.489	815.560
91.870	25.977	1009.855	813.950
92.884	26.310	1008.275	814.106
93.899	26.102	1008.057	812.921
94.914	25.917	1008.806	812.618
95.928	25.840	1005.871	809.834
96.943	25.702	1005.081	808.508
97.957	25.755	1003.412	807.330
98.972	25.605	1003.040	806.287
99.987	25.562	1002.582	805.655
101.001	25.971	1001.550	806.585
102.016	25.853	1001.011	805.553
103.030	25.928	999.893	804.916
104.045	25.840	999.100	803.814
105.060	25.657	998.289	802.274
106.074	25.676	996.030	800.475
107.089	25.437	997.505	800.523
108.103	25.724	996.480	800.907
109.118	25.417	995.409	798.613
110.133	25.543	993.699	797.730
111.147	25.350	992.298	795.679
112.162	25.236	992.259	795.071
113.176	25.484	991.188	795.238
114.191	25.543	989.618	794.169
115.206	25.096	988.320	791.086
116.220	25.138	988.701	791.507
117.235	25.484	986.995	791.596
118.249	25.278	986.125	789.919
119.264	25.308	985.955	789.848
120.279	25.118	985.484	788.562
121.293	24.817	985.438	787.131
122.308	25.155	983.725	787.181
123.322	25.403	981.836	786.683
124.337	24.973	981.791	784.694
125.352	24.811	979.811	782.335
126.366	24.831	979.216	781.878
127.381	25.363	978.698	783.719
128.395	25.877	978.728	785.916
129.410	25.698	978.175	784.619
130.424	25.764	976.293	783.330
131.439	25.964	974.919	783.026
132.454	25.950	974.401	782.479
133.468	25.837	973.446	781.153
134.483	25.784	973.524	780.917
135.497	26.038	972.685	781.276
136.512	25.980	971.676	780.147
137.527	26.382	970.664	781.002
138.541	25.932	970.603	778.937
139.556	26.050	969.726	778.677
140.570	25.923	969.819	778.133
141.585	25.961	968.206	776.934
142.600	25.916	967.317	775.957
143.614	26.321	966.387	776.886
144.629	26.288	965.695	776.118
145.643	26.130	964.510	774.420
146.658	26.083	963.019	772.953
147.673	25.984	962.468	772.019
148.687	25.841	961.480	770.547
149.702	25.888	959.718	769.265
150.716	25.653	959.621	768.117
151.731	25.987	958.775	768.796
152.746	25.954	958.538	768.398
153.760	25.869	958.418	767.872
154.775	26.085	958.004	768.388
155.789	26.200	956.725	767.786
156.804	25.987	955.726	766.013
157.819	26.307	955.324	766.980
158.833	26.492	953.048	765.867
159.848	26.615	952.850	766.161
160.862	26.006	952.379	763.139
161.877	26.358	951.028	763.476
162.892	26.304	950.740	762.949
163.906	26.181	948.850	760.846
164.921	26.040	948.484	759.892
165.935	26.432	946.557	759.928
166.950	26.242	946.938	759.368
167.964	26.276	945.264	758.100
168.979	26.352	943.621	757.037
169.994	26.231	943.609	756.453
171.008	25.921	943.807	755.244
172.023	26.052	942.547	754.716
173.037	26.756	941.278	756.574
174.052	26.341	940.057	753.797
175.067	25.984	940.339	752.466
176.081	26.277	939.518	752.964
177.096	25.996	938.438	750.860
178.110	26.217	937.121	750.660
179.125	25.629	936.825	747.913
180.140	25.725	936.867	748.280
181.154	25.753	936.763	748.248
182.169	26.150	936.215	749.392
183.183	26.105	936.457	749.331
184.198	26.080	935.065	748.047
185.213	26.216	933.703	747.453
186.227	26.186	933.046	746.738
187.242	26.070	932.823	746.014
188.256	26.370	932.218	746.703
189.271	26.658	931.531	747.275
190.286	26.462	929.774	744.995
191.300	25.839	928.505	741.346
192.315	24.795	927.633	736.293
193.329	24.422	927.788	734.812
194.344	25.700	927.544	739.812
195.359	26.197	927.450	741.715
196.373	26.219	927.739	741.970
197.388	26.516	925.442	741.283
198.402	26.183	926.000	740.301
199.417	26.316	924.862	739.870
200.432	26.416	923.651	739.245
201.446	26.122	923.985	738.242
202.461	25.801	923.205	736.242
203.475	25.209	922.087	732.867
204.490	24.805	918.905	728.631
205.504	25.621	919.854	732.643
206.519	26.228	919.691	734.918
207.534	26.261	919.381	734.740
208.548	26.497	918.492	734.923
209.563	25.981	918.521	732.784
210.577	26.419	917.713	733.855
211.592	26.253	917.811	733.193
212.607	26.357	917.319	733.157
213.621	26.399	916.141	732.321
214.636	26.643	915.253	732.535
215.650	26.424	914.448	730.939
216.665	26.592	913.665	730.927
217.680	26.269	914.239	730.016
218.694	25.880	912.388	726.905
219.709	25.621	912.075	725.549
220.723	26.238	910.360	726.602
221.738	26.440	910.519	727.477
222.753	26.368	910.267	726.920
223.767	26.349	910.888	727.276
224.782	26.563	909.581	727.029
225.796	26.767	907.575	726.178
226.811	25.916	907.509	722.653
227.826	25.241	906.382	718.987
228.840	25.414	905.311	718.766
229.855	25.429	905.701	719.072
230.869	25.451	903.442	717.301
231.884	25.973	903.766	719.578
232.899	26.586	903.409	721.677
233.913	26.460	903.142	720.898
234.928	26.213	901.925	718.879
235.942	26.229	901.335	718.408
236.957	25.847	901.139	716.668
237.972	26.102	900.317	716.966
238.986	26.191	899.792	716.837
240.001	25.851	899.699	715.350
241.015	26.175	898.947	715.972
242.030	26.372	898.192	716.089
243.045	26.583	897.957	716.673
244.059	26.590	897.130	715.979
245.074	26.392	897.014	715.039
246.088	26.379	895.303	713.562
247.103	26.271	895.582	713.294
248.117	26.736	896.124	715.497
249.132	27.194	894.873	716.240
250.147	27.180	894.648	715.942
251.161	27.279	894.755	716.356
252.176	27.392	893.486	715.718
253.190	27.378	892.937	715.160
254.205	27.316	893.067	714.958
255.220	27.534	891.417	714.431
256.234	27.219	891.389	713.107
257.249	26.956	891.122	711.800
258.263	26.940	889.447	710.338
259.278	27.188	889.256	711.091
260.293	27.115	888.920	710.476
261.307	26.959	888.323	709.323
262.322	27.084	887.441	709.046
263.336	26.809	884.919	705.897
264.351	25.600	884.436	700.744
265.366	25.717	884.385	701.096
266.380	26.381	885.446	704.462
267.395	27.101	883.090	705.325
268.409	27.006	882.737	704.612
269.424	26.969	882.438	704.167
270.439	27.191	882.166	704.748
271.453	27.101	880.839	703.276
272.468	27.019	881.515	703.437
273.482	27.079	881.384	703.500
274.497	26.961	880.054	701.920
275.512	26.785	879.117	700.433
276.526	26.851	878.964	700.502
277.541	26.818	878.960	700.312
278.555	27.046	877.468	699.937
279.570	26.990	876.784	699.116
280.585	27.048	876.189	698.801
281.599	26.910	875.549	697.701
282.614	26.296	874.157	694.171
283.628	26.335	873.847	694.013
284.643	26.643	873.039	694.493
285.657	26.286	872.934	692.975
286.672	26.021	872.071	691.215
287.687	26.813	871.488	693.724
288.701	26.725	871.228	693.120
289.716	26.506	869.497	690.845
290.730	26.178	869.991	689.923
291.745	26.105	868.593	688.473
292.760	26.356	869.468	690.065
293.774	27.220	869.584	693.394
294.789	27.526	869.090	694.105
295.803	27.801	868.075	694.279
296.818	27.684	867.160	693.040
297.833	26.927	866.557	689.620
298.847	27.080	865.081	688.965
299.862	27.264	865.413	689.869
300.876	27.398	865.885	690.692
301.891	27.381	864.395	689.378
302.906	27.370	863.945	688.914
303.920	27.440	862.659	688.093
304.935	27.688	862.752	689.043
305.949	27.783	861.737	688.529
306.964	27.582	860.884	687.029
307.979	27.310	861.062	686.086
308.993	27.744	861.005	687.617
310.008	27.785	861.072	687.764
311.022	27.461	859.811	685.477
312.037	27.408	858.517	684.183
313.052	26.960	858.108	682.114
314.066	26.570	856.605	679.397
315.081	25.981	855.692	676.405
316.095	26.932	856.519	680.566
317.110	27.343	855.647	681.351
318.125	25.905	855.779	676.006
319.139	25.453	854.042	672.885
320.154	25.314	853.240	671.672
321.168	26.200	853.417	675.067
322.183	27.294	853.278	678.981
323.197	27.197	852.493	677.935
324.212	27.331	853.095	678.854
325.227	27.686	851.475	678.827
326.241	27.255	851.058	676.832
327.256	27.235	850.326	676.113
328.270	26.691	850.607	674.253
329.285	27.087	849.065	674.442
330.300	26.785	847.744	672.214
331.314	26.863	848.569	673.098
332.329	27.384	848.002	674.519
333.343	27.480	848.625	675.311
334.358	27.574	847.599	674.784
335.373	27.551	846.877	674.065
336.387	27.721	847.422	675.068
337.402	28.048	847.117	675.973
338.416	27.997	846.430	675.176
339.431	28.259	846.460	676.110
340.446	28.022	845.617	674.501
341.460	27.920	845.507	673.980
342.475	28.156	844.928	674.326
343.489	28.363	843.441	673.843
344.504	28.262	843.839	673.729
345.519	28.380	843.716	674.007
346.533	28.662	843.358	674.697
347.548	28.078	842.973	672.184
348.562	28.245	842.192	672.115
349.577	28.127	841.493	671.063
350.592	28.299	840.234	670.629
351.606	28.284	839.268	669.746
352.621	28.065	839.331	668.936
353.635	28.005	838.032	667.622
354.650	27.364	837.089	664.470
355.665	26.620	835.760	660.644
356.679	27.185	835.260	662.251
357.694	27.222	835.261	662.329
358.708	27.276	835.200	662.416
359.723	27.557	835.243	663.417
360.738	27.995	833.786	663.789
361.752	28.091	833.685	664.000
362.767	28.138	834.184	664.508
363.781	28.319	832.827	664.025
364.796	28.674	832.193	664.748
365.810	28.593	832.638	664.751
366.825	28.666	831.897	664.364
367.840	28.308	830.070	661.552
368.854	27.965	830.219	660.375
369.869	28.176	829.754	660.707
370.883	28.049	829.367	659.883
371.898	28.010	829.101	659.471
372.913	27.890	828.837	658.770
373.927	28.373	827.209	659.158
374.942	28.472	827.346	659.565
375.956	28.513	826.500	658.978
376.971	28.492	826.768	659.058
377.986	28.731	826.605	659.729
379.000	28.824	826.234	659.707
380.015	28.427	825.791	657.871
381.029	28.516	825.483	657.888
382.044	28.745	823.342	656.942
383.059	28.444	824.497	656.729
384.073	28.781	823.561	657.130
385.088	28.195	822.997	654.526
386.102	28.189	821.721	653.433
387.117	28.171	821.676	653.272
388.132	27.818	820.055	650.669
389.146	27.414	819.505	648.736
390.161	27.867	819.792	650.521
391.175	28.445	819.182	652.035
392.190	28.033	818.142	649.685
393.205	26.787	815.904	643.431
394.219	25.462	814.748	637.765
395.234	25.232	813.722	636.091
396.248	27.253	814.665	643.935
397.263	28.268	815.735	648.319
398.278	28.060	815.340	647.213
399.292	27.718	814.849	645.557
400.307	27.619	815.012	645.278
401.321	27.962	814.777	646.248
402.336	28.329	814.017	646.883
403.350	28.859	814.079	648.746
404.365	28.611	814.820	648.403
405.380	29.138	813.938	649.504
406.394	29.540	812.311	649.562
407.409	29.767	811.438	649.605
408.423	29.131	811.850	647.641
409.438	29.584	811.113	648.586
410.453	29.181	810.692	646.778
411.467	29.276	810.941	647.252
412.482	29.125	810.585	646.382
413.496	29.255	810.088	646.383
414.511	29.171	810.135	646.071
415.526	29.352	808.612	645.432
416.540	29.326	808.882	645.498
417.555	28.985	807.829	643.411
418.569	29.012	807.235	642.974
419.584	28.743	806.810	641.640
420.599	29.019	806.453	642.261
421.613	159.693	1371.849	1793.545
422.628	138.783	1454.246	1793.625
