DTS Sentinel unit serial number:	SN413079Multiplexer serial number:	ORYXHardware model number:	OX4-SRSoftware version number:	ORYX F/W v4.00 Oryx Data Collector v3.7.2.0data status	okinstallation	princeton_trtdifferential loss correction	single-endedforward channel	channel 1reverse channel	N/Adate	2019/09/18time	18:50:35forward acquisition time	60.00reverse acquisition time	0.00gamma	496.2192k internal	0.2304k external	0.2304temperature offset calibration	1.0015default loss term (dB/km)	0.3790temperature slope calibration	1.0000multiplexer offset coefficient	1.0000multiplexer slope coefficient	1.0000fibre end	0.00T internal ref (°C)	37.03T ext. ref 1 (°C)	0.92T ext. ref 2 (°C)	26.85length (m)	temperature (°C)	Stokes	anti-Stokes-747.200	772.968	0.051	0.142
-746.185	75.325	0.082	0.088
-745.171	-200.000	-0.099	0.499
-744.156	-200.000	-0.070	0.567
-743.142	-39.452	-0.318	0.170
-742.127	560.047	-0.076	-0.187
-741.112	-114.928	0.162	0.031
-740.098	-66.432	0.133	0.054
-739.083	-200.000	-0.021	0.195
-738.069	78.457	-0.146	0.159
-737.054	-200.000	-0.045	0.206
-736.039	-158.899	-0.447	-0.026
-735.025	216.939	0.073	-0.118
-734.010	4.622	-0.213	-0.159
-732.996	27.407	-0.201	-0.172
-731.981	41.897	-0.091	0.084
-730.966	90.492	0.073	0.083
-729.952	269.822	0.032	0.058
-728.937	205.865	0.145	-0.230
-727.923	60.458	0.103	0.104
-726.908	-167.464	0.120	0.005
-725.894	162.713	-0.136	0.195
-724.879	-140.714	-0.352	0.037
-723.864	141.608	-0.062	0.084
-722.850	-64.050	0.332	0.138
-721.835	-13.826	0.200	0.132
-720.821	162.251	0.055	-0.078
-719.806	-153.654	-0.353	-0.025
-718.791	-200.000	0.022	-0.354
-717.777	129.330	-0.100	-0.130
-716.762	324.300	-0.109	0.211
-715.748	-94.517	-0.184	-0.051
-714.733	290.800	-0.097	-0.180
-713.718	64.927	0.100	0.103
-712.704	166.932	0.111	0.160
-711.689	601.032	0.154	-0.390
-710.675	538.886	0.015	-0.036
-709.660	-200.000	0.027	-0.240
-708.645	-200.000	-0.015	-0.246
-707.631	-153.340	0.261	0.019
-706.616	-200.000	0.037	-0.467
-705.602	-90.901	0.396	0.116
-704.587	379.842	0.123	0.257
-703.572	-200.000	-0.012	-0.232
-702.558	-200.000	-0.013	-0.073
-701.543	-200.000	0.013	0.149
-700.529	707.633	0.156	-0.418
-699.514	406.260	-0.119	-0.255
-698.499	-105.009	-0.087	-0.020
-697.485	800.000	-0.107	-0.299
-696.470	356.091	-0.086	-0.175
-695.456	-105.233	-0.374	-0.087
-694.441	-168.042	-0.293	-0.012
-693.426	-60.341	0.278	0.120
-692.412	314.314	-0.045	0.086
-691.397	-200.000	-0.005	-0.342
-690.383	32.658	-0.345	-0.303
-689.368	-67.616	-0.063	-0.025
-688.354	-53.002	0.064	-0.030
-687.339	123.902	0.167	0.213
-686.324	58.627	-0.225	0.224
-685.310	150.795	-0.137	-0.189
-684.295	4.807	-0.137	0.102
-683.281	800.000	-0.059	0.259
-682.266	30.722	-0.147	-0.128
-681.251	-200.000	0.016	0.089
-680.237	-94.340	0.229	0.064
-679.222	-119.498	-0.207	0.036
-678.208	25.165	-0.329	0.278
-677.193	-126.833	0.179	-0.027
-676.178	-45.812	0.067	0.034
-675.164	57.346	0.118	0.117
-674.149	-116.646	-0.177	-0.033
-673.135	-33.776	-0.090	0.051
-672.120	67.447	-0.088	-0.091
-671.105	747.665	0.089	0.244
-670.091	34.837	-0.134	-0.119
-669.076	585.658	0.189	0.472
-668.062	30.779	0.182	0.158
-667.047	662.255	-0.146	0.382
-666.032	-39.450	-0.092	-0.049
-665.018	-107.411	0.349	0.078
-664.003	-2.576	0.281	-0.200
-662.989	-200.000	-0.001	0.062
-661.974	-200.000	0.016	0.118
-660.959	-200.000	-0.034	0.152
-659.945	-12.746	-0.164	0.109
-658.930	-111.943	-0.229	0.047
-657.916	-200.000	0.004	0.317
-656.901	-87.228	-0.518	0.160
-655.886	-200.000	0.008	0.099
-654.872	-87.798	0.083	-0.025
-653.857	218.895	-0.170	0.275
-652.843	39.841	-0.181	0.165
-651.828	-88.141	-0.429	-0.131
-650.814	-200.000	-0.003	-0.016
-649.799	110.332	-0.227	-0.277
-648.784	-54.001	-0.262	-0.121
-647.770	255.213	-0.084	-0.146
-646.755	800.000	-0.035	-0.102
-645.741	800.000	0.061	0.244
-644.726	-47.251	0.154	0.076
-643.711	-75.957	-0.330	0.119
-642.697	3.283	0.109	-0.080
-641.682	275.406	0.047	0.085
-640.668	219.221	0.079	0.128
-639.653	26.061	-0.153	0.130
-638.638	324.018	-0.121	0.234
-637.624	-200.000	-0.034	-0.231
-636.609	2.563	-0.027	0.020
-635.595	58.068	-0.139	-0.138
-634.580	133.427	-0.118	-0.155
-633.565	317.055	0.039	0.074
-632.551	106.050	-0.150	0.180
-631.536	-182.783	0.161	0.003
-630.522	-16.873	-0.249	-0.159
-629.507	-106.268	-0.125	-0.028
-628.492	210.417	-0.265	-0.422
-627.478	87.000	0.161	0.180
-626.463	-127.420	0.031	0.005
-625.449	70.028	0.122	-0.128
-624.434	800.000	-0.041	-0.145
-623.419	800.000	-0.103	-0.376
-622.405	114.751	-0.130	-0.161
-621.390	-200.000	0.065	0.364
-620.376	-200.000	0.138	0.000
-619.361	800.000	-0.118	-0.367
-618.346	-200.000	0.000	-0.008
-617.332	-73.975	-0.236	0.087
-616.317	-200.000	0.024	0.151
-615.303	-142.144	-0.123	0.012
-614.288	612.839	-0.066	-0.167
-613.273	13.392	-0.119	0.093
-612.259	-200.000	-0.023	0.240
-611.244	265.143	0.050	-0.089
-610.230	-157.584	0.097	0.006
-609.215	-93.808	0.469	0.131
-608.201	-64.144	0.288	0.119
-607.186	800.000	0.067	0.209
-606.171	-92.398	-0.204	0.058
-605.157	-110.317	0.396	-0.083
-604.142	101.055	0.143	-0.169
-603.128	84.806	-0.108	-0.120
-602.113	200.398	0.064	-0.100
-601.098	58.046	-0.151	-0.150
-600.084	-200.000	0.055	0.263
-599.069	162.720	-0.118	-0.168
-598.055	324.683	0.026	-0.050
-597.040	257.456	-0.091	-0.159
-596.025	800.000	0.055	-0.232
-595.011	238.327	0.189	0.318
-593.996	168.061	-0.189	-0.272
-592.982	-200.000	0.010	-0.104
-591.967	158.532	-0.160	0.224
-590.952	350.845	0.083	0.167
-589.938	30.814	0.234	-0.203
-588.923	93.056	0.044	-0.051
-587.909	88.849	-0.166	-0.187
-586.894	-70.910	-0.104	-0.040
-585.879	-24.967	-0.190	-0.114
-584.865	-54.245	0.233	-0.107
-583.850	-200.000	0.035	0.231
-582.836	-200.000	-0.041	-0.391
-581.821	-49.047	0.083	-0.040
-580.806	-169.291	0.143	0.005
-579.792	-106.034	-0.147	-0.033
-578.777	176.804	-0.149	-0.220
-577.763	330.258	-0.114	0.223
-576.748	36.662	-0.193	-0.172
-575.733	-57.773	-0.113	0.050
-574.719	-200.000	-0.025	-0.223
-573.704	653.786	-0.130	-0.337
-572.690	81.923	0.214	0.234
-571.675	800.000	-0.114	0.418
-570.661	-200.000	-0.002	0.018
-569.646	-131.160	0.169	0.023
-568.631	-200.000	-0.006	0.226
-567.617	43.070	-0.111	-0.103
-566.602	139.016	-0.133	-0.177
-565.588	265.876	0.165	-0.291
-564.573	800.000	0.050	0.142
-563.558	214.990	-0.040	-0.064
-562.544	800.000	-0.064	-0.207
-561.529	730.406	-0.126	0.340
-560.515	-100.777	0.174	-0.043
-559.500	172.060	0.062	0.090
-558.485	-52.407	-0.100	-0.047
-557.471	36.523	-0.308	0.275
-556.456	65.821	-0.074	0.076
-555.442	-92.945	0.106	-0.030
-554.427	-168.996	-0.114	-0.004
-553.412	800.000	0.036	0.153
-552.398	30.048	0.127	0.110
-551.383	-2.687	-0.391	0.276
-550.369	-69.333	0.040	0.016
-549.354	-116.116	0.299	0.056
-548.339	800.000	-0.080	0.312
-547.325	-117.907	0.216	0.039
-546.310	800.000	-0.061	0.175
-545.296	70.448	0.084	0.088
-544.281	-200.000	0.074	0.334
-543.266	800.000	0.051	-0.153
-542.252	-96.251	0.266	0.071
-541.237	-85.081	0.175	-0.055
-540.223	-113.176	-0.184	0.037
-539.208	-21.304	0.214	0.132
-538.193	53.902	0.053	0.051
-537.179	-112.138	-0.124	-0.025
-536.164	-6.794	-0.343	0.235
-535.150	-32.763	0.068	0.038
-534.135	150.502	0.057	0.079
-533.121	-79.546	-0.380	-0.129
-532.106	-91.043	-0.118	0.034
-531.091	-91.501	0.364	-0.105
-530.077	-72.290	-0.269	-0.100
-529.062	49.142	-0.206	-0.195
-528.048	-200.000	-0.006	-0.679
-527.033	149.904	-0.092	-0.126
-526.018	271.509	0.108	0.192
-525.004	183.605	0.190	0.284
-523.989	800.000	0.108	-0.459
-522.975	113.961	-0.046	0.057
-521.960	-200.000	-0.046	-0.312
-520.945	194.573	0.193	0.295
-519.931	5.523	-0.216	-0.161
-518.916	339.991	0.196	-0.386
-517.902	-150.249	-0.327	0.026
-516.887	85.408	-0.155	0.172
-515.872	-21.787	0.195	0.120
-514.858	800.000	-0.109	0.383
-513.843	541.080	-0.047	0.114
-512.829	800.000	0.103	-0.296
-511.814	-32.449	0.250	0.141
-510.799	334.547	0.110	0.216
-509.785	-200.000	0.016	0.315
-508.770	-69.052	-0.220	-0.085
-507.756	58.428	0.047	-0.046
-506.741	-200.000	-0.083	0.375
-505.726	25.295	0.221	-0.186
-504.712	-200.000	0.033	-0.181
-503.697	60.400	-0.225	-0.224
-502.683	26.029	-0.198	-0.166
-501.668	-200.000	0.023	0.158
-500.653	-114.268	-0.387	0.075
-499.639	-60.053	-0.085	-0.037
-498.624	800.000	0.047	0.152
-497.610	-124.341	-0.279	0.044
-496.595	-39.994	0.119	0.063
-495.581	318.357	-0.104	0.198
-494.566	-19.286	0.070	0.044
-493.551	17.848	-0.188	0.151
-492.537	-200.000	0.070	0.629
-491.522	-200.000	0.051	0.420
-490.508	-97.572	-0.143	0.037
-489.493	-8.583	0.214	-0.145
-488.478	-195.571	0.069	-0.001
-487.464	-111.059	-0.157	-0.032
-486.449	-200.000	0.004	0.206
-485.435	-200.000	-0.007	0.076
-484.420	-98.728	0.139	-0.036
-483.405	-100.830	-0.132	-0.033
-482.391	-98.286	0.164	0.042
-481.376	-200.000	-0.001	-0.144
-480.362	275.645	0.037	-0.066
-479.347	-200.000	-0.013	-0.124
-478.332	-94.238	0.156	0.043
-477.318	-108.175	0.071	-0.015
-476.303	389.770	0.127	0.265
-475.289	800.000	-0.096	-0.363
-474.274	16.284	-0.087	-0.069
-473.259	72.981	0.095	0.100
-472.245	-28.157	-0.048	-0.028
-471.230	-85.343	-0.521	-0.164
-470.216	-61.234	-0.040	-0.017
-469.201	5.110	0.161	0.120
-468.186	-6.919	0.023	-0.016
-467.172	-200.000	0.014	-0.146
-466.157	-56.100	-0.188	0.084
-465.143	82.339	0.043	0.046
-464.128	-65.096	0.104	-0.042
-463.113	-82.450	-0.136	-0.045
-462.099	160.309	-0.125	-0.175
-461.084	161.987	-0.186	0.263
-460.070	-23.497	-0.174	-0.105
-459.055	57.434	0.111	0.109
-458.040	-74.028	0.240	-0.088
-457.026	160.342	-0.134	-0.188
-456.011	-200.000	-0.002	-0.075
-454.997	18.004	-0.227	0.182
-453.982	-88.780	0.066	0.020
-452.968	-200.000	0.044	-0.203
-451.953	-81.084	0.105	0.035
-450.938	-67.439	-0.167	0.066
-449.924	800.000	-0.029	0.096
-448.909	23.130	-0.286	0.236
-447.895	-46.272	0.063	0.031
-446.880	-120.107	0.163	0.028
-445.865	43.527	0.229	-0.211
-444.851	105.707	0.058	0.069
-443.836	-115.053	0.238	0.046
-442.822	738.137	-0.043	0.117
-441.807	42.271	-0.201	0.184
-440.792	213.821	0.070	0.111
-439.778	-200.000	0.000	0.407
-438.763	-86.138	0.204	0.063
-437.749	-200.000	-0.008	0.183
-436.734	-131.969	0.246	-0.032
-435.719	-50.871	-0.138	0.065
-434.705	561.645	0.166	0.404
-433.690	286.054	-0.096	-0.174
-432.676	106.877	-0.156	-0.186
-431.661	-200.000	-0.006	-0.235
-430.646	63.825	0.052	-0.053
-429.632	-147.163	-0.093	0.008
-428.617	-200.000	-0.061	-0.319
-427.603	6.070	0.191	-0.143
-426.588	72.191	0.210	0.219
-425.573	-133.704	0.278	0.035
-424.559	-46.516	-0.187	0.092
-423.544	800.000	0.076	0.246
-422.530	-161.414	0.495	0.026
-421.515	-137.436	0.336	-0.038
-420.500	800.000	-0.066	-0.197
-419.486	131.469	0.101	0.131
-418.471	47.924	0.152	-0.143
-417.457	-16.212	0.109	-0.069
-416.442	-84.451	-0.306	-0.097
-415.428	23.517	0.053	0.044
-414.413	-200.000	-0.054	-0.312
-413.398	800.000	0.074	0.245
-412.384	-25.842	0.243	-0.144
-411.369	352.040	0.106	0.212
-410.355	-200.000	-0.010	-0.100
-409.340	-39.697	-0.410	-0.216
-408.325	-21.719	-0.044	-0.027
-407.311	-173.278	-0.288	-0.009
-406.296	577.563	-0.045	-0.110
-405.282	24.981	0.098	0.082
-404.267	-200.000	-0.004	-0.048
-403.252	494.547	0.111	-0.255
-402.238	169.379	0.111	-0.159
-401.223	-11.144	0.175	0.116
-400.209	25.006	0.409	-0.341
-399.194	-81.607	-0.123	-0.040
-398.179	30.461	0.129	-0.111
-397.165	-104.146	0.332	0.078
-396.150	-6.938	-0.175	0.119
-395.136	-200.000	0.004	-0.050
-394.121	386.040	-0.136	0.281
-393.106	-124.813	0.352	-0.055
-392.092	-26.510	-0.099	-0.058
-391.077	-44.442	-0.154	-0.077
-390.063	417.371	0.017	-0.036
-389.048	-200.000	-0.004	-0.048
-388.033	414.779	0.103	-0.221
-387.019	135.795	0.295	-0.386
-386.004	102.115	0.137	0.160
-384.990	130.215	-0.093	-0.120
-383.975	556.877	0.020	0.049
-382.960	-32.233	-0.217	0.122
-381.946	456.691	0.148	-0.331
-380.931	-64.573	-0.403	0.164
-379.917	59.222	-0.276	0.272
-378.902	-200.000	0.046	-0.245
-377.888	-200.000	-0.029	0.180
-376.873	555.496	-0.065	-0.158
-375.858	800.000	0.027	-0.082
-374.844	-115.164	0.442	-0.084
-373.829	-102.230	0.080	-0.019
-372.815	-21.637	0.096	-0.058
-371.800	-35.605	0.168	0.092
-370.785	-51.306	-0.135	0.063
-369.771	197.229	0.099	-0.152
-368.756	-71.566	0.218	-0.082
-367.742	236.625	0.080	-0.132
-366.727	-200.000	-0.079	-0.533
-365.712	161.407	0.133	-0.186
-364.698	-200.000	-0.025	-0.178
-363.683	-116.439	-0.543	-0.101
-362.669	800.000	0.062	0.236
-361.654	-109.914	0.041	-0.009
-360.639	-0.212	-0.262	0.187
-359.625	-115.372	-0.161	0.030
-358.610	31.803	0.064	-0.055
-357.596	-4.079	0.143	-0.099
-356.581	71.018	0.080	0.083
-355.566	-60.120	-0.222	-0.095
-354.552	-200.000	0.003	-0.020
-353.537	352.973	0.065	0.129
-352.523	9.182	-0.101	0.076
-351.508	32.776	-0.183	0.159
-350.493	171.837	0.165	0.237
-349.479	-143.399	-0.191	-0.018
-348.464	-72.238	0.160	-0.059
-347.450	420.611	-0.052	-0.112
-346.435	43.137	-0.305	0.279
-345.420	800.000	0.037	-0.158
-344.406	446.232	0.077	-0.170
-343.391	2.734	0.321	0.234
-342.377	-47.196	-0.338	0.165
-341.362	800.000	-0.025	-0.104
-340.348	-36.040	-0.190	-0.103
-339.333	635.547	0.078	-0.198
-338.318	13.520	-0.166	-0.129
-337.304	-200.000	0.020	0.217
-336.289	-200.000	-0.025	-0.145
-335.275	577.255	-0.061	0.149
-334.260	-45.724	-0.410	-0.203
-333.245	378.204	-0.036	-0.073
-332.231	64.868	0.196	-0.198
-331.216	-12.553	0.328	0.215
-330.202	-200.000	0.010	0.172
-329.187	800.000	-0.093	0.302
-328.172	-25.717	0.201	0.119
-327.158	712.554	0.092	-0.245
-326.143	-200.000	-0.015	-0.244
-325.129	10.737	0.153	-0.117
-324.114	-200.000	-0.034	-0.332
-323.099	112.103	0.099	0.119
-322.085	178.285	-0.052	-0.076
-321.070	-200.000	-0.027	-0.120
-320.056	-4.144	0.150	0.104
-319.041	70.563	0.206	0.213
-318.026	135.921	-0.260	0.339
-317.012	-152.730	-0.159	-0.011
-315.997	-137.357	0.198	-0.022
-314.983	-6.366	0.264	-0.180
-313.968	-17.423	0.054	-0.034
-312.953	133.339	-0.214	0.277
-311.939	577.352	-0.037	0.091
-310.924	8.583	-0.231	0.174
-309.910	-200.000	-0.043	0.209
-308.895	517.656	-0.058	-0.135
-307.880	183.947	0.107	0.158
-306.866	105.472	0.107	0.127
-305.851	-200.000	0.003	0.267
-304.837	-200.000	-0.049	0.215
-303.822	75.135	-0.152	0.160
-302.807	552.973	0.130	-0.313
-301.793	800.000	-0.011	0.031
-300.778	-33.720	0.317	0.175
-299.764	800.000	0.062	0.259
-298.749	-164.591	-0.177	-0.008
-297.735	-200.000	-0.065	-0.413
-296.720	161.576	0.045	0.063
-295.705	492.281	0.088	0.201
-294.691	800.000	0.069	-0.293
-293.676	111.552	-0.132	-0.159
-292.662	-64.984	-0.260	0.105
-291.647	-200.000	0.005	-0.278
-290.632	204.284	0.206	-0.320
-289.618	-159.885	-0.128	-0.007
-288.603	-200.000	-0.002	-0.123
-287.589	426.717	-0.028	-0.060
-286.574	-163.888	-0.264	-0.012
-285.559	-81.935	0.329	0.108
-284.545	-200.000	0.033	0.251
-283.530	35.621	-0.224	-0.196
-282.516	-103.739	0.314	-0.074
-281.501	800.000	-0.012	0.036
-280.486	-90.715	0.125	-0.036
-279.472	800.000	-0.051	0.143
-278.457	800.000	0.041	0.145
-277.443	-200.000	0.012	0.239
-276.428	-200.000	0.036	0.208
-275.413	800.000	0.063	-0.180
-274.399	107.974	0.187	0.223
-273.384	-144.050	-0.389	0.036
-272.370	119.081	0.152	-0.187
-271.355	88.305	-0.215	-0.239
-270.340	-23.929	-0.270	-0.162
-269.326	303.016	0.161	-0.298
-268.311	149.725	0.210	0.284
-267.297	-125.401	-0.504	0.077
-266.282	187.124	0.169	0.252
-265.267	56.532	-0.122	-0.119
-264.253	800.000	-0.047	0.161
-263.238	-200.000	0.052	-0.277
-262.224	-82.317	0.198	-0.064
-261.209	-200.000	-0.012	-0.057
-260.195	-200.000	-0.078	0.375
-259.180	-132.218	0.208	-0.027
-258.165	-52.254	0.174	0.081
-257.151	68.585	0.158	0.162
-256.136	331.305	-0.071	-0.136
-255.122	800.000	-0.078	-0.319
-254.107	-200.000	0.019	-0.161
-253.092	-147.660	-0.137	-0.012
-252.078	154.446	-0.009	0.013
-251.063	-200.000	0.047	0.247
-250.049	58.311	0.188	-0.184
-249.034	136.962	0.052	-0.067
-248.019	-143.352	0.128	-0.012
-247.005	-61.564	-0.106	-0.045
-245.990	356.871	0.055	-0.110
-244.976	416.550	-0.064	-0.137
-243.961	-16.037	-0.206	0.131
-242.946	-200.000	0.032	0.297
-241.932	395.583	-0.213	0.443
-240.917	-200.000	0.040	-0.184
-239.903	-200.000	0.016	0.276
-238.888	-200.000	0.020	-0.129
-237.873	800.000	0.022	0.069
-236.859	-55.128	0.087	-0.039
-235.844	72.687	-0.072	0.075
-234.830	-127.740	-0.089	-0.013
-233.815	55.784	0.156	-0.151
-232.800	-200.000	0.013	0.402
-231.786	-138.585	0.284	-0.031
-230.771	47.210	0.080	-0.074
-229.757	278.427	-0.122	0.217
-228.742	52.138	-0.170	-0.162
-227.727	800.000	-0.047	0.153
-226.713	-78.931	0.338	0.115
-225.698	168.403	-0.180	-0.256
-224.684	-200.000	-0.005	0.042
-223.669	-120.006	-0.050	-0.008
-222.655	-150.513	-0.077	-0.006
-221.640	-121.551	-0.206	-0.034
-220.625	-35.423	0.108	-0.059
-219.611	-88.989	0.425	-0.126
-218.596	19.595	-0.239	-0.192
-217.582	-6.266	-0.088	-0.060
-216.567	-92.523	0.229	-0.064
-215.552	-122.461	0.250	0.041
-214.538	2.986	0.166	-0.120
-213.523	257.673	0.124	-0.212
-212.509	40.823	-0.090	-0.081
-211.494	184.817	-0.134	-0.198
-210.479	464.173	0.203	0.452
-209.465	509.290	0.100	0.231
-208.450	-67.907	-0.159	0.062
-207.436	-36.705	0.250	-0.134
-206.421	-200.000	-0.017	0.138
-205.406	-200.000	0.003	-0.425
-204.392	421.840	0.094	-0.200
-203.377	46.492	-0.197	0.182
-202.363	119.073	0.133	-0.165
-201.348	36.287	0.154	0.135
-200.333	-52.296	0.090	0.042
-199.319	-186.014	0.021	-0.000
-198.304	276.909	-0.008	0.014
-197.290	-129.961	0.134	0.018
-196.275	-54.412	-0.371	-0.167
-195.260	-200.000	-0.046	0.415
-194.246	-69.434	0.453	0.173
-193.231	255.144	-0.069	0.117
-192.217	213.273	0.039	0.061
-191.202	-84.921	0.300	-0.094
-190.187	-34.818	-0.337	0.183
-189.173	-200.000	-0.037	0.205
-188.158	148.079	0.069	0.093
-187.144	36.352	0.237	-0.208
-186.129	-200.000	0.008	-0.217
-185.114	-162.851	-0.177	0.009
-184.100	-200.000	0.010	0.137
-183.085	-55.380	0.055	-0.025
-182.071	-135.956	-0.086	0.010
-181.056	-55.868	-0.158	-0.070
-180.042	681.579	0.103	0.267
-179.027	-132.995	-0.304	-0.038
-178.012	-200.000	0.062	-0.386
-176.998	800.000	-0.089	-0.361
-175.983	-17.488	0.057	0.036
-174.969	800.000	-0.043	0.188
-173.954	371.327	0.055	-0.111
-172.939	800.000	0.049	0.152
-171.925	-143.066	-0.033	0.003
-170.910	357.640	0.061	-0.122
-169.896	-154.060	0.201	0.014
-168.881	113.922	-0.237	0.287
-167.866	-29.892	-0.021	-0.012
-166.852	400.358	-0.042	0.087
-165.837	-57.139	0.132	0.058
-164.823	-184.539	-0.395	0.006
-163.808	800.000	0.030	-0.112
-162.793	-200.000	0.004	0.320
-161.779	30.391	-0.076	-0.064
-160.764	630.303	-0.070	0.175
-159.750	-197.644	0.258	0.002
-158.735	800.000	-0.043	0.159
-157.720	246.421	-0.120	-0.201
-156.706	800.000	-0.074	-0.283
-155.691	-200.000	0.025	0.114
-154.677	800.000	-0.093	-0.352
-153.662	213.672	0.034	-0.053
-152.647	-52.156	0.189	0.087
-151.633	104.628	-0.018	0.021
-150.618	19.632	-0.148	-0.118
-149.604	-29.479	0.200	-0.114
-148.589	147.660	0.108	0.145
-147.574	-200.000	-0.004	-0.088
-146.560	-200.000	0.008	0.085
-145.545	-67.767	-0.366	-0.142
-144.531	64.959	0.129	-0.129
-143.516	421.653	-0.052	-0.110
-142.502	18.334	-0.051	0.041
-141.487	-200.000	0.047	-0.278
-140.472	280.442	-0.108	0.192
-139.458	25.473	-0.157	-0.130
-138.443	28.237	0.076	0.064
-137.429	153.533	-0.104	0.142
-136.414	-106.568	0.471	0.104
-135.399	-17.461	-0.189	-0.118
-134.385	-166.329	-0.166	0.007
-133.370	-200.000	-0.014	0.121
-132.356	800.000	0.060	-0.180
-131.341	-111.118	-0.068	-0.014
-130.326	-7.244	0.163	-0.110
-129.312	-53.187	0.198	-0.091
-128.297	541.264	0.083	0.197
-127.283	450.569	-0.108	-0.238
-126.268	-150.380	0.019	0.001
-125.253	-200.000	-0.010	0.199
-124.239	800.000	-0.053	0.208
-123.224	51.165	0.122	-0.115
-122.210	81.561	0.041	-0.044
-121.195	-130.135	0.291	-0.039
-120.180	-200.000	-0.027	-0.218
-119.166	166.309	-0.093	-0.131
-118.151	-200.000	0.031	0.167
-117.137	-126.370	0.124	0.018
-116.122	-121.418	0.384	0.063
-115.107	17.374	0.215	0.170
-114.093	-200.000	0.038	-0.288
-113.078	-200.000	0.001	0.075
-112.064	-175.907	0.046	-0.001
-111.049	-200.000	-0.011	0.395
-110.034	28.738	0.159	0.134
-109.020	76.351	0.140	-0.147
-108.005	-88.471	-0.328	-0.097
-106.991	-27.143	0.116	-0.067
-105.976	-200.000	-0.036	0.323
-104.962	44.567	0.163	0.149
-103.947	800.000	-0.084	-0.232
-102.932	800.000	-0.033	0.102
-101.918	-135.362	-0.209	-0.025
-100.903	562.212	0.053	-0.128
-99.889	800.000	0.026	0.106
-98.874	11.930	0.214	-0.164
-97.859	-200.000	0.010	-0.345
-96.845	-63.038	0.155	0.063
-95.830	-129.102	0.259	-0.036
-94.816	-200.000	0.012	0.123
-93.801	-200.000	0.025	0.223
-92.786	195.009	-0.068	-0.103
-91.772	-70.166	-0.237	0.089
-90.757	112.970	0.053	0.064
-89.743	82.438	-0.133	0.144
-88.728	113.393	0.101	-0.122
-87.713	143.805	-0.305	0.403
-86.699	-200.000	-0.002	-0.127
-85.684	298.928	-0.068	-0.124
-84.670	478.910	-0.063	0.141
-83.655	-200.000	-0.041	-0.339
-82.640	-82.074	-0.192	0.062
-81.626	179.592	0.112	0.163
-80.611	-200.000	0.034	-0.326
-79.597	12.036	-0.280	-0.214
-78.582	258.976	0.109	-0.187
-77.567	12.304	-0.280	-0.214
-76.553	-80.443	0.153	-0.051
-75.538	91.271	-0.057	-0.063
-74.524	800.000	-0.085	0.348
-73.509	-37.414	0.324	-0.172
-72.494	-62.979	0.271	-0.111
-71.480	686.366	0.039	-0.101
-70.465	-84.002	0.220	-0.069
-69.451	-49.335	0.177	0.084
-68.436	-200.000	-0.093	0.550
-67.422	-64.567	0.057	-0.023
-66.407	-101.604	0.177	-0.043
-65.392	457.929	-0.102	-0.225
-64.378	-158.455	-0.084	-0.005
-63.363	-59.707	0.019	-0.008
-62.349	-25.965	0.213	-0.124
-61.334	130.974	-0.834	-1.061
-60.319	144.180	0.255	0.337
-59.305	-200.000	-0.202	-0.967
-58.290	720.700	0.243	0.640
-57.276	327.011	0.733	1.393
-56.261	-200.000	94.037	553.837
-55.246	518.798	1397.040	3242.139
-54.232	148.156	2601.133	3478.336
-53.217	115.794	2200.515	2667.815
-52.203	48.800	1651.525	1535.327
-51.188	40.596	1385.054	1236.693
-50.173	37.203	1341.978	1177.643
-49.159	57.661	1388.706	1345.256
-48.144	62.230	1406.724	1390.791
-47.130	40.903	1362.361	1218.122
-46.115	37.251	1344.362	1179.840
-45.100	36.904	1340.229	1174.065
-44.086	36.866	1337.533	1171.426
-43.071	36.809	1334.924	1168.755
-42.057	36.763	1333.183	1166.903
-41.042	36.867	1331.248	1165.788
-40.027	36.917	1329.826	1164.796
-39.013	36.873	1328.095	1162.970
-37.998	36.930	1325.800	1161.257
-36.984	37.044	1323.910	1160.239
-35.969	37.083	1322.014	1158.766
-34.954	37.046	1320.665	1157.318
-33.940	37.046	1319.094	1155.892
-32.925	37.030	1318.017	1154.805
-31.911	37.237	1316.227	1154.425
-30.896	37.071	1315.236	1152.523
-29.881	37.197	1313.731	1151.907
-28.867	37.067	1312.328	1149.861
-27.852	37.213	1310.739	1149.286
-26.838	37.197	1308.943	1147.573
-25.823	37.196	1307.581	1146.326
-24.809	37.077	1306.113	1144.292
-23.794	37.014	1304.953	1142.860
-22.779	37.056	1303.753	1142.007
-21.765	37.226	1302.034	1141.456
-20.750	36.985	1301.203	1139.268
-19.736	37.139	1299.408	1138.558
-18.721	36.934	1298.787	1136.764
-17.706	36.923	1297.153	1135.226
-16.692	36.981	1296.111	1134.608
-15.677	36.988	1294.805	1133.460
-14.663	36.973	1293.345	1132.047
-13.648	36.975	1292.920	1131.644
-12.633	36.990	1291.708	1130.627
-11.619	36.949	1290.762	1129.513
-10.604	36.989	1289.765	1128.831
-9.590	36.972	1289.391	1128.356
-8.575	36.915	1288.796	1127.461
-7.560	37.121	1287.041	1127.077
-6.546	36.914	1286.639	1125.478
-5.531	36.950	1285.519	1124.664
-4.517	37.094	1284.385	1124.463
-3.502	37.025	1283.648	1123.373
-2.487	37.067	1282.546	1122.603
-1.473	36.917	1278.359	1118.028
-0.458	34.288	1261.240	1088.020
0.556	27.580	1238.953	1031.016
1.571	21.537	1241.088	998.344
2.586	19.454	1254.938	997.364
3.600	18.450	1244.011	982.841
4.615	13.752	1171.422	899.977
5.629	5.549	1094.155	798.822
6.644	1.258	1072.414	761.386
7.659	0.850	1070.333	757.795
8.673	0.773	1069.283	756.598
9.688	0.810	1068.056	755.851
10.702	1.049	1065.872	755.428
11.717	5.457	1072.224	781.933
12.731	13.341	1082.165	828.757
13.746	17.209	1087.245	852.003
14.761	17.483	1086.920	853.051
15.775	16.779	1084.895	847.860
16.790	15.702	1082.898	840.845
17.804	15.053	1081.152	836.173
18.819	14.618	1080.472	833.400
19.834	14.408	1079.060	831.191
20.848	14.158	1078.495	829.437
21.863	13.821	1077.759	827.116
22.877	13.731	1076.969	825.989
23.892	13.722	1075.831	824.999
24.907	13.725	1075.058	824.345
25.921	13.803	1074.155	823.971
26.936	13.693	1073.806	823.083
27.950	13.904	1072.536	823.082
28.965	13.846	1071.580	821.987
29.980	13.903	1070.340	821.249
30.994	14.037	1068.601	820.503
32.009	14.020	1067.417	819.434
33.023	13.899	1067.071	818.500
34.038	13.943	1065.939	817.777
35.053	13.898	1065.101	816.839
36.067	13.879	1064.449	816.174
37.082	13.864	1063.842	815.565
38.096	13.786	1063.008	814.471
39.111	14.047	1061.624	814.615
40.126	13.860	1060.943	813.104
41.140	13.840	1059.287	811.666
42.155	13.844	1058.584	811.077
43.169	13.613	1058.223	809.599
44.184	13.641	1056.551	808.386
45.199	13.748	1055.587	808.099
46.213	13.792	1054.499	807.405
47.228	13.745	1053.207	806.116
48.242	13.720	1052.752	805.575
49.257	13.767	1051.369	804.674
50.271	13.948	1050.233	804.609
51.286	13.797	1049.791	803.471
52.301	13.913	1048.324	802.840
53.315	13.744	1047.574	801.377
54.330	13.837	1046.808	801.166
55.344	13.808	1045.729	800.134
56.359	13.798	1045.106	799.533
57.374	13.837	1043.573	798.481
58.388	13.702	1042.970	797.297
59.403	13.697	1042.453	796.810
60.417	13.680	1041.423	795.871
61.432	13.729	1040.510	795.338
62.447	13.573	1040.041	794.158
63.461	13.597	1039.293	793.634
64.476	13.548	1038.385	792.636
65.490	13.694	1037.507	792.595
66.505	13.705	1036.437	791.759
67.520	13.672	1036.180	791.335
68.534	13.864	1034.959	791.247
69.549	13.731	1034.859	790.469
70.563	13.596	1033.883	789.006
71.578	13.597	1032.985	788.257
72.593	13.590	1032.007	787.410
73.607	13.668	1031.266	787.142
74.622	13.633	1030.911	786.638
75.636	13.665	1029.832	785.897
76.651	13.556	1029.164	784.802
77.666	13.714	1028.704	785.130
78.680	13.600	1028.186	784.122
79.695	13.789	1027.116	784.131
80.709	13.750	1026.434	783.356
81.724	13.692	1026.376	782.971
82.739	13.722	1025.283	782.209
83.753	13.812	1024.601	782.043
84.768	13.865	1023.604	781.460
85.782	13.792	1022.885	780.501
86.797	13.805	1021.985	779.806
87.812	13.819	1020.747	778.859
88.826	13.882	1019.917	778.452
89.841	13.811	1019.068	777.402
90.855	13.793	1017.863	776.332
91.870	13.929	1017.134	776.339
92.884	13.891	1016.487	775.602
93.899	13.931	1015.638	775.074
94.914	13.956	1014.632	774.351
95.928	13.892	1013.999	773.501
96.943	13.881	1013.122	772.712
97.957	13.911	1012.402	772.234
98.972	13.873	1011.240	771.106
99.987	13.849	1010.899	770.664
101.001	13.832	1010.025	769.850
102.016	13.856	1008.531	768.755
103.030	13.968	1007.997	768.798
104.045	13.976	1007.038	768.035
105.060	13.943	1005.903	766.948
106.074	13.711	1006.042	765.919
107.089	13.815	1004.705	765.309
108.103	13.754	1003.807	764.279
109.118	13.901	1002.540	763.923
110.133	13.790	1001.814	762.794
111.147	13.632	1000.945	761.335
112.162	13.757	1000.203	761.277
113.176	13.846	999.108	760.784
114.191	13.811	998.601	760.174
115.206	13.902	997.627	759.779
116.220	13.808	997.154	758.923
117.235	13.784	996.277	758.080
118.249	13.791	995.213	757.231
119.264	13.900	994.446	757.079
120.279	13.957	993.106	756.250
121.293	13.790	992.744	755.150
122.308	13.860	991.757	754.652
123.322	13.690	991.337	753.489
124.337	13.768	989.845	752.645
125.352	13.910	988.888	752.495
126.366	13.849	988.178	751.611
127.381	13.863	986.664	750.453
128.395	13.832	985.929	749.693
129.410	13.947	984.923	749.379
130.424	13.849	984.052	748.207
131.439	13.912	983.446	747.963
132.454	13.912	982.726	747.350
133.468	13.927	982.072	746.852
134.483	13.900	981.272	746.059
135.497	13.916	980.080	745.156
136.512	13.888	979.549	744.564
137.527	13.970	978.549	744.106
138.541	13.869	977.980	743.151
139.556	13.912	977.389	742.832
140.570	13.940	976.086	741.900
141.585	14.070	975.313	741.828
142.600	14.077	974.479	741.159
143.614	14.039	973.526	740.198
144.629	14.127	972.706	739.900
145.643	14.196	971.439	739.179
146.658	13.925	971.116	737.663
147.673	14.018	969.873	737.065
148.687	13.968	969.494	736.490
149.702	13.830	968.438	735.014
150.716	13.821	967.378	734.105
151.731	13.977	966.813	734.301
152.746	14.026	965.877	733.739
153.760	13.990	965.317	733.093
154.775	14.033	964.838	732.851
155.789	14.015	964.697	732.600
156.804	14.136	963.486	732.151
157.819	14.193	962.859	731.860
158.833	14.102	962.059	730.787
159.848	14.195	961.316	730.566
160.862	14.184	960.553	729.872
161.877	14.130	959.685	728.911
162.892	14.049	958.742	727.775
163.906	14.084	957.397	726.844
164.921	14.009	956.701	725.922
165.935	14.233	955.808	726.157
166.950	14.142	954.840	724.965
167.964	14.129	954.415	724.519
168.979	14.053	953.507	723.434
169.994	14.183	952.293	723.016
171.008	14.027	951.998	722.048
172.023	14.242	950.908	722.092
173.037	14.362	950.257	722.055
174.052	14.124	949.905	720.691
175.067	14.161	949.210	720.259
176.081	14.129	948.517	719.534
177.096	14.147	947.649	718.888
178.110	14.223	947.048	718.698
179.125	14.160	946.631	718.047
180.140	14.223	946.575	718.211
181.154	14.264	945.522	717.525
182.169	14.446	944.582	717.532
183.183	14.362	944.276	716.874
184.198	14.320	943.442	715.998
185.213	14.367	942.829	715.671
186.227	14.434	942.155	715.382
187.242	14.436	941.784	715.047
188.256	14.520	940.966	714.721
189.271	14.526	940.154	714.066
190.286	14.416	939.111	712.742
191.300	14.353	938.535	711.972
192.315	14.340	937.967	711.424
193.329	14.242	937.687	710.731
194.344	14.381	936.874	710.645
195.359	14.223	936.274	709.452
196.373	14.356	935.449	709.329
197.388	14.464	935.243	709.573
198.402	14.390	935.100	709.083
199.417	14.633	933.824	709.086
200.432	14.675	933.250	708.769
201.446	14.747	932.850	708.707
202.461	14.658	932.402	707.926
203.475	14.721	931.712	707.604
204.490	14.623	930.981	706.571
205.504	14.693	929.900	705.985
206.519	14.524	929.344	704.789
207.534	14.470	928.765	704.059
208.548	14.582	928.032	703.915
209.563	14.721	927.088	703.718
210.577	14.691	926.532	703.108
211.592	14.649	925.965	702.439
212.607	14.776	924.957	702.149
213.621	14.830	924.462	701.937
214.636	14.753	923.515	700.834
215.650	14.754	923.092	700.454
216.665	14.838	921.824	699.781
217.680	14.839	921.448	699.438
218.694	14.791	920.850	698.723
219.709	14.869	920.247	698.528
220.723	14.906	919.725	698.222
221.738	14.957	918.782	697.659
222.753	14.857	917.806	696.439
223.767	14.933	917.724	696.631
224.782	15.020	916.878	696.289
225.796	15.100	916.026	695.913
226.811	14.984	915.518	694.986
227.826	14.862	915.306	694.256
228.840	14.950	914.431	693.897
229.855	15.007	913.428	693.310
230.869	14.976	912.759	692.612
231.884	14.937	911.935	691.767
232.899	15.011	910.918	691.237
233.913	15.008	910.708	691.005
234.928	15.005	910.066	690.445
235.942	15.073	909.255	690.048
236.957	15.009	908.643	689.258
237.972	14.964	908.079	688.584
238.986	14.952	907.957	688.384
240.001	14.854	907.178	687.326
241.015	15.121	906.289	687.691
242.030	14.964	905.892	686.685
243.045	15.121	905.250	686.781
244.059	15.203	904.505	686.490
245.074	15.158	903.742	685.666
246.088	15.202	903.143	685.331
247.103	15.182	902.250	684.510
248.117	15.113	902.350	684.243
249.132	15.355	901.540	684.555
250.147	15.424	900.761	684.186
251.161	15.360	900.221	683.454
252.176	15.351	899.358	682.700
253.190	15.350	899.082	682.429
254.205	15.440	898.101	681.989
255.220	15.421	897.411	681.329
256.234	15.570	896.815	681.421
257.249	15.415	896.241	680.294
258.263	15.421	895.758	679.894
259.278	15.524	894.995	679.670
260.293	15.600	893.951	679.125
261.307	15.545	893.822	678.745
262.322	15.513	893.046	677.966
263.336	15.580	892.149	677.494
264.351	15.639	891.422	677.118
265.366	15.668	890.901	676.781
266.380	15.769	890.142	676.551
267.395	15.648	889.798	675.742
268.409	15.770	888.527	675.209
269.424	15.737	887.811	674.472
270.439	15.592	887.430	673.543
271.453	15.486	887.225	672.903
272.468	15.665	886.276	672.837
273.482	15.708	885.539	672.392
274.497	15.723	884.942	671.937
275.512	15.750	884.457	671.619
276.526	15.814	883.781	671.303
277.541	15.683	884.083	670.949
278.555	15.838	882.820	670.549
279.570	15.886	882.085	670.122
280.585	15.919	881.378	669.657
281.599	15.827	880.745	668.749
282.614	15.753	880.085	667.898
283.628	15.780	879.357	667.392
284.643	15.892	878.848	667.389
285.657	15.849	878.458	666.866
286.672	16.009	877.485	666.701
287.687	15.957	877.029	666.089
288.701	16.036	876.054	665.603
289.716	15.994	875.601	665.033
290.730	16.068	875.096	664.882
291.745	16.082	874.392	664.343
292.760	16.025	873.805	663.616
293.774	16.044	873.392	663.317
294.789	16.106	872.537	662.852
295.803	16.261	871.705	662.771
296.818	16.076	871.027	661.471
297.833	15.990	870.605	660.756
298.847	16.104	870.079	660.742
299.862	16.233	869.209	660.530
300.876	16.068	869.121	659.758
301.891	16.243	868.239	659.715
302.906	16.172	867.781	659.031
303.920	16.225	867.208	658.745
304.935	16.374	866.682	658.867
305.949	16.357	865.809	658.080
306.964	16.297	865.098	657.247
307.979	16.179	864.819	656.519
308.993	16.166	864.413	656.100
310.008	16.457	863.558	656.524
311.022	16.454	862.810	655.885
312.037	16.289	862.443	654.910
313.052	16.317	862.073	654.681
314.066	16.307	861.248	653.955
315.081	16.332	860.773	653.634
316.095	16.291	859.960	652.801
317.110	16.252	859.809	652.478
318.125	16.225	859.236	651.881
319.139	16.357	858.676	651.908
320.154	16.424	858.165	651.722
321.168	16.414	857.776	651.328
322.183	16.426	857.311	650.965
323.197	16.435	856.958	650.672
324.212	16.418	855.946	649.781
325.227	16.443	855.517	649.496
326.241	16.402	854.743	648.692
327.256	16.501	854.332	648.701
328.270	16.438	853.635	647.876
329.285	16.484	852.909	647.444
330.300	16.533	852.578	647.321
331.314	16.511	852.074	646.796
332.329	16.523	851.708	646.509
333.343	16.589	851.272	646.374
334.358	16.601	850.684	645.912
335.373	16.459	850.354	645.066
336.387	16.595	849.793	645.102
337.402	16.695	849.370	645.105
338.416	16.723	849.300	645.101
339.431	16.812	848.653	644.891
340.446	16.867	848.557	644.969
341.460	16.794	847.977	644.192
342.475	16.797	847.931	644.115
343.489	16.888	846.849	643.581
344.504	16.811	846.717	643.131
345.519	16.762	846.383	642.632
346.533	16.791	845.717	642.181
347.548	16.805	845.136	641.736
348.562	16.832	844.517	641.311
349.577	16.831	844.189	641.002
350.592	16.840	843.179	640.211
351.606	16.973	842.480	640.129
352.621	16.872	842.257	639.521
353.635	16.844	841.322	638.648
354.650	16.883	840.720	638.281
355.665	16.951	839.793	637.777
356.679	17.001	839.682	637.825
357.694	16.914	838.761	636.739
358.708	16.996	837.924	636.357
359.723	17.074	837.357	636.161
360.738	16.962	837.176	635.550
361.752	17.073	836.729	635.568
362.767	17.170	835.797	635.168
363.781	17.116	835.626	634.779
364.796	17.230	834.439	634.248
365.810	17.134	834.645	633.989
366.825	17.213	834.227	633.913
367.840	17.362	833.437	633.808
368.854	17.216	833.151	632.991
369.869	17.269	832.763	632.838
370.883	17.220	832.551	632.440
371.898	17.201	831.957	631.863
372.913	17.268	831.668	631.836
373.927	17.346	830.812	631.417
374.942	17.255	830.640	630.894
375.956	17.456	830.054	631.139
376.971	17.445	829.643	630.729
377.986	17.514	828.996	630.438
379.000	17.585	828.463	630.239
380.015	17.504	828.363	629.806
381.029	17.465	827.724	629.122
382.044	17.441	827.484	628.794
383.059	17.433	826.536	627.991
384.073	17.482	825.908	627.636
385.088	17.442	825.230	626.920
386.102	17.351	824.994	626.350
387.117	17.541	824.065	626.289
388.132	17.662	823.389	626.162
389.146	17.579	823.207	625.663
390.161	17.633	822.639	625.376
391.175	17.565	822.450	624.928
392.190	17.568	821.656	624.280
393.205	17.446	821.304	623.509
394.219	17.560	820.957	623.609
395.234	17.579	820.279	623.109
396.248	17.565	820.061	622.834
397.263	17.576	819.354	622.283
398.278	17.533	819.347	622.065
399.292	17.638	818.843	622.011
400.307	17.633	818.159	621.419
401.321	17.713	817.422	621.095
402.336	17.664	817.178	620.677
403.350	17.692	816.687	620.351
404.365	17.639	816.370	619.863
405.380	17.711	815.859	619.682
406.394	17.803	815.195	619.455
407.409	17.766	815.218	619.285
408.423	17.787	814.714	618.924
409.438	17.849	814.339	618.808
410.453	18.001	813.703	618.821
411.467	17.959	813.522	618.475
412.482	18.079	812.764	618.280
413.496	17.979	812.480	617.646
414.511	18.031	812.389	617.710
415.526	18.034	811.658	617.110
416.540	17.873	811.277	616.184
417.555	18.103	810.623	616.464
418.569	17.989	810.324	615.770
419.584	18.276	809.611	616.210
420.599	18.065	809.138	615.033
421.613	102.743	1281.967	1430.280
422.628	88.453	1350.846	1430.390
