DTS Sentinel unit serial number:	SN413079Multiplexer serial number:	ORYXHardware model number:	OX4-SRSoftware version number:	ORYX F/W v4.00 Oryx Data Collector v3.7.2.0data status	okinstallation	princeton_trtdifferential loss correction	single-endedforward channel	channel 1reverse channel	N/Adate	2019/09/13time	15:42:35forward acquisition time	60.00reverse acquisition time	0.00gamma	496.2192k internal	0.2308k external	0.2308temperature offset calibration	1.0161default loss term (dB/km)	0.3790temperature slope calibration	1.0000multiplexer offset coefficient	1.0000multiplexer slope coefficient	1.0000fibre end	0.00T internal ref (°C)	34.81T ext. ref 1 (°C)	4.74T ext. ref 2 (°C)	29.14length (m)	temperature (°C)	Stokes	anti-Stokes-747.200	800.000	0.018	0.066
-746.185	800.000	0.096	0.278
-745.171	-200.000	0.014	0.258
-744.156	-103.117	0.236	0.057
-743.142	429.116	0.103	0.226
-742.127	166.572	-0.320	0.460
-741.112	342.626	0.104	0.208
-740.098	-62.035	0.307	0.130
-739.083	169.252	-0.055	0.080
-738.069	202.638	0.202	0.318
-737.054	-200.000	0.010	0.080
-736.039	800.000	-0.057	0.233
-735.025	283.333	-0.123	0.225
-734.010	-93.370	-0.233	-0.066
-732.996	8.593	-0.125	0.096
-731.981	139.933	-0.141	-0.188
-730.966	-91.000	0.280	-0.082
-729.952	-200.000	0.044	-0.245
-728.937	199.936	-0.173	-0.271
-727.923	-132.355	0.035	0.005
-726.908	278.506	0.143	-0.258
-725.894	800.000	0.055	0.238
-724.879	339.893	-0.210	-0.417
-723.864	-200.000	0.034	-0.340
-722.850	800.000	-0.077	-0.236
-721.835	800.000	-0.044	0.143
-720.821	-109.940	0.159	-0.034
-719.806	-95.824	-0.249	-0.068
-718.791	-1.679	-0.163	0.117
-717.777	-42.461	0.089	0.046
-716.762	-200.000	0.028	0.173
-715.748	-65.665	0.089	-0.036
-714.733	77.920	-0.345	-0.374
-713.718	800.000	-0.064	-0.233
-712.704	375.981	0.115	-0.238
-711.689	-51.288	-0.151	0.072
-710.675	-200.000	-0.008	-0.215
-709.660	-113.402	0.175	0.035
-708.645	-175.851	0.100	-0.003
-707.631	-200.000	0.015	-0.135
-706.616	62.859	-0.050	0.051
-705.602	385.502	-0.088	0.185
-704.587	-115.016	-0.323	-0.062
-703.572	-154.940	0.181	0.012
-702.558	122.169	0.050	0.063
-701.543	-200.000	-0.035	-0.323
-700.529	-200.000	-0.032	0.314
-699.514	211.306	-0.151	0.240
-698.499	20.678	-0.093	0.076
-697.485	-119.286	-0.278	-0.049
-696.470	-95.325	-0.140	-0.038
-695.456	-200.000	0.017	-0.206
-694.441	20.044	0.190	-0.155
-693.426	416.108	0.140	0.302
-692.412	11.718	-0.153	-0.119
-691.397	-121.035	-0.060	0.010
-690.383	-156.033	-0.162	-0.010
-689.368	-51.286	0.155	0.074
-688.354	-78.643	0.413	-0.143
-687.339	800.000	-0.050	-0.209
-686.324	-24.808	-0.033	-0.020
-685.310	197.537	0.133	-0.206
-684.295	-87.433	0.244	0.075
-683.281	40.610	0.088	0.081
-682.266	328.315	0.186	-0.361
-681.251	-5.357	0.232	-0.162
-680.237	800.000	0.057	-0.186
-679.222	-82.897	0.461	-0.151
-678.208	648.090	-0.112	0.292
-677.193	-200.000	-0.007	-0.349
-676.178	182.806	0.100	-0.150
-675.164	2.164	0.047	-0.034
-674.149	69.092	0.073	-0.076
-673.135	-65.736	0.276	-0.112
-672.120	-200.000	-0.020	0.255
-671.105	-122.847	-0.203	0.033
-670.091	-200.000	-0.025	0.242
-669.076	800.000	0.068	0.270
-668.062	-36.514	0.379	0.206
-667.047	-109.001	-0.294	-0.063
-666.032	800.000	-0.049	-0.153
-665.018	-10.255	0.172	0.116
-664.003	-13.277	-0.080	-0.053
-662.989	147.971	0.236	-0.323
-661.974	-147.738	-0.315	-0.027
-660.959	-91.815	-0.263	-0.076
-659.945	40.578	0.168	0.154
-658.930	705.313	0.076	0.203
-657.916	-140.400	-0.246	-0.026
-656.901	375.570	0.061	-0.127
-655.886	-19.317	0.216	0.136
-654.872	-156.851	-0.397	0.025
-653.857	176.852	0.126	0.186
-652.843	800.000	-0.078	0.247
-651.828	95.626	0.149	-0.173
-650.814	-158.665	-0.139	-0.008
-649.799	-4.122	-0.218	0.153
-648.784	24.474	0.210	-0.176
-647.770	796.905	-0.046	-0.129
-646.755	-39.438	0.198	0.105
-645.741	-41.647	-0.121	-0.063
-644.726	-4.109	0.223	0.156
-643.711	-44.241	0.259	0.132
-642.697	398.629	-0.150	0.318
-641.682	-104.623	0.190	-0.044
-640.668	441.819	-0.115	0.254
-639.653	-54.703	0.102	-0.047
-638.638	-135.333	-0.469	-0.057
-637.624	-200.000	-0.002	0.107
-636.609	-53.197	0.056	-0.026
-635.595	-137.494	-0.029	-0.003
-634.580	-26.284	-0.060	-0.036
-633.565	-125.536	-0.321	0.049
-632.551	800.000	0.091	-0.387
-631.536	-200.000	-0.020	-0.116
-630.522	-119.562	0.139	0.024
-629.507	68.074	0.061	-0.063
-628.492	256.757	-0.040	-0.070
-627.478	-53.364	-0.172	0.080
-626.463	-200.000	0.015	-0.126
-625.449	-8.357	-0.310	0.211
-624.434	-64.062	-0.344	-0.142
-623.419	-200.000	0.006	-0.056
-622.405	-136.730	0.130	0.015
-621.390	-200.000	0.009	0.489
-620.376	800.000	0.061	-0.239
-619.361	-200.000	0.006	-0.034
-618.346	-15.579	0.279	-0.180
-617.332	-33.366	-0.110	-0.061
-616.317	47.717	-0.344	0.325
-615.303	-40.672	-0.260	0.136
-614.288	-118.651	0.074	-0.013
-613.273	395.468	0.071	0.150
-612.259	114.136	-0.084	-0.103
-611.244	-200.000	-0.009	-0.243
-610.230	84.485	0.095	-0.105
-609.215	366.829	0.145	0.296
-608.201	800.000	-0.049	-0.198
-607.186	51.795	-0.126	-0.122
-606.171	-200.000	0.020	-0.210
-605.157	-17.799	0.158	-0.100
-604.142	594.098	0.034	0.086
-603.128	136.314	-0.114	-0.150
-602.113	-65.117	0.225	-0.092
-601.098	449.946	-0.149	-0.333
-600.084	160.157	0.139	0.196
-599.069	411.193	0.097	-0.209
-598.055	-56.687	-0.078	0.035
-597.040	-200.000	-0.012	-0.179
-596.025	80.696	-0.047	0.051
-595.011	224.279	0.199	-0.325
-593.996	438.138	-0.044	-0.097
-592.982	149.041	0.049	0.066
-591.967	-176.380	-0.449	-0.012
-590.952	-31.592	-0.312	0.177
-589.938	671.454	0.088	0.232
-588.923	-127.416	-0.300	0.044
-587.909	725.218	-0.051	-0.138
-586.894	-200.000	-0.014	-0.320
-585.879	134.682	0.119	-0.156
-584.865	800.000	-0.082	0.362
-583.850	-127.345	0.057	-0.008
-582.836	-4.823	0.229	-0.159
-581.821	745.701	-0.025	-0.067
-580.806	800.000	-0.019	-0.077
-579.792	316.928	0.083	0.158
-578.777	-133.700	0.164	-0.021
-577.763	-53.148	-0.196	-0.091
-576.748	-75.865	0.185	-0.066
-575.733	-32.349	-0.458	-0.258
-574.719	95.024	0.118	0.136
-573.704	-37.272	-0.318	0.172
-572.690	-141.213	-0.378	0.039
-571.675	45.063	-0.111	-0.103
-570.661	-164.314	0.150	0.007
-569.646	-24.540	-0.219	0.132
-568.631	659.844	0.138	0.360
-567.617	218.321	-0.036	-0.059
-566.602	61.276	-0.203	0.204
-565.588	237.070	-0.149	0.250
-564.573	262.867	0.073	-0.128
-563.558	541.729	0.098	-0.235
-562.544	-41.222	-0.227	-0.118
-561.529	-113.830	-0.202	0.040
-560.515	-25.583	0.216	0.129
-559.500	89.127	-0.083	0.093
-558.485	-143.796	-0.204	-0.019
-557.471	-200.000	-0.019	-0.134
-556.456	-66.566	-0.119	-0.048
-555.442	-148.306	0.262	-0.022
-554.427	292.984	0.118	-0.217
-553.412	235.722	-0.109	0.181
-552.398	283.526	-0.089	-0.162
-551.383	-161.765	0.195	-0.010
-550.369	-141.990	-0.323	0.032
-549.354	148.732	-0.286	0.389
-548.339	-63.965	0.191	-0.079
-547.325	800.000	-0.108	0.363
-546.310	27.412	-0.177	-0.150
-545.296	-200.000	-0.007	-0.435
-544.281	664.122	0.027	0.071
-543.266	69.560	0.057	0.059
-542.252	-113.149	-0.092	0.018
-541.237	-200.000	-0.017	0.136
-540.223	-131.882	-0.117	0.015
-539.208	78.009	0.043	-0.046
-538.193	800.000	0.124	-0.356
-537.179	4.314	-0.057	-0.042
-536.164	131.954	0.211	0.274
-535.150	207.124	0.224	-0.352
-534.135	-154.475	-0.157	-0.011
-533.121	-50.068	-0.108	0.051
-532.106	800.000	-0.040	0.161
-531.091	172.707	0.108	-0.157
-530.077	-77.980	-0.199	0.069
-529.062	-200.000	-0.027	-0.251
-528.048	284.521	0.069	0.125
-527.033	14.513	-0.198	-0.156
-526.018	39.260	-0.143	-0.129
-525.004	-66.289	0.248	0.100
-523.989	-87.784	-0.338	0.103
-522.975	800.000	-0.104	-0.293
-521.960	216.613	-0.052	-0.083
-520.945	-141.222	-0.281	0.029
-519.931	532.156	-0.035	-0.082
-518.916	-62.047	0.062	-0.026
-517.902	-200.000	0.066	0.398
-516.887	213.695	-0.120	-0.191
-515.872	-200.000	0.125	0.000
-514.858	142.725	0.111	0.148
-513.843	-15.679	-0.189	-0.121
-512.829	357.744	-0.039	-0.079
-511.814	683.782	-0.150	-0.393
-510.799	-200.000	-0.025	-0.203
-509.785	-19.398	0.134	0.083
-508.770	242.855	-0.173	-0.292
-507.756	515.389	0.123	-0.290
-506.741	315.491	0.060	-0.114
-505.726	-200.000	0.014	0.128
-504.712	73.672	-0.046	0.049
-503.697	98.189	-0.269	0.312
-502.683	349.549	-0.057	-0.113
-501.668	-5.532	-0.136	0.094
-500.653	27.784	0.103	0.087
-499.639	224.991	0.213	-0.348
-498.624	16.567	0.298	0.237
-497.610	-200.000	-0.005	0.099
-496.595	-200.000	0.000	-0.080
-495.581	-200.000	-0.013	0.178
-494.566	-200.000	-0.018	0.153
-493.551	343.665	0.038	-0.075
-492.537	-150.409	-0.070	-0.005
-491.522	-200.000	-0.023	-0.296
-490.508	-200.000	0.105	-0.575
-489.493	182.965	-0.067	0.100
-488.478	-124.630	-0.369	0.058
-487.464	-65.333	-0.193	-0.078
-486.449	800.000	0.053	-0.172
-485.435	-127.513	-0.296	-0.043
-484.420	7.566	0.041	-0.031
-483.405	170.237	-0.042	-0.060
-482.391	-9.532	0.364	-0.244
-481.376	-8.158	0.088	-0.059
-480.362	499.723	-0.136	0.316
-479.347	-200.000	-0.004	0.111
-478.332	-200.000	-0.048	0.343
-477.318	315.174	0.071	-0.136
-476.303	0.743	-0.191	0.138
-475.289	38.397	-0.277	-0.248
-474.274	280.196	-0.118	0.213
-473.259	-200.000	0.001	0.276
-472.245	800.000	-0.106	0.296
-471.230	-200.000	-0.048	0.332
-470.216	354.451	0.083	0.166
-469.201	216.952	0.082	-0.132
-468.186	-80.140	0.247	0.083
-467.172	146.977	0.118	-0.159
-466.157	800.000	0.052	-0.195
-465.143	-200.000	0.028	-0.147
-464.128	-200.000	-0.004	-0.152
-463.113	-81.160	0.183	-0.061
-462.099	-56.976	0.245	-0.109
-461.084	119.733	-0.259	-0.323
-460.070	-200.000	-0.012	0.244
-459.055	-63.689	-0.296	-0.122
-458.040	225.487	0.083	-0.136
-457.026	-200.000	0.047	-0.223
-456.011	144.075	-0.192	-0.257
-454.997	171.083	-0.225	0.324
-453.982	800.000	-0.083	0.261
-452.968	-200.000	0.017	-0.179
-451.953	-104.256	-0.604	0.141
-450.938	415.980	0.155	0.332
-449.924	-40.157	0.169	-0.089
-448.909	-14.942	-0.183	-0.118
-447.895	-199.753	-0.218	-0.001
-446.880	-76.081	-0.304	0.108
-445.865	-44.410	-0.263	0.132
-444.851	800.000	-0.039	-0.109
-443.836	217.826	0.083	-0.133
-442.822	-72.272	-0.105	-0.039
-441.807	800.000	0.051	-0.177
-440.792	-200.000	0.078	0.366
-439.778	-200.000	0.045	0.391
-438.763	-62.088	-0.158	0.066
-437.749	-200.000	0.029	-0.298
-436.734	718.656	-0.082	-0.220
-435.719	650.020	-0.058	0.148
-434.705	-60.235	-0.086	-0.037
-433.690	-200.000	0.019	-0.093
-432.676	793.321	-0.149	0.412
-431.661	514.187	-0.134	0.313
-430.646	356.161	-0.211	0.423
-429.632	-108.588	0.197	0.042
-428.617	-200.000	-0.047	0.356
-427.603	-42.559	-0.185	0.095
-426.588	12.974	0.136	-0.105
-425.573	-43.059	0.069	0.035
-424.559	95.001	-0.192	0.219
-423.544	-150.774	-0.116	0.009
-422.530	-34.524	0.314	-0.173
-421.515	-200.000	0.008	-0.037
-420.500	83.211	0.034	0.037
-419.486	800.000	-0.061	-0.190
-418.471	89.799	0.288	0.323
-417.457	55.422	-0.170	0.165
-416.442	-122.508	-0.197	0.032
-415.428	9.043	-0.100	-0.076
-414.413	-200.000	-0.030	-0.142
-413.398	-188.514	-0.267	0.003
-412.384	-165.199	-0.165	-0.007
-411.369	33.620	0.176	0.153
-410.355	482.128	-0.048	0.110
-409.340	800.000	-0.112	0.344
-408.325	47.168	-0.165	0.155
-407.311	-23.475	0.300	0.181
-406.296	-78.868	-0.180	0.061
-405.282	52.777	0.106	-0.101
-404.267	53.298	0.114	0.110
-403.252	233.638	0.210	0.348
-402.238	-35.426	0.321	-0.175
-401.223	-200.000	0.054	0.277
-400.209	-155.364	-0.313	-0.020
-399.194	59.155	0.094	-0.093
-398.179	-64.619	0.108	-0.044
-397.165	800.000	-0.051	0.162
-396.150	-117.766	0.244	0.044
-395.136	-200.000	-0.027	0.206
-394.121	-42.474	0.119	0.061
-393.106	150.093	0.130	-0.177
-392.092	-25.634	0.111	0.066
-391.077	293.509	-0.100	0.183
-390.063	-200.000	0.016	-0.165
-389.048	-112.532	0.259	0.052
-388.033	-200.000	0.001	-0.266
-387.019	-106.387	-0.237	0.053
-386.004	-101.567	-0.009	-0.002
-384.990	6.427	-0.189	0.141
-383.975	162.441	0.174	0.245
-382.960	12.926	0.174	0.135
-381.946	-80.061	0.266	-0.090
-380.931	-57.307	0.301	0.133
-379.917	-65.228	-0.263	-0.106
-378.902	-47.912	-0.176	-0.085
-377.888	-200.000	-0.021	-0.112
-376.873	-200.000	-0.017	0.312
-375.858	-200.000	0.000	0.153
-374.844	-110.960	0.223	-0.046
-373.829	103.376	-0.044	0.052
-372.815	-200.000	-0.018	-0.236
-371.800	-29.078	0.020	0.011
-370.785	359.100	0.133	0.265
-369.771	-66.248	0.246	0.098
-368.756	423.582	0.052	0.111
-367.742	10.110	-0.028	0.022
-366.727	162.912	-0.199	0.280
-365.712	48.796	-0.207	-0.195
-364.698	-200.000	0.032	-0.173
-363.683	-73.783	0.349	0.127
-362.669	-200.000	-0.001	0.089
-361.654	694.687	0.034	-0.090
-360.639	-40.485	0.272	0.142
-359.625	439.922	0.069	0.152
-358.610	75.312	0.224	-0.236
-357.596	-53.780	-0.303	0.138
-356.581	229.364	0.079	-0.129
-355.566	800.000	-0.093	-0.303
-354.552	16.628	0.106	-0.084
-353.537	285.633	-0.078	-0.141
-352.523	-16.221	-0.245	-0.156
-351.508	-87.966	-0.192	0.058
-350.493	138.903	-0.139	-0.183
-349.479	-33.835	-0.213	-0.118
-348.464	-22.842	0.158	0.095
-347.450	-200.000	-0.013	0.112
-346.435	-200.000	0.027	0.262
-345.420	714.552	-0.078	-0.208
-344.406	600.916	-0.211	-0.525
-343.391	-200.000	-0.007	-0.068
-342.377	-200.000	0.067	-0.419
-341.362	-200.000	0.013	-0.142
-340.348	-135.883	0.329	-0.039
-339.333	800.000	0.069	0.235
-338.318	59.151	-0.205	-0.201
-337.304	-174.306	-0.135	-0.004
-336.289	235.860	0.129	-0.213
-335.275	800.000	-0.027	0.075
-334.260	3.388	0.327	-0.238
-333.245	558.960	0.087	0.210
-332.231	69.272	0.183	-0.189
-331.216	800.000	0.045	-0.139
-330.202	-41.458	0.042	-0.022
-329.187	-200.000	0.054	-0.336
-328.172	-88.260	-0.115	-0.034
-327.158	17.391	-0.088	0.070
-326.143	-15.061	0.341	0.218
-325.129	-51.047	-0.036	0.017
-324.114	-129.710	0.134	0.018
-323.099	-175.443	0.238	0.006
-322.085	-129.031	-0.195	0.027
-321.070	-198.160	0.273	0.002
-320.056	-73.947	-0.188	0.068
-319.041	-200.000	0.012	0.196
-318.026	82.839	-0.081	-0.088
-317.012	-200.000	0.030	-0.148
-315.997	-200.000	0.012	-0.458
-314.983	799.882	-0.040	0.111
-313.968	156.390	0.185	-0.255
-312.953	800.000	-0.141	-0.465
-311.939	43.614	-0.275	0.252
-310.924	-56.141	-0.071	-0.032
-309.910	226.135	0.088	-0.143
-308.895	39.316	-0.188	-0.168
-307.880	-38.780	-0.205	-0.108
-306.866	288.419	-0.045	0.082
-305.851	-96.070	0.181	-0.048
-304.837	108.353	0.204	-0.244
-303.822	-200.000	-0.039	0.215
-302.807	800.000	-0.057	0.217
-301.793	50.833	0.183	-0.173
-300.778	-40.968	-0.248	0.128
-299.764	-200.000	0.052	0.360
-298.749	-200.000	-0.007	0.042
-297.735	-86.791	-0.092	0.028
-296.720	35.189	-0.066	-0.058
-295.705	-139.410	0.272	-0.029
-294.691	-11.853	0.144	-0.095
-293.676	800.000	-0.008	-0.030
-292.662	117.910	-0.167	-0.205
-291.647	800.000	-0.028	0.112
-290.632	-39.241	-0.233	-0.122
-289.618	80.865	0.109	0.118
-288.603	352.692	0.100	0.197
-287.589	122.479	-0.060	0.076
-286.574	7.976	-0.183	-0.137
-285.559	800.000	0.065	0.206
-284.545	-60.331	0.190	0.081
-283.530	-59.364	0.356	0.153
-282.516	264.898	-0.099	0.172
-281.501	68.939	0.110	-0.112
-280.486	-113.221	-0.048	0.009
-279.472	204.782	-0.171	0.264
-278.457	-55.133	0.158	-0.071
-277.443	-103.710	0.496	0.116
-276.428	-135.701	0.217	-0.026
-275.413	-160.962	-0.027	0.001
-274.399	437.136	0.035	-0.076
-273.384	664.082	0.072	0.185
-272.370	56.108	-0.225	-0.218
-271.355	800.000	-0.106	-0.387
-270.340	-200.000	0.004	-0.287
-269.326	800.000	0.125	-0.428
-268.311	178.769	0.157	-0.229
-267.297	13.139	0.232	0.180
-266.282	-133.402	-0.142	0.018
-265.267	242.172	0.201	-0.335
-264.253	-49.027	0.285	-0.136
-263.238	-159.074	0.149	0.008
-262.224	800.000	-0.060	-0.171
-261.209	28.554	-0.188	0.159
-260.195	800.000	-0.056	0.164
-259.180	572.624	-0.139	0.338
-258.165	165.363	-0.034	-0.048
-257.151	-155.110	0.304	-0.020
-256.136	-10.212	0.308	0.204
-255.122	16.490	0.158	0.125
-254.107	-200.000	-0.008	-0.132
-253.092	-200.000	-0.001	-0.400
-252.078	-13.064	0.192	0.124
-251.063	-200.000	-0.041	0.341
-250.049	49.243	0.143	-0.134
-249.034	-18.538	-0.195	-0.122
-248.019	-122.407	0.258	0.042
-247.005	794.545	-0.029	-0.081
-245.990	-141.201	0.209	0.021
-244.976	-121.081	-0.135	0.023
-243.961	268.984	0.164	0.287
-242.946	97.341	-0.183	0.210
-241.932	67.791	-0.100	-0.102
-240.917	8.282	0.104	0.078
-239.903	-100.995	0.339	-0.083
-238.888	-125.385	-0.287	0.044
-237.873	23.260	-0.111	0.091
-236.859	-200.000	0.037	-0.193
-235.844	75.848	0.178	0.188
-234.830	-200.000	-0.037	-0.168
-233.815	-37.963	0.220	0.116
-232.800	-76.310	0.230	0.081
-231.786	800.000	0.084	-0.293
-230.771	263.754	0.088	0.152
-229.757	-27.844	0.223	-0.129
-228.742	-200.000	-0.033	-0.183
-227.727	-200.000	-0.009	0.296
-226.713	-40.261	-0.318	-0.165
-225.698	63.506	0.121	-0.121
-224.684	495.083	-0.015	0.035
-223.669	-148.305	-0.162	-0.013
-222.655	800.000	-0.032	-0.110
-221.640	-179.252	-0.106	0.002
-220.625	-38.347	0.297	-0.157
-219.611	-200.000	-0.031	0.167
-218.596	-1.922	-0.055	-0.039
-217.582	546.437	-0.023	-0.055
-216.567	-149.222	-0.258	0.021
-215.552	-105.420	0.403	-0.091
-214.538	316.749	0.132	0.249
-213.523	177.207	0.145	-0.210
-212.509	113.668	-0.063	0.076
-211.494	114.280	0.082	-0.099
-210.479	206.310	-0.075	0.116
-209.465	-102.949	0.067	-0.016
-208.450	220.918	-0.083	0.132
-207.436	538.149	0.041	-0.096
-206.421	549.778	0.102	-0.242
-205.406	-200.000	-0.017	-0.167
-204.392	-159.561	-0.195	0.011
-203.377	-200.000	-0.101	0.567
-202.363	12.991	0.112	0.086
-201.348	-101.854	0.262	-0.063
-200.333	-118.317	-0.214	-0.038
-199.319	800.000	-0.045	0.173
-198.304	800.000	0.085	0.252
-197.290	800.000	0.086	0.367
-196.275	800.000	0.080	0.286
-195.260	-18.610	-0.110	0.068
-194.246	-180.759	-0.114	0.002
-193.231	165.497	-0.055	-0.078
-192.217	246.585	-0.100	0.168
-191.202	-83.179	0.383	0.123
-190.187	369.099	-0.112	0.226
-189.173	-200.000	0.001	0.017
-188.158	-103.252	-0.421	0.099
-187.144	-200.000	0.032	0.320
-186.129	164.392	-0.115	0.162
-185.114	62.359	0.113	-0.112
-184.100	-164.378	0.308	-0.014
-183.085	-52.825	0.123	-0.056
-182.071	94.819	0.244	0.276
-181.056	37.312	0.175	0.154
-180.042	800.000	0.034	-0.144
-179.027	800.000	0.123	0.402
-178.012	800.000	0.173	-0.526
-176.998	-200.000	0.036	0.159
-175.983	800.000	-0.095	0.341
-174.969	-200.000	-0.041	-0.232
-173.954	62.928	0.155	-0.154
-172.939	51.057	0.084	-0.079
-171.925	-93.683	-0.172	-0.047
-170.910	800.000	0.059	-0.165
-169.896	-57.142	-0.263	0.115
-168.881	-6.283	0.045	-0.030
-167.866	422.962	0.230	-0.491
-166.852	-150.025	0.357	-0.028
-165.837	2.310	0.214	0.154
-164.823	757.120	-0.137	0.368
-163.808	-108.648	0.255	-0.054
-162.793	15.890	0.052	0.041
-161.779	-17.596	0.090	0.056
-160.764	272.754	0.079	-0.139
-159.750	-102.859	-0.128	-0.030
-158.735	-190.441	0.079	0.001
-157.720	70.099	-0.099	-0.102
-156.706	-200.000	-0.014	0.118
-155.691	341.612	-0.080	-0.155
-154.677	-47.599	0.201	0.097
-153.662	16.833	-0.112	0.088
-152.647	734.029	0.111	-0.296
-151.633	-66.161	0.201	-0.080
-150.618	-200.000	-0.060	0.371
-149.604	800.000	0.041	-0.149
-148.589	-1.984	-0.256	0.178
-147.574	-24.316	0.274	-0.162
-146.560	139.466	-0.258	-0.337
-145.545	-10.291	-0.210	-0.138
-144.531	-200.000	-0.023	0.167
-143.516	232.326	0.211	-0.344
-142.502	800.000	0.085	0.353
-141.487	364.945	0.105	0.210
-140.472	-200.000	-0.029	0.156
-139.458	-72.967	-0.114	0.042
-138.443	-200.000	-0.024	0.289
-137.429	-200.000	-0.041	0.187
-136.414	-200.000	-0.052	0.287
-135.399	-123.179	0.099	-0.016
-134.385	-145.416	0.206	0.018
-133.370	-16.272	-0.126	0.080
-132.356	-149.632	-0.241	-0.019
-131.341	-15.489	-0.221	-0.140
-130.326	88.200	0.047	0.052
-129.312	-117.068	0.063	-0.011
-128.297	367.856	-0.085	0.170
-127.283	308.459	0.112	0.208
-126.268	-200.000	-0.029	0.176
-125.253	795.141	-0.072	-0.197
-124.239	70.963	0.195	-0.200
-123.224	-200.000	-0.032	-0.342
-122.210	140.450	0.229	-0.300
-121.195	-112.544	-0.262	0.052
-120.180	-200.000	-0.024	-0.211
-119.166	21.545	0.314	0.253
-118.151	-36.132	-0.169	-0.090
-117.137	-200.000	0.003	0.120
-116.122	273.348	-0.035	-0.062
-115.107	-200.000	-0.002	0.184
-114.093	-120.900	0.171	0.029
-113.078	235.626	-0.093	-0.152
-112.064	-24.795	0.182	0.107
-111.049	-70.332	0.273	0.103
-110.034	-200.000	-0.005	0.229
-109.020	-58.415	0.149	-0.064
-108.005	483.048	0.027	-0.061
-106.991	-101.497	-0.154	0.037
-105.976	800.000	-0.080	0.299
-104.962	20.559	-0.102	-0.082
-103.947	800.000	-0.080	-0.252
-102.932	59.313	0.159	0.155
-101.918	-148.345	-0.231	0.019
-100.903	-83.914	0.192	-0.061
-99.889	800.000	0.062	0.266
-98.874	217.622	0.171	-0.271
-97.859	-88.101	0.266	-0.079
-96.845	349.058	-0.147	0.287
-95.830	5.550	-0.205	0.150
-94.816	-200.000	-0.005	-0.100
-93.801	62.113	0.164	0.162
-92.786	800.000	-0.087	0.243
-91.772	11.675	-0.176	0.134
-90.757	-200.000	0.016	-0.202
-89.743	-21.088	0.133	0.080
-88.728	-102.914	0.111	-0.026
-87.713	-28.806	0.203	-0.116
-86.699	234.829	-0.036	0.059
-85.684	-200.000	-0.016	0.189
-84.670	12.841	0.190	0.146
-83.655	273.021	0.131	0.229
-82.640	-200.000	-0.007	-0.216
-81.626	-84.422	0.089	0.028
-80.611	-5.464	-0.122	-0.083
-79.597	-52.212	-0.129	-0.059
-78.582	-200.000	-0.030	-0.242
-77.567	144.702	0.100	0.132
-76.553	180.656	-0.100	0.146
-75.538	42.944	0.059	-0.053
-74.524	-187.648	-0.119	0.002
-73.509	-95.113	0.087	0.023
-72.494	-75.107	-0.385	0.137
-71.480	-91.027	0.255	0.072
-70.465	-49.135	-0.094	-0.044
-69.451	-118.971	0.161	0.028
-68.436	-132.088	-0.178	-0.023
-67.422	-48.769	-0.278	0.132
-66.407	-94.904	0.140	-0.038
-65.392	-29.260	-0.433	-0.245
-64.378	-200.000	-0.025	-0.258
-63.363	-9.927	0.101	0.066
-62.349	146.942	0.151	0.201
-61.334	148.238	-0.686	-0.916
-60.319	-2.451	0.467	0.324
-59.305	800.000	-0.251	-0.904
-58.290	194.262	0.656	0.984
-57.276	304.854	0.856	1.574
-56.261	-200.000	98.107	581.698
-55.246	639.839	1397.978	3519.894
-54.232	185.826	2609.463	3837.705
-53.217	122.934	2181.740	2702.415
-52.203	46.686	1632.381	1499.832
-51.188	38.308	1367.115	1204.719
-50.173	35.082	1324.021	1147.405
-49.159	56.944	1373.787	1324.430
-48.144	61.334	1391.678	1368.355
-47.130	38.663	1345.436	1187.575
-46.115	34.934	1327.970	1149.752
-45.100	34.808	1323.250	1144.864
-44.086	34.689	1320.837	1142.020
-43.071	34.629	1318.372	1139.489
-42.057	34.752	1316.085	1138.196
-41.042	34.715	1314.151	1136.259
-40.027	34.639	1312.992	1134.761
-39.013	34.744	1311.098	1133.699
-37.998	34.758	1309.085	1132.000
-36.984	34.805	1307.600	1130.948
-35.969	34.785	1305.829	1129.254
-34.954	34.791	1303.717	1127.416
-33.940	34.881	1302.626	1126.957
-32.925	34.868	1301.649	1125.997
-31.911	34.936	1300.216	1125.112
-30.896	34.895	1298.876	1123.662
-29.881	34.840	1297.224	1121.870
-28.867	35.011	1295.665	1121.475
-27.852	34.997	1293.976	1119.890
-26.838	34.942	1293.097	1118.764
-25.823	34.902	1291.844	1117.401
-24.809	35.006	1289.929	1116.307
-23.794	34.877	1288.855	1114.578
-22.779	34.899	1287.544	1113.530
-21.765	34.861	1286.340	1112.227
-20.750	34.918	1284.584	1110.993
-19.736	34.730	1283.800	1109.180
-18.721	34.888	1282.199	1108.667
-17.706	34.813	1281.157	1107.291
-16.692	34.789	1280.167	1106.252
-15.677	34.763	1278.832	1104.899
-14.663	34.734	1277.559	1103.591
-13.648	34.731	1276.804	1102.879
-12.633	34.659	1275.916	1101.649
-11.619	34.734	1275.024	1101.270
-10.604	34.817	1273.776	1100.628
-9.590	34.793	1272.958	1099.738
-8.575	34.611	1272.531	1098.279
-7.560	34.674	1271.505	1097.713
-6.546	34.704	1270.244	1096.751
-5.531	34.691	1269.469	1095.962
-4.517	34.773	1268.825	1095.832
-3.502	34.646	1268.564	1094.838
-2.487	34.784	1266.783	1094.048
-1.473	34.716	1262.698	1090.087
-0.458	33.038	1246.838	1066.889
0.556	30.798	1226.820	1022.442
1.571	26.153	1230.155	999.480
2.586	24.629	1244.232	1002.287
3.600	23.246	1232.542	985.095
4.615	17.552	1160.221	897.299
5.629	9.060	1084.638	796.773
6.644	5.091	1064.246	762.362
7.659	4.820	1061.331	758.887
8.673	4.489	1059.739	756.069
9.688	4.582	1058.354	755.465
10.702	5.068	1057.843	757.394
11.717	10.815	1065.494	790.842
12.731	18.945	1076.711	838.927
13.746	22.200	1080.045	857.352
14.761	21.752	1079.123	854.359
15.775	20.942	1077.175	848.798
16.790	19.866	1075.320	842.028
17.804	19.140	1073.669	837.132
18.819	18.843	1072.622	834.798
19.834	18.597	1072.148	833.160
20.848	18.619	1071.345	832.574
21.863	18.412	1070.693	830.986
22.877	18.290	1069.894	829.703
23.892	18.310	1068.847	828.916
24.907	18.186	1068.248	827.777
25.921	18.289	1066.957	827.199
26.936	18.158	1065.805	825.603
27.950	18.206	1064.539	824.782
28.965	18.336	1063.286	824.361
29.980	18.555	1061.271	823.780
30.994	18.478	1060.911	823.059
32.009	18.392	1060.008	821.871
33.023	18.541	1058.523	821.362
34.038	18.476	1057.448	820.143
35.053	18.408	1056.416	818.943
36.067	18.284	1055.779	817.784
37.082	18.399	1054.902	817.581
38.096	18.510	1054.101	817.420
39.111	18.531	1053.340	816.855
40.126	18.383	1051.699	814.806
41.140	18.036	1050.885	812.458
42.155	18.014	1049.283	811.040
43.169	17.844	1048.655	809.675
44.184	17.967	1047.324	809.160
45.199	17.889	1046.421	808.020
46.213	18.143	1045.033	808.080
47.228	18.205	1044.806	808.127
48.242	18.334	1043.676	807.788
49.257	18.264	1042.698	806.632
50.271	18.404	1041.696	806.444
51.286	18.458	1040.908	806.016
52.301	18.430	1039.648	804.838
53.315	18.188	1039.326	803.379
54.330	18.145	1038.024	802.100
55.344	18.167	1036.854	801.228
56.359	18.026	1036.413	800.156
57.374	18.064	1035.366	799.455
58.388	17.934	1034.068	797.776
59.403	17.877	1033.408	796.930
60.417	17.904	1032.693	796.432
61.432	17.840	1032.057	795.573
62.447	17.881	1030.870	794.781
63.461	17.713	1030.566	793.693
64.476	17.719	1029.210	792.604
65.490	17.788	1028.076	791.981
66.505	17.861	1027.474	791.786
67.520	17.722	1027.456	791.059
68.534	17.817	1026.465	790.666
69.549	17.632	1026.454	789.730
70.563	17.659	1024.903	788.595
71.578	17.780	1023.792	788.225
72.593	17.535	1023.217	786.585
73.607	17.589	1022.219	785.996
74.622	17.478	1021.947	785.207
75.636	17.546	1021.290	784.945
76.651	17.670	1020.455	784.802
77.666	17.762	1019.315	784.283
78.680	17.733	1018.955	783.802
79.695	17.823	1018.332	783.665
80.709	17.955	1017.779	783.778
81.724	17.948	1017.292	783.302
82.739	18.127	1016.836	783.701
83.753	18.275	1015.830	783.535
84.768	18.547	1015.280	784.282
85.782	18.650	1014.628	784.183
86.797	18.566	1013.753	783.052
87.812	18.316	1012.660	780.999
88.826	18.420	1011.593	780.581
89.841	18.459	1010.929	780.175
90.855	18.499	1010.394	779.878
91.870	18.654	1009.003	779.438
92.884	18.529	1008.468	778.390
93.899	18.478	1008.038	777.759
94.914	18.650	1006.974	777.646
95.928	18.502	1006.308	776.395
96.943	18.523	1005.038	775.440
97.957	18.420	1004.135	774.210
98.972	18.531	1002.935	773.718
99.987	18.578	1002.067	773.189
101.001	18.611	1000.897	772.367
102.016	18.448	1000.602	771.336
103.030	18.567	999.689	771.100
104.045	18.490	999.035	770.180
105.060	18.325	998.552	769.001
106.074	18.031	997.211	766.581
107.089	17.959	996.068	765.312
108.103	17.884	995.113	764.174
109.118	17.786	994.227	762.989
110.133	17.719	993.625	762.159
111.147	17.876	992.303	761.776
112.162	17.780	992.110	761.133
113.176	17.938	991.191	761.066
114.191	18.079	990.249	760.905
115.206	18.005	989.513	759.941
116.220	18.004	988.404	759.017
117.235	17.967	987.318	757.950
118.249	18.040	986.329	757.449
119.264	17.832	985.739	756.008
120.279	17.857	985.108	755.566
121.293	17.767	984.222	754.423
122.308	17.612	983.371	753.019
123.322	17.650	982.105	752.153
124.337	17.589	980.904	750.897
125.352	17.699	980.039	750.652
126.366	17.678	979.267	749.901
127.381	17.642	978.339	748.968
128.395	17.740	977.168	748.434
129.410	17.847	976.297	748.168
130.424	17.923	975.410	747.757
131.439	18.033	974.728	747.648
132.454	18.043	974.626	747.551
133.468	18.013	973.777	746.699
134.483	18.092	972.421	745.937
135.497	17.967	971.996	745.004
136.512	18.045	971.090	744.580
137.527	18.128	970.013	744.052
138.541	18.177	969.302	743.654
139.556	18.191	968.781	743.247
140.570	18.399	968.323	743.735
141.585	18.481	967.531	743.414
142.600	18.498	966.492	742.627
143.614	18.699	965.302	742.514
144.629	18.576	965.288	741.908
145.643	18.567	964.223	740.984
146.658	18.330	963.194	739.104
147.673	18.065	962.214	737.143
148.687	18.141	961.363	736.755
149.702	18.062	960.343	735.568
150.716	18.068	959.597	734.958
151.731	18.220	958.506	734.709
152.746	18.228	957.929	734.235
153.760	18.142	957.729	733.647
154.775	18.323	956.591	733.485
155.789	18.396	955.956	733.249
156.804	18.372	955.377	732.635
157.819	18.488	954.528	732.416
158.833	18.597	954.359	732.686
159.848	18.642	953.762	732.356
160.862	18.647	952.312	731.199
161.877	18.302	951.095	728.731
162.892	18.065	950.396	727.122
163.906	18.109	949.219	726.346
164.921	18.126	948.118	725.513
165.935	18.313	947.322	725.630
166.950	18.275	946.559	724.821
167.964	18.360	945.555	724.347
168.979	18.310	944.710	723.425
169.994	18.132	944.102	722.144
171.008	18.370	943.405	722.549
172.023	18.566	942.785	722.838
173.037	18.575	942.560	722.639
174.052	18.490	941.412	721.336
175.067	18.210	940.732	719.575
176.081	18.178	939.587	718.501
177.096	18.134	939.297	718.031
178.110	18.175	939.018	717.928
179.125	18.228	938.236	717.489
180.140	18.162	937.919	716.907
181.154	18.405	937.237	717.338
182.169	18.559	937.112	717.825
183.183	18.608	936.467	717.474
184.198	18.529	935.644	716.447
185.213	18.608	934.917	716.156
186.227	18.663	934.687	716.148
187.242	18.759	934.025	715.976
188.256	18.927	933.126	715.926
189.271	18.964	932.360	715.428
190.286	18.720	930.837	713.181
191.300	18.119	930.463	710.335
192.315	17.974	929.845	709.198
193.329	18.298	928.755	709.646
194.344	18.245	928.881	709.461
195.359	18.426	928.201	709.631
196.373	18.518	927.805	709.643
197.388	18.848	927.270	710.536
198.402	18.766	927.138	710.033
199.417	18.860	926.832	710.128
200.432	19.032	925.895	710.054
201.446	19.013	925.743	709.799
202.461	19.229	925.273	710.266
203.475	19.105	924.487	709.087
204.490	18.743	923.649	706.891
205.504	18.687	922.695	705.869
206.519	18.727	921.863	705.333
207.534	18.625	921.371	704.478
208.548	18.778	920.567	704.426
209.563	18.708	919.379	703.168
210.577	18.892	919.095	703.642
211.592	18.917	919.081	703.672
212.607	19.130	917.835	703.527
213.621	19.157	916.925	702.879
214.636	19.017	916.550	701.955
215.650	19.006	915.998	701.426
216.665	19.083	915.300	701.143
217.680	19.145	914.732	700.901
218.694	19.272	914.059	700.837
219.709	19.203	913.353	699.956
220.723	19.165	912.248	698.891
221.738	19.031	911.874	697.998
222.753	19.057	911.409	697.689
223.767	19.107	911.206	697.672
224.782	19.258	910.837	697.940
225.796	19.280	910.256	697.524
226.811	19.226	908.865	696.179
227.826	19.004	908.673	695.069
228.840	19.071	907.339	694.258
229.855	19.161	906.346	693.802
230.869	19.095	905.956	693.176
231.884	19.004	905.365	692.295
232.899	18.953	904.046	691.021
233.913	18.961	903.714	690.739
234.928	18.900	903.011	689.892
235.942	18.782	902.766	689.173
236.957	18.871	901.968	688.857
237.972	18.867	901.259	688.242
238.986	18.901	900.802	687.966
240.001	18.923	899.994	687.376
241.015	18.999	899.697	687.392
242.030	18.968	899.513	687.070
243.045	19.176	898.660	687.184
244.059	19.114	897.995	686.370
245.074	19.223	897.024	685.999
246.088	19.228	896.751	685.750
247.103	19.370	895.964	685.651
248.117	19.517	895.776	686.034
249.132	19.777	895.184	686.551
250.147	19.921	894.946	686.877
251.161	19.910	894.194	686.199
252.176	20.042	893.607	686.208
253.190	20.076	893.000	685.817
254.205	19.992	892.384	684.951
255.220	19.905	891.873	684.153
256.234	20.028	890.894	683.830
257.249	19.944	890.689	683.279
258.263	19.947	889.283	682.152
259.278	20.000	888.747	681.887
260.293	20.116	888.414	682.028
261.307	20.037	887.609	681.041
262.322	20.132	887.301	681.118
263.336	20.304	886.050	680.771
264.351	20.154	885.704	679.859
265.366	20.129	884.900	679.082
266.380	20.316	883.988	679.052
267.395	20.044	883.797	677.783
268.409	20.008	882.790	676.809
269.424	19.984	882.384	676.343
270.439	19.884	881.754	675.413
271.453	19.927	881.015	674.954
272.468	19.865	880.348	674.141
273.482	19.789	879.791	673.359
274.497	19.904	879.493	673.521
275.512	19.906	878.613	672.794
276.526	19.937	878.209	672.545
277.541	19.904	878.294	672.422
278.555	20.142	877.359	672.572
279.570	20.310	876.738	672.688
280.585	20.244	876.037	671.834
281.599	20.070	874.748	670.113
282.614	19.914	874.543	669.292
283.628	19.899	874.051	668.798
284.643	20.003	873.452	668.685
285.657	20.005	872.377	667.809
286.672	19.937	871.825	667.064
287.687	20.091	871.159	667.088
288.701	20.176	870.474	666.833
289.716	19.976	870.085	665.709
290.730	20.125	869.259	665.589
291.745	20.211	869.063	665.711
292.760	20.239	868.279	665.157
293.774	20.292	868.050	665.127
294.789	20.471	866.680	664.702
295.803	20.325	866.088	663.632
296.818	20.054	865.912	662.401
297.833	20.061	864.948	661.633
298.847	20.149	864.721	661.738
299.862	20.160	864.144	661.279
300.876	20.191	863.864	661.124
301.891	20.457	862.925	661.361
302.906	20.441	862.433	660.862
303.920	20.658	862.273	661.507
304.935	20.699	861.583	661.077
305.949	20.542	860.831	659.844
306.964	20.469	859.828	658.741
307.979	20.414	860.032	658.630
308.993	20.552	858.953	658.269
310.008	20.677	858.359	658.228
311.022	20.465	857.862	656.985
312.037	20.325	857.410	656.054
313.052	20.316	856.546	655.298
314.066	20.207	855.592	654.099
315.081	20.162	855.556	653.844
316.095	20.197	854.732	653.288
317.110	20.270	853.910	652.879
318.125	20.211	853.699	652.436
319.139	20.099	853.453	651.771
320.154	20.370	852.563	652.052
321.168	20.199	852.462	651.272
322.183	20.357	851.665	651.200
323.197	20.476	851.160	651.201
324.212	20.484	850.555	650.712
325.227	20.450	849.751	649.912
326.241	20.376	849.341	649.263
327.256	20.385	848.739	648.779
328.270	20.433	848.140	648.442
329.285	20.363	847.449	647.597
330.300	20.417	846.762	647.215
331.314	20.455	846.597	647.175
332.329	20.504	846.462	647.197
333.343	20.636	846.152	647.394
334.358	20.643	845.408	646.792
335.373	20.603	845.474	646.638
336.387	20.663	844.827	646.308
337.402	20.604	844.702	645.937
338.416	20.859	844.558	646.715
339.431	21.076	843.861	646.929
340.446	21.109	843.649	646.833
341.460	20.962	843.481	646.102
342.475	21.172	842.747	646.261
343.489	20.978	842.826	645.545
344.504	21.247	841.806	645.699
345.519	21.181	841.294	645.006
346.533	21.173	841.195	644.843
347.548	20.880	840.254	642.984
348.562	20.971	839.250	642.496
349.577	20.806	838.689	641.400
350.592	20.737	838.013	640.573
351.606	20.644	837.380	639.690
352.621	20.810	836.931	639.900
353.635	20.770	836.267	639.192
354.650	20.774	835.479	638.545
355.665	20.818	835.185	638.425
356.679	20.948	834.609	638.406
357.694	21.031	833.751	637.997
358.708	21.032	833.042	637.403
359.723	20.994	832.829	637.042
360.738	20.941	832.265	636.363
361.752	20.932	831.976	636.050
362.767	21.157	830.799	635.916
363.781	21.310	830.529	636.208
364.796	21.374	830.523	636.382
365.810	21.516	829.926	636.383
366.825	21.498	829.127	635.650
367.840	21.588	829.057	635.868
368.854	21.444	828.355	634.750
369.869	21.317	828.095	634.032
370.883	21.421	827.646	634.012
371.898	21.469	827.298	633.861
372.913	21.577	826.771	633.794
373.927	21.452	826.281	632.908
374.942	21.399	825.762	632.263
375.956	21.609	825.321	632.629
376.971	21.767	824.734	632.693
377.986	21.804	824.400	632.514
379.000	21.698	823.816	631.628
380.015	21.685	823.408	631.213
381.029	21.712	822.932	630.889
382.044	21.832	822.398	630.855
383.059	21.782	821.636	630.037
384.073	21.554	821.193	628.823
385.088	21.430	820.343	627.669
386.102	21.443	819.766	627.220
387.117	21.516	818.955	626.804
388.132	21.517	818.384	626.316
389.146	21.380	818.106	625.558
390.161	21.544	817.738	625.808
391.175	21.624	817.603	625.934
392.190	21.564	816.863	625.098
393.205	21.510	816.003	624.193
394.219	21.406	815.928	623.711
395.234	21.323	815.826	623.281
396.248	21.319	814.802	622.428
397.263	21.384	814.080	622.055
398.278	21.274	813.964	621.519
399.292	21.320	813.494	621.267
400.307	21.235	812.961	620.505
401.321	21.302	812.504	620.339
402.336	21.464	812.327	620.723
403.350	21.504	812.050	620.598
404.365	21.712	811.429	620.805
405.380	21.760	811.225	620.765
406.394	21.786	810.498	620.246
407.409	21.998	810.146	620.669
408.423	21.859	810.190	620.156
409.438	22.029	809.701	620.330
410.453	22.188	808.816	620.156
411.467	22.125	808.979	620.004
412.482	22.198	808.276	619.670
413.496	22.308	807.834	619.663
414.511	22.230	807.538	619.107
415.526	22.187	807.019	618.502
416.540	22.150	806.322	617.783
417.555	22.122	806.114	617.469
418.569	22.142	805.648	617.130
419.584	22.148	805.131	616.698
420.599	22.089	805.021	616.355
421.613	159.787	1370.038	1790.096
422.628	138.864	1452.352	1790.192
