DTS Sentinel unit serial number:	SN413079Multiplexer serial number:	ORYXHardware model number:	OX4-SRSoftware version number:	ORYX F/W v4.00 Oryx Data Collector v3.7.2.0data status	okinstallation	princeton_trtdifferential loss correction	single-endedforward channel	channel 1reverse channel	N/Adate	2019/09/13time	03:42:35forward acquisition time	60.00reverse acquisition time	0.00gamma	496.2192k internal	0.2332k external	0.2332temperature offset calibration	1.0160default loss term (dB/km)	0.3790temperature slope calibration	1.0000multiplexer offset coefficient	1.0000multiplexer slope coefficient	1.0000fibre end	0.00T internal ref (°C)	27.20T ext. ref 1 (°C)	4.08T ext. ref 2 (°C)	21.54length (m)	temperature (°C)	Stokes	anti-Stokes-747.200	-52.565	-0.207	-0.096
-746.185	152.575	-0.141	-0.194
-745.171	800.000	-0.023	0.067
-744.156	800.000	0.106	0.318
-743.142	493.282	-0.138	0.318
-742.127	-200.000	-0.006	0.181
-741.112	-200.000	0.016	0.104
-740.098	-200.000	-0.019	0.406
-739.083	-95.404	0.156	0.042
-738.069	-35.658	0.397	0.216
-737.054	-54.691	0.161	-0.073
-736.039	-200.000	0.008	0.087
-735.025	319.039	0.228	0.434
-734.010	-10.299	0.178	-0.119
-732.996	-200.000	-0.319	-0.000
-731.981	219.597	0.050	-0.080
-730.966	329.599	-0.200	-0.387
-729.952	800.000	-0.058	-0.247
-728.937	247.920	-0.147	-0.249
-727.923	110.586	0.123	0.149
-726.908	-200.000	-0.006	-0.127
-725.894	-200.000	0.013	0.291
-724.879	4.972	0.039	0.029
-723.864	107.192	-0.124	-0.148
-722.850	-5.877	-0.167	-0.115
-721.835	44.236	0.148	0.136
-720.821	18.167	-0.020	-0.016
-719.806	-130.203	-0.395	0.054
-718.791	-200.000	-0.022	-0.203
-717.777	-178.896	-0.307	0.007
-716.762	-109.154	-0.396	0.085
-715.748	196.246	-0.115	0.176
-714.733	129.691	0.049	-0.064
-713.718	-200.000	-0.022	-0.256
-712.704	-200.000	0.023	0.332
-711.689	-111.094	0.212	-0.044
-710.675	-16.049	-0.145	-0.093
-709.660	31.313	-0.176	0.152
-708.645	53.133	-0.166	-0.159
-707.631	320.953	0.067	-0.128
-706.616	41.625	0.218	-0.198
-705.602	800.000	-0.024	-0.083
-704.587	800.000	0.060	-0.169
-703.572	45.961	0.062	0.057
-702.558	406.177	0.046	0.098
-701.543	27.762	-0.081	0.069
-700.529	68.921	-0.081	0.083
-699.514	188.890	0.149	0.225
-698.499	-74.581	0.249	-0.090
-697.485	282.869	0.057	0.103
-696.470	-200.000	-0.048	0.275
-695.456	-53.392	-0.469	0.216
-694.441	150.967	0.100	0.137
-693.426	-147.331	0.157	-0.013
-692.412	-5.278	0.250	-0.173
-691.397	-200.000	0.057	-0.378
-690.383	-200.000	-0.081	-0.416
-689.368	66.851	-0.257	-0.262
-688.354	-200.000	0.031	0.173
-687.339	800.000	0.107	0.325
-686.324	-22.359	0.222	-0.135
-685.310	-200.000	-0.047	-0.287
-684.295	-86.472	-0.244	-0.075
-683.281	97.108	0.127	-0.146
-682.266	800.000	-0.059	-0.233
-681.251	-11.634	-0.031	-0.021
-680.237	-95.946	0.150	-0.040
-679.222	283.482	0.103	-0.185
-678.208	-149.562	-0.231	0.018
-677.193	-200.000	-0.035	-0.168
-676.178	186.446	-0.147	0.219
-675.164	18.043	0.276	0.220
-674.149	-200.000	0.050	0.246
-673.135	137.804	0.089	0.117
-672.120	-143.800	0.141	0.013
-671.105	250.813	0.064	-0.109
-670.091	382.683	-0.106	-0.218
-669.076	129.987	-0.187	0.240
-668.062	88.639	-0.249	0.278
-667.047	-76.716	-0.188	-0.066
-666.032	468.660	0.078	0.176
-665.018	-200.000	0.018	0.143
-664.003	34.089	-0.060	0.052
-662.989	44.714	0.233	-0.215
-661.974	-186.539	-0.216	-0.003
-660.959	191.029	-0.085	-0.128
-659.945	-85.057	-0.086	0.027
-658.930	800.000	0.092	-0.300
-657.916	4.461	-0.085	-0.062
-656.901	107.693	0.303	-0.362
-655.886	18.677	-0.175	-0.140
-654.872	-18.321	-0.193	-0.121
-653.857	-200.000	-0.030	-0.225
-652.843	-12.128	0.254	-0.167
-651.828	-32.431	-0.260	0.145
-650.814	-200.000	-0.002	-0.212
-649.799	-200.000	0.035	0.156
-648.784	-126.057	-0.564	0.085
-647.770	43.915	0.200	-0.184
-646.755	68.216	-0.210	-0.215
-645.741	41.336	0.180	0.164
-644.726	-53.631	-0.228	-0.104
-643.711	-97.108	-0.108	0.028
-642.697	277.579	-0.093	0.165
-641.682	-137.102	-0.047	0.005
-640.668	66.787	-0.079	0.080
-639.653	8.367	-0.074	-0.056
-638.638	-200.000	-0.024	0.276
-637.624	151.883	0.122	-0.167
-636.609	-89.315	-0.294	-0.087
-635.595	-200.000	-0.060	-0.406
-634.580	-200.000	0.010	-0.091
-633.565	-200.000	-0.015	-0.227
-632.551	21.278	0.239	0.195
-631.536	414.222	-0.081	0.173
-630.522	-200.000	-0.003	0.338
-629.507	-49.167	-0.311	0.149
-628.492	-109.696	-0.233	-0.049
-627.478	203.332	-0.165	0.255
-626.463	0.259	-0.256	0.183
-625.449	-115.765	0.262	0.049
-624.434	7.835	-0.354	-0.266
-623.419	800.000	-0.045	0.141
-622.405	-142.415	-0.517	0.051
-621.390	-138.307	-0.170	-0.019
-620.376	-21.055	0.084	-0.051
-619.361	29.360	0.245	-0.208
-618.346	-14.368	-0.133	0.086
-617.332	112.165	-0.070	0.085
-616.317	-200.000	0.000	0.080
-615.303	251.147	0.107	0.182
-614.288	18.227	-0.079	-0.063
-613.273	232.825	-0.026	0.043
-612.259	-36.966	0.358	-0.192
-611.244	49.024	-0.215	0.202
-610.230	-200.000	-0.033	-0.309
-609.215	-23.814	0.106	0.063
-608.201	800.000	-0.115	-0.398
-607.186	207.230	0.062	-0.097
-606.171	87.588	-0.349	0.386
-605.157	-53.473	0.052	0.024
-604.142	-200.000	-0.005	0.146
-603.128	113.988	0.136	-0.166
-602.113	-200.000	0.001	-0.171
-601.098	44.829	0.271	0.249
-600.084	-200.000	-0.020	-0.240
-599.069	-80.402	0.166	-0.055
-598.055	20.086	0.059	0.048
-597.040	613.793	0.116	-0.292
-596.025	-200.000	-0.017	-0.322
-595.011	-200.000	-0.041	-0.192
-593.996	286.243	-0.126	0.227
-592.982	-200.000	-0.005	-0.207
-591.967	-126.986	-0.151	-0.022
-590.952	679.729	0.124	-0.324
-589.938	80.586	-0.225	0.243
-588.923	-200.000	0.026	0.125
-587.909	-144.363	0.211	0.020
-586.894	28.932	0.242	0.205
-585.879	-162.648	-0.384	0.019
-584.865	-74.277	0.229	0.083
-583.850	-200.000	-0.058	0.262
-582.836	-61.714	0.178	0.075
-581.821	748.451	-0.060	0.162
-580.806	800.000	-0.015	0.042
-579.792	146.903	0.169	-0.228
-578.777	-200.000	0.042	-0.198
-577.763	-89.309	-0.514	-0.151
-576.748	-66.171	0.186	0.074
-575.733	13.963	0.213	0.166
-574.719	-79.620	0.093	-0.031
-573.704	-152.947	0.246	-0.017
-572.690	800.000	-0.053	-0.199
-571.675	13.570	0.172	-0.133
-570.661	775.916	-0.103	0.280
-569.646	102.372	0.064	-0.075
-568.631	-70.630	-0.208	-0.078
-567.617	576.329	-0.116	-0.284
-566.602	29.831	-0.069	0.058
-565.588	-33.270	0.250	-0.139
-564.573	800.000	-0.095	-0.269
-563.558	-200.000	-0.010	-0.240
-562.544	-87.427	-0.270	-0.082
-561.529	-200.000	0.006	-0.140
-560.515	-14.429	0.222	0.142
-559.500	498.760	-0.180	-0.414
-558.485	-9.013	0.072	0.048
-557.471	-200.000	-0.006	0.217
-556.456	73.468	0.057	0.059
-555.442	800.000	-0.064	0.214
-554.427	-200.000	-0.005	0.220
-553.412	-44.578	-0.113	0.057
-552.398	131.947	-0.185	-0.238
-551.383	-73.718	0.066	-0.024
-550.369	-84.403	-0.173	-0.055
-549.354	520.380	0.109	-0.255
-548.339	-200.000	0.061	-0.497
-547.325	95.579	0.136	0.154
-546.310	-42.977	0.109	0.055
-545.296	800.000	0.060	-0.173
-544.281	574.300	0.118	-0.286
-543.266	800.000	0.017	-0.065
-542.252	259.399	0.140	-0.242
-541.237	-138.798	-0.330	0.036
-540.223	63.731	-0.211	-0.211
-539.208	22.899	-0.101	-0.083
-538.193	-83.765	-0.013	-0.004
-537.179	-197.388	0.306	-0.002
-536.164	-45.208	0.360	0.179
-535.150	735.183	0.133	0.356
-534.135	-139.105	-0.147	-0.016
-533.121	800.000	0.108	-0.434
-532.106	-104.005	0.300	0.070
-531.091	-115.581	0.202	-0.038
-530.077	-200.000	0.013	-0.086
-529.062	161.437	0.168	0.234
-528.048	218.592	-0.157	0.251
-527.033	492.747	-0.007	0.017
-526.018	-84.016	-0.177	0.056
-525.004	-200.000	-0.012	-0.184
-523.989	800.000	0.057	0.163
-522.975	94.334	0.224	-0.254
-521.960	-200.000	-0.016	-0.242
-520.945	511.491	0.092	0.215
-519.931	37.438	-0.178	-0.157
-518.916	-200.000	0.039	-0.298
-517.902	-22.020	-0.300	0.182
-516.887	-75.056	0.296	0.106
-515.872	765.596	0.045	-0.121
-514.858	-200.000	0.006	-0.523
-513.843	126.917	-0.128	0.162
-512.829	16.854	-0.110	0.087
-511.814	-84.848	-0.241	-0.076
-510.799	-138.935	-0.140	-0.015
-509.785	-168.990	-0.204	0.008
-508.770	36.694	0.295	0.260
-507.756	-113.263	0.116	-0.023
-506.741	-200.000	-0.003	-0.348
-505.726	54.592	0.103	-0.099
-504.712	-132.574	-0.331	-0.042
-503.697	-72.228	0.334	-0.124
-502.683	800.000	-0.024	-0.084
-501.668	-200.000	-0.028	0.142
-500.653	800.000	-0.023	0.064
-499.639	1.836	-0.074	-0.053
-498.624	800.000	0.054	0.195
-497.610	182.763	-0.067	0.098
-496.595	-200.000	-0.043	0.212
-495.581	-30.546	0.189	0.107
-494.566	-200.000	0.015	0.141
-493.551	-166.772	0.268	0.011
-492.537	-102.627	-0.247	0.059
-491.522	314.378	-0.103	-0.194
-490.508	90.579	-0.224	0.250
-489.493	2.684	-0.141	0.101
-488.478	-138.582	0.193	-0.021
-487.464	-129.225	0.201	0.028
-486.449	201.135	-0.068	-0.104
-485.435	498.487	0.080	-0.183
-484.420	-126.157	0.537	0.080
-483.405	-76.179	0.256	-0.090
-482.391	48.870	-0.224	-0.209
-481.376	-200.000	-0.015	0.317
-480.362	74.281	0.061	0.063
-479.347	800.000	0.107	0.357
-478.332	800.000	0.104	0.357
-477.318	206.917	0.041	0.064
-476.303	537.129	0.119	0.283
-475.289	161.550	-0.162	-0.225
-474.274	-200.000	-0.080	-0.407
-473.259	-97.413	-0.398	0.103
-472.245	96.537	0.071	-0.081
-471.230	-100.144	0.165	-0.041
-470.216	185.857	-0.125	0.185
-469.201	174.324	0.172	-0.247
-468.186	800.000	-0.063	0.223
-467.172	-113.448	0.153	0.030
-466.157	-112.818	0.230	0.045
-465.143	329.800	0.096	-0.184
-464.128	-157.980	0.086	-0.005
-463.113	-200.000	0.043	0.260
-462.099	-120.258	-0.514	0.087
-461.084	-200.000	0.024	-0.286
-460.070	248.270	0.061	0.102
-459.055	-200.000	0.019	0.109
-458.040	4.015	0.094	0.068
-457.026	-41.242	-0.333	-0.171
-456.011	323.176	-0.084	-0.159
-454.997	137.583	0.207	0.269
-453.982	-200.000	0.026	0.251
-452.968	-69.606	0.442	0.168
-451.953	-200.000	-0.003	-0.496
-450.938	231.155	-0.087	-0.143
-449.924	53.583	0.089	0.085
-448.909	333.904	0.103	0.198
-447.895	481.334	0.154	-0.348
-446.880	-153.536	0.141	0.010
-445.865	64.786	-0.151	0.152
-444.851	61.739	-0.027	0.027
-443.836	209.650	0.077	0.120
-442.822	98.793	-0.166	-0.190
-441.807	40.686	-0.392	0.351
-440.792	-21.788	-0.172	0.104
-439.778	188.464	0.217	-0.322
-438.763	-91.833	-0.308	0.087
-437.749	-11.848	0.008	0.005
-436.734	-200.000	0.008	0.046
-435.719	63.899	0.099	-0.099
-434.705	-92.456	-0.123	0.035
-433.690	-113.634	-0.100	0.019
-432.676	297.206	-0.122	-0.223
-431.661	800.000	-0.159	-0.518
-430.646	233.984	0.127	0.209
-429.632	-110.444	-0.084	-0.017
-428.617	542.219	-0.079	0.187
-427.603	74.800	-0.178	-0.187
-426.588	-151.681	-0.070	0.005
-425.573	-14.614	-0.323	-0.207
-424.559	-200.000	0.009	-0.086
-423.544	-166.297	0.167	0.007
-422.530	-200.000	0.033	-0.314
-421.515	-66.924	-0.408	0.160
-420.500	-59.643	0.180	-0.077
-419.486	453.403	0.132	-0.289
-418.471	-51.321	0.246	-0.114
-417.457	409.470	-0.020	-0.041
-416.442	-5.827	0.296	0.201
-415.428	31.222	0.227	-0.194
-414.413	632.565	0.004	0.011
-413.398	-200.000	0.018	0.105
-412.384	-19.529	-0.300	0.184
-411.369	-140.988	-0.301	0.031
-410.355	69.315	-0.200	0.204
-409.340	-200.000	-0.026	-0.318
-408.325	-32.864	-0.274	0.151
-407.311	23.436	0.119	-0.097
-406.296	-200.000	-0.011	-0.113
-405.282	447.158	0.097	0.212
-404.267	-69.193	0.236	-0.090
-403.252	-69.523	0.254	0.097
-402.238	-112.518	-0.260	0.051
-401.223	73.659	0.302	-0.314
-400.209	-200.000	-0.022	-0.147
-399.194	800.000	0.041	-0.168
-398.179	-120.195	-0.182	0.031
-397.165	555.392	-0.130	0.311
-396.150	214.834	0.024	0.038
-395.136	-120.565	0.214	-0.036
-394.121	19.352	0.184	0.146
-393.106	43.941	0.118	0.108
-392.092	136.410	-0.063	0.082
-391.077	238.350	0.081	0.134
-390.063	-68.160	-0.147	0.057
-389.048	-200.000	0.047	0.308
-388.033	451.157	-0.063	0.138
-387.019	800.000	-0.102	-0.330
-386.004	-200.000	-0.060	-0.440
-384.990	227.960	-0.118	0.191
-383.975	663.674	0.050	0.128
-382.960	-93.727	0.104	-0.028
-381.946	-110.792	-0.108	-0.022
-380.931	800.000	0.028	0.106
-379.917	69.225	-0.149	0.152
-378.902	-200.000	0.014	0.236
-377.888	-96.071	0.134	0.035
-376.873	678.567	-0.076	0.195
-375.858	-65.558	0.094	-0.037
-374.844	800.000	-0.047	-0.161
-373.829	800.000	-0.046	-0.142
-372.815	392.372	0.136	-0.280
-371.800	-15.416	0.079	0.050
-370.785	-164.747	0.107	0.005
-369.771	-113.320	-0.135	0.026
-368.756	389.627	0.060	-0.123
-367.742	-140.180	-0.137	-0.014
-366.727	800.000	0.144	-0.566
-365.712	-141.422	-0.060	0.006
-364.698	-84.507	-0.265	0.083
-363.683	202.347	-0.231	0.354
-362.669	-41.212	-0.149	0.076
-361.654	48.677	-0.235	0.218
-360.639	400.745	0.107	0.223
-359.625	115.935	0.258	-0.313
-358.610	800.000	-0.070	-0.226
-357.596	-187.594	-0.139	0.002
-356.581	800.000	-0.021	-0.084
-355.566	-99.238	-0.453	0.113
-354.552	-200.000	-0.002	-0.113
-353.537	105.419	-0.114	-0.133
-352.523	-89.779	0.240	-0.069
-351.508	10.216	-0.229	-0.172
-350.493	49.424	0.137	-0.128
-349.479	412.923	-0.182	-0.382
-348.464	-200.000	-0.058	-0.346
-347.450	548.709	-0.078	-0.185
-346.435	-131.531	0.203	0.026
-345.420	800.000	0.082	-0.342
-344.406	288.456	0.185	0.332
-343.391	37.903	-0.182	-0.160
-342.377	-121.378	-0.162	0.027
-341.362	-200.000	0.019	0.109
-340.348	40.963	-0.127	0.113
-339.333	-36.997	-0.209	-0.111
-338.318	25.223	-0.259	-0.213
-337.304	-108.416	-0.285	-0.061
-336.289	-87.850	-0.307	0.091
-335.275	-110.648	-0.203	0.042
-334.260	59.033	0.110	0.107
-333.245	177.371	0.076	0.109
-332.231	133.900	0.143	0.183
-331.216	-200.000	-0.065	0.318
-330.202	-43.721	-0.521	0.260
-329.187	1.692	0.097	0.069
-328.172	662.510	-0.080	-0.203
-327.158	-28.104	-0.158	-0.091
-326.143	-58.701	0.366	-0.157
-325.129	-200.000	0.004	-0.046
-324.114	-129.349	-0.058	-0.008
-323.099	87.636	0.149	0.163
-322.085	-159.611	-0.113	-0.006
-321.070	5.861	0.140	-0.103
-320.056	-119.969	-0.142	-0.024
-319.041	17.101	0.180	-0.141
-318.026	800.000	0.006	0.017
-317.012	-33.361	0.158	0.086
-315.997	800.000	0.115	0.453
-314.983	-144.303	-0.285	-0.026
-313.968	396.497	0.203	0.419
-312.953	-200.000	-0.005	0.253
-311.939	-200.000	-0.004	-0.335
-310.924	-65.202	0.354	-0.141
-309.910	-200.000	-0.009	-0.201
-308.895	-106.713	0.119	-0.026
-307.880	81.659	-0.223	-0.238
-306.866	487.917	0.174	-0.393
-305.851	-113.161	0.290	0.057
-304.837	122.744	0.086	0.106
-303.822	143.217	0.134	0.176
-302.807	-177.049	-0.112	-0.003
-301.793	-52.063	0.172	-0.079
-300.778	-200.000	-0.067	-0.378
-299.764	33.327	0.184	-0.158
-298.749	800.000	-0.060	0.170
-297.735	34.414	0.339	0.292
-296.720	-200.000	0.012	0.057
-295.705	-200.000	-0.012	-0.054
-294.691	209.971	0.051	-0.079
-293.676	-192.361	0.193	0.002
-292.662	56.232	-0.122	0.117
-291.647	44.406	0.194	0.176
-290.632	800.000	0.076	0.235
-289.618	15.195	0.263	-0.204
-288.603	155.050	-0.093	0.127
-287.589	438.590	0.027	-0.057
-286.574	424.719	-0.154	0.327
-285.559	-89.154	0.086	0.025
-284.545	540.258	0.099	0.233
-283.530	-46.046	0.115	0.056
-282.516	328.174	-0.251	0.475
-281.501	21.356	-0.339	0.273
-280.486	-95.665	-0.139	-0.037
-279.472	-200.000	0.022	-0.416
-278.457	-112.661	-0.362	-0.071
-277.443	-67.955	-0.164	0.063
-276.428	-106.181	-0.075	0.017
-275.413	-151.950	0.366	-0.026
-274.399	-36.902	0.116	-0.061
-273.384	-136.986	0.167	-0.019
-272.370	800.000	-0.014	-0.043
-271.355	71.477	0.232	0.238
-270.340	165.737	-0.109	-0.153
-269.326	30.811	0.236	-0.200
-268.311	-42.484	-0.228	0.115
-267.297	-69.095	0.095	0.036
-266.282	-200.000	-0.027	0.290
-265.267	223.217	-0.133	0.211
-264.253	418.228	0.037	-0.079
-263.238	-200.000	-0.001	-0.265
-262.224	212.626	-0.083	-0.129
-261.209	389.555	0.118	0.240
-260.195	16.347	0.106	0.083
-259.180	800.000	0.092	-0.311
-258.165	800.000	0.051	-0.198
-257.151	201.410	-0.167	0.255
-256.136	-200.000	0.005	0.254
-255.122	-200.000	-0.066	-0.489
-254.107	-108.298	0.268	-0.057
-253.092	71.256	-0.253	0.259
-252.078	208.408	0.050	0.077
-251.063	-108.766	0.150	-0.032
-250.049	-146.787	0.189	0.016
-249.034	6.265	-0.246	0.180
-248.019	-3.266	-0.225	-0.154
-247.005	-133.780	-0.068	-0.008
-245.990	135.661	0.199	0.255
-244.976	-39.996	-0.206	0.106
-243.961	-200.000	0.028	-0.245
-242.946	-200.000	0.018	-0.144
-241.932	-87.535	0.390	-0.116
-240.917	-61.295	0.217	-0.090
-239.903	-200.000	0.003	0.101
-238.888	42.570	-0.070	0.063
-237.873	-200.000	0.009	0.302
-236.859	800.000	0.172	0.494
-235.844	-200.000	0.033	0.362
-234.830	49.341	-0.157	0.146
-233.815	-112.419	-0.227	0.045
-232.800	-86.945	0.240	-0.072
-231.786	-124.551	0.229	-0.035
-230.771	148.174	0.114	0.152
-229.757	78.384	0.164	-0.173
-228.742	15.294	0.127	-0.099
-227.727	-63.251	0.150	0.061
-226.713	-134.053	-0.338	-0.041
-225.698	446.879	-0.043	-0.093
-224.684	800.000	0.024	-0.082
-223.669	134.134	0.310	-0.396
-222.655	-76.903	-0.127	0.044
-221.640	412.112	0.057	-0.119
-220.625	186.254	0.060	0.088
-219.611	643.645	0.060	0.150
-218.596	-54.672	0.064	0.029
-217.582	-200.000	0.022	-0.243
-216.567	798.636	0.076	0.208
-215.552	-53.981	0.167	-0.075
-214.538	2.529	0.127	0.090
-213.523	-7.997	0.138	0.092
-212.509	800.000	-0.037	-0.107
-211.494	-130.653	0.110	-0.015
-210.479	-200.000	0.001	-0.005
-209.465	-69.427	-0.248	-0.094
-208.450	-161.307	0.329	0.017
-207.436	-200.000	-0.012	0.168
-206.421	50.363	-0.176	0.164
-205.406	108.426	-0.068	0.080
-204.392	509.697	0.083	0.189
-203.377	-33.381	0.105	-0.057
-202.363	-147.781	-0.303	0.025
-201.348	23.759	-0.113	-0.092
-200.333	580.880	0.100	-0.242
-199.319	800.000	0.008	-0.022
-198.304	56.956	-0.250	-0.240
-197.290	-118.269	0.083	0.015
-196.275	-200.000	-0.008	0.277
-195.260	-134.890	0.197	0.024
-194.246	579.184	-0.041	0.099
-193.231	180.976	-0.107	-0.155
-192.217	-9.623	0.020	-0.013
-191.202	281.430	0.084	0.148
-190.187	-47.612	-0.347	0.166
-189.173	-200.000	-0.096	0.514
-188.158	18.068	-0.071	-0.056
-187.144	28.878	0.020	-0.017
-186.129	-109.008	0.250	-0.053
-185.114	-121.813	0.155	0.025
-184.100	137.879	-0.079	0.102
-183.085	-43.874	-0.288	0.143
-182.071	-179.649	0.340	-0.007
-181.056	-110.600	0.192	-0.039
-180.042	200.490	-0.101	-0.152
-179.027	-36.711	0.273	-0.144
-178.012	-200.000	0.032	0.527
-176.998	-77.839	0.320	0.109
-175.983	-200.000	-0.011	-0.092
-174.969	73.764	-0.174	-0.179
-173.954	-86.399	0.211	-0.064
-172.939	11.168	0.225	-0.169
-171.925	-200.000	-0.008	-0.064
-170.910	60.628	0.125	-0.121
-169.896	-200.000	0.027	0.205
-168.881	-97.421	-0.206	0.053
-167.866	-57.888	0.156	0.067
-166.852	-39.678	-0.135	0.070
-165.837	800.000	0.031	0.112
-164.823	98.292	-0.077	0.088
-163.808	21.898	0.018	0.015
-162.793	-66.438	-0.444	0.174
-161.779	-24.776	0.100	0.059
-160.764	-192.864	-0.171	0.002
-159.750	800.000	0.061	0.240
-158.735	-200.000	0.020	-0.214
-157.720	-200.000	-0.002	0.230
-156.706	-135.075	0.037	-0.004
-155.691	-84.572	-0.104	-0.032
-154.677	80.752	-0.049	-0.051
-153.662	64.568	-0.192	0.190
-152.647	28.302	0.130	0.108
-151.633	-45.696	0.298	-0.145
-150.618	703.279	0.145	-0.376
-149.604	800.000	0.065	-0.213
-148.589	22.482	0.175	-0.141
-147.574	-54.434	-0.316	0.141
-146.560	270.517	-0.032	0.056
-145.545	-127.341	0.345	0.049
-144.531	800.000	0.020	-0.061
-143.516	-31.369	0.280	0.155
-142.502	-200.000	0.369	0.001
-141.487	-19.860	0.306	0.186
-140.472	-133.863	-0.248	-0.030
-139.458	-138.581	-0.057	0.006
-138.443	-200.000	0.021	-0.266
-137.429	68.184	-0.112	0.112
-136.414	25.931	-0.136	0.112
-135.399	-86.126	0.262	-0.079
-134.385	167.137	0.309	0.431
-133.370	-200.000	-0.008	0.156
-132.356	800.000	0.172	0.533
-131.341	-47.097	-0.139	-0.067
-130.326	-200.000	0.009	-0.133
-129.312	17.136	-0.251	0.195
-128.297	-200.000	-0.020	-0.100
-127.283	-200.000	0.032	-0.155
-126.268	-45.335	-0.203	-0.099
-125.253	-45.631	0.178	-0.086
-124.239	-55.956	0.171	-0.075
-123.224	-163.251	0.145	-0.007
-122.210	698.813	-0.034	0.089
-121.195	-200.000	-0.020	0.152
-120.180	-22.452	0.064	-0.038
-119.166	-200.000	0.010	-0.198
-118.151	-110.958	0.356	-0.072
-117.137	18.838	0.106	0.083
-116.122	-63.378	0.310	-0.125
-115.107	-68.468	0.376	0.143
-114.093	116.053	-0.143	-0.172
-113.078	-145.505	-0.226	-0.020
-112.064	-148.375	-0.349	0.028
-111.049	-96.627	0.250	0.065
-110.034	621.415	0.209	-0.517
-109.020	-65.599	-0.196	0.077
-108.005	-64.349	-0.128	0.051
-106.991	800.000	-0.051	0.173
-105.976	298.621	-0.169	0.305
-104.962	-144.053	-0.234	-0.022
-103.947	-71.212	-0.135	-0.050
-102.932	78.248	-0.145	-0.152
-101.918	-200.000	-0.011	-0.108
-100.903	-200.000	0.056	-0.296
-99.889	37.458	0.154	-0.134
-98.874	8.703	-0.096	0.071
-97.859	-200.000	0.010	0.065
-96.845	800.000	0.063	-0.244
-95.830	-174.873	-0.217	0.006
-94.816	-117.031	-0.330	0.059
-93.801	65.351	0.258	0.256
-92.786	-72.554	0.320	0.116
-91.772	-125.017	0.139	0.021
-90.757	-100.065	-0.306	-0.075
-89.743	224.891	-0.096	0.152
-88.728	-13.755	0.117	-0.074
-87.713	700.164	-0.057	-0.148
-86.699	8.580	-0.341	0.251
-85.684	-200.000	-0.005	0.191
-84.670	10.834	-0.185	-0.138
-83.655	174.286	0.106	-0.150
-82.640	114.386	0.148	0.177
-81.626	0.605	-0.348	-0.244
-80.611	-200.000	-0.028	-0.148
-79.597	229.344	-0.103	-0.165
-78.582	-95.761	0.241	-0.063
-77.567	-200.000	0.026	-0.144
-76.553	216.336	0.233	0.363
-75.538	269.717	0.034	0.059
-74.524	-185.140	-0.115	-0.002
-73.509	-28.980	-0.261	-0.147
-72.494	-200.000	-0.025	0.128
-71.480	800.000	-0.092	0.346
-70.465	-62.048	-0.069	0.028
-69.451	-200.000	0.029	0.201
-68.436	66.170	0.211	-0.210
-67.422	239.403	-0.191	-0.311
-66.407	-200.000	0.005	-0.200
-65.392	-200.000	-0.028	-0.258
-64.378	-55.932	0.247	0.108
-63.363	290.031	-0.074	0.131
-62.349	800.000	0.116	-0.383
-61.334	130.587	-0.992	-1.246
-60.319	219.626	0.399	0.626
-59.305	800.000	-0.303	-1.144
-58.290	601.874	0.514	1.250
-57.276	800.000	0.531	1.628
-56.261	-200.000	115.736	662.130
-55.246	534.135	1529.179	3548.794
-54.232	177.342	2696.032	3845.068
-53.217	109.318	2151.771	2522.755
-52.203	38.877	1594.467	1394.678
-51.188	30.525	1341.148	1122.853
-50.173	27.719	1303.067	1074.431
-49.159	55.934	1360.383	1292.016
-48.144	54.119	1374.294	1294.307
-47.130	30.776	1329.365	1114.316
-46.115	27.384	1311.860	1079.519
-45.100	27.067	1307.324	1073.873
-44.086	27.036	1304.336	1071.192
-43.071	26.994	1302.488	1069.387
-42.057	27.064	1299.828	1067.568
-41.042	27.124	1298.272	1066.600
-40.027	26.999	1297.062	1064.834
-39.013	27.081	1295.043	1063.613
-37.998	27.086	1293.309	1062.173
-36.984	27.129	1291.291	1060.730
-35.969	27.176	1289.767	1059.704
-34.954	27.227	1287.784	1058.329
-33.940	27.193	1286.642	1057.155
-32.925	27.204	1285.555	1056.283
-31.911	27.330	1283.922	1055.631
-30.896	27.357	1282.187	1054.319
-29.881	27.414	1280.972	1053.608
-28.867	27.311	1279.606	1051.848
-27.852	27.334	1278.340	1050.898
-26.838	27.321	1276.682	1049.416
-25.823	27.340	1275.891	1048.838
-24.809	27.182	1274.692	1046.900
-23.794	27.301	1272.681	1045.889
-22.779	27.130	1272.044	1044.342
-21.765	27.242	1270.626	1043.777
-20.750	27.357	1268.752	1042.855
-19.736	27.173	1268.045	1041.181
-18.721	27.063	1266.976	1039.632
-17.706	27.195	1265.467	1039.107
-16.692	27.118	1264.796	1038.076
-15.677	27.203	1263.435	1037.399
-14.663	27.179	1262.486	1036.445
-13.648	27.263	1260.851	1035.542
-12.633	27.060	1260.467	1034.025
-11.619	27.116	1259.673	1033.653
-10.604	27.169	1258.566	1033.005
-9.590	27.191	1257.464	1032.186
-8.575	27.163	1256.552	1031.236
-7.560	27.191	1255.547	1030.530
-6.546	27.148	1254.971	1029.773
-5.531	27.181	1253.694	1028.870
-4.517	27.169	1252.892	1028.103
-3.502	27.051	1252.454	1027.037
-2.487	27.105	1251.040	1026.141
-1.473	27.006	1247.494	1022.632
-0.458	25.650	1231.484	1001.927
0.556	23.528	1214.961	962.917
1.571	19.604	1220.778	945.990
2.586	18.721	1234.575	951.705
3.600	18.271	1223.354	940.500
4.615	14.255	1152.464	865.093
5.629	7.383	1080.774	777.613
6.644	4.391	1062.840	750.198
7.659	4.093	1060.010	746.701
8.673	3.913	1059.124	745.140
9.688	3.914	1057.980	744.277
10.702	4.198	1055.576	743.880
11.717	8.818	1061.749	770.425
12.731	16.689	1073.357	816.897
13.746	21.582	1079.565	845.235
14.761	22.564	1079.994	850.240
15.775	21.860	1078.524	845.613
16.790	20.892	1076.518	839.305
17.804	20.297	1074.856	835.075
18.819	20.188	1073.839	833.686
19.834	20.094	1073.960	833.254
20.848	20.048	1073.031	832.237
21.863	19.820	1072.200	830.426
22.877	19.684	1071.424	829.099
23.892	19.674	1070.621	828.353
24.907	19.500	1070.140	827.075
25.921	19.480	1069.046	826.063
26.936	19.492	1068.115	825.326
27.950	19.619	1066.086	824.293
28.965	19.709	1064.306	823.271
29.980	20.000	1063.326	823.825
30.994	19.930	1062.624	822.876
32.009	20.070	1061.534	822.623
33.023	19.903	1060.570	821.010
34.038	19.849	1059.312	819.709
35.053	19.682	1058.560	818.263
36.067	19.503	1058.114	817.000
37.082	19.701	1056.817	816.859
38.096	19.859	1056.228	817.082
39.111	19.864	1055.761	816.668
40.126	19.699	1054.085	814.525
41.140	19.322	1052.375	811.358
42.155	19.138	1051.375	809.649
43.169	19.147	1050.079	808.620
44.184	19.140	1049.579	808.133
45.199	19.206	1048.454	807.504
46.213	19.205	1047.977	807.062
47.228	19.643	1047.278	808.502
48.242	19.667	1046.010	807.563
49.257	19.651	1045.083	806.701
50.271	19.762	1044.361	806.587
51.286	19.733	1043.683	805.858
52.301	19.658	1042.579	804.584
53.315	19.565	1041.616	803.339
54.330	19.452	1040.336	801.758
55.344	19.449	1039.539	801.059
56.359	19.394	1038.829	800.182
57.374	19.391	1037.533	799.102
58.388	19.301	1036.828	798.070
59.403	19.057	1036.051	796.272
60.417	19.189	1035.074	796.063
61.432	19.083	1034.380	794.969
62.447	18.906	1033.911	793.721
63.461	18.952	1032.541	792.812
64.476	18.949	1031.613	792.016
65.490	18.863	1030.610	790.777
66.505	19.063	1030.423	791.484
67.520	18.964	1030.025	790.652
68.534	19.028	1029.081	790.152
69.549	18.918	1028.168	788.876
70.563	18.729	1027.525	787.449
71.578	18.618	1027.192	786.613
72.593	18.530	1025.876	785.132
73.607	18.577	1024.949	784.570
74.622	18.674	1024.387	784.511
75.636	18.706	1024.033	784.319
76.651	18.779	1023.424	784.118
77.666	18.790	1022.688	783.531
78.680	18.922	1021.664	783.280
79.695	18.827	1021.412	782.585
80.709	19.013	1020.802	782.895
81.724	19.318	1019.772	783.423
82.739	19.303	1019.466	783.050
83.753	19.635	1019.189	784.275
84.768	19.992	1018.378	785.201
85.782	20.178	1017.687	785.439
86.797	20.071	1017.135	784.463
87.812	19.858	1015.521	782.185
88.826	19.932	1014.607	781.747
89.841	19.806	1014.757	781.225
90.855	20.166	1012.656	781.158
91.870	20.069	1012.241	780.332
92.884	20.096	1011.538	779.844
93.899	19.999	1010.695	778.689
94.914	19.961	1010.109	777.995
95.928	20.099	1008.610	777.394
96.943	19.945	1007.779	775.993
97.957	19.822	1006.931	774.722
98.972	19.867	1006.332	774.392
99.987	19.924	1005.354	773.825
101.001	19.748	1004.740	772.499
102.016	19.697	1003.617	771.342
103.030	19.932	1002.970	771.821
104.045	19.861	1002.454	771.041
105.060	19.679	1001.386	769.340
106.074	19.496	999.426	766.952
107.089	19.139	998.897	764.892
108.103	19.022	997.713	763.399
109.118	19.118	996.478	762.813
110.133	18.840	995.791	760.988
111.147	18.922	994.852	760.567
112.162	19.000	994.047	760.229
113.176	19.134	993.884	760.628
114.191	19.244	993.090	760.440
115.206	19.240	991.969	759.498
116.220	19.239	991.261	758.883
117.235	19.044	990.580	757.436
118.249	19.030	989.342	756.361
119.264	18.957	988.586	755.394
120.279	18.908	988.123	754.758
121.293	18.931	986.510	753.561
122.308	18.687	986.240	752.221
123.322	18.559	985.031	750.669
124.337	18.574	983.956	749.849
125.352	18.613	982.545	748.877
126.366	18.613	982.026	748.419
127.381	18.713	981.020	748.021
128.395	18.741	980.322	747.543
129.410	18.840	979.303	747.133
130.424	19.101	978.369	747.488
131.439	19.070	978.580	747.444
132.454	19.226	977.288	747.071
133.468	19.260	976.528	746.569
134.483	19.155	976.070	745.700
135.497	19.101	975.395	744.884
136.512	19.162	974.377	744.303
137.527	19.209	973.397	743.692
138.541	19.192	972.451	742.831
139.556	19.277	971.918	742.725
140.570	19.584	971.662	743.786
141.585	19.742	970.607	743.592
142.600	19.885	970.144	743.787
143.614	19.941	968.911	743.015
144.629	19.881	968.523	742.394
145.643	19.778	967.888	741.401
146.658	19.657	965.918	739.308
147.673	19.364	965.302	737.517
148.687	19.223	964.370	736.140
149.702	19.321	963.120	735.539
150.716	19.231	962.424	734.556
151.731	19.310	961.705	734.282
152.746	19.428	960.775	734.008
153.760	19.526	960.239	733.947
154.775	19.538	960.088	733.822
155.789	19.673	959.257	733.691
156.804	19.593	958.752	732.904
157.819	19.709	958.001	732.753
158.833	19.820	957.827	733.027
159.848	20.087	956.643	733.186
160.862	19.801	955.597	731.111
161.877	19.556	954.007	728.798
162.892	19.262	952.667	726.471
163.906	19.238	951.789	725.634
164.921	19.318	951.433	725.635
165.935	19.342	950.374	724.864
166.950	19.478	949.522	724.723
167.964	19.509	948.388	723.921
168.979	19.369	947.484	722.581
169.994	19.398	946.335	721.762
171.008	19.451	946.343	721.926
172.023	19.801	945.472	722.660
173.037	19.915	945.249	722.900
174.052	19.743	943.982	721.153
175.067	19.363	943.051	718.792
176.081	19.286	942.357	717.880
177.096	19.264	941.839	717.331
178.110	19.318	941.121	716.945
179.125	19.280	940.521	716.265
180.140	19.433	940.419	716.760
181.154	19.610	940.159	717.235
182.169	19.834	939.871	717.883
183.183	20.028	938.840	717.835
184.198	19.713	938.394	716.125
185.213	19.721	937.614	715.499
186.227	19.823	937.264	715.592
187.242	20.104	936.409	716.037
188.256	20.087	936.257	715.788
189.271	20.084	935.334	715.006
190.286	19.569	934.384	712.092
191.300	19.155	932.875	709.172
192.315	19.074	932.149	708.226
193.329	19.174	931.878	708.367
194.344	19.417	931.353	708.906
195.359	19.485	931.101	708.929
196.373	19.669	930.167	708.911
197.388	19.884	930.131	709.704
198.402	20.240	929.395	710.537
199.417	20.234	929.475	710.513
200.432	20.386	928.961	710.678
201.446	20.370	928.337	710.070
202.461	20.584	928.166	710.752
203.475	20.207	927.598	708.715
204.490	19.988	926.475	706.899
205.504	19.887	925.138	705.405
206.519	19.728	924.715	704.372
207.534	19.846	923.907	704.176
208.548	19.952	923.316	704.095
209.563	19.914	922.458	703.221
210.577	20.146	921.521	703.388
211.592	20.139	921.749	703.471
212.607	20.219	920.926	703.107
213.621	20.159	919.854	701.981
214.636	20.125	919.451	701.476
215.650	20.243	919.037	701.576
216.665	20.232	917.989	700.666
217.680	20.419	917.750	701.176
218.694	20.396	916.977	700.434
219.709	20.316	916.134	699.404
220.723	20.322	915.724	699.053
221.738	20.380	914.502	698.291
222.753	20.422	914.071	698.070
223.767	20.369	914.022	697.757
224.782	20.561	913.434	698.020
225.796	20.500	912.811	697.236
226.811	20.400	912.220	696.321
227.826	20.170	911.261	694.608
228.840	20.144	910.203	693.635
229.855	20.203	909.595	693.347
230.869	20.102	909.031	692.450
231.884	20.040	908.570	691.793
232.899	19.969	907.343	690.513
233.913	19.874	906.989	689.802
234.928	19.792	905.900	688.586
235.942	19.693	905.597	687.901
236.957	19.838	905.003	687.966
237.972	19.768	904.639	687.353
238.986	19.761	904.057	686.818
240.001	19.832	903.355	686.509
241.015	19.944	902.674	686.372
242.030	20.137	902.117	686.656
243.045	20.236	901.314	686.372
244.059	20.034	901.408	685.585
245.074	20.227	900.640	685.703
246.088	20.454	899.982	686.039
247.103	20.504	899.607	685.889
248.117	20.703	899.060	686.197
249.132	21.007	899.255	687.484
250.147	21.243	898.931	688.106
251.161	21.287	898.174	687.637
252.176	21.313	897.549	687.199
253.190	21.481	896.872	687.280
254.205	21.432	896.059	686.406
255.220	21.433	895.077	685.595
256.234	21.285	894.647	684.628
257.249	21.363	894.174	684.511
258.263	21.200	893.090	682.981
259.278	21.156	892.555	682.341
260.293	21.496	891.946	683.141
261.307	21.393	891.882	682.631
262.322	21.467	890.983	682.169
263.336	21.351	890.424	681.231
264.351	21.392	889.721	680.792
265.366	21.552	888.768	680.625
266.380	21.435	888.586	679.968
267.395	21.400	887.516	678.954
268.409	21.123	886.741	677.228
269.424	21.088	886.218	676.634
270.439	21.109	885.080	675.783
271.453	20.968	884.694	674.886
272.468	21.011	884.271	674.670
273.482	21.062	883.284	674.052
274.497	20.956	882.773	673.195
275.512	20.959	882.453	672.903
276.526	21.102	881.998	673.045
277.541	21.143	881.516	672.776
278.555	21.316	881.206	673.149
279.570	21.585	880.639	673.690
280.585	21.429	879.668	672.286
281.599	21.178	878.864	670.650
282.614	21.024	877.933	669.289
283.628	20.990	877.386	668.683
284.643	21.096	876.416	668.291
285.657	21.181	876.312	668.479
286.672	21.086	875.847	667.700
287.687	21.289	874.820	667.635
288.701	21.182	874.496	666.919
289.716	21.189	874.101	666.586
290.730	21.134	873.661	665.982
291.745	21.275	872.842	665.836
292.760	21.431	872.371	666.012
293.774	21.610	871.950	666.312
294.789	21.589	871.040	665.477
295.803	21.142	870.747	663.496
296.818	21.144	869.285	662.333
297.833	21.074	869.228	661.964
298.847	21.181	868.410	661.689
299.862	21.272	868.042	661.695
300.876	21.527	867.632	662.286
301.891	21.570	867.295	662.135
302.906	21.784	866.742	662.462
303.920	21.904	866.496	662.669
304.935	21.950	866.067	662.458
305.949	21.667	865.253	660.708
306.964	21.464	864.382	659.220
307.979	21.579	863.780	659.136
308.993	21.765	863.269	659.386
310.008	21.856	862.600	659.160
311.022	21.647	862.017	657.871
312.037	21.546	860.931	656.604
313.052	21.294	860.233	655.067
314.066	21.065	859.759	653.790
315.081	21.050	859.331	653.352
316.095	21.251	858.699	653.567
317.110	21.093	857.936	652.338
318.125	21.150	857.504	652.165
319.139	20.998	857.264	651.354
320.154	21.172	856.614	651.452
321.168	21.405	855.786	651.634
322.183	21.255	855.502	650.802
323.197	21.295	855.301	650.741
324.212	21.398	854.556	650.499
325.227	21.303	853.811	649.523
326.241	21.327	853.234	649.114
327.256	21.227	852.475	648.106
328.270	21.338	851.720	647.889
329.285	21.194	851.299	646.976
330.300	21.168	850.874	646.501
331.314	21.230	850.143	646.119
332.329	21.502	849.986	646.948
333.343	21.670	849.766	647.345
334.358	21.554	849.403	646.581
335.373	21.650	848.642	646.298
336.387	21.722	848.637	646.505
337.402	21.791	848.426	646.540
338.416	21.948	848.605	647.200
339.431	22.221	848.096	647.757
340.446	22.133	847.695	647.072
341.460	22.365	847.011	647.347
342.475	22.358	847.009	647.260
343.489	22.344	846.438	646.716
344.504	22.558	845.940	647.062
345.519	22.514	845.724	646.679
346.533	22.346	844.949	645.414
347.548	22.173	843.941	643.954
348.562	21.769	843.204	641.854
349.577	21.848	842.119	641.261
350.592	21.676	841.530	640.126
351.606	21.576	841.357	639.572
352.621	21.683	840.334	639.129
353.635	21.759	839.898	639.017
354.650	21.675	839.614	638.438
355.665	21.869	838.917	638.561
356.679	22.078	838.020	638.580
357.694	21.915	837.727	637.707
358.708	21.930	836.709	636.932
359.723	21.971	836.224	636.656
360.738	21.920	835.813	636.099
361.752	22.070	835.356	636.239
362.767	22.337	834.752	636.689
363.781	22.356	834.683	636.650
364.796	22.565	834.380	637.118
365.810	22.532	834.263	636.853
366.825	22.697	833.627	636.906
367.840	22.601	832.875	635.930
368.854	22.458	832.262	634.889
369.869	22.366	831.697	634.072
370.883	22.368	831.267	633.692
371.898	22.496	831.482	634.263
372.913	22.581	830.928	634.088
373.927	22.338	830.264	632.655
374.942	22.468	829.248	632.290
375.956	22.665	829.515	633.144
376.971	22.665	829.292	632.921
377.986	23.031	828.673	633.704
379.000	22.812	827.963	632.319
380.015	22.799	827.236	631.660
381.029	22.732	826.755	630.999
382.044	22.892	825.905	630.866
383.059	22.771	825.891	630.367
384.073	22.774	824.644	629.368
385.088	22.609	823.710	628.012
386.102	22.489	823.284	627.206
387.117	22.318	823.002	626.326
388.132	22.259	821.971	625.278
389.146	22.496	821.739	625.887
390.161	22.681	821.499	626.306
391.175	22.654	821.481	626.140
392.190	22.588	820.394	625.024
393.205	22.414	819.609	623.754
394.219	22.257	819.263	622.880
395.234	22.244	818.920	622.517
396.248	22.159	818.414	621.776
397.263	22.000	817.888	620.761
398.278	21.973	817.508	620.323
399.292	21.965	816.862	619.747
400.307	22.040	816.785	619.899
401.321	22.073	816.110	619.449
402.336	22.299	815.542	619.761
403.350	22.499	815.335	620.253
404.365	22.660	815.243	620.692
405.380	22.850	815.001	621.122
406.394	22.994	814.156	620.930
407.409	23.083	813.905	620.996
408.423	23.129	813.464	620.766
409.438	23.143	813.484	620.776
410.453	23.234	812.847	620.554
411.467	23.245	812.214	620.054
412.482	23.357	812.202	620.382
413.496	23.298	812.085	620.030
414.511	23.280	811.586	619.532
415.526	23.131	810.975	618.490
416.540	23.209	810.119	618.054
417.555	23.271	809.834	617.999
418.569	23.310	809.207	617.601
419.584	23.259	808.777	617.040
420.599	23.209	808.357	616.491
421.613	164.811	1372.802	1798.890
422.628	143.471	1455.038	1798.990
