DTS Sentinel unit serial number:	SN413079Multiplexer serial number:	ORYXHardware model number:	OX4-SRSoftware version number:	ORYX F/W v4.00 Oryx Data Collector v3.7.2.0data status	okinstallation	princeton_trtdifferential loss correction	single-endedforward channel	channel 1reverse channel	N/Adate	2019/09/12time	02:52:11forward acquisition time	60.00reverse acquisition time	0.00gamma	496.2192k internal	0.2322k external	0.2322temperature offset calibration	1.0077default loss term (dB/km)	0.3790temperature slope calibration	1.0000multiplexer offset coefficient	1.0000multiplexer slope coefficient	1.0000fibre end	0.00T internal ref (°C)	32.31T ext. ref 1 (°C)	2.09T ext. ref 2 (°C)	27.17length (m)	temperature (°C)	Stokes	anti-Stokes-747.200	-72.066	-0.017	0.007
-746.185	-1.667	-0.111	0.079
-745.171	-92.886	0.363	-0.103
-744.156	-200.000	0.004	0.134
-743.142	-0.859	-0.067	0.048
-742.127	800.000	0.113	0.374
-741.112	151.296	0.142	-0.195
-740.098	-109.780	-0.427	0.091
-739.083	188.216	0.131	0.198
-738.069	22.693	-0.184	-0.152
-737.054	37.828	-0.156	-0.140
-736.039	-181.011	-0.229	0.005
-735.025	580.965	-0.123	0.306
-734.010	446.165	-0.032	0.072
-732.996	800.000	0.095	-0.319
-731.981	-158.257	0.145	-0.009
-730.966	800.000	-0.103	-0.386
-729.952	-30.912	-0.169	-0.096
-728.937	522.825	-0.141	-0.334
-727.923	40.074	0.236	-0.214
-726.908	17.508	0.145	-0.116
-725.894	-119.669	0.296	0.052
-724.879	800.000	-0.062	-0.221
-723.864	49.784	-0.038	0.036
-722.850	-87.085	-0.256	-0.079
-721.835	534.041	-0.050	-0.120
-720.821	-174.844	0.152	-0.004
-719.806	-200.000	0.006	-0.046
-718.791	-44.104	-0.121	-0.061
-717.777	697.861	-0.108	-0.285
-716.762	334.905	-0.137	-0.268
-715.748	-68.009	-0.295	0.116
-714.733	-200.000	0.016	0.273
-713.718	800.000	-0.093	-0.391
-712.704	370.694	0.100	-0.204
-711.689	-200.000	0.348	-0.001
-710.675	221.651	0.054	-0.088
-709.660	800.000	-0.111	-0.328
-708.645	-65.101	-0.280	-0.114
-707.631	-93.579	0.325	-0.091
-706.616	255.356	0.187	-0.323
-705.602	753.736	-0.064	-0.175
-704.587	-200.000	-0.015	0.168
-703.572	590.698	0.025	-0.063
-702.558	-200.000	0.018	-0.156
-701.543	-200.000	0.006	0.191
-700.529	-128.896	-0.393	0.056
-699.514	-91.659	0.225	0.065
-698.499	800.000	-0.019	0.073
-697.485	201.167	-0.183	0.285
-696.470	-43.308	0.239	0.122
-695.456	-47.124	-0.303	0.149
-694.441	44.752	0.191	0.177
-693.426	-74.427	0.114	-0.042
-692.412	137.381	-0.198	-0.261
-691.397	310.437	-0.209	-0.394
-690.383	-200.000	0.037	-0.414
-689.368	800.000	0.095	-0.305
-688.354	4.541	0.134	0.099
-687.339	52.549	-0.093	0.089
-686.324	-144.090	-0.290	0.027
-685.310	-94.675	0.096	-0.026
-684.295	800.000	0.037	-0.138
-683.281	-200.000	0.023	0.104
-682.266	138.657	-0.202	-0.267
-681.251	800.000	-0.045	0.138
-680.237	99.570	-0.126	0.148
-679.222	274.607	0.104	-0.186
-678.208	-66.648	0.035	-0.014
-677.193	82.682	-0.092	-0.101
-676.178	-79.994	0.468	-0.158
-675.164	259.025	-0.121	0.210
-674.149	52.942	-0.165	-0.159
-673.135	202.398	0.192	-0.299
-672.120	72.948	0.200	-0.211
-671.105	-200.000	-0.024	0.191
-670.091	-200.000	-0.018	0.080
-669.076	24.764	-0.053	-0.044
-668.062	608.196	-0.090	-0.226
-667.047	184.373	-0.178	-0.266
-666.032	-51.110	0.213	0.100
-665.018	-200.000	-0.059	0.265
-664.003	109.399	-0.178	-0.214
-662.989	-103.210	-0.065	-0.016
-661.974	23.287	-0.102	-0.084
-660.959	-200.000	0.056	-0.355
-659.945	-70.316	-0.308	-0.118
-658.930	685.037	0.089	-0.234
-657.916	-200.000	-0.016	0.073
-656.901	61.170	-0.038	-0.038
-655.886	401.020	0.022	0.047
-654.872	-200.000	0.020	-0.177
-653.857	56.141	-0.226	-0.221
-652.843	124.695	0.090	-0.114
-651.828	475.391	-0.059	0.134
-650.814	43.046	0.102	0.094
-649.799	-15.625	0.282	-0.181
-648.784	-139.696	-0.056	-0.006
-647.770	300.932	-0.053	-0.099
-646.755	800.000	-0.009	0.032
-645.741	-200.000	0.021	-0.096
-644.726	-200.000	0.033	-0.168
-643.711	675.234	-0.109	-0.285
-642.697	-164.538	0.124	0.006
-641.682	800.000	0.136	-0.481
-640.668	-200.000	0.049	-0.309
-639.653	282.261	-0.073	0.132
-638.638	196.144	0.180	-0.276
-637.624	-200.000	-0.040	0.238
-636.609	-81.318	-0.119	0.040
-635.595	800.000	-0.027	-0.097
-634.580	-66.130	0.261	-0.105
-633.565	311.690	0.214	-0.405
-632.551	-24.557	-0.015	-0.009
-631.536	201.802	-0.063	-0.098
-630.522	296.345	0.111	0.205
-629.507	142.986	-0.266	0.356
-628.492	349.845	-0.125	-0.249
-627.478	800.000	0.057	0.228
-626.463	800.000	0.059	0.209
-625.449	800.000	-0.072	-0.217
-624.434	-102.284	-0.311	0.075
-623.419	-82.116	-0.293	-0.096
-622.405	348.580	0.105	0.209
-621.390	-72.874	-0.227	0.084
-620.376	-64.700	0.405	0.165
-619.361	109.156	-0.140	0.169
-618.346	262.662	0.113	0.197
-617.332	-200.000	-0.043	-0.268
-616.317	174.823	-0.137	-0.199
-615.303	688.498	0.022	-0.059
-614.288	800.000	-0.067	-0.242
-613.273	562.767	0.082	-0.199
-612.259	58.483	-0.135	0.133
-611.244	-115.500	0.315	-0.060
-610.230	178.163	-0.083	0.122
-609.215	-200.000	-0.027	0.250
-608.201	-77.075	-0.446	-0.156
-607.186	96.305	-0.095	-0.110
-606.171	-130.732	-0.233	-0.031
-605.157	239.019	0.125	0.209
-604.142	248.246	-0.130	-0.221
-603.128	373.981	0.036	-0.074
-602.113	-46.489	-0.205	0.101
-601.098	142.487	-0.134	0.179
-600.084	-200.000	0.060	-0.343
-599.069	139.572	0.057	-0.075
-598.055	246.989	-0.031	-0.052
-597.040	62.708	0.192	-0.193
-596.025	-36.265	0.356	-0.193
-595.011	-125.198	-0.107	-0.016
-593.996	72.665	-0.128	0.135
-592.982	254.448	0.003	0.005
-591.967	-3.652	-0.045	0.032
-590.952	800.000	0.117	-0.346
-589.938	-11.242	-0.125	-0.083
-588.923	-68.685	0.113	0.044
-587.909	-87.344	0.169	-0.052
-586.894	-166.283	-0.154	0.007
-585.879	199.569	-0.076	-0.118
-584.865	-144.671	0.112	0.010
-583.850	-70.801	0.116	-0.044
-582.836	179.075	0.052	-0.076
-581.821	31.144	-0.093	0.080
-580.806	-73.597	0.304	0.111
-579.792	-200.000	-0.040	-0.552
-578.777	47.595	0.091	0.085
-577.763	-200.000	0.013	0.284
-576.748	113.157	0.133	0.162
-575.733	-200.000	-0.014	-0.167
-574.719	-105.705	0.082	0.019
-573.704	7.495	0.023	-0.017
-572.690	-200.000	-0.021	0.173
-571.675	-2.818	-0.219	0.154
-570.661	-17.283	0.254	0.161
-569.646	-119.312	0.398	0.070
-568.631	186.155	-0.092	-0.137
-567.617	-10.284	0.229	-0.153
-566.602	-200.000	0.041	-0.351
-565.588	9.911	0.420	0.320
-564.573	61.836	-0.027	0.027
-563.558	-18.887	0.130	0.081
-562.544	82.385	-0.169	0.184
-561.529	-76.483	0.230	0.081
-560.515	-28.647	-0.039	0.023
-559.500	-83.478	0.235	-0.076
-558.485	-61.759	-0.071	-0.030
-557.471	487.067	0.131	-0.300
-556.456	467.980	0.055	-0.123
-555.442	80.550	-0.219	-0.237
-554.427	-143.698	0.139	0.013
-553.412	302.296	0.035	-0.065
-552.398	-137.788	0.434	-0.049
-551.383	-62.741	-0.061	-0.025
-550.369	94.337	0.231	0.263
-549.354	-200.000	0.003	0.067
-548.339	-12.283	0.103	-0.068
-547.325	-194.680	0.257	-0.002
-546.310	-70.121	-0.227	0.087
-545.296	39.143	-0.147	0.132
-544.281	114.638	-0.099	-0.121
-543.266	-9.775	0.166	0.111
-542.252	181.454	-0.129	-0.190
-541.237	-200.000	-0.064	0.491
-540.223	19.762	-0.159	0.128
-539.208	-200.000	0.008	-0.069
-538.193	118.090	-0.052	0.065
-537.179	-70.996	0.153	0.058
-536.164	-53.392	-0.093	0.043
-535.150	-38.279	-0.163	0.087
-534.135	-71.118	0.252	0.095
-533.121	-99.054	0.114	-0.029
-532.106	-34.634	0.296	-0.163
-531.091	-200.000	-0.053	-0.364
-530.077	800.000	0.079	-0.299
-529.062	-48.979	0.326	-0.157
-528.048	-200.000	-0.024	0.221
-527.033	-177.537	0.156	-0.004
-526.018	45.925	-0.203	-0.188
-525.004	-200.000	0.005	-0.046
-523.989	-200.000	-0.028	-0.253
-522.975	800.000	0.014	-0.054
-521.960	800.000	-0.017	-0.065
-520.945	31.811	0.168	-0.145
-519.931	-109.990	0.219	-0.046
-518.916	-200.000	-0.012	-0.196
-517.902	-200.000	0.053	0.253
-516.887	-113.840	0.147	0.029
-515.872	-109.360	0.278	0.059
-514.858	330.032	-0.118	-0.227
-513.843	-28.262	-0.291	-0.169
-512.829	158.911	0.140	0.195
-511.814	16.845	0.478	0.379
-510.799	-87.924	-0.363	0.109
-509.785	97.414	0.086	-0.099
-508.770	800.000	0.084	-0.277
-507.756	-79.595	-0.150	0.051
-506.741	204.468	-0.066	-0.103
-505.726	324.805	-0.053	-0.101
-504.712	293.701	0.043	0.078
-503.697	194.147	0.048	0.073
-502.683	123.543	-0.105	-0.131
-501.668	29.972	-0.126	0.107
-500.653	40.529	-0.183	0.165
-499.639	117.772	0.075	-0.093
-498.624	-200.000	-0.002	0.235
-497.610	252.007	-0.198	0.337
-496.595	800.000	0.046	0.194
-495.581	800.000	-0.037	-0.127
-494.566	-60.651	0.188	-0.080
-493.551	-176.646	0.081	-0.002
-492.537	66.806	0.186	-0.189
-491.522	-57.922	-0.123	-0.054
-490.508	-200.000	-0.032	0.267
-489.493	49.613	-0.200	-0.189
-488.478	800.000	-0.146	-0.418
-487.464	6.868	-0.150	-0.111
-486.449	-99.045	0.116	0.029
-485.435	243.431	-0.117	-0.196
-484.420	-90.651	-0.130	0.038
-483.405	110.114	-0.169	0.203
-482.391	-27.533	-0.093	0.054
-481.376	41.512	0.286	0.259
-480.362	-200.000	-0.035	0.271
-479.347	118.994	-0.252	-0.311
-478.332	-142.533	0.411	-0.040
-477.318	-200.000	-0.015	0.407
-476.303	119.506	-0.121	-0.150
-475.289	21.795	-0.126	-0.103
-474.274	-100.830	0.157	-0.039
-473.259	-200.000	0.162	0.000
-472.245	9.328	-0.207	-0.157
-471.230	-200.000	0.002	0.029
-470.216	-40.258	-0.146	-0.076
-469.201	-70.674	0.194	0.073
-468.186	235.384	-0.157	-0.259
-467.172	309.231	-0.248	0.463
-466.157	-41.681	-0.093	-0.048
-465.143	203.337	-0.102	0.157
-464.128	-200.000	0.013	0.115
-463.113	800.000	-0.060	-0.228
-462.099	73.761	-0.127	0.133
-461.084	800.000	-0.043	-0.141
-460.070	150.682	0.163	0.222
-459.055	-16.698	-0.186	-0.118
-458.040	800.000	0.116	0.327
-457.026	-2.956	0.457	-0.319
-456.011	-70.779	-0.173	0.065
-454.997	9.509	-0.139	0.105
-453.982	-54.254	-0.169	-0.077
-452.968	-9.765	0.139	-0.092
-451.953	-200.000	-0.007	-0.132
-450.938	-129.851	-0.103	-0.014
-449.924	111.806	-0.130	-0.157
-448.909	-117.664	0.219	-0.039
-447.895	-97.716	-0.313	-0.081
-446.880	-53.860	0.060	-0.027
-445.865	-111.806	-0.148	0.030
-444.851	581.999	-0.052	0.127
-443.836	192.286	-0.146	-0.221
-442.822	-159.038	0.267	0.015
-441.807	612.900	-0.031	0.077
-440.792	23.939	-0.124	-0.102
-439.778	-197.564	-0.136	-0.001
-438.763	21.961	0.076	-0.062
-437.749	509.518	0.047	-0.109
-436.734	-54.846	0.130	-0.059
-435.719	611.016	0.120	-0.299
-434.705	245.836	0.049	0.083
-433.690	-196.298	0.094	0.001
-432.676	800.000	0.067	0.207
-431.661	800.000	0.141	0.417
-430.646	-200.000	-0.023	0.108
-429.632	221.121	0.150	0.240
-428.617	-200.000	0.003	-0.136
-427.603	721.172	0.146	0.388
-426.588	146.553	0.082	-0.110
-425.573	485.754	0.143	0.324
-424.559	-24.650	0.134	-0.080
-423.544	115.153	0.053	-0.065
-422.530	-111.169	0.176	0.036
-421.515	-200.000	0.001	-0.152
-420.500	800.000	-0.039	0.153
-419.486	-200.000	0.023	0.125
-418.471	70.738	-0.155	-0.160
-417.457	800.000	0.122	-0.376
-416.442	38.919	-0.270	-0.241
-415.428	3.654	-0.232	-0.169
-414.413	800.000	-0.013	-0.055
-413.398	153.620	0.090	-0.123
-412.384	800.000	-0.028	0.089
-411.369	-200.000	-0.051	0.259
-410.355	51.235	-0.028	-0.026
-409.340	299.947	0.131	-0.240
-408.325	800.000	-0.051	0.155
-407.311	145.561	0.046	0.061
-406.296	-200.000	-0.031	0.140
-405.282	-79.454	0.137	0.046
-404.267	-200.000	0.012	0.114
-403.252	-9.422	-0.301	0.200
-402.238	-16.122	-0.204	-0.129
-401.223	-200.000	0.003	-0.094
-400.209	800.000	-0.012	0.037
-399.194	-200.000	-0.014	0.187
-398.179	86.766	-0.197	0.216
-397.165	-43.523	0.202	-0.102
-396.150	-35.484	-0.054	-0.029
-395.136	488.944	0.029	0.066
-394.121	601.335	-0.119	-0.294
-393.106	222.876	-0.147	0.236
-392.092	-200.000	0.048	-0.389
-391.077	-118.053	-0.165	0.029
-390.063	-200.000	-0.023	-0.166
-389.048	-140.389	0.075	-0.008
-388.033	-25.035	0.065	-0.038
-387.019	7.742	0.106	-0.079
-386.004	800.000	0.050	-0.144
-384.990	-60.871	-0.232	0.098
-383.975	-35.727	0.089	-0.048
-382.960	-60.961	-0.084	0.035
-381.946	106.454	0.181	-0.214
-380.931	150.349	-0.056	-0.075
-379.917	-122.875	0.064	0.010
-378.902	-57.961	-0.081	-0.035
-377.888	81.628	0.227	0.245
-376.873	800.000	0.090	0.346
-375.858	-200.000	-0.030	0.192
-374.844	64.372	-0.319	-0.320
-373.829	-200.000	-0.005	0.142
-372.815	-200.000	0.028	-0.128
-371.800	800.000	0.047	0.180
-370.785	45.608	0.115	0.106
-369.771	99.338	-0.089	-0.103
-368.756	-67.622	-0.186	0.072
-367.742	-98.793	-0.244	-0.062
-366.727	-79.351	0.270	0.091
-365.712	-54.980	-0.159	0.072
-364.698	-200.000	0.000	0.037
-363.683	344.265	0.035	0.068
-362.669	360.990	0.088	-0.176
-361.654	244.725	-0.134	0.224
-360.639	-88.701	-0.384	-0.114
-359.625	-31.017	-0.338	0.190
-358.610	-133.852	0.152	-0.019
-357.596	-15.463	-0.044	0.028
-356.581	22.924	-0.033	-0.027
-355.566	387.760	0.109	0.225
-354.552	379.110	0.160	-0.326
-353.537	-58.932	-0.218	0.094
-352.523	-150.800	0.386	-0.029
-351.508	-200.000	-0.019	-0.131
-350.493	-114.165	-0.113	-0.022
-349.479	-200.000	0.003	-0.012
-348.464	0.163	-0.176	0.125
-347.450	-200.000	0.011	0.145
-346.435	800.000	0.085	-0.268
-345.420	497.277	0.063	0.144
-344.406	-200.000	-0.034	0.277
-343.391	249.045	0.087	0.146
-342.377	-7.953	0.195	0.131
-341.362	-200.000	-0.014	0.223
-340.348	-38.237	-0.160	-0.085
-339.333	64.970	0.130	0.130
-338.318	-200.000	-0.010	-0.221
-337.304	104.830	-0.225	0.264
-336.289	-200.000	0.012	-0.183
-335.275	64.600	0.159	0.160
-334.260	-133.729	-0.072	0.009
-333.245	94.723	-0.059	-0.067
-332.231	27.916	0.130	0.109
-331.216	-160.076	-0.118	-0.006
-330.202	201.963	-0.163	-0.249
-329.187	-20.667	-0.128	0.078
-328.172	-28.604	-0.195	0.112
-327.158	131.791	-0.082	0.105
-326.143	-76.401	0.234	0.082
-325.129	800.000	0.056	0.182
-324.114	-200.000	-0.022	-0.283
-323.099	647.157	-0.083	-0.212
-322.085	515.250	-0.113	-0.262
-321.070	-41.512	-0.067	-0.034
-320.056	62.985	-0.188	0.187
-319.041	80.754	-0.244	0.262
-318.026	-36.997	0.158	0.084
-317.012	7.143	-0.235	0.175
-315.997	77.463	0.354	-0.375
-314.983	-200.000	0.007	0.248
-313.968	800.000	0.166	0.486
-312.953	1.995	-0.099	-0.071
-311.939	69.147	0.110	0.112
-310.924	180.343	-0.046	0.067
-309.910	-82.254	-0.139	-0.045
-308.895	88.160	0.165	-0.182
-307.880	144.215	-0.286	-0.379
-306.866	-126.634	-0.144	0.021
-305.851	80.635	0.135	0.144
-304.837	154.296	-0.221	-0.301
-303.822	172.087	-0.160	-0.228
-302.807	-70.374	-0.050	0.019
-301.793	800.000	-0.040	0.166
-300.778	800.000	-0.060	0.257
-299.764	114.523	-0.331	0.400
-298.749	-87.104	-0.205	0.062
-297.735	4.396	-0.185	0.134
-296.720	-116.147	0.237	-0.044
-295.705	259.392	0.306	0.524
-294.691	-86.625	0.033	0.010
-293.676	-200.000	-0.025	0.158
-292.662	-93.699	0.249	-0.068
-291.647	98.429	-0.132	-0.151
-290.632	800.000	0.033	0.098
-289.618	-200.000	0.015	-0.296
-288.603	-200.000	-0.007	-0.055
-287.589	153.562	-0.165	0.225
-286.574	565.100	0.084	-0.201
-285.559	-200.000	-0.009	-0.308
-284.545	-153.695	0.128	0.009
-283.530	52.022	-0.028	0.026
-282.516	-7.372	0.056	-0.037
-281.501	-200.000	-0.051	-0.277
-280.486	-176.716	0.240	0.006
-279.472	800.000	-0.065	0.275
-278.457	-200.000	0.016	0.156
-277.443	528.606	0.068	-0.160
-276.428	800.000	0.069	-0.268
-275.413	-200.000	-0.009	-0.370
-274.399	-53.148	-0.154	-0.070
-273.384	8.048	-0.208	0.155
-272.370	-32.144	0.202	0.112
-271.355	-200.000	0.060	0.503
-270.340	-26.042	0.251	0.146
-269.326	800.000	0.051	-0.145
-268.311	142.736	0.233	0.308
-267.297	163.768	-0.017	0.024
-266.282	183.703	0.145	-0.212
-265.267	-132.894	-0.313	-0.040
-264.253	-125.509	0.183	0.028
-263.238	-2.648	0.109	-0.076
-262.224	189.312	-0.126	-0.187
-261.209	98.748	-0.213	0.243
-260.195	800.000	0.150	-0.449
-259.180	-200.000	-0.012	0.215
-258.165	-165.234	0.207	-0.009
-257.151	-76.244	0.195	0.068
-256.136	800.000	0.063	-0.217
-255.122	-92.306	-0.116	-0.032
-254.107	31.464	-0.176	0.150
-253.092	19.981	-0.023	0.018
-252.078	6.325	-0.210	-0.155
-251.063	-43.439	-0.292	0.146
-250.049	52.763	-0.028	-0.027
-249.034	99.440	0.123	0.140
-248.019	-81.668	-0.285	0.093
-247.005	-79.663	0.153	-0.051
-245.990	-6.453	-0.179	-0.121
-244.976	14.415	0.216	-0.167
-243.961	-200.000	0.031	0.320
-242.946	13.662	0.066	0.051
-241.932	-99.035	-0.312	0.078
-240.917	69.286	0.107	0.109
-239.903	800.000	0.070	0.267
-238.888	343.430	-0.040	0.078
-237.873	-29.310	-0.120	0.068
-236.859	-125.469	0.124	-0.019
-235.844	-27.139	0.051	0.029
-234.830	-27.380	0.236	0.136
-233.815	-50.296	0.185	0.087
-232.800	43.597	0.079	-0.071
-231.786	-200.000	0.019	-0.397
-230.771	-92.207	0.276	0.077
-229.757	-0.944	-0.052	-0.037
-228.742	10.341	-0.106	-0.080
-227.727	-169.608	0.297	0.011
-226.713	-164.807	0.195	0.009
-225.698	-62.442	0.325	0.134
-224.684	-114.457	-0.193	-0.037
-223.669	187.410	0.150	0.221
-222.655	-121.465	0.152	0.025
-221.640	-200.000	0.054	-0.245
-220.625	-119.475	-0.230	0.040
-219.611	800.000	-0.064	-0.270
-218.596	-55.815	-0.205	0.091
-217.582	-143.380	0.238	-0.023
-216.567	-78.867	-0.119	0.040
-215.552	9.388	-0.169	-0.127
-214.538	-2.159	-0.201	0.140
-213.523	506.482	0.076	-0.173
-212.509	-113.775	-0.187	0.036
-211.494	-26.188	0.132	-0.077
-210.479	-27.950	-0.295	-0.169
-209.465	-51.096	0.184	-0.085
-208.450	-200.000	0.058	0.320
-207.436	186.043	-0.112	0.165
-206.421	-117.103	0.122	-0.022
-205.406	-97.394	-0.220	0.057
-204.392	-104.358	-0.209	0.048
-203.377	76.306	0.121	0.126
-202.363	362.294	-0.066	-0.132
-201.348	-200.000	0.003	-0.144
-200.333	-5.976	-0.134	0.090
-199.319	-1.019	-0.085	0.059
-198.304	176.954	0.190	0.273
-197.290	-30.217	0.062	-0.035
-196.275	169.452	0.114	0.161
-195.260	-145.918	-0.474	-0.042
-194.246	800.000	-0.021	0.088
-193.231	772.862	0.152	0.410
-192.217	-111.532	-0.195	0.039
-191.202	33.109	-0.222	-0.191
-190.187	681.630	-0.180	-0.464
-189.173	800.000	0.024	0.104
-188.158	-71.776	0.193	0.071
-187.144	800.000	0.067	0.193
-186.129	226.086	-0.048	-0.078
-185.114	51.091	0.050	0.047
-184.100	-107.856	-0.113	0.024
-183.085	-144.085	0.268	-0.025
-182.071	-161.662	0.145	0.007
-181.056	-116.320	-0.340	0.062
-180.042	-118.455	0.178	-0.031
-179.027	800.000	0.056	0.207
-178.012	679.370	-0.047	-0.120
-176.998	-200.000	0.024	-0.287
-175.983	-128.042	0.256	-0.036
-174.969	-160.920	-0.202	0.011
-173.954	80.176	0.102	-0.108
-172.939	-127.716	0.137	-0.020
-171.925	253.544	-0.111	0.187
-170.910	-173.526	-0.075	0.002
-169.896	51.517	-0.142	0.133
-168.881	38.974	-0.226	-0.199
-167.866	-20.947	0.231	0.140
-166.852	283.013	-0.106	0.187
-165.837	-3.227	-0.151	-0.104
-164.823	-115.943	-0.130	-0.024
-163.808	-90.161	0.210	0.060
-162.793	-200.000	0.000	0.019
-161.779	-42.587	0.129	0.065
-160.764	-93.172	-0.259	0.071
-159.750	-200.000	0.034	-0.252
-158.735	380.408	-0.070	0.141
-157.720	800.000	0.007	0.025
-156.706	-147.453	0.062	-0.005
-155.691	69.404	0.054	0.055
-154.677	800.000	0.107	-0.297
-153.662	62.483	0.143	0.141
-152.647	360.001	0.061	-0.121
-151.633	-66.865	-0.305	0.119
-150.618	431.691	0.043	0.093
-149.604	313.806	0.064	0.119
-148.589	31.358	0.194	-0.165
-147.574	675.737	-0.189	-0.485
-146.560	94.651	-0.134	-0.150
-145.545	800.000	0.104	0.431
-144.531	-102.732	0.250	-0.059
-143.516	24.083	0.221	-0.180
-142.502	398.679	-0.060	0.125
-141.487	236.727	0.094	0.154
-140.472	-156.922	-0.329	-0.020
-139.458	110.787	-0.126	-0.150
-138.443	-200.000	0.010	-0.238
-137.429	219.339	-0.102	-0.162
-136.414	800.000	0.139	-0.381
-135.399	-200.000	-0.022	-0.258
-134.385	598.801	0.087	-0.213
-133.370	143.880	-0.216	-0.284
-132.356	115.303	0.242	-0.291
-131.341	-200.000	0.007	0.191
-130.326	-200.000	-0.050	0.261
-129.312	532.671	0.060	0.141
-128.297	-122.103	0.435	-0.070
-127.283	94.067	0.108	-0.120
-126.268	-200.000	0.058	-0.289
-125.253	92.107	0.206	0.229
-124.239	203.316	-0.058	0.089
-123.224	11.509	0.033	-0.025
-122.210	569.988	0.074	-0.178
-121.195	-75.488	-0.057	0.020
-120.180	-66.983	0.066	-0.026
-119.166	125.824	0.344	0.429
-118.151	42.184	0.118	0.106
-117.137	-200.000	0.049	-0.321
-116.122	800.000	-0.074	-0.264
-115.107	-42.085	-0.128	-0.065
-114.093	-200.000	-0.008	0.061
-113.078	-49.441	-0.139	-0.066
-112.064	-143.291	-0.096	0.009
-111.049	-122.446	0.281	0.045
-110.034	223.949	-0.071	-0.113
-109.020	800.000	0.039	-0.165
-108.005	427.317	-0.160	0.341
-106.991	-200.000	-0.063	0.419
-105.976	50.885	-0.339	0.317
-104.962	687.138	0.068	0.176
-103.947	338.219	0.096	0.184
-102.932	-200.000	-0.036	-0.333
-101.918	69.021	-0.153	-0.155
-100.903	418.312	0.022	-0.046
-99.889	-200.000	0.011	0.144
-98.874	800.000	0.068	-0.293
-97.859	-200.000	-0.032	0.187
-96.845	122.496	0.173	-0.213
-95.830	-192.039	-0.157	-0.001
-94.816	26.416	0.172	0.141
-93.801	593.440	0.043	-0.105
-92.786	800.000	0.034	0.137
-91.772	-61.330	-0.173	0.072
-90.757	143.734	-0.082	0.108
-89.743	706.822	-0.121	0.315
-88.728	603.916	-0.121	-0.296
-87.713	-184.563	0.130	0.002
-86.699	-99.728	-0.209	-0.052
-85.684	514.155	-0.133	-0.305
-84.670	-200.000	-0.005	0.187
-83.655	-200.000	0.072	-0.416
-82.640	45.388	0.157	-0.143
-81.626	-147.173	0.263	0.022
-80.611	-200.000	0.016	0.166
-79.597	-61.795	0.049	-0.020
-78.582	-200.000	-0.034	0.267
-77.567	444.918	-0.088	-0.191
-76.553	479.722	-0.156	-0.348
-75.538	-200.000	0.027	-0.480
-74.524	-200.000	0.005	-0.184
-73.509	165.135	0.095	0.133
-72.494	209.006	-0.224	0.345
-71.480	170.527	-0.206	-0.291
-70.465	141.201	0.072	0.094
-69.451	-68.402	0.187	-0.071
-68.436	226.114	-0.072	-0.115
-67.422	-95.486	0.265	-0.070
-66.407	-34.353	-0.124	-0.067
-65.392	331.725	-0.165	-0.313
-64.378	-181.763	-0.505	0.010
-63.363	-136.433	-0.119	-0.014
-62.349	-200.000	-0.012	0.120
-61.334	51.088	-0.595	-0.555
-60.319	465.573	0.198	0.436
-59.305	436.885	-0.503	-1.078
-58.290	556.465	0.460	1.091
-57.276	626.352	0.690	1.712
-56.261	-200.000	95.686	590.806
-55.246	568.883	1365.939	3265.737
-54.232	162.856	2539.434	3506.970
-53.217	114.477	2134.399	2557.201
-52.203	44.342	1600.199	1444.885
-51.188	35.889	1338.838	1158.251
-50.173	32.720	1297.426	1103.863
-49.159	54.534	1344.750	1274.562
-48.144	56.816	1361.244	1303.728
-47.130	36.019	1319.995	1142.543
-46.115	32.579	1302.704	1107.349
-45.100	32.429	1297.520	1102.019
-44.086	32.288	1294.895	1098.921
-43.071	32.047	1293.447	1096.243
-42.057	32.263	1291.060	1095.434
-41.042	32.239	1288.946	1093.463
-40.027	32.402	1286.903	1092.629
-39.013	32.227	1285.731	1090.576
-37.998	32.306	1283.985	1089.510
-36.984	32.359	1282.218	1088.274
-35.969	32.402	1280.279	1086.832
-34.954	32.321	1278.804	1085.073
-33.940	32.379	1277.584	1084.325
-32.925	32.372	1275.960	1082.867
-31.911	32.303	1274.971	1081.589
-30.896	32.334	1273.369	1080.363
-29.881	32.267	1272.132	1078.885
-28.867	32.390	1270.435	1078.108
-27.852	32.448	1268.825	1077.032
-26.838	32.358	1267.635	1075.466
-25.823	32.479	1265.953	1074.688
-24.809	32.380	1265.100	1073.351
-23.794	32.380	1263.734	1072.151
-22.779	32.472	1262.606	1071.678
-21.765	32.449	1261.381	1070.462
-20.750	32.381	1259.860	1068.741
-19.736	32.284	1258.625	1067.106
-18.721	32.327	1257.143	1066.048
-17.706	32.396	1255.906	1065.346
-16.692	32.254	1254.996	1063.729
-15.677	32.367	1253.972	1063.456
-14.663	32.265	1252.962	1061.983
-13.648	32.203	1252.020	1060.794
-12.633	32.155	1251.300	1059.869
-11.619	32.194	1250.223	1059.136
-10.604	32.250	1249.036	1058.403
-9.590	32.221	1248.171	1057.464
-8.575	32.080	1247.733	1056.262
-7.560	32.297	1246.188	1056.129
-6.546	32.251	1245.559	1055.293
-5.531	32.296	1244.370	1054.498
-4.517	32.245	1243.426	1053.371
-3.502	32.319	1242.951	1053.342
-2.487	32.206	1241.885	1051.761
-1.473	32.118	1237.968	1047.915
-0.458	30.785	1223.222	1028.035
0.556	27.692	1206.231	990.750
1.571	24.288	1211.335	976.248
2.586	23.466	1226.660	983.955
3.600	22.899	1216.363	972.484
4.615	16.962	1143.171	883.071
5.629	6.865	1066.800	774.719
6.644	2.503	1045.986	738.533
7.659	2.058	1043.363	734.475
8.673	1.946	1042.161	733.025
9.688	1.835	1041.180	731.734
10.702	2.440	1039.862	733.648
11.717	8.824	1049.594	771.255
12.731	19.081	1063.703	831.350
13.746	24.021	1069.488	859.724
14.761	25.065	1070.787	865.740
15.775	25.185	1070.475	865.992
16.790	24.921	1070.060	864.306
17.804	25.022	1069.040	863.889
18.819	25.095	1068.582	863.797
19.834	25.257	1067.873	863.925
20.848	25.215	1068.112	863.843
21.863	25.271	1066.897	863.052
22.877	25.188	1066.200	862.013
23.892	25.062	1065.580	860.828
24.907	25.134	1065.168	860.767
25.921	25.109	1063.644	859.337
26.936	25.207	1062.542	858.841
27.950	25.050	1060.920	856.703
28.965	24.969	1059.380	854.998
29.980	25.044	1058.162	854.297
30.994	25.343	1056.881	854.610
32.009	25.166	1056.428	853.324
33.023	25.158	1054.237	851.444
34.038	25.093	1053.973	850.844
35.053	25.197	1053.474	850.860
36.067	25.170	1052.643	849.988
37.082	25.234	1052.267	849.912
38.096	25.403	1051.427	849.956
39.111	25.414	1050.849	849.467
40.126	25.246	1049.515	847.518
41.140	24.969	1047.713	844.685
42.155	24.824	1046.475	842.927
43.169	24.828	1045.624	842.188
44.184	24.897	1044.526	841.552
45.199	24.754	1043.657	840.103
46.213	24.901	1042.441	839.742
47.228	25.063	1041.907	840.000
48.242	25.023	1041.192	839.158
49.257	25.114	1040.846	839.233
50.271	25.194	1039.814	838.702
51.286	25.206	1038.863	837.917
52.301	25.388	1037.459	837.559
53.315	25.169	1037.202	836.255
54.330	25.084	1036.227	834.997
55.344	25.199	1035.417	834.805
56.359	25.204	1034.341	833.889
57.374	25.029	1033.464	832.296
58.388	24.952	1032.707	831.254
59.403	24.779	1032.187	829.961
60.417	24.832	1030.976	829.157
61.432	24.995	1030.341	829.331
62.447	24.987	1030.042	828.975
63.461	25.067	1029.217	828.612
64.476	24.825	1028.478	826.826
65.490	24.957	1027.006	826.177
66.505	25.026	1026.458	825.979
67.520	24.941	1026.263	825.359
68.534	24.883	1024.460	823.571
69.549	24.557	1023.505	821.228
70.563	24.377	1023.201	820.084
71.578	24.437	1022.327	819.587
72.593	24.234	1021.428	817.863
73.607	24.456	1021.036	818.497
74.622	24.844	1020.307	819.615
75.636	24.912	1019.598	819.286
76.651	24.683	1018.794	817.520
77.666	24.525	1018.434	816.434
78.680	24.576	1017.900	816.171
79.695	24.671	1017.062	815.857
80.709	24.883	1016.176	816.042
81.724	24.691	1015.679	814.697
82.739	24.725	1015.156	814.358
83.753	25.192	1014.171	815.623
84.768	25.388	1014.139	816.415
85.782	25.560	1012.913	816.133
86.797	25.448	1012.090	814.891
87.812	25.263	1011.000	813.104
88.826	25.436	1009.785	812.840
89.841	25.475	1009.250	812.513
90.855	25.417	1008.702	811.738
91.870	25.486	1007.337	810.880
92.884	25.348	1006.292	809.344
93.899	25.388	1005.011	808.423
94.914	25.533	1004.604	808.674
95.928	25.315	1003.559	806.782
96.943	25.043	1002.307	804.485
97.957	24.824	1001.791	803.013
98.972	24.740	1000.365	801.423
99.987	24.972	999.537	801.728
101.001	25.144	998.946	801.953
102.016	25.280	998.048	801.771
103.030	25.147	997.050	800.303
104.045	24.919	996.241	798.568
105.060	24.783	995.117	796.987
106.074	24.908	994.944	797.334
107.089	25.387	994.142	798.756
108.103	25.159	993.221	796.928
109.118	24.968	991.965	795.005
110.133	25.059	990.695	794.319
111.147	24.777	989.648	792.159
112.162	24.737	989.100	791.477
113.176	24.853	988.458	791.402
114.191	24.835	987.329	790.349
115.206	24.393	986.794	787.902
116.220	24.514	986.031	787.755
117.235	24.667	985.211	787.706
118.249	24.532	984.680	786.616
119.264	24.562	983.605	785.822
120.279	24.667	982.804	785.572
121.293	24.665	982.026	784.874
122.308	24.746	981.108	784.424
123.322	24.516	980.073	782.518
124.337	24.519	978.440	781.161
125.352	24.023	977.155	777.899
126.366	23.991	976.143	776.884
127.381	24.629	976.557	779.929
128.395	25.041	976.315	781.464
129.410	25.110	975.008	780.649
130.424	25.134	974.013	779.888
131.439	25.128	973.138	779.095
132.454	25.116	971.973	778.038
133.468	25.121	971.191	777.365
134.483	25.242	970.608	777.356
135.497	25.380	969.521	777.012
136.512	25.499	968.715	776.811
137.527	25.329	968.374	775.737
138.541	25.462	967.385	775.450
139.556	25.316	967.055	774.485
140.570	25.567	966.279	774.877
141.585	25.480	965.250	773.609
142.600	25.556	963.726	772.645
143.614	25.736	963.036	772.796
144.629	25.852	962.570	772.854
145.643	25.557	961.296	770.499
146.658	25.401	959.985	768.709
147.673	25.323	958.845	767.395
148.687	25.268	957.961	766.388
149.702	25.124	957.026	764.958
150.716	25.258	956.086	764.708
151.731	25.134	956.338	764.315
152.746	25.540	955.317	765.157
153.760	25.611	954.206	764.502
154.775	25.623	953.963	764.292
155.789	25.509	953.310	763.215
156.804	25.559	952.302	762.555
157.819	25.626	951.440	762.081
158.833	25.794	950.714	762.143
159.848	25.892	949.440	761.469
160.862	25.670	948.264	759.522
161.877	25.688	947.103	758.601
162.892	25.743	946.439	758.232
163.906	25.524	945.441	756.443
164.921	25.554	944.631	755.856
165.935	25.677	943.697	755.559
166.950	25.500	942.921	754.125
167.964	25.535	942.071	753.527
168.979	25.473	941.069	752.397
169.994	25.392	939.868	751.034
171.008	25.552	939.934	751.690
172.023	25.681	938.646	751.130
173.037	25.383	937.609	748.991
174.052	25.316	936.629	747.863
175.067	25.359	936.230	747.660
176.081	25.323	935.950	747.219
177.096	25.225	935.226	746.166
178.110	25.141	933.963	744.746
179.125	24.941	933.295	743.317
180.140	25.132	932.275	743.229
181.154	25.046	932.713	743.155
182.169	25.343	933.022	744.569
183.183	25.600	932.158	744.878
184.198	25.391	931.179	743.166
185.213	25.547	930.121	742.900
186.227	25.582	929.902	742.805
187.242	25.547	929.019	741.886
188.256	25.554	928.349	741.317
189.271	25.620	927.889	741.154
190.286	25.276	926.870	738.859
191.300	24.666	925.346	735.072
192.315	23.840	923.592	730.220
193.329	23.889	923.415	730.216
194.344	24.868	923.728	734.419
195.359	25.498	923.383	736.664
196.373	25.454	923.601	736.590
197.388	25.400	922.568	735.480
198.402	25.405	921.902	734.905
199.417	25.492	921.401	734.798
200.432	25.275	919.980	732.713
201.446	25.141	919.317	731.572
202.461	25.119	919.214	731.337
203.475	24.248	916.952	725.928
204.490	23.516	915.586	721.805
205.504	24.570	916.188	726.505
206.519	25.078	915.624	728.059
207.534	25.085	915.616	728.015
208.548	25.511	915.334	729.457
209.563	25.361	914.578	728.178
210.577	25.210	913.943	726.998
211.592	25.707	913.913	728.922
212.607	25.528	913.021	727.425
213.621	25.654	912.323	727.311
214.636	25.624	911.959	726.834
215.650	25.570	910.753	725.591
216.665	25.809	909.742	725.687
217.680	25.642	909.379	724.661
218.694	25.241	908.172	722.020
219.709	25.149	907.552	721.095
220.723	25.469	907.203	722.040
221.738	25.505	906.737	721.747
222.753	25.461	905.820	720.779
223.767	25.502	905.871	720.918
224.782	25.768	905.185	721.374
225.796	25.651	904.572	720.353
226.811	25.086	902.926	716.724
227.826	24.434	902.144	713.431
228.840	24.545	901.677	713.443
229.855	24.673	900.897	713.274
230.869	24.334	899.790	710.985
231.884	24.652	900.025	712.375
232.899	25.460	899.767	715.326
233.913	25.512	898.850	714.739
234.928	25.497	898.401	714.260
235.942	25.280	897.915	712.945
236.957	24.893	897.186	710.771
237.972	25.019	896.770	710.876
238.986	24.972	896.246	710.214
240.001	25.147	895.245	710.047
241.015	25.255	894.666	709.953
242.030	25.276	894.333	709.708
243.045	25.460	894.133	710.218
244.059	25.641	893.760	710.572
245.074	25.362	892.745	708.602
246.088	25.126	891.640	706.731
247.103	25.396	891.511	707.628
248.117	25.962	891.428	709.731
249.132	26.215	890.978	710.303
250.147	26.185	890.686	709.892
251.161	26.384	890.403	710.386
252.176	26.372	889.689	709.706
253.190	26.357	889.415	709.366
254.205	26.542	888.489	709.290
255.220	26.497	888.043	708.692
256.234	26.415	887.002	707.481
257.249	26.217	886.389	706.155
258.263	26.248	885.865	705.794
259.278	26.356	885.235	705.654
260.293	26.607	884.410	705.909
261.307	26.455	883.925	704.870
262.322	26.238	882.601	702.907
263.336	25.334	881.087	698.127
264.351	24.239	879.519	692.568
265.366	24.369	879.451	692.959
266.380	25.608	880.204	698.305
267.395	26.004	879.562	699.270
268.409	25.939	878.973	698.488
269.424	26.057	878.496	698.504
270.439	26.163	877.363	697.949
271.453	26.199	877.406	698.063
272.468	26.327	877.331	698.435
273.482	26.417	876.825	698.317
274.497	26.023	875.445	695.639
275.512	25.681	874.722	693.683
276.526	25.999	874.451	694.634
277.541	26.280	873.953	695.255
278.555	26.129	873.238	694.046
279.570	25.675	872.571	691.708
280.585	25.928	871.817	692.024
281.599	26.037	870.532	691.359
282.614	25.542	869.229	688.370
283.628	25.372	869.316	687.725
284.643	25.783	869.030	689.010
285.657	25.442	868.049	686.870
286.672	25.073	867.196	684.725
287.687	25.633	867.404	686.965
288.701	25.849	866.369	686.911
289.716	25.372	865.555	684.386
290.730	25.297	865.305	683.840
291.745	25.184	864.069	682.376
292.760	25.525	863.867	683.454
293.774	26.428	864.796	687.559
294.789	26.756	864.246	688.309
295.803	26.627	863.657	687.291
296.818	26.912	862.638	687.498
297.833	26.269	861.768	684.310
298.847	26.157	861.283	683.440
299.862	26.484	861.293	684.624
300.876	26.706	860.945	685.127
301.891	26.412	860.106	683.286
302.906	26.259	858.613	681.463
303.920	26.390	858.523	681.828
304.935	26.820	858.523	683.388
305.949	26.625	857.743	681.970
306.964	26.500	857.113	680.940
307.979	26.511	856.584	680.499
308.993	26.885	856.582	681.845
310.008	26.758	856.291	681.077
311.022	26.532	855.141	679.251
312.037	26.517	854.334	678.495
313.052	26.109	853.596	676.321
314.066	25.174	851.808	671.345
315.081	24.897	851.275	669.831
316.095	25.917	851.573	673.821
317.110	26.294	851.300	674.951
318.125	25.558	849.701	670.882
319.139	24.375	848.477	665.445
320.154	24.425	848.058	665.244
321.168	25.327	848.526	668.915
322.183	26.053	848.611	671.627
323.197	26.255	847.991	671.827
324.212	26.363	847.997	672.175
325.227	26.438	847.197	671.761
326.241	26.250	846.665	670.581
327.256	26.117	846.239	669.692
328.270	26.118	845.426	668.993
329.285	26.008	844.626	667.892
330.300	25.781	843.549	666.142
331.314	26.088	843.539	667.211
332.329	26.385	843.586	668.287
333.343	26.649	843.155	668.859
334.358	26.553	842.828	668.186
335.373	26.722	842.128	668.198
336.387	26.885	842.084	668.703
337.402	26.996	842.170	669.122
338.416	27.000	841.938	668.893
339.431	27.128	841.725	669.136
340.446	27.215	841.078	668.881
341.460	27.023	840.495	667.652
342.475	26.871	840.106	666.726
343.489	26.771	839.992	666.211
344.504	27.216	839.382	667.300
345.519	27.401	839.140	667.727
346.533	27.438	838.605	667.380
347.548	27.375	838.312	666.858
348.562	27.345	837.697	666.197
349.577	27.116	837.169	664.883
350.592	27.142	836.234	664.176
351.606	27.321	835.464	664.160
352.621	27.257	834.292	662.933
353.635	27.188	833.648	662.112
354.650	26.543	832.108	658.487
355.665	25.586	831.271	654.285
356.679	25.840	830.913	654.869
357.694	26.406	830.327	656.404
358.708	26.376	829.471	655.559
359.723	26.756	829.726	657.081
360.738	26.968	829.527	657.634
361.752	27.132	829.192	657.903
362.767	27.333	828.914	658.352
363.781	27.845	828.291	659.649
364.796	27.677	828.039	658.783
365.810	27.751	827.332	658.431
366.825	27.643	827.372	658.016
367.840	27.490	826.173	656.450
368.854	26.961	825.211	653.723
369.869	27.112	825.183	654.188
370.883	27.055	824.698	653.541
371.898	26.939	824.530	652.932
372.913	27.183	823.544	652.970
373.927	27.184	823.640	652.993
374.942	27.420	823.104	653.356
375.956	27.613	822.853	653.793
376.971	27.562	822.372	653.170
377.986	27.775	822.049	653.618
379.000	27.737	821.252	652.792
380.015	27.646	820.672	651.946
381.029	27.633	820.251	651.509
382.044	27.771	819.789	651.576
383.059	27.686	819.050	650.629
384.073	27.592	818.743	649.989
385.088	27.671	818.044	649.659
386.102	27.476	817.364	648.369
387.117	27.369	816.572	647.302
388.132	27.024	815.423	645.110
389.146	26.642	814.493	642.960
390.161	27.054	814.530	644.395
391.175	27.539	814.604	646.116
392.190	27.169	813.120	643.573
393.205	25.684	811.176	636.727
394.219	24.248	809.393	630.198
395.234	24.350	809.534	630.614
396.248	25.795	810.563	636.470
397.263	27.443	811.221	642.753
398.278	27.191	811.158	641.757
399.292	27.073	810.225	640.545
400.307	26.975	810.116	640.058
401.321	27.152	809.372	640.035
402.336	27.563	809.410	641.456
403.350	27.921	809.644	642.845
404.365	28.193	809.427	643.572
405.380	28.495	808.907	644.161
406.394	28.496	808.462	643.755
407.409	28.328	807.978	642.723
408.423	28.327	807.418	642.216
409.438	28.433	807.291	642.432
410.453	28.427	806.878	642.026
411.467	28.406	806.109	641.282
412.482	28.405	805.805	640.980
413.496	28.578	805.427	641.228
414.511	28.560	805.050	640.809
415.526	28.439	804.603	639.972
416.540	28.251	803.819	638.638
417.555	28.095	803.227	637.565
418.569	28.226	802.872	637.686
419.584	28.164	802.564	637.168
420.599	27.883	801.939	635.637
421.613	111.667	1285.738	1458.972
422.628	96.426	1356.197	1459.100
