DTS Sentinel unit serial number:	SN413079Multiplexer serial number:	ORYXHardware model number:	OX4-SRSoftware version number:	ORYX F/W v4.00 Oryx Data Collector v3.7.2.0data status	okinstallation	princeton_trtdifferential loss correction	single-endedforward channel	channel 1reverse channel	N/Adate	2019/09/16time	17:14:35forward acquisition time	60.00reverse acquisition time	0.00gamma	496.2192k internal	0.2296k external	0.2296temperature offset calibration	0.9966default loss term (dB/km)	0.3790temperature slope calibration	1.0000multiplexer offset coefficient	1.0000multiplexer slope coefficient	1.0000fibre end	0.00T internal ref (°C)	38.94T ext. ref 1 (°C)	15.36T ext. ref 2 (°C)	32.99length (m)	temperature (°C)	Stokes	anti-Stokes-747.200	20.451	0.163	-0.134
-746.185	445.362	0.074	0.165
-745.171	-108.740	-0.141	0.031
-744.156	-200.000	0.020	0.283
-743.142	108.771	-0.169	0.207
-742.127	49.009	-0.144	0.138
-741.112	800.000	0.078	0.343
-740.098	800.000	-0.131	0.462
-739.083	36.620	-0.065	-0.059
-738.069	69.334	-0.279	0.293
-737.054	-200.000	0.026	0.118
-736.039	-200.000	-0.011	-0.171
-735.025	2.531	0.210	0.155
-734.010	94.147	-0.270	-0.313
-732.996	-104.636	-0.088	0.021
-731.981	-35.591	-0.342	0.189
-730.966	-44.912	-0.287	0.146
-729.952	-131.142	-0.287	-0.039
-728.937	-200.000	0.015	-0.254
-727.923	-149.789	-0.046	-0.004
-726.908	144.680	0.094	-0.128
-725.894	-200.000	-0.049	-0.234
-724.879	-200.000	0.042	-0.221
-723.864	800.000	0.069	0.275
-722.850	-54.460	-0.250	0.116
-721.835	171.399	-0.282	0.413
-720.821	-164.542	-0.227	0.011
-719.806	-156.031	-0.398	0.026
-718.791	800.000	0.062	0.240
-717.777	-200.000	0.002	0.131
-716.762	-200.000	0.081	-0.404
-715.748	152.742	-0.166	-0.232
-714.733	-15.828	0.010	-0.007
-713.718	10.689	0.162	-0.126
-712.704	-47.894	0.169	0.084
-711.689	-200.000	-0.023	0.169
-710.675	387.081	-0.014	-0.030
-709.660	-85.583	-0.349	-0.111
-708.645	-154.919	-0.128	-0.009
-707.631	277.195	-0.113	0.205
-706.616	-84.252	0.188	-0.061
-705.602	-30.790	-0.132	0.076
-704.587	161.945	0.167	-0.238
-703.572	-48.318	-0.244	0.120
-702.558	-19.871	0.137	0.086
-701.543	-136.193	0.243	-0.029
-700.529	-200.000	-0.041	-0.286
-699.514	800.000	-0.044	-0.184
-698.499	-72.856	-0.072	-0.027
-697.485	-111.037	-0.179	-0.037
-696.470	800.000	0.036	-0.112
-695.456	52.368	-0.148	-0.144
-694.441	-115.079	-0.060	-0.012
-693.426	-143.349	-0.264	-0.026
-692.412	-37.496	-0.324	0.176
-691.397	46.566	-0.276	-0.261
-690.383	-200.000	-0.016	-0.173
-689.368	684.695	0.088	-0.233
-688.354	-200.000	-0.023	-0.317
-687.339	329.152	0.032	-0.063
-686.324	800.000	-0.148	-0.455
-685.310	-131.247	0.018	0.002
-684.295	-200.000	0.004	0.115
-683.281	-155.769	0.237	-0.015
-682.266	6.539	0.255	-0.193
-681.251	-31.175	0.115	-0.066
-680.237	800.000	0.075	0.259
-679.222	64.781	0.084	0.087
-678.208	-200.000	0.049	0.246
-677.193	-38.425	-0.262	-0.141
-676.178	800.000	0.042	0.172
-675.164	-56.865	0.037	-0.017
-674.149	6.059	-0.338	-0.255
-673.135	-56.791	-0.111	-0.050
-672.120	-134.846	0.125	-0.015
-671.105	48.649	0.218	0.208
-670.091	-46.711	-0.208	0.104
-669.076	164.970	-0.080	-0.115
-668.062	-200.000	-0.001	-0.143
-667.047	-46.023	-0.061	-0.031
-666.032	105.089	-0.112	-0.134
-665.018	149.878	-0.130	0.180
-664.003	785.783	-0.195	-0.544
-662.989	-200.000	-0.052	-0.296
-661.974	-130.367	0.272	0.038
-660.959	284.396	-0.067	-0.123
-659.945	-200.000	0.002	0.123
-658.930	377.994	0.127	-0.265
-657.916	-112.356	0.333	-0.068
-656.901	325.719	-0.116	-0.227
-655.886	104.668	0.108	0.130
-654.872	-200.000	0.045	-0.387
-653.857	800.000	0.039	-0.111
-652.843	42.293	0.159	0.147
-651.828	568.407	-0.176	0.434
-650.814	-146.869	-0.235	-0.021
-649.799	-134.096	-0.506	0.064
-648.784	76.369	0.133	0.143
-647.770	245.396	0.016	0.028
-646.755	539.948	-0.037	-0.089
-645.741	-6.072	0.157	-0.109
-644.726	110.541	0.290	-0.355
-643.711	17.325	0.442	0.357
-642.697	-200.000	-0.019	-0.219
-641.682	-12.502	0.050	-0.033
-640.668	-200.000	0.061	-0.303
-639.653	180.606	0.127	-0.190
-638.638	-200.000	-0.019	0.158
-637.624	-137.834	-0.068	0.008
-636.609	-133.485	0.069	0.009
-635.595	-200.000	-0.000	0.089
-634.580	252.593	0.191	0.332
-633.565	800.000	-0.047	0.146
-632.551	253.446	-0.097	0.169
-631.536	447.499	-0.063	0.140
-630.522	9.940	0.136	0.105
-629.507	-200.000	-0.019	0.185
-628.492	-89.286	-0.539	0.162
-627.478	-200.000	-0.033	0.259
-626.463	-200.000	0.021	0.118
-625.449	78.586	0.141	0.153
-624.434	800.000	0.070	-0.275
-623.419	150.461	-0.104	-0.144
-622.405	494.823	-0.051	0.120
-621.390	-32.913	0.177	-0.100
-620.376	-88.089	-0.215	0.066
-619.361	-200.000	0.009	0.219
-618.346	-149.655	-0.206	0.017
-617.332	-200.000	0.022	-0.112
-616.317	-137.028	-0.168	-0.020
-615.303	-133.062	0.293	0.038
-614.288	23.249	0.135	0.113
-613.273	240.753	0.021	0.035
-612.259	-200.000	0.007	0.135
-611.244	-78.660	-0.181	-0.063
-610.230	-138.108	0.204	-0.023
-609.215	-195.675	-0.322	0.002
-608.201	-200.000	-0.012	0.063
-607.186	800.000	0.076	-0.229
-606.171	-54.007	-0.145	-0.067
-605.157	-61.985	-0.105	-0.044
-604.142	-200.000	-0.007	0.308
-603.128	-115.397	-0.167	-0.032
-602.113	145.789	-0.166	-0.226
-601.098	-99.062	-0.181	-0.047
-600.084	-200.000	-0.037	-0.410
-599.069	-18.658	-0.154	-0.097
-598.055	-144.380	0.229	0.022
-597.040	-200.000	0.058	-0.260
-596.025	585.267	-0.160	-0.399
-595.011	682.949	-0.111	-0.293
-593.996	79.423	-0.155	-0.169
-592.982	23.064	-0.048	-0.040
-591.967	65.817	-0.155	0.159
-590.952	-90.518	0.128	-0.038
-589.938	-200.000	-0.002	-0.122
-588.923	43.777	0.071	-0.066
-587.909	-200.000	-0.050	0.278
-586.894	42.889	0.241	0.223
-585.879	-200.000	-0.018	0.085
-584.865	800.000	0.042	-0.133
-583.850	-111.156	-0.203	-0.042
-582.836	-200.000	0.045	0.214
-581.821	-200.000	0.061	-0.302
-580.806	142.293	-0.256	-0.345
-579.792	800.000	-0.052	-0.175
-578.777	-103.614	0.317	-0.075
-577.763	197.867	0.054	-0.083
-576.748	121.303	-0.194	0.245
-575.733	103.123	-0.068	0.081
-574.719	800.000	0.100	0.336
-573.704	25.335	0.238	0.201
-572.690	111.960	0.450	-0.551
-571.675	-122.505	-0.049	-0.008
-570.661	800.000	0.137	-0.397
-569.646	-96.510	0.232	-0.062
-568.631	111.178	0.192	0.235
-567.617	-200.000	-0.129	-0.000
-566.602	-19.436	-0.283	0.178
-565.588	800.000	-0.014	0.050
-564.573	506.937	0.078	0.183
-563.558	-115.629	-0.082	0.016
-562.544	800.000	0.070	-0.205
-561.529	76.849	0.074	0.079
-560.515	-67.413	0.191	-0.076
-559.500	-200.000	0.013	0.206
-558.485	-196.662	0.351	0.002
-557.471	133.207	-0.031	0.040
-556.456	-59.392	-0.292	0.127
-555.442	-43.228	0.469	-0.241
-554.427	3.804	0.150	-0.111
-553.412	-91.885	-0.196	0.056
-552.398	-200.000	-0.062	-0.282
-551.383	-32.329	0.119	-0.067
-550.369	58.586	0.151	-0.151
-549.354	384.857	-0.222	-0.464
-548.339	-53.297	0.116	-0.054
-547.325	-34.505	0.226	-0.126
-546.310	-26.012	-0.079	-0.047
-545.296	-200.000	-0.052	-0.530
-544.281	-99.203	0.246	0.063
-543.266	0.878	0.187	-0.136
-542.252	-83.198	-0.389	-0.127
-541.237	184.788	0.051	0.077
-540.223	800.000	-0.039	0.115
-539.208	-81.085	-0.258	0.086
-538.193	-161.064	-0.359	-0.019
-537.179	-53.176	-0.230	-0.107
-536.164	-200.000	0.023	-0.187
-535.150	88.507	-0.226	0.255
-534.135	-200.000	0.074	0.415
-533.121	-152.316	-0.182	-0.013
-532.106	95.216	-0.226	0.261
-531.091	111.288	0.255	-0.312
-530.077	-41.295	-0.066	0.034
-529.062	124.500	0.175	0.223
-528.048	186.870	-0.106	0.159
-527.033	683.358	0.030	0.079
-526.018	-39.982	-0.253	-0.134
-525.004	315.144	0.113	-0.215
-523.989	-200.000	-0.016	0.303
-522.975	117.648	-0.126	0.157
-521.960	-120.041	-0.130	0.023
-520.945	378.218	0.171	-0.355
-519.931	-20.141	-0.210	-0.131
-518.916	800.000	-0.028	-0.104
-517.902	-108.040	-0.375	-0.082
-516.887	15.981	0.199	-0.159
-515.872	-40.165	-0.206	0.109
-514.858	-11.112	0.205	0.137
-513.843	-37.576	0.163	0.088
-512.829	-200.000	-0.008	-0.381
-511.814	-64.417	0.340	0.140
-510.799	-79.992	-0.271	-0.092
-509.785	268.357	0.025	-0.044
-508.770	800.000	-0.039	0.162
-507.756	569.330	0.026	-0.064
-506.741	267.854	0.136	0.241
-505.726	-29.135	0.340	0.197
-504.712	25.576	-0.253	0.213
-503.697	29.639	0.318	0.274
-502.683	-200.000	-0.012	0.179
-501.668	-175.415	0.049	-0.001
-500.653	60.628	-0.201	0.202
-499.639	-200.000	-0.025	0.362
-498.624	-200.000	-0.015	-0.075
-497.610	528.617	-0.035	-0.084
-496.595	595.367	-0.095	0.238
-495.581	-72.700	0.298	-0.111
-494.566	-200.000	0.021	0.122
-493.551	-200.000	-0.025	0.111
-492.537	106.507	0.303	0.364
-491.522	800.000	0.086	0.270
-490.508	-155.693	0.397	0.026
-489.493	-96.842	0.203	-0.054
-488.478	-13.931	-0.166	-0.108
-487.464	125.082	0.147	-0.187
-486.449	307.327	0.018	0.035
-485.435	431.496	0.044	-0.096
-484.420	47.148	0.198	-0.187
-483.405	-90.043	0.100	-0.029
-482.391	78.274	-0.163	-0.175
-481.376	-134.212	-0.188	0.023
-480.362	674.654	0.067	0.176
-479.347	-40.199	-0.276	-0.145
-478.332	-118.543	0.289	-0.052
-477.318	800.000	0.084	-0.267
-476.303	262.789	0.193	-0.338
-475.289	-200.000	0.037	-0.182
-474.274	-34.667	-0.127	-0.070
-473.259	18.333	-0.177	0.143
-472.245	-200.000	0.012	-0.118
-471.230	-200.000	-0.023	-0.147
-470.216	800.000	0.064	-0.210
-469.201	-82.895	0.375	0.122
-468.186	-144.375	0.341	-0.032
-467.172	196.724	-0.085	0.132
-466.157	-200.000	0.057	-0.341
-465.143	-166.501	-0.120	-0.005
-464.128	268.698	0.031	0.056
-463.113	-197.419	0.329	0.002
-462.099	-115.979	0.444	0.084
-461.084	13.357	-0.333	0.261
-460.070	-98.915	-0.159	-0.041
-459.055	-7.638	0.424	-0.290
-458.040	34.736	-0.293	0.259
-457.026	-7.103	-0.015	-0.010
-456.011	-200.000	0.104	0.000
-454.997	-45.448	0.129	0.065
-453.982	800.000	0.030	0.089
-452.968	-63.783	-0.300	-0.124
-451.953	-81.745	0.055	0.018
-450.938	-40.573	0.412	0.216
-449.924	-88.218	0.371	0.112
-448.909	-129.233	-0.368	0.052
-447.895	64.043	-0.189	-0.192
-446.880	-154.696	0.213	0.014
-445.865	-23.751	0.183	0.111
-444.851	800.000	-0.071	-0.284
-443.836	-200.000	0.007	-0.114
-442.822	131.914	0.111	0.145
-441.807	-200.000	0.055	0.302
-440.792	24.165	-0.264	-0.220
-439.778	-178.422	0.220	-0.005
-438.763	17.168	0.091	0.073
-437.749	-159.067	0.192	-0.011
-436.734	-138.473	-0.157	0.017
-435.719	690.099	0.106	-0.280
-434.705	-200.000	-0.061	0.289
-433.690	170.433	-0.064	0.093
-432.676	-200.000	0.042	0.309
-431.661	109.042	-0.079	0.095
-430.646	-152.213	0.260	-0.019
-429.632	-115.609	-0.298	-0.056
-428.617	130.216	-0.102	0.132
-427.603	-9.684	-0.225	-0.152
-426.588	-36.498	-0.046	-0.025
-425.573	-0.294	-0.095	-0.068
-424.559	800.000	0.030	-0.122
-423.544	388.753	-0.096	-0.200
-422.530	-114.864	0.185	0.036
-421.515	762.522	0.081	-0.223
-420.500	27.820	0.117	0.099
-419.486	-200.000	0.033	0.350
-418.471	745.982	-0.157	0.426
-417.457	219.920	-0.082	-0.132
-416.442	50.762	-0.090	-0.086
-415.428	-200.000	-0.004	0.096
-414.413	800.000	-0.037	0.106
-413.398	336.981	0.041	0.080
-412.384	267.834	0.154	-0.271
-411.369	42.488	0.056	0.051
-410.355	549.216	0.070	0.169
-409.340	-46.124	-0.071	-0.035
-408.325	-200.000	-0.005	-0.147
-407.311	-200.000	-0.005	-0.058
-406.296	243.056	0.044	0.075
-405.282	191.796	0.238	0.362
-404.267	27.262	0.005	-0.004
-403.252	-200.000	-0.314	0.001
-402.238	113.242	-0.071	-0.087
-401.223	59.389	-0.240	-0.238
-400.209	430.743	-0.076	-0.166
-399.194	-11.440	0.115	-0.076
-398.179	800.000	-0.057	0.239
-397.165	-122.723	0.557	-0.091
-396.150	31.479	-0.065	0.056
-395.136	-200.000	-0.028	-0.152
-394.121	-132.999	-0.123	-0.016
-393.106	344.327	0.208	-0.412
-392.092	-39.425	-0.288	-0.152
-391.077	-151.507	0.403	-0.030
-390.063	363.705	-0.178	0.362
-389.048	218.528	0.179	0.288
-388.033	-121.781	-0.596	0.099
-387.019	800.000	0.014	-0.043
-386.004	168.699	0.267	-0.384
-384.990	-6.269	0.042	-0.029
-383.975	800.000	0.106	-0.384
-382.960	-80.004	-0.224	-0.076
-381.946	723.447	-0.026	-0.069
-380.931	219.167	0.095	-0.152
-379.917	183.202	0.122	0.181
-378.902	-176.431	-0.013	0.000
-377.888	-55.286	0.127	-0.058
-376.873	-200.000	-0.031	0.381
-375.858	220.143	-0.246	-0.397
-374.844	-13.193	-0.337	0.221
-373.829	-54.290	0.134	-0.061
-372.815	68.465	-0.175	-0.181
-371.800	-8.035	-0.317	0.215
-370.785	454.698	0.092	-0.204
-369.771	-69.539	-0.341	-0.132
-368.756	244.170	-0.147	0.248
-367.742	-200.000	-0.025	0.122
-366.727	-104.207	0.044	0.010
-365.712	-200.000	0.022	0.202
-364.698	42.379	0.026	0.024
-363.683	-54.500	-0.179	0.082
-362.669	-35.986	0.048	0.026
-361.654	55.337	-0.103	0.100
-360.639	136.016	0.180	0.236
-359.625	-14.933	-0.143	-0.092
-358.610	-200.000	-0.040	0.315
-357.596	233.349	0.090	0.149
-356.581	-129.335	-0.316	0.044
-355.566	29.160	0.155	-0.133
-354.552	-8.059	-0.083	0.056
-353.537	2.892	-0.127	0.093
-352.523	-28.717	0.074	0.043
-351.508	800.000	-0.063	0.196
-350.493	-139.866	0.092	0.010
-349.479	147.713	0.111	-0.151
-348.464	-53.952	-0.109	-0.050
-347.450	368.649	0.063	-0.129
-346.435	670.514	-0.156	0.406
-345.420	-138.947	0.071	0.008
-344.406	51.132	-0.144	0.137
-343.391	800.000	-0.084	0.332
-342.377	800.000	-0.094	-0.274
-341.362	11.449	0.050	0.038
-340.348	-156.515	-0.062	0.004
-339.333	-98.513	-0.024	0.006
-338.318	-200.000	-0.004	0.086
-337.304	54.048	0.124	-0.120
-336.289	34.616	0.135	0.118
-335.275	800.000	-0.019	0.063
-334.260	-68.345	-0.376	0.147
-333.245	304.766	-0.033	0.061
-332.231	-200.000	0.030	-0.325
-331.216	325.336	-0.079	-0.152
-330.202	-116.828	-0.320	0.059
-329.187	-66.325	0.059	-0.024
-328.172	543.652	0.086	0.207
-327.158	-162.664	-0.178	-0.009
-326.143	-68.988	0.177	-0.069
-325.129	-200.000	-0.005	-0.468
-324.114	-62.905	-0.195	0.081
-323.099	-2.935	0.190	-0.133
-322.085	129.345	-0.197	-0.252
-321.070	215.919	-0.022	-0.035
-320.056	249.036	-0.120	0.204
-319.041	-200.000	-0.005	-0.077
-318.026	-200.000	0.010	0.083
-317.012	307.615	0.152	-0.284
-315.997	-200.000	0.009	-0.242
-314.983	800.000	-0.114	0.333
-313.968	-21.517	-0.068	0.042
-312.953	14.422	0.238	-0.186
-311.939	393.118	-0.036	0.075
-310.924	599.545	0.045	-0.112
-309.910	-10.382	-0.235	0.156
-308.895	-35.674	-0.120	-0.065
-307.880	-38.425	-0.220	-0.117
-306.866	453.065	-0.175	0.389
-305.851	-152.602	0.244	-0.017
-304.837	61.812	0.200	0.200
-303.822	-99.853	-0.240	-0.060
-302.807	-125.826	0.261	0.040
-301.793	175.302	0.121	0.175
-300.778	-200.000	0.079	-0.447
-299.764	6.121	0.055	0.041
-298.749	74.032	0.276	-0.291
-297.735	-62.315	-0.177	-0.074
-296.720	-52.853	0.114	-0.053
-295.705	450.102	-0.057	-0.126
-294.691	-99.176	-0.248	0.063
-293.676	-160.879	0.279	0.015
-292.662	-200.000	0.003	-0.195
-291.647	-41.903	0.131	0.067
-290.632	56.463	0.066	0.065
-289.618	-183.837	-0.457	0.008
-288.603	-22.143	0.212	-0.129
-287.589	-200.000	0.007	-0.091
-286.574	281.064	-0.095	-0.171
-285.559	-139.092	-0.271	0.029
-284.545	106.296	-0.084	-0.100
-283.530	359.882	-0.064	-0.128
-282.516	6.289	-0.294	-0.219
-281.501	622.004	0.078	0.196
-280.486	746.466	-0.038	0.102
-279.472	20.964	0.019	-0.016
-278.457	140.303	0.137	-0.181
-277.443	-117.932	-0.203	0.036
-276.428	11.995	0.097	0.075
-275.413	70.449	0.022	-0.023
-274.399	-108.487	0.273	-0.059
-273.384	-14.201	0.286	0.185
-272.370	-82.191	-0.398	-0.130
-271.355	10.069	0.063	0.048
-270.340	20.102	0.178	-0.144
-269.326	-200.000	-0.022	0.259
-268.311	-63.000	-0.348	-0.144
-267.297	111.626	-0.087	0.105
-266.282	-149.784	0.160	0.013
-265.267	-184.683	-0.030	0.000
-264.253	800.000	0.120	-0.463
-263.238	-3.120	0.192	-0.135
-262.224	358.404	0.033	0.066
-261.209	800.000	0.089	0.361
-260.195	55.090	-0.304	0.295
-259.180	-172.492	0.394	0.013
-258.165	-126.434	0.192	-0.029
-257.151	-65.643	-0.124	0.050
-256.136	800.000	-0.046	0.183
-255.122	800.000	-0.058	-0.171
-254.107	-200.000	-0.102	-0.000
-253.092	-7.152	-0.231	0.157
-252.078	308.758	-0.157	0.293
-251.063	-24.080	0.433	0.259
-250.049	-135.200	-0.154	-0.019
-249.034	-116.392	0.104	0.019
-248.019	-152.748	-0.190	0.014
-247.005	-5.726	0.239	0.164
-245.990	-200.000	0.015	0.159
-244.976	70.003	-0.150	-0.155
-243.961	732.811	-0.044	-0.118
-242.946	-37.410	0.158	0.085
-241.932	-173.424	0.417	-0.013
-240.917	149.087	0.091	0.123
-239.903	340.615	0.101	-0.198
-238.888	800.000	0.075	0.231
-237.873	-200.000	0.022	0.122
-236.859	-43.887	-0.111	0.056
-235.844	800.000	0.057	-0.198
-234.830	-50.596	-0.353	0.167
-233.815	800.000	-0.032	0.133
-232.800	-136.514	0.244	-0.028
-231.786	-200.000	0.025	-0.229
-230.771	-177.790	-0.236	0.006
-229.757	-70.799	0.103	-0.039
-228.742	-200.000	0.020	-0.239
-227.727	-24.902	-0.298	0.177
-226.713	-49.630	0.040	-0.019
-225.698	-142.220	-0.346	0.034
-224.684	109.044	-0.022	-0.026
-223.669	-61.220	-0.229	0.096
-222.655	800.000	-0.030	0.085
-221.640	-200.000	0.037	0.304
-220.625	-128.237	0.195	-0.028
-219.611	-169.696	-0.082	0.003
-218.596	159.353	-0.174	-0.243
-217.582	10.492	-0.112	-0.085
-216.567	421.562	0.149	-0.321
-215.552	121.467	-0.193	0.241
-214.538	-47.852	-0.122	-0.059
-213.523	33.928	-0.155	0.135
-212.509	-200.000	-0.069	0.503
-211.494	-121.568	-0.094	0.016
-210.479	-200.000	0.017	-0.112
-209.465	221.083	0.161	-0.258
-208.450	800.000	0.099	-0.313
-207.436	-144.335	0.198	-0.018
-206.421	-53.919	0.163	-0.074
-205.406	133.455	0.190	0.246
-204.392	-195.181	-0.369	-0.003
-203.377	-200.000	0.016	0.421
-202.363	-162.489	-0.152	-0.008
-201.348	-200.000	-0.014	-0.196
-200.333	-135.870	0.308	0.036
-199.319	-200.000	-0.048	0.246
-198.304	-11.626	-0.066	0.043
-197.290	-200.000	-0.096	-0.460
-196.275	9.333	-0.210	-0.159
-195.260	-200.000	-0.011	-0.250
-194.246	28.602	0.093	0.078
-193.231	-155.446	0.046	0.003
-192.217	-167.672	0.156	-0.006
-191.202	318.870	0.085	0.162
-190.187	770.294	-0.068	0.185
-189.173	-141.419	0.254	0.026
-188.158	42.979	0.184	-0.168
-187.144	664.443	-0.079	0.203
-186.129	77.377	-0.164	-0.175
-185.114	-16.013	0.133	0.084
-184.100	-200.000	0.005	-0.031
-183.085	-47.610	-0.266	-0.129
-182.071	-94.618	0.170	-0.046
-181.056	112.757	0.132	-0.159
-180.042	-110.636	-0.127	0.026
-179.027	-107.608	0.128	0.028
-178.012	-99.269	0.076	-0.019
-176.998	800.000	-0.037	0.150
-175.983	-128.073	0.260	0.037
-174.969	13.917	-0.177	-0.137
-173.954	43.903	-0.072	-0.066
-172.939	-85.200	0.560	0.175
-171.925	-116.620	-0.333	-0.061
-170.910	208.702	-0.210	-0.328
-169.896	-142.675	-0.102	-0.010
-168.881	-107.876	0.193	0.042
-167.866	420.715	-0.059	-0.127
-166.852	306.554	0.139	0.258
-165.837	293.405	-0.044	0.080
-164.823	-96.993	0.113	-0.030
-163.808	-126.962	0.025	0.004
-162.793	205.468	-0.251	-0.390
-161.779	-70.194	-0.165	0.063
-160.764	192.452	-0.138	0.208
-159.750	131.801	0.150	0.192
-158.735	-200.000	0.007	0.093
-157.720	-129.110	-0.101	-0.014
-156.706	280.842	-0.076	0.136
-155.691	27.921	0.121	0.102
-154.677	-174.870	0.037	-0.001
-153.662	-121.272	0.270	0.045
-152.647	14.779	0.231	0.180
-151.633	54.810	-0.182	-0.175
-150.618	-200.000	-0.032	-0.287
-149.604	28.607	0.201	-0.170
-148.589	-101.145	-0.202	-0.049
-147.574	767.999	-0.094	-0.256
-146.560	800.000	-0.022	0.084
-145.545	-200.000	0.021	0.150
-144.531	27.511	0.226	0.190
-143.516	658.512	-0.069	0.176
-142.502	-200.000	0.014	0.141
-141.487	-117.162	-0.225	0.041
-140.472	-166.680	0.133	0.005
-139.458	193.951	0.161	0.243
-138.443	-11.287	0.091	0.060
-137.429	800.000	0.083	-0.234
-136.414	18.468	0.148	-0.118
-135.399	71.332	-0.214	0.221
-134.385	-43.081	0.215	-0.109
-133.370	800.000	0.076	-0.311
-132.356	41.399	-0.157	-0.142
-131.341	32.869	-0.104	0.090
-130.326	0.972	0.177	0.126
-129.312	464.261	0.158	0.352
-128.297	-103.926	-0.311	-0.072
-127.283	-83.458	-0.198	-0.063
-126.268	156.855	-0.179	-0.246
-125.253	-64.766	-0.179	-0.072
-124.239	224.450	0.183	-0.296
-123.224	800.000	-0.035	-0.109
-122.210	-200.000	-0.002	0.022
-121.195	-58.278	-0.135	-0.059
-120.180	-200.000	0.018	0.329
-119.166	800.000	0.040	-0.148
-118.151	800.000	-0.079	0.305
-117.137	103.553	0.232	-0.272
-116.122	-200.000	-0.006	0.154
-115.107	7.653	0.090	0.067
-114.093	30.976	-0.260	-0.222
-113.078	-18.965	0.312	0.194
-112.064	-100.498	0.061	-0.015
-111.049	398.454	0.048	0.100
-110.034	216.599	-0.127	-0.201
-109.020	57.108	-0.142	-0.138
-108.005	-200.000	-0.067	0.301
-106.991	-59.318	-0.049	0.021
-105.976	800.000	0.048	-0.164
-104.962	72.345	-0.155	-0.161
-103.947	-48.314	0.131	-0.063
-102.932	-170.343	0.156	-0.005
-101.918	-32.461	0.301	-0.167
-100.903	-200.000	-0.006	0.066
-99.889	8.108	0.153	0.114
-98.874	-72.004	0.243	0.090
-97.859	-137.679	0.188	0.021
-96.845	146.959	0.164	-0.220
-95.830	800.000	-0.009	0.027
-94.816	462.956	0.028	0.063
-93.801	-21.507	0.205	-0.125
-92.786	800.000	-0.113	0.344
-91.772	-170.063	-0.189	0.007
-90.757	-117.097	-0.217	-0.039
-89.743	800.000	-0.071	0.210
-88.728	-143.083	-0.181	0.017
-87.713	191.001	-0.191	-0.286
-86.699	81.746	0.152	-0.164
-85.684	3.897	-0.231	-0.168
-84.670	-200.000	-0.024	-0.153
-83.655	-114.469	0.239	-0.046
-82.640	-150.850	-0.079	0.006
-81.626	252.144	-0.122	-0.207
-80.611	-157.810	-0.304	-0.018
-79.597	12.384	-0.109	0.083
-78.582	79.756	-0.047	-0.051
-77.567	-112.259	-0.246	0.049
-76.553	460.162	-0.050	0.111
-75.538	-39.167	0.156	-0.082
-74.524	-23.126	-0.024	-0.015
-73.509	403.607	-0.094	-0.196
-72.494	494.388	-0.109	-0.249
-71.480	450.303	0.050	-0.109
-70.465	-176.017	0.317	0.008
-69.451	-200.000	0.011	0.080
-68.436	48.242	-0.224	-0.208
-67.422	143.920	0.102	0.135
-66.407	122.106	0.029	-0.036
-65.392	-69.635	0.131	0.050
-64.378	-70.707	0.146	0.055
-63.363	126.373	0.179	0.226
-62.349	-200.000	0.006	-0.101
-61.334	59.924	-0.761	-0.748
-60.319	-5.019	0.436	0.298
-59.305	191.530	-0.278	-0.417
-58.290	346.044	0.303	0.592
-57.276	301.239	0.793	1.457
-56.261	-200.000	83.595	527.972
-55.246	525.973	1346.338	3152.652
-54.232	150.357	2556.976	3451.835
-53.217	115.023	2215.449	2688.114
-52.203	50.089	1670.485	1567.776
-51.188	42.380	1403.099	1268.308
-50.173	38.981	1358.402	1207.004
-49.159	57.446	1400.588	1359.998
-48.144	62.840	1419.818	1412.236
-47.130	42.869	1377.490	1247.994
-46.115	39.087	1360.404	1209.245
-45.100	38.743	1356.175	1203.324
-44.086	38.721	1353.540	1200.806
-43.071	38.726	1351.292	1198.792
-42.057	38.757	1349.049	1196.948
-41.042	38.809	1346.947	1195.354
-40.027	38.872	1345.699	1194.577
-39.013	38.817	1344.139	1192.811
-37.998	38.720	1342.465	1190.690
-36.984	38.956	1340.450	1190.291
-35.969	38.946	1338.192	1188.176
-34.954	38.829	1337.077	1186.430
-33.940	38.984	1335.274	1185.718
-32.925	39.049	1333.985	1184.921
-31.911	38.982	1332.583	1183.221
-30.896	38.988	1330.946	1181.761
-29.881	39.101	1329.375	1180.996
-28.867	39.010	1328.211	1179.370
-27.852	39.058	1326.742	1178.306
-26.838	39.132	1325.174	1177.310
-25.823	38.998	1323.929	1175.355
-24.809	38.961	1322.485	1173.804
-23.794	39.034	1320.583	1172.505
-22.779	39.077	1319.326	1171.602
-21.765	39.124	1317.853	1170.529
-20.750	39.007	1316.879	1168.918
-19.736	38.846	1316.080	1167.204
-18.721	38.889	1314.696	1166.188
-17.706	38.885	1313.818	1165.341
-16.692	38.966	1311.743	1163.931
-15.677	38.959	1311.340	1163.489
-14.663	38.891	1310.416	1162.215
-13.648	38.923	1309.047	1161.146
-12.633	38.915	1307.887	1160.027
-11.619	38.760	1307.752	1158.944
-10.604	38.898	1306.351	1158.467
-9.590	38.839	1305.279	1157.127
-8.575	38.916	1304.219	1156.594
-7.560	38.893	1303.298	1155.596
-6.546	38.933	1302.503	1155.082
-5.531	38.826	1302.038	1153.989
-4.517	38.867	1300.822	1153.109
-3.502	38.946	1299.796	1152.617
-2.487	38.846	1298.731	1151.040
-1.473	38.881	1294.809	1147.723
-0.458	37.278	1279.069	1124.455
0.556	31.520	1258.702	1078.920
1.571	26.841	1262.778	1055.168
2.586	25.417	1277.958	1059.370
3.600	24.829	1267.549	1047.209
4.615	22.417	1200.177	978.080
5.629	18.179	1127.495	896.596
6.644	15.605	1107.321	867.208
7.659	15.302	1105.060	863.803
8.673	15.256	1103.704	862.427
9.688	15.298	1102.088	861.302
10.702	15.476	1100.503	860.901
11.717	18.176	1104.035	877.459
12.731	20.926	1107.370	894.164
13.746	19.876	1104.162	886.117
14.761	17.719	1100.924	872.417
15.775	16.601	1098.174	864.451
16.790	15.536	1096.027	857.250
17.804	14.731	1094.568	851.933
18.819	14.180	1093.119	847.920
19.834	13.951	1091.811	845.665
20.848	13.581	1091.357	843.356
21.863	13.374	1090.267	841.385
22.877	13.177	1089.770	839.927
23.892	13.270	1088.839	839.608
24.907	13.187	1088.175	838.598
25.921	13.237	1087.044	837.905
26.936	13.256	1085.627	836.838
27.950	13.345	1084.393	836.262
28.965	13.336	1082.419	834.622
29.980	13.384	1081.105	833.773
30.994	13.453	1079.704	832.969
32.009	13.524	1078.477	832.305
33.023	13.438	1077.679	831.181
34.038	13.457	1076.417	830.232
35.053	13.420	1075.407	829.195
36.067	13.240	1075.417	828.228
37.082	13.487	1073.775	828.127
38.096	13.417	1073.269	827.312
39.111	13.393	1072.361	826.417
40.126	13.368	1071.020	825.186
41.140	13.339	1069.184	823.554
42.155	13.197	1068.683	822.389
43.169	13.139	1067.921	821.440
44.184	13.117	1066.740	820.350
45.199	13.145	1065.420	819.401
46.213	13.235	1064.458	819.037
47.228	13.351	1063.554	818.840
48.242	13.341	1062.408	817.839
49.257	13.159	1061.596	816.239
50.271	13.334	1060.319	816.050
51.286	13.438	1059.777	816.075
52.301	13.255	1058.491	814.112
53.315	13.253	1057.408	813.195
54.330	13.267	1056.298	812.340
55.344	13.212	1055.586	811.449
56.359	13.289	1054.501	810.920
57.374	13.273	1053.939	810.339
58.388	13.223	1052.965	809.272
59.403	13.066	1052.375	807.982
60.417	13.092	1051.093	807.052
61.432	13.195	1050.038	806.671
62.447	13.251	1049.273	806.285
63.461	13.100	1048.804	805.117
64.476	13.049	1048.038	804.212
65.490	13.146	1047.275	804.025
66.505	13.104	1046.356	803.047
67.520	13.111	1045.674	802.486
68.534	13.099	1045.333	802.095
69.549	13.126	1043.949	801.092
70.563	13.058	1043.019	799.980
71.578	13.085	1042.230	799.432
72.593	13.066	1041.799	798.939
73.607	13.141	1040.990	798.611
74.622	13.047	1040.827	797.962
75.636	13.078	1039.883	797.315
76.651	13.015	1039.197	796.419
77.666	13.058	1038.654	796.138
78.680	13.057	1037.890	795.476
79.695	13.074	1037.316	795.046
80.709	13.265	1036.259	795.088
81.724	13.147	1035.929	794.194
82.739	13.220	1034.849	793.648
83.753	13.304	1033.931	793.276
84.768	13.360	1033.302	792.990
85.782	13.266	1032.681	791.993
86.797	13.374	1031.486	791.523
87.812	13.294	1030.780	790.533
88.826	13.394	1029.327	789.825
89.841	13.398	1028.004	788.758
90.855	13.302	1027.949	788.189
91.870	13.429	1026.673	787.746
92.884	13.427	1026.107	787.232
93.899	13.427	1025.035	786.337
94.914	13.522	1024.090	785.995
95.928	13.465	1023.468	785.177
96.943	13.539	1022.301	784.566
97.957	13.429	1021.574	783.418
98.972	13.525	1020.816	783.222
99.987	13.507	1019.711	782.218
101.001	13.342	1018.782	780.658
102.016	13.477	1017.848	780.507
103.030	13.497	1017.011	779.890
104.045	13.347	1016.542	778.757
105.060	13.392	1015.206	777.878
106.074	13.266	1014.845	776.940
107.089	13.158	1013.828	775.584
108.103	13.246	1012.860	775.186
109.118	13.161	1012.084	774.126
110.133	13.235	1011.264	773.777
111.147	13.342	1009.650	772.977
112.162	13.217	1009.430	772.152
113.176	13.342	1008.487	771.946
114.191	13.274	1007.588	770.874
115.206	13.312	1006.937	770.486
116.220	13.320	1006.201	769.892
117.235	13.203	1005.597	768.817
118.249	13.310	1004.281	768.240
119.264	13.223	1003.783	767.384
120.279	13.355	1002.701	767.102
121.293	13.238	1002.099	766.031
122.308	13.227	1001.025	765.095
123.322	13.276	1000.063	764.515
124.337	13.290	998.960	763.673
125.352	13.328	998.068	763.097
126.366	13.340	996.814	762.127
127.381	13.176	996.312	760.919
128.395	13.208	995.417	760.316
129.410	13.324	994.428	760.024
130.424	13.330	993.623	759.371
131.439	13.449	992.667	759.121
132.454	13.485	991.857	758.595
133.468	13.407	991.366	757.799
134.483	13.537	990.306	757.514
135.497	13.425	989.477	756.300
136.512	13.528	988.455	755.924
137.527	13.458	987.787	755.028
138.541	13.436	987.159	754.378
139.556	13.514	986.159	753.903
140.570	13.582	985.200	753.414
141.585	13.592	984.694	753.004
142.600	13.590	983.597	752.091
143.614	13.581	983.062	751.573
144.629	13.608	982.464	751.175
145.643	13.666	981.407	750.559
146.658	13.524	980.177	748.911
147.673	13.523	979.543	748.355
148.687	13.447	978.638	747.257
149.702	13.384	977.840	746.295
150.716	13.434	977.016	745.826
151.731	13.474	976.243	745.351
152.746	13.457	975.208	744.419
153.760	13.527	974.460	744.098
154.775	13.525	974.334	743.926
155.789	13.651	973.074	743.461
156.804	13.656	972.490	742.974
157.819	13.572	972.035	742.184
158.833	13.651	971.415	741.997
159.848	13.803	970.222	741.699
160.862	13.672	969.720	740.663
161.877	13.535	968.869	739.337
162.892	13.456	967.501	737.879
163.906	13.577	966.731	737.765
164.921	13.684	965.773	737.442
165.935	13.615	964.957	736.450
166.950	13.643	964.154	735.893
167.964	13.572	963.342	734.895
168.979	13.575	961.854	733.709
169.994	13.739	960.952	733.678
171.008	13.739	960.194	733.036
172.023	13.674	959.602	732.233
173.037	13.830	958.842	732.274
174.052	13.682	958.264	731.118
175.067	13.649	957.509	730.333
176.081	13.706	956.968	730.104
177.096	13.752	956.365	729.783
178.110	13.741	956.097	729.463
179.125	13.772	955.267	728.902
180.140	13.611	954.974	727.907
181.154	13.790	954.468	728.244
182.169	13.884	953.677	727.988
183.183	13.965	953.017	727.773
184.198	13.714	952.472	726.197
185.213	13.825	951.785	726.092
186.227	13.900	951.400	726.065
187.242	13.872	950.391	725.105
188.256	13.975	949.345	724.696
189.271	13.901	948.672	723.795
190.286	13.794	947.780	722.584
191.300	13.723	947.240	721.796
192.315	13.684	946.759	721.197
193.329	13.715	946.029	720.713
194.344	13.894	945.534	721.050
195.359	13.935	945.113	720.843
196.373	13.903	944.560	720.217
197.388	13.972	944.233	720.204
198.402	13.995	943.692	719.829
199.417	14.136	942.583	719.529
200.432	14.158	942.403	719.420
201.446	14.123	941.548	718.556
202.461	14.133	941.428	718.442
203.475	14.212	940.609	718.095
204.490	14.062	939.805	716.769
205.504	14.082	938.851	716.064
206.519	14.020	938.149	715.202
207.534	14.046	937.064	714.423
208.548	14.139	936.644	714.436
209.563	14.097	936.158	713.822
210.577	14.137	935.481	713.416
211.592	14.338	934.499	713.465
212.607	14.339	933.745	712.831
213.621	14.206	933.198	711.779
214.636	14.351	932.319	711.665
215.650	14.246	931.596	710.605
216.665	14.288	931.001	710.265
217.680	14.306	930.712	710.060
218.694	14.320	929.850	709.399
219.709	14.200	929.349	708.441
220.723	14.406	928.731	708.786
221.738	14.409	927.768	708.000
222.753	14.440	927.127	707.579
223.767	14.501	926.471	707.277
224.782	14.499	925.894	706.765
225.796	14.509	925.415	706.378
226.811	14.508	924.646	705.724
227.826	14.448	923.970	704.892
228.840	14.487	922.831	704.125
229.855	14.445	922.125	703.349
230.869	14.430	921.404	702.671
231.884	14.400	921.026	702.194
232.899	14.450	920.227	701.733
233.913	14.480	919.257	701.057
234.928	14.520	918.504	700.590
235.942	14.263	918.627	699.542
236.957	14.412	917.812	699.485
237.972	14.481	916.876	698.998
238.986	14.385	916.472	698.227
240.001	14.353	916.145	697.782
241.015	14.376	915.105	697.027
242.030	14.521	914.342	696.990
243.045	14.577	913.830	696.769
244.059	14.510	913.414	696.113
245.074	14.679	912.351	695.944
246.088	14.721	911.512	695.417
247.103	14.653	911.173	694.815
248.117	14.850	910.516	695.070
249.132	14.803	910.300	694.648
250.147	14.977	909.443	694.659
251.161	14.808	909.021	693.573
252.176	14.961	908.305	693.599
253.190	15.009	907.172	692.873
254.205	14.847	906.892	691.923
255.220	15.037	905.911	691.900
256.234	14.976	905.619	691.362
257.249	15.040	904.619	690.804
258.263	15.113	903.931	690.520
259.278	15.010	903.181	689.462
260.293	14.974	903.063	689.163
261.307	15.169	901.966	689.065
262.322	15.162	901.570	688.671
263.336	15.186	900.745	688.082
264.351	15.238	899.851	687.551
265.366	15.101	899.397	686.579
266.380	15.277	898.681	686.696
267.395	15.105	898.292	685.633
268.409	15.177	897.329	685.128
269.424	15.179	896.550	684.484
270.439	14.980	896.353	683.460
271.453	15.073	895.648	683.242
272.468	15.208	894.675	682.988
273.482	15.180	894.451	682.644
274.497	15.281	893.532	682.294
275.512	15.199	892.849	681.376
276.526	15.263	892.404	681.237
277.541	15.363	891.805	681.127
278.555	15.215	891.586	680.296
279.570	15.313	890.787	680.026
280.585	15.389	889.959	679.639
281.599	15.426	889.063	679.046
282.614	15.214	888.778	677.911
283.628	15.282	887.808	677.386
284.643	15.295	887.396	677.064
285.657	15.248	886.515	676.142
286.672	15.329	885.982	676.002
287.687	15.466	885.176	675.878
288.701	15.375	884.770	675.142
289.716	15.461	883.963	674.814
290.730	15.442	883.367	674.222
291.745	15.475	882.811	673.872
292.760	15.510	882.044	673.366
293.774	15.619	881.252	673.138
294.789	15.555	880.894	672.549
295.803	15.533	880.165	671.844
296.818	15.532	879.720	671.442
297.833	15.503	879.133	670.817
298.847	15.477	878.497	670.168
299.862	15.403	878.161	669.560
300.876	15.605	877.506	669.805
301.891	15.642	876.561	669.172
302.906	15.635	876.122	668.749
303.920	15.802	875.446	668.838
304.935	15.825	874.888	668.445
305.949	15.768	874.321	667.728
306.964	15.738	873.416	666.857
307.979	15.671	873.146	666.325
308.993	15.711	872.550	665.973
310.008	15.890	871.583	665.882
311.022	15.777	871.011	664.941
312.037	15.829	870.324	664.563
313.052	15.811	869.827	664.053
314.066	15.835	869.320	663.702
315.081	15.690	868.925	662.771
316.095	15.637	868.377	662.084
317.110	15.877	867.535	662.330
318.125	15.777	867.058	661.511
319.139	15.743	866.523	660.912
320.154	15.814	866.286	660.952
321.168	15.739	865.668	660.126
322.183	15.874	865.109	660.171
323.197	15.863	864.474	659.586
324.212	15.820	864.070	659.052
325.227	15.826	863.355	658.470
326.241	15.859	862.635	657.993
327.256	15.692	862.799	657.403
328.270	15.931	861.743	657.477
329.285	15.881	860.985	656.645
330.300	16.019	859.935	656.323
331.314	15.921	859.834	655.805
332.329	16.042	859.267	655.786
333.343	16.026	859.132	655.563
334.358	16.029	858.379	654.942
335.373	16.047	858.078	654.724
336.387	15.923	857.853	654.014
337.402	16.101	857.804	654.610
338.416	16.215	857.342	654.642
339.431	16.238	856.596	654.105
340.446	16.272	856.172	653.852
341.460	16.330	855.795	653.732
342.475	16.279	855.780	653.467
343.489	16.375	855.034	653.211
344.504	16.343	854.626	652.717
345.519	16.325	854.282	652.324
346.533	16.280	853.730	651.672
347.548	16.331	852.947	651.216
348.562	16.238	852.385	650.371
349.577	16.244	851.931	649.990
350.592	16.182	851.377	649.268
351.606	16.249	850.574	648.856
352.621	16.260	849.712	648.184
353.635	16.317	849.094	647.875
354.650	16.343	848.473	647.442
355.665	16.303	848.251	647.064
356.679	16.491	847.064	646.821
357.694	16.408	846.793	646.240
358.708	16.357	846.005	645.384
359.723	16.442	845.342	645.146
360.738	16.344	845.039	644.483
361.752	16.540	844.308	644.616
362.767	16.493	843.903	644.071
363.781	16.661	843.095	644.038
364.796	16.634	842.657	643.541
365.810	16.819	841.996	643.684
366.825	16.591	842.049	642.800
367.840	16.688	841.336	642.567
368.854	16.610	840.777	641.788
369.869	16.722	840.433	641.892
370.883	16.670	840.196	641.457
371.898	16.734	840.080	641.557
372.913	16.840	839.205	641.233
373.927	16.737	838.681	640.385
374.942	16.835	837.888	640.091
375.956	16.816	837.855	639.941
376.971	16.852	837.399	639.670
377.986	16.883	836.873	639.329
379.000	16.977	836.448	639.302
380.015	17.073	835.325	638.749
381.029	17.015	835.029	638.247
382.044	16.933	834.668	637.606
383.059	16.981	834.140	637.326
384.073	16.959	833.543	636.731
385.088	16.907	832.654	635.803
386.102	17.010	832.256	635.827
387.117	16.980	831.435	635.034
388.132	16.933	831.044	634.501
389.146	16.984	830.543	634.253
390.161	17.142	830.214	634.536
391.175	17.105	829.640	633.903
392.190	16.990	828.772	632.756
393.205	17.122	828.572	633.038
394.219	17.024	828.382	632.472
395.234	16.999	827.978	632.015
396.248	17.057	827.346	631.693
397.263	17.032	827.118	631.370
398.278	16.985	826.775	630.875
399.292	16.983	826.417	630.542
400.307	17.087	825.655	630.291
401.321	17.060	825.078	629.694
402.336	17.123	824.641	629.537
403.350	17.154	824.284	629.322
404.365	17.120	824.174	629.059
405.380	17.186	823.698	628.882
406.394	17.235	822.810	628.331
407.409	17.319	822.821	628.593
408.423	17.430	822.112	628.409
409.438	17.430	821.661	628.008
410.453	17.414	821.007	627.391
411.467	17.311	821.231	627.127
412.482	17.446	820.481	626.998
413.496	17.347	820.137	626.315
414.511	17.421	819.862	626.320
415.526	17.466	819.030	625.794
416.540	17.467	818.818	625.581
417.555	17.638	817.896	625.451
418.569	17.540	817.497	624.732
419.584	17.526	816.966	624.217
420.599	17.592	816.732	624.226
421.613	96.538	1275.810	1403.774
422.628	83.025	1342.700	1403.897
