DTS Sentinel unit serial number:	SN413079Multiplexer serial number:	ORYXHardware model number:	OX4-SRSoftware version number:	ORYX F/W v4.00 Oryx Data Collector v3.7.2.0data status	okinstallation	princeton_trtdifferential loss correction	single-endedforward channel	channel 1reverse channel	N/Adate	2019/09/13time	21:42:35forward acquisition time	60.00reverse acquisition time	0.00gamma	496.2192k internal	0.2331k external	0.2331temperature offset calibration	1.0080default loss term (dB/km)	0.3790temperature slope calibration	1.0000multiplexer offset coefficient	1.0000multiplexer slope coefficient	1.0000fibre end	0.00T internal ref (°C)	28.16T ext. ref 1 (°C)	3.12T ext. ref 2 (°C)	22.93length (m)	temperature (°C)	Stokes	anti-Stokes-747.200	-72.512	0.139	0.052
-746.185	547.784	0.141	0.339
-745.171	-127.520	0.115	0.017
-744.156	32.721	-0.114	0.099
-743.142	-60.566	-0.121	0.052
-742.127	-200.000	-0.013	0.207
-741.112	800.000	0.043	-0.121
-740.098	800.000	0.015	-0.048
-739.083	0.433	-0.134	0.096
-738.069	-77.057	-0.077	0.027
-737.054	333.566	0.168	0.326
-736.039	22.818	-0.149	0.123
-735.025	0.060	0.263	-0.189
-734.010	302.479	-0.083	0.154
-732.996	220.718	-0.168	-0.272
-731.981	-94.445	-0.292	0.080
-730.966	800.000	-0.044	-0.150
-729.952	99.104	-0.244	0.284
-728.937	85.984	-0.051	-0.056
-727.923	-69.258	-0.209	0.081
-726.908	-171.354	0.063	0.002
-725.894	-93.144	-0.302	-0.084
-724.879	290.500	-0.136	-0.249
-723.864	160.700	0.153	-0.215
-722.850	-107.341	0.111	-0.025
-721.835	-25.555	-0.276	0.164
-720.821	800.000	0.101	0.286
-719.806	-94.864	-0.275	-0.075
-718.791	-143.013	0.158	-0.015
-717.777	-200.000	-0.007	-0.159
-716.762	211.522	-0.105	-0.166
-715.748	-16.251	0.295	-0.188
-714.733	-149.992	0.151	-0.012
-713.718	-103.286	-0.274	0.065
-712.704	156.745	-0.133	-0.185
-711.689	800.000	-0.138	-0.484
-710.675	-83.609	0.056	-0.018
-709.660	-168.679	-0.243	0.009
-708.645	-57.287	0.062	0.027
-707.631	770.254	-0.029	0.080
-706.616	-65.270	0.147	0.060
-705.602	63.437	0.080	-0.081
-704.587	-200.000	0.029	0.348
-703.572	-95.231	0.287	-0.078
-702.558	-71.770	-0.316	-0.118
-701.543	109.378	-0.250	-0.301
-700.529	800.000	0.085	-0.294
-699.514	139.870	0.239	-0.317
-698.499	-183.837	0.076	-0.001
-697.485	-200.000	0.011	-0.107
-696.470	73.273	0.172	-0.181
-695.456	64.977	-0.180	0.183
-694.441	-77.561	-0.343	0.119
-693.426	-46.425	0.322	0.159
-692.412	42.804	-0.082	0.075
-691.397	-200.000	0.023	-0.207
-690.383	-16.004	0.076	-0.048
-689.368	15.369	-0.259	0.204
-688.354	-18.989	-0.346	-0.216
-687.339	205.376	-0.091	0.142
-686.324	-11.263	-0.286	0.189
-685.310	-95.232	-0.260	0.070
-684.295	-124.072	-0.086	-0.014
-683.281	-200.000	-0.003	0.026
-682.266	800.000	0.093	-0.264
-681.251	-9.800	0.124	-0.083
-680.237	-200.000	0.021	0.101
-679.222	-200.000	-0.415	0.002
-678.208	63.629	-0.151	0.152
-677.193	-32.011	-0.287	-0.161
-676.178	-193.240	-0.330	-0.003
-675.164	-20.824	-0.020	-0.012
-674.149	-63.176	0.092	0.038
-673.135	36.413	0.124	-0.109
-672.120	-97.803	0.125	-0.032
-671.105	-98.537	-0.066	-0.017
-670.091	-29.766	0.167	-0.095
-669.076	164.788	0.060	-0.086
-668.062	5.965	0.201	-0.149
-667.047	-200.000	-0.051	0.291
-666.032	-200.000	-0.003	-0.048
-665.018	-200.000	0.079	0.427
-664.003	-200.000	-0.003	-0.186
-662.989	-168.958	-0.342	0.013
-661.974	-122.490	0.118	-0.019
-660.959	-8.563	-0.140	-0.094
-659.945	10.180	-0.109	0.083
-658.930	800.000	0.037	-0.117
-657.916	-200.000	-0.004	-0.173
-656.901	101.498	-0.009	0.011
-655.886	-157.927	-0.044	-0.003
-654.872	800.000	0.054	0.153
-653.857	156.077	0.060	0.083
-652.843	59.570	0.091	0.090
-651.828	-14.736	0.296	-0.191
-650.814	4.911	-0.170	0.125
-649.799	800.000	0.050	-0.195
-648.784	57.816	-0.292	0.287
-647.770	582.461	0.128	-0.315
-646.755	800.000	0.045	0.155
-645.741	-51.631	0.071	0.033
-644.726	-200.000	0.005	-0.336
-643.711	-62.754	-0.129	-0.054
-642.697	-133.013	-0.236	0.030
-641.682	-200.000	0.009	0.310
-640.668	28.294	-0.159	-0.135
-639.653	-52.248	0.082	0.038
-638.638	210.071	-0.113	-0.178
-637.624	-114.263	0.191	0.037
-636.609	-89.783	0.261	0.077
-635.595	338.425	-0.121	0.237
-634.580	-26.905	0.066	0.039
-633.565	69.926	-0.128	0.132
-632.551	-10.069	-0.267	0.178
-631.536	235.631	-0.118	-0.195
-630.522	-200.000	0.021	-0.242
-629.507	47.073	0.233	0.217
-628.492	-200.000	-0.015	-0.076
-627.478	2.406	0.147	0.107
-626.463	-152.436	-0.240	-0.017
-625.449	-200.000	-0.019	0.318
-624.434	276.858	0.205	0.365
-623.419	-200.000	-0.034	-0.182
-622.405	-46.804	-0.154	-0.076
-621.390	432.709	0.083	-0.180
-620.376	-103.717	0.159	-0.037
-619.361	-51.968	0.216	0.100
-618.346	-156.941	0.182	0.011
-617.332	-166.607	-0.352	-0.015
-616.317	79.001	0.251	-0.270
-615.303	-49.792	-0.254	-0.121
-614.288	298.905	0.156	0.287
-613.273	17.162	-0.169	0.135
-612.259	-200.000	-0.011	0.056
-611.244	503.964	0.024	-0.055
-610.230	8.024	0.036	0.027
-609.215	800.000	0.050	0.188
-608.201	140.491	-0.108	-0.143
-607.186	-97.961	-0.253	0.065
-606.171	-40.483	0.265	0.138
-605.157	-200.000	-0.014	0.110
-604.142	512.013	-0.034	0.079
-603.128	2.992	0.113	0.082
-602.113	-128.147	0.630	-0.090
-601.098	18.584	-0.190	0.152
-600.084	-200.000	0.027	0.181
-599.069	-92.453	0.181	-0.051
-598.055	32.285	0.227	0.196
-597.040	-26.633	-0.282	0.165
-596.025	-4.528	-0.254	-0.175
-595.011	-115.500	0.316	0.059
-593.996	-89.315	0.190	-0.056
-592.982	-130.504	-0.506	0.068
-591.967	121.289	-0.116	-0.144
-590.952	276.205	-0.068	-0.121
-589.938	21.362	0.101	0.082
-588.923	213.680	0.041	-0.065
-587.909	-75.695	-0.210	0.075
-586.894	664.360	0.050	-0.129
-585.879	-200.000	0.114	-0.578
-584.865	199.674	-0.311	-0.478
-583.850	373.458	0.079	-0.160
-582.836	-23.056	-0.299	0.180
-581.821	-5.072	0.197	-0.136
-580.806	-38.642	-0.131	0.069
-579.792	73.792	-0.128	-0.135
-578.777	800.000	-0.053	0.148
-577.763	-123.989	0.230	-0.036
-576.748	-145.104	0.134	0.012
-575.733	73.384	-0.165	0.173
-574.719	46.070	-0.118	0.109
-573.704	144.553	-0.096	0.128
-572.690	800.000	0.005	-0.019
-571.675	-200.000	0.024	-0.450
-570.661	788.529	-0.089	-0.243
-569.646	800.000	0.088	-0.310
-568.631	-39.234	0.073	-0.038
-567.617	107.825	-0.161	-0.192
-566.602	800.000	-0.051	0.188
-565.588	-126.561	-0.225	0.033
-564.573	-186.095	0.402	-0.006
-563.558	-41.929	-0.313	0.161
-562.544	200.106	-0.253	0.388
-561.529	59.677	-0.181	-0.179
-560.515	-181.247	0.170	-0.003
-559.500	14.263	0.087	-0.068
-558.485	-200.000	-0.029	0.224
-557.471	-67.822	0.202	0.079
-556.456	-71.288	-0.419	0.157
-555.442	-79.523	-0.310	-0.105
-554.427	800.000	0.076	0.239
-553.412	100.244	0.171	0.198
-552.398	-52.619	0.202	-0.093
-551.383	-34.547	-0.051	0.028
-550.369	-200.000	0.039	0.393
-549.354	-15.868	0.353	0.224
-548.339	45.488	0.194	-0.179
-547.325	299.765	-0.119	0.220
-546.310	179.587	-0.154	0.226
-545.296	800.000	-0.036	0.102
-544.281	-48.523	-0.467	-0.224
-543.266	81.242	0.161	0.173
-542.252	273.351	-0.181	-0.319
-541.237	-72.994	0.100	-0.037
-540.223	-34.341	0.073	-0.040
-539.208	-123.786	-0.143	0.023
-538.193	658.181	-0.051	0.130
-537.179	-12.963	-0.127	-0.083
-536.164	-8.787	-0.185	0.124
-535.150	390.740	-0.145	0.300
-534.135	-76.340	-0.297	-0.104
-533.121	800.000	-0.029	-0.122
-532.106	-127.015	0.130	-0.019
-531.091	44.599	0.232	0.212
-530.077	-200.000	-0.023	0.174
-529.062	800.000	0.078	0.242
-528.048	-134.227	-0.166	-0.020
-527.033	-200.000	0.027	0.128
-526.018	-60.246	-0.378	0.161
-525.004	-197.574	0.203	0.001
-523.989	800.000	-0.042	0.139
-522.975	800.000	-0.022	0.063
-521.960	-22.318	0.086	0.052
-520.945	800.000	-0.106	-0.458
-519.931	43.907	0.113	0.103
-518.916	-200.000	-0.086	0.447
-517.902	6.875	0.188	-0.140
-516.887	14.745	-0.139	-0.108
-515.872	694.107	-0.076	-0.198
-514.858	-6.318	0.044	-0.030
-513.843	4.371	0.102	0.074
-512.829	-113.514	0.237	0.046
-511.814	37.027	0.205	0.181
-510.799	106.841	0.026	0.031
-509.785	237.746	-0.139	-0.229
-508.770	212.012	-0.321	-0.504
-507.756	-93.716	0.107	-0.029
-506.741	-81.331	0.201	-0.066
-505.726	-169.269	0.083	-0.003
-504.712	-94.030	-0.200	-0.055
-503.697	-156.702	0.225	0.014
-502.683	-90.737	0.115	-0.033
-501.668	-33.950	0.149	0.082
-500.653	-185.675	-0.162	0.002
-499.639	-173.023	-0.035	0.001
-498.624	120.302	0.310	-0.383
-497.610	-133.099	-0.043	-0.005
-496.595	-4.986	-0.202	0.139
-495.581	-125.972	-0.237	-0.036
-494.566	-52.302	0.136	0.063
-493.551	-43.352	0.490	0.247
-492.537	-20.375	-0.121	0.074
-491.522	544.128	-0.059	-0.141
-490.508	-200.000	0.013	0.114
-489.493	129.161	0.039	-0.050
-488.478	-98.051	0.086	0.022
-487.464	30.561	-0.321	-0.273
-486.449	-32.469	0.216	0.120
-485.435	-97.960	0.189	0.049
-484.420	-24.933	-0.131	0.077
-483.405	-200.000	0.041	0.272
-482.391	-29.498	-0.215	0.122
-481.376	-162.287	0.249	0.012
-480.362	238.148	-0.110	0.182
-479.347	-9.293	-0.027	0.018
-478.332	115.548	-0.262	0.320
-477.318	-200.000	0.061	-0.361
-476.303	800.000	-0.137	-0.420
-475.289	800.000	0.041	-0.114
-474.274	-156.445	0.137	0.009
-473.259	800.000	0.102	-0.324
-472.245	435.045	0.052	0.113
-471.230	-61.100	0.188	0.079
-470.216	-200.000	-0.009	0.201
-469.201	-175.012	0.212	-0.006
-468.186	148.394	0.047	0.063
-467.172	264.971	-0.117	0.202
-466.157	-39.870	0.388	-0.202
-465.143	-200.000	-0.026	0.221
-464.128	-121.727	0.226	0.037
-463.113	-196.948	0.145	0.001
-462.099	-87.393	-0.349	0.105
-461.084	-112.327	0.152	-0.030
-460.070	-40.121	0.232	-0.120
-459.055	-91.836	-0.144	-0.041
-458.040	-200.000	-0.026	-0.262
-457.026	-41.717	-0.240	0.123
-456.011	-75.563	-0.421	-0.149
-454.997	-4.700	0.056	-0.038
-453.982	87.186	-0.028	0.030
-452.968	-4.182	0.220	-0.152
-451.953	27.754	0.375	-0.314
-450.938	255.395	0.136	-0.232
-449.924	-7.380	0.089	0.060
-448.909	-200.000	0.008	0.100
-447.895	617.686	0.050	-0.125
-446.880	-200.000	-0.029	-0.324
-445.865	-200.000	-0.032	0.151
-444.851	-200.000	0.040	-0.247
-443.836	-136.458	0.131	-0.015
-442.822	-124.967	-0.276	-0.042
-441.807	-29.142	-0.191	-0.109
-440.792	-150.750	-0.241	-0.018
-439.778	144.738	0.152	-0.202
-438.763	409.781	0.125	-0.264
-437.749	-121.043	-0.078	-0.013
-436.734	-22.280	-0.238	-0.143
-435.719	27.216	-0.135	-0.113
-434.705	800.000	0.062	0.211
-433.690	-160.733	0.266	0.014
-432.676	189.578	0.165	0.246
-431.661	-58.237	0.066	0.028
-430.646	78.157	-0.111	-0.117
-429.632	-160.810	-0.228	-0.012
-428.617	-82.997	-0.093	0.030
-427.603	800.000	-0.034	0.122
-426.588	-37.629	-0.278	0.147
-425.573	46.069	0.092	-0.085
-424.559	574.855	0.069	0.167
-423.544	800.000	0.054	0.160
-422.530	-17.676	0.221	0.138
-421.515	-200.000	-0.003	0.229
-420.500	-138.436	-0.250	-0.027
-419.486	800.000	-0.048	0.145
-418.471	22.819	0.145	-0.118
-417.457	36.981	-0.331	0.291
-416.442	800.000	-0.033	-0.132
-415.428	67.469	-0.195	-0.198
-414.413	-132.912	-0.075	-0.009
-413.398	-87.037	0.513	-0.155
-412.384	-166.168	-0.357	0.015
-411.369	-50.950	-0.140	0.065
-410.355	800.000	-0.063	0.221
-409.340	-200.000	0.042	0.426
-408.325	134.390	-0.197	0.254
-407.311	-190.861	-0.275	0.003
-406.296	800.000	0.016	-0.059
-405.282	-153.110	-0.365	-0.025
-404.267	-4.124	-0.251	0.173
-403.252	-200.000	-0.009	-0.215
-402.238	65.251	-0.109	0.110
-401.223	800.000	0.063	-0.239
-400.209	800.000	0.063	0.180
-399.194	184.361	0.077	-0.113
-398.179	-22.593	0.253	0.152
-397.165	-42.603	-0.085	-0.043
-396.150	-28.316	0.149	0.085
-395.136	-166.471	-0.223	0.009
-394.121	-30.636	0.136	0.076
-393.106	-40.365	-0.148	0.076
-392.092	-20.426	0.159	0.097
-391.077	-139.987	0.169	0.018
-390.063	55.531	0.217	-0.209
-389.048	26.821	0.083	-0.069
-388.033	32.139	0.223	0.191
-387.019	148.193	-0.078	-0.105
-386.004	-200.000	-0.033	-0.156
-384.990	138.834	0.098	0.128
-383.975	96.695	0.086	0.098
-382.960	800.000	-0.066	0.190
-381.946	410.727	-0.064	-0.135
-380.931	-9.296	0.109	0.072
-379.917	-32.574	-0.208	0.115
-378.902	472.749	0.071	-0.158
-377.888	-200.000	0.028	0.131
-376.873	-200.000	-0.003	-0.179
-375.858	32.946	0.253	-0.218
-374.844	-66.311	0.137	-0.054
-373.829	-118.733	-0.346	0.060
-372.815	-200.000	-0.036	0.235
-371.800	-48.290	0.213	-0.102
-370.785	800.000	0.043	-0.165
-369.771	-85.032	0.381	-0.119
-368.756	103.268	-0.086	-0.100
-367.742	573.132	-0.072	-0.175
-366.727	800.000	0.073	0.233
-365.712	121.816	0.146	0.181
-364.698	-200.000	-0.016	-0.191
-363.683	-47.083	-0.064	-0.031
-362.669	67.906	0.194	-0.197
-361.654	-70.947	-0.097	-0.036
-360.639	-200.000	0.002	0.334
-359.625	-114.167	0.280	-0.054
-358.610	-200.000	-0.009	-0.107
-357.596	-60.739	0.240	-0.101
-356.581	-200.000	-0.010	-0.107
-355.566	25.980	0.168	0.139
-354.552	-98.630	0.219	-0.055
-353.537	800.000	-0.038	-0.163
-352.523	-142.050	-0.222	0.022
-351.508	-140.745	-0.214	0.022
-350.493	800.000	-0.071	0.196
-349.479	-200.000	0.023	-0.312
-348.464	800.000	-0.111	0.384
-347.450	-117.894	0.250	0.044
-346.435	-200.000	0.012	0.064
-345.420	357.654	-0.116	-0.229
-344.406	108.927	-0.131	0.156
-343.391	-24.831	-0.221	-0.130
-342.377	671.940	-0.051	-0.132
-341.362	454.527	-0.170	0.372
-340.348	-144.150	0.262	0.024
-339.333	-173.684	-0.157	0.005
-338.318	219.757	0.065	-0.103
-337.304	800.000	-0.074	-0.220
-336.289	-200.000	-0.011	-0.305
-335.275	269.473	-0.139	0.242
-334.260	-52.640	0.232	0.106
-333.245	43.157	0.098	0.089
-332.231	66.160	-0.189	-0.190
-331.216	-20.203	-0.130	-0.079
-330.202	229.757	0.058	0.094
-329.187	-41.269	-0.087	0.045
-328.172	-200.000	-0.027	0.265
-327.158	-200.000	-0.011	0.109
-326.143	-79.056	-0.146	0.049
-325.129	-45.287	-0.219	-0.107
-324.114	-110.257	-0.149	-0.031
-323.099	800.000	0.065	-0.270
-322.085	-102.395	-0.205	-0.049
-321.070	-103.686	0.213	-0.049
-320.056	-105.137	-0.241	-0.055
-319.041	253.989	0.124	-0.210
-318.026	78.701	-0.194	0.206
-317.012	-77.406	0.068	0.023
-315.997	268.360	0.089	-0.154
-314.983	352.563	-0.074	-0.145
-313.968	-118.437	0.049	-0.009
-312.953	274.287	0.017	-0.029
-311.939	-200.000	0.085	-0.511
-310.924	-200.000	0.047	0.239
-309.910	800.000	0.051	-0.198
-308.895	241.254	-0.098	-0.162
-307.880	-200.000	0.026	0.343
-306.866	-200.000	-0.029	0.238
-305.851	201.609	-0.166	0.254
-304.837	-77.566	-0.227	0.078
-303.822	628.760	0.045	-0.112
-302.807	413.723	-0.166	0.348
-301.793	-76.857	-0.129	-0.045
-300.778	15.551	0.261	0.203
-299.764	800.000	-0.034	0.097
-298.749	33.113	0.247	-0.212
-297.735	-130.579	-0.297	-0.040
-296.720	-90.740	-0.054	-0.015
-295.705	88.282	0.128	-0.141
-294.691	-123.141	0.374	-0.059
-293.676	213.042	0.177	0.276
-292.662	131.283	0.168	0.213
-291.647	486.199	-0.164	0.369
-290.632	-144.911	0.472	-0.043
-289.618	800.000	0.058	-0.211
-288.603	87.092	-0.196	-0.214
-287.589	723.619	-0.112	0.296
-286.574	322.382	-0.169	0.318
-285.559	-102.954	0.308	0.072
-284.545	-200.000	0.009	-0.370
-283.530	107.562	-0.318	-0.374
-282.516	-26.387	0.160	-0.093
-281.501	41.273	0.198	0.177
-280.486	800.000	-0.069	0.250
-279.472	309.098	-0.148	0.274
-278.457	132.022	-0.078	-0.099
-277.443	90.024	0.153	-0.169
-276.428	-200.000	0.040	0.442
-275.413	-18.197	0.189	-0.117
-274.399	275.356	-0.065	-0.113
-273.384	-200.000	0.039	-0.205
-272.370	-53.738	0.235	0.106
-271.355	427.225	0.144	0.308
-270.340	-55.186	-0.230	0.102
-269.326	-152.808	0.058	0.004
-268.311	-26.598	-0.071	-0.041
-267.297	-7.383	-0.180	0.120
-266.282	139.999	0.119	0.155
-265.267	0.519	-0.183	0.129
-264.253	-22.847	0.180	-0.107
-263.238	157.527	0.148	-0.203
-262.224	543.885	-0.100	-0.235
-261.209	-195.638	0.302	-0.002
-260.195	121.857	-0.102	0.125
-259.180	800.000	-0.058	0.177
-258.165	-113.418	0.098	0.019
-257.151	-116.004	0.219	0.040
-256.136	-185.130	-0.218	-0.003
-255.122	17.171	0.246	0.192
-254.107	-105.910	0.070	0.015
-253.092	73.687	-0.270	-0.279
-252.078	37.519	0.130	-0.114
-251.063	7.495	-0.314	-0.232
-250.049	43.682	-0.112	-0.101
-249.034	-200.000	-0.029	-0.222
-248.019	-200.000	0.097	-0.435
-247.005	189.866	0.126	-0.187
-245.990	-134.246	0.107	-0.013
-244.976	241.635	0.029	-0.048
-243.961	84.095	0.221	0.239
-242.946	-144.635	0.038	-0.004
-241.932	29.207	0.129	0.108
-240.917	-200.000	-0.004	-0.272
-239.903	800.000	0.062	-0.263
-238.888	800.000	0.103	-0.415
-237.873	-94.944	0.381	0.102
-236.859	17.510	0.138	-0.108
-235.844	-50.737	0.188	-0.087
-234.830	718.722	-0.058	0.152
-233.815	-32.642	0.149	-0.082
-232.800	-144.073	-0.142	0.013
-231.786	-155.595	0.116	-0.007
-230.771	-80.307	0.193	0.064
-229.757	-136.233	0.319	0.037
-228.742	335.675	0.128	0.245
-227.727	-59.564	-0.265	0.112
-226.713	686.729	0.047	0.121
-225.698	280.113	-0.187	-0.330
-224.684	138.230	-0.114	0.148
-223.669	-60.917	0.251	0.105
-222.655	90.680	0.081	-0.090
-221.640	-156.076	0.206	0.013
-220.625	-81.417	-0.150	-0.049
-219.611	-37.653	-0.156	-0.082
-218.596	417.651	-0.046	-0.097
-217.582	86.681	-0.121	-0.131
-216.567	-40.022	-0.300	0.154
-215.552	-200.000	0.006	0.089
-214.538	48.088	-0.196	-0.180
-213.523	-25.680	0.173	0.101
-212.509	29.614	-0.126	0.106
-211.494	11.786	-0.120	0.091
-210.479	38.560	-0.021	0.019
-209.465	-88.952	-0.201	0.059
-208.450	80.996	0.059	0.063
-207.436	-45.458	-0.244	-0.119
-206.421	131.754	-0.063	-0.080
-205.406	-200.000	-0.024	-0.176
-204.392	-85.124	-0.067	0.021
-203.377	-200.000	0.016	-0.337
-202.363	-200.000	-0.020	0.150
-201.348	215.713	0.019	-0.029
-200.333	-48.505	0.304	-0.144
-199.319	-19.694	-0.330	-0.201
-198.304	521.810	0.068	-0.156
-197.290	-100.563	0.031	0.007
-196.275	-200.000	0.057	0.295
-195.260	188.584	0.119	0.176
-194.246	800.000	-0.038	0.142
-193.231	328.984	-0.103	-0.194
-192.217	-200.000	-0.003	-0.021
-191.202	22.302	0.035	-0.028
-190.187	96.854	-0.162	-0.183
-189.173	-94.513	-0.218	-0.058
-188.158	557.239	-0.181	-0.429
-187.144	11.667	-0.331	0.250
-186.129	15.286	0.102	0.078
-185.114	25.047	-0.155	-0.127
-184.100	-200.000	0.012	0.101
-183.085	17.094	0.048	-0.038
-182.071	348.049	-0.053	0.103
-181.056	191.267	-0.113	-0.168
-180.042	-62.669	0.227	-0.093
-179.027	-54.756	0.149	-0.066
-178.012	-200.000	-0.051	-0.361
-176.998	-34.649	0.281	-0.151
-175.983	275.138	0.091	-0.159
-174.969	-41.908	0.161	-0.081
-173.954	-200.000	0.021	0.111
-172.939	800.000	0.115	0.339
-171.925	34.303	0.461	0.395
-170.910	-200.000	-0.052	-0.351
-169.896	-200.000	-0.021	0.250
-168.881	-115.137	-0.159	-0.030
-167.866	-111.673	-0.247	0.049
-166.852	112.732	0.117	-0.139
-165.837	-200.000	0.017	-0.093
-164.823	-200.000	0.022	-0.165
-163.808	623.586	0.032	0.079
-162.793	160.397	-0.099	-0.135
-161.779	-56.026	-0.033	-0.015
-160.764	-159.601	0.447	0.024
-159.750	-90.418	0.309	0.088
-158.735	-67.218	-0.328	0.127
-157.720	800.000	0.225	0.676
-156.706	-36.393	-0.184	-0.097
-155.691	-114.721	-0.200	-0.038
-154.677	64.485	0.174	0.172
-153.662	247.672	-0.045	-0.075
-152.647	-16.375	-0.214	0.133
-151.633	30.396	-0.209	-0.176
-150.618	-200.000	0.000	-0.027
-149.604	-59.092	-0.269	0.114
-148.589	-184.987	-0.319	0.005
-147.574	96.703	0.148	0.167
-146.560	-35.232	-0.253	-0.136
-145.545	77.257	0.162	-0.169
-144.531	178.624	0.157	-0.225
-143.516	265.037	0.345	0.591
-142.502	-200.000	-0.011	-0.212
-141.487	219.970	0.147	0.231
-140.472	311.956	-0.087	-0.160
-139.458	800.000	-0.056	-0.159
-138.443	-200.000	0.066	-0.424
-137.429	-74.801	0.010	0.004
-136.414	138.408	-0.203	0.262
-135.399	-91.948	0.353	0.098
-134.385	408.199	0.055	0.113
-133.370	16.771	0.330	0.257
-132.356	353.141	-0.120	-0.235
-131.341	-126.622	0.196	0.029
-130.326	-5.028	-0.245	0.165
-129.312	51.944	-0.173	-0.162
-128.297	800.000	-0.050	0.179
-127.283	-170.741	0.269	0.009
-126.268	11.949	-0.018	0.013
-125.253	-187.786	-0.155	0.002
-124.239	-200.000	0.002	0.084
-123.224	-148.449	-0.242	0.020
-122.210	-5.089	-0.332	0.224
-121.195	-78.510	0.205	0.069
-120.180	-197.711	0.289	-0.002
-119.166	118.539	-0.162	0.196
-118.151	206.938	-0.065	0.099
-117.137	257.176	0.093	0.157
-116.122	159.851	-0.151	-0.207
-115.107	36.906	-0.078	-0.068
-114.093	-103.502	0.104	0.024
-113.078	-11.105	0.192	0.125
-112.064	436.128	0.062	0.132
-111.049	175.175	-0.038	0.054
-110.034	124.802	-0.037	-0.046
-109.020	-64.072	0.329	-0.132
-108.005	-25.509	0.358	-0.208
-106.991	159.250	0.081	-0.110
-105.976	79.970	-0.157	-0.166
-104.962	42.978	0.434	0.389
-103.947	-35.790	-0.296	0.158
-102.932	730.437	0.052	0.138
-101.918	12.271	-0.212	-0.160
-100.903	-115.530	0.141	0.026
-99.889	422.991	-0.015	0.031
-98.874	-139.077	0.157	-0.017
-97.859	127.021	0.170	0.211
-96.845	82.940	0.222	0.236
-95.830	-57.601	-0.307	-0.132
-94.816	328.993	-0.113	0.214
-93.801	800.000	0.007	0.028
-92.786	-70.137	-0.040	0.015
-91.772	-200.000	0.042	0.181
-90.757	-90.360	0.149	-0.042
-89.743	81.751	-0.058	0.061
-88.728	4.242	-0.269	0.193
-87.713	800.000	0.056	-0.169
-86.699	-200.000	0.042	-0.300
-85.684	-200.000	0.055	0.284
-84.670	-200.000	-0.051	-0.332
-83.655	87.934	0.073	-0.079
-82.640	-200.000	0.052	0.336
-81.626	172.338	-0.233	0.328
-80.611	205.927	-0.081	0.123
-79.597	-200.000	-0.002	-0.014
-78.582	209.385	0.085	-0.130
-77.567	116.746	-0.080	0.096
-76.553	8.930	-0.257	0.190
-75.538	583.877	-0.138	0.333
-74.524	-200.000	-0.006	-0.190
-73.509	800.000	0.132	-0.490
-72.494	274.204	-0.012	0.022
-71.480	-111.508	-0.152	-0.030
-70.465	-38.916	-0.041	0.021
-69.451	-14.097	-0.286	-0.181
-68.436	800.000	-0.096	0.264
-67.422	-49.376	-0.093	0.044
-66.407	309.193	-0.156	0.286
-65.392	-77.707	-0.171	0.058
-64.378	-179.926	-0.245	-0.005
-63.363	-14.718	0.224	-0.141
-62.349	131.478	-0.126	0.158
-61.334	91.695	-0.984	-1.084
-60.319	-58.405	0.897	0.382
-59.305	584.754	-0.469	-1.128
-58.290	288.417	0.646	1.146
-57.276	800.000	0.639	1.727
-56.261	-200.000	114.079	668.798
-55.246	556.101	1512.783	3569.623
-54.232	179.808	2678.399	3844.232
-53.217	113.578	2147.327	2554.679
-52.203	39.984	1596.974	1405.240
-51.188	31.649	1343.080	1131.664
-50.173	28.607	1305.334	1081.914
-49.159	57.158	1362.353	1301.586
-48.144	55.549	1375.881	1304.833
-47.130	31.784	1330.947	1122.072
-46.115	28.325	1313.621	1086.936
-45.100	28.075	1308.801	1081.429
-44.086	28.081	1306.550	1079.558
-43.071	28.117	1303.687	1077.361
-42.057	28.079	1302.147	1075.823
-41.042	28.036	1300.140	1073.869
-40.027	28.092	1298.585	1072.870
-39.013	28.120	1296.577	1071.335
-37.998	28.067	1295.324	1069.947
-36.984	28.099	1293.514	1068.596
-35.969	28.069	1291.309	1066.557
-34.954	28.157	1289.431	1065.472
-33.940	28.301	1287.911	1065.014
-32.925	28.195	1286.898	1063.521
-31.911	28.162	1285.571	1062.190
-30.896	28.185	1284.304	1061.229
-29.881	28.247	1283.389	1060.791
-28.867	28.307	1281.634	1059.648
-27.852	28.224	1280.441	1058.138
-26.838	28.300	1278.818	1057.193
-25.823	28.168	1278.160	1055.847
-24.809	28.292	1276.296	1054.981
-23.794	28.278	1274.922	1053.721
-22.779	28.298	1273.391	1052.528
-21.765	28.231	1272.161	1051.085
-20.750	28.162	1271.353	1049.984
-19.736	28.288	1269.320	1048.984
-18.721	28.150	1268.345	1047.346
-17.706	28.108	1267.925	1046.718
-16.692	28.139	1265.850	1045.140
-15.677	28.158	1265.184	1044.655
-14.663	28.051	1264.106	1043.116
-13.648	28.165	1262.916	1042.742
-12.633	28.108	1261.813	1041.465
-11.619	28.032	1261.301	1040.569
-10.604	28.086	1260.406	1040.094
-9.590	28.108	1259.225	1039.205
-8.575	28.167	1257.865	1038.379
-7.560	28.041	1257.342	1037.187
-6.546	28.056	1256.777	1036.767
-5.531	28.021	1256.444	1036.249
-4.517	28.100	1254.841	1035.334
-3.502	28.071	1254.704	1035.016
-2.487	28.178	1253.012	1034.186
-1.473	27.986	1249.209	1029.922
-0.458	26.605	1233.204	1008.999
0.556	23.278	1216.695	970.881
1.571	19.462	1221.948	953.932
2.586	18.505	1236.174	959.595
3.600	17.962	1225.223	947.999
4.615	13.483	1153.587	869.034
5.629	6.259	1081.880	779.269
6.644	3.310	1063.275	751.428
7.659	3.127	1060.473	748.495
8.673	2.952	1060.136	747.340
9.688	3.071	1058.428	746.648
10.702	3.261	1056.395	746.066
11.717	7.394	1062.046	770.090
12.731	14.950	1072.697	814.675
13.746	19.353	1077.795	839.972
14.761	19.695	1078.392	842.030
15.775	18.941	1076.638	836.918
16.790	17.932	1074.512	830.286
17.804	17.369	1072.892	826.227
18.819	17.049	1071.559	823.572
19.834	16.831	1071.036	822.043
20.848	16.699	1070.586	820.985
21.863	16.457	1069.489	818.896
22.877	16.352	1069.073	817.997
23.892	16.369	1067.899	817.108
24.907	16.377	1067.382	816.679
25.921	16.383	1066.164	815.707
26.936	16.435	1064.843	814.875
27.950	16.382	1063.555	813.560
28.965	16.396	1062.197	812.517
29.980	16.524	1060.916	812.077
30.994	16.695	1059.866	812.023
32.009	16.726	1058.769	811.261
33.023	16.663	1057.858	810.190
34.038	16.549	1057.022	808.931
35.053	16.515	1055.629	807.632
36.067	16.422	1054.878	806.544
37.082	16.526	1054.237	806.475
38.096	16.532	1053.921	806.190
39.111	16.644	1052.480	805.552
40.126	16.384	1051.492	803.488
41.140	16.247	1049.887	801.538
42.155	16.127	1048.639	799.946
43.169	16.074	1047.685	798.898
44.184	16.138	1046.482	798.215
45.199	16.142	1045.780	797.623
46.213	16.336	1044.360	797.387
47.228	16.397	1043.736	797.128
48.242	16.505	1042.650	796.737
49.257	16.478	1041.648	795.776
50.271	16.456	1040.761	794.921
51.286	16.504	1040.068	794.548
52.301	16.480	1039.146	793.661
53.315	16.343	1038.061	792.121
54.330	16.211	1037.110	790.706
55.344	16.254	1035.973	789.970
56.359	16.274	1035.299	789.482
57.374	16.313	1033.844	788.483
58.388	16.136	1033.227	787.117
59.403	15.989	1032.808	786.042
60.417	16.038	1031.922	785.525
61.432	16.102	1030.878	784.961
62.447	16.016	1029.812	783.681
63.461	15.939	1029.200	782.785
64.476	16.017	1028.004	782.168
65.490	15.970	1027.404	781.428
66.505	16.045	1026.662	781.139
67.520	16.148	1025.452	780.628
68.534	16.162	1024.908	780.208
69.549	16.000	1024.629	779.179
70.563	15.922	1023.764	778.090
71.578	15.880	1022.542	776.901
72.593	15.837	1022.273	776.427
73.607	15.839	1021.362	775.678
74.622	15.795	1021.013	775.138
75.636	15.796	1020.135	774.410
76.651	15.908	1019.122	774.086
77.666	15.996	1018.708	774.107
78.680	16.013	1018.105	773.660
79.695	16.007	1017.494	773.099
80.709	16.068	1016.979	772.921
81.724	16.102	1016.537	772.669
82.739	16.204	1016.060	772.705
83.753	16.436	1014.984	772.880
84.768	16.680	1014.269	773.385
85.782	16.792	1013.198	773.010
86.797	16.665	1012.299	771.676
87.812	16.520	1011.477	770.319
88.826	16.493	1010.927	769.711
89.841	16.614	1009.467	769.080
90.855	16.620	1008.995	768.682
91.870	16.727	1007.748	768.146
92.884	16.738	1007.014	767.569
93.899	16.639	1006.237	766.464
94.914	16.736	1005.628	766.371
95.928	16.814	1004.261	765.614
96.943	16.601	1003.732	764.181
97.957	16.499	1003.083	763.156
98.972	16.631	1002.120	762.954
99.987	16.644	1001.158	762.212
101.001	16.628	1000.135	761.293
102.016	16.554	999.056	760.069
103.030	16.682	998.406	760.086
104.045	16.680	997.960	759.667
105.060	16.551	997.082	758.353
106.074	16.288	995.465	755.881
107.089	16.161	994.537	754.539
108.103	16.056	993.681	753.355
109.118	16.077	992.651	752.601
110.133	16.044	991.246	751.322
111.147	16.059	990.847	751.020
112.162	16.116	989.905	750.493
113.176	16.244	989.226	750.484
114.191	16.282	988.467	750.006
115.206	16.104	988.141	748.906
116.220	16.109	987.135	748.098
117.235	16.243	985.973	747.746
118.249	16.044	985.445	746.396
119.264	16.032	984.700	745.715
120.279	15.980	983.801	744.735
121.293	15.903	982.971	743.704
122.308	15.931	981.696	742.797
123.322	15.862	980.765	741.720
124.337	15.975	979.784	741.413
125.352	15.949	978.593	740.330
126.366	15.982	977.143	739.314
127.381	16.031	976.088	738.662
128.395	15.972	975.603	737.971
129.410	16.089	974.552	737.624
130.424	16.040	974.214	737.091
131.439	16.097	973.615	736.820
132.454	16.223	972.707	736.617
133.468	16.131	971.892	735.535
134.483	16.288	970.870	735.382
135.497	16.140	970.323	734.254
136.512	16.296	969.378	734.153
137.527	16.236	968.386	733.079
138.541	16.285	967.769	732.756
139.556	16.261	967.491	732.380
140.570	16.307	966.672	731.894
141.585	16.603	966.132	732.702
142.600	16.617	965.152	731.954
143.614	16.642	964.411	731.436
144.629	16.650	963.672	730.843
145.643	16.604	962.821	729.937
146.658	16.411	961.704	728.194
147.673	16.388	960.734	727.294
148.687	16.299	959.533	725.940
149.702	16.229	958.712	724.954
150.716	16.189	958.052	724.218
151.731	16.230	957.618	724.001
152.746	16.322	956.937	723.817
153.760	16.398	956.257	723.565
154.775	16.403	955.795	723.171
155.789	16.476	955.109	722.901
156.804	16.548	954.096	722.379
157.819	16.574	953.277	721.804
158.833	16.775	953.120	722.479
159.848	16.765	952.018	721.537
160.862	16.735	950.840	720.455
161.877	16.483	949.633	718.406
162.892	16.366	948.730	717.162
163.906	16.243	948.272	716.231
164.921	16.411	947.215	716.079
165.935	16.457	946.222	715.462
166.950	16.509	945.408	715.004
167.964	16.517	944.543	714.317
168.979	16.427	943.408	713.017
169.994	16.441	942.793	712.547
171.008	16.551	942.236	712.527
172.023	16.573	941.880	712.289
173.037	16.761	941.188	712.494
174.052	16.635	940.030	711.024
175.067	16.453	939.226	709.590
176.081	16.253	939.161	708.637
177.096	16.417	938.634	708.863
178.110	16.509	937.710	708.492
179.125	16.421	937.479	707.886
180.140	16.450	937.116	707.668
181.154	16.643	936.627	708.044
182.169	16.705	936.095	707.838
183.183	16.741	935.410	707.407
184.198	16.799	934.273	706.727
185.213	16.728	933.499	705.783
186.227	16.706	933.486	705.619
187.242	17.052	932.416	706.188
188.256	17.065	931.950	705.826
189.271	16.926	931.210	704.625
190.286	16.632	930.169	702.556
191.300	16.316	929.202	700.453
192.315	16.321	928.554	699.926
193.329	16.392	928.213	699.901
194.344	16.333	927.930	699.380
195.359	16.735	926.830	700.149
196.373	16.621	926.673	699.500
197.388	16.923	926.197	700.323
198.402	16.969	925.688	700.068
199.417	17.154	925.255	700.443
200.432	17.235	924.504	700.145
201.446	17.184	924.438	699.823
202.461	17.236	923.732	699.443
203.475	17.158	922.971	698.482
204.490	16.964	921.973	696.869
205.504	17.006	920.914	696.178
206.519	16.844	920.700	695.290
207.534	16.933	919.585	694.750
208.548	16.956	919.027	694.361
209.563	16.932	918.479	693.789
210.577	17.028	917.633	693.482
211.592	17.186	917.178	693.720
212.607	17.287	916.280	693.393
213.621	17.012	916.056	692.041
214.636	17.036	915.113	691.365
215.650	17.251	913.985	691.326
216.665	17.391	913.199	691.239
217.680	17.465	912.767	691.150
218.694	17.337	912.250	690.181
219.709	17.359	911.381	689.549
220.723	17.215	910.836	688.493
221.738	17.185	910.680	688.191
222.753	17.297	909.909	688.000
223.767	17.263	909.323	687.360
224.782	17.342	909.069	687.428
225.796	17.479	908.539	687.517
226.811	17.374	907.866	686.526
227.826	17.187	907.189	685.199
228.840	17.343	905.833	684.742
229.855	17.284	905.163	683.939
230.869	17.280	904.425	683.305
231.884	17.225	903.986	682.688
232.899	17.154	903.227	681.770
233.913	17.041	902.511	680.717
234.928	17.119	901.875	680.489
235.942	17.130	900.989	679.804
236.957	17.172	900.686	679.684
237.972	17.225	899.768	679.143
238.986	17.121	899.225	678.259
240.001	17.201	898.930	678.295
241.015	17.226	898.370	677.913
242.030	17.353	897.614	677.787
243.045	17.267	897.559	677.344
244.059	17.388	896.064	676.636
245.074	17.495	895.966	676.926
246.088	17.513	895.152	676.326
247.103	17.610	894.352	676.046
248.117	17.809	894.045	676.543
249.132	17.835	893.847	676.437
250.147	17.931	893.477	676.475
251.161	17.990	892.597	675.986
252.176	17.933	892.222	675.414
253.190	18.127	891.340	675.454
254.205	18.066	890.800	674.743
255.220	18.055	890.352	674.300
256.234	17.999	889.726	673.546
257.249	17.984	889.044	672.912
258.263	18.081	887.895	672.364
259.278	17.958	887.249	671.331
260.293	18.180	886.887	671.870
261.307	18.309	886.408	671.955
262.322	18.255	885.871	671.279
263.336	18.244	885.020	670.528
264.351	18.212	884.374	669.857
265.366	18.286	883.452	669.389
266.380	18.263	882.730	668.690
267.395	18.373	881.923	668.450
268.409	18.015	881.771	666.877
269.424	18.211	880.684	666.763
270.439	18.088	879.935	665.655
271.453	17.997	879.158	664.655
272.468	17.902	878.729	663.903
273.482	17.931	878.233	663.580
274.497	17.993	877.728	663.384
275.512	18.107	876.922	663.156
276.526	17.993	876.745	662.522
277.541	18.206	876.009	662.734
278.555	18.298	875.678	662.782
279.570	18.480	874.721	662.700
280.585	18.426	874.240	662.071
281.599	18.223	873.347	660.550
282.614	18.149	872.643	659.676
283.628	18.240	871.928	659.426
284.643	18.151	871.612	658.787
285.657	18.222	870.932	658.487
286.672	18.237	870.323	658.028
287.687	18.308	869.385	657.532
288.701	18.197	869.281	656.970
289.716	18.260	868.416	656.498
290.730	18.310	867.909	656.248
291.745	18.249	867.428	655.592
292.760	18.431	866.482	655.517
293.774	18.569	866.115	655.708
294.789	18.492	865.355	654.782
295.803	18.364	864.486	653.579
296.818	18.349	863.855	652.984
297.833	18.298	863.604	652.544
298.847	18.363	862.796	652.122
299.862	18.461	862.188	651.976
300.876	18.478	861.751	651.653
301.891	18.566	861.474	651.722
302.906	18.536	861.098	651.266
303.920	18.732	860.395	651.421
304.935	18.737	860.100	651.160
305.949	18.738	859.141	650.377
306.964	18.642	858.155	649.209
307.979	18.693	857.639	648.956
308.993	18.875	857.016	649.116
310.008	18.876	856.529	648.692
311.022	18.742	855.953	647.692
312.037	18.688	855.298	646.939
313.052	18.475	854.822	645.718
314.066	18.413	854.156	644.925
315.081	18.479	853.439	644.572
316.095	18.386	853.094	643.907
317.110	18.306	852.843	643.359
318.125	18.433	852.107	643.223
319.139	18.601	851.238	643.142
320.154	18.567	851.166	642.902
321.168	18.598	850.238	642.260
322.183	18.625	849.986	642.113
323.197	18.548	849.697	641.550
324.212	18.729	848.548	641.305
325.227	18.714	847.991	640.768
326.241	18.573	847.909	640.125
327.256	18.537	847.178	639.381
328.270	18.483	846.526	638.632
329.285	18.398	846.430	638.186
330.300	18.537	845.424	637.888
331.314	18.511	844.967	637.392
332.329	18.609	844.623	637.439
333.343	18.792	844.078	637.651
334.358	18.728	844.007	637.304
335.373	18.808	843.397	637.081
336.387	18.780	843.559	637.044
337.402	18.894	842.940	636.943
338.416	18.995	842.525	636.946
339.431	19.094	842.088	636.927
340.446	19.186	842.112	637.228
341.460	19.409	841.088	637.224
342.475	19.237	840.944	636.423
343.489	19.298	840.766	636.454
344.504	19.375	840.046	636.139
345.519	19.503	839.352	636.026
346.533	19.306	838.888	634.894
347.548	19.169	838.267	633.865
348.562	19.033	837.913	633.038
349.577	18.860	837.291	631.879
350.592	18.876	836.446	631.243
351.606	19.000	835.328	630.797
352.621	19.031	835.002	630.609
353.635	18.934	834.325	629.688
354.650	18.984	833.925	629.512
355.665	19.094	833.336	629.414
356.679	19.122	832.643	628.939
357.694	19.258	831.898	628.818
358.708	19.174	831.122	627.869
359.723	19.097	831.112	627.525
360.738	19.246	830.241	627.353
361.752	19.101	830.269	626.789
362.767	19.453	829.284	627.271
363.781	19.428	828.697	626.682
364.796	19.580	828.471	627.007
365.810	19.598	828.221	626.829
366.825	19.559	828.113	626.550
367.840	19.622	827.344	626.138
368.854	19.439	826.662	624.906
369.869	19.582	826.015	624.880
370.883	19.514	825.798	624.413
371.898	19.751	825.545	625.025
372.913	19.703	825.115	624.467
373.927	19.619	824.443	623.602
374.942	19.699	823.657	623.241
375.956	19.722	823.603	623.226
376.971	19.806	823.038	623.047
377.986	19.868	822.997	623.184
379.000	19.914	822.503	622.920
380.015	19.780	821.941	621.957
381.029	19.836	821.084	621.455
382.044	19.989	820.238	621.311
383.059	19.916	819.949	620.776
384.073	19.863	819.305	620.041
385.088	19.616	818.529	618.516
386.102	19.669	818.095	618.321
387.117	19.604	817.612	617.670
388.132	19.720	816.829	617.440
389.146	19.796	816.261	617.224
390.161	19.839	815.999	617.124
391.175	19.938	815.552	617.085
392.190	19.779	815.109	616.129
393.205	19.608	814.693	615.152
394.219	19.708	814.128	615.026
395.234	19.582	813.504	614.052
396.248	19.509	813.195	613.507
397.263	19.523	812.708	613.134
398.278	19.585	812.266	612.965
399.292	19.697	811.594	612.801
400.307	19.414	811.588	611.741
401.321	19.492	811.110	611.602
402.336	19.545	810.827	611.522
403.350	19.747	810.095	611.630
404.365	19.900	809.938	611.999
405.380	19.839	809.563	611.447
406.394	20.006	808.936	611.508
407.409	20.106	808.557	611.521
408.423	20.200	808.110	611.459
409.438	20.188	807.532	610.927
410.453	20.194	807.529	610.892
411.467	20.224	806.728	610.335
412.482	20.177	806.754	610.135
413.496	20.356	806.321	610.385
414.511	20.418	805.787	610.144
415.526	20.294	805.254	609.251
416.540	20.142	804.853	608.359
417.555	20.393	804.186	608.684
418.569	20.215	804.055	607.908
419.584	20.404	803.176	607.848
420.599	20.307	802.810	607.180
421.613	161.299	1372.905	1797.343
422.628	140.106	1455.947	1797.457
