DTS Sentinel unit serial number:	SN413079Multiplexer serial number:	ORYXHardware model number:	OX4-SRSoftware version number:	ORYX F/W v4.00 Oryx Data Collector v3.7.2.0data status	okinstallation	princeton_trtdifferential loss correction	single-endedforward channel	channel 1reverse channel	N/Adate	2019/09/18time	12:46:35forward acquisition time	60.00reverse acquisition time	0.00gamma	496.2192k internal	0.2316k external	0.2316temperature offset calibration	0.9982default loss term (dB/km)	0.3790temperature slope calibration	1.0000multiplexer offset coefficient	1.0000multiplexer slope coefficient	1.0000fibre end	0.00T internal ref (°C)	32.95T ext. ref 1 (°C)	0.55T ext. ref 2 (°C)	30.00length (m)	temperature (°C)	Stokes	anti-Stokes-747.200	-200.000	0.012	0.140
-746.185	800.000	0.126	0.353
-745.171	-190.573	0.351	0.004
-744.156	-1.765	-0.147	0.105
-743.142	-69.599	-0.289	0.112
-742.127	395.632	0.102	0.215
-741.112	-90.285	0.169	0.050
-740.098	-200.000	0.065	0.321
-739.083	115.461	0.312	0.386
-738.069	222.560	-0.224	0.365
-737.054	4.422	-0.098	0.073
-736.039	-101.024	0.123	0.031
-735.025	-90.518	0.283	0.083
-734.010	-136.563	0.092	0.011
-732.996	-12.394	-0.244	0.162
-731.981	800.000	0.020	-0.073
-730.966	-200.000	-0.057	0.261
-729.952	572.935	-0.048	-0.118
-728.937	-146.333	-0.346	-0.031
-727.923	-168.652	-0.073	0.003
-726.908	295.958	-0.232	-0.430
-725.894	800.000	0.080	-0.260
-724.879	50.770	0.170	-0.163
-723.864	184.514	0.139	-0.208
-722.850	-100.517	-0.215	-0.054
-721.835	-200.000	0.016	-0.136
-720.821	-200.000	-0.018	-0.193
-719.806	-89.459	0.227	-0.068
-718.791	-200.000	-0.053	-0.286
-717.777	-30.629	-0.170	0.098
-716.762	-200.000	-0.018	-0.168
-715.748	800.000	0.023	-0.066
-714.733	192.905	0.092	0.140
-713.718	-35.020	-0.150	0.083
-712.704	-54.295	-0.116	-0.053
-711.689	-200.000	0.026	0.264
-710.675	-116.443	0.256	-0.048
-709.660	134.594	-0.103	-0.135
-708.645	-67.901	0.239	-0.095
-707.631	-200.000	0.045	0.263
-706.616	89.280	-0.088	-0.099
-705.602	800.000	0.076	-0.269
-704.587	800.000	0.033	-0.100
-703.572	800.000	0.023	-0.079
-702.558	-200.000	0.037	-0.257
-701.543	800.000	0.082	-0.288
-700.529	-59.677	0.322	0.139
-699.514	-118.893	0.278	-0.049
-698.499	800.000	0.070	-0.200
-697.485	716.413	0.054	-0.145
-696.470	-46.350	0.260	-0.129
-695.456	-82.384	-0.083	0.027
-694.441	-65.443	0.175	-0.071
-693.426	-200.000	0.005	-0.208
-692.412	-83.050	0.179	-0.058
-691.397	73.642	-0.232	-0.245
-690.383	800.000	-0.065	-0.211
-689.368	-178.072	0.324	-0.008
-688.354	498.952	-0.140	0.325
-687.339	86.498	-0.082	-0.091
-686.324	-146.522	0.095	-0.008
-685.310	-200.000	0.024	-0.210
-684.295	-200.000	-0.008	-0.200
-683.281	270.922	-0.136	-0.243
-682.266	-200.000	0.048	-0.281
-681.251	464.906	0.083	0.188
-680.237	-112.427	-0.187	0.038
-679.222	77.140	0.186	0.199
-678.208	800.000	-0.076	0.213
-677.193	-200.000	-0.020	0.223
-676.178	33.866	-0.148	0.130
-675.164	135.025	0.194	-0.255
-674.149	-69.026	-0.175	-0.068
-673.135	-139.131	0.158	-0.017
-672.120	-16.465	-0.140	0.090
-671.105	-88.150	-0.142	0.043
-670.091	-41.480	0.283	-0.147
-669.076	-128.962	-0.138	0.020
-668.062	-117.213	-0.094	-0.017
-667.047	800.000	-0.048	0.142
-666.032	-200.000	-0.044	-0.358
-665.018	800.000	-0.045	0.130
-664.003	-119.436	0.240	-0.042
-662.989	800.000	0.067	-0.281
-661.974	169.928	0.122	-0.176
-660.959	149.387	-0.179	-0.245
-659.945	-200.000	0.006	-0.266
-658.930	-200.000	-0.002	-0.042
-657.916	-200.000	-0.025	-0.447
-656.901	36.206	-0.268	0.238
-655.886	-161.486	0.437	0.023
-654.872	-88.594	0.244	-0.073
-653.857	800.000	-0.071	-0.230
-652.843	17.376	0.064	0.052
-651.828	-102.976	-0.308	0.074
-650.814	169.424	-0.041	0.059
-649.799	2.362	0.181	-0.132
-648.784	-34.322	-0.045	0.025
-647.770	-200.000	0.001	-0.094
-646.755	-87.453	-0.243	-0.074
-645.741	800.000	-0.032	-0.109
-644.726	248.608	0.121	-0.207
-643.711	-58.442	0.165	-0.072
-642.697	79.615	-0.238	-0.258
-641.682	6.732	0.197	0.148
-640.668	-36.643	0.165	0.089
-639.653	-21.594	-0.016	0.010
-638.638	-161.198	0.391	-0.021
-637.624	-111.607	0.307	-0.063
-636.609	-90.623	-0.131	0.038
-635.595	-86.608	-0.084	0.026
-634.580	-138.192	0.189	-0.021
-633.565	2.159	0.068	0.050
-632.551	-200.000	-0.048	-0.240
-631.536	321.912	-0.072	-0.139
-630.522	-73.276	-0.075	-0.028
-629.507	-23.927	-0.122	-0.073
-628.492	-23.553	-0.129	-0.078
-627.478	-118.882	0.251	-0.044
-626.463	150.046	-0.082	-0.112
-625.449	800.000	-0.049	0.144
-624.434	158.628	-0.234	-0.327
-623.419	-126.226	-0.157	0.024
-622.405	40.091	0.203	-0.184
-621.390	-6.775	0.441	0.302
-620.376	-29.006	-0.140	0.081
-619.361	-200.000	0.012	0.135
-618.346	-82.855	-0.017	-0.006
-617.332	-19.160	0.286	0.179
-616.317	150.199	0.102	-0.140
-615.303	-107.914	0.086	-0.019
-614.288	174.629	0.079	0.115
-613.273	-51.042	-0.111	-0.053
-612.259	113.224	0.255	-0.312
-611.244	-200.000	0.017	-0.211
-610.230	281.471	-0.109	-0.197
-609.215	-158.652	0.233	0.013
-608.201	140.182	-0.073	-0.097
-607.186	-200.000	0.036	-0.301
-606.171	-74.240	0.297	0.108
-605.157	13.472	-0.046	-0.036
-604.142	152.333	-0.114	0.157
-603.128	800.000	-0.010	-0.033
-602.113	783.139	0.050	0.138
-601.098	-140.380	-0.211	-0.022
-600.084	130.747	-0.263	-0.339
-599.069	121.001	0.137	0.171
-598.055	107.493	-0.148	-0.178
-597.040	-37.325	0.115	0.062
-596.025	800.000	-0.099	0.296
-595.011	-121.771	-0.316	0.053
-593.996	-30.093	0.182	0.104
-592.982	143.659	0.242	-0.325
-591.967	411.824	0.058	-0.124
-590.952	48.439	-0.207	0.195
-589.938	-62.851	-0.092	0.038
-588.923	760.930	-0.130	-0.354
-587.909	-200.000	-0.042	-0.400
-586.894	-68.389	0.189	-0.074
-585.879	73.394	0.387	-0.408
-584.865	-200.000	-0.014	0.157
-583.850	-6.143	-0.149	-0.102
-582.836	800.000	-0.065	0.217
-581.821	800.000	0.032	-0.109
-580.806	328.022	0.048	-0.093
-579.792	177.839	0.067	0.099
-578.777	-94.566	0.031	0.009
-577.763	-200.000	-0.012	-0.143
-576.748	-49.479	-0.199	0.096
-575.733	482.777	-0.107	-0.245
-574.719	800.000	-0.023	-0.063
-573.704	-98.281	0.293	0.076
-572.690	107.804	-0.149	-0.179
-571.675	321.808	0.185	0.355
-570.661	13.500	0.217	-0.169
-569.646	18.503	-0.086	-0.069
-568.631	469.690	0.110	-0.249
-567.617	-87.805	0.427	0.129
-566.602	800.000	0.040	-0.170
-565.588	-33.634	-0.146	-0.081
-564.573	-43.726	0.042	-0.021
-563.558	92.572	-0.188	0.213
-562.544	280.466	0.165	0.296
-561.529	-63.705	0.169	-0.070
-560.515	527.024	-0.114	0.269
-559.500	800.000	0.070	-0.258
-558.485	-102.416	-0.457	-0.110
-557.471	-135.515	-0.462	-0.055
-556.456	-74.151	-0.243	-0.089
-555.442	-2.584	0.096	0.067
-554.427	-200.000	0.037	-0.236
-553.412	253.583	0.087	0.149
-552.398	525.882	-0.079	0.188
-551.383	-29.394	0.195	0.112
-550.369	-200.000	0.011	0.084
-549.354	-200.000	-0.083	-0.383
-548.339	-112.141	0.101	0.020
-547.325	-16.157	0.097	0.062
-546.310	800.000	0.089	-0.256
-545.296	800.000	-0.035	0.127
-544.281	0.333	-0.271	-0.195
-543.266	-200.000	0.026	-0.171
-542.252	-156.802	-0.203	0.013
-541.237	53.009	0.234	-0.225
-540.223	-178.858	-0.301	-0.007
-539.208	-18.745	-0.423	-0.265
-538.193	-190.653	0.273	0.003
-537.179	-108.791	0.115	0.025
-536.164	-47.467	0.270	-0.132
-535.150	747.443	0.073	0.198
-534.135	-200.000	-0.040	0.198
-533.121	-200.000	-0.029	-0.157
-532.106	190.857	-0.124	-0.188
-531.091	-200.000	-0.000	-0.046
-530.077	-90.394	-0.373	-0.109
-529.062	288.815	-0.144	-0.262
-528.048	-63.057	-0.458	0.190
-527.033	145.849	0.067	-0.090
-526.018	-200.000	-0.003	0.039
-525.004	268.650	0.088	-0.156
-523.989	231.579	-0.122	-0.201
-522.975	-134.131	0.321	-0.040
-521.960	-115.901	-0.111	0.021
-520.945	-200.000	0.035	0.241
-519.931	-8.161	0.074	-0.050
-518.916	218.688	-0.073	0.117
-517.902	314.020	0.100	-0.188
-516.887	-73.070	0.164	0.060
-515.872	-121.496	-0.056	-0.009
-514.858	46.572	-0.124	-0.116
-513.843	63.674	-0.148	-0.150
-512.829	800.000	0.010	-0.039
-511.814	-53.618	-0.095	-0.044
-510.799	9.685	-0.272	0.207
-509.785	436.212	-0.083	-0.182
-508.770	-123.972	-0.200	-0.032
-507.756	75.455	-0.060	-0.064
-506.741	-72.509	-0.172	0.064
-505.726	-48.997	-0.297	-0.143
-504.712	-87.133	0.034	-0.010
-503.697	-179.486	0.076	-0.002
-502.683	1.584	0.136	-0.098
-501.668	23.968	0.065	0.053
-500.653	280.706	-0.112	0.201
-499.639	-140.777	0.059	-0.006
-498.624	79.487	-0.120	0.129
-497.610	-28.137	0.178	-0.103
-496.595	93.403	-0.184	0.209
-495.581	119.582	0.124	-0.154
-494.566	-103.002	-0.264	0.063
-493.551	-8.068	0.226	0.153
-492.537	-3.750	-0.069	0.048
-491.522	-191.491	-0.225	-0.002
-490.508	-62.992	-0.347	-0.144
-489.493	800.000	-0.029	-0.096
-488.478	56.525	0.072	0.070
-487.464	7.469	-0.105	0.079
-486.449	-101.408	-0.224	0.055
-485.435	72.366	-0.152	-0.159
-484.420	-98.092	0.209	0.054
-483.405	604.974	0.023	-0.058
-482.391	-200.000	0.014	-0.210
-481.376	97.507	0.095	-0.109
-480.362	800.000	-0.080	0.324
-479.347	-148.412	-0.164	0.013
-478.332	714.267	0.095	-0.253
-477.318	326.520	-0.038	-0.072
-476.303	290.662	-0.134	0.244
-475.289	-32.354	0.158	-0.088
-474.274	-78.046	0.233	0.080
-473.259	800.000	-0.029	0.097
-472.245	-101.810	-0.210	0.051
-471.230	-136.607	0.426	-0.049
-470.216	800.000	-0.125	0.373
-469.201	-61.793	0.079	0.033
-468.186	410.648	-0.091	0.193
-467.172	32.796	-0.092	-0.080
-466.157	330.150	0.119	-0.230
-465.143	-83.957	0.090	0.029
-464.128	76.708	-0.238	0.253
-463.113	-79.239	-0.077	0.026
-462.099	270.562	0.144	0.254
-461.084	-124.909	-0.184	0.028
-460.070	800.000	0.131	0.386
-459.055	-136.037	0.226	-0.027
-458.040	-200.000	0.014	0.353
-457.026	-200.000	-0.019	-0.170
-456.011	55.261	0.084	0.082
-454.997	37.099	-0.168	0.149
-453.982	-135.277	-0.278	0.033
-452.968	276.084	0.060	0.107
-451.953	37.184	-0.331	0.294
-450.938	181.860	-0.140	0.206
-449.924	68.766	0.011	0.011
-448.909	-200.000	0.016	0.092
-447.895	240.146	0.105	0.175
-446.880	245.690	-0.129	0.218
-445.865	449.711	-0.108	-0.238
-444.851	-171.861	-0.144	0.005
-443.836	-46.996	-0.091	0.045
-442.822	800.000	-0.044	-0.127
-441.807	-52.388	0.053	-0.025
-440.792	181.914	-0.160	-0.236
-439.778	-80.263	0.235	-0.079
-438.763	-177.763	-0.057	-0.001
-437.749	-141.871	0.201	-0.020
-436.734	800.000	0.055	-0.209
-435.719	-42.104	0.317	0.162
-434.705	-65.416	0.185	0.074
-433.690	179.976	-0.023	0.033
-432.676	122.650	-0.114	0.142
-431.661	-12.377	-0.437	0.286
-430.646	98.423	-0.144	0.166
-429.632	78.449	-0.260	0.278
-428.617	-115.436	0.057	0.011
-427.603	-200.000	-0.002	-0.100
-426.588	337.682	0.155	-0.302
-425.573	28.711	0.279	0.236
-424.559	52.258	0.139	0.132
-423.544	225.452	-0.098	-0.158
-422.530	229.942	0.147	-0.241
-421.515	800.000	0.040	-0.138
-420.500	-200.000	0.049	-0.274
-419.486	57.572	0.095	-0.093
-418.471	-200.000	0.003	0.113
-417.457	156.858	-0.061	-0.084
-416.442	800.000	0.110	0.366
-415.428	30.359	-0.016	-0.014
-414.413	87.465	-0.300	0.332
-413.398	702.122	0.040	0.105
-412.384	-147.521	0.284	-0.024
-411.369	-93.596	0.234	-0.065
-410.355	-52.680	-0.209	0.097
-409.340	-53.584	0.341	0.156
-408.325	33.662	-0.133	0.116
-407.311	-200.000	-0.147	0.001
-406.296	-42.158	0.213	-0.109
-405.282	595.555	-0.019	0.048
-404.267	-200.000	-0.039	0.363
-403.252	80.785	0.142	0.153
-402.238	116.796	0.109	0.134
-401.223	62.482	-0.186	-0.186
-400.209	-200.000	0.010	0.134
-399.194	73.224	0.267	0.279
-398.179	62.114	-0.156	0.155
-397.165	-138.389	0.152	0.017
-396.150	739.891	-0.061	-0.164
-395.136	-200.000	-0.000	0.100
-394.121	80.808	0.048	0.052
-393.106	-200.000	0.035	0.196
-392.092	-95.621	0.024	0.006
-391.077	155.241	-0.087	-0.120
-390.063	-50.029	-0.170	-0.081
-389.048	-59.400	0.424	-0.182
-388.033	4.945	-0.096	0.070
-387.019	-200.000	0.040	-0.318
-386.004	-42.248	-0.212	-0.108
-384.990	59.701	-0.199	0.196
-383.975	-11.613	-0.459	0.301
-382.960	39.770	-0.159	-0.142
-381.946	5.343	0.039	0.029
-380.931	-50.421	-0.400	0.189
-379.917	51.276	-0.110	0.104
-378.902	403.691	-0.118	-0.247
-377.888	-200.000	-0.047	-0.275
-376.873	-176.922	0.134	0.003
-375.858	174.880	-0.106	0.154
-374.844	-95.016	0.047	-0.013
-373.829	66.457	0.289	-0.293
-372.815	49.596	-0.293	-0.275
-371.800	-115.567	0.171	0.032
-370.785	37.944	0.166	-0.147
-369.771	-200.000	-0.037	-0.185
-368.756	-74.716	-0.224	0.080
-367.742	-165.289	0.207	-0.009
-366.727	-147.566	-0.345	-0.029
-365.712	659.396	-0.050	-0.129
-364.698	43.381	0.200	0.183
-363.683	-200.000	0.019	-0.193
-362.669	-200.000	0.062	-0.316
-361.654	285.277	-0.042	0.075
-360.639	31.630	-0.055	-0.047
-359.625	691.893	0.092	-0.240
-358.610	-45.159	-0.162	-0.080
-357.596	-75.181	0.223	-0.079
-356.581	142.808	-0.225	0.298
-355.566	13.299	-0.219	-0.169
-354.552	122.225	0.109	-0.136
-353.537	-99.710	0.134	0.033
-352.523	53.724	0.172	0.165
-351.508	-117.901	-0.384	-0.069
-350.493	-0.062	0.099	-0.070
-349.479	-109.237	-0.250	0.053
-348.464	347.168	0.083	-0.162
-347.450	48.640	0.110	-0.103
-346.435	44.754	0.243	0.223
-345.420	-200.000	0.041	0.225
-344.406	64.390	0.135	0.136
-343.391	-200.000	0.023	0.189
-342.377	-67.398	-0.206	0.081
-341.362	546.792	0.142	0.340
-340.348	34.384	-0.242	0.211
-339.333	-200.000	-0.030	0.148
-338.318	194.833	-0.038	-0.057
-337.304	800.000	0.104	0.397
-336.289	98.379	0.137	0.157
-335.275	-200.000	0.006	-0.392
-334.260	-10.115	-0.045	0.030
-333.245	28.520	0.130	0.109
-332.231	349.336	-0.136	-0.267
-331.216	-148.387	0.156	0.013
-330.202	-151.768	0.091	0.007
-329.187	75.273	0.101	-0.106
-328.172	-22.493	-0.108	0.065
-327.158	-26.158	-0.112	-0.066
-326.143	292.814	-0.057	0.104
-325.129	-114.904	0.108	0.020
-324.114	-172.607	0.096	-0.003
-323.099	-67.850	0.271	-0.105
-322.085	-124.974	-0.292	0.045
-321.070	127.735	0.042	0.054
-320.056	39.385	0.050	-0.045
-319.041	-54.312	-0.285	-0.129
-318.026	356.077	0.115	0.228
-317.012	-200.000	-0.064	0.321
-315.997	-97.884	-0.118	0.030
-314.983	70.295	-0.187	0.192
-313.968	23.289	0.174	0.142
-312.953	-169.858	0.344	0.012
-311.939	159.964	-0.043	0.060
-310.924	-126.998	-0.324	0.047
-309.910	800.000	0.048	-0.166
-308.895	-100.384	-0.272	-0.067
-307.880	24.824	-0.126	0.104
-306.866	800.000	0.062	-0.182
-305.851	420.434	-0.067	0.143
-304.837	-9.053	0.280	-0.187
-303.822	113.570	0.232	0.280
-302.807	495.445	0.035	0.081
-301.793	-141.279	0.097	-0.010
-300.778	534.267	0.039	0.091
-299.764	67.642	-0.140	-0.142
-298.749	-157.034	0.157	-0.010
-297.735	-85.116	0.400	-0.125
-296.720	-46.494	-0.114	0.056
-295.705	-25.977	-0.314	0.184
-294.691	533.890	-0.165	-0.389
-293.676	-124.362	-0.222	-0.034
-292.662	-29.140	0.259	-0.148
-291.647	111.113	-0.206	0.247
-290.632	530.742	0.182	0.428
-289.618	441.671	-0.055	0.119
-288.603	466.471	-0.032	-0.072
-287.589	800.000	-0.046	-0.182
-286.574	-200.000	0.007	-0.124
-285.559	139.811	0.045	-0.059
-284.545	307.314	-0.100	0.185
-283.530	-147.979	-0.101	-0.008
-282.516	-113.840	0.055	0.011
-281.501	129.110	0.081	-0.103
-280.486	34.905	-0.187	-0.163
-279.472	250.627	-0.111	0.188
-278.457	175.398	-0.115	-0.165
-277.443	-42.943	0.184	0.093
-276.428	-200.000	0.003	0.088
-275.413	86.622	0.075	0.082
-274.399	28.892	-0.090	-0.076
-273.384	-200.000	-0.002	0.153
-272.370	-199.208	0.260	-0.001
-271.355	-200.000	-0.051	-0.225
-270.340	-107.855	-0.459	-0.099
-269.326	-200.000	0.012	0.372
-268.311	25.989	-0.332	-0.276
-267.297	79.519	-0.267	-0.285
-266.282	116.240	-0.122	-0.149
-265.267	87.130	-0.036	-0.040
-264.253	-200.000	0.050	0.229
-263.238	760.696	0.071	-0.192
-262.224	345.002	0.146	0.286
-261.209	226.176	0.111	0.179
-260.195	800.000	-0.047	-0.189
-259.180	-200.000	0.034	-0.178
-258.165	-125.399	-0.304	-0.046
-257.151	37.741	0.122	-0.108
-256.136	94.062	0.095	-0.107
-255.122	800.000	0.084	-0.305
-254.107	95.750	0.115	-0.130
-253.092	22.011	0.069	-0.056
-252.078	-48.421	0.343	-0.164
-251.063	164.958	-0.188	-0.263
-250.049	-105.384	-0.210	0.048
-249.034	509.759	0.087	0.200
-248.019	-200.000	-0.041	0.312
-247.005	-136.409	0.169	0.020
-245.990	-200.000	0.048	0.259
-244.976	-68.635	-0.419	-0.161
-243.961	-28.257	0.455	-0.261
-242.946	148.090	0.094	0.126
-241.932	87.007	0.266	0.292
-240.917	9.461	-0.229	-0.172
-239.903	-200.000	-0.022	-0.283
-238.888	148.238	0.084	-0.112
-237.873	156.368	-0.151	0.207
-236.859	149.446	0.182	-0.245
-235.844	-12.681	0.181	0.117
-234.830	800.000	0.012	0.040
-233.815	-133.132	0.426	-0.054
-232.800	-61.266	0.197	-0.082
-231.786	-18.378	-0.082	0.051
-230.771	-19.535	-0.231	0.142
-229.757	-108.661	-0.198	0.042
-228.742	-35.218	-0.140	0.076
-227.727	-200.000	-0.024	0.164
-226.713	416.072	0.074	0.157
-225.698	-35.746	-0.146	-0.078
-224.684	-19.731	0.210	0.129
-223.669	-200.000	0.002	-0.130
-222.655	-147.646	0.311	0.026
-221.640	10.601	-0.268	0.202
-220.625	108.675	0.044	-0.052
-219.611	316.880	-0.134	-0.251
-218.596	55.519	-0.155	-0.149
-217.582	464.265	-0.058	-0.128
-216.567	39.457	0.104	-0.092
-215.552	80.123	0.135	0.144
-214.538	4.598	-0.135	-0.098
-213.523	43.144	-0.188	-0.171
-212.509	-180.229	0.284	0.006
-211.494	-200.000	0.030	0.240
-210.479	-149.180	0.189	0.015
-209.465	-200.000	-0.007	0.075
-208.450	-200.000	-0.017	-0.085
-207.436	-68.688	-0.214	0.082
-206.421	67.455	0.205	0.208
-205.406	26.389	0.117	0.097
-204.392	568.393	0.076	0.182
-203.377	800.000	0.081	0.326
-202.363	-200.000	0.001	0.231
-201.348	216.244	0.204	0.321
-200.333	800.000	0.038	0.127
-199.319	792.207	-0.062	-0.170
-198.304	-31.390	0.271	0.151
-197.290	-184.825	0.148	0.002
-196.275	-91.787	-0.216	0.061
-195.260	-6.154	0.215	0.146
-194.246	-113.323	0.078	0.015
-193.231	532.315	0.112	0.263
-192.217	-200.000	0.028	-0.403
-191.202	-200.000	0.034	-0.159
-190.187	-64.286	-0.094	0.038
-189.173	277.402	-0.181	0.320
-188.158	-26.672	0.215	0.125
-187.144	238.682	-0.121	0.199
-186.129	211.668	-0.088	0.138
-185.114	42.731	0.128	0.116
-184.100	299.959	0.085	0.156
-183.085	-43.154	-0.163	-0.082
-182.071	-100.767	-0.128	-0.031
-181.056	-7.764	0.187	0.125
-180.042	55.198	-0.124	-0.118
-179.027	-83.286	0.276	-0.088
-178.012	-200.000	-0.038	-0.228
-176.998	800.000	-0.058	0.185
-175.983	-200.000	-0.034	0.148
-174.969	-79.802	0.151	-0.050
-173.954	-200.000	-0.034	-0.186
-172.939	800.000	0.052	-0.191
-171.925	149.005	-0.067	-0.090
-170.910	-90.236	-0.052	-0.015
-169.896	170.752	0.083	-0.118
-168.881	-200.000	-0.005	0.068
-167.866	17.686	0.195	0.153
-166.852	472.079	0.023	0.051
-165.837	-76.132	-0.343	-0.120
-164.823	92.686	0.111	-0.124
-163.808	37.472	-0.154	-0.135
-162.793	171.175	0.239	-0.340
-161.779	-123.357	0.230	-0.036
-160.764	-62.059	0.073	-0.030
-159.750	-23.113	0.249	0.149
-158.735	-200.000	-0.027	0.185
-157.720	-80.351	0.249	-0.082
-156.706	-200.000	-0.000	-0.112
-155.691	-200.000	-0.013	0.078
-154.677	800.000	0.096	0.302
-153.662	-200.000	-0.015	-0.431
-152.647	-200.000	0.009	0.194
-151.633	-200.000	-0.004	0.180
-150.618	-200.000	0.031	-0.326
-149.604	-200.000	0.049	-0.251
-148.589	108.779	0.141	-0.167
-147.574	-200.000	-0.003	0.233
-146.560	-62.562	0.205	-0.084
-145.545	177.753	0.210	0.302
-144.531	-1.664	-0.179	0.125
-143.516	18.787	-0.200	0.159
-142.502	-100.049	0.379	-0.093
-141.487	-124.695	0.376	-0.058
-140.472	-200.000	0.045	0.448
-139.458	800.000	0.102	-0.315
-138.443	-3.625	-0.276	0.190
-137.429	-67.273	0.327	0.127
-136.414	241.207	-0.201	-0.333
-135.399	107.992	0.231	-0.273
-134.385	-6.973	-0.227	-0.153
-133.370	-60.519	0.171	-0.072
-132.356	800.000	-0.048	0.191
-131.341	326.644	0.138	-0.262
-130.326	-32.448	-0.122	-0.067
-129.312	298.761	-0.195	-0.355
-128.297	-200.000	-0.026	-0.218
-127.283	800.000	0.039	0.154
-126.268	-200.000	-0.084	-0.371
-125.253	413.377	0.133	-0.279
-124.239	200.530	-0.052	0.079
-123.224	581.630	0.082	-0.199
-122.210	-200.000	0.075	-0.526
-121.195	79.404	-0.232	-0.246
-120.180	800.000	-0.077	-0.278
-119.166	-24.215	-0.062	-0.037
-118.151	-136.320	-0.185	0.021
-117.137	800.000	0.089	-0.297
-116.122	-1.930	0.126	0.087
-115.107	154.058	0.220	-0.298
-114.093	-119.738	-0.342	0.058
-113.078	800.000	-0.134	0.386
-112.064	800.000	-0.069	0.248
-111.049	800.000	0.052	0.185
-110.034	207.772	0.200	0.309
-109.020	-106.368	-0.184	0.041
-108.005	800.000	0.037	-0.151
-106.991	651.799	0.056	-0.142
-105.976	-151.682	0.065	0.005
-104.962	-172.484	0.179	0.006
-103.947	-24.145	-0.203	-0.120
-102.932	-200.000	0.029	0.177
-101.918	-75.774	-0.118	-0.041
-100.903	-200.000	-0.052	-0.256
-99.889	310.255	0.166	0.306
-98.874	-39.577	0.251	0.130
-97.859	-80.476	0.070	0.023
-96.845	-146.919	-0.120	0.010
-95.830	800.000	0.119	0.325
-94.816	111.413	-0.103	0.123
-93.801	800.000	0.105	0.336
-92.786	6.356	0.234	0.171
-91.772	-45.790	-0.358	0.175
-90.757	76.742	-0.172	-0.180
-89.743	208.483	0.109	0.168
-88.728	395.454	-0.063	0.130
-87.713	-117.547	-0.238	-0.042
-86.699	32.099	0.280	0.239
-85.684	-124.234	0.370	-0.057
-84.670	-200.000	0.030	-0.162
-83.655	462.868	0.058	-0.128
-82.640	-109.267	0.504	-0.106
-81.626	79.317	-0.101	0.107
-80.611	800.000	0.024	0.095
-79.597	-24.249	-0.167	0.098
-78.582	-200.000	0.034	0.408
-77.567	-160.597	0.345	-0.018
-76.553	-200.000	0.000	-0.250
-75.538	-200.000	0.017	-0.165
-74.524	-83.772	0.290	-0.091
-73.509	588.610	-0.084	-0.205
-72.494	-200.000	-0.017	0.179
-71.480	-200.000	0.037	-0.210
-70.465	800.000	0.074	0.243
-69.451	-161.131	-0.178	0.009
-68.436	-31.130	-0.321	-0.179
-67.422	-200.000	0.030	0.162
-66.407	-60.294	-0.277	0.116
-65.392	-117.817	0.154	-0.027
-64.378	-200.000	0.028	0.315
-63.363	-200.000	0.015	-0.093
-62.349	31.259	-0.071	-0.060
-61.334	12.732	-0.934	-0.711
-60.319	317.463	0.245	0.457
-59.305	93.035	-0.803	-0.894
-58.290	252.865	0.511	0.859
-57.276	800.000	0.434	1.367
-56.261	-200.000	95.163	541.028
-55.246	479.526	1438.178	3213.511
-54.232	146.913	2641.964	3502.397
-53.217	109.104	2215.971	2613.606
-52.203	44.416	1655.133	1498.483
-51.188	36.429	1385.263	1204.551
-50.173	33.121	1342.115	1146.955
-49.159	54.778	1387.093	1319.212
-48.144	56.866	1405.325	1349.356
-47.130	36.624	1363.371	1186.524
-46.115	33.255	1346.005	1150.914
-45.100	32.954	1341.397	1145.106
-44.086	32.868	1339.038	1142.525
-43.071	32.790	1336.802	1140.098
-42.057	32.806	1334.602	1138.274
-41.042	32.794	1333.164	1136.933
-40.027	32.853	1331.389	1135.725
-39.013	32.899	1329.530	1134.370
-37.998	32.860	1327.730	1132.556
-36.984	32.902	1325.961	1131.254
-35.969	32.989	1324.308	1130.322
-34.954	32.912	1322.849	1128.568
-33.940	33.042	1321.048	1127.764
-32.925	32.996	1319.548	1126.164
-31.911	33.029	1318.458	1125.384
-30.896	33.011	1316.941	1123.941
-29.881	33.087	1315.344	1122.987
-28.867	33.115	1313.759	1121.750
-27.852	33.067	1312.770	1120.578
-26.838	33.166	1310.687	1119.340
-25.823	33.039	1309.285	1117.350
-24.809	33.064	1307.933	1116.302
-23.794	33.153	1306.497	1115.552
-22.779	33.039	1305.273	1113.790
-21.765	33.059	1304.208	1112.955
-20.750	32.847	1303.410	1110.984
-19.736	32.910	1302.184	1110.269
-18.721	32.887	1300.740	1108.858
-17.706	32.975	1299.385	1108.175
-16.692	32.860	1298.504	1106.706
-15.677	32.915	1297.096	1105.785
-14.663	32.840	1296.319	1104.637
-13.648	32.837	1295.587	1103.951
-12.633	33.011	1293.620	1103.249
-11.619	32.892	1293.810	1102.672
-10.604	32.897	1292.017	1101.127
-9.590	32.818	1291.341	1100.047
-8.575	32.829	1290.054	1098.971
-7.560	32.893	1289.345	1098.696
-6.546	32.948	1288.342	1098.120
-5.531	32.848	1287.947	1097.158
-4.517	32.824	1286.604	1095.828
-3.502	32.921	1286.043	1095.872
-2.487	32.861	1284.921	1094.522
-1.473	32.907	1281.272	1091.638
-0.458	32.032	1266.618	1074.106
0.556	27.310	1248.915	1035.798
1.571	23.175	1254.354	1016.515
2.586	21.658	1268.591	1019.146
3.600	20.452	1256.735	1002.576
4.615	15.061	1180.773	912.580
5.629	5.543	1101.366	802.528
6.644	0.922	1080.144	763.720
7.659	0.461	1076.943	759.073
8.673	0.417	1076.366	758.378
9.688	0.382	1074.988	757.161
10.702	0.661	1073.431	757.398
11.717	5.915	1080.606	788.853
12.731	14.456	1091.481	839.928
13.746	17.460	1094.998	857.720
14.761	17.126	1094.379	855.474
15.775	16.444	1091.958	850.076
16.790	15.325	1089.905	842.784
17.804	14.535	1088.530	837.683
18.819	14.276	1087.310	835.371
19.834	13.990	1086.559	833.284
20.848	13.819	1085.231	831.333
21.863	13.539	1084.183	829.058
22.877	13.284	1083.918	827.504
23.892	13.287	1083.083	826.807
24.907	13.239	1082.450	826.016
25.921	13.340	1081.444	825.678
26.936	13.364	1080.577	825.060
27.950	13.451	1079.313	824.457
28.965	13.521	1078.200	823.882
29.980	13.410	1077.365	822.619
30.994	13.454	1076.025	821.742
32.009	13.455	1075.438	821.224
33.023	13.491	1074.160	820.357
34.038	13.463	1073.246	819.444
35.053	13.410	1072.533	818.567
36.067	13.396	1071.781	817.852
37.082	13.400	1070.724	816.992
38.096	13.439	1069.973	816.539
39.111	13.475	1069.158	816.024
40.126	13.378	1068.252	814.782
41.140	13.352	1066.571	813.299
42.155	13.252	1065.344	811.801
43.169	13.401	1064.313	811.672
44.184	13.413	1063.401	810.964
45.199	13.253	1062.530	809.449
46.213	13.327	1061.637	809.056
47.228	13.422	1060.306	808.437
48.242	13.399	1059.616	807.726
49.257	13.364	1058.532	806.654
50.271	13.362	1057.643	805.900
51.286	13.449	1056.637	805.485
52.301	13.379	1055.689	804.348
53.315	13.464	1054.502	803.788
54.330	13.340	1053.829	802.602
55.344	13.361	1052.820	801.864
56.359	13.332	1052.100	801.103
57.374	13.379	1051.001	800.423
58.388	13.267	1049.906	798.977
59.403	13.249	1049.335	798.383
60.417	13.154	1049.112	797.686
61.432	13.355	1047.371	797.261
62.447	13.202	1047.012	796.181
63.461	13.190	1046.306	795.516
64.476	13.191	1045.478	794.816
65.490	13.223	1044.354	794.048
66.505	13.316	1043.946	794.114
67.520	13.263	1043.244	793.255
68.534	13.303	1042.333	792.683
69.549	13.255	1041.737	791.931
70.563	13.261	1040.805	791.180
71.578	13.227	1040.252	790.530
72.593	13.179	1039.261	789.474
73.607	13.122	1038.478	788.538
74.622	13.172	1038.294	788.568
75.636	13.213	1037.271	787.916
76.651	13.158	1036.853	787.266
77.666	13.106	1035.736	786.104
78.680	13.180	1035.141	785.935
79.695	13.213	1034.581	785.596
80.709	13.243	1033.797	785.074
81.724	13.423	1032.974	785.232
82.739	13.430	1032.699	784.986
83.753	13.370	1031.867	784.003
84.768	13.521	1030.539	783.639
85.782	13.446	1030.225	782.973
86.797	13.441	1028.949	781.911
87.812	13.521	1028.222	781.666
88.826	13.418	1027.247	780.369
89.841	13.351	1026.552	779.459
90.855	13.341	1025.788	778.764
91.870	13.502	1024.655	778.590
92.884	13.459	1024.177	777.958
93.899	13.609	1022.723	777.488
94.914	13.555	1022.015	776.629
95.928	13.589	1021.138	776.051
96.943	13.511	1020.745	775.320
97.957	13.468	1019.665	774.227
98.972	13.526	1018.818	773.787
99.987	13.535	1017.575	772.818
101.001	13.485	1016.861	771.972
102.016	13.519	1015.853	771.300
103.030	13.471	1015.076	770.416
104.045	13.564	1014.493	770.341
105.060	13.498	1013.587	769.276
106.074	13.513	1012.862	768.729
107.089	13.484	1011.643	767.600
108.103	13.381	1010.996	766.563
109.118	13.321	1010.022	765.478
110.133	13.466	1008.585	764.994
111.147	13.466	1008.159	764.602
112.162	13.321	1007.664	763.490
113.176	13.491	1006.515	763.336
114.191	13.527	1005.750	762.854
115.206	13.507	1005.167	762.252
116.220	13.440	1004.230	761.167
117.235	13.535	1003.341	760.862
118.249	13.438	1002.457	759.680
119.264	13.410	1001.726	758.927
120.279	13.501	1000.981	758.715
121.293	13.540	1000.132	758.180
122.308	13.463	999.509	757.288
123.322	13.268	998.548	755.602
124.337	13.368	997.800	755.428
125.352	13.477	996.392	754.792
126.366	13.494	994.820	753.610
127.381	13.383	994.351	752.683
128.395	13.388	993.317	751.858
129.410	13.445	992.188	751.195
130.424	13.594	991.265	751.104
131.439	13.508	990.632	750.171
132.454	13.610	989.514	749.719
133.468	13.441	988.958	748.468
134.483	13.424	988.289	747.819
135.497	13.390	987.356	746.892
136.512	13.515	986.135	746.465
137.527	13.544	985.376	745.957
138.541	13.580	984.288	745.231
139.556	13.522	984.077	744.742
140.570	13.680	983.217	744.736
141.585	13.615	982.544	743.867
142.600	13.596	981.713	743.089
143.614	13.798	980.428	742.955
144.629	13.686	979.995	742.058
145.643	13.732	979.051	741.482
146.658	13.602	977.774	739.870
147.673	13.546	976.979	738.953
148.687	13.639	976.149	738.675
149.702	13.590	975.413	737.836
150.716	13.654	974.572	737.416
151.731	13.649	973.416	736.457
152.746	13.717	972.718	736.164
153.760	13.636	972.220	735.363
154.775	13.625	972.138	735.187
155.789	13.704	971.043	734.646
156.804	13.739	970.166	734.072
157.819	13.751	969.636	733.657
158.833	13.824	968.935	733.383
159.848	13.737	968.200	732.382
160.862	13.880	966.573	731.716
161.877	13.698	966.284	730.628
162.892	13.709	965.246	729.827
163.906	13.759	964.189	729.182
164.921	13.707	963.251	728.182
165.935	13.686	962.639	727.561
166.950	13.795	961.720	727.283
167.964	13.855	960.662	726.681
168.979	13.852	959.611	725.805
169.994	13.790	959.012	725.019
171.008	13.791	958.659	724.694
172.023	13.911	957.684	724.416
173.037	13.977	956.696	723.890
174.052	13.924	955.969	723.047
175.067	13.759	955.909	722.216
176.081	13.936	954.769	722.061
177.096	13.945	954.099	721.533
178.110	13.949	953.473	721.010
179.125	13.928	953.310	720.735
180.140	13.933	952.749	720.268
181.154	13.868	952.121	719.447
182.169	14.009	951.266	719.346
183.183	14.081	950.945	719.351
184.198	14.056	950.374	718.747
185.213	14.129	949.225	718.133
186.227	14.195	948.212	717.585
187.242	14.101	948.276	717.167
188.256	14.158	947.583	716.825
189.271	14.098	946.732	715.860
190.286	14.063	945.711	714.875
191.300	14.043	945.368	714.463
192.315	13.965	944.546	713.446
193.329	13.973	943.838	712.883
194.344	14.056	943.345	712.800
195.359	14.102	942.817	712.536
196.373	14.184	942.002	712.207
197.388	14.225	941.421	711.883
198.402	14.137	941.387	711.418
199.417	14.286	940.529	711.341
200.432	14.343	940.029	711.144
201.446	14.401	939.163	710.675
202.461	14.388	938.549	710.088
203.475	14.396	938.354	709.916
204.490	14.349	937.391	708.922
205.504	14.328	936.509	708.102
206.519	14.315	935.632	707.322
207.534	14.336	935.091	706.940
208.548	14.316	934.525	706.364
209.563	14.264	933.823	705.550
210.577	14.373	932.856	705.221
211.592	14.404	932.543	705.054
212.607	14.515	931.566	704.719
213.621	14.411	930.939	703.746
214.636	14.578	929.531	703.321
215.650	14.518	929.619	703.073
216.665	14.547	928.712	702.446
217.680	14.545	928.158	701.956
218.694	14.633	927.198	701.540
219.709	14.700	926.711	701.392
220.723	14.443	926.555	700.132
221.738	14.499	925.764	699.705
222.753	14.631	924.910	699.553
223.767	14.550	924.722	699.007
224.782	14.602	923.956	698.586
225.796	14.594	923.682	698.281
226.811	14.574	922.533	697.267
227.826	14.799	921.737	697.544
228.840	14.641	920.978	696.249
229.855	14.535	920.427	695.330
230.869	14.847	919.361	695.763
231.884	14.719	919.085	694.961
232.899	14.652	918.017	693.812
233.913	14.692	917.231	693.320
234.928	14.627	916.746	692.623
235.942	14.562	916.578	692.167
236.957	14.659	915.631	691.792
237.972	14.675	915.016	691.334
238.986	14.712	914.382	690.944
240.001	14.701	913.523	690.189
241.015	14.803	913.045	690.187
242.030	14.671	912.370	689.072
243.045	14.730	912.091	689.046
244.059	14.803	911.286	688.677
245.074	14.817	910.353	687.969
246.088	14.786	909.989	687.506
247.103	14.940	908.927	687.272
248.117	14.803	909.087	686.772
249.132	14.797	908.592	686.312
250.147	14.959	907.244	685.896
251.161	15.109	906.611	685.974
252.176	15.006	906.194	685.176
253.190	15.069	905.253	684.658
254.205	14.885	904.783	683.492
255.220	15.102	904.248	683.915
256.234	15.118	903.289	683.193
257.249	15.057	902.915	682.603
258.263	15.211	902.076	682.534
259.278	15.050	901.596	681.455
260.293	15.285	900.764	681.722
261.307	15.209	900.042	680.805
262.322	15.169	899.895	680.473
263.336	15.097	898.853	679.329
264.351	15.421	898.006	679.946
265.366	15.399	897.175	679.167
266.380	15.342	896.710	678.525
267.395	15.362	895.904	677.934
268.409	15.369	895.055	677.261
269.424	15.349	894.374	676.604
270.439	15.348	893.712	676.038
271.453	15.411	893.087	675.762
272.468	15.183	893.002	674.720
273.482	15.299	892.315	674.608
274.497	15.445	891.435	674.470
275.512	15.458	890.784	673.967
276.526	15.398	890.482	673.437
277.541	15.372	890.325	673.157
278.555	15.564	889.247	673.052
279.570	15.504	888.506	672.192
280.585	15.504	887.588	671.436
281.599	15.455	886.946	670.695
282.614	15.423	886.533	670.198
283.628	15.570	885.924	670.265
284.643	15.587	884.813	669.432
285.657	15.603	884.338	669.075
286.672	15.548	883.765	668.365
287.687	15.596	883.319	668.158
288.701	15.656	882.755	667.911
289.716	15.637	882.383	667.497
290.730	15.728	881.484	667.116
291.745	15.708	880.882	666.524
292.760	15.616	880.614	665.896
293.774	15.656	879.912	665.466
294.789	15.710	879.237	665.109
295.803	15.740	878.517	664.623
296.818	15.591	878.105	663.666
297.833	15.767	877.034	663.494
298.847	15.770	876.550	663.079
299.862	15.882	875.657	662.785
300.876	15.891	875.483	662.630
301.891	15.958	874.440	662.045
302.906	15.901	874.068	661.482
303.920	15.900	873.584	661.054
304.935	16.013	872.987	660.988
305.949	16.019	872.293	660.427
306.964	15.843	871.885	659.370
307.979	16.054	871.087	659.531
308.993	15.995	870.758	658.995
310.008	16.112	869.703	658.596
311.022	15.997	869.379	657.844
312.037	16.036	868.877	657.558
313.052	16.005	868.135	656.817
314.066	16.001	867.362	656.159
315.081	16.008	867.310	656.087
316.095	15.884	866.921	655.253
317.110	15.907	866.045	654.621
318.125	16.072	865.476	654.775
319.139	16.047	864.883	654.171
320.154	16.144	864.526	654.219
321.168	16.257	863.744	654.008
322.183	16.011	863.784	653.027
323.197	15.979	863.080	652.313
324.212	16.070	862.238	651.971
325.227	16.256	861.513	652.085
326.241	16.054	860.871	650.761
327.256	16.197	860.590	651.042
328.270	16.121	859.920	650.183
329.285	16.114	859.433	649.733
330.300	16.150	858.904	649.414
331.314	16.203	858.496	649.251
332.329	16.194	857.569	648.459
333.343	16.350	857.341	648.829
334.358	16.346	856.755	648.311
335.373	16.231	856.646	647.730
336.387	16.391	856.175	647.929
337.402	16.323	856.455	647.825
338.416	16.317	855.717	647.187
339.431	16.426	854.974	646.982
340.446	16.398	855.171	646.968
341.460	16.386	854.629	646.457
342.475	16.432	853.824	645.964
343.489	16.379	853.303	645.312
344.504	16.496	852.991	645.464
345.519	16.549	852.152	644.973
346.533	16.570	851.612	644.588
347.548	16.413	851.170	643.601
348.562	16.518	850.781	643.647
349.577	16.469	850.049	642.850
350.592	16.669	849.428	643.085
351.606	16.509	848.837	641.975
352.621	16.604	847.951	641.608
353.635	16.638	847.783	641.549
354.650	16.630	847.068	640.922
355.665	16.552	846.289	639.980
356.679	16.653	845.665	639.836
357.694	16.758	844.984	639.661
358.708	16.680	844.222	638.732
359.723	16.776	843.645	638.601
360.738	16.743	842.852	637.820
361.752	16.669	842.453	637.183
362.767	16.666	842.212	636.932
363.781	16.857	841.236	636.857
364.796	16.824	840.646	636.229
365.810	16.808	840.738	636.184
366.825	16.849	840.394	636.018
367.840	16.940	839.504	635.632
368.854	16.824	839.291	634.980
369.869	16.997	838.695	635.118
370.883	16.844	838.471	634.320
371.898	16.924	837.917	634.145
372.913	16.946	837.814	634.094
373.927	16.994	836.959	633.571
374.942	16.925	836.780	633.120
375.956	17.092	836.291	633.317
376.971	16.995	835.979	632.663
377.986	17.126	835.201	632.508
379.000	17.225	834.707	632.446
380.015	17.170	834.545	632.060
381.029	17.240	833.496	631.470
382.044	17.144	833.256	630.876
383.059	17.071	833.019	630.372
384.073	17.156	832.235	630.036
385.088	17.100	831.606	629.298
386.102	17.013	831.209	628.620
387.117	17.212	830.059	628.431
388.132	17.194	829.550	627.924
389.146	17.135	829.194	627.380
390.161	17.230	828.842	627.408
391.175	17.277	828.320	627.130
392.190	17.301	827.953	626.886
393.205	17.282	827.100	626.115
394.219	17.208	826.960	625.681
395.234	17.152	826.358	624.965
396.248	17.214	826.217	625.029
397.263	17.201	825.434	624.333
398.278	17.244	825.164	624.234
399.292	17.342	824.633	624.137
400.307	17.246	824.292	623.471
401.321	17.209	824.214	623.222
402.336	17.341	823.443	623.067
403.350	17.304	822.896	622.460
404.365	17.414	822.496	622.506
405.380	17.291	822.280	621.837
406.394	17.383	821.704	621.683
407.409	17.535	820.904	621.576
408.423	17.565	820.637	621.431
409.438	17.621	820.275	621.306
410.453	17.571	819.980	620.847
411.467	17.612	819.228	620.371
412.482	17.614	818.859	620.041
413.496	17.771	818.572	620.342
414.511	17.629	818.472	619.696
415.526	17.700	817.668	619.289
416.540	17.648	817.356	618.810
417.555	17.678	816.748	618.404
418.569	17.752	816.178	618.185
419.584	17.829	815.915	618.211
420.599	17.787	815.431	617.636
421.613	106.449	1289.353	1454.417
422.628	91.925	1358.401	1454.527
