DTS Sentinel unit serial number:	SN413079Multiplexer serial number:	ORYXHardware model number:	OX4-SRSoftware version number:	ORYX F/W v4.00 Oryx Data Collector v3.7.2.0data status	okinstallation	princeton_trtdifferential loss correction	single-endedforward channel	channel 1reverse channel	N/Adate	2019/09/15time	13:30:35forward acquisition time	60.00reverse acquisition time	0.00gamma	496.2192k internal	0.2294k external	0.2294temperature offset calibration	0.9973default loss term (dB/km)	0.3790temperature slope calibration	1.0000multiplexer offset coefficient	1.0000multiplexer slope coefficient	1.0000fibre end	0.00T internal ref (°C)	37.56T ext. ref 1 (°C)	4.85T ext. ref 2 (°C)	34.57length (m)	temperature (°C)	Stokes	anti-Stokes-747.200	253.918	-0.117	0.205
-746.185	-95.190	0.078	0.022
-745.171	134.290	0.183	0.242
-744.156	247.732	-0.092	0.158
-743.142	-84.166	-0.084	-0.027
-742.127	-102.339	-0.057	-0.014
-741.112	-200.000	0.191	0.000
-740.098	27.842	-0.341	0.294
-739.083	71.273	-0.085	0.090
-738.069	88.212	0.302	0.343
-737.054	168.513	0.078	0.113
-736.039	88.237	-0.115	0.131
-735.025	-160.189	-0.223	-0.012
-734.010	-200.000	0.030	-0.138
-732.996	429.779	-0.086	-0.190
-731.981	101.739	0.037	-0.044
-730.966	352.291	0.021	-0.042
-729.952	-57.492	-0.129	0.058
-728.937	697.083	-0.072	-0.194
-727.923	-64.501	0.256	0.106
-726.908	134.503	-0.299	-0.397
-725.894	-200.000	0.019	-0.324
-724.879	-200.000	0.045	-0.249
-723.864	-174.679	-0.348	0.010
-722.850	181.176	-0.066	0.100
-721.835	-200.000	0.036	0.270
-720.821	800.000	0.061	-0.227
-719.806	-101.508	-0.109	-0.027
-718.791	-165.994	-0.490	0.021
-717.777	800.000	-0.095	0.318
-716.762	-133.843	-0.309	0.039
-715.748	16.731	-0.206	-0.167
-714.733	68.952	-0.062	-0.065
-713.718	-44.128	-0.231	0.118
-712.704	81.100	0.083	-0.091
-711.689	-106.503	0.085	0.019
-710.675	-81.185	-0.221	0.075
-709.660	-141.834	-0.327	-0.033
-708.645	-200.000	-0.050	-0.252
-707.631	6.074	-0.169	0.128
-706.616	-33.557	-0.265	-0.150
-705.602	-20.231	-0.118	-0.074
-704.587	779.385	-0.084	-0.236
-703.572	-145.979	0.122	-0.011
-702.558	20.191	0.146	-0.120
-701.543	-97.493	-0.236	-0.063
-700.529	118.126	-0.220	-0.277
-699.514	745.961	-0.025	0.068
-698.499	-82.895	0.244	-0.081
-697.485	-87.305	0.069	0.021
-696.470	-73.765	-0.231	0.086
-695.456	800.000	-0.094	-0.296
-694.441	800.000	-0.122	-0.469
-693.426	-29.386	0.257	-0.150
-692.412	269.238	0.196	-0.350
-691.397	-59.024	-0.309	-0.136
-690.383	-200.000	-0.041	-0.313
-689.368	-9.703	-0.121	-0.082
-688.354	-59.996	-0.294	0.128
-687.339	-200.000	0.003	0.176
-686.324	-200.000	0.016	0.137
-685.310	800.000	-0.016	0.055
-684.295	159.919	0.151	-0.215
-683.281	299.459	-0.081	-0.152
-682.266	-54.067	0.272	0.126
-681.251	-200.000	0.028	-0.406
-680.237	113.250	-0.099	0.123
-679.222	800.000	-0.070	-0.221
-678.208	392.290	-0.152	-0.322
-677.193	-50.631	-0.427	0.205
-676.178	-71.077	0.298	-0.114
-675.164	800.000	-0.066	-0.209
-674.149	800.000	0.038	0.136
-673.135	87.768	-0.241	0.272
-672.120	-200.000	0.022	-0.280
-671.105	245.011	0.084	0.144
-670.091	600.313	0.064	-0.162
-669.076	-200.000	-0.016	0.192
-668.062	-200.000	0.004	-0.130
-667.047	-83.689	0.089	0.029
-666.032	84.232	-0.198	0.221
-665.018	482.302	-0.040	-0.092
-664.003	438.480	-0.123	-0.274
-662.989	800.000	-0.045	-0.143
-661.974	-139.881	-0.230	0.025
-660.959	185.325	0.157	0.238
-659.945	100.483	0.065	0.077
-658.930	30.375	-0.098	-0.085
-657.916	43.482	0.117	0.109
-656.901	102.704	-0.088	-0.105
-655.886	-48.671	0.134	-0.066
-654.872	-200.000	0.019	-0.483
-653.857	-123.712	-0.406	-0.066
-652.843	68.622	0.170	0.178
-651.828	-153.960	0.460	-0.032
-650.814	-124.288	-0.346	-0.055
-649.799	-70.685	-0.182	0.070
-648.784	-27.135	0.078	0.046
-647.770	-8.669	-0.335	-0.229
-646.755	21.589	-0.071	-0.059
-645.741	-200.000	0.057	-0.410
-644.726	30.001	0.155	-0.134
-643.711	-70.480	0.521	-0.201
-642.697	-61.200	-0.236	0.101
-641.682	-91.445	-0.358	0.104
-640.668	117.403	-0.065	-0.082
-639.653	-200.000	-0.026	-0.228
-638.638	-116.254	0.293	0.055
-637.624	676.150	-0.059	0.157
-636.609	81.501	0.226	0.249
-635.595	-90.053	0.319	-0.095
-634.580	-60.901	0.171	-0.074
-633.565	11.506	0.142	0.111
-632.551	800.000	-0.017	-0.064
-631.536	-107.429	0.468	0.105
-630.522	518.337	-0.105	0.250
-629.507	800.000	0.027	-0.083
-628.492	161.851	0.187	0.266
-627.478	-200.000	-0.052	0.234
-626.463	-71.589	0.294	-0.112
-625.449	146.176	0.062	0.084
-624.434	-50.939	-0.256	-0.122
-623.419	-30.810	0.085	0.049
-622.405	-200.000	-0.008	0.270
-621.390	110.906	0.068	-0.083
-620.376	389.130	0.065	-0.137
-619.361	-134.841	0.138	0.017
-618.346	-68.801	0.047	0.019
-617.332	341.907	-0.023	-0.046
-616.317	392.559	-0.097	0.204
-615.303	-112.694	0.244	-0.049
-614.288	505.728	0.067	0.158
-613.273	-29.573	-0.360	-0.209
-612.259	800.000	-0.098	-0.278
-611.244	34.681	0.143	-0.127
-610.230	-110.335	-0.378	0.080
-609.215	-66.214	0.140	-0.057
-608.201	800.000	-0.043	-0.149
-607.186	251.373	0.180	-0.312
-606.171	-200.000	-0.019	-0.329
-605.157	633.995	0.078	-0.201
-604.142	-64.898	0.231	-0.095
-603.128	398.862	-0.070	-0.150
-602.113	320.305	0.162	-0.312
-601.098	0.385	0.093	-0.067
-600.084	195.129	-0.109	-0.168
-599.069	-13.906	0.300	-0.197
-598.055	-184.521	0.261	0.004
-597.040	-20.144	-0.330	-0.207
-596.025	82.093	0.082	-0.090
-595.011	65.840	0.064	0.066
-593.996	511.636	0.079	-0.187
-592.982	272.734	-0.097	0.174
-591.967	-26.752	-0.119	-0.071
-590.952	307.913	0.125	-0.238
-589.938	-88.996	-0.301	-0.090
-588.923	-1.823	0.130	-0.093
-587.909	285.204	-0.075	-0.138
-586.894	-182.414	0.158	0.003
-585.879	446.606	0.063	-0.142
-584.865	82.261	-0.068	-0.075
-583.850	-200.000	0.007	-0.032
-582.836	122.758	-0.124	0.158
-581.821	51.836	0.126	-0.122
-580.806	800.000	0.043	-0.189
-579.792	800.000	0.143	-0.447
-578.777	621.015	0.118	-0.301
-577.763	779.979	-0.075	0.207
-576.748	-141.826	0.353	-0.036
-575.733	-48.495	-0.231	0.113
-574.719	-200.000	0.019	-0.122
-573.704	-9.909	-0.249	0.168
-572.690	79.115	0.095	-0.103
-571.675	-76.789	-0.077	-0.027
-570.661	-18.446	-0.132	0.084
-569.646	-200.000	-0.006	0.232
-568.631	800.000	-0.016	0.052
-567.617	453.655	0.030	-0.066
-566.602	-66.149	-0.243	0.098
-565.588	-200.000	0.045	0.215
-564.573	-75.685	-0.185	-0.067
-563.558	800.000	-0.042	-0.157
-562.544	123.996	-0.179	-0.229
-561.529	-200.000	0.071	-0.475
-560.515	92.494	0.158	-0.181
-559.500	-117.668	-0.274	0.050
-558.485	-200.000	0.044	-0.242
-557.471	-127.237	0.162	0.024
-556.456	120.261	-0.190	-0.240
-555.442	15.686	-0.130	-0.104
-554.427	-52.426	-0.129	0.060
-553.412	350.749	0.063	-0.126
-552.398	-145.681	0.369	-0.033
-551.383	-72.556	-0.201	0.075
-550.369	147.471	-0.051	0.070
-549.354	350.231	-0.013	-0.027
-548.339	108.552	-0.283	0.343
-547.325	53.925	0.175	0.170
-546.310	-6.177	-0.146	0.101
-545.296	119.188	-0.150	0.188
-544.281	-1.723	-0.063	-0.045
-543.266	320.543	-0.083	-0.160
-542.252	98.018	0.092	0.108
-541.237	-200.000	0.015	0.171
-540.223	145.873	-0.133	-0.182
-539.208	-19.643	0.187	0.117
-538.193	-29.090	0.213	-0.124
-537.179	-124.332	0.176	-0.028
-536.164	488.090	-0.035	-0.080
-535.150	-44.831	0.486	-0.246
-534.135	800.000	-0.085	-0.369
-533.121	-12.847	-0.168	0.111
-532.106	191.551	0.167	0.255
-531.091	-147.751	-0.189	-0.016
-530.077	800.000	-0.080	-0.271
-529.062	800.000	-0.053	-0.190
-528.048	-16.189	-0.218	-0.141
-527.033	-157.593	0.402	0.024
-526.018	49.314	-0.251	-0.240
-525.004	-200.000	0.010	-0.110
-523.989	800.000	-0.094	0.266
-522.975	-200.000	0.001	-0.059
-521.960	-200.000	-0.047	0.249
-520.945	-70.818	-0.205	0.079
-519.931	-120.593	0.086	0.015
-518.916	-200.000	0.077	-0.346
-517.902	-27.188	-0.113	0.067
-516.887	-123.770	0.229	0.037
-515.872	-59.567	-0.207	-0.090
-514.858	-89.241	-0.133	-0.040
-513.843	-87.627	-0.117	0.036
-512.829	161.167	0.159	0.226
-511.814	-56.404	-0.143	0.064
-510.799	234.547	0.124	-0.206
-509.785	-200.000	-0.005	-0.351
-508.770	17.860	-0.063	0.051
-507.756	640.506	-0.071	-0.182
-506.741	-23.235	-0.265	-0.162
-505.726	-200.000	-0.062	0.390
-504.712	-101.526	0.061	0.015
-503.697	-200.000	0.009	0.229
-502.683	-17.619	0.110	0.070
-501.668	-122.248	0.174	0.029
-500.653	128.674	0.104	0.134
-499.639	-57.796	0.217	0.096
-498.624	800.000	-0.077	-0.292
-497.610	56.167	-0.094	0.093
-496.595	110.716	0.190	-0.231
-495.581	270.631	-0.047	-0.083
-494.566	-200.000	-0.044	0.298
-493.551	52.693	0.059	0.057
-492.537	-151.535	-0.451	0.034
-491.522	-200.000	-0.085	0.451
-490.508	-200.000	-0.017	0.157
-489.493	-200.000	0.009	0.215
-488.478	800.000	-0.013	-0.040
-487.464	93.113	0.224	-0.257
-486.449	211.229	0.076	0.121
-485.435	-12.870	0.196	-0.130
-484.420	-130.182	0.456	-0.063
-483.405	244.021	-0.122	-0.207
-482.391	-49.079	-0.278	-0.134
-481.376	14.533	0.098	-0.078
-480.362	433.140	-0.015	0.032
-479.347	59.381	-0.192	0.191
-478.332	-200.000	0.027	-0.159
-477.318	-101.607	-0.067	0.016
-476.303	-121.405	-0.101	0.017
-475.289	27.941	0.291	-0.249
-474.274	-50.154	0.198	-0.095
-473.259	89.869	-0.157	-0.178
-472.245	-200.000	-0.025	0.273
-471.230	76.829	-0.230	0.247
-470.216	40.143	-0.014	0.012
-469.201	-200.000	-0.007	-0.298
-468.186	-11.529	-0.349	0.232
-467.172	91.759	0.125	0.142
-466.157	-138.006	0.173	0.019
-465.143	-137.047	-0.213	0.025
-464.128	544.465	-0.088	-0.212
-463.113	-31.583	-0.152	0.086
-462.099	366.329	0.116	-0.238
-461.084	-103.024	0.515	0.123
-460.070	-10.688	-0.030	0.020
-459.055	139.260	-0.145	-0.193
-458.040	-200.000	0.098	-0.458
-457.026	-155.079	-0.390	-0.026
-456.011	-200.000	-0.020	-0.310
-454.997	96.315	0.289	-0.335
-453.982	10.192	-0.180	0.139
-452.968	-167.544	-0.343	-0.014
-451.953	-18.054	0.102	-0.065
-450.938	258.182	0.067	-0.117
-449.924	-149.929	-0.442	0.035
-448.909	-122.146	-0.142	0.024
-447.895	-73.329	0.420	0.155
-446.880	157.235	0.136	-0.190
-445.865	-84.230	0.224	-0.072
-444.851	-90.869	-0.238	-0.069
-443.836	-200.000	0.006	0.351
-442.822	-162.369	0.142	-0.007
-441.807	-15.465	-0.333	0.215
-440.792	-200.000	-0.030	0.422
-439.778	673.008	0.071	-0.186
-438.763	-145.248	0.062	0.006
-437.749	-200.000	-0.087	0.430
-436.734	-157.811	-0.045	-0.003
-435.719	-200.000	0.016	-0.315
-434.705	-17.205	0.238	-0.152
-433.690	-3.700	0.213	-0.150
-432.676	800.000	0.031	0.088
-431.661	-153.588	0.234	-0.016
-430.646	-200.000	-0.003	-0.030
-429.632	48.235	-0.131	0.124
-428.617	-93.120	-0.443	0.125
-427.603	129.776	0.158	0.204
-426.588	-136.436	-0.137	0.016
-425.573	38.685	-0.124	-0.112
-424.559	-101.402	0.247	-0.061
-423.544	200.598	-0.327	0.508
-422.530	800.000	0.029	0.100
-421.515	-95.951	-0.086	-0.023
-420.500	185.497	0.061	-0.092
-419.486	94.983	0.234	-0.269
-418.471	-75.877	0.348	0.124
-417.457	586.022	-0.100	0.248
-416.442	319.138	0.029	0.055
-415.428	-121.439	0.258	0.043
-414.413	-157.133	-0.390	-0.024
-413.398	584.167	-0.041	0.102
-412.384	80.603	0.125	0.136
-411.369	27.600	0.200	0.170
-410.355	-110.728	-0.202	0.042
-409.340	-105.236	-0.215	-0.050
-408.325	-52.286	-0.139	0.065
-407.311	23.009	-0.081	0.067
-406.296	-127.379	-0.360	0.053
-405.282	628.832	-0.032	0.081
-404.267	309.122	0.105	0.198
-403.252	-200.000	-0.022	-0.186
-402.238	119.874	0.165	0.206
-401.223	39.995	0.246	0.223
-400.209	-108.999	-0.393	0.085
-399.194	-121.672	-0.225	0.038
-398.179	-27.495	-0.242	-0.142
-397.165	-200.000	0.008	0.145
-396.150	-200.000	-0.007	0.296
-395.136	-12.092	-0.070	-0.046
-394.121	-151.014	-0.324	0.025
-393.106	-19.484	0.065	-0.041
-392.092	-88.672	-0.385	-0.115
-391.077	-104.809	0.438	-0.102
-390.063	3.795	0.145	-0.107
-389.048	800.000	-0.173	0.485
-388.033	28.797	-0.096	-0.082
-387.019	146.712	0.131	0.178
-386.004	-112.731	0.204	0.041
-384.990	-138.109	-0.200	0.022
-383.975	-125.586	-0.368	-0.056
-382.960	-38.936	-0.393	0.209
-381.946	-27.663	-0.285	-0.167
-380.931	493.001	0.106	0.245
-379.917	-8.264	-0.015	-0.010
-378.902	-200.000	0.057	0.310
-377.888	167.602	-0.168	0.240
-376.873	-23.425	-0.033	0.020
-375.858	-92.709	-0.256	0.072
-374.844	30.992	0.375	-0.324
-373.829	346.552	0.119	-0.237
-372.815	535.564	0.068	0.162
-371.800	-150.985	0.332	0.025
-370.785	81.941	0.062	-0.067
-369.771	800.000	-0.126	0.542
-368.756	800.000	0.040	-0.166
-367.742	-75.817	-0.289	0.103
-366.727	441.765	0.116	0.257
-365.712	-43.200	-0.114	-0.058
-364.698	800.000	0.076	0.258
-363.683	800.000	0.109	0.381
-362.669	210.032	-0.032	-0.051
-361.654	-174.589	-0.150	-0.004
-360.639	-93.637	-0.291	0.081
-359.625	800.000	0.092	0.304
-358.610	123.505	0.178	0.225
-357.596	288.808	-0.049	0.090
-356.581	800.000	-0.049	0.197
-355.566	1.982	-0.118	0.086
-354.552	800.000	0.071	0.248
-353.537	95.397	-0.079	0.090
-352.523	457.482	-0.125	-0.280
-351.508	153.282	-0.076	0.105
-350.493	162.217	-0.307	-0.433
-349.479	108.641	0.107	-0.129
-348.464	-11.372	0.207	-0.138
-347.450	496.752	0.159	-0.369
-346.435	-182.494	0.570	-0.011
-345.420	800.000	0.025	0.070
-344.406	-126.963	-0.484	-0.072
-343.391	-173.473	0.191	-0.006
-342.377	-36.528	0.192	-0.104
-341.362	407.607	-0.133	-0.282
-340.348	-75.385	-0.322	-0.116
-339.333	-100.128	0.090	-0.022
-338.318	-46.984	-0.243	-0.119
-337.304	-73.861	-0.233	0.085
-336.289	-9.312	-0.242	-0.163
-335.275	386.132	0.087	-0.181
-334.260	122.851	-0.072	0.091
-333.245	782.230	0.112	0.307
-332.231	800.000	0.046	-0.149
-331.216	-200.000	-0.000	0.210
-330.202	112.504	-0.081	-0.099
-329.187	-7.654	0.194	0.132
-328.172	-114.981	-0.304	-0.058
-327.158	-200.000	0.043	-0.451
-326.143	34.947	0.165	-0.146
-325.129	377.511	0.041	-0.085
-324.114	-46.017	-0.117	0.058
-323.099	251.460	0.223	0.382
-322.085	80.844	-0.284	0.308
-321.070	-200.000	0.031	0.162
-320.056	40.437	0.137	-0.124
-319.041	341.764	0.168	0.330
-318.026	-200.000	-0.061	0.405
-317.012	54.863	0.080	-0.078
-315.997	-152.659	-0.352	0.025
-314.983	-200.000	0.029	-0.148
-313.968	-85.033	0.152	0.048
-312.953	-200.000	-0.055	0.262
-311.939	154.225	-0.135	-0.187
-310.924	-11.837	0.145	-0.096
-309.910	582.734	0.096	-0.237
-308.895	-140.633	0.053	-0.006
-307.880	-19.075	-0.066	0.041
-306.866	28.640	0.045	-0.038
-305.851	800.000	0.048	0.151
-304.837	114.996	-0.204	0.250
-303.822	-101.110	-0.090	-0.022
-302.807	-200.000	0.004	-0.087
-301.793	68.322	0.194	0.200
-300.778	-115.580	-0.366	0.069
-299.764	574.259	0.081	-0.198
-298.749	380.236	0.101	0.209
-297.735	-142.333	0.036	0.004
-296.720	800.000	0.096	-0.407
-295.705	-25.626	0.254	0.151
-294.691	116.352	0.295	0.363
-293.676	-160.584	-0.138	0.007
-292.662	126.975	-0.173	-0.220
-291.647	-122.154	0.094	-0.015
-290.632	70.761	0.245	0.255
-289.618	-113.232	0.753	0.149
-288.603	54.374	0.164	-0.159
-287.589	-14.896	-0.494	-0.319
-286.574	-31.900	-0.122	0.069
-285.559	-42.878	0.175	0.089
-284.545	158.311	-0.083	-0.116
-283.530	-42.861	-0.085	-0.044
-282.516	-150.017	0.209	-0.016
-281.501	45.722	0.074	-0.069
-280.486	125.244	0.095	-0.121
-279.472	15.244	-0.375	-0.295
-278.457	44.376	0.192	0.178
-277.443	305.741	-0.138	0.258
-276.428	-200.000	0.031	-0.170
-275.413	-200.000	-0.011	0.060
-274.399	340.927	-0.033	0.065
-273.384	135.180	-0.052	-0.068
-272.370	-74.609	-0.238	-0.086
-271.355	800.000	-0.023	0.101
-270.340	-91.672	-0.121	-0.034
-269.326	-66.595	-0.247	-0.098
-268.311	-200.000	0.028	0.235
-267.297	65.487	-0.237	-0.241
-266.282	800.000	0.042	0.156
-265.267	-129.465	0.234	0.033
-264.253	-129.359	-0.428	-0.060
-263.238	-152.448	0.194	0.014
-262.224	466.479	-0.007	-0.015
-261.209	434.337	-0.044	-0.096
-260.195	-71.090	-0.127	0.048
-259.180	158.760	0.130	-0.181
-258.165	-46.749	-0.180	-0.088
-257.151	-132.218	0.300	-0.039
-256.136	-109.691	0.312	0.066
-255.122	-200.000	0.017	-0.138
-254.107	-140.104	0.134	0.014
-253.092	-38.116	0.111	-0.059
-252.078	-58.613	0.353	0.154
-251.063	-200.000	-0.002	0.165
-250.049	61.340	0.252	0.251
-249.034	-200.000	0.024	0.206
-248.019	456.808	-0.080	0.178
-247.005	-88.732	0.194	-0.058
-245.990	202.447	-0.145	0.224
-244.976	-151.500	0.072	0.005
-243.961	-75.175	-0.136	-0.049
-242.946	-200.000	0.092	0.473
-241.932	-92.905	0.241	-0.068
-240.917	-47.881	0.266	0.129
-239.903	-200.000	-0.058	-0.278
-238.888	-27.910	0.170	-0.099
-237.873	154.662	0.186	-0.257
-236.859	-42.237	-0.312	-0.160
-235.844	800.000	-0.038	0.137
-234.830	623.170	0.067	-0.169
-233.815	-171.727	-0.239	0.008
-232.800	-59.758	-0.090	-0.038
-231.786	-70.463	0.068	-0.026
-230.771	800.000	0.057	-0.162
-229.757	800.000	0.095	-0.337
-228.742	452.140	-0.016	-0.036
-227.727	-87.161	0.100	0.031
-226.713	-97.533	-0.103	0.027
-225.698	-49.732	-0.115	0.055
-224.684	-87.135	-0.192	-0.058
-223.669	-200.000	-0.005	-0.255
-222.655	482.168	0.101	0.229
-221.640	-200.000	0.046	0.350
-220.625	134.359	-0.153	0.198
-219.611	-93.439	0.065	0.018
-218.596	-168.109	0.381	0.015
-217.582	800.000	-0.073	0.282
-216.567	204.163	-0.081	-0.126
-215.552	800.000	-0.021	-0.065
-214.538	99.997	-0.085	0.098
-213.523	-200.000	0.013	0.062
-212.509	-112.923	-0.346	0.069
-211.494	24.623	0.169	0.140
-210.479	268.104	-0.043	-0.076
-209.465	531.664	0.051	-0.122
-208.450	800.000	0.092	-0.276
-207.436	193.318	-0.212	0.321
-206.421	44.708	0.320	0.295
-205.406	336.274	0.094	0.183
-204.392	-34.850	0.184	0.101
-203.377	146.962	0.251	0.338
-202.363	31.235	-0.234	-0.201
-201.348	37.933	0.219	-0.195
-200.333	-13.096	0.178	0.116
-199.319	129.068	-0.066	-0.084
-198.304	124.041	-0.062	-0.078
-197.290	-54.472	0.254	-0.115
-196.275	141.662	-0.131	0.174
-195.260	-28.264	-0.173	-0.100
-194.246	-7.513	-0.382	0.259
-193.231	178.052	0.126	-0.183
-192.217	72.886	0.099	-0.103
-191.202	800.000	0.179	-0.495
-190.187	-159.785	0.132	-0.007
-189.173	-60.567	0.280	-0.119
-188.158	4.363	0.109	-0.080
-187.144	-200.000	0.035	0.380
-186.129	-129.761	0.371	-0.051
-185.114	-131.193	-0.019	-0.003
-184.100	-118.990	-0.269	-0.047
-183.085	36.434	0.168	-0.148
-182.071	76.908	0.167	0.178
-181.056	22.216	0.123	0.101
-180.042	143.448	-0.126	0.167
-179.027	-96.358	0.438	0.116
-178.012	590.833	0.035	0.086
-176.998	217.587	-0.170	0.270
-175.983	-200.000	0.016	0.088
-174.969	-200.000	0.010	0.499
-173.954	800.000	-0.013	-0.038
-172.939	700.227	-0.060	0.157
-171.925	-18.557	-0.205	-0.128
-170.910	-78.155	0.105	-0.036
-169.896	88.123	0.185	-0.205
-168.881	276.307	0.057	-0.102
-167.866	609.445	-0.060	0.149
-166.852	-86.540	-0.219	0.067
-165.837	173.150	-0.040	-0.058
-164.823	-58.900	-0.229	0.099
-163.808	-33.270	0.060	0.033
-162.793	-105.739	-0.149	-0.034
-161.779	-129.747	-0.399	-0.055
-160.764	-65.298	-0.099	0.040
-159.750	177.280	-0.167	0.243
-158.735	-200.000	0.052	-0.246
-157.720	-12.848	0.056	0.036
-156.706	426.091	0.073	-0.157
-155.691	132.906	0.155	-0.199
-154.677	-200.000	-0.024	-0.171
-153.662	800.000	0.020	-0.058
-152.647	36.021	-0.061	-0.053
-151.633	-144.829	-0.357	0.033
-150.618	71.421	0.160	-0.166
-149.604	-105.241	0.500	0.114
-148.589	-57.996	0.374	0.163
-147.574	-90.600	-0.190	-0.055
-146.560	-43.845	-0.041	0.021
-145.545	800.000	0.138	0.496
-144.531	514.273	0.074	0.172
-143.516	48.802	0.194	-0.182
-142.502	-99.068	0.259	-0.066
-141.487	-42.506	-0.088	-0.045
-140.472	800.000	-0.015	0.042
-139.458	69.220	-0.221	0.227
-138.443	344.776	0.039	-0.077
-137.429	39.277	-0.192	0.172
-136.414	-200.000	0.007	-0.165
-135.399	189.426	-0.065	-0.097
-134.385	-200.000	-0.011	0.085
-133.370	38.314	0.067	0.060
-132.356	800.000	-0.075	-0.225
-131.341	-200.000	-0.024	-0.386
-130.326	-200.000	0.007	0.031
-129.312	163.292	-0.096	0.135
-128.297	305.378	0.226	0.419
-127.283	196.114	0.074	0.113
-126.268	84.673	-0.192	0.210
-125.253	102.244	-0.060	0.070
-124.239	-161.562	-0.226	-0.012
-123.224	-32.097	0.364	0.204
-122.210	-16.498	0.337	-0.213
-121.195	-83.472	0.568	0.182
-120.180	-200.000	0.027	0.174
-119.166	209.825	-0.251	0.393
-118.151	-66.806	0.205	0.081
-117.137	800.000	-0.022	-0.089
-116.122	505.797	0.022	0.051
-115.107	290.684	0.096	-0.174
-114.093	-200.000	0.006	-0.301
-113.078	271.479	0.113	-0.199
-112.064	-131.202	-0.182	-0.024
-111.049	-200.000	0.071	-0.315
-110.034	10.853	0.415	-0.316
-109.020	-79.660	-0.238	-0.080
-108.005	-47.876	0.122	0.059
-106.991	181.411	-0.083	-0.122
-105.976	-142.965	0.453	-0.044
-104.962	107.010	-0.238	-0.281
-103.947	-39.836	0.078	0.041
-102.932	-83.413	-0.440	-0.141
-101.918	163.310	-0.274	-0.385
-100.903	-82.225	-0.160	0.052
-99.889	-34.691	0.079	0.043
-98.874	436.005	0.079	0.171
-97.859	-200.000	-0.272	-0.001
-96.845	-5.650	0.214	-0.147
-95.830	187.186	-0.147	0.219
-94.816	-103.036	-0.175	-0.041
-93.801	-200.000	0.002	-0.096
-92.786	-112.127	0.332	0.067
-91.772	-45.206	0.190	0.094
-90.757	0.189	0.153	0.109
-89.743	800.000	0.096	0.325
-88.728	106.519	0.192	0.227
-87.713	-37.134	0.087	-0.047
-86.699	15.095	-0.095	0.074
-85.684	-53.362	0.137	-0.063
-84.670	-56.821	-0.128	-0.056
-83.655	-106.911	-0.044	-0.010
-82.640	-162.938	0.350	-0.017
-81.626	128.073	-0.190	0.241
-80.611	800.000	-0.088	-0.246
-79.597	-101.842	0.337	0.081
-78.582	-7.123	0.065	0.044
-77.567	627.032	-0.044	0.110
-76.553	-32.993	0.215	-0.119
-75.538	320.129	0.162	0.307
-74.524	1.069	0.124	0.089
-73.509	-154.540	-0.197	-0.013
-72.494	-116.648	0.202	0.037
-71.480	59.405	0.144	0.142
-70.465	-200.000	-0.025	0.210
-69.451	-46.760	0.137	0.067
-68.436	11.644	-0.032	-0.025
-67.422	-7.435	0.253	0.170
-66.407	-200.000	-0.025	-0.224
-65.392	83.820	-0.261	-0.284
-64.378	113.423	0.120	-0.145
-63.363	642.438	-0.074	-0.187
-62.349	-200.000	-0.011	0.218
-61.334	4.769	-0.727	-0.532
-60.319	-91.916	0.439	-0.124
-59.305	684.591	0.197	-0.512
-58.290	106.711	0.490	0.579
-57.276	743.203	0.674	1.804
-56.261	-200.000	85.184	505.159
-55.246	520.298	1397.009	3260.875
-54.232	180.931	2615.510	3825.460
-53.217	118.309	2239.908	2750.539
-52.203	48.404	1681.228	1567.175
-51.188	40.952	1410.299	1267.313
-50.173	37.545	1366.586	1206.894
-49.159	56.523	1407.708	1362.876
-48.144	61.025	1426.377	1409.179
-47.130	41.422	1386.044	1248.258
-46.115	37.736	1368.334	1209.430
-45.100	37.432	1363.548	1203.269
-44.086	37.425	1361.158	1201.073
-43.071	37.363	1358.653	1198.427
-42.057	37.314	1356.584	1196.256
-41.042	37.383	1354.795	1195.055
-40.027	37.408	1353.371	1193.902
-39.013	37.395	1351.487	1192.116
-37.998	37.475	1349.512	1190.817
-36.984	37.535	1347.384	1189.256
-35.969	37.598	1345.389	1187.833
-34.954	37.586	1343.928	1186.426
-33.940	37.599	1342.626	1185.308
-32.925	37.668	1341.021	1184.263
-31.911	37.571	1339.976	1182.706
-30.896	37.640	1338.242	1181.547
-29.881	37.674	1337.073	1180.671
-28.867	37.747	1335.275	1179.481
-27.852	37.694	1334.004	1177.987
-26.838	37.813	1332.249	1177.115
-25.823	37.643	1331.836	1175.674
-24.809	37.632	1329.919	1173.871
-23.794	37.706	1328.667	1173.161
-22.779	37.702	1327.029	1171.648
-21.765	37.682	1325.680	1170.290
-20.750	37.579	1324.601	1168.672
-19.736	37.530	1323.026	1166.942
-18.721	37.530	1321.699	1165.722
-17.706	37.478	1320.722	1164.507
-16.692	37.493	1319.501	1163.474
-15.677	37.475	1318.693	1162.605
-14.663	37.560	1317.464	1161.982
-13.648	37.524	1316.024	1160.451
-12.633	37.535	1314.551	1159.175
-11.619	37.477	1314.032	1158.326
-10.604	37.582	1312.937	1157.935
-9.590	37.527	1312.146	1156.869
-8.575	37.470	1311.033	1155.500
-7.560	37.495	1310.244	1154.911
-6.546	37.389	1309.329	1153.426
-5.531	37.350	1308.633	1152.534
-4.517	37.403	1307.983	1152.234
-3.502	37.465	1306.923	1151.622
-2.487	37.539	1305.431	1150.700
-1.473	37.600	1301.805	1147.817
-0.458	36.749	1287.430	1130.130
0.556	32.072	1268.963	1091.492
1.571	28.178	1272.752	1071.898
2.586	26.829	1287.285	1076.039
3.600	25.427	1275.329	1057.703
4.615	19.299	1199.348	960.562
5.629	9.795	1119.072	846.541
6.644	5.172	1096.843	805.834
7.659	4.860	1093.886	801.983
8.673	4.692	1092.841	800.280
9.688	4.677	1091.054	798.822
10.702	5.032	1090.089	799.867
11.717	10.821	1098.259	835.634
12.731	18.602	1109.252	884.180
13.746	19.883	1109.834	891.172
14.761	17.923	1106.629	878.445
15.775	16.728	1104.115	870.233
16.790	15.679	1102.028	863.128
17.804	14.886	1100.743	857.976
18.819	14.545	1099.101	854.875
19.834	14.255	1098.367	852.745
20.848	14.027	1097.288	850.660
21.863	13.767	1096.340	848.525
22.877	13.588	1096.141	847.379
23.892	13.573	1095.079	846.406
24.907	13.575	1094.471	845.872
25.921	13.681	1092.876	845.102
26.936	13.710	1091.500	844.112
27.950	13.749	1090.333	843.335
28.965	13.782	1088.815	842.252
29.980	13.928	1087.170	841.643
30.994	13.961	1085.848	840.717
32.009	13.928	1085.238	840.000
33.023	13.865	1084.155	838.771
34.038	13.854	1082.931	837.694
35.053	13.693	1081.921	836.024
36.067	13.863	1080.904	836.023
37.082	13.796	1080.294	835.140
38.096	13.921	1079.406	835.010
39.111	13.770	1078.987	833.852
40.126	13.746	1077.912	832.826
41.140	13.691	1076.199	831.151
42.155	13.560	1075.228	829.675
43.169	13.623	1073.604	828.663
44.184	13.614	1072.783	827.908
45.199	13.627	1071.773	827.122
46.213	13.520	1071.563	826.354
47.228	13.802	1069.660	826.216
48.242	13.761	1068.323	824.906
49.257	13.665	1067.894	824.026
50.271	13.725	1066.770	823.383
51.286	13.726	1066.187	822.867
52.301	13.804	1064.986	822.254
53.315	13.722	1063.848	820.897
54.330	13.721	1062.721	819.950
55.344	13.661	1061.709	818.799
56.359	13.574	1060.918	817.685
57.374	13.665	1060.021	817.371
58.388	13.647	1058.800	816.269
59.403	13.558	1058.624	815.625
60.417	13.583	1057.723	814.982
61.432	13.540	1056.612	813.839
62.447	13.458	1056.337	813.155
63.461	13.411	1055.321	812.069
64.476	13.482	1054.330	811.581
65.490	13.549	1053.052	810.858
66.505	13.508	1052.830	810.413
67.520	13.508	1052.537	810.114
68.534	13.517	1051.342	809.168
69.549	13.551	1050.774	808.823
70.563	13.495	1049.464	807.470
71.578	13.507	1048.993	807.098
72.593	13.322	1048.259	805.559
73.607	13.334	1047.841	805.226
74.622	13.390	1046.909	804.712
75.636	13.487	1046.198	804.565
76.651	13.381	1045.631	803.539
77.666	13.418	1044.865	803.061
78.680	13.365	1044.290	802.290
79.695	13.534	1043.606	802.513
80.709	13.458	1042.920	801.545
81.724	13.501	1042.722	801.531
82.739	13.759	1041.056	801.427
83.753	13.816	1040.431	801.151
84.768	13.820	1039.703	800.537
85.782	13.912	1038.886	800.280
86.797	13.792	1038.067	799.002
87.812	13.739	1037.060	797.901
88.826	13.690	1036.028	796.804
89.841	13.795	1035.115	796.535
90.855	13.919	1033.809	796.054
91.870	13.848	1033.247	795.210
92.884	13.833	1032.603	794.570
93.899	13.966	1031.268	794.110
94.914	13.969	1030.499	793.460
95.928	13.937	1029.533	792.495
96.943	13.879	1029.044	791.773
97.957	13.804	1027.920	790.481
98.972	13.839	1026.927	789.814
99.987	13.947	1026.056	789.587
101.001	13.831	1025.550	788.573
102.016	13.757	1024.371	787.247
103.030	13.889	1023.443	787.092
104.045	13.832	1022.892	786.327
105.060	13.819	1021.867	785.408
106.074	13.782	1020.823	784.363
107.089	13.660	1019.677	782.838
108.103	13.598	1018.878	781.862
109.118	13.563	1017.972	780.933
110.133	13.496	1017.422	780.125
111.147	13.505	1016.427	779.337
112.162	13.575	1015.679	779.022
113.176	13.643	1014.624	778.461
114.191	13.663	1013.841	777.888
115.206	13.794	1013.072	777.843
116.220	13.734	1012.268	776.876
117.235	13.659	1011.290	775.705
118.249	13.555	1010.432	774.492
119.264	13.702	1009.711	774.558
120.279	13.507	1009.465	773.391
121.293	13.671	1007.949	772.923
122.308	13.649	1007.294	772.251
123.322	13.630	1005.939	771.056
124.337	13.671	1004.811	770.311
125.352	13.603	1003.906	769.234
126.366	13.510	1003.277	768.252
127.381	13.670	1001.851	767.837
128.395	13.600	1001.434	767.124
129.410	13.721	999.895	766.437
130.424	13.742	999.278	765.991
131.439	13.732	998.322	765.148
132.454	13.712	997.777	764.567
133.468	13.759	996.604	763.818
134.483	13.788	996.165	763.546
135.497	13.782	995.621	763.035
136.512	13.833	994.499	762.342
137.527	13.703	993.718	761.078
138.541	13.772	992.810	760.632
139.556	13.862	992.282	760.572
140.570	13.791	991.702	759.739
141.585	13.915	990.561	759.361
142.600	14.084	989.333	759.125
143.614	14.141	988.355	758.567
144.629	14.112	987.730	757.888
145.643	14.108	986.847	757.126
146.658	13.943	985.581	755.337
147.673	13.823	985.031	754.305
148.687	13.693	984.236	753.037
149.702	13.726	983.387	752.473
150.716	13.858	982.174	752.077
151.731	13.882	981.863	751.878
152.746	13.779	981.094	750.756
153.760	13.904	980.173	750.553
154.775	13.994	979.711	750.539
155.789	13.999	979.102	750.027
156.804	14.080	978.355	749.753
157.819	13.993	977.769	748.849
158.833	14.046	977.027	748.453
159.848	14.225	975.840	748.281
160.862	13.971	975.370	746.712
161.877	13.868	974.493	745.510
162.892	13.960	972.868	744.615
163.906	13.895	972.139	743.700
164.921	13.809	971.578	742.819
165.935	13.915	970.822	742.653
166.950	13.990	969.258	741.725
167.964	13.982	968.794	741.269
168.979	14.034	967.634	740.545
169.994	13.958	966.765	739.479
171.008	13.960	966.426	739.163
172.023	14.067	965.345	738.742
173.037	14.178	964.554	738.566
174.052	14.061	964.141	737.668
175.067	13.874	963.269	736.104
176.081	13.897	963.072	735.991
177.096	13.908	962.060	735.201
178.110	13.946	961.539	734.906
179.125	13.902	961.254	734.429
180.140	14.173	960.035	734.628
181.154	14.136	959.952	734.338
182.169	14.165	959.576	734.114
183.183	14.305	958.653	733.958
184.198	14.185	958.080	732.925
185.213	14.287	957.330	732.738
186.227	14.204	956.995	732.052
187.242	14.403	956.056	732.140
188.256	14.465	955.070	731.594
189.271	14.296	954.924	730.674
190.286	14.023	954.034	728.735
191.300	13.994	952.980	727.736
192.315	13.990	952.323	727.152
193.329	14.022	951.836	726.855
194.344	14.185	951.057	726.909
195.359	14.071	950.815	726.163
196.373	14.234	949.914	726.123
197.388	14.366	949.807	726.552
198.402	14.420	949.315	726.345
199.417	14.436	948.592	725.797
200.432	14.504	947.647	725.308
201.446	14.509	947.688	725.297
202.461	14.590	946.995	725.053
203.475	14.501	946.231	724.017
204.490	14.518	945.409	723.399
205.504	14.434	944.953	722.623
206.519	14.574	943.894	722.353
207.534	14.345	943.560	721.043
208.548	14.492	942.529	720.827
209.563	14.514	941.484	720.057
210.577	14.445	940.867	719.226
211.592	14.626	940.377	719.566
212.607	14.659	939.826	719.226
213.621	14.568	939.122	718.231
214.636	14.667	938.161	717.857
215.650	14.553	937.654	716.918
216.665	14.608	936.951	716.549
217.680	14.646	936.335	716.178
218.694	14.702	935.605	715.797
219.709	14.840	934.812	715.719
220.723	14.758	934.107	714.766
221.738	14.800	933.397	714.337
222.753	14.744	932.688	713.492
223.767	14.887	932.103	713.591
224.782	14.885	931.520	713.073
225.796	14.914	931.091	712.808
226.811	14.841	930.540	712.013
227.826	14.704	929.825	710.818
228.840	14.648	928.746	709.692
229.855	14.718	928.431	709.684
230.869	14.744	927.409	708.953
231.884	14.701	926.916	708.329
232.899	14.600	926.344	707.402
233.913	14.649	925.506	706.905
234.928	14.758	924.453	706.500
235.942	14.701	924.090	705.919
236.957	14.721	923.497	705.489
237.972	14.760	922.642	704.941
238.986	14.807	921.924	704.527
240.001	14.821	921.289	704.036
241.015	14.920	920.588	703.856
242.030	14.917	920.404	703.640
243.045	14.972	919.565	703.169
244.059	14.952	919.188	702.732
245.074	14.902	918.259	701.752
246.088	14.994	917.756	701.692
247.103	14.983	917.087	701.070
248.117	15.092	916.629	701.115
249.132	15.129	916.149	700.841
250.147	15.349	915.167	700.948
251.161	15.209	914.618	699.880
252.176	15.406	914.136	700.272
253.190	15.248	913.512	699.073
254.205	15.397	912.548	698.892
255.220	15.272	912.167	698.018
256.234	15.327	911.545	697.711
257.249	15.287	910.821	696.928
258.263	15.474	909.843	696.895
259.278	15.423	909.063	696.023
260.293	15.433	908.330	695.444
261.307	15.502	907.980	695.399
262.322	15.549	907.261	694.983
263.336	15.565	906.590	694.474
264.351	15.516	905.831	693.627
265.366	15.562	905.339	693.380
266.380	15.698	904.242	693.036
267.395	15.495	903.867	691.854
268.409	15.510	903.178	691.328
269.424	15.541	902.341	690.752
270.439	15.558	901.499	690.115
271.453	15.641	900.684	689.772
272.468	15.588	899.959	688.939
273.482	15.469	900.111	688.504
274.497	15.605	898.980	688.134
275.512	15.385	898.847	687.072
276.526	15.409	898.436	686.795
277.541	15.480	897.809	686.548
278.555	15.653	897.295	686.800
279.570	15.675	896.397	686.143
280.585	15.692	895.228	685.254
281.599	15.878	894.377	685.300
282.614	15.597	894.014	683.819
283.628	15.680	893.489	683.692
284.643	15.632	893.015	683.073
285.657	15.746	892.239	682.885
286.672	15.651	891.744	682.060
287.687	15.765	891.208	682.053
288.701	15.775	890.675	681.622
289.716	15.834	889.879	681.192
290.730	15.823	889.148	680.529
291.745	15.788	888.941	680.170
292.760	15.909	887.896	679.797
293.774	15.892	887.833	679.621
294.789	15.933	886.654	678.823
295.803	15.927	885.852	678.123
296.818	15.910	885.303	677.574
297.833	15.875	884.350	676.645
298.847	15.884	883.853	676.242
299.862	15.899	883.301	675.820
300.876	16.000	882.315	675.411
301.891	15.990	882.773	675.660
302.906	16.033	881.830	675.051
303.920	16.053	880.893	674.353
304.935	16.231	880.302	674.554
305.949	16.187	879.826	673.953
306.964	16.199	879.176	673.444
307.979	16.042	878.908	672.553
308.993	16.196	878.295	672.638
310.008	16.230	877.759	672.305
311.022	16.288	877.122	671.990
312.037	16.132	876.555	670.873
313.052	16.026	875.941	669.924
314.066	16.111	875.210	669.641
315.081	16.000	874.992	668.974
316.095	15.990	874.305	668.352
317.110	16.017	873.537	667.813
318.125	16.067	873.189	667.684
319.139	16.034	873.053	667.392
320.154	16.165	872.162	667.167
321.168	16.154	871.590	666.629
322.183	16.326	870.814	666.655
323.197	16.145	870.474	665.622
324.212	16.154	870.029	665.259
325.227	16.271	869.229	665.047
326.241	16.368	868.566	664.864
327.256	16.324	868.049	664.236
328.270	16.288	867.442	663.571
329.285	16.245	866.763	662.824
330.300	16.142	866.662	662.286
331.314	16.282	865.979	662.252
332.329	16.253	865.356	661.604
333.343	16.331	865.001	661.579
334.358	16.395	864.766	661.592
335.373	16.367	864.335	661.096
336.387	16.340	864.091	660.744
337.402	16.422	863.473	660.535
338.416	16.381	863.257	660.148
339.431	16.571	862.789	660.473
340.446	16.630	862.469	660.401
341.460	16.769	862.025	660.545
342.475	16.643	861.648	659.705
343.489	16.574	861.340	659.146
344.504	16.648	860.906	659.043
345.519	16.795	860.139	658.968
346.533	16.695	859.582	658.093
347.548	16.769	858.535	657.523
348.562	16.705	858.221	656.975
349.577	16.697	857.744	656.519
350.592	16.561	857.171	655.496
351.606	16.586	856.569	655.076
352.621	16.437	856.056	654.050
353.635	16.592	855.158	653.903
354.650	16.644	854.547	653.580
355.665	16.765	853.829	653.438
356.679	16.595	853.416	652.409
357.694	16.720	852.574	652.190
358.708	16.743	851.777	651.610
359.723	16.825	851.142	651.381
360.738	16.903	850.676	651.266
361.752	16.822	850.071	650.437
362.767	16.898	849.303	650.085
363.781	16.998	848.829	650.045
364.796	16.938	848.833	649.760
365.810	17.043	848.394	649.768
366.825	16.969	848.036	649.155
367.840	17.102	847.173	648.945
368.854	17.009	846.955	648.364
369.869	17.046	846.259	647.918
370.883	16.964	845.873	647.250
371.898	17.079	845.713	647.510
372.913	17.274	845.077	647.710
373.927	17.025	844.588	646.328
374.942	17.155	844.238	646.499
375.956	17.297	843.716	646.583
376.971	17.306	843.249	646.201
377.986	17.261	842.804	645.631
379.000	17.179	842.322	644.893
380.015	17.325	841.947	645.104
381.029	17.316	841.160	644.408
382.044	17.299	840.459	643.749
383.059	17.417	839.648	643.518
384.073	17.373	839.308	643.033
385.088	17.315	838.800	642.368
386.102	17.245	838.526	641.839
387.117	17.181	837.955	641.104
388.132	17.339	837.158	641.032
389.146	17.365	836.598	640.644
390.161	17.417	835.891	640.244
391.175	17.421	835.378	639.808
392.190	17.433	834.976	639.488
393.205	17.255	834.920	638.719
394.219	17.287	833.996	638.078
395.234	17.278	833.857	637.880
396.248	17.141	833.627	637.135
397.263	17.220	833.070	636.950
398.278	17.278	832.488	636.663
399.292	17.228	832.292	636.270
400.307	17.252	831.414	635.631
401.321	17.236	831.093	635.272
402.336	17.199	830.783	634.842
403.350	17.366	830.136	634.912
404.365	17.324	829.387	634.128
405.380	17.607	828.922	634.772
406.394	17.628	828.596	634.542
407.409	17.619	828.327	634.245
408.423	17.630	828.219	634.150
409.438	17.614	827.807	633.717
410.453	17.656	827.397	633.504
411.467	17.762	826.360	633.046
412.482	17.779	826.377	633.067
413.496	17.803	826.122	632.904
414.511	17.786	825.741	632.495
415.526	17.777	824.906	631.766
416.540	17.969	824.004	631.730
417.555	17.808	824.212	631.237
418.569	17.762	823.787	630.685
419.584	17.926	823.106	630.713
420.599	17.771	822.889	629.921
421.613	148.316	1369.602	1778.056
422.628	129.060	1449.260	1778.193
