DTS Sentinel unit serial number:	SN413079Multiplexer serial number:	ORYXHardware model number:	OX4-SRSoftware version number:	ORYX F/W v4.00 Oryx Data Collector v3.7.2.0data status	okinstallation	princeton_trtdifferential loss correction	single-endedforward channel	channel 1reverse channel	N/Adate	2019/09/19time	02:38:35forward acquisition time	60.00reverse acquisition time	0.00gamma	496.2192k internal	0.2344k external	0.2344temperature offset calibration	1.0022default loss term (dB/km)	0.3790temperature slope calibration	1.0000multiplexer offset coefficient	1.0000multiplexer slope coefficient	1.0000fibre end	0.00T internal ref (°C)	20.94T ext. ref 1 (°C)	0.68T ext. ref 2 (°C)	14.71length (m)	temperature (°C)	Stokes	anti-Stokes-747.200	-11.952	-0.290	0.190
-746.185	-1.252	-0.228	-0.161
-745.171	-94.529	0.178	0.049
-744.156	-100.047	-0.208	0.052
-743.142	800.000	-0.108	-0.322
-742.127	30.305	0.197	0.168
-741.112	35.759	0.390	-0.343
-740.098	-168.733	-0.270	-0.010
-739.083	-200.000	-0.015	-0.185
-738.069	-200.000	0.051	0.234
-737.054	-78.551	-0.172	0.059
-736.039	8.272	-0.250	-0.188
-735.025	-100.107	0.063	0.016
-734.010	106.419	0.182	0.216
-732.996	-151.307	-0.390	-0.029
-731.981	-160.816	-0.335	0.018
-730.966	372.172	-0.093	-0.188
-729.952	800.000	-0.060	-0.238
-728.937	-67.383	-0.409	-0.161
-727.923	800.000	0.037	-0.110
-726.908	-200.000	0.044	-0.219
-725.894	-17.700	-0.276	0.173
-724.879	-109.824	-0.131	-0.028
-723.864	10.239	-0.030	-0.023
-722.850	-181.453	-0.243	-0.005
-721.835	-200.000	0.005	-0.115
-720.821	744.359	0.143	0.384
-719.806	6.584	-0.145	0.108
-718.791	-90.695	-0.441	-0.127
-717.777	96.551	-0.269	0.307
-716.762	-72.997	0.220	-0.081
-715.748	-57.828	-0.210	-0.092
-714.733	800.000	-0.026	-0.112
-713.718	770.180	0.095	-0.258
-712.704	-126.762	0.213	0.031
-711.689	32.548	-0.161	-0.139
-710.675	-47.935	0.116	-0.056
-709.660	271.636	0.100	0.175
-708.645	-200.000	-0.036	0.190
-707.631	-107.911	0.042	0.009
-706.616	-200.000	0.018	0.138
-705.602	-200.000	0.004	-0.188
-704.587	339.984	-0.097	-0.190
-703.572	-66.048	0.207	0.083
-702.558	-10.749	0.152	-0.100
-701.543	-69.901	-0.517	-0.197
-700.529	800.000	-0.031	0.110
-699.514	800.000	0.074	0.221
-698.499	-135.274	-0.563	0.067
-697.485	-200.000	-0.001	-0.049
-696.470	800.000	-0.024	0.086
-695.456	-36.389	0.025	-0.014
-694.441	256.299	0.300	0.514
-693.426	71.752	-0.164	-0.170
-692.412	5.524	0.085	0.063
-691.397	147.268	-0.114	0.153
-690.383	-19.280	0.158	0.098
-689.368	-90.197	0.521	-0.151
-688.354	800.000	-0.075	0.220
-687.339	-140.835	-0.131	-0.013
-686.324	-29.620	0.236	0.135
-685.310	212.800	-0.051	0.080
-684.295	-200.000	-0.014	-0.221
-683.281	93.729	-0.225	-0.255
-682.266	61.885	-0.221	-0.220
-681.251	318.324	0.110	0.208
-680.237	-197.392	0.142	-0.001
-679.222	-168.466	-0.283	-0.011
-678.208	-41.876	0.160	-0.082
-677.193	137.266	0.290	-0.378
-676.178	175.058	0.051	-0.074
-675.164	10.339	0.070	-0.053
-674.149	791.793	0.064	-0.176
-673.135	-88.458	-0.170	-0.051
-672.120	-21.567	-0.309	-0.188
-671.105	-200.000	-0.048	0.267
-670.091	146.991	-0.157	-0.211
-669.076	-113.320	0.285	0.056
-668.062	14.899	-0.234	-0.183
-667.047	98.823	-0.025	0.029
-666.032	244.992	-0.100	-0.168
-665.018	-162.169	0.405	0.020
-664.003	484.579	0.126	-0.287
-662.989	106.987	0.258	-0.306
-661.974	348.309	0.100	-0.196
-660.959	-23.347	0.393	-0.236
-659.945	92.527	0.088	-0.099
-658.930	-31.242	0.171	0.096
-657.916	290.795	-0.103	-0.186
-656.901	-200.000	-0.004	0.163
-655.886	-32.232	-0.364	0.203
-654.872	331.435	0.083	0.160
-653.857	-200.000	-0.039	-0.182
-652.843	-145.621	0.257	0.023
-651.828	275.302	0.077	0.136
-650.814	-15.883	0.103	-0.065
-649.799	-153.793	0.195	0.013
-648.784	-200.000	-0.002	-0.109
-647.770	399.536	0.156	0.326
-646.755	-200.000	-0.040	-0.272
-645.741	6.687	-0.152	0.113
-644.726	345.213	-0.146	-0.287
-643.711	280.250	0.158	-0.282
-642.697	-84.578	-0.301	-0.095
-641.682	-136.231	-0.172	-0.020
-640.668	32.528	-0.127	0.109
-639.653	-200.000	0.025	-0.167
-638.638	-51.181	0.149	0.070
-637.624	-5.859	0.168	-0.114
-636.609	113.531	-0.046	0.056
-635.595	-191.942	-0.214	-0.002
-634.580	-29.179	-0.059	-0.034
-633.565	-200.000	-0.014	0.274
-632.551	94.347	-0.094	0.107
-631.536	177.990	-0.078	-0.113
-630.522	-200.000	-0.009	-0.058
-629.507	-12.772	0.233	0.152
-628.492	149.777	0.175	-0.236
-627.478	630.123	0.057	-0.143
-626.463	143.111	0.116	0.153
-625.449	-200.000	-0.115	-0.000
-624.434	-108.499	-0.090	-0.019
-623.419	-69.360	0.062	0.024
-622.405	50.898	-0.197	0.186
-621.390	-40.338	-0.316	0.163
-620.376	35.716	-0.045	-0.039
-619.361	379.062	-0.082	-0.168
-618.346	-128.058	-0.251	0.036
-617.332	148.475	0.060	0.080
-616.317	800.000	0.031	-0.130
-615.303	128.713	-0.247	-0.313
-614.288	-200.000	0.039	-0.253
-613.273	-200.000	0.001	-0.163
-612.259	800.000	0.077	-0.275
-611.244	-98.993	-0.223	0.056
-610.230	32.458	0.302	0.260
-609.215	-200.000	0.022	-0.169
-608.201	800.000	0.094	-0.305
-607.186	-200.000	0.017	0.212
-606.171	257.517	0.035	0.059
-605.157	493.282	0.008	0.018
-604.142	165.494	0.099	-0.139
-603.128	-117.176	0.317	-0.057
-602.113	800.000	0.070	0.209
-601.098	232.497	-0.137	0.225
-600.084	-73.709	-0.265	-0.096
-599.069	-112.736	-0.089	-0.018
-598.055	228.960	0.046	0.074
-597.040	800.000	-0.066	0.218
-596.025	-111.826	0.083	-0.017
-595.011	-145.063	-0.236	-0.021
-593.996	-133.084	-0.239	-0.030
-592.982	-200.000	0.033	-0.189
-591.967	-33.776	0.271	-0.149
-590.952	-160.337	-0.122	-0.007
-589.938	-141.970	0.069	-0.007
-588.923	-34.189	-0.071	-0.039
-587.909	-153.287	-0.160	-0.011
-586.894	-200.000	-0.006	-0.263
-585.879	125.120	0.212	-0.266
-584.865	397.390	-0.088	0.182
-583.850	21.917	0.084	-0.068
-582.836	800.000	0.077	0.219
-581.821	-200.000	0.009	0.199
-580.806	-169.155	0.081	0.003
-579.792	-62.913	0.261	0.108
-578.777	31.040	0.251	0.214
-577.763	-96.746	0.161	0.042
-576.748	-134.682	0.413	-0.050
-575.733	-200.000	-0.011	0.081
-574.719	800.000	0.071	0.220
-573.704	259.740	0.057	-0.098
-572.690	-200.000	0.013	-0.205
-571.675	120.125	0.069	-0.085
-570.661	-104.265	0.111	-0.026
-569.646	-135.091	-0.341	-0.041
-568.631	-54.471	0.050	-0.023
-567.617	173.008	-0.168	0.240
-566.602	274.852	-0.203	-0.358
-565.588	-200.000	0.004	0.196
-564.573	-79.299	0.414	0.139
-563.558	263.548	0.209	0.362
-562.544	-5.059	0.088	-0.060
-561.529	784.590	0.024	0.067
-560.515	-124.200	-0.215	-0.033
-559.500	542.507	0.027	0.064
-558.485	322.010	-0.065	-0.122
-557.471	800.000	-0.056	-0.233
-556.456	171.852	-0.057	-0.082
-555.442	-166.044	-0.232	0.010
-554.427	167.629	0.183	-0.259
-553.412	102.818	-0.311	-0.361
-552.398	-200.000	-0.025	-0.257
-551.383	194.283	-0.080	-0.120
-550.369	-113.187	0.181	0.035
-549.354	11.147	-0.120	-0.091
-548.339	185.915	0.094	-0.138
-547.325	-190.329	0.106	-0.001
-546.310	433.840	-0.196	-0.424
-545.296	36.179	0.173	0.151
-544.281	-87.689	0.199	0.060
-543.266	-200.000	-0.010	0.177
-542.252	230.532	0.123	-0.200
-541.237	-24.467	-0.178	0.105
-540.223	-7.791	-0.048	-0.032
-539.208	149.931	0.125	-0.168
-538.193	144.763	0.173	-0.229
-537.179	-149.195	-0.218	-0.017
-536.164	182.334	0.060	-0.087
-535.150	-200.000	-0.008	0.122
-534.135	25.291	-0.357	0.294
-533.121	-200.000	-0.033	-0.313
-532.106	-200.000	-0.014	-0.150
-531.091	453.162	-0.061	-0.134
-530.077	-88.073	-0.407	0.121
-529.062	-200.000	0.033	0.231
-528.048	-200.000	0.016	0.070
-527.033	-7.194	-0.188	-0.127
-526.018	597.086	0.058	0.143
-525.004	-114.127	-0.149	-0.029
-523.989	-200.000	-0.035	-0.280
-522.975	60.470	-0.079	0.077
-521.960	-200.000	0.043	-0.220
-520.945	418.250	0.139	0.294
-519.931	117.389	-0.143	-0.175
-518.916	800.000	-0.057	-0.183
-517.902	-88.600	0.118	0.035
-516.887	-103.536	-0.198	0.046
-515.872	-123.041	-0.108	-0.017
-514.858	-200.000	0.008	0.099
-513.843	-200.000	-0.008	0.097
-512.829	-113.493	0.209	0.041
-511.814	-131.049	-0.314	0.042
-510.799	-55.442	0.082	-0.036
-509.785	-137.051	-0.162	0.018
-508.770	-142.648	-0.209	-0.020
-507.756	-200.000	-0.037	-0.343
-506.741	-41.821	0.155	-0.079
-505.726	-171.457	-0.081	-0.003
-504.712	-155.931	-0.385	0.024
-503.697	-106.618	0.191	-0.042
-502.683	-80.831	-0.262	-0.086
-501.668	-50.625	0.363	0.170
-500.653	800.000	0.067	0.239
-499.639	28.509	0.323	-0.271
-498.624	800.000	0.099	-0.391
-497.610	1.246	0.217	0.155
-496.595	33.962	-0.099	0.086
-495.581	-52.312	-0.117	0.054
-494.566	800.000	-0.028	-0.114
-493.551	-179.920	-0.406	-0.009
-492.537	70.543	-0.507	0.520
-491.522	-107.085	-0.455	-0.100
-490.508	-200.000	-0.024	-0.136
-489.493	-40.677	0.154	-0.079
-488.478	-174.847	0.223	-0.006
-487.464	67.374	-0.046	0.046
-486.449	230.089	0.204	-0.330
-485.435	-200.000	0.024	-0.159
-484.420	165.779	-0.063	-0.088
-483.405	800.000	0.041	-0.127
-482.391	-200.000	-0.014	-0.300
-481.376	-48.137	0.108	0.052
-480.362	52.060	0.187	-0.177
-479.347	-67.675	-0.108	0.042
-478.332	-131.721	-0.255	-0.033
-477.318	398.938	-0.126	-0.260
-476.303	-84.131	-0.068	-0.021
-475.289	-147.392	-0.154	-0.013
-474.274	-181.553	0.271	0.005
-473.259	800.000	0.051	0.164
-472.245	88.739	0.065	0.072
-471.230	773.865	0.039	-0.105
-470.216	-178.042	-0.210	0.005
-469.201	48.826	-0.183	-0.170
-468.186	-45.169	-0.207	-0.102
-467.172	-133.636	-0.236	0.029
-466.157	-40.153	0.155	0.080
-465.143	180.518	-0.091	0.133
-464.128	-200.000	-0.001	-0.176
-463.113	-200.000	-0.024	-0.320
-462.099	-187.694	0.071	0.001
-461.084	800.000	0.092	-0.305
-460.070	-86.066	0.113	0.034
-459.055	-2.969	0.133	-0.092
-458.040	103.435	-0.304	0.354
-457.026	-106.982	0.095	-0.021
-456.011	-142.488	0.255	0.025
-454.997	193.494	0.094	0.140
-453.982	21.202	0.100	0.080
-452.968	-200.000	-0.062	0.305
-451.953	344.567	-0.097	-0.189
-450.938	776.025	0.059	-0.161
-449.924	-200.000	0.033	0.215
-448.909	132.227	-0.062	0.079
-447.895	800.000	-0.062	-0.181
-446.880	200.985	-0.074	-0.113
-445.865	-100.476	0.063	0.015
-444.851	800.000	-0.072	0.223
-443.836	-200.000	-0.040	-0.184
-442.822	-66.571	0.367	-0.144
-441.807	-200.000	-0.036	-0.245
-440.792	-73.865	0.207	0.074
-439.778	-200.000	0.012	0.162
-438.763	-200.000	-0.064	0.376
-437.749	-60.923	-0.326	0.136
-436.734	-73.584	0.187	0.067
-435.719	-123.871	-0.340	0.053
-434.705	93.164	0.057	-0.064
-433.690	-80.474	0.186	-0.061
-432.676	-200.000	-0.005	-0.121
-431.661	312.794	-0.014	0.027
-430.646	404.344	0.137	0.284
-429.632	-72.882	0.186	-0.068
-428.617	-54.891	0.186	0.083
-427.603	-66.406	-0.168	-0.066
-426.588	207.748	-0.098	0.151
-425.573	104.667	-0.247	-0.288
-424.559	255.273	-0.138	-0.234
-423.544	-55.112	0.040	-0.018
-422.530	-200.000	-0.022	-0.191
-421.515	76.961	0.093	-0.098
-420.500	378.011	-0.174	-0.352
-419.486	-99.817	-0.161	0.040
-418.471	-24.930	0.271	0.159
-417.457	27.914	0.382	0.318
-416.442	793.496	0.100	0.272
-415.428	86.575	-0.232	-0.253
-414.413	-200.000	-0.052	-0.276
-413.398	-30.561	-0.171	-0.096
-412.384	-97.721	0.041	-0.011
-411.369	-173.514	0.279	-0.008
-410.355	-81.354	-0.307	0.100
-409.340	-200.000	-0.007	-0.092
-408.325	800.000	0.098	0.318
-407.311	99.532	0.111	-0.127
-406.296	-200.000	-0.022	-0.129
-405.282	139.765	0.198	-0.257
-404.267	324.407	0.018	-0.034
-403.252	-93.317	-0.244	0.067
-402.238	800.000	0.108	0.367
-401.223	61.470	-0.031	-0.030
-400.209	-137.436	-0.193	0.022
-399.194	39.054	-0.227	0.201
-398.179	82.668	-0.095	-0.102
-397.165	800.000	0.028	0.102
-396.150	-184.055	0.207	0.003
-395.136	42.369	0.069	0.062
-394.121	362.376	-0.122	0.242
-393.106	-200.000	-0.005	-0.165
-392.092	-200.000	-0.001	-0.112
-391.077	-200.000	0.133	0.609
-390.063	-80.595	-0.061	-0.020
-389.048	-96.937	0.191	-0.050
-388.033	37.721	-0.157	0.138
-387.019	-16.182	0.148	0.093
-386.004	578.249	0.157	-0.379
-384.990	-24.960	0.057	-0.034
-383.975	237.730	0.095	0.155
-382.960	-91.156	-0.191	-0.054
-381.946	800.000	-0.009	0.029
-380.931	-62.131	0.152	0.062
-379.917	-200.000	-0.022	0.126
-378.902	-46.529	0.173	0.084
-377.888	-3.702	0.058	-0.040
-376.873	-200.000	-0.016	-0.138
-375.858	-95.755	-0.263	0.069
-374.844	470.939	0.117	-0.260
-373.829	4.843	0.222	0.161
-372.815	-1.684	-0.108	-0.075
-371.800	-16.515	-0.215	-0.134
-370.785	-122.584	0.150	-0.024
-369.771	800.000	0.073	0.311
-368.756	-12.380	0.156	0.100
-367.742	-85.994	-0.142	-0.043
-366.727	283.662	-0.120	-0.212
-365.712	-148.526	0.230	-0.019
-364.698	89.624	-0.227	0.250
-363.683	-122.360	-0.233	-0.037
-362.669	-130.352	-0.196	-0.026
-361.654	688.350	0.052	0.133
-360.639	-108.554	-0.180	0.038
-359.625	279.251	0.225	0.395
-358.610	-200.000	0.024	0.284
-357.596	62.514	-0.185	0.182
-356.581	800.000	0.037	-0.154
-355.566	-200.000	-0.061	-0.321
-354.552	38.484	-0.058	-0.051
-353.537	-200.000	0.000	0.055
-352.523	-200.000	-0.035	-0.259
-351.508	-200.000	-0.030	0.217
-350.493	-71.000	0.069	0.025
-349.479	39.446	-0.233	0.206
-348.464	-112.352	0.182	0.036
-347.450	-27.887	0.245	0.140
-346.435	-85.048	-0.059	-0.018
-345.420	57.694	-0.157	-0.152
-344.406	-7.062	0.359	-0.240
-343.391	-22.010	0.352	-0.211
-342.377	12.577	0.285	0.216
-341.362	800.000	0.048	-0.154
-340.348	154.397	-0.094	-0.127
-339.333	800.000	-0.076	-0.283
-338.318	-200.000	0.019	0.088
-337.304	-67.267	-0.528	0.205
-336.289	326.996	0.053	0.100
-335.275	-200.000	0.009	-0.340
-334.260	-42.861	0.172	0.086
-333.245	-38.738	0.134	-0.070
-332.231	-107.816	-0.235	-0.050
-331.216	800.000	-0.020	0.084
-330.202	-200.000	-0.004	-0.038
-329.187	15.723	0.165	-0.128
-328.172	-200.000	-0.024	0.163
-327.158	-200.000	0.035	-0.199
-326.143	-188.743	-0.576	-0.007
-325.129	-35.849	0.327	0.174
-324.114	7.411	-0.159	0.117
-323.099	40.289	0.210	-0.186
-322.085	-33.721	0.238	0.129
-321.070	566.915	-0.085	0.204
-320.056	-35.058	0.235	-0.126
-319.041	-5.778	-0.189	0.127
-318.026	66.853	0.109	0.109
-317.012	176.049	-0.056	-0.080
-315.997	-147.820	0.154	0.013
-314.983	155.360	-0.090	0.122
-313.968	800.000	0.020	0.059
-312.953	159.201	-0.210	0.287
-311.939	-91.644	-0.364	-0.102
-310.924	271.806	-0.127	0.220
-309.910	368.674	-0.088	0.175
-308.895	540.596	-0.134	-0.313
-307.880	800.000	0.132	0.552
-306.866	184.409	0.167	0.243
-305.851	-151.972	-0.315	0.023
-304.837	12.062	0.009	0.007
-303.822	-66.786	0.350	-0.136
-302.807	48.917	-0.112	-0.103
-301.793	-200.000	-0.021	0.202
-300.778	239.435	-0.173	-0.283
-299.764	-200.000	0.012	0.103
-298.749	-33.438	-0.102	0.056
-297.735	420.002	-0.057	-0.120
-296.720	-27.171	0.268	-0.154
-295.705	-25.417	-0.240	0.139
-294.691	218.232	-0.070	-0.111
-293.676	-33.250	-0.058	0.032
-292.662	-128.875	-0.099	0.014
-291.647	-200.000	0.013	-0.067
-290.632	117.568	-0.230	0.278
-289.618	-166.622	-0.128	0.005
-288.603	-200.000	-0.023	-0.253
-287.589	34.279	-0.025	0.022
-286.574	158.012	0.046	0.062
-285.559	40.185	0.129	0.114
-284.545	-90.970	-0.394	0.112
-283.530	-197.674	0.400	0.002
-282.516	326.092	0.090	0.170
-281.501	-87.250	-0.341	0.102
-280.486	-98.559	0.355	-0.089
-279.472	-200.000	-0.016	-0.129
-278.457	-200.000	0.040	0.198
-277.443	145.766	-0.073	-0.096
-276.428	800.000	0.086	-0.257
-275.413	-64.947	-0.170	0.067
-274.399	-40.117	-0.225	0.115
-273.384	789.899	-0.065	0.177
-272.370	505.574	0.165	-0.376
-271.355	-3.019	0.159	0.109
-270.340	671.727	0.113	-0.288
-269.326	-31.767	0.112	-0.062
-268.311	800.000	-0.079	0.304
-267.297	-106.849	0.046	0.010
-266.282	303.449	0.133	-0.242
-265.267	-197.314	-0.316	0.002
-264.253	800.000	-0.105	0.346
-263.238	-42.887	-0.200	0.100
-262.224	-200.000	-0.017	0.120
-261.209	-200.000	-0.058	0.426
-260.195	-122.648	0.164	-0.026
-259.180	-104.731	0.226	0.051
-258.165	25.112	-0.060	-0.049
-257.151	-80.249	0.289	0.095
-256.136	-107.017	0.170	-0.037
-255.122	-200.000	0.012	-0.095
-254.107	-50.867	-0.466	0.215
-253.092	563.556	-0.093	-0.220
-252.078	-119.591	0.238	-0.040
-251.063	-65.221	0.095	0.037
-250.049	30.029	-0.026	-0.022
-249.034	-19.830	0.123	-0.074
-248.019	321.878	-0.051	0.095
-247.005	432.166	-0.055	-0.118
-245.990	-135.694	0.096	-0.011
-244.976	-200.000	-0.035	0.288
-243.961	41.560	0.058	0.052
-242.946	-105.614	-0.138	0.031
-241.932	-189.349	0.361	0.004
-240.917	-119.818	-0.329	0.056
-239.903	437.614	-0.083	-0.177
-238.888	167.969	-0.111	-0.155
-237.873	277.817	0.181	0.316
-236.859	-115.835	0.371	0.068
-235.844	-5.770	-0.190	0.128
-234.830	177.724	0.268	-0.383
-233.815	-83.837	0.341	0.106
-232.800	369.283	0.134	0.266
-231.786	-83.488	0.089	-0.028
-230.771	-172.858	0.108	0.003
-229.757	-200.000	-0.006	-0.074
-228.742	107.152	-0.164	-0.191
-227.727	87.643	-0.028	0.031
-226.713	184.593	0.100	0.145
-225.698	-32.614	-0.170	0.093
-224.684	70.245	0.184	-0.186
-223.669	-167.051	0.275	0.011
-222.655	73.207	-0.149	0.153
-221.640	-20.101	0.219	0.132
-220.625	154.960	0.101	0.136
-219.611	503.488	0.127	-0.288
-218.596	-115.946	-0.455	0.083
-217.582	-4.199	0.142	0.096
-216.567	-200.000	-0.017	-0.172
-215.552	433.955	-0.006	-0.012
-214.538	1.646	0.229	-0.162
-213.523	26.145	0.175	-0.144
-212.509	-93.151	0.081	-0.022
-211.494	-22.353	0.187	0.111
-210.479	61.779	0.342	-0.334
-209.465	89.507	0.197	0.215
-208.450	-145.513	0.204	-0.018
-207.436	-44.304	-0.081	-0.040
-206.421	20.676	0.086	0.068
-205.406	138.529	0.328	0.422
-204.392	-165.001	0.356	-0.016
-203.377	-200.000	-0.021	0.210
-202.363	-200.000	0.013	0.394
-201.348	328.640	-0.089	0.167
-200.333	500.831	-0.100	-0.227
-199.319	-196.360	0.133	-0.001
-198.304	674.631	0.085	-0.217
-197.290	1.953	-0.151	-0.107
-196.275	800.000	-0.085	0.236
-195.260	410.739	-0.086	0.178
-194.246	-10.959	0.123	0.080
-193.231	800.000	0.017	0.049
-192.217	800.000	0.061	0.171
-191.202	167.130	0.167	0.232
-190.187	-120.035	0.082	-0.014
-189.173	275.595	-0.056	-0.097
-188.158	-200.000	-0.002	-0.223
-187.144	-67.212	-0.132	0.051
-186.129	680.315	0.126	0.320
-185.114	52.680	-0.149	0.140
-184.100	-161.280	0.112	0.006
-183.085	485.705	-0.016	-0.036
-182.071	800.000	-0.039	0.110
-181.056	288.287	0.070	-0.124
-180.042	-146.042	-0.207	-0.018
-179.027	93.204	-0.041	-0.045
-178.012	-61.525	0.090	0.037
-176.998	3.402	-0.104	0.074
-175.983	-200.000	-0.017	-0.261
-174.969	-200.000	-0.016	0.217
-173.954	119.588	0.062	-0.075
-172.939	-0.847	-0.120	-0.083
-171.925	-72.871	0.076	-0.027
-170.910	-107.338	-0.178	0.038
-169.896	-168.232	0.291	0.011
-168.881	-166.379	-0.311	0.013
-167.866	62.562	-0.065	-0.064
-166.852	20.102	-0.163	-0.128
-165.837	-63.180	0.042	0.017
-164.823	-200.000	-0.079	0.361
-163.808	800.000	0.055	-0.194
-162.793	-70.518	0.046	-0.017
-161.779	29.499	0.171	0.142
-160.764	-200.000	0.043	-0.268
-159.750	800.000	0.051	0.160
-158.735	-169.046	-0.257	0.009
-157.720	-25.677	0.172	0.099
-156.706	800.000	0.062	0.218
-155.691	419.422	-0.067	0.140
-154.677	-200.000	-0.070	-0.413
-153.662	-28.739	-0.164	0.093
-152.647	-116.734	0.239	0.043
-151.633	51.626	-0.077	0.071
-150.618	-102.305	0.203	-0.048
-149.604	-16.106	-0.060	0.037
-148.589	494.706	0.160	-0.360
-147.574	-129.883	0.254	-0.034
-146.560	800.000	0.074	0.212
-145.545	251.444	0.103	0.171
-144.531	277.291	0.049	-0.085
-143.516	-39.372	-0.386	0.198
-142.502	-29.329	0.190	0.106
-141.487	701.216	-0.083	0.214
-140.472	-73.013	-0.115	0.041
-139.458	-137.040	-0.316	0.035
-138.443	-200.000	0.009	-0.096
-137.429	241.569	0.291	-0.476
-136.414	257.197	-0.080	-0.135
-135.399	12.345	0.374	-0.282
-134.385	67.852	0.100	0.100
-133.370	-200.000	0.019	0.221
-132.356	-126.163	-0.303	0.044
-131.341	-200.000	0.018	0.396
-130.326	55.019	0.046	-0.044
-129.312	-37.443	-0.093	-0.049
-128.297	253.184	0.035	0.059
-127.283	202.479	0.133	0.200
-126.268	531.817	-0.195	0.450
-125.253	-121.872	-0.034	-0.005
-124.239	-83.344	-0.387	0.121
-123.224	575.990	0.033	-0.080
-122.210	30.445	0.107	0.089
-121.195	370.856	-0.122	0.241
-120.180	800.000	0.090	-0.306
-119.166	36.150	0.146	-0.126
-118.151	800.000	0.055	0.207
-117.137	8.655	0.150	0.110
-116.122	209.003	0.084	0.128
-115.107	196.932	-0.101	-0.151
-114.093	-86.418	0.223	-0.067
-113.078	800.000	-0.073	-0.197
-112.064	548.092	0.069	0.160
-111.049	-200.000	-0.035	0.241
-110.034	-44.810	0.231	-0.112
-109.020	294.577	-0.074	0.133
-108.005	103.615	0.206	0.236
-106.991	800.000	0.161	0.528
-105.976	-200.000	-0.339	0.001
-104.962	59.169	-0.229	0.220
-103.947	-81.666	-0.382	0.122
-102.932	-97.954	-0.048	0.012
-101.918	-1.046	0.164	-0.113
-100.903	-129.716	-0.293	-0.039
-99.889	-93.667	0.261	0.070
-98.874	-39.542	0.331	0.169
-97.859	-200.000	-0.032	-0.181
-96.845	-200.000	0.006	0.064
-95.830	800.000	0.045	-0.162
-94.816	-140.557	-0.433	0.044
-93.801	-200.000	-0.008	0.199
-92.786	-200.000	0.013	-0.079
-91.772	800.000	-0.052	0.183
-90.757	142.356	-0.055	0.071
-89.743	800.000	-0.040	-0.150
-88.728	518.917	0.022	-0.050
-87.713	-200.000	-0.048	-0.422
-86.699	-200.000	0.017	0.200
-85.684	-200.000	0.013	-0.067
-84.670	78.016	0.058	0.060
-83.655	119.902	-0.154	-0.187
-82.640	800.000	0.071	-0.206
-81.626	800.000	0.092	0.266
-80.611	624.977	-0.029	0.072
-79.597	14.804	-0.152	-0.116
-78.582	-151.615	0.145	0.010
-77.567	-164.814	-0.136	0.006
-76.553	-162.296	0.131	-0.006
-75.538	158.207	-0.218	0.294
-74.524	408.346	-0.053	0.109
-73.509	-200.000	-0.038	0.387
-72.494	-16.208	-0.231	0.143
-71.480	-3.813	0.258	-0.174
-70.465	61.687	0.102	0.099
-69.451	39.823	-0.130	0.114
-68.436	369.116	0.061	-0.121
-67.422	610.827	0.131	-0.320
-66.407	126.071	-0.342	0.421
-65.392	-200.000	0.015	-0.117
-64.378	-36.190	0.350	0.184
-63.363	800.000	0.042	-0.116
-62.349	-45.400	0.294	-0.142
-61.334	86.809	-1.224	-1.317
-60.319	39.129	0.924	0.805
-59.305	343.195	-0.727	-1.388
-58.290	216.867	0.803	1.245
-57.276	750.964	0.490	1.288
-56.261	-200.000	135.394	681.548
-55.246	337.758	1676.125	3176.158
-54.232	134.032	2802.986	3537.535
-53.217	87.500	2172.134	2342.407
-52.203	32.060	1602.572	1345.969
-51.188	24.139	1351.122	1086.628
-50.173	21.933	1314.706	1044.188
-49.159	49.676	1388.689	1274.385
-48.144	46.142	1397.534	1260.820
-47.130	24.293	1345.141	1082.584
-46.115	21.129	1326.182	1048.312
-45.100	20.875	1320.616	1042.351
-44.086	20.820	1318.120	1040.009
-43.071	20.751	1316.136	1037.991
-42.057	20.845	1313.512	1036.441
-41.042	20.806	1312.283	1035.196
-40.027	20.877	1311.083	1034.631
-39.013	20.893	1308.785	1032.870
-37.998	20.926	1306.856	1031.506
-36.984	20.969	1305.212	1030.419
-35.969	20.826	1303.905	1028.502
-34.954	20.874	1302.127	1027.343
-33.940	20.947	1301.026	1026.864
-32.925	20.924	1299.572	1025.537
-31.911	21.021	1297.992	1024.822
-30.896	20.969	1296.450	1023.259
-29.881	21.052	1294.942	1022.515
-28.867	21.033	1293.369	1021.117
-27.852	21.095	1292.355	1020.640
-26.838	21.107	1290.782	1019.426
-25.823	21.086	1289.770	1018.464
-24.809	21.073	1288.208	1017.114
-23.794	20.941	1287.179	1015.496
-22.779	20.988	1285.859	1014.687
-21.765	20.949	1284.678	1013.489
-20.750	20.918	1283.191	1012.097
-19.736	21.003	1282.079	1011.670
-18.721	20.904	1281.411	1010.527
-17.706	20.925	1279.855	1009.382
-16.692	20.894	1278.758	1008.298
-15.677	20.982	1277.578	1007.839
-14.663	20.966	1276.178	1006.598
-13.648	20.965	1275.137	1005.733
-12.633	20.871	1274.567	1004.703
-11.619	20.889	1273.962	1004.292
-10.604	20.923	1272.568	1003.343
-9.590	20.775	1271.984	1001.993
-8.575	20.798	1271.227	1001.488
-7.560	20.888	1270.249	1001.196
-6.546	20.871	1269.024	1000.094
-5.531	20.836	1268.099	999.127
-4.517	20.979	1267.785	999.660
-3.502	20.970	1266.554	998.595
-2.487	20.871	1265.732	997.343
-1.473	20.800	1261.218	993.341
-0.458	19.072	1246.704	972.116
0.556	14.973	1230.549	936.000
1.571	11.315	1239.510	922.086
2.586	10.767	1255.051	930.425
3.600	10.986	1242.342	922.160
4.615	8.295	1170.657	854.488
5.629	3.112	1101.700	777.918
6.644	0.750	1085.741	754.801
7.659	0.600	1084.093	752.842
8.673	0.667	1083.122	752.432
9.688	0.683	1081.595	751.387
10.702	0.869	1078.938	750.394
11.717	3.922	1082.528	768.000
12.731	10.488	1090.863	806.602
13.746	15.673	1097.704	837.484
14.761	17.298	1099.751	847.072
15.775	16.583	1097.712	841.872
16.790	15.676	1095.651	835.707
17.804	15.039	1093.947	831.171
18.819	14.664	1093.075	828.572
19.834	14.455	1091.949	826.612
20.848	13.972	1092.157	824.298
21.863	13.944	1090.121	822.554
22.877	13.764	1089.285	820.958
23.892	13.744	1088.932	820.519
24.907	13.742	1088.655	820.231
25.921	13.727	1087.792	819.430
26.936	13.803	1086.636	818.861
27.950	13.885	1085.390	818.255
28.965	13.933	1084.237	817.552
29.980	13.918	1083.278	816.684
30.994	13.945	1081.939	815.733
32.009	13.993	1081.401	815.491
33.023	13.998	1079.971	814.365
34.038	13.943	1079.020	813.307
35.053	13.872	1078.359	812.389
36.067	13.834	1077.519	811.496
37.082	13.930	1076.437	811.080
38.096	14.001	1075.739	810.829
39.111	13.888	1075.529	810.048
40.126	13.872	1074.168	808.872
41.140	13.702	1072.852	806.983
42.155	13.740	1071.539	806.109
43.169	13.659	1070.820	805.103
44.184	13.729	1069.802	804.606
45.199	13.660	1068.807	803.452
46.213	13.694	1067.965	802.915
47.228	13.828	1066.553	802.427
48.242	13.861	1065.312	801.585
49.257	13.750	1064.792	800.585
50.271	13.781	1063.683	799.830
51.286	13.837	1062.749	799.325
52.301	13.950	1061.601	798.935
53.315	13.935	1060.564	798.014
54.330	13.753	1059.749	796.456
55.344	13.722	1059.166	795.797
56.359	13.717	1058.235	795.002
57.374	13.793	1056.810	794.227
58.388	13.611	1056.426	792.997
59.403	13.702	1055.361	792.564
60.417	13.643	1055.021	791.953
61.432	13.652	1054.364	791.436
62.447	13.560	1052.900	789.826
63.461	13.569	1052.254	789.315
64.476	13.622	1051.409	788.866
65.490	13.693	1050.351	788.340
66.505	13.551	1049.752	787.145
67.520	13.716	1048.825	787.161
68.534	13.672	1048.291	786.483
69.549	13.742	1047.321	786.018
70.563	13.679	1046.687	785.174
71.578	13.696	1045.766	784.492
72.593	13.572	1045.189	783.408
73.607	13.635	1044.900	783.416
74.622	13.636	1043.744	782.489
75.636	13.650	1043.092	781.995
76.651	13.636	1042.431	781.365
77.666	13.594	1042.078	780.831
78.680	13.613	1041.213	780.204
79.695	13.707	1040.224	779.838
80.709	13.650	1039.861	779.226
81.724	13.623	1039.442	778.715
82.739	13.780	1038.341	778.560
83.753	13.739	1037.989	778.034
84.768	13.916	1036.551	777.716
85.782	14.007	1035.422	777.227
86.797	13.841	1034.761	775.888
87.812	13.841	1033.675	775.003
88.826	13.874	1032.685	774.347
89.841	13.889	1031.485	773.449
90.855	13.777	1030.983	772.483
91.870	13.805	1030.137	771.913
92.884	13.988	1028.831	771.711
93.899	14.005	1027.870	771.003
94.914	13.887	1027.197	769.884
95.928	14.005	1026.080	769.524
96.943	13.819	1025.889	768.451
97.957	13.859	1025.128	767.999
98.972	13.968	1023.932	767.539
99.987	13.880	1023.337	766.618
101.001	13.928	1021.945	765.728
102.016	13.966	1021.221	765.295
103.030	13.997	1020.348	764.713
104.045	13.853	1019.674	763.481
105.060	13.880	1019.327	763.276
106.074	13.840	1018.279	762.240
107.089	13.818	1016.830	760.987
108.103	13.880	1016.171	760.711
109.118	13.733	1015.424	759.411
110.133	13.829	1014.232	758.890
111.147	13.712	1013.291	757.587
112.162	13.862	1012.127	757.334
113.176	13.864	1012.037	757.208
114.191	13.929	1011.222	756.828
115.206	13.671	1010.827	755.290
116.220	13.829	1009.559	754.995
117.235	13.883	1008.693	754.524
118.249	13.757	1008.215	753.530
119.264	13.877	1007.215	753.257
120.279	13.862	1006.562	752.637
121.293	13.806	1005.640	751.626
122.308	13.876	1004.529	751.046
123.322	13.692	1004.040	749.784
124.337	13.774	1002.713	749.093
125.352	13.768	1001.430	748.041
126.366	13.804	1000.295	747.289
127.381	13.705	999.282	746.024
128.395	13.679	997.993	744.876
129.410	13.809	997.485	745.019
130.424	13.745	996.624	744.022
131.439	13.897	995.426	743.740
132.454	13.818	995.053	743.044
133.468	13.837	994.351	742.540
134.483	13.822	993.103	741.471
135.497	13.788	992.624	740.897
136.512	13.837	991.525	740.231
137.527	13.864	990.592	739.589
138.541	13.844	989.886	738.906
139.556	13.839	989.429	738.477
140.570	13.961	988.306	738.116
141.585	13.936	987.560	737.383
142.600	13.825	987.113	736.492
143.614	13.866	986.055	735.820
144.629	13.956	985.079	735.422
145.643	14.055	984.075	735.049
146.658	14.124	982.617	734.198
147.673	13.944	982.158	732.995
148.687	14.072	981.318	732.870
149.702	13.983	980.661	731.922
150.716	13.893	979.961	730.937
151.731	13.977	978.697	730.301
152.746	14.062	978.068	730.141
153.760	14.054	977.305	729.471
154.775	14.031	976.752	728.893
155.789	14.107	976.203	728.752
156.804	14.119	975.550	728.251
157.819	14.127	974.725	727.605
158.833	14.153	973.782	726.951
159.848	14.253	973.039	726.771
160.862	14.318	972.159	726.328
161.877	14.095	971.369	724.704
162.892	14.097	970.158	723.747
163.906	14.061	969.464	723.009
164.921	14.019	968.950	722.376
165.935	14.180	967.654	722.046
166.950	14.184	966.734	721.312
167.964	14.358	965.769	721.283
168.979	14.216	965.134	720.131
169.994	14.127	964.460	719.177
171.008	14.325	963.347	719.139
172.023	14.188	962.949	718.189
173.037	14.297	962.247	718.071
174.052	14.346	961.320	717.525
175.067	14.287	961.268	717.168
176.081	14.285	960.255	716.344
177.096	14.249	959.815	715.796
178.110	14.300	959.228	715.512
179.125	14.360	958.558	715.209
180.140	14.301	958.271	714.680
181.154	14.317	957.875	714.390
182.169	14.381	957.177	714.077
183.183	14.582	955.977	713.979
184.198	14.456	955.515	713.033
185.213	14.278	954.973	711.807
186.227	14.256	954.656	711.411
187.242	14.452	953.802	711.551
188.256	14.683	952.346	711.387
189.271	14.454	952.279	710.296
190.286	14.438	951.052	709.251
191.300	14.254	950.595	708.061
192.315	14.340	949.843	707.806
193.329	14.495	949.031	707.796
194.344	14.408	949.223	707.508
195.359	14.449	948.502	707.082
196.373	14.572	947.395	706.713
197.388	14.540	946.864	706.122
198.402	14.562	946.449	705.841
199.417	14.643	945.537	705.441
200.432	14.794	944.941	705.570
201.446	14.804	944.449	705.186
202.461	14.698	944.593	704.783
203.475	14.671	944.058	704.207
204.490	14.665	942.918	703.271
205.504	14.693	941.839	702.521
206.519	14.661	941.330	701.943
207.534	14.715	940.828	701.732
208.548	14.798	939.862	701.301
209.563	14.811	939.260	700.843
210.577	14.801	938.366	700.070
211.592	14.831	938.207	700.018
212.607	14.869	936.967	699.187
213.621	14.854	936.228	698.514
214.636	14.908	935.519	698.146
215.650	14.931	935.227	697.963
216.665	14.949	933.913	696.996
217.680	14.809	933.783	696.253
218.694	14.782	933.374	695.775
219.709	14.894	932.333	695.402
220.723	14.954	931.551	695.007
221.738	14.922	930.910	694.337
222.753	14.984	930.245	694.036
223.767	15.054	929.570	693.759
224.782	14.997	928.888	692.953
225.796	14.989	928.491	692.562
226.811	15.038	928.330	692.587
227.826	15.083	926.869	691.621
228.840	15.033	926.473	691.058
229.855	15.038	925.508	690.295
230.869	15.056	924.902	689.858
231.884	15.049	924.127	689.191
232.899	14.999	923.337	688.334
233.913	15.019	922.550	687.767
234.928	15.101	921.834	687.510
235.942	15.008	921.540	686.848
236.957	15.005	921.206	686.527
237.972	15.042	920.368	685.994
238.986	15.143	919.401	685.626
240.001	15.088	918.838	684.920
241.015	15.154	918.453	684.843
242.030	15.206	917.441	684.238
243.045	15.153	917.386	683.921
244.059	15.151	916.500	683.189
245.074	15.093	915.995	682.519
246.088	15.316	915.023	682.643
247.103	15.302	914.389	682.053
248.117	15.374	913.842	681.875
249.132	15.447	913.093	681.551
250.147	15.437	912.658	681.127
251.161	15.396	912.052	680.449
252.176	15.513	911.409	680.384
253.190	15.567	910.506	679.865
254.205	15.596	910.255	679.736
255.220	15.511	909.575	678.824
256.234	15.538	908.848	678.331
257.249	15.550	908.434	678.012
258.263	15.495	907.752	677.219
259.278	15.470	906.859	676.393
260.293	15.504	906.370	676.105
261.307	15.732	905.621	676.405
262.322	15.793	904.818	675.989
263.336	15.812	903.744	675.202
264.351	15.782	903.367	674.741
265.366	15.873	902.598	674.474
266.380	15.706	902.358	673.566
267.395	15.681	901.465	672.737
268.409	15.740	900.803	672.422
269.424	15.757	900.224	671.995
270.439	15.739	899.450	671.287
271.453	15.822	898.584	670.911
272.468	15.738	898.061	670.126
273.482	15.759	897.624	669.827
274.497	15.776	896.813	669.230
275.512	15.771	896.347	668.804
276.526	15.798	895.984	668.580
277.541	15.932	895.407	668.624
278.555	15.906	894.960	668.128
279.570	15.762	894.195	666.925
280.585	15.967	893.417	667.100
281.599	15.842	892.210	665.645
282.614	15.941	891.945	665.778
283.628	15.969	891.135	665.227
284.643	16.108	890.313	665.103
285.657	15.878	890.133	664.000
286.672	16.055	889.256	663.984
287.687	16.077	888.320	663.312
288.701	16.085	888.309	663.277
289.716	15.970	887.836	662.416
290.730	16.084	887.361	662.449
291.745	16.126	886.340	661.793
292.760	16.118	885.764	661.272
293.774	16.158	884.861	660.695
294.789	16.224	884.231	660.428
295.803	16.238	883.354	659.767
296.818	16.113	882.835	658.836
297.833	16.310	882.105	659.000
298.847	16.292	881.612	658.504
299.862	16.244	880.698	657.573
300.876	16.328	880.411	657.632
301.891	16.307	879.554	656.849
302.906	16.307	879.327	656.621
303.920	16.443	878.668	656.599
304.935	16.447	878.124	656.151
305.949	16.435	877.409	655.511
306.964	16.378	876.962	654.901
307.979	16.448	876.188	654.536
308.993	16.553	875.737	654.545
310.008	16.456	875.233	653.736
311.022	16.355	874.952	653.078
312.037	16.331	874.080	652.277
313.052	16.410	873.272	651.922
314.066	16.534	872.740	651.943
315.081	16.486	872.418	651.460
316.095	16.475	871.624	650.769
317.110	16.423	871.183	650.180
318.125	16.459	870.630	649.850
319.139	16.548	869.892	649.584
320.154	16.564	869.643	649.402
321.168	16.535	869.023	648.769
322.183	16.493	868.179	647.919
323.197	16.455	867.898	647.509
324.212	16.588	867.162	647.411
325.227	16.604	866.498	646.919
326.241	16.569	865.935	646.307
327.256	16.558	865.184	645.646
328.270	16.609	864.379	645.183
329.285	16.634	864.098	645.012
330.300	16.608	863.593	644.478
331.314	16.713	863.232	644.554
332.329	16.579	862.696	643.587
333.343	16.845	861.515	643.660
334.358	16.646	861.446	642.795
335.373	16.676	861.668	643.016
336.387	16.728	861.306	642.888
337.402	16.649	860.923	642.244
338.416	16.662	860.726	642.089
339.431	16.807	860.170	642.168
340.446	16.918	859.638	642.133
341.460	17.005	858.904	641.859
342.475	16.938	858.508	641.252
343.489	16.856	858.084	640.571
344.504	16.770	857.986	640.116
345.519	17.058	857.501	640.783
346.533	16.978	856.574	639.733
347.548	16.884	856.190	639.033
348.562	16.952	855.679	638.853
349.577	16.997	855.006	638.465
350.592	17.019	854.443	638.070
351.606	16.992	853.782	637.416
352.621	16.908	853.147	636.573
353.635	16.982	852.465	636.283
354.650	16.961	851.786	635.641
355.665	16.978	851.131	635.161
356.679	17.051	850.503	634.908
357.694	17.084	850.054	634.642
358.708	17.137	849.000	633.996
359.723	17.072	848.742	633.504
360.738	17.258	848.004	633.590
361.752	17.135	847.169	632.452
362.767	17.089	847.196	632.246
363.781	17.236	846.447	632.177
364.796	17.303	845.824	631.904
365.810	17.378	845.422	631.828
366.825	17.504	844.925	631.869
367.840	17.314	844.537	630.816
368.854	17.473	843.923	630.892
369.869	17.394	843.707	630.383
370.883	17.311	843.202	629.642
371.898	17.294	843.125	629.467
372.913	17.511	842.368	629.649
373.927	17.409	841.888	628.856
374.942	17.630	841.150	629.063
375.956	17.464	840.990	628.277
376.971	17.518	840.575	628.109
377.986	17.530	840.188	627.810
379.000	17.609	839.471	627.510
380.015	17.649	838.714	627.036
381.029	17.538	838.413	626.346
382.044	17.569	837.972	626.075
383.059	17.614	837.296	625.681
384.073	17.668	836.413	625.164
385.088	17.595	835.886	624.446
386.102	17.691	835.537	624.482
387.117	17.510	834.937	623.316
388.132	17.561	834.799	623.345
389.146	17.748	833.766	623.202
390.161	17.833	833.275	623.092
391.175	17.729	832.609	622.157
392.190	17.671	832.302	621.660
393.205	17.650	832.246	621.487
394.219	17.779	831.500	621.345
395.234	17.738	831.437	621.095
396.248	17.657	830.714	620.205
397.263	17.743	830.294	620.150
398.278	17.685	830.006	619.666
399.292	17.680	829.600	619.293
400.307	17.698	829.363	619.126
401.321	17.822	828.393	618.795
402.336	17.769	828.029	618.279
403.350	17.691	827.651	617.656
404.365	17.753	827.306	617.572
405.380	17.880	826.624	617.468
406.394	17.877	826.415	617.243
407.409	18.007	825.638	617.078
408.423	18.003	825.455	616.874
409.438	18.020	824.802	616.392
410.453	18.021	824.351	616.005
411.467	17.951	824.192	615.578
412.482	18.119	823.586	615.678
413.496	18.189	823.034	615.462
414.511	18.010	822.919	614.679
415.526	18.049	822.644	614.556
416.540	18.152	822.008	614.398
417.555	18.105	821.281	613.632
418.569	18.169	820.755	613.414
419.584	18.201	820.283	613.122
420.599	18.173	819.868	612.655
421.613	115.824	1301.862	1491.805
422.628	100.488	1372.039	1491.882
