DTS Sentinel unit serial number:	SN413079Multiplexer serial number:	ORYXHardware model number:	OX4-SRSoftware version number:	ORYX F/W v4.00 Oryx Data Collector v3.7.2.0data status	okinstallation	princeton_trtdifferential loss correction	single-endedforward channel	channel 1reverse channel	N/Adate	2019/09/17time	11:42:35forward acquisition time	60.00reverse acquisition time	0.00gamma	496.2192k internal	0.2322k external	0.2322temperature offset calibration	0.9974default loss term (dB/km)	0.3790temperature slope calibration	1.0000multiplexer offset coefficient	1.0000multiplexer slope coefficient	1.0000fibre end	0.00T internal ref (°C)	30.83T ext. ref 1 (°C)	0.40T ext. ref 2 (°C)	26.64length (m)	temperature (°C)	Stokes	anti-Stokes-747.200	-42.229	0.119	-0.061
-746.185	83.293	-0.191	0.210
-745.171	-200.000	0.008	-0.122
-744.156	-31.769	-0.147	0.084
-743.142	-83.519	0.039	-0.013
-742.127	-200.000	0.040	0.256
-741.112	-200.000	0.010	0.125
-740.098	800.000	-0.115	0.372
-739.083	71.072	0.375	0.392
-738.069	-200.000	0.029	0.147
-737.054	108.212	0.116	-0.139
-736.039	-96.219	-0.254	0.068
-735.025	800.000	0.030	0.116
-734.010	-122.540	-0.095	-0.016
-732.996	800.000	0.082	-0.305
-731.981	6.920	0.138	-0.104
-730.966	96.607	-0.072	0.084
-729.952	275.141	-0.108	-0.193
-728.937	-63.680	-0.422	-0.175
-727.923	-1.874	-0.249	0.177
-726.908	3.294	-0.073	-0.054
-725.894	-200.000	0.073	-0.381
-724.879	97.912	-0.233	-0.270
-723.864	-80.652	-0.608	-0.204
-722.850	201.480	0.056	-0.087
-721.835	-41.755	0.262	0.136
-720.821	-200.000	-0.016	-0.198
-719.806	-18.452	-0.184	0.116
-718.791	173.827	-0.153	-0.223
-717.777	409.396	0.097	0.207
-716.762	-75.392	-0.143	-0.051
-715.748	147.380	0.142	-0.193
-714.733	-151.256	-0.317	0.024
-713.718	-200.000	-0.015	-0.292
-712.704	22.795	0.221	0.183
-711.689	-200.000	0.037	-0.185
-710.675	-2.579	0.084	-0.059
-709.660	800.000	-0.029	0.087
-708.645	-68.418	0.190	-0.075
-707.631	-82.855	0.069	-0.023
-706.616	-127.407	-0.405	0.059
-705.602	800.000	-0.020	0.075
-704.587	-200.000	-0.025	-0.142
-703.572	162.145	-0.140	-0.199
-702.558	-48.473	0.260	-0.126
-701.543	614.575	-0.121	0.306
-700.529	199.189	0.209	0.323
-699.514	61.259	-0.056	0.057
-698.499	107.813	0.127	-0.153
-697.485	136.579	-0.225	0.296
-696.470	-200.000	0.058	0.280
-695.456	-35.350	-0.157	0.086
-694.441	-110.022	0.247	-0.052
-693.426	35.746	-0.290	-0.257
-692.412	-38.271	0.329	-0.176
-691.397	-200.000	-0.007	0.120
-690.383	461.221	0.009	-0.021
-689.368	-95.951	-0.197	0.053
-688.354	284.606	0.193	-0.351
-687.339	3.606	-0.134	-0.099
-686.324	800.000	0.138	-0.437
-685.310	-120.006	-0.432	-0.075
-684.295	-200.000	0.016	0.146
-683.281	-150.083	-0.411	-0.032
-682.266	-86.375	0.163	-0.050
-681.251	800.000	0.091	-0.259
-680.237	-33.694	0.170	-0.095
-679.222	-200.000	-0.013	-0.282
-678.208	-26.971	0.237	0.139
-677.193	-200.000	-0.009	0.078
-676.178	258.028	0.165	-0.287
-675.164	-200.000	0.004	-0.150
-674.149	-81.284	-0.020	-0.007
-673.135	-134.816	-0.391	0.048
-672.120	-111.656	0.532	-0.109
-671.105	-5.601	-0.226	0.156
-670.091	94.656	-0.213	0.244
-669.076	-200.000	-0.033	-0.207
-668.062	-200.000	-0.008	-0.108
-667.047	-200.000	-0.015	-0.088
-666.032	-200.000	0.027	-0.149
-665.018	-157.446	-0.212	0.013
-664.003	79.804	-0.061	-0.066
-662.989	202.417	0.079	0.123
-661.974	-15.535	0.404	0.260
-660.959	-133.333	-0.416	0.053
-659.945	800.000	0.038	-0.118
-658.930	-84.216	-0.229	-0.073
-657.916	-102.155	-0.062	0.015
-656.901	-121.454	0.103	-0.017
-655.886	-36.599	0.208	-0.113
-654.872	-60.299	-0.229	-0.098
-653.857	-66.887	0.507	-0.202
-652.843	69.585	-0.072	-0.075
-651.828	73.586	-0.046	0.049
-650.814	-96.553	-0.286	-0.076
-649.799	800.000	0.064	0.188
-648.784	-200.000	0.014	-0.132
-647.770	800.000	-0.034	-0.129
-646.755	-200.000	-0.005	0.035
-645.741	-72.494	-0.030	0.011
-644.726	-200.000	-0.003	-0.077
-643.711	576.186	0.087	-0.215
-642.697	244.341	-0.167	-0.282
-641.682	-200.000	-0.050	-0.303
-640.668	86.365	-0.199	-0.221
-639.653	-30.583	-0.045	-0.026
-638.638	-183.807	0.186	0.003
-637.624	-200.000	0.031	-0.172
-636.609	-75.664	0.076	-0.027
-635.595	-200.000	-0.053	0.375
-634.580	380.121	-0.130	-0.268
-633.565	258.533	0.021	0.036
-632.551	170.763	0.073	0.106
-631.536	-91.251	0.102	-0.029
-630.522	43.945	0.124	-0.115
-629.507	31.904	-0.346	0.299
-628.492	547.451	0.016	0.038
-627.478	-179.611	0.313	0.007
-626.463	-143.571	0.108	-0.010
-625.449	-200.000	-0.042	-0.356
-624.434	25.258	-0.210	-0.176
-623.419	-200.000	0.020	-0.117
-622.405	-69.147	-0.275	0.106
-621.390	-200.000	0.004	0.299
-620.376	-150.981	-0.369	-0.028
-619.361	-187.919	-0.261	-0.003
-618.346	-113.790	0.252	0.049
-617.332	115.252	-0.163	0.200
-616.317	800.000	0.011	-0.038
-615.303	-200.000	-0.009	0.104
-614.288	-23.880	0.337	0.203
-613.273	109.099	-0.066	0.079
-612.259	-200.000	-0.006	0.077
-611.244	154.374	-0.140	-0.193
-610.230	75.889	-0.211	-0.225
-609.215	118.944	0.160	-0.198
-608.201	297.194	-0.136	-0.251
-607.186	-16.839	0.106	0.067
-606.171	-200.000	0.004	0.130
-605.157	3.768	-0.117	-0.086
-604.142	494.528	0.097	-0.224
-603.128	12.819	-0.134	0.104
-602.113	-147.622	0.089	0.007
-601.098	72.327	0.042	-0.044
-600.084	462.151	0.068	-0.152
-599.069	33.698	-0.329	-0.287
-598.055	-200.000	-0.058	-0.285
-597.040	-200.000	0.023	-0.153
-596.025	-51.202	-0.506	0.238
-595.011	791.625	-0.032	-0.089
-593.996	-119.573	0.080	-0.014
-592.982	800.000	0.094	0.283
-591.967	-159.966	0.163	0.009
-590.952	-123.236	-0.098	0.016
-589.938	-102.136	0.196	0.047
-588.923	-200.000	0.020	-0.164
-587.909	-158.020	-0.225	0.013
-586.894	-57.614	0.150	0.066
-585.879	583.942	-0.126	0.311
-584.865	-125.522	-0.112	-0.017
-583.850	-42.868	-0.211	0.108
-582.836	-41.737	-0.146	0.075
-581.821	33.542	-0.037	-0.032
-580.806	-72.502	0.022	-0.008
-579.792	-164.449	-0.284	-0.013
-578.777	329.516	-0.041	0.079
-577.763	11.143	0.091	0.070
-576.748	-82.994	-0.299	-0.097
-575.733	-200.000	0.019	-0.166
-574.719	800.000	-0.040	-0.163
-573.704	-66.953	-0.378	-0.150
-572.690	800.000	-0.058	-0.199
-571.675	-200.000	0.025	0.124
-570.661	-124.883	-0.356	-0.055
-569.646	-50.150	0.055	0.026
-568.631	-100.046	-0.212	-0.053
-567.617	-200.000	0.049	0.259
-566.602	138.639	0.141	-0.185
-565.588	800.000	0.092	0.289
-564.573	-200.000	0.020	0.152
-563.558	199.866	0.189	0.292
-562.544	-200.000	-0.034	-0.288
-561.529	-157.039	-0.166	-0.010
-560.515	800.000	0.069	0.262
-559.500	-131.602	-0.111	0.015
-558.485	425.811	0.046	0.099
-557.471	-126.867	-0.172	0.025
-556.456	-71.401	0.068	-0.026
-555.442	73.854	0.269	-0.283
-554.427	-200.000	-0.054	0.265
-553.412	800.000	-0.085	-0.285
-552.398	-131.674	-0.296	-0.039
-551.383	-46.461	-0.212	-0.105
-550.369	60.428	-0.084	-0.083
-549.354	-136.752	-0.182	0.021
-548.339	-90.526	0.080	0.023
-547.325	756.085	0.064	-0.174
-546.310	-119.937	-0.112	0.019
-545.296	500.647	-0.052	0.120
-544.281	-23.896	0.229	0.137
-543.266	-95.369	0.138	0.037
-542.252	354.609	-0.119	0.237
-541.237	-76.927	-0.222	0.078
-540.223	-200.000	-0.052	-0.315
-539.208	171.158	-0.055	0.079
-538.193	-175.687	0.198	-0.005
-537.179	-200.000	0.015	0.202
-536.164	-200.000	0.014	0.357
-535.150	-158.350	-0.440	0.026
-534.135	-59.324	-0.066	-0.029
-533.121	-200.000	-0.005	-0.063
-532.106	800.000	-0.137	-0.394
-531.091	-53.322	0.178	0.082
-530.077	-97.856	-0.185	0.048
-529.062	-11.420	-0.140	0.092
-528.048	-71.476	0.261	0.098
-527.033	-200.000	-0.041	-0.211
-526.018	800.000	0.049	-0.147
-525.004	-200.000	-0.032	-0.307
-523.989	169.753	0.057	0.081
-522.975	-120.294	-0.040	0.007
-521.960	-132.349	-0.117	0.015
-520.945	800.000	0.012	-0.036
-519.931	-85.971	0.306	-0.095
-518.916	498.584	-0.107	-0.246
-517.902	0.659	-0.179	0.128
-516.887	-38.485	0.089	0.047
-515.872	58.102	-0.303	0.297
-514.858	-165.418	0.178	-0.008
-513.843	-133.246	0.221	-0.028
-512.829	-111.695	-0.075	-0.015
-511.814	510.513	-0.015	-0.035
-510.799	244.806	0.171	0.288
-509.785	23.254	0.273	-0.225
-508.770	396.822	0.073	0.152
-507.756	88.647	0.119	0.132
-506.741	-83.572	0.165	0.053
-505.726	-1.864	-0.154	-0.109
-504.712	26.699	-0.134	-0.112
-503.697	-161.326	0.086	0.004
-502.683	55.309	0.139	0.134
-501.668	317.852	-0.104	-0.197
-500.653	107.108	0.111	0.132
-499.639	478.545	0.068	0.155
-498.624	13.123	0.207	-0.161
-497.610	-25.816	-0.196	-0.116
-496.595	356.422	-0.101	-0.201
-495.581	-66.069	-0.352	0.141
-494.566	-200.000	0.183	0.001
-493.551	-200.000	0.005	-0.085
-492.537	800.000	-0.101	0.296
-491.522	274.750	0.101	0.179
-490.508	800.000	0.063	-0.264
-489.493	-200.000	-0.016	0.110
-488.478	149.904	0.053	-0.072
-487.464	121.791	-0.284	0.354
-486.449	43.963	0.158	-0.144
-485.435	-55.609	0.611	-0.274
-484.420	800.000	0.031	0.087
-483.405	109.734	-0.113	-0.136
-482.391	39.980	-0.047	-0.042
-481.376	-45.218	0.016	0.008
-480.362	800.000	-0.051	0.182
-479.347	-200.000	0.011	-0.104
-478.332	-10.499	0.391	-0.259
-477.318	-55.780	-0.155	0.069
-476.303	10.164	0.198	0.151
-475.289	11.864	-0.146	0.112
-474.274	298.585	-0.129	0.237
-473.259	-33.056	-0.535	0.297
-472.245	-32.173	0.278	0.155
-471.230	337.373	0.209	0.406
-470.216	-200.000	-0.029	-0.362
-469.201	78.181	0.157	-0.167
-468.186	0.889	-0.156	-0.112
-467.172	-17.784	0.278	0.174
-466.157	73.911	-0.300	-0.314
-465.143	563.587	0.098	-0.238
-464.128	-103.886	-0.092	0.021
-463.113	-200.000	-0.019	-0.182
-462.099	414.780	0.066	-0.140
-461.084	800.000	0.026	-0.111
-460.070	43.943	0.128	-0.117
-459.055	286.104	-0.075	-0.135
-458.040	131.388	0.173	0.222
-457.026	142.643	-0.105	0.140
-456.011	-126.360	0.076	-0.011
-454.997	8.390	0.098	0.073
-453.982	-200.000	-0.021	0.278
-452.968	80.457	0.236	0.254
-451.953	31.549	0.209	0.180
-450.938	-200.000	0.091	-0.460
-449.924	-70.616	-0.231	-0.087
-448.909	121.165	0.031	0.039
-447.895	800.000	-0.034	-0.136
-446.880	60.112	-0.026	-0.025
-445.865	-88.999	0.264	0.078
-444.851	-6.623	0.144	-0.098
-443.836	100.861	-0.083	-0.097
-442.822	-190.256	-0.231	0.003
-441.807	-138.244	0.136	0.015
-440.792	-34.105	-0.180	0.099
-439.778	800.000	0.080	0.292
-438.763	468.574	-0.032	0.072
-437.749	-131.088	0.415	0.055
-436.734	-126.081	-0.277	-0.041
-435.719	-62.531	0.060	0.025
-434.705	-148.586	0.217	-0.018
-433.690	-200.000	-0.049	0.222
-432.676	-79.046	-0.098	-0.033
-431.661	-110.752	-0.408	-0.084
-430.646	637.534	-0.086	-0.217
-429.632	-200.000	-0.028	0.283
-428.617	800.000	0.098	0.307
-427.603	-89.053	0.215	-0.063
-426.588	614.764	-0.081	-0.202
-425.573	-84.402	0.253	-0.080
-424.559	-8.306	-0.170	0.114
-423.544	-56.577	0.317	-0.140
-422.530	-7.380	0.246	0.166
-421.515	800.000	0.036	-0.154
-420.500	101.677	0.165	-0.192
-419.486	-90.008	-0.085	-0.025
-418.471	-6.359	-0.043	0.029
-417.457	146.174	-0.112	-0.150
-416.442	-96.048	-0.282	-0.075
-415.428	-30.696	-0.337	-0.190
-414.413	-14.599	-0.155	0.100
-413.398	741.802	0.076	-0.203
-412.384	-124.098	-0.277	-0.043
-411.369	-39.948	0.197	-0.102
-410.355	-200.000	-0.057	-0.250
-409.340	29.103	-0.128	0.108
-408.325	326.330	-0.136	0.260
-407.311	509.469	0.068	0.158
-406.296	-147.203	-0.408	0.035
-405.282	-68.857	0.219	0.084
-404.267	-77.704	0.152	0.052
-403.252	-45.370	0.061	0.030
-402.238	-132.088	0.454	0.059
-401.223	90.471	0.194	0.216
-400.209	-124.017	0.263	0.041
-399.194	-16.948	-0.600	0.378
-398.179	-200.000	-0.001	0.037
-397.165	107.686	0.155	0.183
-396.150	-6.260	0.166	0.113
-395.136	22.293	0.149	0.121
-394.121	-7.346	-0.082	0.055
-393.106	-22.798	0.135	-0.081
-392.092	-158.468	0.217	0.012
-391.077	87.564	0.107	0.118
-390.063	299.183	0.062	-0.113
-389.048	-200.000	-0.008	-0.340
-388.033	-164.090	0.148	-0.007
-387.019	643.392	0.124	0.316
-386.004	196.801	-0.027	0.040
-384.990	-34.588	-0.262	-0.143
-383.975	800.000	-0.014	-0.045
-382.960	79.290	0.251	-0.268
-381.946	527.764	0.091	-0.213
-380.931	35.362	0.118	-0.103
-379.917	-200.000	-0.015	0.093
-378.902	-113.997	0.105	0.020
-377.888	31.816	-0.326	0.280
-376.873	800.000	-0.066	0.207
-375.858	375.718	-0.177	-0.359
-374.844	-150.103	0.216	0.017
-373.829	-35.506	-0.239	0.129
-372.815	337.540	-0.022	-0.043
-371.800	-200.000	0.010	0.316
-370.785	486.309	0.083	0.187
-369.771	-113.432	0.298	0.058
-368.756	-200.000	-0.007	0.056
-367.742	54.187	-0.033	-0.031
-366.727	-196.617	-0.521	0.003
-365.712	800.000	0.052	0.175
-364.698	-200.000	-0.040	-0.395
-363.683	302.755	-0.125	0.230
-362.669	800.000	-0.114	0.409
-361.654	36.013	-0.315	-0.276
-360.639	800.000	0.092	-0.258
-359.625	38.906	-0.020	0.018
-358.610	800.000	-0.042	0.146
-357.596	147.631	0.223	0.298
-356.581	-200.000	0.020	0.139
-355.566	15.942	0.169	-0.133
-354.552	89.860	-0.135	-0.150
-353.537	17.853	-0.215	0.171
-352.523	800.000	0.181	-0.589
-351.508	800.000	-0.118	-0.451
-350.493	-7.241	-0.132	-0.089
-349.479	51.158	0.258	0.243
-348.464	208.635	0.094	0.146
-347.450	-7.473	-0.170	-0.115
-346.435	800.000	0.109	-0.325
-345.420	494.596	0.085	-0.194
-344.406	27.567	0.241	0.202
-343.391	108.919	0.102	0.121
-342.377	72.671	-0.142	-0.147
-341.362	579.932	0.104	0.252
-340.348	150.874	0.095	0.129
-339.333	-93.917	0.240	-0.066
-338.318	-72.025	-0.410	0.151
-337.304	-68.433	0.228	0.088
-336.289	-89.201	-0.484	-0.142
-335.275	420.897	0.014	-0.030
-334.260	139.579	0.107	-0.140
-333.245	800.000	0.023	-0.065
-332.231	-158.805	-0.082	0.005
-331.216	4.748	-0.180	0.132
-330.202	193.492	-0.115	0.172
-329.187	5.324	0.094	0.069
-328.172	-160.903	0.146	0.008
-327.158	477.484	0.091	0.205
-326.143	5.515	0.263	0.193
-325.129	403.094	-0.114	-0.239
-324.114	-200.000	0.014	0.128
-323.099	-200.000	-0.014	0.292
-322.085	540.868	0.070	-0.167
-321.070	-144.520	-0.160	-0.015
-320.056	-169.578	-0.137	0.005
-319.041	165.354	0.119	-0.167
-318.026	800.000	-0.081	0.291
-317.012	193.696	0.053	0.080
-315.997	-200.000	0.029	0.222
-314.983	-43.334	0.041	0.021
-313.968	-29.365	-0.137	0.078
-312.953	800.000	-0.054	0.211
-311.939	-186.263	0.171	-0.002
-310.924	-168.520	-0.059	0.002
-309.910	-200.000	0.012	-0.056
-308.895	-200.000	0.016	-0.161
-307.880	-200.000	-0.023	-0.347
-306.866	127.186	0.050	0.063
-305.851	-106.802	-0.243	-0.054
-304.837	82.753	0.207	0.223
-303.822	328.784	0.050	-0.096
-302.807	-200.000	-0.034	-0.204
-301.793	-39.970	-0.048	-0.025
-300.778	-29.060	-0.051	0.029
-299.764	-200.000	-0.006	0.243
-298.749	-200.000	0.027	0.188
-297.735	183.088	0.140	0.205
-296.720	-19.225	-0.172	-0.106
-295.705	-200.000	-0.016	-0.132
-294.691	-141.067	0.061	-0.006
-293.676	42.282	0.220	0.198
-292.662	166.898	0.090	0.127
-291.647	-147.136	-0.339	0.029
-290.632	-200.000	-0.025	-0.542
-289.618	-200.000	0.018	-0.135
-288.603	-200.000	-0.008	-0.412
-287.589	-91.734	0.269	0.076
-286.574	42.986	0.150	-0.135
-285.559	477.351	-0.128	-0.288
-284.545	-200.000	-0.007	0.124
-283.530	118.567	0.133	-0.163
-282.516	651.888	-0.036	0.090
-281.501	183.635	-0.094	-0.137
-280.486	800.000	-0.030	-0.092
-279.472	92.686	-0.183	-0.204
-278.457	-133.653	0.182	0.023
-277.443	-61.488	0.073	0.030
-276.428	-200.000	0.014	0.305
-275.413	800.000	-0.095	0.325
-274.399	-57.838	0.121	0.052
-273.384	30.041	-0.060	0.051
-272.370	-25.024	-0.076	0.045
-271.355	-80.828	0.182	0.060
-270.340	-180.485	0.152	-0.003
-269.326	-67.458	0.346	-0.135
-268.311	107.462	0.095	-0.112
-267.297	33.088	0.084	-0.072
-266.282	452.336	-0.055	0.122
-265.267	420.487	0.082	-0.175
-264.253	-55.042	0.163	0.073
-263.238	-200.000	0.024	0.136
-262.224	-120.744	-0.079	-0.013
-261.209	-11.315	0.371	-0.242
-260.195	103.272	-0.325	-0.377
-259.180	-200.000	-0.044	0.249
-258.165	95.952	-0.069	-0.079
-257.151	-5.372	0.209	0.143
-256.136	-146.127	-0.279	-0.024
-255.122	288.997	-0.206	0.369
-254.107	-90.647	0.231	0.066
-253.092	800.000	0.038	-0.155
-252.078	-133.858	-0.404	0.050
-251.063	-111.622	-0.376	-0.076
-250.049	-200.000	-0.006	0.298
-249.034	170.461	0.110	-0.156
-248.019	-18.787	-0.291	0.180
-247.005	-200.000	0.009	0.088
-245.990	-109.856	0.190	0.040
-244.976	-200.000	0.037	-0.261
-243.961	-52.181	0.343	-0.157
-242.946	28.988	0.215	0.181
-241.932	-17.744	-0.183	-0.114
-240.917	37.294	0.124	-0.108
-239.903	-45.025	0.102	0.050
-238.888	-200.000	-0.033	0.305
-237.873	-200.000	-0.027	-0.172
-236.859	-200.000	0.072	0.336
-235.844	89.065	-0.210	-0.231
-234.830	37.867	0.047	0.041
-233.815	-200.000	0.009	0.185
-232.800	-95.073	-0.437	-0.117
-231.786	-96.586	0.226	0.059
-230.771	428.280	0.017	0.036
-229.757	-46.328	0.227	-0.111
-228.742	-50.986	0.098	0.046
-227.727	-200.000	0.057	-0.400
-226.713	-0.726	-0.090	-0.063
-225.698	800.000	-0.057	0.197
-224.684	-55.543	-0.052	0.023
-223.669	244.697	-0.113	-0.188
-222.655	800.000	-0.108	-0.350
-221.640	41.218	0.296	-0.265
-220.625	800.000	-0.036	-0.132
-219.611	30.956	0.216	0.183
-218.596	-200.000	-0.016	-0.106
-217.582	-82.270	0.142	-0.046
-216.567	174.155	-0.130	-0.186
-215.552	68.444	-0.257	-0.260
-214.538	-114.374	0.103	-0.020
-213.523	607.705	-0.083	0.206
-212.509	-134.833	-0.112	0.013
-211.494	40.962	0.125	0.111
-210.479	180.469	0.147	0.213
-209.465	-104.421	0.127	-0.029
-208.450	-72.895	-0.099	0.036
-207.436	9.683	0.047	0.035
-206.421	46.042	-0.048	-0.044
-205.406	-200.000	-0.011	-0.117
-204.392	-137.228	0.105	0.012
-203.377	45.585	-0.299	-0.274
-202.363	-67.756	0.181	0.070
-201.348	800.000	-0.065	-0.255
-200.333	-155.154	-0.120	0.008
-199.319	-100.470	-0.078	0.019
-198.304	-51.388	0.150	-0.069
-197.290	-55.032	-0.282	0.125
-196.275	-73.901	-0.404	0.145
-195.260	-55.280	0.110	0.049
-194.246	-36.622	0.185	-0.099
-193.231	-90.889	0.197	-0.056
-192.217	800.000	-0.069	0.196
-191.202	800.000	-0.071	0.204
-190.187	20.614	-0.138	-0.110
-189.173	75.723	-0.120	0.125
-188.158	46.351	0.245	0.225
-187.144	-59.951	0.457	0.193
-186.129	-9.392	-0.391	0.258
-185.114	-90.171	0.519	-0.149
-184.100	252.301	-0.027	-0.046
-183.085	685.417	0.108	0.279
-182.071	781.296	0.056	-0.152
-181.056	-24.432	-0.160	0.094
-180.042	32.848	0.320	-0.274
-179.027	-145.726	-0.180	-0.016
-178.012	5.181	0.171	0.125
-176.998	67.808	0.179	-0.181
-175.983	42.003	-0.128	-0.115
-174.969	800.000	0.020	0.078
-173.954	800.000	0.028	-0.102
-172.939	41.720	0.246	-0.221
-171.925	257.984	-0.159	-0.270
-170.910	-2.620	-0.159	-0.110
-169.896	-182.613	-0.162	-0.003
-168.881	-200.000	-0.057	0.336
-167.866	-200.000	0.020	0.153
-166.852	-200.000	0.015	0.192
-165.837	314.568	0.247	0.459
-164.823	152.420	0.283	0.382
-163.808	133.061	-0.307	0.392
-162.793	800.000	0.037	-0.115
-161.779	-200.000	0.019	0.160
-160.764	130.036	0.165	-0.209
-159.750	-110.950	0.196	-0.040
-158.735	-200.000	-0.011	-0.104
-157.720	-21.581	0.134	-0.081
-156.706	258.030	0.135	-0.229
-155.691	788.244	-0.052	-0.141
-154.677	-92.574	0.108	-0.030
-153.662	-28.345	-0.214	0.122
-152.647	-80.526	0.183	-0.060
-151.633	-4.782	-0.127	0.086
-150.618	-200.000	0.059	-0.413
-149.604	67.210	0.076	-0.076
-148.589	-39.781	0.113	-0.058
-147.574	106.675	-0.123	-0.144
-146.560	-200.000	-0.003	0.044
-145.545	-200.000	0.063	0.357
-144.531	-115.550	-0.225	-0.042
-143.516	-94.796	-0.099	-0.026
-142.502	-127.257	0.182	0.026
-141.487	-80.695	-0.444	-0.146
-140.472	179.275	-0.112	0.162
-139.458	-200.000	-0.101	-0.487
-138.443	-200.000	-0.019	-0.128
-137.429	17.656	0.327	-0.257
-136.414	-143.614	-0.173	0.016
-135.399	-109.092	-0.097	0.020
-134.385	-21.515	0.211	0.127
-133.370	-159.734	0.187	0.010
-132.356	-163.616	0.329	0.015
-131.341	104.298	0.078	0.090
-130.326	340.065	0.140	-0.269
-129.312	256.802	-0.189	0.321
-128.297	-62.617	-0.097	0.040
-127.283	206.081	0.130	0.199
-126.268	98.107	0.183	-0.207
-125.253	-200.000	0.093	0.423
-124.239	-46.031	0.136	0.066
-123.224	82.605	0.208	-0.223
-122.210	32.004	0.120	-0.102
-121.195	800.000	-0.021	0.057
-120.180	-200.000	-0.007	0.085
-119.166	-200.000	0.089	-0.428
-118.151	-42.451	-0.104	-0.052
-117.137	-13.731	0.166	-0.106
-116.122	198.862	-0.106	-0.159
-115.107	404.843	-0.049	-0.101
-114.093	-2.766	-0.063	-0.043
-113.078	25.568	0.274	-0.225
-112.064	26.543	0.385	0.317
-111.049	-120.860	-0.116	-0.019
-110.034	-200.000	-0.000	-0.008
-109.020	-49.969	-0.256	-0.120
-108.005	-200.000	-0.033	-0.246
-106.991	-23.013	0.270	0.161
-105.976	9.261	-0.079	-0.059
-104.962	-200.000	-0.004	0.027
-103.947	143.249	-0.163	0.214
-102.932	793.112	-0.065	-0.177
-101.918	-200.000	-0.021	0.277
-100.903	-4.763	-0.227	-0.154
-99.889	84.000	0.022	-0.023
-98.874	-10.152	0.298	0.195
-97.859	800.000	0.023	-0.091
-96.845	54.143	-0.137	0.129
-95.830	-36.525	0.037	-0.020
-94.816	68.005	0.238	-0.240
-93.801	-152.845	-0.417	0.029
-92.786	371.745	-0.096	-0.191
-91.772	1.447	0.193	-0.137
-90.757	171.738	0.055	-0.078
-89.743	-99.371	0.208	-0.052
-88.728	33.391	-0.240	0.205
-87.713	25.329	0.261	-0.214
-86.699	86.058	0.116	-0.125
-85.684	-93.819	0.209	-0.057
-84.670	-200.000	-0.055	0.436
-83.655	-54.784	0.185	-0.082
-82.640	-78.210	0.178	0.060
-81.626	94.487	0.207	0.232
-80.611	-200.000	-0.010	0.057
-79.597	-200.000	0.045	0.216
-78.582	800.000	-0.077	-0.272
-77.567	396.208	-0.107	-0.221
-76.553	-146.561	0.268	0.023
-75.538	-200.000	-0.016	-0.117
-74.524	51.340	0.075	0.070
-73.509	17.362	-0.029	-0.022
-72.494	-46.391	-0.396	0.192
-71.480	230.063	-0.170	-0.274
-70.465	484.885	-0.108	0.241
-69.451	-21.533	-0.080	0.048
-68.436	800.000	0.066	-0.208
-67.422	-139.242	0.300	-0.032
-66.407	-66.006	0.312	0.123
-65.392	776.115	0.106	0.285
-64.378	172.794	0.073	-0.103
-63.363	249.350	0.157	0.261
-62.349	-49.238	-0.271	0.127
-61.334	118.728	-0.940	-1.142
-60.319	800.000	0.187	0.714
-59.305	448.943	-0.521	-1.130
-58.290	433.259	0.543	1.159
-57.276	479.245	0.838	1.867
-56.261	-200.000	100.912	590.373
-55.246	495.001	1428.915	3226.924
-54.232	152.893	2612.384	3511.740
-53.217	110.874	2163.883	2560.680
-52.203	42.944	1608.185	1441.587
-51.188	34.426	1340.984	1150.883
-50.173	31.280	1298.699	1096.118
-49.159	54.237	1348.435	1275.853
-48.144	55.627	1364.518	1299.318
-47.130	34.499	1323.038	1135.735
-46.115	31.018	1305.076	1099.782
-45.100	30.838	1300.329	1094.678
-44.086	30.700	1297.844	1091.735
-43.071	30.730	1295.621	1089.995
-42.057	30.730	1293.683	1088.325
-41.042	30.750	1291.683	1086.712
-40.027	30.766	1290.296	1085.598
-39.013	30.643	1289.109	1083.840
-37.998	30.783	1286.665	1082.556
-36.984	30.822	1285.359	1081.638
-35.969	30.896	1283.543	1080.499
-34.954	30.825	1281.621	1078.429
-33.940	30.892	1280.298	1077.660
-32.925	30.898	1278.973	1076.536
-31.911	30.982	1277.196	1075.481
-30.896	30.998	1276.029	1074.544
-29.881	30.958	1274.845	1073.279
-28.867	30.909	1273.427	1071.759
-27.852	30.941	1272.086	1070.773
-26.838	30.957	1270.449	1069.441
-25.823	31.047	1269.107	1068.789
-24.809	30.916	1267.959	1067.029
-23.794	30.849	1266.789	1065.616
-22.779	30.831	1265.439	1064.337
-21.765	30.863	1264.337	1063.552
-20.750	30.862	1263.031	1062.402
-19.736	30.874	1261.402	1061.058
-18.721	30.788	1260.193	1059.510
-17.706	30.778	1259.486	1058.820
-16.692	30.741	1258.111	1057.410
-15.677	30.755	1256.866	1056.398
-14.663	30.842	1255.377	1055.600
-13.648	30.772	1254.638	1054.542
-12.633	30.750	1253.785	1053.656
-11.619	30.802	1252.980	1053.235
-10.604	30.703	1252.074	1051.869
-9.590	30.774	1251.084	1051.398
-8.575	30.697	1250.473	1050.411
-7.560	30.762	1249.360	1049.799
-6.546	30.678	1248.640	1048.675
-5.531	30.789	1247.082	1047.953
-4.517	30.771	1246.627	1047.426
-3.502	30.839	1245.419	1046.751
-2.487	30.906	1244.210	1046.070
-1.473	30.820	1240.832	1042.708
-0.458	29.505	1226.526	1023.361
0.556	24.713	1209.828	987.226
1.571	20.914	1215.648	970.766
2.586	19.963	1230.220	976.952
3.600	19.502	1219.079	965.445
4.615	14.259	1145.934	879.798
5.629	5.092	1070.071	776.055
6.644	0.669	1049.656	739.568
7.659	0.478	1047.025	736.716
8.673	0.217	1046.089	734.721
9.688	0.217	1044.650	733.642
10.702	0.492	1043.177	733.884
11.717	5.798	1050.107	764.617
12.731	14.277	1061.458	814.452
13.746	17.680	1064.259	833.191
14.761	17.209	1063.389	830.132
15.775	16.311	1061.100	823.896
16.790	15.307	1058.914	817.232
17.804	14.507	1057.891	812.473
18.819	14.289	1056.410	810.207
19.834	13.926	1055.647	807.782
20.848	13.580	1054.823	805.397
21.863	13.335	1054.052	803.551
22.877	13.290	1053.165	802.584
23.892	13.217	1052.629	801.748
24.907	13.258	1052.041	801.429
25.921	13.309	1050.822	800.676
26.936	13.356	1050.414	800.521
27.950	13.305	1049.730	799.686
28.965	13.410	1048.041	798.836
29.980	13.512	1046.925	798.405
30.994	13.479	1046.085	797.534
32.009	13.606	1044.694	797.016
33.023	13.384	1043.880	795.256
34.038	13.550	1042.894	795.232
35.053	13.483	1042.516	794.550
36.067	13.404	1041.547	793.361
37.082	13.387	1040.846	792.677
38.096	13.455	1040.190	792.431
39.111	13.383	1039.229	791.286
40.126	13.387	1038.044	790.333
41.140	13.283	1037.344	789.235
42.155	13.217	1035.962	787.799
43.169	13.240	1034.503	786.727
44.184	13.203	1033.863	785.996
45.199	13.239	1033.058	785.486
46.213	13.238	1032.123	784.702
47.228	13.314	1030.896	784.061
48.242	13.434	1029.544	783.529
49.257	13.399	1028.648	782.611
50.271	13.424	1027.898	782.090
51.286	13.348	1026.834	780.851
52.301	13.430	1025.778	780.368
53.315	13.195	1025.461	778.948
54.330	13.271	1024.304	778.361
55.344	13.393	1023.097	777.947
56.359	13.360	1022.593	777.340
57.374	13.257	1021.701	776.112
58.388	13.192	1021.307	775.439
59.403	13.270	1019.903	774.667
60.417	13.316	1019.185	774.268
61.432	13.259	1018.170	773.164
62.447	13.208	1017.786	772.563
63.461	13.146	1016.685	771.373
64.476	13.116	1015.853	770.533
65.490	13.214	1015.175	770.406
66.505	13.200	1014.179	769.517
67.520	13.364	1013.579	769.759
68.534	13.289	1013.456	769.247
69.549	13.287	1012.523	768.460
70.563	13.212	1011.556	767.313
71.578	13.233	1010.157	766.280
72.593	13.107	1010.076	765.566
73.607	13.087	1009.430	764.917
74.622	13.108	1008.963	764.590
75.636	13.182	1007.983	764.123
76.651	13.188	1007.130	763.437
77.666	13.178	1006.178	762.601
78.680	13.149	1006.060	762.310
79.695	13.071	1005.601	761.536
80.709	13.210	1004.653	761.391
81.724	13.195	1004.385	761.049
82.739	13.429	1003.088	761.076
83.753	13.492	1002.233	760.650
84.768	13.356	1001.548	759.441
85.782	13.445	1000.546	759.021
86.797	13.431	999.397	758.016
87.812	13.488	998.815	757.772
88.826	13.324	998.324	756.581
89.841	13.428	996.858	755.878
90.855	13.451	996.316	755.502
91.870	13.507	995.673	755.204
92.884	13.383	994.926	754.007
93.899	13.542	993.941	753.917
94.914	13.515	993.228	753.188
95.928	13.551	992.374	752.635
96.943	13.525	991.424	751.732
97.957	13.500	990.664	750.973
98.972	13.431	989.920	750.032
99.987	13.378	989.061	749.076
101.001	13.496	987.874	748.645
102.016	13.496	987.392	748.210
103.030	13.507	986.792	747.743
104.045	13.368	985.917	746.386
105.060	13.411	985.088	745.884
106.074	13.423	983.763	744.871
107.089	13.410	982.781	744.000
108.103	13.333	982.023	743.014
109.118	13.282	981.282	742.161
110.133	13.290	980.089	741.229
111.147	13.268	979.619	740.709
112.162	13.293	978.873	740.193
113.176	13.415	978.061	740.058
114.191	13.531	977.174	739.842
115.206	13.402	976.239	738.488
116.220	13.380	975.359	737.662
117.235	13.407	974.140	736.795
118.249	13.417	973.651	736.406
119.264	13.456	973.283	736.233
120.279	13.471	971.886	735.179
121.293	13.301	971.692	734.211
122.308	13.351	970.619	733.559
123.322	13.391	969.374	732.730
124.337	13.407	968.401	732.001
125.352	13.248	967.629	730.649
126.366	13.269	966.723	729.992
127.381	13.254	965.329	728.810
128.395	13.372	964.522	728.654
129.410	13.534	963.756	728.725
130.424	13.534	962.500	727.712
131.439	13.406	962.234	726.884
132.454	13.410	961.600	726.359
133.468	13.521	960.412	725.882
134.483	13.515	959.492	725.095
135.497	13.414	958.857	724.113
136.512	13.491	958.020	723.749
137.527	13.369	957.690	722.903
138.541	13.457	956.526	722.345
139.556	13.382	956.180	721.695
140.570	13.486	955.088	721.260
141.585	13.489	954.142	720.492
142.600	13.548	953.386	720.117
143.614	13.711	952.600	720.165
144.629	13.556	951.947	718.938
145.643	13.585	951.057	718.327
146.658	13.588	949.786	717.317
147.673	13.611	949.070	716.809
148.687	13.528	948.332	715.833
149.702	13.498	947.493	715.006
150.716	13.533	946.769	714.545
151.731	13.468	946.207	713.777
152.746	13.425	945.734	713.172
153.760	13.617	944.686	713.145
154.775	13.546	944.445	712.595
155.789	13.620	943.677	712.270
156.804	13.702	942.656	711.789
157.819	13.810	941.858	711.587
158.833	13.674	941.710	710.828
159.848	13.870	940.195	710.463
160.862	13.798	939.561	709.612
161.877	13.622	938.624	708.091
162.892	13.628	937.958	707.548
163.906	13.510	937.317	706.498
164.921	13.727	936.077	706.429
165.935	13.766	934.973	705.696
166.950	13.634	934.743	704.900
167.964	13.671	933.762	704.257
168.979	13.883	932.271	703.969
169.994	13.755	931.957	703.128
171.008	13.645	931.108	701.959
172.023	13.765	930.339	701.823
173.037	13.868	929.731	701.740
174.052	13.702	929.239	700.605
175.067	13.791	928.413	700.294
176.081	13.571	928.321	699.232
177.096	13.618	927.973	699.108
178.110	13.708	927.007	698.700
179.125	13.742	926.255	698.211
180.140	13.767	925.752	697.877
181.154	13.858	925.243	697.816
182.169	13.718	925.309	697.212
183.183	13.849	923.938	696.669
184.198	13.920	923.320	696.439
185.213	13.928	922.420	695.732
186.227	13.853	922.148	695.152
187.242	14.050	921.640	695.530
188.256	14.121	921.055	695.325
189.271	13.991	920.020	693.938
190.286	13.978	918.934	693.004
191.300	13.847	918.491	692.064
192.315	13.812	918.402	691.789
193.329	13.857	917.539	691.263
194.344	13.867	917.345	691.098
195.359	14.030	916.182	690.841
196.373	13.936	915.736	690.051
197.388	14.030	915.305	690.055
198.402	13.996	914.885	689.537
199.417	14.113	914.143	689.403
200.432	14.204	913.487	689.223
201.446	14.125	913.437	688.798
202.461	14.252	912.871	688.837
203.475	14.297	911.781	688.140
204.490	14.292	911.136	687.570
205.504	14.263	910.094	686.601
206.519	14.263	909.666	686.221
207.534	14.195	909.177	685.508
208.548	14.212	908.394	684.926
209.563	14.283	907.731	684.661
210.577	14.176	907.142	683.714
211.592	14.306	906.459	683.674
212.607	14.419	905.672	683.483
213.621	14.245	904.975	682.183
214.636	14.342	904.610	682.245
215.650	14.485	903.274	681.763
216.665	14.301	903.030	680.763
217.680	14.476	901.986	680.632
218.694	14.333	901.521	679.639
219.709	14.436	900.912	679.537
220.723	14.403	900.190	678.799
221.738	14.566	899.268	678.709
222.753	14.456	898.699	677.772
223.767	14.464	898.658	677.713
224.782	14.514	898.198	677.509
225.796	14.487	897.142	676.544
226.811	14.560	896.714	676.454
227.826	14.516	896.088	675.744
228.840	14.567	895.362	675.345
229.855	14.529	894.508	674.489
230.869	14.560	893.788	674.010
231.884	14.375	893.335	672.861
232.899	14.438	892.549	672.466
233.913	14.448	891.428	671.601
234.928	14.468	891.101	671.376
235.942	14.547	890.174	670.936
236.957	14.499	889.832	670.427
237.972	14.533	888.973	669.857
238.986	14.590	888.610	669.750
240.001	14.542	888.121	669.131
241.015	14.485	887.440	668.329
242.030	14.717	886.770	668.697
243.045	14.629	886.364	667.980
244.059	14.596	885.761	667.330
245.074	14.777	884.920	667.363
246.088	14.873	883.840	666.874
247.103	14.752	883.422	666.017
248.117	14.744	883.396	665.905
249.132	15.033	882.524	666.339
250.147	14.849	882.146	665.262
251.161	14.948	881.138	664.837
252.176	14.972	880.615	664.479
253.190	15.042	880.108	664.316
254.205	15.091	879.109	663.698
255.220	15.116	878.610	663.361
256.234	15.206	877.718	662.984
257.249	15.047	877.439	662.086
258.263	15.236	876.357	661.960
259.278	14.954	876.067	660.567
260.293	15.196	875.588	661.101
261.307	15.148	874.951	660.372
262.322	15.216	874.288	660.082
263.336	15.293	873.484	659.720
264.351	15.252	872.885	659.048
265.366	15.280	872.412	658.744
266.380	15.284	872.316	658.626
267.395	15.436	871.293	658.395
268.409	15.369	869.918	657.036
269.424	15.208	869.429	655.977
270.439	15.304	868.683	655.733
271.453	15.125	868.813	655.072
272.468	15.092	868.147	654.383
273.482	15.341	867.206	654.585
274.497	15.230	866.558	653.606
275.512	15.238	865.904	653.087
276.526	15.285	865.489	652.898
277.541	15.494	864.682	653.046
278.555	15.427	864.752	652.782
279.570	15.373	864.088	652.012
280.585	15.506	863.193	651.795
281.599	15.442	862.437	650.918
282.614	15.435	861.637	650.229
283.628	15.397	861.086	649.607
284.643	15.481	860.731	649.609
285.657	15.371	859.892	648.493
286.672	15.638	859.017	648.804
287.687	15.516	858.916	648.200
288.701	15.537	857.844	647.414
289.716	15.585	857.427	647.230
290.730	15.535	857.135	646.757
291.745	15.818	856.298	647.160
292.760	15.717	855.515	646.121
293.774	15.639	855.215	645.539
294.789	15.699	855.026	645.569
295.803	15.577	854.249	644.456
296.818	15.609	853.542	643.987
297.833	15.658	852.713	643.492
298.847	15.730	851.833	643.047
299.862	15.814	851.258	642.878
300.876	15.802	850.933	642.529
301.891	15.865	850.227	642.180
302.906	15.726	849.930	641.368
303.920	15.836	849.447	641.367
304.935	15.905	848.849	641.123
305.949	15.852	848.425	640.542
306.964	15.746	847.877	639.669
307.979	15.965	846.922	639.724
308.993	15.970	846.446	639.326
310.008	16.012	845.710	638.874
311.022	15.927	845.539	638.367
312.037	15.833	845.069	637.598
313.052	15.827	844.365	636.989
314.066	15.878	843.534	636.499
315.081	15.839	843.349	636.154
316.095	15.858	842.317	635.391
317.110	15.939	842.186	635.541
318.125	15.946	841.748	635.181
319.139	15.984	841.176	634.838
320.154	15.894	840.697	634.081
321.168	15.860	839.971	633.349
322.183	15.901	839.649	633.205
323.197	16.050	839.167	633.346
324.212	15.960	838.605	632.528
325.227	15.883	837.857	631.618
326.241	15.965	837.241	631.403
327.256	15.894	836.912	630.834
328.270	16.027	836.394	630.887
329.285	16.063	835.568	630.343
330.300	16.207	834.417	629.954
331.314	16.155	834.392	629.689
332.329	15.988	834.066	628.763
333.343	16.124	833.479	628.772
334.358	16.112	833.267	628.509
335.373	16.131	833.128	628.420
336.387	16.198	832.271	627.967
337.402	16.234	832.197	627.991
338.416	16.206	831.979	627.667
339.431	16.430	831.387	627.996
340.446	16.326	831.292	627.484
341.460	16.311	830.725	626.944
342.475	16.374	830.169	626.703
343.489	16.346	829.847	626.302
344.504	16.327	829.230	625.708
345.519	16.408	829.044	625.815
346.533	16.236	828.536	624.736
347.548	16.384	827.818	624.688
348.562	16.335	827.414	624.148
349.577	16.496	826.272	623.823
350.592	16.423	825.574	622.972
351.606	16.433	825.044	622.554
352.621	16.499	824.412	622.267
353.635	16.522	823.773	621.814
354.650	16.334	823.695	621.008
355.665	16.540	822.819	621.050
356.679	16.504	822.241	620.426
357.694	16.580	821.192	619.856
358.708	16.507	820.980	619.374
359.723	16.509	820.226	618.761
360.738	16.652	819.774	618.885
361.752	16.663	818.898	618.212
362.767	16.666	818.732	618.042
363.781	16.775	817.881	617.741
364.796	16.797	817.758	617.674
365.810	16.807	817.546	617.497
366.825	16.730	817.067	616.801
367.840	16.875	816.253	616.658
368.854	16.496	816.380	615.320
369.869	16.794	815.417	615.624
370.883	16.826	815.133	615.470
371.898	16.935	814.599	615.410
372.913	16.985	814.219	615.248
373.927	16.936	813.710	614.633
374.942	16.824	813.453	613.979
375.956	16.985	812.746	613.972
376.971	16.987	812.476	613.721
377.986	16.907	812.365	613.292
379.000	16.976	811.759	613.031
380.015	17.161	810.546	612.727
381.029	17.055	810.276	612.086
382.044	17.183	809.988	612.277
383.059	17.181	809.542	611.878
384.073	17.106	808.758	610.960
385.088	17.072	808.293	610.436
386.102	17.144	807.870	610.320
387.117	17.025	807.199	609.330
388.132	17.164	806.595	609.320
389.146	17.147	806.102	608.834
390.161	17.072	805.824	608.301
391.175	17.070	805.248	607.806
392.190	17.033	804.450	607.016
393.205	17.088	804.452	607.162
394.219	17.096	804.109	606.877
395.234	17.097	803.564	606.414
396.248	17.047	803.435	606.085
397.263	17.010	802.795	605.415
398.278	17.167	802.292	605.544
399.292	17.015	802.172	604.858
400.307	17.300	801.362	605.209
401.321	17.273	800.922	604.725
402.336	17.325	800.350	604.426
403.350	17.347	799.879	604.096
404.365	17.325	799.748	603.865
405.380	17.312	798.975	603.180
406.394	17.334	798.815	603.085
407.409	17.495	798.157	603.106
408.423	17.423	797.776	602.510
409.438	17.447	797.346	602.216
410.453	17.440	797.228	602.050
411.467	17.666	796.162	601.990
412.482	17.590	795.787	601.385
413.496	17.685	795.561	601.496
414.511	17.501	795.717	600.910
415.526	17.600	794.949	600.627
416.540	17.693	794.496	600.560
417.555	17.589	794.052	599.802
418.569	17.835	793.125	599.915
419.584	17.622	793.099	599.095
420.599	17.786	792.562	599.211
421.613	108.868	1289.301	1463.759
422.628	93.509	1361.614	1463.862
