DTS Sentinel unit serial number:	SN413079Multiplexer serial number:	ORYXHardware model number:	OX4-SRSoftware version number:	ORYX F/W v4.00 Oryx Data Collector v3.7.2.0data status	okinstallation	princeton_trtdifferential loss correction	single-endedforward channel	channel 1reverse channel	N/Adate	2019/09/16time	07:22:36forward acquisition time	60.00reverse acquisition time	0.00gamma	496.2192k internal	0.2330k external	0.2330temperature offset calibration	0.9981default loss term (dB/km)	0.3790temperature slope calibration	1.0000multiplexer offset coefficient	1.0000multiplexer slope coefficient	1.0000fibre end	0.00T internal ref (°C)	27.44T ext. ref 1 (°C)	11.59T ext. ref 2 (°C)	22.99length (m)	temperature (°C)	Stokes	anti-Stokes-747.200	547.284	0.037	0.089
-746.185	-67.925	-0.443	0.174
-745.171	-123.238	0.377	0.061
-744.156	-141.425	-0.342	-0.035
-743.142	-44.862	0.294	0.147
-742.127	-9.372	0.261	0.176
-741.112	-123.197	0.088	-0.014
-740.098	800.000	-0.100	0.398
-739.083	-34.949	0.269	0.147
-738.069	800.000	0.129	-0.370
-737.054	-51.258	0.113	-0.053
-736.039	221.701	-0.110	-0.177
-735.025	546.613	-0.084	-0.202
-734.010	-85.653	-0.175	-0.055
-732.996	58.583	-0.128	-0.126
-731.981	50.204	0.194	0.184
-730.966	273.772	0.112	0.199
-729.952	800.000	-0.028	0.089
-728.937	-8.974	-0.282	-0.190
-727.923	2.446	-0.207	0.151
-726.908	12.512	-0.125	0.097
-725.894	121.035	0.072	0.090
-724.879	336.189	-0.021	0.041
-723.864	28.547	0.123	0.105
-722.850	-200.000	0.016	-0.211
-721.835	185.044	-0.059	-0.088
-720.821	14.386	0.335	0.263
-719.806	-200.000	0.025	-0.207
-718.791	800.000	0.171	-0.475
-717.777	-150.822	0.332	-0.025
-716.762	-176.879	-0.552	0.014
-715.748	442.835	-0.135	0.298
-714.733	9.227	-0.481	0.365
-713.718	-200.000	-0.032	0.337
-712.704	-200.000	0.040	-0.205
-711.689	-98.653	0.020	0.005
-710.675	127.628	-0.039	0.049
-709.660	131.189	-0.091	-0.117
-708.645	-200.000	0.010	-0.071
-707.631	-57.675	0.128	0.056
-706.616	-200.000	-0.036	-0.307
-705.602	143.904	0.096	0.129
-704.587	-200.000	-0.006	-0.167
-703.572	503.397	-0.059	0.136
-702.558	242.202	-0.139	-0.234
-701.543	800.000	0.053	0.198
-700.529	-35.463	-0.302	0.165
-699.514	782.243	-0.064	0.176
-698.499	-200.000	0.025	-0.179
-697.485	-200.000	0.039	-0.408
-696.470	-45.756	-0.067	-0.033
-695.456	59.595	-0.248	-0.246
-694.441	330.145	-0.087	0.169
-693.426	-132.670	0.220	0.028
-692.412	-200.000	-0.025	-0.213
-691.397	9.856	-0.101	-0.077
-690.383	-200.000	0.038	0.225
-689.368	724.917	-0.130	-0.347
-688.354	-73.672	-0.203	-0.074
-687.339	-105.434	0.085	-0.019
-686.324	-76.189	0.350	0.124
-685.310	-41.781	-0.062	-0.032
-684.295	199.431	-0.038	0.058
-683.281	-41.479	-0.325	0.168
-682.266	-200.000	-0.018	0.182
-681.251	-63.228	-0.300	-0.124
-680.237	-60.709	-0.103	0.044
-679.222	224.282	0.019	-0.030
-678.208	-34.172	-0.162	-0.090
-677.193	-138.564	-0.445	0.049
-676.178	188.090	-0.168	-0.253
-675.164	320.604	-0.075	0.143
-674.149	-200.000	-0.002	0.359
-673.135	-200.000	-0.034	0.319
-672.120	-200.000	-0.016	0.199
-671.105	-149.188	-0.046	0.004
-670.091	800.000	-0.078	-0.301
-669.076	351.201	0.098	0.195
-668.062	-95.356	-0.201	-0.054
-667.047	-3.998	0.238	-0.165
-666.032	531.708	0.071	0.168
-665.018	-200.000	-0.059	-0.389
-664.003	-200.000	0.006	-0.235
-662.989	-200.000	-0.002	0.028
-661.974	-58.160	-0.076	-0.033
-660.959	-178.697	0.414	0.010
-659.945	-36.148	-0.314	0.170
-658.930	8.259	0.186	-0.141
-657.916	-192.337	-0.199	0.002
-656.901	163.351	0.113	0.159
-655.886	-86.234	0.129	-0.040
-654.872	800.000	-0.044	-0.157
-653.857	93.608	-0.285	0.323
-652.843	-111.639	0.069	-0.014
-651.828	-200.000	0.004	-0.202
-650.814	193.828	0.120	0.182
-649.799	164.751	0.032	0.045
-648.784	-68.390	0.258	-0.100
-647.770	192.022	0.088	0.132
-646.755	41.996	-0.208	-0.189
-645.741	76.434	-0.333	-0.354
-644.726	-157.707	0.336	0.020
-643.711	620.249	0.076	0.192
-642.697	16.182	0.062	0.049
-641.682	36.560	0.296	-0.262
-640.668	-139.206	-0.339	0.037
-639.653	-30.569	0.044	-0.025
-638.638	-200.000	-0.005	0.213
-637.624	-129.838	-0.278	-0.038
-636.609	170.327	0.133	-0.191
-635.595	-43.059	0.209	-0.106
-634.580	-200.000	0.010	-0.211
-633.565	-200.000	-0.052	0.360
-632.551	-200.000	0.008	0.069
-631.536	19.786	-0.115	0.093
-630.522	-12.187	-0.199	0.131
-629.507	497.727	-0.075	-0.173
-628.492	514.907	-0.055	-0.128
-627.478	235.859	-0.090	-0.149
-626.463	294.381	0.085	-0.155
-625.449	308.352	0.196	-0.367
-624.434	635.210	0.148	-0.375
-623.419	-200.000	-0.030	0.222
-622.405	19.407	0.240	-0.193
-621.390	-77.447	-0.214	-0.074
-620.376	156.787	0.163	-0.226
-619.361	-136.489	-0.039	-0.004
-618.346	-61.551	0.094	0.040
-617.332	800.000	0.127	-0.366
-616.317	122.258	-0.195	0.244
-615.303	174.794	-0.169	0.245
-614.288	19.802	0.165	-0.133
-613.273	-49.846	0.282	-0.134
-612.259	-48.584	0.066	-0.032
-611.244	-46.406	0.136	0.067
-610.230	-200.000	0.077	0.440
-609.215	-43.680	-0.247	-0.125
-608.201	76.672	-0.215	-0.228
-607.186	-165.014	-0.337	-0.015
-606.171	-79.392	0.139	0.047
-605.157	-106.077	-0.078	-0.018
-604.142	75.681	-0.049	0.052
-603.128	182.714	0.190	0.280
-602.113	32.041	0.178	-0.153
-601.098	340.788	0.096	-0.188
-600.084	800.000	-0.060	-0.223
-599.069	-80.194	-0.395	0.132
-598.055	-200.000	-0.033	0.362
-597.040	46.865	-0.026	-0.025
-596.025	-200.000	-0.002	-0.028
-595.011	49.650	0.119	-0.112
-593.996	-50.295	0.108	-0.051
-592.982	94.854	0.093	0.105
-591.967	800.000	0.103	0.294
-590.952	-138.849	0.342	-0.037
-589.938	-70.812	0.310	-0.117
-588.923	243.703	-0.130	-0.219
-587.909	36.240	0.157	0.138
-586.894	9.937	-0.341	0.259
-585.879	-200.000	0.012	0.349
-584.865	-200.000	-0.024	-0.111
-583.850	212.535	-0.130	-0.205
-582.836	-135.235	0.200	0.024
-581.821	51.865	0.162	-0.154
-580.806	91.568	-0.263	0.295
-579.792	153.332	0.190	0.260
-578.777	-87.900	0.534	-0.161
-577.763	-48.957	0.193	-0.093
-576.748	800.000	-0.016	-0.055
-575.733	-50.307	0.225	0.106
-574.719	60.237	-0.191	0.189
-573.704	-58.219	-0.187	0.082
-572.690	68.832	0.102	0.105
-571.675	-200.000	-0.045	0.460
-570.661	-23.704	0.240	0.144
-569.646	-74.872	0.186	0.067
-568.631	800.000	-0.145	-0.525
-567.617	-175.532	-0.333	-0.009
-566.602	38.857	-0.156	-0.139
-565.588	-15.244	-0.198	0.127
-564.573	496.846	0.124	0.285
-563.558	-200.000	0.020	-0.234
-562.544	-156.508	0.299	-0.019
-561.529	643.870	-0.066	-0.168
-560.515	70.724	-0.162	-0.167
-559.500	-200.000	-0.011	0.078
-558.485	-90.797	-0.385	-0.111
-557.471	-140.855	0.130	0.013
-556.456	-59.108	0.231	0.100
-555.442	-150.679	0.146	-0.011
-554.427	800.000	0.083	0.259
-553.412	-200.000	-0.031	-0.323
-552.398	21.615	0.113	0.092
-551.383	496.891	0.036	0.084
-550.369	182.365	-0.005	0.007
-549.354	157.773	-0.123	0.170
-548.339	-72.860	-0.160	-0.059
-547.325	-200.000	-0.015	0.347
-546.310	-100.690	-0.097	-0.024
-545.296	149.400	0.042	-0.057
-544.281	-147.458	-0.161	0.014
-543.266	-200.000	0.025	0.198
-542.252	-89.023	-0.236	-0.070
-541.237	-26.075	-0.391	0.230
-540.223	800.000	-0.039	-0.109
-539.208	432.064	-0.106	0.230
-538.193	146.231	0.186	0.249
-537.179	-200.000	-0.015	0.179
-536.164	-41.669	-0.096	0.049
-535.150	800.000	0.056	-0.208
-534.135	-155.734	0.287	0.018
-533.121	-135.863	-0.374	0.044
-532.106	-23.476	-0.341	0.205
-531.091	84.800	0.085	-0.093
-530.077	188.325	-0.047	0.070
-529.062	42.344	-0.361	-0.328
-528.048	-200.000	0.041	-0.424
-527.033	-25.689	-0.352	-0.207
-526.018	-101.582	0.328	-0.079
-525.004	-162.798	-0.232	0.011
-523.989	-33.707	-0.179	-0.099
-522.975	-11.323	-0.321	-0.211
-521.960	-200.000	-0.001	-0.093
-520.945	-71.601	0.300	-0.112
-519.931	286.924	-0.096	0.173
-518.916	45.892	-0.320	0.295
-517.902	245.972	-0.209	0.352
-516.887	5.434	0.154	-0.114
-515.872	28.039	0.312	-0.263
-514.858	-81.891	-0.409	0.134
-513.843	-200.000	0.019	0.126
-512.829	-200.000	0.004	0.307
-511.814	-200.000	0.051	0.251
-510.799	171.438	-0.138	0.197
-509.785	-125.826	-0.085	0.013
-508.770	-125.415	-0.149	0.023
-507.756	-200.000	-0.005	0.053
-506.741	-200.000	0.014	-0.135
-505.726	233.473	-0.101	0.166
-504.712	800.000	-0.090	0.293
-503.697	-200.000	-0.014	0.351
-502.683	800.000	0.072	0.266
-501.668	17.610	-0.103	0.081
-500.653	-68.538	0.533	0.206
-499.639	-34.155	0.318	0.174
-498.624	-61.057	0.236	0.099
-497.610	-200.000	-0.001	-0.317
-496.595	366.561	-0.082	0.165
-495.581	-200.000	0.083	0.432
-494.566	635.009	-0.054	0.137
-493.551	55.209	-0.043	-0.041
-492.537	-136.589	0.195	-0.023
-491.522	-37.083	-0.184	-0.098
-490.508	-29.694	-0.142	0.081
-489.493	-33.690	-0.259	0.142
-488.478	484.093	-0.197	-0.447
-487.464	-200.000	0.014	-0.168
-486.449	130.968	0.154	0.197
-485.435	-87.578	0.388	-0.117
-484.420	-200.000	0.007	-0.051
-483.405	-95.114	0.137	-0.037
-482.391	99.955	-0.218	-0.251
-481.376	-55.241	0.349	-0.156
-480.362	-107.558	0.259	0.056
-479.347	-41.055	-0.231	0.119
-478.332	-200.000	-0.038	-0.197
-477.318	163.538	0.084	-0.117
-476.303	-200.000	-0.031	0.284
-475.289	272.779	0.114	-0.201
-474.274	15.197	-0.251	-0.196
-473.259	131.940	-0.183	0.234
-472.245	158.568	0.191	-0.264
-471.230	-119.498	-0.320	0.055
-470.216	-45.953	0.224	-0.110
-469.201	350.348	0.102	-0.200
-468.186	-130.124	0.136	-0.019
-467.172	61.373	-0.080	-0.079
-466.157	24.515	0.218	-0.180
-465.143	100.661	-0.174	0.201
-464.128	103.542	-0.229	-0.267
-463.113	553.913	0.043	-0.102
-462.099	66.817	-0.207	-0.210
-461.084	17.125	0.109	-0.086
-460.070	-104.318	-0.214	0.049
-459.055	-42.316	-0.123	0.062
-458.040	39.017	0.135	0.120
-457.026	800.000	-0.093	-0.364
-456.011	-147.749	-0.148	0.012
-454.997	-200.000	-0.037	-0.316
-453.982	-62.049	0.580	-0.241
-452.968	-200.000	-0.033	0.282
-451.953	463.862	0.077	-0.172
-450.938	-86.554	-0.320	0.098
-449.924	212.564	-0.223	-0.350
-448.909	-200.000	0.023	0.257
-447.895	183.532	0.140	0.206
-446.880	-20.385	-0.218	-0.133
-445.865	217.571	-0.027	-0.042
-444.851	189.184	0.098	0.146
-443.836	-84.112	0.177	0.056
-442.822	-23.265	-0.273	-0.163
-441.807	800.000	-0.020	0.087
-440.792	-168.276	0.173	0.007
-439.778	77.445	0.203	-0.214
-438.763	-65.595	-0.447	0.178
-437.749	-105.699	0.053	0.012
-436.734	-200.000	-0.005	0.121
-435.719	17.844	-0.267	0.212
-434.705	-77.422	-0.455	0.157
-433.690	5.804	-0.220	-0.162
-432.676	800.000	-0.073	-0.216
-431.661	-120.785	0.197	-0.033
-430.646	644.954	-0.189	0.481
-429.632	-200.000	0.050	-0.313
-428.617	800.000	0.022	0.087
-427.603	94.394	-0.172	0.195
-426.588	-200.000	0.033	0.146
-425.573	-55.259	-0.073	0.033
-424.559	-144.632	0.161	-0.015
-423.544	57.944	0.243	0.237
-422.530	9.721	0.172	-0.129
-421.515	-88.350	0.045	0.013
-420.500	444.171	0.048	0.104
-419.486	365.754	0.224	-0.450
-418.471	-19.747	0.101	-0.062
-417.457	260.493	0.074	-0.127
-416.442	11.662	-0.197	-0.150
-415.428	-96.711	-0.317	-0.083
-414.413	-80.362	0.159	-0.053
-413.398	-200.000	-0.048	0.446
-412.384	-200.000	0.032	-0.198
-411.369	62.729	0.116	0.115
-410.355	68.586	-0.077	0.079
-409.340	-90.130	-0.289	0.084
-408.325	91.016	-0.021	0.023
-407.311	-153.876	0.338	-0.023
-406.296	3.341	0.201	0.145
-405.282	569.114	0.098	0.236
-404.267	38.816	0.079	-0.070
-403.252	-200.000	0.033	-0.174
-402.238	144.341	-0.181	-0.240
-401.223	800.000	0.017	-0.071
-400.209	-128.488	-0.185	0.026
-399.194	359.730	-0.043	0.086
-398.179	-32.661	0.156	0.086
-397.165	94.240	0.196	0.221
-396.150	50.763	0.181	0.170
-395.136	-1.271	-0.454	0.318
-394.121	800.000	0.045	0.193
-393.106	-14.132	0.084	-0.054
-392.092	800.000	-0.043	0.136
-391.077	-78.145	0.124	-0.042
-390.063	-120.470	0.315	-0.053
-389.048	716.419	-0.039	-0.103
-388.033	-200.000	-0.001	-0.045
-387.019	-132.373	-0.165	-0.021
-386.004	-79.543	-0.347	0.116
-384.990	-200.000	-0.048	-0.250
-383.975	-200.000	-0.038	0.279
-382.960	128.019	0.109	0.137
-381.946	179.895	0.048	0.070
-380.931	60.641	0.091	-0.089
-379.917	-200.000	-0.012	-0.076
-378.902	-200.000	-0.073	-0.512
-377.888	-200.000	0.026	-0.205
-376.873	355.780	-0.228	0.450
-375.858	-112.529	-0.191	-0.038
-374.844	100.393	0.012	-0.013
-373.829	800.000	-0.088	0.247
-372.815	-75.121	-0.425	0.151
-371.800	800.000	0.114	-0.332
-370.785	-24.301	0.161	0.095
-369.771	98.604	0.040	0.045
-368.756	-139.232	-0.147	0.016
-367.742	413.352	0.119	-0.250
-366.727	310.353	-0.180	0.335
-365.712	-200.000	-0.002	-0.436
-364.698	-155.780	0.302	-0.019
-363.683	0.368	-0.272	0.193
-362.669	29.439	0.142	0.119
-361.654	80.037	-0.300	0.320
-360.639	800.000	0.035	0.129
-359.625	800.000	-0.088	0.335
-358.610	-200.000	0.022	0.131
-357.596	178.583	0.034	0.049
-356.581	105.851	0.218	-0.256
-355.566	800.000	0.060	-0.179
-354.552	-57.138	0.051	0.022
-353.537	-70.647	-0.230	-0.086
-352.523	386.408	-0.113	-0.232
-351.508	-200.000	0.031	-0.240
-350.493	-141.879	0.062	0.006
-349.479	800.000	0.152	-0.435
-348.464	108.971	-0.102	-0.121
-347.450	46.412	-0.099	0.091
-346.435	-90.854	0.300	-0.086
-345.420	-121.974	-0.221	0.036
-344.406	-59.071	0.230	-0.098
-343.391	-50.536	0.413	-0.193
-342.377	800.000	0.060	0.253
-341.362	-200.000	0.256	-0.000
-340.348	-65.600	-0.270	-0.107
-339.333	36.709	0.196	-0.172
-338.318	613.928	0.098	-0.242
-337.304	-157.040	0.171	0.010
-336.289	-177.689	-0.216	-0.005
-335.275	299.259	0.194	-0.353
-334.260	800.000	-0.053	0.228
-333.245	128.232	0.107	0.135
-332.231	203.804	-0.147	0.225
-331.216	-90.110	0.131	0.038
-330.202	73.423	0.209	-0.217
-329.187	65.303	-0.308	-0.309
-328.172	-200.000	0.013	0.230
-327.158	-200.000	0.030	0.197
-326.143	-142.480	-0.230	0.022
-325.129	-19.498	0.166	0.102
-324.114	-86.769	-0.268	0.081
-323.099	-43.746	-0.086	0.043
-322.085	223.045	0.120	-0.192
-321.070	-84.349	0.188	-0.059
-320.056	105.321	-0.276	-0.323
-319.041	-76.088	-0.031	0.011
-318.026	153.701	0.110	-0.149
-317.012	-41.474	-0.110	-0.056
-315.997	141.021	0.223	0.292
-314.983	273.542	0.108	-0.188
-313.968	-200.000	0.011	-0.253
-312.953	-137.001	0.125	0.014
-311.939	23.307	0.130	-0.106
-310.924	-67.430	-0.152	0.059
-309.910	84.872	0.212	-0.230
-308.895	-200.000	-0.042	-0.311
-307.880	28.942	0.029	0.025
-306.866	19.066	0.078	-0.062
-305.851	250.075	-0.121	-0.203
-304.837	-57.285	-0.161	0.070
-303.822	-84.750	-0.304	-0.095
-302.807	103.931	-0.189	-0.220
-301.793	-200.000	0.004	0.074
-300.778	800.000	0.094	-0.260
-299.764	-6.240	-0.234	0.158
-298.749	112.300	-0.087	-0.105
-297.735	373.051	-0.118	-0.237
-296.720	-95.169	0.057	-0.015
-295.705	-127.737	-0.260	0.037
-294.691	-24.073	-0.347	-0.205
-293.676	222.672	0.120	-0.191
-292.662	-136.088	-0.447	-0.052
-291.647	-43.504	-0.149	-0.074
-290.632	-16.447	0.178	-0.112
-289.618	-200.000	-0.025	-0.141
-288.603	-74.798	-0.180	-0.064
-287.589	184.041	0.156	-0.228
-286.574	-72.687	0.173	0.063
-285.559	690.342	-0.107	0.278
-284.545	-141.952	0.646	0.064
-283.530	800.000	0.051	0.208
-282.516	-157.910	-0.289	0.017
-281.501	-97.948	-0.173	0.044
-280.486	-82.546	-0.132	-0.042
-279.472	753.089	-0.114	0.303
-278.457	655.070	-0.037	0.094
-277.443	80.444	-0.071	-0.076
-276.428	623.092	0.087	0.217
-275.413	237.990	-0.142	0.233
-274.399	-112.354	-0.195	-0.038
-273.384	-128.080	0.133	-0.019
-272.370	-9.715	0.153	-0.101
-271.355	-113.548	-0.050	0.010
-270.340	-68.098	0.250	0.096
-269.326	-134.374	-0.387	0.047
-268.311	-117.934	0.186	0.033
-267.297	-200.000	0.019	0.235
-266.282	6.451	0.114	0.083
-265.267	515.404	-0.081	0.186
-264.253	-129.607	0.131	0.018
-263.238	-14.806	-0.136	-0.086
-262.224	243.976	-0.102	-0.169
-261.209	-61.611	-0.183	0.076
-260.195	-200.000	0.003	0.165
-259.180	800.000	0.037	-0.129
-258.165	-116.672	0.169	0.031
-257.151	-45.289	-0.228	0.112
-256.136	105.673	0.126	-0.148
-255.122	232.090	0.022	0.036
-254.107	8.632	0.155	0.115
-253.092	-132.611	-0.067	0.008
-252.078	338.776	-0.152	0.292
-251.063	-68.082	0.251	0.097
-250.049	-65.715	0.311	0.123
-249.034	465.234	-0.130	0.287
-248.019	-200.000	0.061	-0.289
-247.005	489.858	-0.071	-0.161
-245.990	800.000	-0.038	0.114
-244.976	-44.592	-0.209	0.103
-243.961	138.099	0.144	0.187
-242.946	352.520	-0.042	-0.082
-241.932	-200.000	-0.068	0.443
-240.917	-77.612	-0.060	0.021
-239.903	653.869	0.113	-0.286
-238.888	-33.296	-0.266	0.145
-237.873	280.302	-0.121	-0.213
-236.859	93.243	-0.199	0.223
-235.844	-62.619	0.097	-0.040
-234.830	800.000	0.065	-0.177
-233.815	400.273	-0.180	0.373
-232.800	-183.696	0.397	0.007
-231.786	-200.000	0.062	0.340
-230.771	-200.000	0.031	0.237
-229.757	-108.118	0.298	0.064
-228.742	37.986	-0.164	0.144
-227.727	-68.727	-0.222	0.085
-226.713	59.683	0.146	-0.142
-225.698	-91.512	-0.144	0.041
-224.684	800.000	0.037	0.105
-223.669	-200.000	-0.056	0.356
-222.655	-43.277	0.025	-0.012
-221.640	101.500	0.113	0.130
-220.625	-200.000	0.047	-0.324
-219.611	800.000	-0.134	-0.519
-218.596	-83.037	0.164	0.052
-217.582	-46.754	0.291	-0.140
-216.567	-103.003	-0.139	0.033
-215.552	800.000	0.138	0.394
-214.538	-164.651	0.047	0.002
-213.523	386.844	0.103	-0.210
-212.509	278.970	0.309	-0.544
-211.494	336.616	0.077	-0.147
-210.479	150.656	0.391	-0.524
-209.465	125.464	0.175	-0.217
-208.450	-61.586	0.147	-0.061
-207.436	-105.203	0.213	-0.048
-206.421	-68.264	0.180	0.069
-205.406	-93.724	-0.250	0.068
-204.392	-111.052	0.206	0.042
-203.377	-200.000	-0.025	-0.269
-202.363	462.400	-0.193	-0.425
-201.348	96.833	0.037	0.042
-200.333	230.439	-0.115	-0.186
-199.319	299.023	-0.189	-0.343
-198.304	800.000	-0.088	0.291
-197.290	104.027	-0.159	0.184
-196.275	-19.255	-0.033	0.020
-195.260	-90.679	-0.140	0.040
-194.246	393.124	-0.063	0.129
-193.231	-146.984	-0.282	0.024
-192.217	24.295	-0.082	0.067
-191.202	-200.000	-0.003	-0.122
-190.187	-200.000	0.100	-0.489
-189.173	29.314	0.132	-0.110
-188.158	-92.335	0.186	-0.051
-187.144	-200.000	0.079	0.470
-186.129	267.213	0.091	0.157
-185.114	38.180	0.004	0.004
-184.100	-89.281	-0.132	0.038
-183.085	-31.800	0.155	-0.086
-182.071	175.260	-0.035	0.050
-181.056	343.341	-0.025	0.047
-180.042	45.962	0.179	0.163
-179.027	606.466	-0.169	0.416
-178.012	-75.756	0.061	-0.021
-176.998	63.810	-0.047	-0.047
-175.983	267.326	0.056	0.097
-174.969	54.093	0.186	0.176
-173.954	-24.398	-0.120	0.070
-172.939	-15.045	-0.103	-0.065
-171.925	283.721	0.160	0.282
-170.910	-112.836	-0.082	-0.016
-169.896	542.096	0.143	0.335
-168.881	11.993	0.321	0.243
-167.866	426.104	0.068	0.143
-166.852	12.129	0.200	0.152
-165.837	232.264	0.048	-0.077
-164.823	-200.000	0.003	-0.095
-163.808	-196.178	-0.068	0.000
-162.793	-84.353	0.192	0.060
-161.779	-133.897	0.125	0.015
-160.764	800.000	-0.030	-0.102
-159.750	6.158	0.289	-0.211
-158.735	-105.262	0.396	0.089
-157.720	-167.981	-0.097	0.004
-156.706	57.894	0.156	-0.150
-155.691	223.834	0.133	-0.212
-154.677	192.724	-0.122	-0.181
-153.662	119.941	0.164	-0.200
-152.647	-71.574	-0.345	-0.127
-151.633	800.000	-0.027	0.101
-150.618	-180.618	-0.269	0.005
-149.604	335.515	-0.054	-0.104
-148.589	-127.548	0.167	0.024
-147.574	114.480	-0.125	-0.150
-146.560	-30.594	0.080	-0.044
-145.545	26.400	0.124	0.102
-144.531	274.792	-0.119	-0.208
-143.516	-21.318	0.081	0.048
-142.502	43.772	0.128	-0.115
-141.487	-68.627	0.218	0.083
-140.472	-47.099	-0.406	0.195
-139.458	-124.384	0.356	-0.055
-138.443	800.000	0.058	-0.183
-137.429	15.478	0.282	0.217
-136.414	-114.885	0.182	0.034
-135.399	0.634	-0.116	-0.082
-134.385	38.023	0.277	0.242
-133.370	800.000	0.052	0.158
-132.356	134.562	0.106	-0.135
-131.341	190.332	0.021	0.031
-130.326	73.678	-0.045	0.046
-129.312	139.077	0.204	0.263
-128.297	-34.025	-0.060	0.032
-127.283	351.289	0.187	-0.364
-126.268	-105.795	0.170	0.038
-125.253	-200.000	-0.043	0.223
-124.239	43.477	0.090	0.081
-123.224	350.310	-0.038	0.074
-122.210	-69.441	0.185	0.070
-121.195	-77.590	0.192	0.065
-120.180	-64.128	0.374	-0.150
-119.166	-171.345	0.035	-0.001
-118.151	-63.174	-0.106	-0.043
-117.137	23.748	-0.126	0.102
-116.122	-56.618	0.168	0.073
-115.107	-200.000	0.052	-0.381
-114.093	-58.162	-0.191	0.082
-113.078	180.883	0.057	0.082
-112.064	-200.000	0.065	-0.281
-111.049	234.140	-0.181	-0.293
-110.034	-189.672	0.075	0.001
-109.020	800.000	-0.049	0.185
-108.005	-200.000	-0.022	0.179
-106.991	-103.776	-0.166	0.038
-105.976	-80.425	0.311	-0.102
-104.962	-153.474	-0.148	-0.010
-103.947	-0.867	0.274	0.190
-102.932	-114.701	0.044	0.008
-101.918	78.353	0.196	-0.206
-100.903	800.000	-0.040	0.131
-99.889	-200.000	-0.004	-0.305
-98.874	-200.000	0.020	-0.112
-97.859	467.399	0.144	0.316
-96.845	-200.000	0.098	0.443
-95.830	-157.148	-0.130	-0.008
-94.816	-125.464	-0.176	-0.026
-93.801	800.000	-0.079	0.232
-92.786	92.750	-0.054	0.060
-91.772	51.612	0.301	-0.281
-90.757	-97.458	-0.089	-0.023
-89.743	24.711	0.292	-0.237
-88.728	800.000	-0.091	-0.248
-87.713	-200.000	-0.056	-0.355
-86.699	294.610	0.141	-0.252
-85.684	800.000	0.067	-0.212
-84.670	20.405	-0.224	-0.177
-83.655	136.280	-0.086	-0.110
-82.640	-103.321	-0.402	0.093
-81.626	800.000	0.119	0.441
-80.611	-41.533	0.078	-0.039
-79.597	-200.000	0.056	0.311
-78.582	102.480	-0.054	0.062
-77.567	563.664	0.142	0.337
-76.553	-200.000	-0.022	0.141
-75.538	113.583	-0.072	0.086
-74.524	102.014	-0.046	-0.053
-73.509	-129.683	-0.152	0.021
-72.494	-28.429	0.277	-0.157
-71.480	-72.106	-0.181	0.066
-70.465	-140.629	0.105	0.011
-69.451	-160.920	-0.153	-0.008
-68.436	649.705	0.050	0.124
-67.422	9.527	-0.095	0.071
-66.407	357.644	0.129	-0.252
-65.392	-200.000	0.001	-0.173
-64.378	123.380	-0.275	-0.338
-63.363	98.720	-0.227	-0.257
-62.349	-89.890	-0.123	-0.035
-61.334	79.977	-1.118	-1.178
-60.319	7.613	0.704	0.516
-59.305	800.000	-0.306	-1.133
-58.290	123.551	0.774	0.951
-57.276	800.000	0.451	1.484
-56.261	-200.000	113.032	639.586
-55.246	463.159	1511.343	3307.603
-54.232	146.419	2678.155	3523.851
-53.217	103.784	2158.401	2484.275
-52.203	38.909	1605.009	1404.970
-51.188	30.663	1351.421	1132.975
-50.173	27.857	1313.468	1084.471
-49.159	55.736	1369.094	1299.887
-48.144	54.300	1383.647	1304.988
-47.130	31.000	1339.154	1124.545
-46.115	27.596	1321.498	1089.373
-45.100	27.489	1316.235	1084.350
-44.086	27.331	1314.142	1081.647
-43.071	27.313	1311.796	1079.567
-42.057	27.286	1309.793	1077.714
-41.042	27.281	1307.858	1076.048
-40.027	27.258	1306.606	1074.841
-39.013	27.217	1304.847	1073.111
-37.998	27.461	1302.680	1072.722
-36.984	27.365	1301.010	1070.739
-35.969	27.388	1299.057	1069.224
-34.954	27.415	1297.860	1068.353
-33.940	27.498	1295.875	1067.166
-32.925	27.480	1294.955	1066.258
-31.911	27.537	1293.137	1065.053
-30.896	27.552	1291.825	1064.020
-29.881	27.537	1290.617	1062.896
-28.867	27.472	1289.387	1061.463
-27.852	27.619	1287.474	1060.696
-26.838	27.535	1286.501	1059.366
-25.823	27.582	1285.022	1058.382
-24.809	27.469	1284.056	1056.886
-23.794	27.394	1282.883	1055.441
-22.779	27.478	1281.182	1054.489
-21.765	27.539	1279.971	1053.802
-20.750	27.513	1278.504	1052.401
-19.736	27.470	1276.969	1050.851
-18.721	27.455	1276.109	1050.012
-17.706	27.418	1275.461	1049.228
-16.692	27.260	1274.426	1047.421
-15.677	27.547	1272.468	1047.422
-14.663	27.410	1271.504	1045.799
-13.648	27.446	1270.455	1045.101
-12.633	27.394	1269.310	1043.821
-11.619	27.370	1269.115	1043.484
-10.604	27.462	1267.775	1042.866
-9.590	27.357	1267.060	1041.633
-8.575	27.345	1265.672	1040.385
-7.560	27.448	1264.685	1040.118
-6.546	27.308	1264.310	1038.973
-5.531	27.353	1263.099	1038.193
-4.517	27.414	1262.185	1037.743
-3.502	27.345	1261.967	1037.134
-2.487	27.473	1260.532	1036.640
-1.473	27.356	1256.765	1032.839
-0.458	26.151	1241.962	1013.870
0.556	21.544	1225.940	978.541
1.571	18.223	1232.651	965.110
2.586	17.563	1248.178	973.407
3.600	17.523	1237.688	964.915
4.615	16.070	1171.157	905.171
5.629	13.069	1104.584	838.421
6.644	11.748	1087.504	818.775
7.659	11.615	1085.769	816.731
8.673	11.474	1084.678	815.137
9.688	11.534	1083.498	814.475
10.702	11.690	1081.157	813.421
11.717	13.493	1082.919	823.652
12.731	16.447	1086.230	840.811
13.746	17.789	1087.818	848.651
14.761	17.602	1087.089	847.073
15.775	16.675	1084.825	840.633
16.790	15.661	1082.967	834.094
17.804	14.803	1081.487	828.625
18.819	14.465	1079.991	825.732
19.834	14.178	1078.858	823.373
20.848	13.957	1078.017	821.566
21.863	13.779	1076.977	819.819
22.877	13.587	1076.695	818.587
23.892	13.514	1076.059	817.669
24.907	13.448	1075.610	816.930
25.921	13.504	1074.239	816.089
26.936	13.664	1072.532	815.509
27.950	13.648	1071.184	814.332
28.965	13.692	1069.689	813.341
29.980	13.704	1068.448	812.385
30.994	13.794	1067.187	811.793
32.009	13.770	1066.005	810.707
33.023	13.852	1064.541	809.919
34.038	13.734	1064.085	808.927
35.053	13.727	1063.007	808.003
36.067	13.624	1062.214	806.827
37.082	13.606	1061.531	806.149
38.096	13.693	1060.618	805.807
39.111	13.714	1059.607	805.066
40.126	13.694	1058.272	803.884
41.140	13.540	1057.105	802.184
42.155	13.510	1055.856	801.018
43.169	13.449	1055.000	800.004
44.184	13.494	1054.192	799.537
45.199	13.454	1053.188	798.510
46.213	13.597	1051.555	797.892
47.228	13.658	1050.538	797.344
48.242	13.689	1049.367	796.532
49.257	13.520	1048.821	795.236
50.271	13.672	1047.304	794.746
51.286	13.646	1047.197	794.469
52.301	13.704	1045.923	793.708
53.315	13.674	1044.925	792.740
54.330	13.599	1043.812	791.465
55.344	13.619	1042.841	790.755
56.359	13.555	1042.102	789.822
57.374	13.543	1041.332	789.111
58.388	13.618	1039.874	788.293
59.403	13.550	1039.298	787.461
60.417	13.532	1038.605	786.783
61.432	13.468	1038.049	785.984
62.447	13.542	1037.104	785.555
63.461	13.318	1036.571	784.020
64.476	13.382	1035.249	783.249
65.490	13.504	1034.545	783.226
66.505	13.507	1033.970	782.737
67.520	13.479	1033.729	782.352
68.534	13.378	1032.934	781.204
69.549	13.512	1031.887	780.976
70.563	13.415	1031.024	779.796
71.578	13.487	1030.197	779.440
72.593	13.389	1029.210	778.162
73.607	13.314	1028.652	777.320
74.622	13.361	1028.131	777.079
75.636	13.356	1027.554	776.551
76.651	13.419	1026.569	776.034
77.666	13.338	1026.139	775.260
78.680	13.366	1025.282	774.673
79.695	13.446	1024.624	774.485
80.709	13.395	1024.547	774.118
81.724	13.506	1023.521	773.792
82.739	13.610	1022.529	773.460
83.753	13.598	1022.264	773.137
84.768	13.789	1020.868	772.903
85.782	13.699	1020.325	772.000
86.797	13.669	1019.766	771.372
87.812	13.577	1018.492	769.912
88.826	13.677	1017.113	769.265
89.841	13.634	1016.795	768.756
90.855	13.680	1015.606	768.002
91.870	13.710	1015.087	767.681
92.884	13.770	1013.744	766.875
93.899	13.853	1012.682	766.387
94.914	13.733	1012.462	765.599
95.928	13.839	1011.448	765.255
96.943	13.771	1010.680	764.292
97.957	13.774	1009.349	763.231
98.972	13.806	1008.874	762.951
99.987	13.827	1007.810	762.175
101.001	13.921	1006.587	761.612
102.016	13.782	1006.303	760.696
103.030	13.772	1005.151	759.712
104.045	13.746	1004.751	759.224
105.060	13.793	1003.472	758.405
106.074	13.727	1002.466	757.274
107.089	13.557	1001.731	755.879
108.103	13.500	1000.858	754.893
109.118	13.577	999.417	754.087
110.133	13.444	999.123	753.196
111.147	13.525	997.804	752.504
112.162	13.581	996.803	751.933
113.176	13.640	996.054	751.571
114.191	13.615	995.920	751.291
115.206	13.541	994.991	750.186
116.220	13.426	994.277	749.062
117.235	13.779	992.688	749.394
118.249	13.648	991.709	747.998
119.264	13.625	991.253	747.482
120.279	13.595	990.607	746.793
121.293	13.670	989.595	746.304
122.308	13.614	988.408	745.089
123.322	13.397	988.131	743.842
124.337	13.526	986.852	743.392
125.352	13.573	985.841	742.775
126.366	13.461	984.481	741.181
127.381	13.564	983.708	740.997
128.395	13.527	982.893	740.152
129.410	13.658	981.676	739.753
130.424	13.524	981.190	738.726
131.439	13.733	980.687	739.210
132.454	13.669	979.702	738.121
133.468	13.624	978.794	737.171
134.483	13.602	977.646	736.141
135.497	13.637	976.921	735.688
136.512	13.677	976.272	735.309
137.527	13.732	975.131	734.628
138.541	13.662	974.463	733.749
139.556	13.679	974.146	733.524
140.570	13.690	973.462	732.993
141.585	13.929	972.280	733.093
142.600	13.695	971.889	731.701
143.614	13.801	970.827	731.300
144.629	13.950	969.900	731.197
145.643	13.911	968.968	730.258
146.658	13.757	968.020	728.799
147.673	13.858	966.741	728.216
148.687	13.703	966.743	727.473
149.702	13.828	965.140	726.749
150.716	13.816	964.137	725.880
151.731	13.673	963.737	724.887
152.746	13.754	962.869	724.523
153.760	13.789	962.610	724.419
154.775	13.868	961.682	724.003
155.789	13.905	961.248	723.772
156.804	13.909	960.095	722.856
157.819	14.064	959.306	722.873
158.833	14.086	959.040	722.705
159.848	14.100	958.051	721.955
160.862	14.020	956.948	720.715
161.877	13.929	956.307	719.773
162.892	13.846	955.647	718.853
163.906	13.846	954.293	717.769
164.921	13.912	953.450	717.359
165.935	14.003	952.782	717.183
166.950	14.000	951.610	716.224
167.964	13.873	951.107	715.238
168.979	14.037	949.689	714.812
169.994	13.983	949.367	714.273
171.008	13.975	948.605	713.604
172.023	14.091	947.884	713.497
173.037	14.190	946.851	713.082
174.052	14.083	946.422	712.236
175.067	14.020	945.342	711.089
176.081	13.896	945.272	710.444
177.096	13.946	944.874	710.296
178.110	14.036	944.038	709.988
179.125	14.007	943.625	709.491
180.140	14.158	942.831	709.477
181.154	14.121	942.526	709.026
182.169	14.136	942.353	708.896
183.183	14.153	941.463	708.235
184.198	14.097	940.762	707.409
185.213	14.162	940.069	707.101
186.227	14.302	939.324	707.075
187.242	14.292	938.576	706.406
188.256	14.285	938.080	705.938
189.271	14.283	937.236	705.234
190.286	14.123	936.281	703.774
191.300	14.032	935.655	702.859
192.315	14.006	935.022	702.210
193.329	14.010	934.167	701.521
194.344	14.115	933.717	701.565
195.359	14.070	933.569	701.201
196.373	14.152	932.681	700.821
197.388	14.310	932.363	701.183
198.402	14.348	931.747	700.818
199.417	14.515	930.825	700.767
200.432	14.322	930.611	699.731
201.446	14.432	930.065	699.719
202.461	14.612	929.551	700.028
203.475	14.468	928.939	698.901
204.490	14.482	928.031	698.213
205.504	14.426	927.383	697.430
206.519	14.273	926.820	696.304
207.534	14.541	925.433	696.321
208.548	14.452	925.070	695.613
209.563	14.473	924.436	695.166
210.577	14.458	923.696	694.481
211.592	14.521	923.167	694.286
212.607	14.662	921.861	693.829
213.621	14.653	921.353	693.347
214.636	14.543	920.363	692.087
215.650	14.527	920.173	691.814
216.665	14.651	919.488	691.752
217.680	14.680	918.564	691.115
218.694	14.854	917.830	691.222
219.709	14.640	917.612	690.113
220.723	14.747	916.740	689.836
221.738	14.731	916.148	689.264
222.753	14.705	915.010	688.241
223.767	14.833	914.401	688.249
224.782	14.840	914.491	688.282
225.796	14.878	913.649	687.747
226.811	14.774	912.993	686.763
227.826	14.839	912.053	686.261
228.840	14.896	911.434	685.970
229.855	14.864	910.269	684.902
230.869	14.865	909.814	684.502
231.884	14.724	909.447	683.587
232.899	14.830	908.517	683.261
233.913	14.803	907.813	682.561
234.928	14.861	907.138	682.232
235.942	14.894	906.306	681.681
236.957	14.781	906.116	681.016
237.972	14.757	905.587	680.461
238.986	14.755	905.001	679.954
240.001	14.725	904.147	679.129
241.015	14.896	903.510	679.283
242.030	14.858	903.000	678.688
243.045	14.896	902.476	678.385
244.059	14.901	902.026	678.010
245.074	14.858	901.138	677.109
246.088	15.034	900.699	677.431
247.103	14.905	900.065	676.373
248.117	15.132	899.521	676.820
249.132	15.174	898.506	676.166
250.147	15.299	898.035	676.254
251.161	15.327	897.554	675.948
252.176	15.304	896.844	675.258
253.190	15.289	896.116	674.590
254.205	15.371	895.430	674.345
255.220	15.375	894.515	673.613
256.234	15.330	894.230	673.157
257.249	15.266	893.852	672.555
258.263	15.314	892.801	671.900
259.278	15.379	892.306	671.726
260.293	15.421	891.825	671.474
261.307	15.337	891.493	670.827
262.322	15.574	890.344	670.849
263.336	15.439	889.709	669.774
264.351	15.482	888.895	669.275
265.366	15.493	888.464	668.932
266.380	15.516	887.715	668.402
267.395	15.555	886.829	667.832
268.409	15.400	886.276	666.739
269.424	15.483	885.632	666.525
270.439	15.450	884.861	665.755
271.453	15.566	884.276	665.718
272.468	15.476	883.908	665.025
273.482	15.456	883.234	664.380
274.497	15.500	882.369	663.845
275.512	15.386	881.931	663.003
276.526	15.588	881.517	663.433
277.541	15.502	881.147	662.754
278.555	15.590	880.353	662.446
279.570	15.740	879.593	662.408
280.585	15.805	878.518	661.795
281.599	15.599	877.983	660.523
282.614	15.604	877.492	660.116
283.628	15.729	876.565	659.850
284.643	15.701	876.229	659.428
285.657	15.634	875.724	658.726
286.672	15.659	874.654	657.962
287.687	15.683	874.138	657.608
288.701	15.778	873.518	657.456
289.716	15.767	873.177	657.100
290.730	15.794	872.538	656.667
291.745	15.797	871.768	656.041
292.760	15.905	871.463	656.171
293.774	15.897	870.797	655.581
294.789	15.883	869.798	654.718
295.803	15.901	869.227	654.299
296.818	15.945	868.452	653.831
297.833	15.766	868.028	652.757
298.847	15.847	867.465	652.592
299.862	15.960	866.825	652.488
300.876	15.950	866.443	652.106
301.891	15.910	866.027	651.579
302.906	16.075	865.096	651.460
303.920	16.181	864.749	651.551
304.935	16.144	864.081	650.844
305.949	16.146	863.742	650.539
306.964	16.050	863.024	649.572
307.979	16.101	862.211	649.099
308.993	16.130	861.357	648.509
310.008	16.215	861.187	648.653
311.022	16.107	860.853	647.926
312.037	16.164	860.041	647.476
313.052	16.108	859.240	646.604
314.066	16.019	859.209	646.180
315.081	16.140	858.388	645.969
316.095	16.094	857.683	645.206
317.110	16.305	856.495	645.063
318.125	16.205	856.559	644.671
319.139	16.087	856.514	644.129
320.154	16.198	855.543	643.766
321.168	16.274	855.193	643.737
322.183	16.256	854.499	643.089
323.197	16.222	854.189	642.668
324.212	16.242	853.979	642.527
325.227	16.171	853.323	641.708
326.241	16.280	852.538	641.476
327.256	16.254	851.718	640.703
328.270	16.149	851.362	639.979
329.285	16.234	850.455	639.562
330.300	16.221	850.034	639.142
331.314	16.266	849.579	638.913
332.329	16.269	849.273	638.639
333.343	16.441	848.953	638.991
334.358	16.225	848.604	637.856
335.373	16.434	848.239	638.315
336.387	16.452	847.781	637.981
337.402	16.526	847.172	637.745
338.416	16.596	846.935	637.775
339.431	16.436	846.858	637.058
340.446	16.436	846.258	636.548
341.460	16.734	845.525	637.060
342.475	16.613	845.609	636.613
343.489	16.690	844.999	636.389
344.504	16.660	844.630	635.940
345.519	16.767	843.890	635.730
346.533	16.588	843.685	634.846
347.548	16.664	843.011	634.568
348.562	16.576	842.046	633.456
349.577	16.703	841.747	633.649
350.592	16.553	841.313	632.706
351.606	16.631	840.350	632.217
352.621	16.638	839.804	631.777
353.635	16.737	838.980	631.469
354.650	16.623	838.756	630.820
355.665	16.783	837.602	630.493
356.679	16.765	837.096	629.991
357.694	16.772	836.573	629.567
358.708	16.813	835.954	629.197
359.723	16.841	835.452	628.869
360.738	16.739	834.874	627.998
361.752	16.926	833.920	627.917
362.767	16.868	833.658	627.449
363.781	17.096	833.055	627.784
364.796	17.053	832.995	627.526
365.810	16.956	832.680	626.872
366.825	17.084	831.886	626.694
367.840	17.069	831.207	626.072
368.854	16.999	830.867	625.500
369.869	17.090	830.367	625.406
370.883	17.006	830.019	624.777
371.898	17.125	829.709	624.928
372.913	17.148	829.284	624.635
373.927	17.127	828.698	624.062
374.942	16.969	828.456	623.245
375.956	17.301	827.776	623.896
376.971	17.283	827.702	623.718
377.986	17.343	826.817	623.217
379.000	17.263	826.657	622.750
380.015	17.363	826.151	622.678
381.029	17.322	825.456	621.950
382.044	17.376	824.808	621.602
383.059	17.147	824.432	620.427
384.073	17.290	823.669	620.322
385.088	17.386	822.989	620.102
386.102	17.355	822.569	619.620
387.117	17.339	822.020	619.093
388.132	17.196	821.583	618.187
389.146	17.344	821.089	618.300
390.161	17.406	820.488	618.017
391.175	17.382	820.082	617.569
392.190	17.323	819.650	616.978
393.205	17.403	818.906	616.653
394.219	17.483	818.673	616.710
395.234	17.351	818.441	616.006
396.248	17.225	817.971	615.140
397.263	17.251	817.390	614.742
398.278	17.251	817.313	614.630
399.292	17.292	816.649	614.225
400.307	17.245	816.150	613.626
401.321	17.336	815.427	613.357
402.336	17.402	815.065	613.268
403.350	17.413	814.530	612.851
404.365	17.452	814.433	612.862
405.380	17.522	814.166	612.858
406.394	17.625	813.126	612.393
407.409	17.662	812.925	612.319
408.423	17.592	812.467	611.668
409.438	17.688	812.262	611.805
410.453	17.630	811.967	611.320
411.467	17.770	811.086	611.106
412.482	17.807	810.788	610.960
413.496	17.851	810.323	610.711
414.511	17.899	810.210	610.747
415.526	17.894	809.592	610.208
416.540	17.896	809.079	609.773
417.555	17.847	808.861	609.381
418.569	17.959	808.046	609.112
419.584	17.822	807.943	608.490
420.599	17.778	807.406	607.878
421.613	111.449	1294.248	1476.103
422.628	96.226	1365.137	1476.196
