DTS Sentinel unit serial number:	SN413079Multiplexer serial number:	ORYXHardware model number:	OX4-SRSoftware version number:	ORYX F/W v4.00 Oryx Data Collector v3.7.2.0data status	okinstallation	princeton_trtdifferential loss correction	single-endedforward channel	channel 1reverse channel	N/Adate	2019/09/14time	10:38:35forward acquisition time	60.00reverse acquisition time	0.00gamma	496.2192k internal	0.2303k external	0.2303temperature offset calibration	1.0074default loss term (dB/km)	0.3790temperature slope calibration	1.0000multiplexer offset coefficient	1.0000multiplexer slope coefficient	1.0000fibre end	0.00T internal ref (°C)	35.17T ext. ref 1 (°C)	4.24T ext. ref 2 (°C)	33.11length (m)	temperature (°C)	Stokes	anti-Stokes-747.200	552.726	-0.092	0.224
-746.185	397.071	0.109	0.232
-745.171	-200.000	0.012	0.180
-744.156	-200.000	0.027	0.352
-743.142	116.197	-0.054	0.068
-742.127	800.000	-0.020	0.057
-741.112	171.945	-0.097	-0.143
-740.098	-200.000	-0.057	0.272
-739.083	29.987	-0.079	-0.068
-738.069	229.992	-0.088	-0.146
-737.054	-102.068	-0.117	0.029
-736.039	-200.000	0.037	-0.305
-735.025	-98.490	-0.149	-0.039
-734.010	-200.000	0.006	0.051
-732.996	167.083	0.138	-0.200
-731.981	800.000	0.078	0.261
-730.966	25.321	-0.241	-0.204
-729.952	-122.785	0.263	0.043
-728.937	-200.000	0.025	-0.185
-727.923	-31.112	-0.200	0.115
-726.908	10.872	-0.304	0.236
-725.894	-136.393	-0.120	-0.014
-724.879	-90.821	-0.322	-0.094
-723.864	52.204	-0.135	0.131
-722.850	256.669	0.193	-0.337
-721.835	72.536	-0.182	0.193
-720.821	-200.000	-0.012	0.082
-719.806	-143.778	-0.149	0.014
-718.791	116.551	-0.162	-0.203
-717.777	64.182	-0.241	-0.247
-716.762	338.423	0.079	-0.157
-715.748	740.983	0.067	-0.183
-714.733	2.794	0.177	0.131
-713.718	-124.907	0.240	-0.038
-712.704	320.541	-0.079	0.153
-711.689	-190.301	0.181	-0.002
-710.675	20.489	0.171	0.141
-709.660	62.228	0.309	-0.314
-708.645	-200.000	0.022	-0.200
-707.631	411.132	0.081	0.175
-706.616	356.970	-0.159	0.323
-705.602	36.317	0.230	0.206
-704.587	800.000	0.036	0.130
-703.572	-83.110	-0.465	0.152
-702.558	252.404	0.168	-0.291
-701.543	-44.029	0.103	-0.053
-700.529	26.218	-0.288	0.244
-699.514	62.557	0.198	-0.201
-698.499	-200.000	-0.004	-0.166
-697.485	-29.929	0.335	0.194
-696.470	-177.184	-0.062	-0.002
-695.456	-3.804	0.052	-0.036
-694.441	-200.000	0.258	-0.001
-693.426	800.000	-0.069	0.303
-692.412	-162.707	-0.130	0.006
-691.397	349.927	-0.073	-0.147
-690.383	-12.484	0.216	0.143
-689.368	-200.000	0.063	-0.300
-688.354	-27.762	-0.181	0.106
-687.339	40.917	-0.066	-0.060
-686.324	10.982	-0.127	0.099
-685.310	-124.725	-0.377	-0.059
-684.295	112.884	0.248	-0.306
-683.281	-79.957	-0.042	-0.014
-682.266	357.203	0.027	0.054
-681.251	800.000	0.093	-0.405
-680.237	-146.399	0.088	0.008
-679.222	-200.000	-0.072	-0.343
-678.208	-10.157	-0.220	0.148
-677.193	0.701	-0.360	-0.262
-676.178	181.213	0.124	-0.186
-675.164	-200.000	-0.037	-0.174
-674.149	800.000	-0.071	0.249
-673.135	45.815	0.128	-0.121
-672.120	-68.160	0.096	0.038
-671.105	230.865	-0.078	-0.130
-670.091	-200.000	0.000	0.042
-669.076	-106.762	-0.071	-0.016
-668.062	17.295	-0.223	0.180
-667.047	-200.000	-0.010	-0.103
-666.032	77.250	-0.269	-0.290
-665.018	-200.000	-0.200	-0.001
-664.003	-200.000	-0.046	-0.236
-662.989	343.434	0.165	-0.328
-661.974	406.884	-0.160	-0.343
-660.959	-168.061	-0.186	-0.007
-659.945	23.238	0.157	0.131
-658.930	13.155	-0.200	-0.157
-657.916	88.342	-0.208	-0.234
-656.901	-200.000	0.005	0.090
-655.886	-19.477	-0.254	-0.160
-654.872	414.593	0.139	-0.301
-653.857	800.000	-0.093	-0.263
-652.843	800.000	0.043	0.128
-651.828	-125.366	-0.189	-0.029
-650.814	164.723	-0.147	0.211
-649.799	-143.337	-0.134	0.013
-648.784	118.733	-0.131	0.165
-647.770	63.301	0.191	0.195
-646.755	148.852	-0.073	-0.101
-645.741	800.000	0.076	0.284
-644.726	-147.638	-0.457	-0.039
-643.711	208.905	0.052	0.083
-642.697	-30.766	-0.135	0.078
-641.682	-143.032	-0.399	0.039
-640.668	264.141	-0.215	0.379
-639.653	-200.000	0.254	-0.001
-638.638	-115.660	-0.537	0.102
-637.624	-200.000	-0.032	0.143
-636.609	800.000	0.073	-0.246
-635.595	-200.000	0.044	-0.244
-634.580	-200.000	-0.002	-0.096
-633.565	509.383	-0.140	-0.330
-632.551	-129.683	-0.230	0.032
-631.536	-111.284	0.365	-0.076
-630.522	-200.000	0.039	0.181
-629.507	800.000	-0.041	0.172
-628.492	-109.501	-0.192	0.041
-627.478	311.499	-0.041	0.077
-626.463	-200.000	0.034	-0.219
-625.449	-200.000	0.046	0.247
-624.434	-1.508	0.048	-0.034
-623.419	-81.387	0.231	0.077
-622.405	-200.000	0.014	0.188
-621.390	-120.195	-0.113	-0.020
-620.376	-50.965	-0.495	0.236
-619.361	-16.350	0.163	-0.105
-618.346	-194.444	0.153	0.001
-617.332	5.250	-0.293	-0.219
-616.317	-15.895	-0.288	-0.186
-615.303	132.339	0.196	-0.256
-614.288	213.902	-0.071	-0.114
-613.273	80.100	0.222	-0.242
-612.259	428.168	0.153	-0.336
-611.244	-16.863	-0.184	0.118
-610.230	758.593	-0.099	-0.272
-609.215	-124.536	-0.264	0.042
-608.201	-200.000	0.028	0.213
-607.186	-139.859	0.254	0.027
-606.171	227.418	0.123	0.203
-605.157	-200.000	-0.026	-0.184
-604.142	-87.960	-0.209	-0.064
-603.128	-200.000	-0.003	-0.086
-602.113	-191.523	-0.243	-0.002
-601.098	162.940	-0.063	0.090
-600.084	-149.094	-0.107	0.009
-599.069	155.752	0.151	0.210
-598.055	-200.000	0.028	0.225
-597.040	37.619	-0.042	0.038
-596.025	-200.000	0.004	-0.021
-595.011	800.000	0.130	0.394
-593.996	-200.000	0.015	0.352
-592.982	800.000	0.040	-0.160
-591.967	461.648	0.164	-0.369
-590.952	616.902	0.069	-0.174
-589.938	-124.140	-0.115	-0.018
-588.923	311.702	-0.082	0.157
-587.909	-200.000	-0.044	-0.197
-586.894	477.324	0.157	-0.360
-585.879	-95.893	-0.148	-0.040
-584.865	-38.505	0.335	0.179
-583.850	10.399	-0.154	0.118
-582.836	-29.222	0.212	0.123
-581.821	309.796	0.053	-0.101
-580.806	800.000	0.043	0.169
-579.792	800.000	-0.064	-0.233
-578.777	-200.000	-0.018	-0.139
-577.763	-88.643	0.111	0.033
-576.748	69.807	0.050	0.052
-575.733	-64.103	0.334	-0.138
-574.719	-25.556	-0.125	-0.075
-573.704	10.866	0.267	0.206
-572.690	141.011	-0.167	-0.224
-571.675	-98.352	0.157	0.041
-570.661	-200.000	0.043	0.194
-569.646	-69.858	0.151	-0.058
-568.631	-116.057	0.190	0.036
-567.617	-27.131	-0.412	-0.243
-566.602	-61.064	-0.298	-0.127
-565.588	-2.772	0.128	0.091
-564.573	16.484	-0.102	-0.081
-563.558	-113.422	0.051	-0.010
-562.544	305.755	-0.197	0.371
-561.529	-122.934	0.028	-0.005
-560.515	-79.467	0.287	-0.098
-559.500	-36.432	-0.046	0.025
-558.485	48.954	-0.140	-0.133
-557.471	-111.159	0.209	0.043
-556.456	-200.000	0.020	0.233
-555.442	-56.057	0.088	0.039
-554.427	800.000	-0.072	0.266
-553.412	-200.000	-0.013	-0.149
-552.398	-200.000	0.020	-0.124
-551.383	43.139	0.149	-0.137
-550.369	-111.175	-0.413	0.086
-549.354	-75.165	0.108	0.039
-548.339	29.439	0.128	-0.110
-547.325	800.000	-0.083	-0.290
-546.310	-18.454	0.122	0.077
-545.296	-200.000	0.014	0.190
-544.281	-56.967	0.164	0.073
-543.266	-20.991	0.292	-0.181
-542.252	65.297	0.218	0.223
-541.237	-40.745	-0.336	0.176
-540.223	-200.000	-0.019	-0.159
-539.208	-143.565	-0.188	-0.018
-538.193	28.994	-0.097	0.083
-537.179	439.369	0.101	0.223
-536.164	800.000	0.070	-0.259
-535.150	-3.748	0.238	0.167
-534.135	-43.535	-0.095	-0.049
-533.121	-91.260	0.205	-0.059
-532.106	-107.117	0.330	-0.074
-531.091	198.289	-0.027	0.042
-530.077	22.987	-0.143	0.118
-529.062	800.000	-0.037	0.117
-528.048	-87.567	-0.263	0.080
-527.033	-77.123	-0.158	0.056
-526.018	-138.293	0.212	0.024
-525.004	-200.000	-0.009	0.043
-523.989	554.899	-0.060	-0.145
-522.975	-107.479	-0.133	-0.030
-521.960	8.157	0.096	-0.073
-520.945	-62.314	0.067	-0.028
-519.931	54.874	-0.193	0.188
-518.916	-135.343	-0.151	0.018
-517.902	-191.742	0.245	0.002
-516.887	-200.000	-0.046	-0.331
-515.872	800.000	-0.036	-0.151
-514.858	-23.571	0.221	-0.134
-513.843	32.694	-0.265	0.231
-512.829	-200.000	0.059	-0.405
-511.814	241.930	0.125	0.212
-510.799	-62.904	0.521	-0.217
-509.785	-113.080	-0.033	0.007
-508.770	800.000	-0.187	-0.662
-507.756	-61.754	0.295	0.125
-506.741	27.023	0.266	-0.225
-505.726	-133.243	0.242	0.031
-504.712	-12.860	0.276	0.182
-503.697	-66.588	-0.114	0.046
-502.683	-200.000	0.016	0.218
-501.668	-78.285	0.312	-0.108
-500.653	270.991	-0.209	0.372
-499.639	-175.478	-0.705	0.019
-498.624	-102.277	-0.114	0.028
-497.610	214.889	0.074	0.119
-496.595	274.797	-0.037	-0.067
-495.581	130.324	0.042	-0.054
-494.566	-200.000	0.008	0.061
-493.551	-10.872	0.026	-0.018
-492.537	-69.274	0.119	-0.046
-491.522	800.000	0.075	0.220
-490.508	-94.710	-0.114	-0.031
-489.493	-104.974	-0.151	0.035
-488.478	-68.706	-0.058	0.023
-487.464	195.644	-0.032	0.049
-486.449	-107.484	0.260	-0.057
-485.435	33.987	-0.183	-0.161
-484.420	34.227	0.204	0.179
-483.405	-200.000	0.027	0.162
-482.391	-200.000	0.014	-0.138
-481.376	72.614	0.076	-0.080
-480.362	-35.119	-0.169	-0.093
-479.347	660.353	-0.078	-0.203
-478.332	-200.000	0.002	0.036
-477.318	-200.000	-0.001	0.092
-476.303	-36.844	0.371	0.201
-475.289	44.380	-0.253	0.235
-474.274	-200.000	0.008	0.066
-473.259	-28.734	0.120	-0.070
-472.245	-200.000	-0.004	-0.213
-471.230	-200.000	-0.020	0.143
-470.216	-69.504	-0.266	0.103
-469.201	12.783	0.178	-0.139
-468.186	-85.417	0.310	-0.097
-467.172	232.783	0.120	0.199
-466.157	-80.850	0.174	-0.058
-465.143	532.056	0.092	0.219
-464.128	415.037	-0.099	0.213
-463.113	-104.831	0.217	0.050
-462.099	54.352	0.183	0.177
-461.084	-21.793	-0.199	0.122
-460.070	-200.000	-0.011	-0.158
-459.055	-158.310	-0.110	-0.006
-458.040	36.885	-0.076	0.068
-457.026	256.574	0.113	0.195
-456.011	395.875	-0.105	-0.221
-454.997	-69.764	-0.326	-0.125
-453.982	89.011	0.194	0.218
-452.968	788.027	-0.068	-0.187
-451.953	214.256	-0.112	-0.178
-450.938	-200.000	-0.024	-0.184
-449.924	-35.018	-0.357	0.196
-448.909	296.008	-0.122	0.225
-447.895	-126.887	0.164	-0.024
-446.880	314.088	0.334	-0.633
-445.865	-200.000	0.001	-0.493
-444.851	-80.449	-0.233	-0.078
-443.836	-200.000	-0.007	-0.042
-442.822	-77.551	-0.133	0.047
-441.807	121.043	-0.197	0.247
-440.792	-100.876	0.161	-0.040
-439.778	208.328	0.033	0.052
-438.763	-66.606	0.215	-0.086
-437.749	131.351	-0.131	0.169
-436.734	-120.133	-0.187	-0.032
-435.719	500.147	-0.051	-0.117
-434.705	-200.000	-0.074	0.346
-433.690	41.880	-0.114	0.104
-432.676	159.072	0.295	-0.412
-431.661	200.592	0.278	0.430
-430.646	789.645	-0.117	0.325
-429.632	155.983	-0.273	-0.378
-428.617	-54.165	0.331	0.151
-427.603	494.546	0.184	0.425
-426.588	56.552	-0.103	-0.100
-425.573	88.966	-0.179	0.200
-424.559	-35.193	-0.237	-0.130
-423.544	-54.930	-0.170	0.077
-422.530	-193.007	-0.189	0.002
-421.515	800.000	-0.027	0.110
-420.500	-200.000	0.000	0.220
-419.486	800.000	0.037	0.116
-418.471	21.577	0.229	0.187
-417.457	-90.924	-0.259	0.075
-416.442	1.860	-0.086	-0.063
-415.428	-107.101	0.288	0.064
-414.413	-37.548	-0.171	0.092
-413.398	800.000	0.038	0.139
-412.384	-90.373	0.246	-0.072
-411.369	55.645	0.232	-0.226
-410.355	800.000	-0.091	-0.332
-409.340	-114.263	-0.158	0.031
-408.325	376.453	-0.060	0.123
-407.311	396.817	0.133	-0.279
-406.296	-163.732	-0.231	-0.011
-405.282	-200.000	-0.011	-0.229
-404.267	142.409	-0.150	-0.201
-403.252	139.723	-0.105	0.139
-402.238	-182.837	-0.250	0.005
-401.223	-89.660	-0.286	0.084
-400.209	800.000	0.020	0.062
-399.194	405.279	-0.099	0.209
-398.179	-197.244	-0.127	0.001
-397.165	-134.140	0.247	0.031
-396.150	20.383	-0.097	0.079
-395.136	-127.761	0.226	-0.033
-394.121	-84.418	0.228	0.073
-393.106	-73.124	0.294	0.108
-392.092	210.663	0.058	0.091
-391.077	-200.000	-0.020	-0.154
-390.063	243.250	-0.075	0.127
-389.048	-17.361	-0.308	-0.195
-388.033	-167.516	-0.194	0.008
-387.019	800.000	-0.068	0.193
-386.004	-84.238	0.133	-0.042
-384.990	-149.859	0.305	-0.024
-383.975	193.226	-0.073	-0.111
-382.960	-200.000	0.016	-0.124
-381.946	-100.945	0.254	-0.063
-380.931	-200.000	0.002	0.061
-379.917	765.205	0.141	-0.386
-378.902	-91.877	0.313	0.089
-377.888	-68.603	0.146	-0.057
-376.873	243.580	-0.005	0.008
-375.858	-200.000	0.005	-0.165
-374.844	-154.508	0.378	-0.025
-373.829	-200.000	0.002	0.103
-372.815	202.714	0.066	0.102
-371.800	-200.000	-0.041	0.348
-370.785	-142.790	-0.075	0.007
-369.771	55.925	-0.060	-0.059
-368.756	-63.330	0.271	0.112
-367.742	800.000	-0.076	0.230
-366.727	52.988	-0.123	0.118
-365.712	-200.000	-0.016	-0.240
-364.698	-98.383	0.299	-0.077
-363.683	-26.267	0.260	0.153
-362.669	32.588	-0.084	-0.073
-361.654	-200.000	-0.076	-0.352
-360.639	213.662	-0.119	-0.189
-359.625	-73.849	-0.266	-0.097
-358.610	-101.447	0.129	-0.031
-357.596	347.363	-0.080	-0.159
-356.581	532.395	0.072	0.170
-355.566	552.917	-0.150	-0.361
-354.552	800.000	-0.088	-0.311
-353.537	33.443	0.214	0.187
-352.523	68.045	-0.097	-0.100
-351.508	-200.000	-0.064	0.316
-350.493	7.012	-0.327	0.244
-349.479	-200.000	0.019	-0.091
-348.464	-200.000	-0.005	-0.196
-347.450	62.692	-0.216	-0.217
-346.435	166.920	-0.060	0.086
-345.420	-65.722	-0.214	0.086
-344.406	-18.090	-0.033	-0.020
-343.391	-74.596	0.167	0.060
-342.377	800.000	-0.070	-0.231
-341.362	754.239	0.066	-0.178
-340.348	56.135	-0.258	0.251
-339.333	401.726	0.075	0.158
-338.318	19.821	0.226	-0.182
-337.304	-200.000	0.017	0.249
-336.289	-26.770	0.151	-0.088
-335.275	33.185	-0.390	-0.339
-334.260	-200.000	-0.018	-0.148
-333.245	-200.000	-0.002	0.252
-332.231	-200.000	0.014	-0.088
-331.216	383.581	-0.094	0.194
-330.202	-106.687	-0.108	-0.024
-329.187	-200.000	-0.003	0.045
-328.172	648.359	-0.058	0.148
-327.158	-75.524	0.129	0.046
-326.143	-1.069	-0.291	-0.206
-325.129	-35.738	0.316	0.171
-324.114	-48.208	0.219	0.106
-323.099	-178.934	0.259	0.006
-322.085	167.551	0.042	-0.059
-321.070	120.901	0.225	-0.281
-320.056	-200.000	-0.022	0.120
-319.041	-95.734	0.223	0.060
-318.026	-151.729	0.229	0.017
-317.012	-31.819	-0.281	-0.158
-315.997	171.779	0.202	-0.291
-314.983	107.270	-0.164	-0.196
-313.968	800.000	-0.050	0.165
-312.953	-200.000	-0.005	0.189
-311.939	800.000	0.059	-0.234
-310.924	-200.000	0.031	-0.321
-309.910	-169.972	-0.160	-0.006
-308.895	-177.059	-0.122	-0.003
-307.880	196.947	-0.134	-0.204
-306.866	37.735	-0.190	0.169
-305.851	-48.368	0.280	-0.135
-304.837	-100.706	-0.196	0.049
-303.822	800.000	-0.065	0.279
-302.807	-91.496	-0.028	0.008
-301.793	497.744	-0.092	0.211
-300.778	-93.598	0.272	-0.075
-299.764	-146.154	0.082	0.007
-298.749	-36.517	-0.252	0.136
-297.735	380.079	0.127	0.260
-296.720	-131.326	-0.143	0.019
-295.705	206.438	0.158	0.247
-294.691	430.908	0.077	-0.167
-293.676	-97.681	0.169	0.044
-292.662	8.675	0.274	-0.206
-291.647	399.091	-0.074	0.156
-290.632	-57.633	0.072	-0.032
-289.618	225.124	0.090	0.147
-288.603	87.490	-0.159	-0.176
-287.589	-24.355	-0.330	0.197
-286.574	110.030	0.098	0.118
-285.559	-130.355	-0.142	0.019
-284.545	25.369	-0.105	-0.087
-283.530	-200.000	-0.054	-0.393
-282.516	-20.529	0.087	0.054
-281.501	-200.000	-0.014	-0.168
-280.486	94.877	0.137	-0.156
-279.472	-21.110	-0.096	-0.058
-278.457	800.000	0.061	-0.232
-277.443	627.812	-0.170	-0.429
-276.428	-147.962	0.163	0.014
-275.413	483.050	-0.052	0.119
-274.399	451.403	0.045	-0.098
-273.384	76.564	0.087	0.092
-272.370	-200.000	-0.027	0.146
-271.355	800.000	-0.053	0.169
-270.340	92.430	-0.271	0.306
-269.326	6.884	0.111	-0.083
-268.311	-54.778	-0.194	-0.087
-267.297	131.130	0.333	-0.428
-266.282	-158.814	0.225	0.013
-265.267	84.969	0.145	-0.159
-264.253	-44.622	0.142	0.071
-263.238	-147.540	-0.526	0.044
-262.224	-200.000	0.035	0.341
-261.209	6.726	-0.096	0.072
-260.195	-39.337	-0.232	0.122
-259.180	-73.682	0.293	0.107
-258.165	514.435	-0.035	-0.083
-257.151	379.117	0.038	-0.077
-256.136	800.000	-0.128	0.470
-255.122	82.108	0.083	-0.090
-254.107	57.726	0.371	0.363
-253.092	800.000	-0.058	0.186
-252.078	800.000	0.036	-0.132
-251.063	-83.645	-0.155	0.049
-250.049	796.097	0.037	-0.103
-249.034	-80.222	-0.307	-0.103
-248.019	-125.421	0.352	0.054
-247.005	800.000	0.097	0.345
-245.990	-105.452	0.321	0.073
-244.976	-200.000	-0.016	-0.249
-243.961	-158.689	0.058	0.003
-242.946	71.857	0.063	0.065
-241.932	-200.000	0.025	0.137
-240.917	800.000	0.008	0.024
-239.903	-38.180	0.221	0.117
-238.888	-116.659	0.120	0.022
-237.873	486.854	0.058	-0.131
-236.859	120.233	0.078	0.097
-235.844	-200.000	-0.000	0.077
-234.830	-87.786	0.146	0.044
-233.815	559.923	-0.114	-0.274
-232.800	-69.407	-0.162	-0.062
-231.786	12.803	-0.283	-0.219
-230.771	581.954	-0.081	0.199
-229.757	800.000	0.047	-0.154
-228.742	54.329	0.167	-0.160
-227.727	800.000	0.021	-0.083
-226.713	316.481	0.119	0.224
-225.698	-105.997	-0.096	-0.021
-224.684	740.367	0.114	-0.306
-223.669	-143.967	-0.048	-0.005
-222.655	2.453	0.182	-0.132
-221.640	-200.000	-0.008	0.125
-220.625	-92.223	0.372	0.105
-219.611	-200.000	-0.005	-0.025
-218.596	-90.729	0.170	-0.049
-217.582	336.855	-0.200	-0.389
-216.567	-55.130	-0.111	0.050
-215.552	688.800	0.155	0.403
-214.538	569.731	0.045	0.110
-213.523	-47.052	-0.086	-0.042
-212.509	19.256	-0.257	0.206
-211.494	101.224	-0.053	-0.061
-210.479	-4.207	0.343	0.237
-209.465	120.425	0.052	0.064
-208.450	448.569	-0.030	-0.067
-207.436	163.794	0.114	-0.160
-206.421	614.325	-0.126	0.315
-205.406	4.399	-0.019	-0.014
-204.392	-28.795	0.224	0.128
-203.377	-37.023	-0.127	0.068
-202.363	59.830	-0.063	-0.062
-201.348	-123.648	-0.087	-0.014
-200.333	-200.000	0.053	0.237
-199.319	307.555	0.215	0.399
-198.304	148.333	-0.049	0.065
-197.290	-200.000	0.030	0.447
-196.275	551.382	-0.024	-0.057
-195.260	-200.000	0.010	0.191
-194.246	371.988	0.114	-0.230
-193.231	48.808	0.247	-0.231
-192.217	800.000	-0.042	-0.117
-191.202	-30.113	-0.031	0.017
-190.187	-26.619	-0.108	0.063
-189.173	-74.822	-0.027	0.010
-188.158	-64.640	0.262	0.106
-187.144	-174.243	0.182	0.005
-186.129	-200.000	-0.001	-0.469
-185.114	383.518	-0.070	-0.144
-184.100	-0.366	0.080	0.057
-183.085	-56.223	-0.097	0.043
-182.071	531.007	0.052	0.122
-181.056	800.000	-0.007	-0.029
-180.042	210.303	-0.100	0.156
-179.027	53.532	-0.299	-0.286
-178.012	-179.038	-0.341	0.008
-176.998	-133.454	0.053	-0.007
-175.983	361.528	-0.116	0.232
-174.969	-26.800	-0.163	0.095
-173.954	-70.907	-0.138	0.052
-172.939	800.000	-0.195	-0.544
-171.925	499.025	-0.063	-0.145
-170.910	-82.530	-0.306	0.099
-169.896	-0.361	-0.076	0.054
-168.881	-135.775	0.368	0.043
-167.866	-80.380	0.297	-0.099
-166.852	154.047	-0.179	-0.244
-165.837	800.000	-0.051	-0.195
-164.823	-39.898	-0.242	-0.126
-163.808	-200.000	-0.063	0.354
-162.793	-148.324	0.311	-0.025
-161.779	-23.682	-0.141	-0.084
-160.764	-1.192	-0.285	-0.201
-159.750	286.410	-0.128	-0.230
-158.735	800.000	0.115	-0.356
-157.720	94.625	-0.296	0.335
-156.706	-189.444	-0.301	-0.003
-155.691	323.249	0.018	-0.034
-154.677	-86.040	-0.172	-0.053
-153.662	-105.507	-0.148	-0.034
-152.647	-130.027	0.193	-0.026
-151.633	390.836	0.128	-0.265
-150.618	-200.000	0.009	0.091
-149.604	-10.850	0.197	0.129
-148.589	-200.000	-0.044	0.355
-147.574	-91.928	0.209	-0.059
-146.560	-45.036	0.187	0.093
-145.545	-200.000	0.045	0.217
-144.531	70.429	-0.017	0.018
-143.516	712.557	0.045	-0.119
-142.502	-83.647	-0.371	-0.118
-141.487	-182.453	0.289	-0.005
-140.472	90.583	-0.106	-0.118
-139.458	-48.854	-0.261	0.125
-138.443	-118.908	0.272	0.047
-137.429	800.000	0.029	-0.121
-136.414	-85.482	-0.148	-0.046
-135.399	102.712	-0.080	-0.093
-134.385	-118.553	-0.092	0.016
-133.370	-200.000	-0.002	-0.505
-132.356	8.729	0.116	-0.087
-131.341	800.000	0.032	0.129
-130.326	-96.933	0.179	0.047
-129.312	-200.000	0.001	0.119
-128.297	-130.564	-0.140	0.019
-127.283	-172.315	-0.138	-0.004
-126.268	-200.000	0.012	0.199
-125.253	-51.558	-0.145	-0.067
-124.239	-200.000	-0.003	-0.179
-123.224	137.239	-0.172	-0.224
-122.210	174.554	-0.084	0.120
-121.195	-51.872	0.322	0.149
-120.180	800.000	-0.033	0.119
-119.166	-26.771	0.275	0.160
-118.151	-200.000	0.005	-0.029
-117.137	140.943	-0.135	0.177
-116.122	-200.000	-0.037	0.173
-115.107	76.217	-0.185	0.195
-114.093	-94.711	0.309	0.083
-113.078	363.957	-0.094	0.188
-112.064	-55.190	-0.160	-0.071
-111.049	110.127	-0.233	0.278
-110.034	-24.178	0.132	0.078
-109.020	47.652	0.079	0.073
-108.005	-46.252	0.237	-0.116
-106.991	800.000	0.014	-0.040
-105.976	208.286	0.107	0.165
-104.962	-132.668	-0.217	-0.028
-103.947	616.019	0.073	0.183
-102.932	-28.955	-0.219	0.125
-101.918	39.606	0.066	0.059
-100.903	55.603	0.265	-0.255
-99.889	-200.000	0.013	-0.063
-98.874	-73.676	-0.261	-0.094
-97.859	1.900	0.128	-0.092
-96.845	-114.583	0.231	-0.044
-95.830	74.746	0.064	0.067
-94.816	-107.517	-0.169	-0.037
-93.801	384.369	-0.142	0.291
-92.786	800.000	-0.077	0.269
-91.772	157.568	-0.271	0.372
-90.757	800.000	0.074	0.249
-89.743	-200.000	-0.032	-0.184
-88.728	345.904	-0.088	-0.173
-87.713	800.000	0.030	0.081
-86.699	-39.623	-0.157	0.082
-85.684	800.000	-0.073	0.273
-84.670	-35.028	0.203	0.110
-83.655	658.488	0.058	0.147
-82.640	92.179	0.323	0.361
-81.626	800.000	-0.050	0.138
-80.611	54.832	0.119	0.114
-79.597	-89.025	0.079	-0.023
-78.582	-13.811	0.241	0.155
-77.567	-200.000	-0.007	-0.146
-76.553	800.000	-0.093	0.308
-75.538	-141.757	0.150	0.015
-74.524	276.021	-0.063	-0.110
-73.509	-200.000	-0.012	0.126
-72.494	-80.646	0.124	0.041
-71.480	-52.616	0.295	0.135
-70.465	-32.400	-0.285	0.158
-69.451	-200.000	-0.027	-0.290
-68.436	-56.379	0.152	-0.067
-67.422	168.382	-0.157	-0.221
-66.407	236.911	0.107	-0.176
-65.392	630.422	-0.098	-0.245
-64.378	160.131	0.136	-0.188
-63.363	-200.000	-0.100	0.477
-62.349	11.008	-0.156	0.119
-61.334	68.351	-0.854	-0.868
-60.319	1.858	0.240	0.172
-59.305	362.988	-0.469	-0.933
-58.290	90.215	0.823	0.913
-57.276	656.296	0.656	1.673
-56.261	-200.000	91.023	529.148
-55.246	577.967	1386.061	3362.030
-54.232	182.618	2621.375	3834.368
-53.217	118.426	2225.850	2723.517
-52.203	46.643	1667.034	1534.704
-51.188	38.638	1396.672	1235.539
-50.173	35.244	1353.615	1176.610
-49.159	55.010	1400.559	1341.256
-48.144	59.061	1418.670	1383.829
-47.130	38.916	1374.368	1217.335
-46.115	35.353	1356.546	1179.640
-45.100	35.121	1351.702	1173.957
-44.086	35.009	1349.128	1170.990
-43.071	35.019	1346.864	1169.042
-42.057	34.979	1344.711	1166.882
-41.042	34.991	1343.036	1165.458
-40.027	35.133	1340.891	1164.411
-39.013	35.033	1339.551	1162.594
-37.998	35.110	1337.379	1161.129
-36.984	35.163	1335.470	1159.745
-35.969	35.237	1333.437	1158.383
-34.954	35.260	1331.563	1156.848
-33.940	35.286	1330.329	1155.884
-32.925	35.370	1328.463	1154.728
-31.911	35.344	1327.408	1153.606
-30.896	35.323	1326.013	1152.221
-29.881	35.316	1324.294	1150.638
-28.867	35.330	1323.324	1149.833
-27.852	35.289	1321.689	1148.125
-26.838	35.321	1319.928	1146.741
-25.823	35.291	1318.701	1145.448
-24.809	35.375	1317.196	1144.598
-23.794	35.263	1316.024	1142.864
-22.779	35.169	1314.637	1141.054
-21.765	35.194	1313.578	1140.242
-20.750	35.219	1312.293	1139.229
-19.736	35.048	1311.147	1137.172
-18.721	35.106	1309.728	1136.241
-17.706	35.148	1308.475	1135.360
-16.692	35.138	1306.834	1133.828
-15.677	35.144	1305.678	1132.818
-14.663	35.234	1304.213	1132.035
-13.648	35.053	1303.714	1130.484
-12.633	35.077	1302.535	1129.564
-11.619	35.126	1301.387	1128.811
-10.604	35.095	1301.085	1128.318
-9.590	34.951	1300.094	1126.565
-8.575	35.016	1299.261	1126.184
-7.560	35.134	1298.021	1125.760
-6.546	34.897	1297.993	1124.295
-5.531	35.010	1296.567	1123.679
-4.517	35.065	1295.457	1122.993
-3.502	35.092	1294.315	1122.122
-2.487	35.099	1293.204	1121.152
-1.473	35.144	1289.530	1118.188
-0.458	34.363	1274.786	1100.849
0.556	31.719	1256.449	1063.682
1.571	27.983	1261.233	1046.296
2.586	26.695	1275.553	1050.620
3.600	24.973	1262.967	1030.263
4.615	18.367	1187.315	932.620
5.629	8.940	1107.360	821.643
6.644	4.412	1085.962	782.902
7.659	4.092	1082.918	779.030
8.673	4.273	1081.849	779.101
9.688	4.184	1080.820	777.842
10.702	4.459	1079.399	778.130
11.717	9.780	1087.918	811.013
12.731	18.466	1099.720	863.699
13.746	20.934	1101.510	877.470
14.761	19.786	1099.970	870.395
15.775	18.850	1097.477	863.638
16.790	17.737	1095.749	856.619
17.804	16.950	1094.207	851.384
18.819	16.725	1092.708	849.015
19.834	16.453	1092.090	847.100
20.848	16.308	1090.818	845.308
21.863	16.023	1090.484	843.553
22.877	15.842	1089.708	841.969
23.892	15.973	1088.976	841.986
24.907	15.843	1087.950	840.470
25.921	15.867	1087.125	839.875
26.936	15.979	1085.620	839.195
27.950	16.012	1084.393	838.340
28.965	16.116	1082.533	837.345
29.980	16.146	1081.435	836.571
30.994	16.402	1079.564	836.315
32.009	16.208	1079.292	835.072
33.023	16.290	1077.807	834.250
34.038	16.244	1076.794	833.168
35.053	16.142	1075.889	831.888
36.067	15.956	1075.398	830.519
37.082	16.124	1074.157	830.314
38.096	16.216	1073.499	830.184
39.111	16.146	1072.762	829.197
40.126	16.032	1071.681	827.730
41.140	15.990	1069.741	825.950
42.155	15.790	1069.224	824.501
43.169	15.790	1067.657	823.216
44.184	15.897	1066.733	822.954
45.199	15.707	1065.967	821.362
46.213	15.889	1064.429	820.994
47.228	15.982	1063.370	820.557
48.242	15.973	1062.574	819.827
49.257	15.887	1061.646	818.620
50.271	16.043	1060.536	818.451
51.286	16.148	1059.928	818.417
52.301	15.969	1059.425	817.087
53.315	16.017	1057.910	816.083
54.330	15.805	1056.717	814.060
55.344	15.787	1056.085	813.415
56.359	15.861	1055.216	813.033
57.374	16.062	1053.571	812.663
58.388	15.817	1052.839	810.844
59.403	15.676	1052.489	809.826
60.417	15.778	1051.447	809.444
61.432	15.686	1050.987	808.575
62.447	15.715	1050.143	807.992
63.461	15.676	1048.968	806.832
64.476	15.648	1047.957	805.847
65.490	15.609	1047.268	805.061
66.505	15.740	1046.262	804.840
67.520	15.690	1046.085	804.396
68.534	15.702	1045.176	803.681
69.549	15.757	1044.330	803.223
70.563	15.645	1043.676	802.115
71.578	15.577	1042.636	800.921
72.593	15.629	1041.594	800.294
73.607	15.515	1041.240	799.411
74.622	15.526	1040.644	798.933
75.636	15.564	1039.922	798.491
76.651	15.751	1039.122	798.693
77.666	15.755	1038.787	798.384
78.680	15.653	1037.657	796.962
79.695	15.658	1037.169	796.540
80.709	15.669	1036.414	795.941
81.724	15.841	1035.780	796.197
82.739	15.881	1035.318	795.959
83.753	15.906	1034.426	795.325
84.768	16.028	1033.876	795.407
85.782	16.257	1032.692	795.504
86.797	16.147	1032.087	794.448
87.812	15.958	1031.224	792.824
88.826	16.021	1030.007	792.117
89.841	16.162	1028.928	791.876
90.855	16.156	1028.134	791.168
91.870	16.172	1027.376	790.592
92.884	16.128	1026.052	789.294
93.899	16.126	1025.342	788.672
94.914	16.366	1024.381	788.981
95.928	16.254	1024.130	788.197
96.943	16.157	1022.803	786.653
97.957	16.056	1021.978	785.478
98.972	16.182	1020.993	785.240
99.987	16.171	1020.205	784.513
101.001	16.209	1018.888	783.608
102.016	16.198	1018.114	782.892
103.030	16.146	1017.685	782.252
104.045	16.090	1016.897	781.315
105.060	16.048	1015.800	780.210
106.074	16.008	1014.697	779.110
107.089	15.783	1013.521	777.097
108.103	15.803	1012.638	776.444
109.118	15.831	1011.923	775.957
110.133	15.818	1010.770	774.942
111.147	15.727	1010.270	774.072
112.162	15.810	1009.269	773.616
113.176	15.922	1008.718	773.640
114.191	15.950	1008.237	773.335
115.206	15.945	1007.020	772.310
116.220	15.791	1006.328	771.002
117.235	15.904	1005.282	770.652
118.249	15.866	1004.320	769.673
119.264	15.902	1003.234	768.937
120.279	15.803	1002.404	767.780
121.293	15.641	1002.017	766.676
122.308	15.796	1000.827	766.403
123.322	15.627	1000.291	765.157
124.337	15.657	998.972	764.216
125.352	15.747	997.885	763.725
126.366	15.659	996.966	762.556
127.381	15.658	996.122	761.840
128.395	15.727	995.033	761.252
129.410	15.826	994.301	761.069
130.424	15.802	993.187	760.041
131.439	16.149	992.328	760.886
132.454	16.014	991.800	759.805
133.468	15.835	991.357	758.589
134.483	16.033	989.903	758.301
135.497	15.952	989.335	757.437
136.512	15.991	988.258	756.717
137.527	16.100	987.224	756.347
138.541	15.953	986.749	755.261
139.556	16.049	986.097	755.124
140.570	16.124	985.708	755.096
141.585	16.201	984.901	754.752
142.600	16.339	983.159	753.970
143.614	16.225	982.813	753.125
144.629	16.223	982.272	752.638
145.643	16.306	981.130	752.066
146.658	16.009	980.518	750.207
147.673	16.134	979.272	749.744
148.687	16.023	978.394	748.513
149.702	16.050	977.401	747.807
150.716	15.986	976.706	746.926
151.731	15.942	975.859	746.016
152.746	15.936	975.193	745.411
153.760	15.991	974.704	745.216
154.775	16.229	974.410	745.978
155.789	16.304	973.079	745.226
156.804	16.165	972.623	744.196
157.819	16.266	972.187	744.242
158.833	16.257	971.298	743.456
159.848	16.425	970.820	743.764
160.862	16.322	969.599	742.311
161.877	16.332	968.427	741.393
162.892	16.238	967.296	740.047
163.906	15.996	966.269	738.139
164.921	16.081	965.497	737.854
165.935	16.151	964.829	737.586
166.950	16.160	964.208	737.085
167.964	16.115	962.893	735.816
168.979	16.110	962.272	735.257
169.994	16.043	961.464	734.281
171.008	16.221	960.573	734.311
172.023	16.432	959.763	734.544
173.037	16.350	959.417	733.857
174.052	16.332	958.648	733.126
175.067	16.149	957.936	731.724
176.081	16.128	957.190	730.998
177.096	16.160	956.232	730.341
178.110	16.127	956.197	730.103
179.125	16.247	955.436	729.979
180.140	16.331	954.856	729.835
181.154	16.192	954.795	729.120
182.169	16.354	954.245	729.335
183.183	16.475	952.962	728.812
184.198	16.443	952.586	728.325
185.213	16.484	951.665	727.730
186.227	16.415	951.383	727.153
187.242	16.601	950.298	727.060
188.256	16.706	949.784	727.054
189.271	16.568	949.497	726.179
190.286	16.314	948.237	724.060
191.300	16.138	947.474	722.661
192.315	16.084	946.414	721.556
193.329	16.101	946.121	721.340
194.344	16.270	945.380	721.435
195.359	16.464	944.843	721.791
196.373	16.441	944.064	721.031
197.388	16.520	943.928	721.200
198.402	16.682	943.451	721.464
199.417	16.645	942.445	720.472
200.432	16.823	942.461	721.180
201.446	16.713	941.939	720.249
202.461	16.938	941.445	720.765
203.475	16.852	940.450	719.574
204.490	16.672	939.643	718.128
205.504	16.641	938.818	717.302
206.519	16.643	938.128	716.718
207.534	16.637	937.272	715.978
208.548	16.693	936.772	715.771
209.563	16.716	935.930	715.160
210.577	16.801	935.583	715.189
211.592	16.791	935.211	714.798
212.607	16.906	934.105	714.376
213.621	16.882	933.195	713.517
214.636	16.902	932.341	712.885
215.650	16.782	931.930	712.000
216.665	16.969	931.084	712.077
217.680	16.988	930.606	711.727
218.694	17.041	930.305	711.659
219.709	17.064	929.537	711.103
220.723	16.950	928.645	709.883
221.738	16.994	928.204	709.667
222.753	16.931	927.403	708.728
223.767	17.110	926.786	708.939
224.782	17.129	926.477	708.723
225.796	17.094	926.103	708.226
226.811	17.113	925.078	707.458
227.826	16.962	924.471	706.304
228.840	16.945	923.426	705.372
229.855	17.115	922.530	705.333
230.869	16.938	921.880	704.037
231.884	16.973	921.037	703.478
232.899	16.879	920.730	702.790
233.913	16.957	919.571	702.164
234.928	16.996	919.141	701.937
235.942	16.905	918.523	701.028
236.957	16.775	918.091	700.096
237.972	17.020	917.117	700.304
238.986	17.091	916.382	699.974
240.001	16.880	915.691	698.513
241.015	16.941	915.691	698.703
242.030	16.984	914.809	698.147
243.045	17.072	914.260	698.029
244.059	17.088	913.394	697.369
245.074	17.156	912.547	696.941
246.088	17.322	912.163	697.267
247.103	17.286	912.088	696.999
248.117	17.350	911.400	696.675
249.132	17.483	910.840	696.730
250.147	17.727	910.046	697.057
251.161	17.701	909.294	696.313
252.176	17.663	908.843	695.752
253.190	17.746	908.281	695.599
254.205	17.698	907.772	694.953
255.220	17.639	906.978	694.043
256.234	17.727	906.519	693.989
257.249	17.684	905.770	693.176
258.263	17.670	904.659	692.210
259.278	17.681	904.064	691.739
260.293	17.929	903.298	692.095
261.307	17.795	902.853	691.150
262.322	17.901	902.487	691.238
263.336	17.878	901.727	690.502
264.351	17.967	900.876	690.148
265.366	17.853	900.363	689.235
266.380	17.923	899.469	688.771
267.395	17.925	898.961	688.328
268.409	17.814	897.893	687.005
269.424	17.949	897.316	687.047
270.439	17.703	896.803	685.604
271.453	17.641	895.938	684.631
272.468	17.675	895.533	684.399
273.482	17.753	895.119	684.335
274.497	17.701	894.445	683.548
275.512	17.859	893.818	683.641
276.526	17.806	893.388	683.040
277.541	17.768	892.811	682.389
278.555	17.827	892.403	682.251
279.570	18.107	891.567	682.670
280.585	18.064	890.873	681.909
281.599	17.832	889.844	680.136
282.614	17.826	889.021	679.421
283.628	18.037	888.459	679.769
284.643	17.850	887.928	678.560
285.657	17.955	887.646	678.703
286.672	17.945	886.924	678.052
287.687	17.957	885.978	677.317
288.701	17.996	885.606	677.123
289.716	17.952	884.758	676.244
290.730	17.963	884.459	675.997
291.745	18.060	883.843	675.853
292.760	18.096	883.135	675.391
293.774	18.250	882.613	675.540
294.789	18.186	882.025	674.779
295.803	17.995	881.340	673.442
296.818	18.059	880.623	673.087
297.833	18.085	880.053	672.695
298.847	18.102	879.504	672.280
299.862	18.242	878.629	672.105
300.876	18.207	878.272	671.634
301.891	18.373	877.651	671.750
302.906	18.306	877.430	671.259
303.920	18.419	877.049	671.349
304.935	18.562	876.098	671.124
305.949	18.457	875.465	670.168
306.964	18.368	874.735	669.201
307.979	18.367	874.212	668.740
308.993	18.459	873.525	668.514
310.008	18.508	872.872	668.146
311.022	18.452	872.599	667.661
312.037	18.404	871.426	666.518
313.052	18.313	871.202	665.932
314.066	18.162	870.410	664.679
315.081	18.189	869.820	664.278
316.095	18.249	869.197	663.974
317.110	18.216	868.722	663.426
318.125	18.207	868.650	663.276
319.139	18.237	867.824	662.702
320.154	18.215	867.760	662.512
321.168	18.256	866.636	661.752
322.183	18.353	866.537	661.992
323.197	18.482	865.526	661.661
324.212	18.450	864.944	661.032
325.227	18.228	864.520	659.796
326.241	18.469	863.461	659.857
327.256	18.251	863.295	658.832
328.270	18.287	863.004	658.690
329.285	18.304	862.687	658.456
330.300	18.418	861.374	657.834
331.314	18.316	860.878	657.004
332.329	18.439	860.711	657.292
333.343	18.531	860.507	657.427
334.358	18.594	859.705	656.998
335.373	18.575	859.647	656.826
336.387	18.647	859.179	656.683
337.402	18.682	858.818	656.482
338.416	18.661	858.522	656.120
339.431	18.830	858.318	656.551
340.446	18.823	857.942	656.179
341.460	18.931	857.520	656.211
342.475	18.862	856.790	655.331
343.489	18.984	856.276	655.345
344.504	19.099	856.055	655.556
345.519	19.120	855.507	655.158
346.533	19.031	855.041	654.406
347.548	18.918	854.402	653.428
348.562	18.771	853.762	652.321
349.577	18.703	853.337	651.681
350.592	18.815	852.426	651.351
351.606	18.654	851.618	650.069
352.621	18.810	851.019	650.145
353.635	18.795	850.309	649.486
354.650	18.925	850.003	649.686
355.665	18.901	848.935	648.724
356.679	19.007	848.524	648.749
357.694	18.922	848.099	648.048
358.708	18.933	847.112	647.278
359.723	18.941	846.985	647.155
360.738	18.961	846.362	646.697
361.752	18.996	845.639	646.216
362.767	18.980	845.365	645.893
363.781	19.113	844.722	645.842
364.796	19.274	843.850	645.723
365.810	19.376	843.762	645.977
366.825	19.451	843.369	645.901
367.840	19.463	842.846	645.487
368.854	19.233	842.418	644.243
369.869	19.220	841.861	643.712
370.883	19.210	841.458	643.309
371.898	19.282	841.212	643.332
372.913	19.463	840.509	643.415
373.927	19.516	839.851	643.051
374.942	19.465	838.971	642.130
375.956	19.511	839.043	642.298
376.971	19.378	838.877	641.619
377.986	19.574	838.166	641.747
379.000	19.626	837.756	641.572
380.015	19.619	837.149	641.022
381.029	19.622	836.448	640.440
382.044	19.550	835.927	639.720
383.059	19.682	835.119	639.533
384.073	19.646	834.829	639.119
385.088	19.383	834.097	637.530
386.102	19.249	833.801	636.753
387.117	19.404	833.180	636.797
388.132	19.409	832.467	636.212
389.146	19.368	832.187	635.793
390.161	19.584	831.409	635.936
391.175	19.586	831.319	635.818
392.190	19.516	830.257	634.693
393.205	19.548	829.988	634.548
394.219	19.393	829.882	633.844
395.234	19.505	829.134	633.627
396.248	19.401	828.681	632.843
397.263	19.365	828.286	632.351
398.278	19.380	827.588	631.819
399.292	19.365	827.686	631.783
400.307	19.394	827.018	631.321
401.321	19.358	826.280	630.570
402.336	19.473	825.996	630.720
403.350	19.446	825.460	630.156
404.365	19.764	824.873	630.812
405.380	19.799	824.432	630.545
406.394	19.827	824.072	630.318
407.409	19.844	823.572	629.943
408.423	19.779	823.546	629.629
409.438	19.952	822.889	629.700
410.453	19.907	822.408	629.111
411.467	20.082	822.006	629.387
412.482	20.038	821.938	629.117
413.496	20.159	821.367	629.062
414.511	20.020	821.173	628.354
415.526	20.011	820.213	627.533
416.540	19.935	820.124	627.134
417.555	20.029	819.459	626.910
418.569	20.054	819.150	626.710
419.584	20.289	818.305	626.855
420.599	20.054	818.243	625.904
421.613	154.938	1370.666	1786.922
422.628	134.901	1451.163	1787.033
