DTS Sentinel unit serial number:	SN413079Multiplexer serial number:	ORYXHardware model number:	OX4-SRSoftware version number:	ORYX F/W v4.00 Oryx Data Collector v3.7.2.0data status	okinstallation	princeton_trtdifferential loss correction	single-endedforward channel	channel 1reverse channel	N/Adate	2019/09/14time	14:42:35forward acquisition time	60.00reverse acquisition time	0.00gamma	496.2192k internal	0.2293k external	0.2293temperature offset calibration	1.0069default loss term (dB/km)	0.3790temperature slope calibration	1.0000multiplexer offset coefficient	1.0000multiplexer slope coefficient	1.0000fibre end	0.00T internal ref (°C)	39.25T ext. ref 1 (°C)	4.95T ext. ref 2 (°C)	34.28length (m)	temperature (°C)	Stokes	anti-Stokes-747.200	-149.262	0.175	0.014
-746.185	38.325	-0.225	0.205
-745.171	800.000	-0.044	0.181
-744.156	-40.196	0.203	-0.108
-743.142	-175.616	0.251	-0.007
-742.127	-178.109	-0.079	-0.002
-741.112	800.000	-0.115	-0.445
-740.098	-200.000	0.037	-0.177
-739.083	-123.920	0.066	-0.011
-738.069	-87.389	-0.295	0.091
-737.054	-200.000	-0.006	-0.332
-736.039	-200.000	0.024	-0.163
-735.025	58.332	0.202	0.203
-734.010	32.121	-0.046	0.041
-732.996	84.810	0.056	0.062
-731.981	-118.012	-0.325	0.059
-730.966	29.768	0.161	0.140
-729.952	-200.000	-0.005	0.038
-728.937	-82.058	-0.051	-0.017
-727.923	-158.547	0.416	0.025
-726.908	-200.000	0.033	0.196
-725.894	225.072	-0.169	0.280
-724.879	-200.000	0.085	-0.451
-723.864	800.000	-0.077	0.233
-722.850	-200.000	0.005	0.131
-721.835	-158.182	-0.069	-0.004
-720.821	800.000	-0.016	0.068
-719.806	377.563	0.059	0.124
-718.791	167.767	0.021	0.030
-717.777	-74.768	-0.196	-0.072
-716.762	800.000	0.098	-0.280
-715.748	9.885	0.080	-0.062
-714.733	-50.883	0.014	-0.007
-713.718	423.989	-0.140	0.307
-712.704	-151.492	0.345	0.026
-711.689	-147.313	0.041	0.004
-710.675	260.013	-0.065	-0.115
-709.660	-200.000	-0.005	0.102
-708.645	-200.000	0.000	-0.162
-707.631	80.257	0.228	0.251
-706.616	-120.438	-0.426	0.074
-705.602	800.000	-0.134	-0.421
-704.587	32.055	-0.144	-0.127
-703.572	-73.885	0.249	0.092
-702.558	-200.000	-0.019	-0.093
-701.543	-200.000	-0.049	-0.271
-700.529	9.674	-0.328	-0.254
-699.514	42.713	0.072	0.067
-698.499	800.000	-0.039	-0.111
-697.485	146.362	-0.019	-0.026
-696.470	-11.962	-0.383	-0.256
-695.456	-111.736	0.189	0.039
-694.441	-83.592	-0.126	-0.041
-693.426	23.689	-0.130	0.109
-692.412	-14.706	0.352	0.231
-691.397	-200.000	0.014	-0.094
-690.383	-95.426	-0.166	-0.046
-689.368	20.875	-0.031	-0.026
-688.354	800.000	0.073	-0.283
-687.339	130.562	-0.011	0.014
-686.324	-121.539	-0.146	0.025
-685.310	53.465	-0.419	0.410
-684.295	571.369	0.113	-0.281
-683.281	-200.000	-0.060	-0.399
-682.266	-200.000	-0.030	-0.290
-681.251	-22.857	-0.494	0.304
-680.237	5.197	0.114	0.086
-679.222	-200.000	-0.034	0.167
-678.208	122.214	0.085	-0.108
-677.193	-200.000	0.039	-0.250
-676.178	472.869	0.052	0.118
-675.164	-76.488	-0.339	0.121
-674.149	800.000	-0.083	-0.316
-673.135	346.704	-0.125	-0.251
-672.120	800.000	0.041	0.159
-671.105	800.000	-0.096	0.279
-670.091	87.956	-0.084	0.095
-669.076	-80.055	-0.319	-0.109
-668.062	230.205	-0.174	0.291
-667.047	800.000	-0.040	0.114
-666.032	384.267	0.077	-0.162
-665.018	160.339	0.130	0.185
-664.003	10.003	-0.234	0.181
-662.989	-129.509	-0.307	-0.043
-661.974	-56.662	0.133	0.060
-660.959	226.775	-0.024	0.040
-659.945	99.367	-0.094	-0.111
-658.930	-20.630	0.354	-0.222
-657.916	-114.950	0.166	-0.032
-656.901	-14.128	0.145	0.096
-655.886	800.000	-0.084	-0.265
-654.872	-167.085	-0.294	0.012
-653.857	476.200	0.019	-0.043
-652.843	-139.715	0.549	0.060
-651.828	147.514	0.108	-0.148
-650.814	-200.000	-0.028	0.573
-649.799	-34.876	-0.181	-0.101
-648.784	-93.983	-0.194	-0.054
-647.770	800.000	0.027	-0.100
-646.755	49.335	-0.232	0.222
-645.741	331.101	0.095	-0.186
-644.726	-127.023	0.233	-0.035
-643.711	66.382	0.017	0.017
-642.697	-37.871	-0.138	-0.075
-641.682	-163.509	0.382	0.018
-640.668	46.123	-0.134	-0.126
-639.653	-67.033	0.026	0.010
-638.638	99.239	0.304	-0.358
-637.624	-200.000	-0.016	-0.218
-636.609	-61.289	0.216	-0.093
-635.595	-33.260	0.143	0.080
-634.580	8.658	-0.138	-0.106
-633.565	40.801	0.188	0.173
-632.551	518.773	0.149	-0.356
-631.536	-142.565	0.248	-0.025
-630.522	272.194	-0.041	0.074
-629.507	343.009	-0.201	0.402
-628.492	-200.000	-0.022	0.132
-627.478	63.519	-0.185	0.189
-626.463	800.000	-0.145	0.547
-625.449	-106.388	0.239	0.055
-624.434	220.136	0.180	-0.293
-623.419	451.188	-0.078	0.175
-622.405	-133.479	-0.212	-0.027
-621.390	-200.000	0.034	-0.243
-620.376	-74.270	-0.150	-0.055
-619.361	-128.377	-0.264	-0.038
-618.346	608.163	-0.014	0.036
-617.332	-78.727	-0.202	0.070
-616.317	-200.000	-0.069	-0.337
-615.303	173.963	-0.146	-0.215
-614.288	800.000	-0.031	0.090
-613.273	151.377	-0.164	0.227
-612.259	800.000	0.051	0.203
-611.244	800.000	-0.079	-0.246
-610.230	11.007	-0.227	-0.177
-609.215	282.087	-0.092	-0.168
-608.201	407.121	-0.021	-0.046
-607.186	39.147	-0.169	-0.154
-606.171	-200.000	-0.018	-0.153
-605.157	-200.000	0.063	-0.303
-604.142	-5.367	-0.126	-0.088
-603.128	-200.000	-0.026	0.128
-602.113	-49.250	0.130	-0.063
-601.098	-60.081	-0.306	0.133
-600.084	-200.000	-0.028	0.207
-599.069	126.446	0.139	-0.179
-598.055	-200.000	0.046	-0.265
-597.040	-76.313	-0.120	-0.043
-596.025	-21.717	-0.044	0.027
-595.011	-26.100	-0.187	-0.112
-593.996	428.812	0.089	0.196
-592.982	131.285	0.058	0.075
-591.967	-94.717	0.222	0.061
-590.952	-8.480	0.221	-0.151
-589.938	-200.000	-0.013	-0.165
-588.923	22.888	0.144	-0.120
-587.909	800.000	-0.072	0.236
-586.894	-200.000	0.001	0.091
-585.879	-2.291	-0.373	0.266
-584.865	800.000	-0.024	0.078
-583.850	-81.275	-0.154	0.052
-582.836	-29.855	0.176	0.102
-581.821	-77.495	0.129	-0.045
-580.806	13.870	-0.162	-0.128
-579.792	178.245	0.039	0.058
-578.777	-6.616	0.215	-0.149
-577.763	-140.739	-0.246	-0.026
-576.748	-200.000	0.046	-0.220
-575.733	-200.000	-0.025	-0.141
-574.719	13.119	-0.097	-0.077
-573.704	-85.419	-0.371	0.117
-572.690	-100.469	-0.149	-0.038
-571.675	-200.000	-0.001	0.127
-570.661	-130.773	0.181	0.025
-569.646	62.577	-0.212	-0.215
-568.631	-13.078	0.422	0.279
-567.617	-194.052	-0.126	0.001
-566.602	-144.686	-0.240	0.022
-565.588	78.393	-0.138	0.150
-564.573	69.534	0.162	-0.170
-563.558	58.602	-0.050	-0.050
-562.544	195.005	0.075	0.116
-561.529	-22.522	0.062	-0.038
-560.515	176.990	0.136	-0.200
-559.500	-30.900	0.171	-0.098
-558.485	270.118	-0.038	0.068
-557.471	800.000	0.050	-0.153
-556.456	-143.203	0.253	0.025
-555.442	15.085	0.214	-0.170
-554.427	44.723	-0.103	0.096
-553.412	17.011	-0.101	0.082
-552.398	31.152	-0.212	0.184
-551.383	127.823	0.142	0.184
-550.369	166.204	0.210	-0.301
-549.354	232.773	-0.145	0.241
-548.339	40.370	-0.119	-0.109
-547.325	-101.674	-0.183	-0.045
-546.310	284.005	-0.071	0.129
-545.296	-92.475	0.335	0.096
-544.281	-65.443	-0.155	0.063
-543.266	6.189	0.372	0.280
-542.252	-93.845	0.117	0.033
-541.237	-58.339	-0.067	-0.030
-540.223	76.713	-0.295	0.317
-539.208	171.127	-0.148	0.216
-538.193	-167.140	-0.230	-0.009
-537.179	494.948	0.190	-0.443
-536.164	-2.668	0.237	0.168
-535.150	73.121	-0.160	0.169
-534.135	-39.733	-0.184	-0.098
-533.121	-92.674	0.197	0.056
-532.106	183.309	-0.150	-0.225
-531.091	-92.667	-0.228	0.065
-530.077	-22.607	0.227	0.139
-529.062	100.834	-0.087	0.103
-528.048	40.979	0.034	-0.031
-527.033	101.609	0.123	-0.146
-526.018	-117.518	0.074	-0.013
-525.004	-2.087	-0.116	-0.082
-523.989	223.255	0.135	0.220
-522.975	692.178	-0.001	-0.003
-521.960	-157.552	0.071	0.004
-520.945	-147.849	0.371	-0.031
-519.931	-141.699	0.265	-0.027
-518.916	800.000	0.042	0.122
-517.902	800.000	0.071	0.304
-516.887	-140.250	-0.203	0.022
-515.872	800.000	0.034	-0.135
-514.858	85.577	-0.012	0.014
-513.843	-15.517	-0.198	-0.128
-512.829	90.341	-0.256	-0.291
-511.814	-125.071	0.381	0.059
-510.799	6.103	-0.197	0.148
-509.785	-11.198	0.174	0.116
-508.770	292.890	-0.085	-0.157
-507.756	-200.000	0.008	-0.332
-506.741	100.128	-0.147	0.173
-505.726	141.769	0.174	-0.234
-504.712	-101.040	-0.283	-0.070
-503.697	227.779	-0.133	0.220
-502.683	77.344	0.136	-0.147
-501.668	25.296	-0.175	-0.147
-500.653	-55.844	0.139	-0.063
-499.639	583.357	-0.069	-0.171
-498.624	50.749	-0.028	0.027
-497.610	74.340	-0.212	0.226
-496.595	-26.530	-0.093	-0.055
-495.581	688.996	0.049	0.131
-494.566	-200.000	-0.005	0.193
-493.551	76.561	0.303	-0.326
-492.537	-6.010	0.226	-0.156
-491.522	-131.393	0.264	0.035
-490.508	-52.521	0.096	0.045
-489.493	800.000	-0.060	0.200
-488.478	-33.485	-0.034	0.019
-487.464	77.257	0.036	-0.039
-486.449	-7.108	0.161	0.110
-485.435	-200.000	0.000	0.079
-484.420	-6.436	0.195	-0.135
-483.405	-200.000	0.054	0.326
-482.391	616.547	0.140	0.355
-481.376	-200.000	-0.031	0.250
-480.362	-52.562	-0.039	-0.018
-479.347	-165.350	0.320	-0.014
-478.332	150.274	-0.230	0.316
-477.318	-23.056	0.275	0.168
-476.303	-200.000	-0.003	-0.101
-475.289	503.178	0.122	-0.286
-474.274	-52.310	0.415	-0.195
-473.259	-200.000	0.027	0.182
-472.245	-200.000	-0.029	0.284
-471.230	800.000	-0.084	0.260
-470.216	-63.408	0.164	0.068
-469.201	113.136	-0.077	-0.095
-468.186	-92.398	-0.374	-0.106
-467.172	-3.184	-0.123	0.087
-466.157	-165.396	-0.124	0.006
-465.143	-200.000	-0.062	-0.292
-464.128	-133.580	0.373	0.047
-463.113	-13.560	0.139	-0.091
-462.099	-9.091	-0.205	-0.139
-461.084	60.167	-0.145	0.145
-460.070	-154.186	-0.076	0.005
-459.055	5.979	-0.179	0.134
-458.040	-126.200	0.153	-0.023
-457.026	-60.225	0.116	-0.050
-456.011	49.303	0.093	-0.088
-454.997	-200.000	0.023	0.240
-453.982	-144.514	0.232	0.022
-452.968	17.114	-0.165	0.133
-451.953	279.225	0.159	0.288
-450.938	-9.981	-0.218	-0.147
-449.924	-23.801	-0.257	0.155
-448.909	-200.000	0.029	-0.252
-447.895	59.846	-0.156	0.156
-446.880	393.911	0.134	-0.281
-445.865	248.423	-0.067	-0.114
-444.851	-101.053	-0.310	-0.077
-443.836	-21.721	-0.183	0.113
-442.822	800.000	-0.038	-0.112
-441.807	-76.250	-0.066	-0.024
-440.792	15.159	-0.094	-0.075
-439.778	800.000	-0.072	0.312
-438.763	800.000	-0.095	0.300
-437.749	140.615	-0.101	0.135
-436.734	297.803	0.103	0.192
-435.719	30.447	-0.087	0.075
-434.705	511.540	-0.018	0.042
-433.690	800.000	0.084	0.277
-432.676	-1.306	0.088	0.063
-431.661	382.536	0.083	-0.172
-430.646	63.518	-0.104	-0.106
-429.632	99.499	0.152	0.178
-428.617	-139.747	-0.305	0.033
-427.603	-36.189	-0.291	-0.159
-426.588	310.035	-0.087	0.165
-425.573	-200.000	0.007	-0.282
-424.559	-2.486	0.179	-0.127
-423.544	459.090	-0.094	-0.212
-422.530	-200.000	-0.002	-0.191
-421.515	-145.160	0.059	0.005
-420.500	-60.385	-0.153	0.066
-419.486	123.262	0.105	0.133
-418.471	-54.059	0.156	-0.072
-417.457	79.543	0.256	0.278
-416.442	-200.000	0.053	0.489
-415.428	203.938	-0.219	0.343
-414.413	800.000	-0.133	0.398
-413.398	-52.429	0.202	0.094
-412.384	416.783	-0.073	0.158
-411.369	299.488	-0.108	-0.201
-410.355	-97.751	-0.102	0.027
-409.340	588.335	-0.065	0.163
-408.325	199.920	0.097	-0.150
-407.311	274.693	-0.068	0.122
-406.296	-200.000	0.016	0.182
-405.282	326.016	-0.188	0.363
-404.267	-1.716	0.137	-0.098
-403.252	-116.221	-0.153	-0.029
-402.238	-28.352	0.068	0.039
-401.223	-200.000	0.001	-0.059
-400.209	-155.613	-0.376	0.024
-399.194	-199.301	0.246	-0.001
-398.179	77.524	0.364	0.391
-397.165	199.248	0.091	0.141
-396.150	257.579	-0.130	0.226
-395.136	-0.799	0.152	0.109
-394.121	341.437	0.153	-0.302
-393.106	-11.515	-0.176	-0.117
-392.092	235.203	-0.078	0.130
-391.077	-200.000	-0.028	-0.284
-390.063	561.137	0.048	0.118
-389.048	7.255	-0.095	0.071
-388.033	-168.653	0.148	0.006
-387.019	77.992	-0.099	0.106
-386.004	-60.160	0.075	-0.032
-384.990	27.377	-0.123	0.104
-383.975	-167.827	0.221	0.009
-382.960	-46.539	0.257	0.127
-381.946	20.498	-0.346	-0.282
-380.931	-154.858	-0.586	-0.039
-379.917	-200.000	0.015	-0.431
-378.902	270.715	-0.093	-0.164
-377.888	-101.277	0.252	-0.062
-376.873	-179.154	-0.133	0.003
-375.858	-36.599	-0.338	0.183
-374.844	-115.529	-0.188	-0.036
-373.829	231.915	0.051	-0.084
-372.815	757.471	-0.005	-0.012
-371.800	-200.000	-0.000	-0.214
-370.785	-151.322	0.336	0.025
-369.771	800.000	-0.053	-0.198
-368.756	-138.667	0.183	-0.020
-367.742	10.123	-0.209	-0.160
-366.727	-129.056	0.330	0.047
-365.712	-200.000	-0.039	0.372
-364.698	-25.728	0.147	-0.088
-363.683	-51.125	0.546	0.258
-362.669	-8.849	0.033	0.022
-361.654	-50.847	-0.066	0.031
-360.639	-177.707	0.230	-0.006
-359.625	589.004	-0.105	-0.261
-358.610	-200.000	0.018	0.268
-357.596	800.000	-0.045	0.132
-356.581	-28.386	-0.041	0.024
-355.566	-200.000	-0.008	-0.197
-354.552	-5.501	-0.046	0.032
-353.537	513.260	0.050	-0.117
-352.523	-200.000	-0.026	0.137
-351.508	-200.000	0.011	-0.222
-350.493	-66.095	-0.094	-0.038
-349.479	52.552	0.043	0.041
-348.464	-200.000	0.041	-0.263
-347.450	800.000	0.028	-0.088
-346.435	800.000	0.032	-0.141
-345.420	-200.000	-0.077	-0.413
-344.406	-79.296	0.258	-0.088
-343.391	800.000	0.070	0.197
-342.377	206.200	-0.148	-0.233
-341.362	-165.330	-0.174	-0.008
-340.348	-132.631	-0.112	-0.015
-339.333	9.074	0.047	0.036
-338.318	-154.239	0.182	0.012
-337.304	166.911	0.126	0.180
-336.289	246.037	0.131	-0.223
-335.275	3.343	0.244	0.179
-334.260	-200.000	0.044	-0.201
-333.245	509.380	0.009	0.021
-332.231	-200.000	-0.021	-0.161
-331.216	-130.295	0.159	0.022
-330.202	-96.353	-0.232	0.062
-329.187	-56.489	-0.429	0.192
-328.172	-200.000	-0.011	0.234
-327.158	-113.047	-0.247	-0.049
-326.143	165.794	0.064	-0.091
-325.129	11.346	-0.169	-0.130
-324.114	-131.061	-0.154	-0.021
-323.099	9.953	0.295	0.225
-322.085	-119.225	0.323	0.057
-321.070	-16.061	0.015	-0.010
-320.056	29.088	-0.213	-0.182
-319.041	166.178	0.067	0.096
-318.026	58.044	0.228	-0.225
-317.012	-127.616	0.114	0.017
-315.997	-103.659	0.427	0.101
-314.983	800.000	0.135	-0.522
-313.968	-200.000	0.046	-0.380
-312.953	-200.000	-0.011	0.084
-311.939	-179.610	0.372	-0.008
-310.924	487.478	0.122	-0.279
-309.910	-50.085	0.120	0.057
-308.895	-79.393	0.241	-0.082
-307.880	207.595	-0.137	-0.214
-306.866	-200.000	0.023	-0.115
-305.851	800.000	0.052	-0.164
-304.837	41.644	0.075	0.068
-303.822	77.914	-0.129	0.138
-302.807	-200.000	-0.023	-0.132
-301.793	-74.044	-0.216	-0.079
-300.778	-5.860	-0.133	0.092
-299.764	-200.000	-0.027	0.178
-298.749	-145.821	-0.131	-0.012
-297.735	131.508	0.222	-0.287
-296.720	55.966	-0.142	0.138
-295.705	800.000	0.044	-0.193
-294.691	-1.265	0.184	-0.130
-293.676	-76.273	0.216	0.076
-292.662	-63.038	-0.042	0.018
-291.647	-105.521	-0.352	0.080
-290.632	146.629	-0.090	-0.122
-289.618	-108.783	0.203	0.044
-288.603	-68.225	0.071	-0.028
-287.589	-33.627	-0.175	-0.097
-286.574	-109.967	-0.256	-0.054
-285.559	-200.000	0.032	0.281
-284.545	12.652	-0.204	0.158
-283.530	-7.884	0.190	-0.129
-282.516	-55.424	0.182	0.082
-281.501	-200.000	-0.052	0.236
-280.486	-116.935	-0.107	0.020
-279.472	667.788	0.049	-0.129
-278.457	800.000	-0.052	0.164
-277.443	-88.153	0.413	0.124
-276.428	137.790	0.088	0.116
-275.413	-157.709	0.258	-0.015
-274.399	-200.000	-0.052	0.313
-273.384	20.702	0.167	-0.136
-272.370	38.549	-0.036	-0.032
-271.355	489.464	-0.060	-0.138
-270.340	800.000	-0.100	0.314
-269.326	55.272	-0.194	0.188
-268.311	-100.188	0.167	-0.042
-267.297	126.545	-0.279	-0.355
-266.282	-164.141	0.313	-0.015
-265.267	27.359	-0.332	-0.280
-264.253	-114.221	-0.335	0.065
-263.238	-200.000	-0.043	-0.300
-262.224	-57.273	-0.290	0.128
-261.209	114.008	0.051	0.062
-260.195	-86.999	-0.171	-0.052
-259.180	-106.401	-0.048	-0.011
-258.165	235.758	0.133	-0.221
-257.151	800.000	0.109	-0.449
-256.136	-64.865	-0.199	0.081
-255.122	143.919	0.075	-0.100
-254.107	-94.281	-0.097	0.027
-253.092	-85.232	0.449	-0.141
-252.078	-200.000	0.007	-0.072
-251.063	-95.438	0.097	-0.026
-250.049	-200.000	-0.038	-0.279
-249.034	49.357	0.083	-0.079
-248.019	-200.000	0.013	0.251
-247.005	-70.061	0.099	-0.038
-245.990	-59.940	-0.497	-0.213
-244.976	800.000	-0.147	0.514
-243.961	34.411	-0.087	0.076
-242.946	29.089	-0.082	0.070
-241.932	143.502	-0.192	-0.257
-240.917	800.000	0.089	-0.265
-239.903	425.723	0.205	-0.443
-238.888	-66.592	0.091	0.036
-237.873	405.271	-0.052	-0.110
-236.859	-200.000	-0.001	0.078
-235.844	800.000	0.084	0.325
-234.830	-5.570	-0.182	0.125
-233.815	118.745	0.161	-0.200
-232.800	154.965	-0.109	-0.150
-231.786	-77.749	0.156	-0.054
-230.771	45.837	-0.253	-0.235
-229.757	-100.547	0.146	0.036
-228.742	-185.827	-0.091	0.001
-227.727	25.198	0.306	0.255
-226.713	4.456	-0.203	0.150
-225.698	-20.708	-0.124	0.076
-224.684	-58.295	-0.263	-0.115
-223.669	176.667	-0.091	0.132
-222.655	-200.000	-0.020	0.109
-221.640	-99.170	0.103	0.026
-220.625	-23.226	0.009	0.005
-219.611	18.294	-0.146	0.117
-218.596	-154.067	0.092	0.006
-217.582	-126.503	0.234	0.035
-216.567	15.057	0.042	0.033
-215.552	800.000	-0.032	0.129
-214.538	-200.000	0.059	-0.266
-213.523	-200.000	0.014	0.165
-212.509	104.308	-0.255	0.300
-211.494	70.151	0.110	-0.114
-210.479	-200.000	0.035	0.214
-209.465	298.105	-0.056	-0.103
-208.450	-200.000	0.032	0.244
-207.436	800.000	0.022	0.064
-206.421	-15.499	-0.167	0.107
-205.406	800.000	-0.093	0.289
-204.392	94.001	-0.118	0.134
-203.377	-200.000	-0.040	-0.193
-202.363	328.508	-0.094	0.181
-201.348	-200.000	0.048	0.257
-200.333	-200.000	-0.018	-0.149
-199.319	-45.508	-0.217	-0.108
-198.304	505.677	0.086	-0.200
-197.290	-200.000	-0.057	-0.289
-196.275	46.746	-0.095	-0.089
-195.260	129.942	0.054	-0.069
-194.246	-106.112	0.366	-0.082
-193.231	24.709	-0.275	0.228
-192.217	528.486	-0.052	0.123
-191.202	-34.052	0.239	0.132
-190.187	404.472	0.085	0.179
-189.173	-77.485	0.118	0.041
-188.158	-141.478	0.085	0.009
-187.144	240.626	0.157	0.263
-186.129	-38.502	-0.101	-0.054
-185.114	-40.947	0.255	-0.132
-184.100	103.270	-0.104	-0.122
-183.085	178.081	-0.203	-0.297
-182.071	-200.000	0.007	0.101
-181.056	-200.000	0.037	0.176
-180.042	-23.151	-0.091	0.055
-179.027	-113.682	0.025	0.005
-178.012	-200.000	0.024	-0.201
-176.998	800.000	-0.138	-0.450
-175.983	-64.669	0.220	0.089
-174.969	-19.441	0.163	-0.101
-173.954	-200.000	-0.047	0.219
-172.939	220.233	0.138	-0.222
-171.925	313.143	-0.111	0.208
-170.910	326.655	0.020	0.038
-169.896	-184.572	0.228	-0.004
-168.881	266.268	0.055	0.095
-167.866	-87.437	0.130	0.039
-166.852	-200.000	0.055	-0.250
-165.837	-21.154	0.143	-0.088
-164.823	95.975	-0.067	-0.076
-163.808	-200.000	-0.016	0.079
-162.793	496.707	-0.040	0.092
-161.779	-200.000	0.084	-0.409
-160.764	-87.749	-0.173	-0.052
-159.750	392.685	-0.104	0.216
-158.735	25.396	-0.128	0.106
-157.720	800.000	0.050	0.192
-156.706	-62.908	-0.279	0.116
-155.691	-200.000	0.027	-0.224
-154.677	-129.500	0.178	-0.025
-153.662	-145.061	-0.134	0.012
-152.647	81.118	-0.196	-0.212
-151.633	-36.978	0.355	0.190
-150.618	-200.000	0.015	0.278
-149.604	795.137	0.049	-0.135
-148.589	-57.732	0.136	-0.060
-147.574	-200.000	-0.074	-0.368
-146.560	-44.835	-0.147	0.073
-145.545	-66.162	0.500	-0.199
-144.531	41.953	-0.235	-0.213
-143.516	309.180	0.048	0.089
-142.502	-86.832	-0.104	0.032
-141.487	43.642	-0.104	-0.095
-140.472	-6.616	0.198	-0.135
-139.458	-51.473	-0.226	-0.105
-138.443	800.000	0.042	0.159
-137.429	426.501	0.015	-0.032
-136.414	-200.000	0.001	-0.140
-135.399	129.846	-0.188	-0.240
-134.385	800.000	-0.028	0.079
-133.370	-200.000	-0.018	0.187
-132.356	800.000	-0.069	-0.276
-131.341	-164.235	-0.243	0.011
-130.326	-150.535	-0.201	-0.015
-129.312	70.488	0.208	0.215
-128.297	26.943	-0.082	-0.069
-127.283	-119.165	-0.192	0.034
-126.268	-200.000	-0.065	0.466
-125.253	-162.750	-0.286	0.014
-124.239	27.028	0.172	-0.144
-123.224	196.655	0.165	-0.251
-122.210	-200.000	-0.043	0.363
-121.195	-118.327	-0.104	0.018
-120.180	-5.020	0.280	0.192
-119.166	-49.495	0.217	0.103
-118.151	-72.845	-0.450	0.165
-117.137	-97.966	-0.277	0.071
-116.122	-200.000	0.001	-0.067
-115.107	800.000	0.036	-0.136
-114.093	260.025	0.085	-0.146
-113.078	-167.119	0.274	-0.011
-112.064	174.045	-0.051	0.073
-111.049	-200.000	0.002	-0.132
-110.034	-177.969	0.238	0.006
-109.020	368.027	0.103	0.207
-108.005	389.907	-0.156	-0.322
-106.991	800.000	0.051	-0.159
-105.976	13.320	0.219	0.169
-104.962	-200.000	-0.001	0.078
-103.947	-4.400	-0.119	0.082
-102.932	148.280	-0.120	0.162
-101.918	-72.976	-0.045	0.016
-100.903	-43.499	-0.268	0.135
-99.889	-160.712	0.081	-0.004
-98.874	59.256	-0.198	0.195
-97.859	-161.331	-0.370	-0.019
-96.845	220.739	-0.046	-0.074
-95.830	102.145	0.071	-0.082
-94.816	85.548	-0.058	-0.063
-93.801	-200.000	0.019	-0.096
-92.786	-175.984	-0.207	-0.005
-91.772	-200.000	-0.039	-0.360
-90.757	-36.721	-0.247	-0.132
-89.743	339.541	-0.157	0.306
-88.728	-200.000	-0.012	0.098
-87.713	-36.150	-0.386	-0.208
-86.699	-166.196	-0.282	0.012
-85.684	13.754	0.172	0.133
-84.670	-96.169	0.358	0.095
-83.655	800.000	0.069	0.283
-82.640	470.690	0.113	0.253
-81.626	-153.671	-0.274	-0.019
-80.611	24.594	-0.088	-0.073
-79.597	-3.410	0.224	0.155
-78.582	-109.981	0.140	-0.029
-77.567	-200.000	0.018	0.099
-76.553	800.000	0.049	0.205
-75.538	182.920	-0.108	0.159
-74.524	89.503	-0.244	-0.271
-73.509	-200.000	-0.024	-0.154
-72.494	406.257	-0.082	-0.173
-71.480	-127.502	0.071	-0.010
-70.465	-130.052	0.201	0.027
-69.451	-200.000	0.014	0.181
-68.436	-119.166	0.266	-0.046
-67.422	7.333	-0.221	-0.165
-66.407	47.498	-0.147	0.137
-65.392	298.464	-0.107	0.195
-64.378	-27.574	0.262	0.152
-63.363	-116.146	0.215	0.040
-62.349	-44.722	0.362	-0.180
-61.334	66.592	-0.728	-0.737
-60.319	-200.000	0.069	0.388
-59.305	-200.000	-0.039	-0.896
-58.290	800.000	0.274	0.916
-57.276	343.539	0.662	1.293
-56.261	-200.000	80.186	493.234
-55.246	554.375	1358.662	3254.900
-54.232	182.750	2587.913	3802.565
-53.217	120.344	2244.205	2774.632
-52.203	50.250	1695.739	1595.076
-51.188	42.704	1425.939	1292.960
-50.173	39.314	1381.589	1231.530
-49.159	57.000	1419.640	1377.759
-48.144	62.389	1438.772	1430.382
-47.130	43.196	1399.716	1272.086
-46.115	39.384	1383.004	1233.034
-45.100	39.069	1378.819	1227.283
-44.086	39.052	1376.359	1224.937
-43.071	39.069	1373.613	1222.554
-42.057	39.032	1371.683	1220.554
-41.042	39.086	1369.863	1219.226
-40.027	39.121	1368.485	1218.167
-39.013	39.168	1366.171	1216.347
-37.998	39.092	1364.476	1214.321
-36.984	39.204	1362.828	1213.500
-35.969	39.327	1360.953	1212.541
-34.954	39.324	1358.807	1210.559
-33.940	39.297	1357.616	1209.284
-32.925	39.294	1356.333	1208.075
-31.911	39.255	1355.225	1206.803
-30.896	39.358	1353.205	1205.585
-29.881	39.479	1351.269	1204.553
-28.867	39.452	1349.777	1203.010
-27.852	39.389	1348.697	1201.614
-26.838	39.397	1347.273	1200.347
-25.823	39.268	1345.654	1198.074
-24.809	39.235	1344.242	1196.569
-23.794	39.323	1343.160	1196.092
-22.779	39.362	1341.510	1194.812
-21.765	39.313	1340.075	1193.191
-20.750	39.312	1338.493	1191.727
-19.736	39.224	1337.733	1190.470
-18.721	39.138	1336.521	1188.822
-17.706	39.284	1335.022	1188.325
-16.692	39.230	1334.267	1187.278
-15.677	39.272	1333.053	1186.405
-14.663	39.305	1331.553	1185.221
-13.648	39.105	1330.675	1183.190
-12.633	39.154	1329.752	1182.616
-11.619	39.079	1328.795	1181.269
-10.604	39.206	1327.685	1180.998
-9.590	39.178	1326.876	1180.065
-8.575	39.149	1325.655	1178.759
-7.560	39.228	1324.998	1178.599
-6.546	39.242	1323.661	1177.449
-5.531	39.107	1323.093	1176.084
-4.517	39.143	1322.246	1175.504
-3.502	39.167	1321.649	1175.068
-2.487	39.175	1320.401	1173.957
-1.473	39.209	1316.380	1170.540
-0.458	37.806	1300.853	1148.428
0.556	34.072	1279.940	1102.324
1.571	29.587	1283.714	1079.340
2.586	27.997	1298.527	1082.292
3.600	26.235	1286.298	1061.654
4.615	19.535	1209.935	961.365
5.629	9.769	1128.169	845.367
6.644	5.121	1104.708	803.815
7.659	4.884	1102.074	800.610
8.673	4.923	1101.137	800.059
9.688	4.863	1100.304	799.078
10.702	5.163	1098.238	799.043
11.717	10.480	1106.364	832.238
12.731	18.885	1118.485	884.730
13.746	21.298	1120.638	898.782
14.761	19.727	1117.969	888.493
15.775	18.684	1115.772	881.316
16.790	17.557	1113.949	874.016
17.804	16.824	1112.226	868.831
18.819	16.547	1111.042	866.412
19.834	16.240	1109.518	863.577
20.848	16.079	1108.993	862.269
21.863	15.728	1108.331	859.883
22.877	15.674	1107.734	859.066
23.892	15.684	1106.764	858.291
24.907	15.715	1105.696	857.540
25.921	15.802	1104.402	856.904
26.936	15.745	1103.185	855.596
27.950	15.797	1101.712	854.641
28.965	15.778	1100.725	853.706
29.980	16.016	1099.067	853.549
30.994	15.966	1098.295	852.622
32.009	16.113	1097.129	852.384
33.023	16.088	1095.846	851.187
34.038	15.949	1094.828	849.616
35.053	15.821	1093.772	848.078
36.067	15.786	1093.239	847.416
37.082	15.881	1092.015	846.868
38.096	15.945	1091.486	846.704
39.111	15.986	1090.472	846.049
40.126	15.832	1089.315	844.304
41.140	15.791	1087.624	842.711
42.155	15.604	1086.659	840.957
43.169	15.544	1085.532	839.710
44.184	15.424	1084.804	838.470
45.199	15.647	1083.641	838.613
46.213	15.598	1082.631	837.510
47.228	15.708	1081.635	837.212
48.242	15.819	1080.318	836.673
49.257	15.788	1079.933	836.149
50.271	15.836	1078.672	835.335
51.286	15.862	1077.586	834.549
52.301	15.769	1076.814	833.417
53.315	15.722	1075.810	832.331
54.330	15.539	1074.999	830.725
55.344	15.602	1074.202	830.346
56.359	15.756	1072.693	829.867
57.374	15.606	1072.407	828.832
58.388	15.623	1070.957	827.723
59.403	15.578	1070.253	826.884
60.417	15.544	1069.550	826.100
61.432	15.533	1068.655	825.281
62.447	15.609	1067.442	824.645
63.461	15.494	1066.845	823.549
64.476	15.455	1065.942	822.587
65.490	15.417	1064.908	821.530
66.505	15.534	1064.632	821.819
67.520	15.404	1064.000	820.620
68.534	15.541	1062.914	820.379
69.549	15.393	1062.278	819.095
70.563	15.345	1061.492	818.183
71.578	15.446	1060.321	817.699
72.593	15.329	1059.758	816.624
73.607	15.298	1059.231	815.994
74.622	15.260	1058.617	815.263
75.636	15.306	1058.032	814.965
76.651	15.355	1056.843	814.214
77.666	15.391	1056.672	814.183
78.680	15.439	1055.298	813.286
79.695	15.459	1054.664	812.825
80.709	15.548	1054.453	813.019
81.724	15.551	1054.004	812.613
82.739	15.666	1052.894	812.246
83.753	15.718	1052.928	812.447
84.768	15.954	1051.328	812.280
85.782	15.946	1050.892	811.836
86.797	15.916	1049.799	810.773
87.812	15.849	1048.824	809.627
88.826	15.947	1047.378	808.911
89.841	15.931	1046.252	807.890
90.855	15.960	1045.632	807.478
91.870	15.931	1044.844	806.662
92.884	15.986	1043.823	806.066
93.899	15.951	1043.268	805.399
94.914	16.116	1042.183	805.274
95.928	16.047	1041.706	804.507
96.943	15.973	1040.641	803.261
97.957	15.965	1039.562	802.321
98.972	15.938	1038.720	801.468
99.987	15.895	1038.074	800.693
101.001	15.871	1036.757	799.495
102.016	15.852	1035.986	798.740
103.030	16.063	1034.904	798.834
104.045	15.954	1034.378	797.841
105.060	15.759	1033.654	796.290
106.074	15.760	1032.440	795.288
107.089	15.602	1031.563	793.797
108.103	15.582	1030.391	792.729
109.118	15.612	1029.428	792.061
110.133	15.595	1028.523	791.214
111.147	15.607	1027.754	790.608
112.162	15.529	1027.303	789.828
113.176	15.614	1026.312	789.393
114.191	15.733	1025.687	789.401
115.206	15.780	1024.442	788.593
116.220	15.687	1023.807	787.599
117.235	15.648	1022.979	786.711
118.249	15.712	1021.627	785.897
119.264	15.487	1021.549	784.718
120.279	15.570	1020.452	784.195
121.293	15.586	1019.275	783.294
122.308	15.591	1018.470	782.631
123.322	15.420	1017.580	781.080
124.337	15.467	1016.501	780.401
125.352	15.531	1015.174	779.610
126.366	15.427	1014.112	778.244
127.381	15.500	1013.026	777.683
128.395	15.606	1012.109	777.399
129.410	15.554	1011.471	776.600
130.424	15.659	1010.468	776.245
131.439	15.650	1009.996	775.772
132.454	15.767	1009.120	775.572
133.468	15.839	1007.789	774.811
134.483	15.892	1007.151	774.494
135.497	15.785	1006.391	773.349
136.512	15.861	1005.207	772.720
137.527	15.857	1004.556	772.135
138.541	15.697	1004.113	770.991
139.556	15.883	1003.133	771.021
140.570	15.960	1002.510	770.829
141.585	16.063	1001.603	770.535
142.600	16.153	1000.720	770.198
143.614	16.138	999.819	769.365
144.629	16.082	999.180	768.551
145.643	16.081	997.835	767.446
146.658	16.070	996.740	766.486
147.673	15.921	995.612	764.873
148.687	15.870	994.901	764.027
149.702	15.823	994.342	763.316
150.716	15.765	993.216	762.123
151.731	15.849	992.427	761.829
152.746	15.877	991.652	761.295
153.760	15.864	991.184	760.808
154.775	15.821	990.863	760.299
155.789	16.072	989.897	760.626
156.804	16.020	988.956	759.601
157.819	16.038	988.462	759.235
158.833	15.866	988.069	758.093
159.848	16.180	986.928	758.560
160.862	16.198	985.655	757.594
161.877	16.036	984.521	755.931
162.892	15.858	983.860	754.559
163.906	15.871	982.803	753.741
164.921	15.951	982.060	753.459
165.935	16.000	981.130	752.901
166.950	16.064	980.305	752.485
167.964	15.916	979.536	751.168
168.979	15.933	978.210	750.162
169.994	15.983	977.367	749.668
171.008	16.064	976.730	749.475
172.023	15.979	976.419	748.792
173.037	16.131	975.738	748.881
174.052	16.078	974.689	747.771
175.067	15.864	974.553	746.653
176.081	15.915	973.646	746.120
177.096	16.052	972.676	745.915
178.110	15.946	972.236	745.044
179.125	16.014	971.546	744.748
180.140	15.996	971.102	744.264
181.154	16.084	970.791	744.348
182.169	16.174	970.088	744.139
183.183	16.217	969.758	744.010
184.198	16.209	968.563	742.991
185.213	16.354	967.651	742.864
186.227	16.323	967.249	742.355
187.242	16.305	966.699	741.785
188.256	16.417	966.050	741.716
189.271	16.478	964.774	740.935
190.286	16.196	964.345	739.306
191.300	15.878	963.648	737.316
192.315	15.827	962.742	736.331
193.329	15.983	962.214	736.546
194.344	15.971	961.539	735.913
195.359	16.166	960.961	736.254
196.373	16.233	960.453	736.096
197.388	16.317	960.076	736.103
198.402	16.428	959.497	736.079
199.417	16.587	958.584	736.008
200.432	16.509	958.330	735.407
201.446	16.678	957.564	735.490
202.461	16.679	957.311	735.232
203.475	16.639	956.846	734.636
204.490	16.600	955.515	733.382
205.504	16.403	954.758	731.882
206.519	16.398	953.929	731.161
207.534	16.586	953.341	731.459
208.548	16.480	952.914	730.609
209.563	16.497	952.044	729.948
210.577	16.503	951.211	729.272
211.592	16.698	950.506	729.507
212.607	16.778	949.871	729.300
213.621	16.727	948.975	728.327
214.636	16.691	948.267	727.564
215.650	16.647	947.528	726.744
216.665	16.698	947.192	726.641
217.680	16.846	946.187	726.443
218.694	16.777	946.085	726.005
219.709	16.692	945.284	724.960
220.723	16.724	944.342	724.311
221.738	16.705	943.648	723.634
222.753	16.678	943.059	723.003
223.767	16.829	942.599	723.229
224.782	16.922	941.779	722.932
225.796	16.870	941.563	722.481
226.811	16.882	940.472	721.631
227.826	16.729	939.696	720.323
228.840	16.669	939.196	719.619
229.855	16.779	938.021	719.123
230.869	16.877	936.987	718.683
231.884	16.651	936.686	717.430
232.899	16.629	936.059	716.793
233.913	16.716	934.933	716.233
234.928	16.588	934.550	715.337
235.942	16.610	933.850	714.832
236.957	16.727	933.101	714.687
237.972	16.822	932.291	714.404
238.986	16.692	932.028	713.592
240.001	16.637	931.423	712.836
241.015	16.880	930.742	713.272
242.030	16.779	930.719	712.768
243.045	16.817	929.778	712.143
244.059	17.006	929.167	712.404
245.074	16.901	928.558	711.435
246.088	16.975	927.495	710.866
247.103	16.962	927.257	710.567
248.117	17.108	926.654	710.653
249.132	17.181	926.301	710.626
250.147	17.380	925.429	710.726
251.161	17.357	924.755	710.050
252.176	17.374	924.190	709.623
253.190	17.476	923.306	709.307
254.205	17.508	922.771	708.965
255.220	17.413	922.135	708.019
256.234	17.473	921.625	707.816
257.249	17.425	921.020	707.090
258.263	17.551	920.042	706.798
259.278	17.499	919.141	705.827
260.293	17.498	919.053	705.695
261.307	17.688	918.170	705.739
262.322	17.551	917.546	704.631
263.336	17.737	916.713	704.699
264.351	17.656	916.135	703.855
265.366	17.621	915.636	703.264
266.380	17.531	915.388	702.644
267.395	17.649	914.168	702.128
268.409	17.452	913.381	700.650
269.424	17.519	912.692	700.335
270.439	17.567	911.398	699.480
271.453	17.509	910.833	698.747
272.468	17.533	910.448	698.485
273.482	17.692	909.648	698.463
274.497	17.627	909.064	697.686
275.512	17.559	908.858	697.190
276.526	17.625	908.202	696.895
277.541	17.665	907.926	696.782
278.555	17.732	907.334	696.540
279.570	17.852	906.404	696.255
280.585	17.833	905.688	695.567
281.599	17.762	904.838	694.564
282.614	17.661	904.331	693.701
283.628	17.678	903.752	693.266
284.643	17.749	903.051	692.956
285.657	17.662	902.411	692.047
286.672	17.750	901.544	691.678
287.687	17.735	901.394	691.441
288.701	17.599	900.581	690.206
289.716	17.781	899.801	690.287
290.730	17.989	899.281	690.666
291.745	17.844	898.793	689.644
292.760	17.936	898.181	689.486
293.774	18.100	897.485	689.552
294.789	17.918	897.002	688.385
295.803	17.884	895.907	687.349
296.818	17.795	895.494	686.611
297.833	17.836	894.869	686.235
298.847	17.854	894.212	685.746
299.862	17.922	893.597	685.486
300.876	18.129	893.059	685.840
301.891	18.091	892.396	685.121
302.906	18.122	891.520	684.509
303.920	18.222	891.543	684.866
304.935	18.240	891.008	684.468
305.949	18.225	890.355	683.847
306.964	18.124	889.516	682.740
307.979	18.113	888.544	681.887
308.993	18.264	888.200	682.166
310.008	18.367	887.616	682.067
311.022	18.176	886.685	680.532
312.037	17.953	886.679	679.578
313.052	17.990	886.098	679.222
314.066	18.038	885.074	678.568
315.081	17.874	885.090	677.865
316.095	17.950	884.104	677.352
317.110	18.052	883.063	676.898
318.125	18.019	883.091	676.731
319.139	18.107	882.615	676.654
320.154	18.074	882.005	675.996
321.168	18.201	881.225	675.839
322.183	18.335	880.437	675.704
323.197	18.220	880.396	675.161
324.212	18.264	879.988	674.961
325.227	18.154	879.097	673.783
326.241	18.255	878.275	673.491
327.256	18.198	877.685	672.755
328.270	18.156	876.951	671.971
329.285	18.051	876.578	671.211
330.300	18.005	875.958	670.496
331.314	18.216	875.374	670.817
332.329	18.241	874.952	670.533
333.343	18.350	874.739	670.737
334.358	18.404	874.370	670.607
335.373	18.394	873.697	669.990
336.387	18.466	873.698	670.217
337.402	18.450	873.312	669.796
338.416	18.359	873.257	669.341
339.431	18.579	872.519	669.573
340.446	18.647	872.085	669.448
341.460	18.680	871.713	669.229
342.475	18.660	871.519	668.945
343.489	18.674	870.958	668.510
344.504	18.799	870.291	668.423
345.519	18.764	869.817	667.863
346.533	18.838	868.916	667.401
347.548	18.735	868.623	666.720
348.562	18.555	867.715	665.264
349.577	18.552	867.548	665.064
350.592	18.543	866.627	664.266
351.606	18.504	866.121	663.668
352.621	18.556	865.399	663.257
353.635	18.623	864.762	662.971
354.650	18.628	863.989	662.337
355.665	18.674	863.366	661.981
356.679	18.814	862.779	662.009
357.694	18.651	862.632	661.211
358.708	18.674	861.658	660.492
359.723	18.666	861.131	660.001
360.738	18.765	860.407	659.766
361.752	18.800	859.737	659.329
362.767	18.947	858.964	659.243
363.781	19.122	858.082	659.176
364.796	19.011	858.375	658.917
365.810	18.976	858.168	658.567
366.825	19.010	857.704	658.283
367.840	19.259	856.776	658.463
368.854	18.958	856.546	657.078
369.869	18.938	856.143	656.636
370.883	19.100	855.498	656.699
371.898	19.071	855.239	656.334
372.913	19.257	854.513	656.428
373.927	19.236	853.962	655.866
374.942	19.083	853.916	655.191
375.956	19.189	853.178	654.970
376.971	19.304	853.129	655.309
377.986	19.380	852.704	655.213
379.000	19.536	851.679	654.959
380.015	19.486	851.135	654.295
381.029	19.354	850.531	653.274
382.044	19.323	850.061	652.737
383.059	19.237	849.605	652.002
384.073	19.370	849.006	651.990
385.088	19.315	848.227	651.124
386.102	19.249	847.591	650.330
387.117	19.184	847.235	649.754
388.132	19.161	846.602	649.126
389.146	19.247	845.998	648.926
390.161	19.296	845.550	648.709
391.175	19.473	844.859	648.787
392.190	19.294	844.377	647.690
393.205	19.355	843.819	647.432
394.219	19.363	843.442	647.115
395.234	19.172	843.350	646.273
396.248	19.216	842.742	645.914
397.263	19.173	841.986	645.115
398.278	19.074	841.739	644.500
399.292	19.127	841.295	644.301
400.307	19.163	840.673	643.903
401.321	19.173	840.409	643.680
402.336	19.337	839.614	643.625
403.350	19.302	839.436	643.303
404.365	19.333	838.936	642.977
405.380	19.584	838.289	643.361
406.394	19.787	837.712	643.616
407.409	19.659	837.699	643.072
408.423	19.594	837.309	642.474
409.438	19.700	836.758	642.388
410.453	19.814	836.347	642.439
411.467	19.937	835.589	642.256
412.482	19.892	835.585	642.029
413.496	19.838	834.987	641.315
414.511	19.892	834.442	641.040
415.526	19.762	834.181	640.302
416.540	19.789	833.583	639.883
417.555	19.852	833.119	639.703
418.569	19.893	832.790	639.545
419.584	19.850	832.638	639.213
420.599	19.878	831.946	638.731
421.613	148.551	1363.624	1755.025
422.628	129.684	1441.125	1755.157
