DTS Sentinel unit serial number:	SN413079Multiplexer serial number:	ORYXHardware model number:	OX4-SRSoftware version number:	ORYX F/W v4.00 Oryx Data Collector v3.7.2.0data status	okinstallation	princeton_trtdifferential loss correction	single-endedforward channel	channel 1reverse channel	N/Adate	2019/09/13time	01:58:35forward acquisition time	60.00reverse acquisition time	0.00gamma	496.2192k internal	0.2331k external	0.2331temperature offset calibration	1.0147default loss term (dB/km)	0.3790temperature slope calibration	1.0000multiplexer offset coefficient	1.0000multiplexer slope coefficient	1.0000fibre end	0.00T internal ref (°C)	27.64T ext. ref 1 (°C)	3.83T ext. ref 2 (°C)	22.27length (m)	temperature (°C)	Stokes	anti-Stokes-747.200	800.000	0.011	0.035
-746.185	-1.888	-0.292	0.207
-745.171	90.089	0.364	-0.409
-744.156	-200.000	-0.062	0.275
-743.142	25.988	0.172	-0.145
-742.127	-147.203	-0.320	-0.027
-741.112	171.246	-0.068	0.098
-740.098	356.629	0.183	0.366
-739.083	33.718	-0.075	0.066
-738.069	-118.054	-0.143	0.026
-737.054	25.225	-0.245	0.205
-736.039	-50.362	0.122	0.058
-735.025	-122.955	0.364	-0.059
-734.010	-200.000	0.047	-0.306
-732.996	-85.397	-0.159	0.050
-731.981	144.011	-0.241	0.324
-730.966	64.236	0.181	0.184
-729.952	152.948	0.294	-0.404
-728.937	-61.103	-0.241	-0.102
-727.923	-200.000	-0.036	-0.256
-726.908	-111.726	-0.179	0.036
-725.894	-200.000	0.023	-0.116
-724.879	-138.827	-0.186	0.020
-723.864	27.107	0.347	-0.293
-722.850	80.200	0.059	-0.064
-721.835	-67.111	-0.351	-0.139
-720.821	-132.448	0.179	-0.023
-719.806	255.739	-0.062	-0.106
-718.791	-42.400	-0.259	0.133
-717.777	126.480	-0.209	-0.266
-716.762	228.500	0.149	0.244
-715.748	-53.435	-0.047	0.022
-714.733	-200.000	0.004	-0.248
-713.718	47.171	-0.050	-0.047
-712.704	-28.173	-0.260	0.151
-711.689	227.013	0.157	0.256
-710.675	-188.189	0.365	0.005
-709.660	10.972	-0.384	-0.295
-708.645	-46.658	-0.087	0.043
-707.631	160.578	-0.080	-0.112
-706.616	-89.596	0.047	0.014
-705.602	-35.408	-0.094	-0.051
-704.587	-110.509	0.366	0.076
-703.572	393.607	0.121	-0.253
-702.558	-35.014	-0.170	-0.093
-701.543	-107.827	-0.235	0.051
-700.529	27.889	0.111	0.094
-699.514	256.825	0.182	0.315
-698.499	-200.000	0.068	0.413
-697.485	-200.000	-0.006	0.087
-696.470	2.273	-0.338	-0.245
-695.456	-200.000	0.021	-0.204
-694.441	-200.000	0.000	0.339
-693.426	-12.057	-0.187	0.123
-692.412	131.367	0.160	0.206
-691.397	41.358	-0.084	0.077
-690.383	-200.000	0.029	-0.271
-689.368	253.954	0.139	-0.239
-688.354	-136.371	-0.140	-0.016
-687.339	225.710	-0.179	0.291
-686.324	-66.396	0.397	0.159
-685.310	800.000	-0.096	0.397
-684.295	-17.955	-0.232	-0.146
-683.281	32.737	0.257	-0.223
-682.266	-132.958	0.157	-0.020
-681.251	-135.390	0.288	0.035
-680.237	322.881	0.059	0.113
-679.222	800.000	-0.077	-0.236
-678.208	800.000	0.071	-0.261
-677.193	-200.000	0.021	-0.174
-676.178	-200.000	0.035	0.179
-675.164	-96.761	0.203	0.054
-674.149	157.741	-0.153	0.212
-673.135	-200.000	0.004	-0.229
-672.120	-78.747	-0.063	0.021
-671.105	-71.058	0.220	-0.083
-670.091	800.000	-0.008	-0.027
-669.076	26.191	0.326	-0.273
-668.062	658.210	0.076	0.196
-667.047	-34.446	0.216	-0.119
-666.032	-137.518	-0.247	0.028
-665.018	800.000	0.018	-0.077
-664.003	14.557	0.255	-0.200
-662.989	-62.628	-0.027	0.011
-661.974	400.545	-0.110	0.232
-660.959	-200.000	-0.103	0.493
-659.945	-87.566	0.142	0.043
-658.930	195.910	0.052	0.079
-657.916	165.719	0.098	-0.139
-656.901	57.237	0.309	0.303
-655.886	-200.000	0.003	-0.292
-654.872	-118.927	0.269	-0.047
-653.857	-200.000	-0.032	-0.283
-652.843	-110.546	0.218	0.045
-651.828	-80.982	-0.154	-0.051
-650.814	-131.328	0.248	0.033
-649.799	-37.233	0.256	-0.137
-648.784	373.817	-0.096	0.197
-647.770	97.082	-0.145	0.167
-646.755	4.175	-0.141	-0.103
-645.741	85.244	0.150	0.165
-644.726	39.552	-0.200	-0.180
-643.711	557.163	0.050	-0.121
-642.697	-200.000	0.014	-0.067
-641.682	387.454	0.081	-0.167
-640.668	-112.402	-0.092	0.019
-639.653	-29.459	-0.079	-0.045
-638.638	800.000	-0.070	0.293
-637.624	800.000	0.097	-0.292
-636.609	68.538	-0.112	0.116
-635.595	9.351	0.210	0.159
-634.580	-27.009	-0.194	0.114
-633.565	645.900	-0.028	-0.072
-632.551	171.723	0.094	-0.136
-631.536	-47.979	-0.392	-0.190
-630.522	-200.000	-0.001	0.154
-629.507	292.289	-0.029	-0.053
-628.492	-200.000	0.002	-0.080
-627.478	-31.572	-0.050	0.028
-626.463	158.240	0.210	0.292
-625.449	-200.000	0.023	0.153
-624.434	73.996	0.177	-0.186
-623.419	-153.183	-0.175	-0.012
-622.405	-200.000	-0.046	-0.315
-621.390	734.019	0.094	-0.251
-620.376	-121.924	-0.279	0.046
-619.361	-102.824	0.165	-0.039
-618.346	-126.130	0.250	0.038
-617.332	13.403	0.216	-0.167
-616.317	-78.231	-0.321	-0.110
-615.303	-91.470	-0.175	0.050
-614.288	-200.000	-0.048	-0.330
-613.273	488.119	0.060	-0.137
-612.259	110.501	0.084	0.101
-611.244	281.560	0.095	-0.170
-610.230	-21.856	-0.139	0.085
-609.215	800.000	0.059	0.241
-608.201	272.217	0.080	-0.141
-607.186	-56.313	0.382	-0.170
-606.171	18.158	-0.122	0.098
-605.157	-119.601	-0.363	-0.063
-604.142	201.395	-0.038	0.059
-603.128	444.626	-0.213	-0.468
-602.113	800.000	0.056	-0.195
-601.098	-61.149	-0.282	-0.119
-600.084	-159.476	0.381	-0.021
-599.069	-47.032	0.305	0.149
-598.055	562.168	-0.067	-0.163
-597.040	-200.000	0.005	0.126
-596.025	-166.712	-0.261	0.011
-595.011	-125.221	0.185	0.028
-593.996	800.000	-0.060	0.168
-592.982	-200.000	-0.003	-0.238
-591.967	-74.608	-0.314	-0.113
-590.952	-179.463	-0.186	-0.004
-589.938	-177.914	-0.367	-0.009
-588.923	800.000	-0.055	0.160
-587.909	-200.000	0.033	-0.160
-586.894	265.961	-0.113	0.197
-585.879	-128.793	0.088	-0.012
-584.865	-134.068	0.238	-0.029
-583.850	-200.000	0.012	-0.149
-582.836	256.618	-0.067	-0.115
-581.821	-200.000	-0.022	-0.115
-580.806	-82.671	0.376	0.122
-579.792	1.323	-0.345	0.248
-578.777	217.613	-0.194	-0.310
-577.763	800.000	0.111	0.391
-576.748	137.992	0.118	0.155
-575.733	-11.802	-0.071	-0.047
-574.719	111.668	-0.236	-0.285
-573.704	51.220	0.236	0.223
-572.690	-5.989	-0.321	-0.220
-571.675	-140.487	0.268	0.028
-570.661	800.000	0.024	0.087
-569.646	22.831	0.178	0.145
-568.631	1.593	-0.249	0.180
-567.617	-200.000	0.014	-0.199
-566.602	-142.859	0.291	-0.028
-565.588	-96.032	0.438	-0.117
-564.573	371.145	-0.134	-0.272
-563.558	-10.841	-0.237	-0.157
-562.544	-16.996	-0.365	-0.231
-561.529	-172.453	-0.263	-0.008
-560.515	72.428	-0.163	-0.169
-559.500	-86.693	-0.236	-0.072
-558.485	800.000	0.029	0.083
-557.471	146.952	-0.054	0.073
-556.456	800.000	-0.117	0.334
-555.442	-177.949	-0.323	0.008
-554.427	38.116	-0.111	0.099
-553.412	-34.606	-0.210	-0.115
-552.398	131.289	-0.140	-0.179
-551.383	34.708	-0.200	0.175
-550.369	-200.000	-0.023	-0.115
-549.354	789.718	-0.062	-0.171
-548.339	-77.816	0.205	-0.071
-547.325	324.153	0.084	0.159
-546.310	-20.071	0.351	-0.216
-545.296	-200.000	0.029	-0.185
-544.281	-94.235	-0.374	0.102
-543.266	134.381	0.054	-0.070
-542.252	-104.388	0.156	-0.036
-541.237	-200.000	-0.079	-0.373
-540.223	-110.110	0.168	-0.035
-539.208	-33.453	0.124	0.068
-538.193	-75.495	-0.235	0.084
-537.179	-68.675	-0.046	0.018
-536.164	158.290	-0.305	-0.423
-535.150	-121.890	-0.099	0.016
-534.135	-131.894	0.365	-0.048
-533.121	800.000	-0.075	-0.246
-532.106	-80.684	-0.275	-0.091
-531.091	-109.930	-0.259	-0.054
-530.077	800.000	0.044	-0.129
-529.062	233.659	-0.214	-0.351
-528.048	-73.553	-0.119	0.043
-527.033	384.459	-0.093	0.192
-526.018	-200.000	-0.013	-0.185
-525.004	200.874	-0.119	-0.182
-523.989	-200.000	-0.044	0.247
-522.975	40.567	-0.025	0.022
-521.960	-41.299	0.140	-0.072
-520.945	205.025	0.027	-0.042
-519.931	800.000	-0.027	0.116
-518.916	368.908	-0.100	0.202
-517.902	376.416	-0.089	0.181
-516.887	-200.000	-0.020	-0.104
-515.872	176.441	0.094	0.137
-514.858	49.477	-0.220	-0.206
-513.843	34.056	0.072	0.063
-512.829	113.824	0.101	-0.122
-511.814	800.000	0.084	-0.333
-510.799	30.484	-0.174	-0.148
-509.785	400.068	0.143	-0.298
-508.770	197.165	0.105	0.160
-507.756	-200.000	-0.043	0.201
-506.741	-99.788	-0.224	-0.056
-505.726	100.530	0.080	-0.093
-504.712	-149.592	-0.013	-0.001
-503.697	-123.090	0.093	0.015
-502.683	423.211	0.150	0.321
-501.668	-82.232	-0.411	0.133
-500.653	-30.299	-0.300	0.170
-499.639	205.370	-0.002	-0.003
-498.624	-65.324	0.281	0.113
-497.610	50.839	0.124	-0.117
-496.595	-134.067	-0.217	-0.027
-495.581	-61.097	-0.172	0.072
-494.566	-200.000	0.010	0.425
-493.551	105.556	0.094	0.110
-492.537	61.447	0.100	-0.099
-491.522	-60.012	-0.205	-0.087
-490.508	-200.000	0.056	-0.272
-489.493	-5.134	-0.151	0.104
-488.478	-200.000	-0.002	0.021
-487.464	-89.136	-0.126	0.037
-486.449	-132.384	-0.299	-0.038
-485.435	495.504	-0.097	0.223
-484.420	-132.452	0.151	-0.019
-483.405	800.000	0.060	0.228
-482.391	682.261	0.060	-0.156
-481.376	-200.000	-0.062	0.276
-480.362	11.400	-0.320	0.244
-479.347	36.014	0.103	0.090
-478.332	-200.000	0.040	0.394
-477.318	-103.498	-0.465	-0.109
-476.303	191.870	0.105	-0.157
-475.289	-200.000	0.037	-0.177
-474.274	194.041	0.114	0.172
-473.259	-72.511	0.453	-0.167
-472.245	247.608	-0.082	-0.138
-471.230	-200.000	-0.074	-0.331
-470.216	-19.315	0.175	-0.108
-469.201	151.038	0.218	-0.295
-468.186	-34.123	0.143	-0.078
-467.172	341.551	-0.070	-0.136
-466.157	-114.437	0.177	-0.034
-465.143	275.137	0.183	0.322
-464.128	-62.624	-0.382	-0.158
-463.113	-33.249	0.343	0.189
-462.099	461.108	0.055	0.123
-461.084	-40.904	-0.360	0.185
-460.070	-200.000	0.044	-0.335
-459.055	-200.000	0.050	-0.264
-458.040	-75.914	0.235	0.083
-457.026	-151.961	0.122	0.009
-456.011	-7.547	0.311	0.210
-454.997	-44.352	0.052	-0.026
-453.982	595.472	0.020	0.050
-452.968	-200.000	-0.077	-0.362
-451.953	-181.945	-0.164	0.003
-450.938	391.173	-0.101	-0.208
-449.924	333.054	0.070	-0.134
-448.909	23.525	-0.188	0.154
-447.895	-97.911	0.295	0.076
-446.880	135.463	0.048	-0.062
-445.865	-101.887	-0.044	0.011
-444.851	245.651	-0.341	-0.571
-443.836	-200.000	-0.004	-0.075
-442.822	800.000	-0.082	-0.267
-441.807	-200.000	0.033	-0.224
-440.792	-200.000	-0.025	0.257
-439.778	-130.439	-0.126	-0.017
-438.763	18.409	0.069	-0.055
-437.749	-200.000	0.009	-0.260
-436.734	19.385	0.218	0.174
-435.719	800.000	0.161	-0.512
-434.705	13.363	-0.151	0.117
-433.690	800.000	-0.015	-0.050
-432.676	18.344	-0.263	0.209
-431.661	800.000	0.100	-0.277
-430.646	-143.399	-0.211	0.020
-429.632	-200.000	-0.015	-0.152
-428.617	143.821	0.261	-0.346
-427.603	-8.967	-0.218	0.145
-426.588	61.349	0.156	0.154
-425.573	-120.465	0.200	0.034
-424.559	16.385	-0.163	0.128
-423.544	-200.000	-0.047	-0.285
-422.530	560.324	0.052	0.125
-421.515	-19.344	0.131	-0.081
-420.500	179.270	-0.245	0.357
-419.486	-121.524	0.326	-0.054
-418.471	26.774	-0.134	-0.112
-417.457	-83.488	0.312	-0.099
-416.442	89.689	-0.129	0.143
-415.428	-200.000	0.003	0.236
-414.413	197.378	0.252	0.383
-413.398	-70.575	0.278	0.104
-412.384	21.069	-0.187	-0.151
-411.369	53.769	-0.051	-0.048
-410.355	-67.017	0.251	0.098
-409.340	-200.000	0.099	-0.493
-408.325	91.822	0.157	0.176
-407.311	-117.956	-0.051	-0.009
-406.296	-25.469	0.277	0.162
-405.282	800.000	0.004	0.014
-404.267	800.000	0.071	0.262
-403.252	177.290	0.209	0.302
-402.238	37.683	-0.098	-0.087
-401.223	-164.246	-0.233	0.011
-400.209	-161.104	-0.147	-0.008
-399.194	262.891	-0.099	0.170
-398.179	-64.547	-0.458	-0.185
-397.165	141.344	0.147	-0.193
-396.150	655.881	-0.066	0.168
-395.136	-93.711	0.106	0.029
-394.121	52.890	-0.139	-0.132
-393.106	-12.524	-0.133	-0.086
-392.092	-70.533	0.019	-0.007
-391.077	-91.038	0.164	0.047
-390.063	589.211	0.063	-0.153
-389.048	0.567	-0.337	0.239
-388.033	406.462	-0.015	0.031
-387.019	-84.659	-0.362	-0.113
-386.004	158.197	0.169	0.233
-384.990	-116.288	-0.285	-0.052
-383.975	174.396	0.089	0.128
-382.960	103.625	0.150	0.175
-381.946	20.227	0.113	0.091
-380.931	-151.432	0.371	-0.027
-379.917	-200.000	0.000	0.193
-378.902	80.662	-0.272	-0.291
-377.888	-156.744	0.035	0.002
-376.873	-167.797	-0.288	0.011
-375.858	-200.000	0.004	0.297
-374.844	-67.712	-0.237	0.092
-373.829	-96.608	-0.272	-0.071
-372.815	-113.814	0.338	-0.065
-371.800	-155.695	0.204	-0.013
-370.785	-92.500	0.176	-0.049
-369.771	800.000	-0.059	0.176
-368.756	217.915	-0.119	0.188
-367.742	143.311	0.155	-0.204
-366.727	13.540	0.102	-0.078
-365.712	765.889	0.097	0.262
-364.698	496.631	-0.072	-0.165
-363.683	-8.196	-0.122	-0.081
-362.669	-194.139	0.258	-0.002
-361.654	-61.411	-0.090	0.038
-360.639	-200.000	-0.051	0.234
-359.625	800.000	-0.091	0.258
-358.610	426.927	0.090	-0.192
-357.596	235.918	-0.137	0.224
-356.581	24.791	-0.279	-0.229
-355.566	-18.037	0.186	0.115
-354.552	376.935	0.155	0.313
-353.537	203.529	0.064	0.098
-352.523	409.511	-0.153	0.321
-351.508	-96.765	-0.232	0.060
-350.493	-15.319	0.075	-0.048
-349.479	110.637	0.101	-0.120
-348.464	24.876	0.154	0.127
-347.450	46.505	-0.157	0.145
-346.435	800.000	0.085	0.279
-345.420	-123.772	-0.064	0.010
-344.406	16.920	-0.162	-0.127
-343.391	-67.671	-0.196	0.076
-342.377	-200.000	-0.004	0.094
-341.362	-138.577	-0.113	-0.012
-340.348	-148.343	-0.233	0.019
-339.333	800.000	0.009	-0.027
-338.318	150.770	0.136	0.183
-337.304	56.374	0.285	0.275
-336.289	-197.930	-0.104	-0.001
-335.275	-160.514	0.113	-0.006
-334.260	-61.839	-0.070	0.029
-333.245	-200.000	0.073	0.351
-332.231	-53.258	0.105	0.048
-331.216	770.435	-0.206	-0.556
-330.202	-169.005	0.141	-0.005
-329.187	136.802	0.194	0.250
-328.172	5.458	0.109	-0.079
-327.158	-155.760	-0.184	0.012
-326.143	147.194	0.124	-0.165
-325.129	-200.000	-0.015	0.144
-324.114	16.110	0.182	-0.142
-323.099	-200.000	0.010	-0.190
-322.085	-10.364	-0.223	-0.146
-321.070	545.603	-0.101	0.239
-320.056	-200.000	-0.016	0.071
-319.041	153.028	-0.089	0.121
-318.026	-84.359	0.193	-0.060
-317.012	-160.286	0.268	-0.014
-315.997	236.109	0.106	0.174
-314.983	92.783	0.261	-0.292
-313.968	800.000	0.109	-0.335
-312.953	-152.504	-0.229	0.016
-311.939	-92.002	0.154	-0.043
-310.924	531.015	-0.091	-0.212
-309.910	335.752	-0.122	-0.234
-308.895	-200.000	-0.011	0.115
-307.880	151.877	-0.046	0.061
-306.866	-200.000	-0.036	0.173
-305.851	-200.000	0.018	0.095
-304.837	86.248	0.060	0.066
-303.822	-158.345	0.185	0.011
-302.807	800.000	-0.069	-0.278
-301.793	-1.889	0.485	0.337
-300.778	23.151	-0.127	-0.104
-299.764	-53.984	0.102	0.046
-298.749	-44.410	-0.318	0.158
-297.735	30.641	-0.067	-0.057
-296.720	-87.321	-0.214	-0.064
-295.705	-14.643	0.262	-0.167
-294.691	800.000	0.068	-0.195
-293.676	-56.117	0.450	-0.198
-292.662	-53.086	0.202	0.092
-291.647	-177.742	-0.293	-0.007
-290.632	800.000	-0.190	-0.585
-289.618	76.177	-0.132	-0.138
-288.603	-172.889	0.201	-0.006
-287.589	-132.159	0.045	-0.006
-286.574	-63.145	0.263	-0.107
-285.559	-3.259	0.096	-0.066
-284.545	307.217	0.112	0.207
-283.530	800.000	-0.068	0.186
-282.516	199.592	-0.112	0.169
-281.501	250.384	-0.173	0.290
-280.486	-76.189	-0.247	-0.086
-279.472	-141.558	0.151	-0.015
-278.457	685.398	0.041	0.106
-277.443	-32.168	-0.306	0.169
-276.428	-42.646	0.222	-0.112
-275.413	-23.647	0.250	-0.148
-274.399	-92.553	-0.272	0.075
-273.384	-200.000	0.007	0.130
-272.370	-200.000	-0.005	0.040
-271.355	-200.000	0.065	0.293
-270.340	-188.286	-0.125	-0.002
-269.326	278.279	-0.072	0.127
-268.311	13.852	0.237	0.182
-267.297	80.940	-0.090	0.096
-266.282	20.852	0.178	0.143
-265.267	144.939	-0.212	0.280
-264.253	42.285	-0.059	-0.053
-263.238	-96.294	-0.031	0.008
-262.224	-200.000	-0.076	-0.336
-261.209	-200.000	0.039	-0.176
-260.195	565.888	-0.080	0.191
-259.180	-200.000	-0.030	0.145
-258.165	-200.000	-0.034	-0.167
-257.151	-30.627	-0.070	-0.039
-256.136	-128.731	0.187	0.026
-255.122	208.245	0.149	0.230
-254.107	-200.000	0.059	0.296
-253.092	-111.834	0.182	-0.036
-252.078	-55.347	0.089	0.039
-251.063	384.223	0.079	-0.161
-250.049	-200.000	-0.035	-0.297
-249.034	-8.326	-0.060	0.040
-248.019	800.000	-0.114	-0.390
-247.005	579.301	-0.083	-0.201
-245.990	-200.000	-0.043	-0.231
-244.976	-23.955	0.128	0.075
-243.961	-74.664	-0.262	-0.093
-242.946	-200.000	0.004	-0.110
-241.932	-0.426	0.191	-0.134
-240.917	69.804	-0.222	0.226
-239.903	-200.000	-0.008	0.434
-238.888	-121.470	0.202	0.033
-237.873	-36.366	-0.257	0.137
-236.859	-157.598	-0.141	-0.008
-235.844	125.023	-0.240	0.298
-234.830	198.057	-0.076	0.115
-233.815	-21.407	0.031	-0.019
-232.800	10.313	0.104	-0.078
-231.786	-200.000	0.031	-0.211
-230.771	-200.000	0.001	-0.043
-229.757	-54.520	0.224	-0.100
-228.742	800.000	0.124	-0.433
-227.727	-84.130	0.262	0.082
-226.713	-9.454	-0.135	0.089
-225.698	56.113	0.145	0.139
-224.684	800.000	0.050	-0.171
-223.669	-200.000	-0.068	-0.448
-222.655	-31.996	0.251	0.138
-221.640	-96.708	0.214	-0.056
-220.625	-35.445	-0.168	0.090
-219.611	-200.000	0.047	0.273
-218.596	-200.000	0.020	-0.156
-217.582	-112.665	-0.167	-0.033
-216.567	-19.190	-0.080	0.049
-215.552	-98.637	0.394	0.099
-214.538	-25.996	0.084	0.049
-213.523	-200.000	-0.003	0.095
-212.509	254.899	0.178	0.301
-211.494	-90.424	-0.316	-0.090
-210.479	-174.531	0.083	0.002
-209.465	-59.204	0.253	0.108
-208.450	193.766	-0.025	0.038
-207.436	114.313	0.124	0.148
-206.421	-109.432	-0.396	0.082
-205.406	-200.000	-0.013	-0.072
-204.392	-200.000	0.023	-0.320
-203.377	561.631	-0.101	0.241
-202.363	-200.000	0.019	0.576
-201.348	-11.534	-0.095	0.062
-200.333	381.395	0.109	-0.221
-199.319	-200.000	-0.016	0.190
-198.304	800.000	-0.058	-0.204
-197.290	542.129	-0.071	0.168
-196.275	-200.000	0.040	-0.216
-195.260	800.000	0.080	0.300
-194.246	36.139	-0.194	-0.168
-193.231	55.887	0.197	0.189
-192.217	742.421	-0.018	0.047
-191.202	344.024	0.168	-0.324
-190.187	-200.000	0.045	0.213
-189.173	-40.214	0.240	-0.123
-188.158	-200.000	0.030	0.239
-187.144	-200.000	-0.048	-0.391
-186.129	80.618	0.011	0.012
-185.114	-41.042	0.230	-0.117
-184.100	-51.925	0.273	-0.125
-183.085	121.299	0.200	-0.245
-182.071	71.256	-0.112	0.114
-181.056	-35.561	0.177	-0.095
-180.042	-163.133	0.231	0.011
-179.027	-165.646	0.405	0.017
-178.012	-74.470	-0.318	-0.113
-176.998	800.000	0.085	0.345
-175.983	800.000	-0.065	0.195
-174.969	39.576	0.148	0.131
-173.954	800.000	0.070	-0.255
-172.939	-75.504	0.200	-0.070
-171.925	-23.472	0.021	0.012
-170.910	636.537	-0.060	-0.150
-169.896	127.633	0.120	0.150
-168.881	76.870	0.041	0.043
-167.866	-200.000	0.030	0.309
-166.852	222.811	-0.177	0.280
-165.837	18.620	-0.146	0.115
-164.823	400.092	-0.138	0.285
-163.808	14.063	0.127	0.097
-162.793	-200.000	-0.012	0.177
-161.779	800.000	-0.063	0.216
-160.764	-26.318	0.259	-0.150
-159.750	686.936	0.137	0.353
-158.735	800.000	-0.038	-0.115
-157.720	-99.360	-0.173	0.043
-156.706	-48.350	0.052	0.024
-155.691	-59.412	0.272	0.115
-154.677	91.585	0.153	0.169
-153.662	-81.086	0.276	0.090
-152.647	229.308	-0.083	-0.133
-151.633	-200.000	0.001	0.213
-150.618	362.764	0.079	0.156
-149.604	-200.000	-0.003	0.065
-148.589	48.959	0.140	-0.129
-147.574	-62.857	-0.389	0.158
-146.560	-200.000	-0.026	0.294
-145.545	481.178	0.134	0.298
-144.531	-47.528	-0.265	0.127
-143.516	800.000	-0.118	0.408
-142.502	134.883	-0.044	0.056
-141.487	-200.000	0.006	0.053
-140.472	195.134	0.103	-0.154
-139.458	-88.632	-0.413	0.121
-138.443	800.000	-0.108	-0.396
-137.429	-22.557	0.061	0.036
-136.414	101.868	0.210	-0.241
-135.399	-191.533	-0.273	-0.003
-134.385	-127.662	-0.320	0.045
-133.370	-27.015	0.108	-0.062
-132.356	-200.000	0.048	-0.206
-131.341	25.933	0.210	-0.172
-130.326	-164.137	0.113	0.005
-129.312	-33.703	0.087	-0.047
-128.297	207.661	-0.018	-0.028
-127.283	347.483	-0.123	0.238
-126.268	-200.000	-0.004	0.331
-125.253	-119.424	-0.189	0.032
-124.239	-106.385	0.275	-0.060
-123.224	265.199	0.149	0.256
-122.210	-106.637	-0.288	-0.063
-121.195	-200.000	0.011	-0.147
-120.180	-200.000	0.005	0.117
-119.166	-22.768	-0.200	-0.118
-118.151	250.616	0.057	-0.095
-117.137	-90.831	-0.199	0.056
-116.122	87.039	0.008	-0.008
-115.107	320.439	-0.149	0.278
-114.093	-200.000	0.005	0.266
-113.078	-38.845	0.188	0.097
-112.064	415.190	0.096	0.200
-111.049	129.580	-0.104	0.131
-110.034	727.818	-0.090	0.235
-109.020	131.758	0.304	0.384
-108.005	785.252	-0.093	0.252
-106.991	-159.405	0.157	0.009
-105.976	101.606	0.150	-0.171
-104.962	100.006	0.135	-0.153
-103.947	-58.613	0.091	0.039
-102.932	-77.614	0.241	-0.082
-101.918	-200.000	0.035	-0.260
-100.903	178.637	0.098	-0.140
-99.889	180.559	-0.102	-0.147
-98.874	-76.227	0.111	0.038
-97.859	-200.000	-0.037	-0.290
-96.845	800.000	-0.017	0.057
-95.830	800.000	-0.024	-0.087
-94.816	-4.666	0.094	-0.064
-93.801	-200.000	0.048	-0.247
-92.786	170.181	-0.144	0.202
-91.772	395.684	0.112	0.228
-90.757	-39.937	0.081	-0.042
-89.743	74.232	0.272	0.280
-88.728	-130.744	-0.224	-0.030
-87.713	-67.577	0.178	-0.068
-86.699	800.000	0.066	0.242
-85.684	-52.787	0.191	-0.086
-84.670	-200.000	-0.001	0.146
-83.655	-177.615	-0.333	-0.008
-82.640	94.442	-0.152	0.170
-81.626	94.826	0.278	0.310
-80.611	-136.698	-0.131	-0.015
-79.597	-31.297	-0.275	-0.152
-78.582	-113.578	0.321	0.062
-77.567	16.532	-0.098	0.076
-76.553	-79.427	-0.299	-0.099
-75.538	210.390	0.103	0.159
-74.524	-200.000	-0.058	0.326
-73.509	205.270	-0.096	-0.146
-72.494	60.087	-0.080	-0.077
-71.480	188.004	0.115	0.169
-70.465	800.000	0.082	-0.282
-69.451	410.500	0.143	-0.296
-68.436	-61.354	0.167	-0.069
-67.422	266.240	0.203	0.348
-66.407	-58.898	0.163	-0.069
-65.392	-200.000	0.013	0.224
-64.378	800.000	0.113	0.321
-63.363	-101.922	-0.422	0.100
-62.349	-200.000	0.002	0.077
-61.334	42.953	-1.031	-0.921
-60.319	501.878	0.300	0.679
-59.305	800.000	-0.206	-0.846
-58.290	64.565	1.057	1.045
-57.276	165.836	0.862	1.196
-56.261	-200.000	113.410	648.739
-55.246	538.132	1520.690	3540.990
-54.232	179.002	2684.073	3844.814
-53.217	109.307	2147.807	2518.862
-52.203	39.101	1595.597	1397.732
-51.188	30.942	1343.148	1127.431
-50.173	28.092	1305.145	1078.704
-49.159	55.040	1362.371	1289.030
-48.144	54.094	1376.372	1296.547
-47.130	31.185	1331.493	1118.927
-46.115	27.718	1314.420	1083.973
-45.100	27.590	1309.485	1079.106
-44.086	27.507	1306.995	1076.519
-43.071	27.412	1304.948	1074.229
-42.057	27.490	1302.402	1072.554
-41.042	27.555	1300.945	1071.692
-40.027	27.514	1299.391	1070.126
-39.013	27.558	1296.937	1068.321
-37.998	27.585	1295.559	1067.302
-36.984	27.611	1293.927	1066.067
-35.969	27.701	1291.762	1064.767
-34.954	27.577	1291.006	1063.382
-33.940	27.697	1289.123	1062.483
-32.925	27.772	1287.426	1061.481
-31.911	27.595	1286.587	1059.717
-30.896	27.713	1284.763	1058.858
-29.881	27.745	1283.737	1058.157
-28.867	27.828	1282.303	1057.414
-27.852	27.718	1280.961	1055.628
-26.838	27.751	1279.278	1054.391
-25.823	27.893	1277.428	1053.643
-24.809	27.729	1277.046	1052.338
-23.794	27.616	1275.584	1050.443
-22.779	27.676	1274.107	1049.532
-21.765	27.764	1272.873	1048.979
-20.750	27.763	1271.586	1047.872
-19.736	27.587	1270.474	1045.902
-18.721	27.512	1269.813	1044.885
-17.706	27.567	1268.582	1044.148
-16.692	27.612	1267.168	1043.202
-15.677	27.582	1266.222	1042.209
-14.663	27.635	1264.601	1041.136
-13.648	27.550	1264.353	1040.403
-12.633	27.613	1262.894	1039.519
-11.619	27.513	1262.665	1038.724
-10.604	27.624	1260.928	1037.882
-9.590	27.678	1259.911	1037.312
-8.575	27.520	1259.261	1035.839
-7.560	27.528	1258.024	1034.822
-6.546	27.605	1257.591	1034.861
-5.531	27.593	1256.776	1034.081
-4.517	27.643	1255.611	1033.367
-3.502	27.696	1254.669	1032.849
-2.487	27.668	1253.469	1031.664
-1.473	27.539	1249.884	1027.948
-0.458	26.013	1234.594	1006.820
0.556	24.003	1217.749	969.256
1.571	20.225	1222.734	952.435
2.586	19.246	1237.771	958.621
3.600	19.043	1225.997	948.296
4.615	14.616	1154.549	869.927
5.629	7.230	1082.360	779.250
6.644	4.175	1063.806	751.035
7.659	3.856	1061.370	747.706
8.673	3.566	1060.622	745.715
9.688	3.725	1058.584	744.982
10.702	4.020	1057.256	745.402
11.717	8.742	1063.743	772.737
12.731	16.831	1074.859	820.040
13.746	21.811	1080.508	848.440
14.761	22.561	1081.731	852.957
15.775	21.986	1080.116	848.828
16.790	20.995	1078.256	842.502
17.804	20.459	1076.856	838.747
18.819	20.193	1076.050	836.764
19.834	20.274	1075.505	836.658
20.848	20.281	1074.604	835.915
21.863	20.218	1073.921	835.004
22.877	19.953	1073.244	833.133
23.892	19.905	1072.422	832.186
24.907	19.716	1072.107	830.960
25.921	19.868	1070.650	830.487
26.936	19.811	1069.009	828.870
27.950	19.750	1067.934	827.670
28.965	19.914	1066.106	826.963
29.980	20.056	1065.031	826.734
30.994	20.201	1064.718	827.112
32.009	20.236	1063.864	826.542
33.023	20.207	1062.511	825.279
34.038	20.099	1061.352	823.792
35.053	19.926	1060.774	822.448
36.067	19.811	1059.812	821.083
37.082	19.916	1059.402	821.191
38.096	19.989	1058.614	820.855
39.111	20.150	1057.817	820.924
40.126	19.701	1056.547	817.742
41.140	19.402	1054.928	815.006
42.155	19.301	1053.649	813.467
43.169	19.249	1052.445	812.224
44.184	19.277	1051.439	811.504
45.199	19.359	1050.293	810.934
46.213	19.569	1049.457	811.204
47.228	19.747	1049.172	811.747
48.242	19.896	1048.113	811.556
49.257	19.918	1047.469	811.089
50.271	19.956	1046.508	810.450
51.286	20.082	1045.508	810.191
52.301	19.874	1044.934	808.706
53.315	19.852	1043.620	807.512
54.330	19.730	1042.416	805.941
55.344	19.464	1041.741	804.110
56.359	19.593	1040.829	803.935
57.374	19.360	1040.293	802.365
58.388	19.278	1038.982	800.904
59.403	19.263	1037.891	799.921
60.417	19.154	1037.584	799.106
61.432	19.121	1036.943	798.391
62.447	19.126	1035.770	797.442
63.461	19.049	1035.189	796.564
64.476	19.027	1034.022	795.497
65.490	18.969	1033.554	794.796
66.505	19.156	1032.398	794.699
67.520	19.100	1032.137	794.172
68.534	19.040	1031.022	792.967
69.549	18.989	1030.339	792.135
70.563	19.008	1029.157	791.244
71.578	18.764	1028.638	789.656
72.593	18.773	1027.759	788.949
73.607	18.702	1027.288	788.191
74.622	18.808	1026.691	788.153
75.636	18.782	1026.224	787.605
76.651	18.939	1025.452	787.663
77.666	18.859	1025.329	787.131
78.680	18.892	1024.494	786.573
79.695	18.998	1023.567	786.276
80.709	19.318	1022.868	787.127
81.724	19.258	1022.542	786.537
82.739	19.455	1021.983	786.934
83.753	19.817	1021.287	787.978
84.768	20.291	1021.200	790.002
85.782	20.327	1020.349	789.433
86.797	20.316	1018.972	788.250
87.812	20.179	1018.020	786.823
88.826	20.241	1016.805	786.094
89.841	20.199	1016.141	785.322
90.855	20.238	1015.753	785.126
91.870	20.266	1015.308	784.839
92.884	20.222	1013.979	783.544
93.899	20.144	1013.296	782.595
94.914	20.265	1012.406	782.384
95.928	20.115	1011.674	781.075
96.943	20.097	1010.071	779.686
97.957	19.918	1009.754	778.569
98.972	19.989	1008.968	778.211
99.987	20.078	1008.030	777.820
101.001	20.164	1006.576	777.016
102.016	20.081	1005.875	776.034
103.030	20.102	1005.141	775.494
104.045	20.060	1004.643	774.853
105.060	19.915	1003.366	773.151
106.074	19.766	1001.869	771.265
107.089	19.496	1000.770	769.145
108.103	19.197	999.590	766.839
109.118	19.170	998.544	765.850
110.133	19.082	997.792	764.813
111.147	18.992	997.127	763.839
112.162	19.098	996.001	763.377
113.176	19.379	996.160	764.677
114.191	19.489	995.124	764.304
115.206	19.479	993.909	763.256
116.220	19.362	993.286	762.192
117.235	19.144	992.579	760.619
118.249	19.161	991.528	759.823
119.264	19.192	990.295	758.950
120.279	18.951	989.909	757.522
121.293	18.904	988.870	756.457
122.308	18.831	987.934	755.352
123.322	18.753	986.827	754.095
124.337	18.756	985.596	753.100
125.352	18.678	984.962	752.208
126.366	18.759	984.039	751.792
127.381	18.839	983.044	751.314
128.395	18.743	982.235	750.211
129.410	18.910	981.531	750.335
130.424	19.105	980.573	750.389
131.439	19.197	980.618	750.754
132.454	19.265	979.647	750.244
133.468	19.338	978.320	749.475
134.483	19.328	977.524	748.756
135.497	19.329	976.827	748.163
136.512	19.338	975.841	747.379
137.527	19.390	975.185	747.035
138.541	19.399	974.690	746.630
139.556	19.547	973.798	746.520
140.570	19.725	974.168	747.509
141.585	19.937	972.906	747.389
142.600	19.957	972.359	746.986
143.614	20.083	971.362	746.699
144.629	20.233	970.328	746.484
145.643	19.999	969.494	744.769
146.658	19.937	967.878	743.198
147.673	19.637	967.050	741.208
148.687	19.503	966.193	739.913
149.702	19.327	965.205	738.337
150.716	19.514	964.006	738.154
151.731	19.480	963.707	737.713
152.746	19.510	963.034	737.261
153.760	19.625	962.071	736.951
154.775	19.488	962.237	736.427
155.789	19.836	961.216	737.062
156.804	19.833	960.157	736.175
157.819	19.871	959.572	735.821
158.833	19.958	959.345	735.954
159.848	20.204	958.182	736.040
160.862	19.970	957.260	734.273
161.877	19.666	955.496	731.569
162.892	19.403	954.824	729.877
163.906	19.410	953.320	728.692
164.921	19.443	952.900	728.445
165.935	19.585	952.010	728.300
166.950	19.608	951.110	727.643
167.964	19.486	950.568	726.651
168.979	19.546	949.307	725.874
169.994	19.414	948.400	724.563
171.008	19.693	947.672	725.111
172.023	19.933	947.535	725.950
173.037	19.993	947.103	725.809
174.052	19.829	945.662	723.952
175.067	19.457	944.599	721.520
176.081	19.217	944.044	720.028
177.096	19.295	943.100	719.569
178.110	19.418	942.849	719.829
179.125	19.370	942.646	719.411
180.140	19.445	942.266	719.370
181.154	19.715	942.107	720.307
182.169	19.952	941.232	720.562
183.183	19.967	940.752	720.195
184.198	19.899	940.094	719.345
185.213	19.973	939.063	718.800
186.227	20.005	938.652	718.553
187.242	20.166	938.143	718.769
188.256	20.141	938.199	718.644
189.271	20.254	937.263	718.332
190.286	19.838	935.853	715.464
191.300	19.322	934.715	712.399
192.315	19.052	934.279	710.889
193.329	19.408	933.212	711.482
194.344	19.521	932.595	711.417
195.359	19.594	932.575	711.640
196.373	19.825	931.686	711.848
197.388	19.901	932.012	712.347
198.402	20.255	931.608	713.431
199.417	20.344	931.354	713.538
200.432	20.529	930.692	713.727
201.446	20.579	930.210	713.499
202.461	20.570	929.969	713.218
203.475	20.478	928.592	711.719
204.490	20.142	927.736	709.625
205.504	19.886	926.777	707.784
206.519	19.985	925.826	707.401
207.534	19.860	925.220	706.361
208.548	19.973	924.906	706.522
209.563	20.027	923.745	705.794
210.577	20.049	923.319	705.496
211.592	20.283	923.295	706.368
212.607	20.457	922.062	706.068
213.621	20.346	921.563	705.170
214.636	20.312	920.718	704.323
215.650	20.497	919.928	704.408
216.665	20.319	919.659	703.417
217.680	20.529	918.751	703.511
218.694	20.521	918.047	702.877
219.709	20.492	917.592	702.351
220.723	20.431	916.881	701.498
221.738	20.313	916.393	700.587
222.753	20.425	915.185	700.053
223.767	20.356	915.584	700.018
224.782	20.713	914.605	700.645
225.796	20.665	914.356	700.197
226.811	20.528	913.244	698.732
227.826	20.259	912.571	697.077
228.840	20.291	911.361	696.219
229.855	20.226	910.572	695.293
230.869	20.269	910.372	695.252
231.884	20.137	909.564	694.044
232.899	20.052	908.784	693.050
233.913	19.962	907.769	691.855
234.928	19.860	907.364	691.078
235.942	19.666	907.089	690.032
236.957	19.888	905.977	690.009
237.972	19.870	905.465	689.486
238.986	19.940	905.327	689.598
240.001	19.924	904.508	688.850
241.015	20.107	904.165	689.259
242.030	20.186	903.233	688.798
243.045	20.272	902.854	688.790
244.059	20.139	902.295	687.777
245.074	20.274	901.991	688.018
246.088	20.447	901.541	688.299
247.103	20.727	900.762	688.752
248.117	20.836	900.670	689.051
249.132	21.070	900.731	689.963
250.147	21.393	900.229	690.795
251.161	21.414	899.533	690.283
252.176	21.435	899.032	689.917
253.190	21.527	898.099	689.504
254.205	21.662	897.516	689.528
255.220	21.400	896.934	687.990
256.234	21.401	896.226	687.390
257.249	21.446	895.138	686.672
258.263	21.321	894.454	685.593
259.278	21.296	894.205	685.245
260.293	21.329	893.842	685.036
261.307	21.614	892.618	685.151
262.322	21.603	892.315	684.816
263.336	21.631	891.579	684.300
264.351	21.546	891.212	683.625
265.366	21.635	890.421	683.305
266.380	21.460	889.866	682.136
267.395	21.245	889.459	680.926
268.409	21.326	888.172	680.197
269.424	21.296	887.423	679.447
270.439	21.243	886.752	678.668
271.453	21.090	885.846	677.319
272.468	21.042	885.498	676.808
273.482	21.098	884.818	676.443
274.497	21.192	884.005	676.125
275.512	21.161	883.660	675.683
276.526	21.058	883.557	675.145
277.541	21.143	883.217	675.155
278.555	21.424	882.749	675.822
279.570	21.766	881.644	676.237
280.585	21.609	881.225	675.249
281.599	21.236	880.167	672.945
282.614	21.109	879.120	671.596
283.628	21.282	878.678	671.865
284.643	21.258	878.054	671.236
285.657	21.383	877.344	671.111
286.672	21.175	877.237	670.171
287.687	21.251	876.678	669.979
288.701	21.264	875.967	669.424
289.716	21.287	875.543	669.130
290.730	21.271	874.683	668.353
291.745	21.342	874.202	668.195
292.760	21.439	873.879	668.263
293.774	21.793	873.301	669.112
294.789	21.598	872.596	667.770
295.803	21.318	871.754	665.999
296.818	21.291	870.802	665.110
297.833	21.189	870.504	664.434
298.847	21.215	869.777	663.920
299.862	21.297	869.593	664.033
300.876	21.446	869.186	664.229
301.891	21.687	868.617	664.651
302.906	21.840	868.238	664.881
303.920	21.929	868.043	665.011
304.935	22.001	867.455	664.773
305.949	21.876	866.594	663.581
306.964	21.709	865.561	662.102
307.979	21.733	865.124	661.799
308.993	21.736	864.972	661.634
310.008	21.923	863.888	661.453
311.022	21.765	863.055	660.163
312.037	21.602	862.466	659.038
313.052	21.309	861.792	657.362
314.066	21.195	861.443	656.610
315.081	21.082	861.023	655.806
316.095	21.219	860.339	655.744
317.110	21.286	859.476	655.279
318.125	21.260	858.703	654.534
319.139	21.157	858.661	654.059
320.154	21.121	858.482	653.727
321.168	21.301	857.776	653.808
322.183	21.276	857.270	653.271
323.197	21.442	856.499	653.244
324.212	21.444	856.042	652.844
325.227	21.364	855.555	652.119
326.241	21.276	855.011	651.318
327.256	21.188	854.338	650.418
328.270	21.220	853.839	650.100
329.285	21.263	853.136	649.669
330.300	21.088	852.437	648.428
331.314	21.325	852.080	648.981
332.329	21.474	851.968	649.391
333.343	21.659	851.354	649.552
334.358	21.722	850.866	649.356
335.373	21.719	850.878	649.296
336.387	21.851	850.483	649.423
337.402	21.877	850.462	649.449
338.416	22.157	850.040	650.103
339.431	22.266	849.736	650.218
340.446	22.284	849.478	650.027
341.460	22.324	849.185	649.896
342.475	22.373	848.799	649.722
343.489	22.338	848.627	649.404
344.504	22.560	847.751	649.493
345.519	22.591	847.695	649.509
346.533	22.485	846.372	648.046
347.548	22.228	845.668	646.505
348.562	21.803	845.410	644.689
349.577	21.845	844.398	644.013
350.592	21.660	843.582	642.656
351.606	21.649	842.972	642.096
352.621	21.716	842.326	641.793
353.635	21.800	841.731	641.587
354.650	21.830	841.153	641.200
355.665	22.039	840.761	641.609
356.679	22.082	839.970	641.106
357.694	22.085	839.359	640.592
358.708	22.091	838.604	639.983
359.723	21.903	837.947	638.741
360.738	22.083	837.443	638.955
361.752	22.092	837.006	638.598
362.767	22.385	836.705	639.376
363.781	22.576	836.329	639.725
364.796	22.776	835.875	640.048
365.810	22.965	835.629	640.488
366.825	22.838	835.416	639.807
367.840	22.650	834.760	638.567
368.854	22.548	834.005	637.562
369.869	22.453	833.311	636.634
370.883	22.465	833.153	636.500
371.898	22.789	832.550	637.153
372.913	22.656	832.705	636.733
373.927	22.591	831.596	635.594
374.942	22.671	831.356	635.643
375.956	22.720	831.374	635.778
376.971	22.933	830.794	636.045
377.986	23.028	830.503	636.109
379.000	23.061	829.833	635.658
380.015	22.861	829.223	634.415
381.029	22.831	828.747	633.888
382.044	22.959	827.679	633.474
383.059	23.045	827.174	633.339
384.073	22.811	826.428	631.873
385.088	22.607	825.559	630.425
386.102	22.314	825.021	628.911
387.117	22.334	824.050	628.185
388.132	22.428	823.532	628.069
389.146	22.550	823.410	628.358
390.161	22.666	823.482	628.769
391.175	22.835	822.813	628.807
392.190	22.671	822.225	627.719
393.205	22.501	821.482	626.490
394.219	22.271	821.190	625.393
395.234	22.259	820.629	624.868
396.248	22.162	820.104	624.069
397.263	22.068	819.535	623.248
398.278	22.016	819.296	622.825
399.292	22.087	818.605	622.498
400.307	22.305	818.086	622.820
401.321	22.260	817.531	622.184
402.336	22.319	817.637	622.417
403.350	22.419	817.131	622.329
404.365	22.757	816.730	623.165
405.380	23.039	816.290	623.769
406.394	23.124	816.241	623.976
407.409	23.029	816.103	623.480
408.423	23.195	815.634	623.650
409.438	23.250	814.821	623.167
410.453	23.157	815.270	623.129
411.467	23.303	814.400	622.922
412.482	23.459	813.858	623.001
413.496	23.551	813.606	623.076
414.511	23.376	813.216	622.108
415.526	23.332	812.421	621.288
416.540	23.229	811.990	620.543
417.555	23.214	811.511	620.071
418.569	23.097	811.327	619.464
419.584	23.252	810.407	619.249
420.599	23.214	810.092	618.822
421.613	164.310	1372.371	1798.871
422.628	143.083	1454.282	1798.936
