DTS Sentinel unit serial number:	SN413079Multiplexer serial number:	ORYXHardware model number:	OX4-SRSoftware version number:	ORYX F/W v4.00 Oryx Data Collector v3.7.2.0data status	okinstallation	princeton_trtdifferential loss correction	single-endedforward channel	channel 1reverse channel	N/Adate	2019/09/11time	10:44:11forward acquisition time	60.00reverse acquisition time	0.00gamma	496.2192k internal	0.2298k external	0.2298temperature offset calibration	0.9952default loss term (dB/km)	0.3790temperature slope calibration	1.0000multiplexer offset coefficient	1.0000multiplexer slope coefficient	1.0000fibre end	0.00T internal ref (°C)	36.77T ext. ref 1 (°C)	0.17T ext. ref 2 (°C)	33.76length (m)	temperature (°C)	Stokes	anti-Stokes-747.200	7.584	0.350	0.267
-746.185	312.993	0.169	0.324
-745.171	-191.754	0.275	-0.003
-744.156	117.486	-0.118	0.148
-743.142	-189.083	0.227	-0.003
-742.127	-123.240	-0.150	-0.024
-741.112	209.663	-0.203	-0.324
-740.098	-200.000	0.023	0.247
-739.083	-32.452	0.256	-0.146
-738.069	-147.971	0.205	0.017
-737.054	-12.975	0.408	-0.271
-736.039	-200.000	-0.064	-0.368
-735.025	-33.361	0.116	0.065
-734.010	54.135	-0.255	-0.251
-732.996	338.022	-0.060	-0.119
-731.981	170.339	-0.216	-0.315
-730.966	10.337	0.075	-0.058
-729.952	800.000	-0.050	-0.169
-728.937	-26.408	-0.163	-0.098
-727.923	25.213	0.341	-0.289
-726.908	18.604	0.177	-0.144
-725.894	108.525	0.023	0.028
-724.879	-65.659	-0.245	0.100
-723.864	-157.053	0.159	-0.010
-722.850	106.814	0.137	0.166
-721.835	213.119	-0.204	-0.329
-720.821	-200.000	-0.076	-0.544
-719.806	466.143	-0.079	-0.180
-718.791	-200.000	-0.002	-0.047
-717.777	168.912	-0.087	-0.126
-716.762	124.041	-0.240	-0.307
-715.748	-96.675	0.044	-0.012
-714.733	-163.466	-0.311	0.015
-713.718	-200.000	-0.031	-0.273
-712.704	201.382	0.092	0.145
-711.689	48.601	-0.113	0.108
-710.675	-34.141	0.189	0.106
-709.660	320.040	-0.119	0.230
-708.645	28.668	-0.100	0.086
-707.631	43.302	-0.064	0.060
-706.616	-152.955	0.042	0.003
-705.602	114.843	-0.215	-0.268
-704.587	-103.922	0.313	-0.075
-703.572	149.276	-0.139	0.192
-702.558	-131.573	0.136	-0.018
-701.543	-200.000	-0.001	-0.286
-700.529	435.408	-0.105	-0.232
-699.514	-116.038	0.091	-0.017
-698.499	-200.000	-0.024	-0.274
-697.485	349.055	-0.095	0.191
-696.470	-200.000	-0.020	-0.307
-695.456	60.386	0.217	-0.219
-694.441	-200.000	-0.026	0.222
-693.426	-74.412	0.243	0.089
-692.412	-44.773	0.212	0.108
-691.397	-200.000	0.029	-0.167
-690.383	57.987	-0.247	0.246
-689.368	93.815	-0.136	0.157
-688.354	436.775	-0.061	0.135
-687.339	-119.829	-0.318	-0.056
-686.324	321.778	0.026	-0.051
-685.310	29.984	0.317	-0.275
-684.295	93.267	-0.198	-0.229
-683.281	-111.053	-0.537	0.112
-682.266	172.863	0.052	-0.076
-681.251	-108.874	-0.281	-0.061
-680.237	5.235	-0.187	0.140
-679.222	-200.000	-0.003	-0.217
-678.208	67.479	-0.229	0.238
-677.193	-108.278	-0.169	-0.037
-676.178	-178.037	-0.329	-0.008
-675.164	-200.000	-0.016	-0.224
-674.149	800.000	0.167	-0.481
-673.135	-164.103	-0.302	-0.014
-672.120	-115.017	0.078	0.015
-671.105	-200.000	-0.040	0.287
-670.091	33.513	0.062	-0.055
-669.076	-28.721	0.168	-0.099
-668.062	-200.000	0.069	-0.404
-667.047	5.221	-0.150	0.113
-666.032	-41.397	-0.318	0.167
-665.018	-30.498	-0.090	-0.052
-664.003	-92.482	-0.281	-0.080
-662.989	-57.163	-0.334	-0.150
-661.974	-200.000	0.075	-0.435
-660.959	-100.856	-0.108	0.027
-659.945	-14.551	-0.079	-0.052
-658.930	-57.973	0.248	-0.110
-657.916	-43.977	-0.306	0.156
-656.901	-29.221	-0.094	0.055
-655.886	-18.011	0.135	0.086
-654.872	-131.751	-0.272	0.036
-653.857	-134.094	-0.119	0.015
-652.843	-102.395	0.210	-0.051
-651.828	532.309	-0.079	0.190
-650.814	-180.448	0.177	0.004
-649.799	92.677	0.204	-0.235
-648.784	-200.000	0.040	-0.338
-647.770	-40.825	0.074	-0.039
-646.755	107.533	0.311	0.376
-645.741	-77.229	0.268	0.095
-644.726	800.000	0.014	-0.047
-643.711	-200.000	0.035	-0.273
-642.697	-128.264	-0.284	0.041
-641.682	800.000	-0.019	-0.067
-640.668	-142.302	-0.136	0.014
-639.653	-40.200	-0.401	-0.213
-638.638	102.216	-0.097	0.115
-637.624	154.019	-0.105	0.147
-636.609	-81.248	0.220	-0.074
-635.595	371.610	-0.150	-0.310
-634.580	-66.957	0.214	-0.086
-633.565	-200.000	-0.008	0.287
-632.551	-5.719	0.221	0.154
-631.536	241.755	0.116	-0.196
-630.522	-87.150	0.126	-0.039
-629.507	-55.986	0.074	-0.034
-628.492	557.403	0.093	-0.228
-627.478	-200.000	-0.046	0.601
-626.463	379.237	0.096	-0.199
-625.449	209.049	-0.180	-0.287
-624.434	800.000	-0.039	0.126
-623.419	-200.000	0.012	-0.236
-622.405	-57.565	0.213	-0.095
-621.390	325.080	0.112	0.217
-620.376	-200.000	0.003	-0.284
-619.361	737.732	-0.028	-0.077
-618.346	449.889	0.171	-0.384
-617.332	-37.090	0.416	0.227
-616.317	-200.000	0.031	0.150
-615.303	-183.318	-0.245	0.004
-614.288	-34.633	-0.176	0.098
-613.273	-200.000	0.036	0.175
-612.259	374.095	0.091	-0.188
-611.244	171.045	-0.048	-0.070
-610.230	-137.227	0.173	-0.020
-609.215	-200.000	-0.019	0.282
-608.201	29.317	-0.129	-0.111
-607.186	54.606	0.215	-0.210
-606.171	-25.099	0.298	-0.180
-605.157	-200.000	-0.060	-0.290
-604.142	-105.942	0.298	-0.068
-603.128	-107.187	-0.211	0.047
-602.113	75.365	-0.065	0.070
-601.098	80.119	0.266	0.290
-600.084	-89.468	-0.231	-0.069
-599.069	72.828	-0.265	0.281
-598.055	357.664	0.049	-0.100
-597.040	111.531	0.172	0.210
-596.025	272.127	-0.025	-0.044
-595.011	105.785	0.080	0.096
-593.996	-23.992	0.142	-0.086
-592.982	-200.000	-0.015	-0.202
-591.967	-136.988	-0.152	-0.018
-590.952	800.000	-0.044	0.163
-589.938	-93.040	-0.210	0.059
-588.923	20.826	0.176	0.145
-587.909	672.356	0.028	0.074
-586.894	-200.000	-0.011	0.341
-585.879	-6.942	-0.037	0.025
-584.865	-21.919	-0.197	0.122
-583.850	728.367	0.034	-0.093
-582.836	800.000	-0.065	-0.214
-581.821	-55.218	0.250	-0.114
-580.806	-174.249	-0.264	0.008
-579.792	-25.024	0.116	-0.070
-578.777	21.925	0.059	0.049
-577.763	156.007	0.130	0.182
-576.748	91.974	-0.140	-0.159
-575.733	330.577	0.098	-0.191
-574.719	-122.412	-0.424	0.070
-573.704	-181.678	-0.168	0.003
-572.690	-65.846	0.092	-0.037
-571.675	-28.702	-0.231	-0.135
-570.661	-136.671	-0.442	-0.052
-569.646	461.646	-0.041	0.092
-568.631	46.704	-0.257	0.242
-567.617	-30.780	-0.254	-0.146
-566.602	800.000	-0.012	-0.044
-565.588	-103.763	-0.203	0.048
-564.573	50.890	0.053	-0.051
-563.558	800.000	0.034	0.100
-562.544	-130.024	-0.216	0.030
-561.529	38.967	0.239	-0.217
-560.515	800.000	0.047	0.199
-559.500	-27.553	-0.247	0.145
-558.485	-23.140	-0.281	-0.171
-557.471	305.574	-0.166	0.313
-556.456	280.370	0.048	0.088
-555.442	80.060	-0.093	0.101
-554.427	-162.203	0.191	0.010
-553.412	-112.124	0.157	-0.032
-552.398	141.662	0.177	-0.237
-551.383	-93.623	0.252	0.070
-550.369	800.000	0.028	-0.103
-549.354	-130.125	0.145	-0.020
-548.339	800.000	0.055	0.157
-547.325	13.517	0.086	-0.067
-546.310	9.414	-0.267	0.205
-545.296	101.933	-0.097	-0.114
-544.281	-14.364	-0.402	-0.263
-543.266	198.732	0.214	0.332
-542.252	-200.000	0.002	0.064
-541.237	-200.000	0.025	0.195
-540.223	-159.904	-0.124	0.007
-539.208	-135.958	-0.369	-0.044
-538.193	800.000	-0.019	-0.076
-537.179	-77.519	0.206	0.072
-536.164	-77.102	0.504	0.178
-535.150	332.098	0.046	0.090
-534.135	-153.236	-0.268	-0.019
-533.121	14.743	0.191	-0.151
-532.106	81.486	0.236	-0.258
-531.091	4.975	0.192	-0.143
-530.077	190.221	-0.127	0.193
-529.062	320.473	-0.082	0.158
-528.048	754.819	0.076	-0.207
-527.033	180.910	-0.135	-0.200
-526.018	28.657	0.219	-0.188
-525.004	-33.024	0.210	0.118
-523.989	-63.799	-0.209	0.087
-522.975	-200.000	0.006	-0.109
-521.960	420.107	-0.145	-0.315
-520.945	-22.445	0.324	-0.199
-519.931	-200.000	-0.021	0.284
-518.916	51.161	0.317	0.305
-517.902	-109.589	-0.235	0.050
-516.887	-159.267	-0.482	0.027
-515.872	800.000	-0.044	-0.188
-514.858	-95.509	0.199	0.054
-513.843	233.432	-0.056	0.093
-512.829	-114.456	-0.245	-0.048
-511.814	-75.817	-0.062	0.022
-510.799	1.395	0.210	0.153
-509.785	800.000	0.070	0.272
-508.770	-29.405	0.012	-0.007
-507.756	35.678	0.214	-0.190
-506.741	-97.566	-0.235	0.062
-505.726	63.788	0.108	-0.109
-504.712	-200.000	-0.056	0.250
-503.697	73.112	0.142	-0.150
-502.683	116.620	0.191	-0.237
-501.668	-68.538	0.138	0.054
-500.653	-200.000	0.004	-0.136
-499.639	739.836	-0.033	-0.089
-498.624	-200.000	0.034	-0.165
-497.610	65.216	-0.280	0.286
-496.595	-79.653	-0.353	0.120
-495.581	547.369	0.070	0.169
-494.566	72.744	-0.206	-0.218
-493.551	113.583	0.079	0.096
-492.537	109.687	-0.165	0.200
-491.522	-91.047	-0.263	0.076
-490.508	-41.226	0.237	0.123
-489.493	121.163	-0.111	0.140
-488.478	-110.667	-0.239	-0.050
-487.464	474.588	0.032	-0.072
-486.449	-200.000	0.067	-0.382
-485.435	-200.000	0.009	-0.084
-484.420	-200.000	-0.044	-0.203
-483.405	108.200	0.144	-0.173
-482.391	-175.246	-0.161	0.004
-481.376	-141.791	-0.207	0.021
-480.362	-66.014	0.084	0.034
-479.347	800.000	-0.084	0.256
-478.332	-105.915	-0.143	-0.033
-477.318	-200.000	-0.033	0.249
-476.303	37.769	-0.153	0.137
-475.289	-102.184	-0.253	-0.061
-474.274	-60.503	0.266	0.114
-473.259	4.295	-0.081	0.060
-472.245	-200.000	0.013	0.180
-471.230	-200.000	0.022	0.185
-470.216	-200.000	0.019	0.185
-469.201	289.739	-0.113	0.207
-468.186	371.694	0.056	0.115
-467.172	-200.000	0.002	-0.278
-466.157	-48.804	-0.282	0.137
-465.143	135.197	0.085	0.111
-464.128	-143.872	-0.109	0.010
-463.113	800.000	-0.119	0.371
-462.099	86.170	0.158	0.175
-461.084	-37.755	-0.121	-0.065
-460.070	-51.249	-0.264	0.125
-459.055	615.874	0.036	-0.091
-458.040	107.114	0.115	0.137
-457.026	-200.000	0.026	0.366
-456.011	-136.656	-0.190	0.022
-454.997	22.901	0.380	-0.315
-453.982	-200.000	-0.034	-0.231
-452.968	-200.000	0.063	0.403
-451.953	109.970	-0.084	-0.101
-450.938	485.794	-0.111	-0.256
-449.924	14.496	-0.021	-0.017
-448.909	-191.406	0.228	-0.002
-447.895	800.000	0.060	-0.181
-446.880	686.218	-0.144	-0.379
-445.865	-200.000	0.029	0.371
-444.851	800.000	0.094	-0.404
-443.836	-200.000	-0.018	-0.100
-442.822	215.918	0.108	-0.173
-441.807	-107.132	0.043	-0.010
-440.792	1.986	-0.154	0.112
-439.778	215.788	-0.024	-0.038
-438.763	57.147	0.126	0.124
-437.749	-179.306	0.105	-0.002
-436.734	277.044	0.048	-0.085
-435.719	127.615	-0.175	0.224
-434.705	-26.837	0.346	0.204
-433.690	-37.335	-0.188	-0.101
-432.676	194.275	0.130	0.198
-431.661	224.940	-0.146	0.238
-430.646	-200.000	-0.048	0.224
-429.632	800.000	0.028	-0.116
-428.617	27.876	0.314	-0.267
-427.603	-200.000	0.034	0.238
-426.588	243.498	0.206	0.349
-425.573	189.791	0.083	-0.125
-424.559	-30.664	-0.245	0.140
-423.544	-33.026	0.153	0.085
-422.530	19.184	-0.211	-0.171
-421.515	-130.667	0.118	0.016
-420.500	34.593	-0.188	-0.165
-419.486	-200.000	0.003	-0.369
-418.471	-36.382	0.168	0.091
-417.457	24.037	0.202	-0.168
-416.442	18.928	-0.078	-0.063
-415.428	11.004	0.163	0.126
-414.413	-74.444	0.287	-0.104
-413.398	90.398	0.251	-0.284
-412.384	266.429	0.104	0.184
-411.369	-101.672	0.401	0.098
-410.355	315.176	0.190	-0.361
-409.340	-200.000	0.039	0.261
-408.325	800.000	-0.019	0.074
-407.311	-200.000	0.008	-0.054
-406.296	-52.952	-0.229	-0.106
-405.282	-62.105	0.441	-0.185
-404.267	677.346	0.054	-0.141
-403.252	-121.026	0.326	-0.055
-402.238	48.608	-0.127	-0.120
-401.223	291.056	0.163	0.298
-400.209	481.560	0.068	0.156
-399.194	232.904	0.068	0.112
-398.179	-113.873	0.400	-0.078
-397.165	77.673	-0.130	-0.140
-396.150	27.693	0.186	-0.158
-395.136	736.119	-0.180	-0.485
-394.121	-173.196	-0.047	-0.001
-393.106	-56.209	-0.166	-0.075
-392.092	97.120	0.217	0.250
-391.077	238.358	0.157	-0.263
-390.063	-118.276	-0.243	-0.044
-389.048	17.271	-0.052	0.042
-388.033	-200.000	0.037	-0.214
-387.019	-77.593	-0.040	-0.014
-386.004	-200.000	0.009	0.047
-384.990	-200.000	0.071	-0.328
-383.975	-79.324	0.176	-0.060
-382.960	-69.350	0.231	-0.089
-381.946	-129.510	0.088	0.012
-380.931	25.867	0.104	-0.087
-379.917	-100.911	0.213	-0.053
-378.902	-200.000	-0.014	0.384
-377.888	31.814	-0.167	-0.144
-376.873	272.432	-0.029	-0.051
-375.858	115.335	0.200	0.246
-374.844	613.178	-0.154	-0.389
-373.829	10.930	0.214	-0.165
-372.815	800.000	-0.073	0.310
-371.800	19.239	0.101	0.081
-370.785	-200.000	-0.006	0.045
-369.771	-71.848	-0.213	-0.080
-368.756	-67.113	0.283	0.112
-367.742	9.063	0.221	-0.168
-366.727	800.000	-0.036	0.119
-365.712	-57.634	-0.272	0.120
-364.698	-186.102	0.310	-0.005
-363.683	206.580	-0.082	0.129
-362.669	-19.716	-0.097	-0.060
-361.654	-22.626	0.234	-0.142
-360.639	15.190	-0.128	0.101
-359.625	800.000	0.025	0.095
-358.610	-19.021	0.205	0.128
-357.596	-93.465	-0.038	0.011
-356.581	-62.712	0.467	-0.195
-355.566	-200.000	0.034	-0.286
-354.552	-200.000	-0.028	0.274
-353.537	-200.000	0.039	0.249
-352.523	-113.589	0.164	-0.032
-351.508	180.864	0.210	-0.310
-350.493	-50.029	-0.175	-0.084
-349.479	-200.000	-0.022	-0.256
-348.464	800.000	-0.090	-0.373
-347.450	800.000	0.054	0.187
-346.435	237.552	-0.132	0.221
-345.420	-122.588	-0.283	0.046
-344.406	76.240	-0.141	-0.150
-343.391	-118.363	0.287	0.051
-342.377	-200.000	-0.005	-0.061
-341.362	-114.843	0.079	0.015
-340.348	-56.789	0.233	-0.104
-339.333	77.096	0.305	0.326
-338.318	-61.566	0.208	-0.088
-337.304	-147.297	-0.270	0.023
-336.289	-200.000	0.055	0.270
-335.275	46.110	-0.113	0.105
-334.260	86.562	-0.136	-0.150
-333.245	127.431	0.210	0.268
-332.231	-145.001	0.153	0.014
-331.216	-200.000	0.048	-0.248
-330.202	-30.300	-0.282	0.161
-329.187	-84.349	0.213	0.068
-328.172	79.116	0.115	0.124
-327.158	-97.678	-0.116	0.030
-326.143	-183.537	-0.233	0.004
-325.129	-6.415	0.232	-0.159
-324.114	-46.869	-0.437	-0.215
-323.099	381.321	-0.041	-0.085
-322.085	359.499	0.034	0.068
-321.070	360.937	-0.052	-0.104
-320.056	-200.000	-0.023	0.435
-319.041	86.688	-0.099	0.110
-318.026	58.631	-0.044	-0.043
-317.012	800.000	-0.041	-0.167
-315.997	-117.963	-0.179	-0.032
-314.983	-200.000	-0.013	0.115
-313.968	318.585	0.036	0.069
-312.953	-182.474	0.343	-0.006
-311.939	191.192	0.083	-0.125
-310.924	-200.000	0.050	0.424
-309.910	-38.841	-0.501	-0.265
-308.895	-92.615	0.226	0.064
-307.880	31.266	0.153	-0.132
-306.866	-129.992	-0.421	0.058
-305.851	-127.157	0.122	-0.018
-304.837	-200.000	0.049	-0.259
-303.822	-200.000	-0.081	-0.400
-302.807	275.218	-0.057	0.102
-301.793	23.721	-0.093	-0.077
-300.778	-63.087	0.072	-0.030
-299.764	-200.000	-0.048	-0.317
-298.749	22.783	-0.299	-0.246
-297.735	800.000	0.157	-0.448
-296.720	-73.633	-0.175	0.064
-295.705	-47.386	0.023	0.011
-294.691	-11.300	0.106	-0.070
-293.676	-73.483	0.122	-0.045
-292.662	31.928	0.253	0.219
-291.647	-200.000	0.006	-0.241
-290.632	-200.000	-0.066	-0.381
-289.618	109.605	-0.335	0.403
-288.603	429.515	0.091	-0.198
-287.589	-64.543	-0.046	0.019
-286.574	22.768	0.164	0.135
-285.559	632.036	0.026	-0.066
-284.545	47.454	-0.063	0.059
-283.530	19.325	-0.052	0.042
-282.516	-41.195	0.323	-0.167
-281.501	-60.369	-0.404	0.172
-280.486	7.691	0.333	-0.250
-279.472	351.465	-0.119	-0.237
-278.457	403.175	-0.121	0.255
-277.443	553.151	-0.096	-0.232
-276.428	199.421	0.074	-0.113
-275.413	-156.679	-0.446	0.028
-274.399	46.346	-0.144	-0.134
-273.384	-200.000	-0.029	-0.378
-272.370	800.000	-0.101	-0.407
-271.355	85.770	0.046	-0.051
-270.340	222.309	0.126	-0.203
-269.326	-4.979	0.328	0.226
-268.311	-200.000	0.008	0.523
-267.297	-174.205	-0.111	-0.003
-266.282	92.808	-0.133	-0.150
-265.267	-85.771	-0.093	0.029
-264.253	135.604	-0.103	0.134
-263.238	427.502	-0.114	0.246
-262.224	-200.000	0.001	-0.214
-261.209	-73.476	-0.175	0.064
-260.195	437.612	0.137	-0.300
-259.180	-40.316	0.481	0.250
-258.165	-72.771	0.032	0.012
-257.151	-25.449	0.257	0.152
-256.136	-59.570	-0.107	0.046
-255.122	800.000	0.019	0.078
-254.107	-47.909	0.061	-0.030
-253.092	302.597	-0.062	-0.115
-252.078	-150.612	0.276	0.021
-251.063	-109.434	-0.302	0.064
-250.049	-200.000	-0.043	-0.272
-249.034	-54.415	0.033	0.015
-248.019	-52.597	0.179	0.083
-247.005	-182.523	-0.018	0.000
-245.990	-63.366	0.131	0.054
-244.976	-65.829	0.084	0.034
-243.961	-134.134	0.131	0.016
-242.946	-200.000	0.032	0.241
-241.932	-84.426	-0.100	-0.032
-240.917	201.435	-0.262	0.404
-239.903	-200.000	-0.015	-0.073
-238.888	104.361	0.163	0.191
-237.873	-106.948	-0.128	0.028
-236.859	549.371	-0.181	0.435
-235.844	800.000	-0.059	0.188
-234.830	631.940	0.064	-0.162
-233.815	-12.145	-0.200	0.131
-232.800	-200.000	0.010	0.080
-231.786	-85.649	-0.232	-0.072
-230.771	-109.440	0.355	0.075
-229.757	52.897	-0.100	0.096
-228.742	-114.486	0.205	-0.039
-227.727	-176.745	-0.229	0.006
-226.713	-38.530	-0.164	-0.087
-225.698	-153.028	0.096	0.007
-224.684	-200.000	0.045	0.484
-223.669	410.843	0.034	-0.072
-222.655	-103.580	0.171	0.040
-221.640	-70.816	-0.315	-0.119
-220.625	-138.113	-0.392	0.044
-219.611	308.044	-0.039	-0.072
-218.596	800.000	0.075	-0.306
-217.582	248.451	0.059	0.100
-216.567	61.210	-0.257	-0.255
-215.552	-2.477	0.021	0.015
-214.538	584.834	0.086	0.212
-213.523	122.840	-0.123	0.155
-212.509	-200.000	-0.034	0.204
-211.494	800.000	0.027	0.089
-210.479	-200.000	-0.010	-0.050
-209.465	-194.769	-0.254	0.002
-208.450	800.000	-0.090	-0.257
-207.436	474.272	-0.110	0.249
-206.421	-200.000	0.011	-0.082
-205.406	-200.000	0.003	-0.136
-204.392	800.000	0.108	0.311
-203.377	359.652	0.095	0.190
-202.363	800.000	-0.037	0.127
-201.348	285.775	-0.094	-0.169
-200.333	581.816	-0.084	-0.205
-199.319	-83.877	-0.416	-0.132
-198.304	800.000	0.044	0.160
-197.290	-143.176	0.135	-0.013
-196.275	-200.000	-0.012	-0.093
-195.260	-142.304	0.188	-0.019
-194.246	-23.053	0.122	-0.073
-193.231	339.590	-0.158	0.308
-192.217	-200.000	-0.071	0.337
-191.202	86.274	-0.092	0.101
-190.187	800.000	0.059	-0.252
-189.173	-200.000	-0.038	-0.274
-188.158	122.961	-0.240	0.300
-187.144	-151.264	-0.176	0.013
-186.129	-151.841	-0.323	0.024
-185.114	95.736	0.209	-0.238
-184.100	377.639	-0.182	0.372
-183.085	-39.388	-0.126	0.066
-182.071	800.000	-0.032	-0.106
-181.056	-41.581	0.268	-0.137
-180.042	-93.584	0.238	-0.066
-179.027	15.936	0.137	-0.108
-178.012	-75.645	0.271	0.096
-176.998	-0.760	-0.071	0.050
-175.983	305.850	-0.151	0.281
-174.969	-200.000	0.022	0.149
-173.954	77.265	-0.176	0.187
-172.939	-111.135	0.081	-0.017
-171.925	30.310	-0.236	0.201
-170.910	-62.187	-0.032	0.013
-169.896	800.000	-0.085	-0.252
-168.881	82.774	-0.294	0.319
-167.866	3.330	0.071	-0.052
-166.852	-40.381	-0.040	-0.021
-165.837	-20.978	0.002	-0.001
-164.823	-152.176	-0.309	-0.022
-163.808	-37.545	-0.087	-0.046
-162.793	-28.083	0.105	-0.061
-161.779	-144.994	-0.351	0.032
-160.764	-29.652	-0.111	-0.063
-159.750	-146.536	-0.292	-0.025
-158.735	-160.934	0.237	-0.012
-157.720	800.000	0.069	-0.257
-156.706	-200.000	0.024	0.458
-155.691	-66.936	0.133	-0.052
-154.677	639.807	0.081	-0.206
-153.662	-86.195	0.284	0.087
-152.647	-200.000	0.042	-0.312
-151.633	-200.000	-0.302	-0.000
-150.618	88.958	0.107	0.119
-149.604	-200.000	0.023	-0.201
-148.589	-39.595	-0.398	-0.208
-147.574	72.867	-0.261	0.272
-146.560	5.898	-0.080	-0.059
-145.545	-23.702	-0.203	0.121
-144.531	-0.192	-0.039	0.028
-143.516	-125.393	0.260	-0.039
-142.502	24.829	-0.146	-0.121
-141.487	81.606	0.011	0.012
-140.472	-200.000	0.034	0.227
-139.458	-46.782	-0.249	-0.122
-138.443	-174.377	-0.086	-0.002
-137.429	800.000	-0.051	0.146
-136.414	-60.073	-0.227	-0.097
-135.399	79.524	-0.136	-0.146
-134.385	-129.983	0.307	0.042
-133.370	174.615	0.206	0.297
-132.356	16.001	0.083	0.065
-131.341	-200.000	0.070	-0.314
-130.326	-35.612	0.201	-0.109
-129.312	44.508	-0.238	0.218
-128.297	-200.000	0.001	0.109
-127.283	-135.015	-0.237	-0.028
-126.268	412.263	0.086	0.182
-125.253	-116.057	0.033	0.006
-124.239	49.451	0.121	0.113
-123.224	126.624	0.028	0.036
-122.210	-76.419	-0.066	-0.023
-121.195	-78.200	-0.338	0.116
-120.180	79.126	-0.137	0.146
-119.166	-47.778	0.228	-0.110
-118.151	133.899	-0.128	-0.165
-117.137	203.472	-0.307	0.473
-116.122	-21.263	0.282	0.172
-115.107	-61.232	-0.195	0.082
-114.093	755.292	0.216	0.583
-113.078	60.061	0.089	-0.088
-112.064	-200.000	0.012	0.263
-111.049	-155.297	-0.145	0.009
-110.034	5.309	-0.082	0.060
-109.020	246.127	-0.038	-0.064
-108.005	-23.703	-0.078	0.046
-106.991	-99.478	0.042	0.011
-105.976	-7.130	0.145	-0.098
-104.962	-118.544	0.203	0.036
-103.947	-66.228	-0.185	-0.073
-102.932	25.107	0.139	0.115
-101.918	267.567	0.112	-0.195
-100.903	-33.836	-0.141	0.078
-99.889	-150.120	-0.104	0.008
-98.874	583.432	-0.053	0.130
-97.859	326.450	-0.069	0.131
-96.845	-200.000	-0.009	-0.073
-95.830	-151.796	0.245	-0.018
-94.816	-104.411	-0.236	-0.054
-93.801	-89.720	-0.195	0.057
-92.786	-30.500	-0.202	-0.114
-91.772	800.000	-0.085	0.241
-90.757	124.266	0.160	0.200
-89.743	2.657	-0.034	-0.024
-88.728	-128.349	0.227	0.032
-87.713	-41.366	0.224	0.115
-86.699	-139.995	-0.475	-0.050
-85.684	-143.885	-0.257	0.024
-84.670	-112.216	0.319	0.064
-83.655	800.000	-0.021	-0.084
-82.640	-99.148	0.122	0.031
-81.626	-33.578	0.377	-0.207
-80.611	800.000	0.059	-0.248
-79.597	798.166	0.028	0.078
-78.582	-33.123	0.161	-0.089
-77.567	305.236	-0.123	-0.228
-76.553	-131.853	-0.314	0.041
-75.538	-149.250	0.427	0.034
-74.524	-200.000	0.005	-0.087
-73.509	306.913	-0.085	-0.158
-72.494	800.000	-0.027	0.114
-71.480	-122.423	0.158	-0.026
-70.465	440.995	-0.067	0.145
-69.451	97.759	0.189	-0.217
-68.436	116.804	-0.080	0.098
-67.422	-69.300	-0.132	-0.050
-66.407	-130.262	-0.134	-0.018
-65.392	-1.022	-0.060	0.042
-64.378	94.488	0.501	0.566
-63.363	800.000	0.074	-0.318
-62.349	6.155	0.099	-0.073
-61.334	18.804	-0.707	-0.563
-60.319	800.000	0.230	0.679
-59.305	721.647	-0.313	-0.828
-58.290	69.057	0.742	0.758
-57.276	-200.000	0.259	1.652
-56.261	-200.000	87.391	501.866
-55.246	536.441	1381.245	3258.928
-54.232	182.583	2615.087	3833.429
-53.217	116.852	2236.031	2728.114
-52.203	47.748	1681.314	1559.631
-51.188	40.229	1410.403	1260.626
-50.173	36.856	1366.512	1200.482
-49.159	56.156	1408.522	1359.038
-48.144	60.627	1427.189	1405.072
-47.130	40.543	1386.089	1240.659
-46.115	36.966	1368.472	1202.700
-45.100	36.635	1364.089	1196.750
-44.086	36.689	1360.983	1194.310
-43.071	36.689	1358.516	1192.102
-42.057	36.564	1356.686	1189.679
-41.042	36.622	1354.881	1188.405
-40.027	36.778	1353.081	1187.737
-39.013	36.654	1351.214	1185.286
-37.998	36.633	1349.470	1183.586
-36.984	36.709	1347.743	1182.484
-35.969	36.884	1345.388	1181.442
-34.954	36.902	1343.411	1179.768
-33.940	36.865	1342.488	1178.688
-32.925	36.809	1341.131	1177.109
-31.911	36.910	1339.393	1176.146
-30.896	36.864	1338.305	1174.865
-29.881	36.918	1336.807	1173.829
-28.867	36.903	1335.359	1172.421
-27.852	36.971	1333.743	1171.369
-26.838	36.900	1332.369	1169.685
-25.823	36.821	1331.254	1168.185
-24.809	36.767	1329.588	1166.348
-23.794	36.928	1328.017	1165.895
-22.779	36.858	1326.751	1164.318
-21.765	36.848	1325.504	1163.116
-20.750	36.852	1324.760	1162.443
-19.736	36.800	1322.991	1160.530
-18.721	36.563	1321.833	1158.048
-17.706	36.662	1320.681	1157.587
-16.692	36.675	1319.353	1156.457
-15.677	36.668	1318.390	1155.521
-14.663	36.745	1316.696	1154.451
-13.648	36.737	1315.921	1153.678
-12.633	36.724	1314.770	1152.546
-11.619	36.715	1314.153	1151.907
-10.604	36.732	1312.557	1150.565
-9.590	36.684	1312.171	1149.893
-8.575	36.679	1311.323	1149.073
-7.560	36.569	1310.759	1147.885
-6.546	36.635	1309.361	1147.003
-5.531	36.688	1308.382	1146.413
-4.517	36.618	1307.997	1145.619
-3.502	36.833	1306.320	1145.373
-2.487	36.752	1305.620	1144.237
-1.473	36.760	1301.889	1140.968
-0.458	35.654	1287.620	1121.966
0.556	30.713	1268.557	1083.647
1.571	27.243	1273.344	1067.316
2.586	26.412	1288.925	1075.340
3.600	25.300	1276.942	1058.698
4.615	17.594	1197.957	950.307
5.629	5.735	1114.184	821.909
6.644	0.515	1090.729	777.687
7.659	0.163	1087.779	773.706
8.673	0.065	1085.973	771.850
9.688	-0.071	1085.044	770.424
10.702	0.481	1083.961	772.416
11.717	7.804	1095.328	818.220
12.731	18.221	1110.727	883.729
13.746	22.134	1114.969	907.271
14.761	22.102	1115.157	907.178
15.775	21.977	1114.466	905.887
16.790	21.871	1113.047	904.109
17.804	21.762	1112.745	903.223
18.819	21.851	1112.189	903.148
19.834	21.887	1111.759	902.905
20.848	21.959	1111.175	902.724
21.863	22.024	1110.304	902.268
22.877	21.943	1109.797	901.363
23.892	21.841	1109.420	900.453
24.907	21.741	1108.744	899.312
25.921	21.842	1107.528	898.763
26.936	21.725	1106.556	897.296
27.950	21.886	1104.257	896.172
28.965	21.558	1102.821	893.257
29.980	21.693	1101.100	892.471
30.994	21.979	1099.795	892.788
32.009	21.953	1098.461	891.495
33.023	21.739	1097.360	889.438
34.038	21.942	1096.559	889.739
35.053	21.966	1095.863	889.216
36.067	21.989	1094.936	888.500
37.082	21.992	1094.189	887.829
38.096	22.063	1093.709	887.721
39.111	22.172	1092.956	887.586
40.126	22.121	1091.552	886.105
41.140	21.806	1089.398	882.693
42.155	21.620	1087.867	880.442
43.169	21.543	1087.087	879.344
44.184	21.697	1086.203	879.325
45.199	21.424	1085.104	876.987
46.213	21.489	1084.172	876.482
47.228	21.751	1083.473	877.151
48.242	21.767	1082.421	876.305
49.257	21.878	1081.885	876.345
50.271	21.935	1081.236	876.030
51.286	21.933	1080.509	875.349
52.301	21.932	1079.449	874.410
53.315	21.956	1078.267	873.492
54.330	21.870	1077.158	872.089
55.344	21.885	1076.634	871.665
56.359	21.901	1075.311	870.595
57.374	21.666	1074.480	868.683
58.388	21.649	1074.044	868.165
59.403	21.617	1073.065	867.139
60.417	21.454	1071.955	865.359
61.432	21.596	1071.462	865.589
62.447	21.771	1070.196	865.354
63.461	21.732	1069.789	864.756
64.476	21.679	1068.478	863.358
65.490	21.614	1067.639	862.282
66.505	21.648	1066.814	861.709
67.520	21.675	1066.204	861.272
68.534	21.394	1065.424	859.186
69.549	21.170	1064.093	856.935
70.563	21.155	1063.374	856.208
71.578	21.285	1062.305	855.907
72.593	21.070	1061.450	854.089
73.607	21.148	1061.111	854.121
74.622	21.449	1060.530	855.054
75.636	21.468	1059.571	854.296
76.651	21.348	1058.851	853.055
77.666	21.080	1058.440	851.342
78.680	21.500	1057.216	852.326
79.695	21.372	1056.896	851.370
80.709	21.621	1055.972	851.762
81.724	21.456	1055.404	850.424
82.739	21.533	1054.879	850.304
83.753	21.937	1054.306	851.728
84.768	22.139	1053.485	851.969
85.782	22.255	1052.362	851.546
86.797	22.212	1051.297	850.401
87.812	21.877	1050.653	848.185
88.826	22.010	1049.759	848.033
89.841	22.142	1048.544	847.612
90.855	22.013	1047.651	846.191
91.870	22.176	1046.595	846.051
92.884	22.008	1045.039	843.909
93.899	21.957	1044.301	842.992
94.914	22.144	1043.520	843.185
95.928	22.021	1041.865	841.186
96.943	21.695	1041.055	838.894
97.957	21.500	1040.303	837.282
98.972	21.367	1038.770	835.339
99.987	21.627	1038.173	836.027
101.001	21.863	1037.481	836.521
102.016	21.852	1036.697	835.760
103.030	21.730	1035.349	834.019
104.045	21.609	1034.306	832.531
105.060	21.345	1033.788	830.786
106.074	21.615	1032.708	831.128
107.089	22.057	1032.412	832.912
108.103	21.826	1030.964	830.574
109.118	21.652	1029.579	828.561
110.133	21.693	1028.843	828.089
111.147	21.558	1027.732	826.485
112.162	21.300	1027.050	824.650
113.176	21.647	1026.026	825.390
114.191	21.504	1024.990	823.807
115.206	21.181	1024.020	821.436
116.220	21.141	1023.319	820.615
117.235	21.437	1022.090	820.945
118.249	21.406	1021.411	820.182
119.264	21.242	1020.438	818.560
120.279	21.271	1019.908	818.199
121.293	21.406	1018.876	817.929
122.308	21.390	1018.251	817.278
123.322	21.267	1016.871	815.526
124.337	21.228	1015.389	814.084
125.352	20.757	1014.048	810.743
126.366	20.695	1012.943	809.499
127.381	21.382	1013.071	812.725
128.395	21.845	1012.030	813.967
129.410	21.749	1012.019	813.440
130.424	21.884	1010.635	812.882
131.439	22.024	1009.559	812.593
132.454	21.764	1008.941	810.820
133.468	21.806	1007.537	809.813
134.483	21.899	1007.182	809.887
135.497	22.056	1006.158	809.717
136.512	22.182	1005.030	809.318
137.527	22.075	1004.613	808.416
138.541	22.069	1003.696	807.581
139.556	22.002	1003.092	806.715
140.570	22.048	1002.460	806.348
141.585	22.120	1000.926	805.372
142.600	21.976	1000.009	803.902
143.614	22.289	999.290	804.685
144.629	22.425	998.337	804.468
145.643	22.086	997.263	801.984
146.658	22.127	995.569	800.738
147.673	22.056	994.480	799.470
148.687	21.915	993.542	798.003
149.702	21.847	992.122	796.483
150.716	21.691	991.834	795.470
151.731	21.987	990.639	795.786
152.746	22.327	990.234	796.930
153.760	22.295	989.492	796.119
154.775	22.349	988.783	795.722
155.789	22.219	988.313	794.684
156.804	22.222	986.849	793.451
157.819	22.329	986.519	793.596
158.833	22.245	985.886	792.641
159.848	22.379	984.667	792.194
160.862	22.038	983.615	789.742
161.877	22.180	982.246	789.210
162.892	22.278	981.688	789.132
163.906	22.317	980.194	788.039
164.921	22.249	979.058	786.748
165.935	22.243	978.757	786.410
166.950	22.286	977.592	785.599
167.964	22.226	976.629	784.485
168.979	22.201	975.283	783.225
169.994	22.158	974.333	782.201
171.008	22.135	974.424	782.103
172.023	22.295	973.069	781.657
173.037	21.973	972.398	779.621
174.052	21.900	970.899	778.024
175.067	22.011	970.520	778.146
176.081	22.028	969.994	777.730
177.096	22.088	969.059	777.178
178.110	21.792	968.004	774.952
179.125	21.432	967.846	773.167
180.140	21.613	967.169	773.357
181.154	21.787	966.908	773.849
182.169	22.111	966.483	774.867
183.183	22.136	966.304	774.769
184.198	22.130	965.140	773.738
185.213	22.045	964.567	772.835
186.227	22.174	963.903	772.804
187.242	22.161	963.275	772.172
188.256	22.193	962.682	771.773
189.271	22.340	961.153	771.123
190.286	21.984	960.403	768.892
191.300	21.420	958.983	765.221
192.315	20.635	957.635	760.646
193.329	20.650	957.196	760.293
194.344	21.534	957.450	764.291
195.359	21.931	957.365	765.890
196.373	22.126	956.708	766.146
197.388	21.941	956.348	764.986
198.402	21.999	955.426	764.432
199.417	22.069	954.551	763.968
200.432	21.984	953.304	762.534
201.446	21.705	952.788	760.843
202.461	21.605	952.543	760.143
203.475	20.939	950.135	755.271
204.490	20.095	948.734	750.436
205.504	20.952	948.967	754.266
206.519	21.688	949.249	757.607
207.534	21.691	949.042	757.388
208.548	22.097	948.863	758.930
209.563	21.891	947.433	756.831
210.577	21.813	946.809	755.929
211.592	22.202	946.623	757.390
212.607	22.289	945.393	756.716
213.621	22.192	944.847	755.794
214.636	22.341	944.359	755.976
215.650	22.121	943.557	754.324
216.665	22.316	942.815	754.498
217.680	22.246	941.775	753.300
218.694	21.763	940.686	750.298
219.709	21.640	940.014	749.168
220.723	22.044	939.746	750.616
221.738	22.139	939.104	750.444
222.753	22.016	938.238	749.157
223.767	22.159	938.007	749.517
224.782	22.295	937.860	749.912
225.796	22.317	936.705	749.018
226.811	21.752	934.988	745.178
227.826	21.018	934.114	741.296
228.840	21.288	933.562	741.940
229.855	21.487	932.549	741.910
230.869	21.071	931.555	739.292
231.884	21.444	931.479	740.747
232.899	22.192	931.584	743.931
233.913	22.027	930.709	742.470
234.928	21.983	930.495	742.047
235.942	21.987	929.344	741.079
236.957	21.661	928.618	739.061
237.972	21.749	928.396	739.192
238.986	21.711	927.546	738.287
240.001	21.801	926.886	738.078
241.015	21.894	926.593	738.170
242.030	22.017	925.936	738.096
243.045	21.923	925.591	737.363
244.059	22.388	924.902	738.701
245.074	22.053	923.710	736.276
246.088	21.747	923.061	734.415
247.103	21.952	922.385	734.669
248.117	22.615	922.673	737.607
249.132	22.791	921.788	737.569
250.147	22.731	921.700	737.186
251.161	22.962	921.261	737.734
252.176	22.944	920.468	736.960
253.190	22.865	919.915	736.120
254.205	23.100	919.446	736.659
255.220	23.099	918.706	735.995
256.234	22.927	917.745	734.447
257.249	22.776	916.990	733.152
258.263	22.775	916.219	732.465
259.278	23.036	915.457	732.875
260.293	22.969	915.057	732.209
261.307	22.915	914.363	731.368
262.322	22.702	913.226	729.512
263.336	22.067	911.282	725.274
264.351	20.890	909.353	718.822
265.366	20.898	909.533	718.933
266.380	22.124	909.936	724.243
267.395	22.456	910.251	725.798
268.409	22.599	908.722	725.104
269.424	22.757	908.110	725.200
270.439	22.641	907.841	724.444
271.453	22.827	907.266	724.686
272.468	22.852	906.749	724.311
273.482	22.911	906.547	724.328
274.497	22.630	904.939	721.831
275.512	22.242	904.500	719.829
276.526	22.622	904.503	721.320
277.541	22.813	903.717	721.410
278.555	22.641	902.590	719.747
279.570	22.634	901.777	719.003
280.585	22.604	901.453	718.561
281.599	22.523	900.688	717.559
282.614	21.996	898.827	713.869
283.628	22.017	898.435	713.579
284.643	22.360	898.813	715.213
285.657	21.885	897.518	712.188
286.672	21.746	896.542	710.786
287.687	22.270	896.489	712.806
288.701	22.373	895.720	712.552
289.716	21.976	895.174	710.446
290.730	21.905	894.550	709.599
291.745	21.811	893.151	708.049
292.760	22.096	893.180	709.158
293.774	22.835	893.778	712.555
294.789	23.329	893.485	714.251
295.803	23.333	892.728	713.599
296.818	23.399	891.954	713.183
297.833	23.032	890.627	710.583
298.847	22.805	890.209	709.277
299.862	23.057	889.896	709.973
300.876	23.298	889.776	710.784
301.891	23.275	888.401	709.529
302.906	22.816	887.544	706.948
303.920	22.911	887.592	707.301
304.935	23.214	887.344	708.254
305.949	23.161	886.446	707.265
306.964	23.016	885.700	706.026
307.979	23.035	885.395	705.798
308.993	23.379	885.425	707.131
310.008	23.360	884.338	706.124
311.022	23.152	883.581	704.629
312.037	23.172	882.714	703.954
313.052	22.774	881.980	701.727
314.066	21.921	880.261	696.911
315.081	21.609	879.924	695.342
316.095	22.457	880.122	698.805
317.110	22.986	879.678	700.488
318.125	22.146	878.492	696.154
319.139	21.206	876.507	690.803
320.154	21.024	876.516	690.027
321.168	22.099	876.524	694.224
322.183	22.653	876.898	696.649
323.197	22.743	876.581	696.690
324.212	23.224	875.814	697.918
325.227	23.030	875.908	697.165
326.241	22.888	874.918	695.756
327.256	22.595	874.777	694.427
328.270	22.665	873.327	693.489
329.285	22.571	872.625	692.503
330.300	22.244	872.182	690.804
331.314	22.600	871.806	691.842
332.329	23.160	871.300	693.577
333.343	23.148	870.843	693.103
334.358	23.068	870.825	692.717
335.373	23.133	870.649	692.770
336.387	23.424	870.428	693.671
337.402	23.613	869.654	693.730
338.416	23.404	869.461	692.700
339.431	23.632	868.931	693.105
340.446	23.710	868.835	693.271
341.460	23.686	868.204	692.614
342.475	23.393	867.592	690.923
343.489	23.453	867.347	690.899
344.504	23.829	866.619	691.722
345.519	23.891	866.934	692.155
346.533	23.946	866.108	691.646
347.548	23.909	865.765	691.167
348.562	24.009	864.888	690.796
349.577	23.904	864.334	689.885
350.592	23.811	863.784	689.023
351.606	23.910	862.836	688.589
352.621	23.677	862.201	687.122
353.635	23.590	861.142	685.879
354.650	23.071	859.168	682.245
355.665	22.181	857.669	677.564
356.679	22.604	857.892	679.310
357.694	22.913	857.969	680.502
358.708	22.841	857.024	679.416
359.723	23.181	856.813	680.497
360.738	23.573	857.006	682.095
361.752	23.590	856.396	681.617
362.767	23.978	855.751	682.533
363.781	24.144	855.358	682.794
364.796	24.418	854.615	683.188
365.810	24.294	854.432	682.509
366.825	24.211	854.223	681.963
367.840	23.955	853.290	680.178
368.854	23.508	852.515	677.794
369.869	23.544	852.028	677.485
370.883	23.710	851.476	677.619
371.898	23.682	850.930	677.015
372.913	23.724	850.742	676.967
373.927	23.743	850.268	676.602
374.942	23.975	849.499	676.815
375.956	23.947	849.389	676.561
376.971	24.082	849.016	676.716
377.986	24.342	848.392	677.147
379.000	24.262	847.899	676.390
380.015	23.992	847.782	675.211
381.029	24.006	846.905	674.507
382.044	24.226	845.917	674.491
383.059	24.260	845.571	674.285
384.073	24.309	845.234	674.141
385.088	24.237	844.276	673.047
386.102	24.085	843.571	671.853
387.117	23.834	843.258	670.596
388.132	23.465	842.217	668.319
389.146	22.994	841.158	665.647
390.161	23.459	841.063	667.263
391.175	23.902	840.874	668.721
392.190	23.715	839.529	666.891
393.205	22.457	837.177	660.247
394.219	20.965	835.510	653.288
395.234	21.023	835.336	653.312
396.248	22.370	837.127	659.706
397.263	23.710	838.136	665.468
398.278	23.744	837.341	664.905
399.292	23.504	836.893	663.593
400.307	23.501	836.365	663.106
401.321	23.704	835.587	663.186
402.336	24.017	835.665	664.359
403.350	24.483	835.379	665.813
404.365	24.666	835.378	666.435
405.380	24.922	835.000	667.027
406.394	24.908	834.683	666.663
407.409	24.820	833.929	665.674
408.423	24.913	833.546	665.656
409.438	24.919	833.348	665.462
410.453	25.007	832.479	665.036
411.467	24.925	831.887	664.198
412.482	24.715	831.878	663.354
413.496	25.102	831.235	664.216
414.511	25.071	830.797	663.694
415.526	24.955	830.356	662.851
416.540	24.730	829.508	661.287
417.555	24.569	828.982	660.213
418.569	24.641	828.962	660.404
419.584	24.668	828.072	659.738
420.599	24.491	827.444	658.525
421.613	150.741	1366.355	1786.507
422.628	131.476	1444.887	1786.616
