DTS Sentinel unit serial number:	SN413079Multiplexer serial number:	ORYXHardware model number:	OX4-SRSoftware version number:	ORYX F/W v4.00 Oryx Data Collector v3.7.2.0data status	okinstallation	princeton_trtdifferential loss correction	single-endedforward channel	channel 1reverse channel	N/Adate	2019/09/11time	20:04:11forward acquisition time	60.00reverse acquisition time	0.00gamma	496.2192k internal	0.2301k external	0.2301temperature offset calibration	1.0034default loss term (dB/km)	0.3790temperature slope calibration	1.0000multiplexer offset coefficient	1.0000multiplexer slope coefficient	1.0000fibre end	0.00T internal ref (°C)	38.64T ext. ref 1 (°C)	1.39T ext. ref 2 (°C)	32.01length (m)	temperature (°C)	Stokes	anti-Stokes-747.200	-18.730	0.059	-0.038
-746.185	224.492	0.147	0.242
-745.171	55.334	0.016	-0.016
-744.156	391.101	-0.114	-0.241
-743.142	125.668	-0.099	-0.127
-742.127	-132.995	-0.247	-0.032
-741.112	-128.965	-0.218	0.031
-740.098	-200.000	-0.009	0.144
-739.083	-114.573	-0.258	-0.050
-738.069	-134.791	-0.138	-0.017
-737.054	-40.089	-0.078	0.041
-736.039	36.119	0.162	-0.146
-735.025	-155.601	0.248	0.016
-734.010	119.354	0.096	-0.121
-732.996	-200.000	0.010	-0.256
-731.981	-200.000	-0.001	0.014
-730.966	-200.000	-0.043	-0.505
-729.952	-118.968	-0.171	-0.031
-728.937	-177.635	-0.166	-0.004
-727.923	800.000	-0.099	0.325
-726.908	-65.711	0.112	-0.046
-725.894	130.653	0.165	-0.216
-724.879	130.845	-0.082	0.107
-723.864	800.000	-0.052	-0.154
-722.850	800.000	0.048	-0.167
-721.835	98.015	-0.141	-0.165
-720.821	-116.083	-0.314	0.060
-719.806	26.862	0.046	0.039
-718.791	290.492	-0.213	-0.394
-717.777	-200.000	-0.081	-0.439
-716.762	-60.538	-0.128	-0.055
-715.748	-84.574	-0.079	0.026
-714.733	411.810	0.048	-0.103
-713.718	34.724	-0.096	-0.086
-712.704	93.539	0.111	-0.128
-711.689	-200.000	-0.016	0.099
-710.675	477.668	-0.120	-0.277
-709.660	-145.350	0.181	-0.017
-708.645	177.952	0.135	-0.201
-707.631	800.000	0.089	-0.345
-706.616	800.000	-0.043	-0.127
-705.602	-120.225	-0.090	0.016
-704.587	-200.000	0.000	-0.028
-703.572	-1.421	-0.308	-0.222
-702.558	-47.417	-0.281	-0.139
-701.543	6.010	-0.117	-0.088
-700.529	202.221	0.102	-0.160
-699.514	-178.930	0.181	-0.004
-698.499	-116.125	-0.246	-0.047
-697.485	211.938	-0.139	0.224
-696.470	-47.924	-0.105	-0.052
-695.456	160.533	-0.075	0.107
-694.441	303.013	0.134	0.252
-693.426	5.087	-0.170	0.128
-692.412	-174.309	-0.405	0.012
-691.397	800.000	-0.046	-0.155
-690.383	331.150	-0.071	0.138
-689.368	-200.000	-0.003	-0.160
-688.354	-6.935	0.084	-0.058
-687.339	112.703	-0.136	-0.167
-686.324	75.646	-0.264	-0.284
-685.310	-56.507	-0.092	0.041
-684.295	-200.000	0.026	0.119
-683.281	-29.294	0.205	-0.120
-682.266	-200.000	0.036	0.191
-681.251	249.781	0.034	0.059
-680.237	376.534	-0.065	0.136
-679.222	-126.986	-0.315	0.047
-678.208	-33.371	-0.233	-0.131
-677.193	-92.316	-0.103	-0.029
-676.178	800.000	0.083	-0.321
-675.164	69.836	-0.192	0.201
-674.149	-175.193	-0.077	-0.002
-673.135	-119.582	0.148	0.026
-672.120	-200.000	0.016	0.147
-671.105	-80.493	0.321	0.109
-670.091	55.723	-0.334	-0.329
-669.076	800.000	-0.090	-0.378
-668.062	800.000	-0.016	0.056
-667.047	161.564	0.160	-0.228
-666.032	-128.879	0.214	0.031
-665.018	80.931	-0.244	0.267
-664.003	-177.230	-0.345	-0.009
-662.989	800.000	0.076	-0.260
-661.974	-111.808	0.099	0.020
-660.959	64.731	-0.058	-0.059
-659.945	-87.902	0.117	-0.036
-658.930	-45.709	-0.088	-0.044
-657.916	-0.644	-0.207	-0.149
-656.901	-200.000	-0.008	0.151
-655.886	-13.754	0.177	-0.116
-654.872	-7.974	-0.277	0.190
-653.857	757.778	-0.103	-0.282
-652.843	-93.520	0.119	-0.033
-651.828	-200.000	-0.006	0.179
-650.814	-200.000	-0.019	0.218
-649.799	-113.721	0.096	0.019
-648.784	82.630	0.101	-0.111
-647.770	-48.900	-0.128	-0.062
-646.755	800.000	-0.037	0.118
-645.741	-39.443	-0.243	-0.130
-644.726	-174.972	0.162	0.005
-643.711	294.638	-0.174	0.323
-642.697	800.000	0.056	-0.169
-641.682	719.679	-0.051	-0.139
-640.668	111.253	-0.119	-0.145
-639.653	-200.000	-0.052	-0.234
-638.638	800.000	0.054	0.155
-637.624	28.545	0.185	0.159
-636.609	-16.776	-0.144	-0.093
-635.595	-84.082	0.101	-0.032
-634.580	463.316	0.039	0.088
-633.565	321.073	0.080	-0.154
-632.551	-200.000	-0.065	-0.304
-631.536	445.997	-0.110	-0.245
-630.522	-116.719	0.226	-0.042
-629.507	80.913	0.227	-0.249
-628.492	-200.000	0.025	0.228
-627.478	47.297	0.121	-0.114
-626.463	-200.000	0.028	0.199
-625.449	-82.068	0.199	0.066
-624.434	-200.000	0.024	-0.233
-623.419	-42.304	0.245	-0.127
-622.405	-200.000	0.009	0.046
-621.390	62.906	-0.245	-0.249
-620.376	-200.000	0.024	0.294
-619.361	8.208	-0.199	0.152
-618.346	800.000	-0.012	-0.042
-617.332	132.678	-0.209	0.274
-616.317	74.495	0.072	-0.077
-615.303	96.934	-0.156	-0.182
-614.288	-94.008	0.092	-0.026
-613.273	800.000	-0.038	-0.141
-612.259	-70.396	-0.203	0.078
-611.244	250.039	0.134	-0.230
-610.230	-87.114	0.311	-0.096
-609.215	-41.218	-0.242	-0.127
-608.201	-73.615	-0.224	-0.083
-607.186	-200.000	-0.082	0.427
-606.171	351.517	-0.084	0.168
-605.157	122.011	0.160	-0.202
-604.142	399.444	0.112	0.239
-603.128	227.881	0.123	-0.204
-602.113	118.046	-0.186	-0.232
-601.098	4.608	-0.165	-0.122
-600.084	-152.457	-0.271	-0.020
-599.069	262.195	-0.088	0.155
-598.055	800.000	0.049	0.164
-597.040	-44.179	0.234	-0.119
-596.025	800.000	0.072	-0.224
-595.011	103.379	-0.270	0.321
-593.996	348.652	-0.153	-0.307
-592.982	39.365	-0.064	0.058
-591.967	-57.052	0.207	0.093
-590.952	36.366	-0.234	-0.209
-589.938	-160.077	-0.258	0.014
-588.923	800.000	0.092	0.277
-587.909	573.962	-0.053	-0.130
-586.894	-93.498	0.120	0.034
-585.879	-124.130	-0.214	-0.034
-584.865	-200.000	-0.015	0.154
-583.850	-200.000	0.011	-0.075
-582.836	391.622	-0.154	0.325
-581.821	800.000	-0.025	0.074
-580.806	-16.553	0.262	0.168
-579.792	-136.367	0.238	-0.028
-578.777	-88.320	-0.102	0.031
-577.763	-14.305	-0.372	-0.243
-576.748	214.001	-0.173	0.277
-575.733	-130.272	-0.163	-0.022
-574.719	800.000	0.041	0.124
-573.704	335.434	-0.067	-0.132
-572.690	-200.000	0.017	0.288
-571.675	170.220	0.048	-0.070
-570.661	-118.832	0.414	0.074
-569.646	732.620	0.102	-0.277
-568.631	-27.131	-0.115	-0.068
-567.617	149.504	0.170	-0.233
-566.602	-200.000	-0.012	0.234
-565.588	286.855	-0.063	0.115
-564.573	800.000	0.084	-0.290
-563.558	-16.901	0.236	-0.151
-562.544	-132.208	0.065	0.009
-561.529	461.831	0.089	0.200
-560.515	-59.434	0.189	-0.082
-559.500	-118.508	0.341	-0.061
-558.485	-63.874	0.084	-0.035
-557.471	-79.180	-0.149	0.051
-556.456	-200.000	-0.001	-0.007
-555.442	-174.716	0.239	-0.007
-554.427	83.118	-0.174	-0.192
-553.412	-200.000	0.001	-0.250
-552.398	28.810	0.207	0.177
-551.383	-200.000	0.050	0.279
-550.369	66.875	-0.385	-0.397
-549.354	196.436	-0.125	0.192
-548.339	499.719	-0.151	0.353
-547.325	800.000	0.034	-0.144
-546.310	352.310	-0.111	-0.223
-545.296	9.879	-0.193	0.148
-544.281	-110.476	-0.212	-0.044
-543.266	-62.168	-0.096	0.041
-542.252	-200.000	-0.004	0.359
-541.237	-200.000	0.023	0.134
-540.223	-14.795	0.189	0.123
-539.208	-71.577	0.355	-0.134
-538.193	169.906	-0.017	-0.024
-537.179	90.739	0.079	0.090
-536.164	-114.923	-0.140	0.027
-535.150	-33.662	0.234	0.131
-534.135	-116.209	0.236	-0.044
-533.121	-200.000	-0.019	0.182
-532.106	-179.290	0.314	0.007
-531.091	2.816	0.077	0.056
-530.077	-91.027	-0.424	-0.123
-529.062	24.422	0.107	-0.089
-528.048	95.181	-0.076	-0.088
-527.033	-138.781	0.273	0.030
-526.018	512.779	-0.068	-0.159
-525.004	-100.733	-0.502	0.125
-523.989	-200.000	0.024	-0.135
-522.975	286.170	0.130	-0.238
-521.960	800.000	-0.028	-0.092
-520.945	331.622	-0.063	-0.123
-519.931	-200.000	0.043	-0.258
-518.916	-200.000	-0.012	0.103
-517.902	-200.000	0.011	0.084
-516.887	93.602	0.055	0.063
-515.872	800.000	0.056	0.189
-514.858	26.357	0.278	-0.235
-513.843	-200.000	-0.053	-0.483
-512.829	32.291	0.302	0.263
-511.814	-39.583	0.052	-0.027
-510.799	-88.008	-0.094	-0.029
-509.785	-200.000	0.002	-0.068
-508.770	79.511	-0.166	-0.180
-507.756	-103.420	-0.231	-0.055
-506.741	-124.216	0.437	0.069
-505.726	10.807	-0.236	0.182
-504.712	64.207	0.269	-0.273
-503.697	-126.710	-0.297	-0.044
-502.683	-34.731	-0.112	0.062
-501.668	-23.282	-0.163	-0.099
-500.653	208.715	0.007	-0.011
-499.639	-200.000	0.027	0.135
-498.624	-200.000	0.007	0.169
-497.610	-200.000	-0.003	0.205
-496.595	228.303	0.072	-0.118
-495.581	59.615	-0.045	-0.044
-494.566	-58.835	-0.152	-0.066
-493.551	-144.288	-0.086	-0.008
-492.537	16.741	0.367	0.293
-491.522	800.000	0.054	0.169
-490.508	-89.380	-0.144	-0.043
-489.493	-200.000	-0.017	0.343
-488.478	-136.085	-0.271	0.032
-487.464	268.709	0.130	0.230
-486.449	245.755	0.107	-0.181
-485.435	114.196	0.131	0.161
-484.420	800.000	-0.050	-0.193
-483.405	203.662	-0.135	-0.211
-482.391	800.000	-0.098	0.281
-481.376	80.370	0.078	-0.085
-480.362	81.385	-0.212	0.231
-479.347	156.162	-0.069	-0.096
-478.332	800.000	0.044	0.123
-477.318	-35.349	0.114	0.062
-476.303	-200.000	0.027	-0.277
-475.289	-129.571	-0.046	-0.006
-474.274	39.552	0.121	0.109
-473.259	26.135	-0.262	0.221
-472.245	800.000	-0.106	-0.341
-471.230	-48.133	0.365	-0.178
-470.216	247.832	-0.075	0.128
-469.201	-200.000	-0.011	0.258
-468.186	800.000	-0.065	-0.278
-467.172	-10.773	0.185	-0.123
-466.157	-51.729	0.199	-0.094
-465.143	800.000	0.069	0.230
-464.128	-46.683	-0.149	-0.074
-463.113	-200.000	0.001	-0.418
-462.099	119.956	0.183	-0.229
-461.084	8.585	-0.246	0.187
-460.070	-97.368	-0.352	0.093
-459.055	208.780	-0.086	0.136
-458.040	-200.000	0.073	0.366
-457.026	83.016	-0.289	0.317
-456.011	-120.691	0.330	0.056
-454.997	11.731	-0.099	-0.077
-453.982	800.000	-0.047	-0.188
-452.968	658.353	0.099	-0.256
-451.953	-51.208	0.229	-0.108
-450.938	129.044	0.226	0.291
-449.924	-9.111	-0.153	-0.103
-448.909	163.611	-0.146	0.206
-447.895	245.579	0.159	-0.270
-446.880	-120.711	0.200	-0.034
-445.865	-200.000	0.072	-0.405
-444.851	540.478	-0.071	-0.170
-443.836	129.307	-0.109	-0.140
-442.822	-180.780	-0.205	0.004
-441.807	79.806	-0.371	-0.402
-440.792	800.000	-0.047	-0.170
-439.778	132.195	-0.084	0.109
-438.763	28.676	-0.083	-0.071
-437.749	-200.000	0.074	-0.441
-436.734	800.000	0.048	-0.199
-435.719	-200.000	0.057	-0.277
-434.705	-117.074	-0.466	0.086
-433.690	417.776	-0.039	-0.083
-432.676	-9.506	0.163	-0.110
-431.661	-200.000	-0.022	-0.238
-430.646	-29.833	-0.200	0.115
-429.632	87.487	0.136	-0.152
-428.617	-58.339	-0.310	-0.136
-427.603	363.499	-0.077	0.156
-426.588	-101.583	0.123	0.030
-425.573	-119.489	0.169	-0.030
-424.559	-200.000	-0.007	0.092
-423.544	751.622	0.157	0.427
-422.530	-165.044	0.479	0.021
-421.515	-97.540	0.109	-0.028
-420.500	-75.535	-0.178	0.064
-419.486	273.240	-0.075	-0.134
-418.471	-105.325	0.166	-0.038
-417.457	-200.000	0.011	-0.219
-416.442	-87.744	-0.068	0.021
-415.428	2.238	-0.164	-0.119
-414.413	518.367	0.076	-0.178
-413.398	-200.000	0.006	-0.055
-412.384	-85.212	0.375	0.118
-411.369	19.551	0.389	-0.315
-410.355	-80.859	-0.085	-0.028
-409.340	-20.295	-0.123	0.076
-408.325	377.224	-0.034	-0.070
-407.311	655.964	-0.053	-0.138
-406.296	-60.098	-0.371	0.159
-405.282	-9.350	-0.141	0.095
-404.267	431.871	0.035	-0.076
-403.252	-15.536	-0.214	-0.137
-402.238	393.088	0.116	0.244
-401.223	133.598	-0.222	-0.288
-400.209	-75.278	-0.235	-0.084
-399.194	-200.000	0.071	0.373
-398.179	-43.105	0.300	0.153
-397.165	-127.474	-0.091	0.013
-396.150	772.166	-0.124	-0.339
-395.136	-166.142	0.373	-0.016
-394.121	-10.514	0.238	-0.158
-393.106	271.226	0.050	0.088
-392.092	173.380	0.140	0.203
-391.077	-200.000	0.004	0.305
-390.063	-200.000	0.060	0.498
-389.048	55.787	0.364	0.355
-388.033	-200.000	-0.072	0.349
-387.019	41.507	-0.194	-0.176
-386.004	800.000	0.075	-0.283
-384.990	42.116	-0.116	-0.106
-383.975	85.824	0.099	-0.110
-382.960	-25.295	-0.142	-0.085
-381.946	-42.871	0.288	-0.147
-380.931	30.569	-0.305	0.262
-379.917	800.000	-0.078	0.332
-378.902	-28.192	0.258	0.150
-377.888	-121.834	0.206	0.034
-376.873	-32.222	-0.258	0.145
-375.858	-67.408	0.288	0.114
-374.844	-200.000	-0.022	-0.207
-373.829	405.329	-0.094	0.200
-372.815	800.000	-0.083	0.281
-371.800	156.475	-0.128	0.178
-370.785	-200.000	0.004	0.216
-369.771	328.007	0.156	0.300
-368.756	49.111	0.524	-0.495
-367.742	84.415	0.275	-0.303
-366.727	800.000	0.025	0.085
-365.712	-35.221	0.021	-0.011
-364.698	-200.000	-0.055	-0.310
-363.683	587.451	-0.121	-0.298
-362.669	-40.398	0.291	-0.152
-361.654	-12.553	0.416	-0.273
-360.639	142.058	-0.268	-0.357
-359.625	-23.983	0.207	-0.125
-358.610	-25.117	-0.336	0.200
-357.596	200.387	-0.235	-0.363
-356.581	800.000	0.054	-0.167
-355.566	81.750	-0.085	-0.092
-354.552	-200.000	-0.018	0.225
-353.537	-148.362	0.111	-0.009
-352.523	-200.000	0.045	0.222
-351.508	-74.865	-0.309	-0.111
-350.493	135.439	-0.040	0.052
-349.479	-97.514	0.238	-0.062
-348.464	197.368	-0.118	0.180
-347.450	-54.379	-0.161	0.073
-346.435	-42.116	-0.104	-0.053
-345.420	-85.137	-0.196	-0.061
-344.406	27.517	0.183	0.155
-343.391	-2.211	0.293	-0.206
-342.377	-0.634	0.123	0.087
-341.362	-14.966	-0.205	-0.132
-340.348	-200.000	-0.007	0.145
-339.333	-200.000	-0.026	0.123
-338.318	62.329	0.104	-0.104
-337.304	-200.000	0.001	-0.060
-336.289	246.688	-0.185	0.314
-335.275	-135.759	0.087	0.010
-334.260	94.829	-0.021	0.024
-333.245	69.073	0.091	0.094
-332.231	78.303	0.257	0.275
-331.216	-200.000	0.066	0.483
-330.202	-149.637	-0.124	-0.010
-329.187	-100.530	0.185	-0.046
-328.172	-162.709	-0.096	0.005
-327.158	15.107	0.121	-0.095
-326.143	-88.977	-0.129	0.038
-325.129	-200.000	-0.055	0.287
-324.114	-194.219	0.219	-0.002
-323.099	-200.000	-0.009	0.179
-322.085	800.000	0.026	0.095
-321.070	-109.722	-0.162	0.034
-320.056	-78.411	-0.195	-0.067
-319.041	278.977	0.093	0.167
-318.026	-200.000	-0.057	0.265
-317.012	-121.280	0.187	-0.031
-315.997	-144.735	0.132	0.012
-314.983	-200.000	0.141	0.000
-313.968	216.069	-0.211	-0.336
-312.953	-84.101	-0.207	-0.066
-311.939	40.236	0.382	0.344
-310.924	800.000	0.108	-0.317
-309.910	800.000	0.103	-0.309
-308.895	57.599	-0.112	-0.109
-307.880	-56.145	-0.171	-0.076
-306.866	-45.689	-0.244	0.121
-305.851	265.493	0.126	0.221
-304.837	364.316	-0.179	0.361
-303.822	-156.919	-0.295	0.018
-302.807	510.897	0.069	0.162
-301.793	-95.067	-0.273	-0.074
-300.778	-151.995	0.501	0.037
-299.764	-7.745	-0.218	0.148
-298.749	561.055	-0.094	-0.228
-297.735	-82.492	-0.293	-0.095
-296.720	310.516	0.200	0.375
-295.705	-10.174	-0.093	0.062
-294.691	-200.000	-0.017	0.079
-293.676	29.744	-0.091	0.078
-292.662	-17.891	-0.105	0.066
-291.647	-135.680	-0.169	-0.020
-290.632	-81.852	-0.119	-0.039
-289.618	-135.091	-0.138	-0.017
-288.603	-200.000	0.028	0.140
-287.589	-54.707	-0.152	-0.069
-286.574	800.000	-0.033	-0.109
-285.559	-125.197	-0.362	0.056
-284.545	-7.185	-0.107	-0.073
-283.530	-84.923	0.079	-0.025
-282.516	71.344	0.141	0.147
-281.501	98.707	0.276	0.318
-280.486	800.000	0.044	-0.138
-279.472	74.273	-0.192	-0.202
-278.457	403.029	0.100	-0.211
-277.443	-200.000	0.061	-0.454
-276.428	-200.000	-0.024	-0.120
-275.413	719.848	-0.111	0.295
-274.399	62.950	-0.106	0.107
-273.384	474.914	-0.139	-0.314
-272.370	-122.690	0.283	-0.046
-271.355	535.991	0.045	0.107
-270.340	-129.386	-0.134	0.019
-269.326	443.245	-0.066	0.145
-268.311	-9.402	-0.205	0.137
-267.297	-116.477	0.443	0.082
-266.282	800.000	-0.034	-0.123
-265.267	678.311	-0.089	-0.231
-264.253	-200.000	-0.017	-0.105
-263.238	-76.893	0.194	-0.068
-262.224	4.064	-0.276	-0.202
-261.209	800.000	0.151	0.420
-260.195	-109.969	0.334	-0.070
-259.180	392.429	0.248	-0.516
-258.165	-200.000	0.019	-0.258
-257.151	28.699	0.265	0.224
-256.136	-34.282	0.279	0.153
-255.122	289.425	0.072	-0.130
-254.107	-141.021	-0.153	0.016
-253.092	800.000	0.016	-0.069
-252.078	-200.000	0.021	0.099
-251.063	-115.781	0.388	-0.073
-250.049	181.056	0.215	0.316
-249.034	162.327	-0.124	0.174
-248.019	-200.000	-0.009	-0.114
-247.005	-130.097	-0.230	-0.031
-245.990	-200.000	0.034	-0.371
-244.976	-91.867	0.074	0.021
-243.961	800.000	0.088	-0.246
-242.946	-10.614	-0.144	-0.095
-241.932	396.373	0.102	-0.213
-240.917	101.339	-0.116	-0.136
-239.903	411.264	-0.130	0.277
-238.888	-58.582	-0.234	-0.101
-237.873	-200.000	0.008	0.134
-236.859	800.000	-0.100	0.284
-235.844	5.648	-0.050	0.037
-234.830	-200.000	0.033	0.395
-233.815	318.895	-0.073	-0.138
-232.800	15.207	0.093	-0.073
-231.786	476.296	-0.221	0.499
-230.771	800.000	-0.026	-0.086
-229.757	365.149	0.124	-0.249
-228.742	80.783	-0.308	0.332
-227.727	-158.430	-0.324	0.019
-226.713	-63.292	0.314	-0.129
-225.698	-15.683	-0.052	-0.033
-224.684	-45.802	-0.108	0.053
-223.669	-65.712	0.214	-0.086
-222.655	-68.399	0.179	0.069
-221.640	-200.000	0.001	0.048
-220.625	800.000	0.063	0.188
-219.611	-22.215	0.063	0.038
-218.596	-155.846	-0.378	-0.024
-217.582	389.611	-0.119	-0.246
-216.567	109.359	0.111	0.132
-215.552	-29.401	-0.129	0.074
-214.538	561.246	0.068	-0.165
-213.523	-200.000	0.011	0.402
-212.509	-200.000	0.072	0.389
-211.494	800.000	0.070	-0.223
-210.479	-200.000	0.011	0.107
-209.465	232.818	0.139	0.229
-208.450	72.516	-0.036	-0.037
-207.436	-200.000	0.027	0.161
-206.421	-150.968	0.152	-0.011
-205.406	64.073	0.120	-0.121
-204.392	49.482	0.189	0.178
-203.377	-170.313	0.320	-0.011
-202.363	-62.797	-0.195	-0.080
-201.348	-93.279	0.057	-0.016
-200.333	93.503	-0.142	0.161
-199.319	129.602	-0.182	0.233
-198.304	187.534	-0.118	0.176
-197.290	-102.740	-0.323	0.077
-196.275	-97.077	-0.132	0.034
-195.260	204.153	-0.205	-0.318
-194.246	297.163	-0.031	-0.057
-193.231	-5.381	0.301	-0.207
-192.217	-76.887	-0.257	0.090
-191.202	-141.102	-0.322	0.033
-190.187	-200.000	-0.002	-0.179
-189.173	-18.130	-0.388	0.242
-188.158	-200.000	-0.031	0.282
-187.144	800.000	0.104	-0.418
-186.129	-145.266	0.469	-0.042
-185.114	69.001	0.138	0.141
-184.100	-200.000	0.001	0.275
-183.085	800.000	-0.079	0.342
-182.071	-21.244	-0.303	-0.185
-181.056	800.000	-0.082	-0.323
-180.042	-96.692	-0.163	-0.043
-179.027	16.362	-0.109	0.085
-178.012	54.775	0.208	0.200
-176.998	-73.781	0.106	0.039
-175.983	-200.000	0.031	-0.139
-174.969	-200.000	-0.026	-0.116
-173.954	34.977	0.243	-0.212
-172.939	-200.000	0.061	-0.497
-171.925	163.003	0.086	0.121
-170.910	46.564	-0.104	0.097
-169.896	-111.619	0.085	0.017
-168.881	-32.141	0.405	-0.226
-167.866	-200.000	-0.004	-0.371
-166.852	800.000	0.030	0.115
-165.837	-34.632	-0.575	0.313
-164.823	800.000	0.022	0.082
-163.808	226.670	0.093	0.151
-162.793	-55.626	0.199	0.089
-161.779	-200.000	0.183	0.000
-160.764	-95.148	-0.224	0.060
-159.750	800.000	-0.077	0.215
-158.735	-86.592	-0.206	-0.063
-157.720	-4.551	-0.186	0.128
-156.706	241.534	0.134	-0.223
-155.691	-86.838	0.330	0.100
-154.677	39.784	0.225	-0.201
-153.662	-200.000	0.042	0.203
-152.647	201.085	0.079	0.121
-151.633	104.773	-0.172	0.202
-150.618	-200.000	0.012	0.201
-149.604	800.000	-0.117	0.380
-148.589	-15.068	-0.210	-0.134
-147.574	-35.434	-0.043	-0.023
-146.560	52.663	0.094	-0.089
-145.545	135.584	0.172	-0.222
-144.531	-200.000	0.024	-0.608
-143.516	-148.871	-0.430	0.035
-142.502	500.762	-0.179	0.412
-141.487	-115.891	-0.054	0.010
-140.472	475.642	-0.101	0.227
-139.458	-107.018	-0.231	-0.051
-138.443	-64.389	-0.207	0.084
-137.429	137.165	0.172	0.224
-136.414	91.033	0.234	0.261
-135.399	49.549	-0.242	-0.227
-134.385	-149.939	-0.207	0.016
-133.370	-8.273	0.179	0.120
-132.356	332.999	0.095	-0.182
-131.341	620.081	-0.104	0.259
-130.326	-33.625	0.483	0.265
-129.312	-200.000	-0.018	0.225
-128.297	359.458	0.088	-0.175
-127.283	114.225	0.153	-0.186
-126.268	-17.008	-0.152	-0.096
-125.253	800.000	0.077	0.246
-124.239	-116.851	-0.151	0.028
-123.224	-129.255	-0.119	-0.016
-122.210	800.000	-0.062	-0.194
-121.195	800.000	-0.050	0.184
-120.180	-200.000	-0.014	-0.079
-119.166	-33.429	0.246	0.135
-118.151	-78.577	0.142	0.048
-117.137	45.367	-0.107	-0.098
-116.122	-50.763	-0.364	0.170
-115.107	58.690	0.025	0.024
-114.093	294.431	-0.128	-0.234
-113.078	491.445	0.087	-0.199
-112.064	800.000	0.048	0.163
-111.049	-200.000	0.017	0.123
-110.034	110.556	-0.085	-0.101
-109.020	72.224	-0.164	0.170
-108.005	-134.945	-0.096	-0.012
-106.991	800.000	0.121	-0.443
-105.976	-185.204	-0.311	0.005
-104.962	-200.000	0.059	0.338
-103.947	-89.427	-0.204	-0.060
-102.932	-111.360	-0.067	0.014
-101.918	-8.453	-0.156	0.105
-100.903	-163.849	-0.316	0.015
-99.889	-200.000	-0.006	-0.065
-98.874	337.555	0.183	0.354
-97.859	41.070	0.232	-0.208
-96.845	66.056	0.176	-0.177
-95.830	-200.000	0.047	0.356
-94.816	-160.414	-0.137	-0.007
-93.801	-87.797	-0.394	0.118
-92.786	-62.142	-0.112	0.046
-91.772	80.298	0.382	0.408
-90.757	-101.987	-0.562	-0.135
-89.743	-6.689	0.106	0.072
-88.728	-46.583	-0.119	0.058
-87.713	-59.863	-0.075	0.032
-86.699	-73.595	0.261	-0.095
-85.684	227.753	-0.075	-0.121
-84.670	-65.197	-0.060	-0.024
-83.655	-200.000	0.025	-0.175
-82.640	800.000	0.117	0.350
-81.626	-200.000	-0.001	0.253
-80.611	-200.000	0.008	0.088
-79.597	70.198	-0.031	0.032
-78.582	-9.067	0.184	0.122
-77.567	-193.962	0.096	0.001
-76.553	-132.795	0.189	-0.024
-75.538	115.545	-0.067	-0.081
-74.524	-115.546	-0.293	0.055
-73.509	-152.884	-0.714	-0.050
-72.494	-59.208	0.094	0.040
-71.480	207.597	0.105	-0.163
-70.465	57.913	-0.060	0.058
-69.451	761.647	-0.068	0.183
-68.436	-125.760	-0.225	0.034
-67.422	-200.000	0.044	0.236
-66.407	-96.106	-0.203	0.053
-65.392	328.778	0.092	0.175
-64.378	-200.000	0.053	0.254
-63.363	142.223	-0.289	0.380
-62.349	-82.910	-0.124	0.040
-61.334	126.232	-0.804	-1.010
-60.319	63.284	0.273	0.272
-59.305	-200.000	-0.095	-0.997
-58.290	80.572	0.731	0.782
-57.276	513.601	0.690	1.597
-56.261	-200.000	85.157	499.772
-55.246	492.351	1359.237	3091.356
-54.232	150.032	2570.508	3460.409
-53.217	113.241	2196.714	2644.696
-52.203	49.418	1657.776	1547.950
-51.188	41.985	1392.489	1253.853
-50.173	38.767	1348.437	1194.576
-49.159	56.974	1391.402	1345.624
-48.144	62.204	1410.630	1396.522
-47.130	42.466	1368.049	1234.610
-46.115	38.727	1351.026	1196.437
-45.100	38.618	1345.805	1191.106
-44.086	38.569	1343.419	1188.649
-43.071	38.449	1341.309	1186.007
-42.057	38.430	1339.230	1184.006
-41.042	38.436	1337.822	1182.749
-40.027	38.596	1335.661	1181.755
-39.013	38.507	1334.235	1179.915
-37.998	38.548	1332.099	1178.222
-36.984	38.539	1330.540	1176.742
-35.969	38.734	1328.595	1176.147
-34.954	38.597	1327.340	1174.168
-33.940	38.658	1325.379	1172.753
-32.925	38.674	1323.986	1171.571
-31.911	38.730	1322.496	1170.537
-30.896	38.707	1321.486	1169.461
-29.881	38.720	1320.119	1168.279
-28.867	38.708	1318.253	1166.514
-27.852	38.810	1316.775	1165.766
-26.838	38.779	1315.641	1164.529
-25.823	38.848	1313.720	1163.195
-24.809	38.781	1312.872	1161.997
-23.794	38.732	1311.211	1160.193
-22.779	38.757	1309.842	1159.086
-21.765	38.821	1308.398	1158.138
-20.750	38.752	1307.084	1156.524
-19.736	38.587	1306.130	1154.659
-18.721	38.452	1305.357	1153.135
-17.706	38.652	1303.570	1152.688
-16.692	38.535	1302.716	1151.200
-15.677	38.575	1301.749	1150.530
-14.663	38.556	1300.599	1149.355
-13.648	38.671	1299.171	1148.725
-12.633	38.636	1298.032	1147.465
-11.619	38.569	1297.426	1146.495
-10.604	38.572	1296.656	1145.785
-9.590	38.614	1295.537	1144.997
-8.575	38.583	1294.744	1144.067
-7.560	38.588	1293.403	1142.867
-6.546	38.546	1292.778	1142.023
-5.531	38.490	1292.228	1141.167
-4.517	38.541	1291.434	1140.721
-3.502	38.552	1290.261	1139.701
-2.487	38.533	1289.251	1138.653
-1.473	38.519	1284.996	1134.766
-0.458	36.765	1269.257	1110.774
0.556	32.110	1249.497	1065.072
1.571	27.872	1252.660	1043.516
2.586	26.652	1267.989	1049.130
3.600	25.566	1257.477	1034.097
4.615	18.632	1180.719	933.307
5.629	7.104	1099.298	810.166
6.644	1.783	1075.519	765.873
7.659	1.371	1072.978	761.927
8.673	1.246	1071.662	760.302
9.688	1.171	1070.440	758.993
10.702	1.572	1069.224	760.065
11.717	8.463	1079.667	802.103
12.731	18.992	1094.348	866.236
13.746	23.576	1100.229	893.969
14.761	24.162	1100.697	897.220
15.775	24.042	1100.173	896.111
16.790	23.899	1099.320	894.615
17.804	23.833	1098.743	893.733
18.819	23.964	1097.967	893.683
19.834	23.991	1097.610	893.448
20.848	24.083	1097.425	893.684
21.863	24.001	1097.183	892.993
22.877	23.907	1096.005	891.487
23.892	23.821	1095.511	890.572
24.907	23.980	1094.550	890.510
25.921	23.958	1093.496	889.462
26.936	23.952	1091.875	888.035
27.950	23.914	1090.334	886.514
28.965	23.758	1088.849	884.450
29.980	23.851	1086.876	883.232
30.994	23.941	1086.508	883.304
32.009	24.038	1085.097	882.561
33.023	23.833	1084.081	880.640
34.038	23.818	1083.366	879.907
35.053	23.938	1082.963	880.093
36.067	24.089	1081.524	879.597
37.082	24.108	1080.887	879.095
38.096	24.274	1080.329	879.379
39.111	24.276	1079.558	878.685
40.126	24.152	1078.071	876.787
41.140	23.813	1076.367	873.656
42.155	23.505	1075.000	870.957
43.169	23.574	1074.055	870.452
44.184	23.584	1073.052	869.612
45.199	23.477	1071.771	867.973
46.213	23.640	1070.834	867.936
47.228	23.714	1070.505	867.953
48.242	23.907	1069.166	867.730
49.257	23.841	1069.108	867.287
50.271	24.101	1067.765	867.385
51.286	24.120	1066.713	866.547
52.301	24.036	1066.270	865.703
53.315	24.006	1064.924	864.390
54.330	23.807	1063.946	862.554
55.344	23.945	1063.206	862.543
56.359	23.867	1062.546	861.557
57.374	23.777	1061.374	860.093
58.388	23.839	1060.531	859.633
59.403	23.699	1059.372	857.942
60.417	23.600	1058.483	856.668
61.432	23.719	1058.121	856.875
62.447	23.829	1057.730	857.011
63.461	23.784	1056.677	855.866
64.476	23.675	1055.844	854.592
65.490	23.646	1054.757	853.496
66.505	23.598	1054.329	852.844
67.520	23.679	1053.478	852.469
68.534	23.732	1051.915	851.384
69.549	23.226	1051.362	848.434
70.563	23.183	1050.635	847.566
71.578	23.192	1049.644	846.736
72.593	23.136	1048.663	845.603
73.607	23.162	1048.246	845.314
74.622	23.550	1047.787	846.722
75.636	23.529	1046.927	845.854
76.651	23.407	1046.293	844.685
77.666	23.365	1045.358	843.655
78.680	23.329	1045.028	843.140
79.695	23.484	1043.958	842.940
80.709	23.572	1043.373	842.813
81.724	23.530	1042.783	842.062
82.739	23.726	1041.555	841.923
83.753	23.919	1041.536	842.751
84.768	24.209	1040.434	843.156
85.782	24.365	1039.641	843.175
86.797	24.258	1038.822	841.933
87.812	24.110	1037.962	840.463
88.826	24.105	1037.139	839.695
89.841	24.223	1035.984	839.241
90.855	24.268	1035.314	838.836
91.870	24.127	1034.483	837.428
92.884	24.039	1033.305	835.989
93.899	23.961	1032.262	834.702
94.914	24.226	1031.540	835.285
95.928	23.966	1030.025	832.769
96.943	23.773	1029.005	830.968
97.957	23.691	1027.612	829.387
98.972	23.438	1026.628	827.337
99.987	23.787	1026.223	828.567
101.001	23.863	1025.329	828.126
102.016	23.903	1024.375	827.467
103.030	23.784	1023.672	826.273
104.045	23.543	1023.336	824.810
105.060	23.582	1021.674	823.581
106.074	23.851	1020.438	823.755
107.089	23.922	1020.682	824.210
108.103	23.909	1019.227	822.901
109.118	23.681	1018.044	820.821
110.133	23.717	1017.343	820.345
111.147	23.479	1016.072	818.155
112.162	23.387	1014.989	816.783
113.176	23.595	1014.586	817.343
114.191	23.600	1013.960	816.790
115.206	23.122	1013.092	813.822
116.220	23.209	1011.937	813.221
117.235	23.428	1010.722	813.179
118.249	23.423	1009.742	812.296
119.264	23.350	1008.971	811.269
120.279	23.299	1008.521	810.601
121.293	23.344	1007.980	810.302
122.308	23.467	1006.773	809.822
123.322	23.389	1005.433	808.318
124.337	23.265	1004.096	806.605
125.352	22.818	1002.552	803.257
126.366	22.615	1001.585	801.490
127.381	23.428	1001.852	805.328
128.395	23.813	1001.304	806.564
129.410	23.879	1000.374	806.041
130.424	23.952	999.272	805.412
131.439	23.973	998.323	804.674
132.454	23.894	997.423	803.520
133.468	23.852	996.551	802.555
134.483	23.857	996.158	802.189
135.497	24.194	995.293	802.945
136.512	24.218	994.680	802.487
137.527	24.063	993.706	800.931
138.541	24.228	992.719	800.806
139.556	24.240	991.962	800.180
140.570	24.317	991.452	800.044
141.585	24.337	990.450	799.254
142.600	24.199	989.413	797.727
143.614	24.360	988.829	797.907
144.629	24.510	988.101	797.919
145.643	24.320	986.649	795.828
146.658	24.122	985.159	793.672
147.673	24.202	983.696	792.778
148.687	24.096	982.562	791.324
149.702	23.875	981.700	789.579
150.716	23.949	981.040	789.308
151.731	24.108	980.002	789.108
152.746	24.096	980.284	789.212
153.760	24.365	979.086	789.368
154.775	24.514	978.071	789.138
155.789	24.284	977.608	787.680
156.804	24.158	976.773	786.379
157.819	24.357	975.797	786.399
158.833	24.415	975.269	786.162
159.848	24.483	973.962	785.338
160.862	24.218	972.929	783.272
161.877	24.149	972.244	782.348
162.892	24.326	971.154	782.177
163.906	24.413	969.857	781.445
164.921	24.139	969.189	779.637
165.935	24.309	968.323	779.615
166.950	24.277	967.364	778.635
167.964	24.246	966.436	777.686
168.979	24.078	965.236	775.917
169.994	24.146	964.049	775.192
171.008	24.292	963.717	775.492
172.023	24.437	963.068	775.527
173.037	24.214	961.651	773.352
174.052	24.038	960.961	771.964
175.067	24.024	960.423	771.404
176.081	24.270	959.262	771.469
177.096	24.107	959.130	770.588
178.110	23.741	957.977	768.012
179.125	23.697	956.933	766.915
180.140	23.677	956.932	766.762
181.154	23.851	956.640	767.211
182.169	24.080	956.267	767.831
183.183	24.411	955.559	768.622
184.198	24.280	954.441	767.090
185.213	24.179	954.249	766.435
186.227	24.226	953.451	765.926
187.242	24.319	952.702	765.657
188.256	24.342	952.146	765.241
189.271	24.511	951.310	765.226
190.286	24.076	950.016	762.254
191.300	23.460	948.848	758.614
192.315	22.795	947.198	754.388
193.329	22.681	946.710	753.447
194.344	23.541	947.306	757.526
195.359	24.186	947.322	760.228
196.373	24.183	946.914	759.818
197.388	24.195	945.983	759.057
198.402	24.175	945.061	758.165
199.417	24.300	944.185	757.928
200.432	23.947	943.656	755.932
201.446	23.678	942.944	754.156
202.461	23.820	942.121	754.030
203.475	23.025	940.613	749.389
204.490	22.230	939.121	744.769
205.504	23.006	939.827	748.549
206.519	23.592	939.432	750.648
207.534	23.756	939.060	750.980
208.548	24.160	938.719	752.346
209.563	23.959	937.717	750.630
210.577	23.895	937.012	749.727
211.592	24.408	936.378	751.314
212.607	24.342	935.437	750.217
213.621	24.411	934.903	750.011
214.636	24.307	934.451	749.147
215.650	24.228	933.848	748.263
216.665	24.431	932.945	748.326
217.680	24.386	932.248	747.511
218.694	23.944	930.816	744.449
219.709	23.685	930.927	743.389
220.723	24.105	929.969	744.313
221.738	24.151	929.146	743.780
222.753	24.025	928.447	742.628
223.767	24.339	928.134	743.623
224.782	24.489	927.868	743.968
225.796	24.576	926.975	743.546
226.811	23.721	925.930	739.088
227.826	23.168	924.446	735.542
228.840	23.397	924.005	736.077
229.855	23.433	923.175	735.500
230.869	23.053	922.497	733.319
231.884	23.486	922.697	735.207
232.899	24.353	921.996	738.175
233.913	24.230	921.503	737.206
234.928	24.132	921.029	736.354
235.942	24.059	920.352	735.449
236.957	23.698	919.576	733.272
237.972	23.703	919.074	732.829
238.986	23.778	918.435	732.563
240.001	23.895	917.798	732.470
241.015	23.884	916.986	731.711
242.030	24.115	916.755	732.412
243.045	24.178	916.275	732.224
244.059	24.335	915.870	732.483
245.074	24.198	914.802	730.999
246.088	23.861	914.013	728.922
247.103	24.110	913.508	729.476
248.117	24.664	913.686	731.823
249.132	24.840	913.181	732.074
250.147	24.902	912.587	731.788
251.161	25.000	912.305	731.895
252.176	24.972	911.988	731.462
253.190	25.094	910.903	731.025
254.205	25.225	910.792	731.405
255.220	25.137	910.088	730.415
256.234	24.966	908.876	728.683
257.249	24.989	908.072	728.067
258.263	25.054	907.524	727.828
259.278	25.062	907.155	727.501
260.293	25.130	906.611	727.276
261.307	25.076	905.644	726.218
262.322	24.832	905.039	724.678
263.336	23.991	902.995	719.581
264.351	23.217	900.562	714.455
265.366	23.002	900.825	713.732
266.380	24.200	901.580	719.102
267.395	24.731	901.364	721.010
268.409	24.719	900.607	720.292
269.424	24.858	899.857	720.190
270.439	24.847	899.179	719.537
271.453	24.994	898.562	719.571
272.468	25.138	898.381	719.941
273.482	25.096	897.988	719.393
274.497	24.729	896.671	716.805
275.512	24.248	895.998	714.274
276.526	24.661	895.996	715.866
277.541	24.985	895.652	716.825
278.555	24.870	894.314	715.231
279.570	24.521	893.704	713.284
280.585	24.656	893.435	713.548
281.599	24.594	892.198	712.250
282.614	24.109	891.025	709.318
283.628	23.995	890.883	708.687
284.643	24.396	890.417	709.848
285.657	24.132	889.068	707.664
286.672	23.806	888.173	705.594
287.687	24.614	888.123	708.697
288.701	24.465	888.006	707.951
289.716	24.156	887.003	705.863
290.730	24.169	886.238	705.244
291.745	23.978	884.836	703.313
292.760	24.059	885.119	703.795
293.774	25.085	885.639	708.203
294.789	25.542	885.206	709.598
295.803	25.457	884.577	708.695
296.818	25.426	883.988	708.040
297.833	24.954	882.595	705.002
298.847	24.767	882.084	703.796
299.862	25.068	882.233	705.038
300.876	25.428	881.814	706.056
301.891	25.398	880.756	705.026
302.906	24.953	879.740	702.407
303.920	25.189	878.982	702.664
304.935	25.508	879.046	703.903
305.949	25.318	878.534	702.687
306.964	25.065	877.980	701.190
307.979	25.224	877.136	701.077
308.993	25.604	877.001	702.393
310.008	25.406	876.928	701.495
311.022	25.127	876.000	699.605
312.037	25.123	875.202	698.888
313.052	24.901	874.387	697.311
314.066	23.996	872.422	692.166
315.081	23.574	871.935	690.075
316.095	24.471	872.181	693.699
317.110	25.036	872.255	695.892
318.125	24.149	870.329	690.852
319.139	23.013	869.388	685.642
320.154	23.098	868.401	685.131
321.168	24.089	868.760	689.193
322.183	24.716	869.128	691.852
323.197	24.935	868.758	692.343
324.212	25.066	868.376	692.481
325.227	25.227	867.664	692.475
326.241	25.170	867.035	691.691
327.256	25.003	866.218	690.336
328.270	24.841	866.063	689.527
329.285	24.642	865.101	687.932
330.300	24.486	864.025	686.416
331.314	24.632	864.017	686.911
332.329	25.032	863.851	688.257
333.343	25.213	863.799	688.848
334.358	25.087	863.369	687.961
335.373	25.454	862.514	688.626
336.387	25.587	862.675	689.202
337.402	25.593	862.483	689.011
338.416	25.607	862.086	688.686
339.431	25.774	861.054	688.440
340.446	25.906	861.226	689.020
341.460	25.767	860.599	687.927
342.475	25.665	860.043	687.031
343.489	25.804	859.680	687.214
344.504	25.800	859.560	687.041
345.519	26.017	859.507	687.763
346.533	26.095	858.735	687.384
347.548	26.083	858.071	686.744
348.562	26.047	857.688	686.241
349.577	25.929	856.882	685.086
350.592	25.963	856.056	684.495
351.606	25.897	855.608	683.827
352.621	25.942	854.506	683.055
353.635	25.880	853.546	681.991
354.650	25.197	852.237	678.306
355.665	24.185	850.727	673.219
356.679	24.671	850.254	674.621
357.694	25.097	850.054	676.009
358.708	25.050	849.339	675.206
359.723	25.335	849.559	676.395
360.738	25.601	849.002	676.893
361.752	25.677	848.893	677.031
362.767	25.931	848.779	677.837
363.781	26.239	848.116	678.402
364.796	26.471	847.432	678.664
365.810	26.588	847.113	678.788
366.825	26.488	846.550	677.905
367.840	26.017	845.879	675.544
368.854	25.652	844.965	673.386
369.869	25.715	844.650	673.313
370.883	25.932	843.934	673.492
371.898	25.670	843.636	672.217
372.913	25.826	843.459	672.596
373.927	25.934	842.594	672.254
374.942	26.106	842.539	672.791
375.956	26.160	841.936	672.449
376.971	26.331	841.441	672.633
377.986	26.386	841.639	672.934
379.000	26.329	840.765	671.966
380.015	26.059	840.544	670.727
381.029	26.298	839.723	670.900
382.044	26.441	839.135	670.900
383.059	26.534	837.890	670.189
384.073	26.373	838.010	669.629
385.088	26.359	837.075	668.771
386.102	26.307	836.314	667.912
387.117	26.019	835.895	666.453
388.132	25.595	835.051	664.158
389.146	25.373	833.781	662.269
390.161	25.689	833.892	663.466
391.175	26.127	833.455	664.671
392.190	25.732	832.414	662.328
393.205	24.468	830.459	656.074
394.219	22.937	828.512	648.857
395.234	22.941	828.692	648.958
396.248	24.544	830.007	655.821
397.263	25.823	830.982	661.231
398.278	25.659	830.826	660.445
399.292	25.684	829.717	659.600
400.307	25.656	829.271	659.081
401.321	25.737	828.549	658.746
402.336	26.119	828.714	660.217
403.350	26.475	828.532	661.317
404.365	26.867	828.347	662.541
405.380	27.042	828.024	662.864
406.394	27.136	827.645	662.843
407.409	26.998	826.831	661.629
408.423	27.046	826.554	661.525
409.438	27.077	826.402	661.457
410.453	27.144	825.780	661.147
411.467	27.109	825.016	660.349
412.482	27.057	825.111	660.177
413.496	27.094	824.617	659.859
414.511	26.952	824.278	659.012
415.526	27.213	823.378	659.180
416.540	26.923	822.972	657.745
417.555	26.711	822.351	656.425
418.569	26.832	821.950	656.486
419.584	26.786	821.226	655.681
420.599	26.490	820.688	654.125
421.613	101.115	1273.867	1412.446
422.628	87.416	1339.906	1412.560
