DTS Sentinel unit serial number:	SN413079Multiplexer serial number:	ORYXHardware model number:	OX4-SRSoftware version number:	ORYX F/W v4.00 Oryx Data Collector v3.7.2.0data status	okinstallation	princeton_trtdifferential loss correction	single-endedforward channel	channel 1reverse channel	N/Adate	2019/09/19time	07:58:35forward acquisition time	60.00reverse acquisition time	0.00gamma	496.2192k internal	0.2341k external	0.2341temperature offset calibration	1.0013default loss term (dB/km)	0.3790temperature slope calibration	1.0000multiplexer offset coefficient	1.0000multiplexer slope coefficient	1.0000fibre end	0.00T internal ref (°C)	19.80T ext. ref 1 (°C)	0.55T ext. ref 2 (°C)	15.27length (m)	temperature (°C)	Stokes	anti-Stokes-747.200	102.741	-0.100	0.117
-746.185	87.215	-0.250	0.277
-745.171	-110.905	-0.071	0.015
-744.156	207.358	-0.126	0.197
-743.142	734.133	-0.047	0.127
-742.127	-176.030	0.397	0.011
-741.112	-105.745	0.345	0.078
-740.098	76.027	-0.169	0.179
-739.083	-175.385	0.234	-0.006
-738.069	-200.000	-0.031	0.181
-737.054	-167.306	-0.382	0.015
-736.039	0.813	-0.540	0.387
-735.025	141.914	0.109	-0.145
-734.010	-151.304	-0.151	-0.011
-732.996	299.625	-0.049	-0.091
-731.981	800.000	-0.074	-0.280
-730.966	-77.781	0.088	0.031
-729.952	-144.474	0.389	-0.036
-728.937	800.000	-0.013	-0.040
-727.923	405.989	0.104	-0.219
-726.908	-149.012	-0.310	-0.025
-725.894	-200.000	0.019	0.212
-724.879	800.000	0.067	-0.217
-723.864	-67.415	0.280	0.110
-722.850	629.975	0.127	0.322
-721.835	-149.054	-0.247	-0.020
-720.821	428.476	0.093	-0.201
-719.806	-95.983	-0.062	-0.016
-718.791	-3.145	-0.150	-0.104
-717.777	-125.318	0.264	-0.040
-716.762	478.543	-0.054	-0.123
-715.748	494.523	0.079	0.182
-714.733	241.761	-0.288	-0.482
-713.718	-200.000	0.016	-0.301
-712.704	109.316	-0.214	0.256
-711.689	-89.661	0.219	0.064
-710.675	-125.521	-0.186	-0.028
-709.660	345.742	0.111	-0.219
-708.645	800.000	-0.097	-0.378
-707.631	58.895	-0.218	0.214
-706.616	456.680	-0.055	0.121
-705.602	-129.618	-0.204	-0.028
-704.587	-127.660	0.063	-0.009
-703.572	800.000	-0.055	0.196
-702.558	-42.752	-0.189	-0.096
-701.543	-109.758	0.154	-0.032
-700.529	-200.000	0.039	-0.217
-699.514	-200.000	-0.039	-0.395
-698.499	-121.350	0.076	0.013
-697.485	-200.000	0.077	-0.506
-696.470	24.777	-0.133	0.110
-695.456	32.011	0.223	-0.192
-694.441	800.000	-0.057	-0.204
-693.426	68.861	0.276	-0.284
-692.412	37.390	0.233	-0.207
-691.397	671.496	0.046	0.119
-690.383	-26.211	-0.283	-0.166
-689.368	562.360	0.113	-0.273
-688.354	-78.887	-0.234	0.080
-687.339	-25.937	-0.021	-0.012
-686.324	800.000	0.057	-0.247
-685.310	-200.000	-0.036	0.253
-684.295	-33.293	-0.195	0.108
-683.281	-78.107	-0.025	-0.009
-682.266	272.652	-0.171	0.301
-681.251	90.689	-0.050	-0.056
-680.237	190.673	0.112	0.168
-679.222	-200.000	0.010	0.201
-678.208	71.088	0.290	0.300
-677.193	76.839	-0.117	0.125
-676.178	-116.143	0.174	-0.032
-675.164	-200.000	0.051	-0.268
-674.149	-200.000	-0.017	0.182
-673.135	-200.000	-0.048	-0.217
-672.120	209.565	0.081	-0.127
-671.105	-200.000	0.003	-0.064
-670.091	3.232	0.102	-0.074
-669.076	59.172	0.056	0.055
-668.062	-92.335	-0.250	0.070
-667.047	-114.540	0.322	-0.062
-666.032	30.495	0.202	0.173
-665.018	-168.275	-0.185	-0.007
-664.003	36.742	-0.239	-0.211
-662.989	-22.910	0.159	-0.096
-661.974	-2.492	0.026	0.018
-660.959	-18.774	-0.324	0.202
-659.945	72.917	0.031	0.033
-658.930	-128.149	-0.151	-0.022
-657.916	652.828	0.040	-0.104
-656.901	312.191	-0.103	0.192
-655.886	27.981	0.220	-0.186
-654.872	-45.553	0.372	-0.184
-653.857	173.371	0.066	-0.095
-652.843	-131.941	-0.197	-0.026
-651.828	-126.309	0.228	-0.034
-650.814	-200.000	-0.018	0.111
-649.799	-200.000	-0.008	-0.208
-648.784	29.994	-0.119	0.101
-647.770	-47.011	0.273	-0.133
-646.755	268.010	0.158	-0.276
-645.741	-200.000	0.078	0.396
-644.726	130.101	-0.108	0.138
-643.711	-100.885	-0.164	-0.040
-642.697	-200.000	-0.019	0.225
-641.682	38.977	-0.139	-0.124
-640.668	-78.856	0.082	-0.028
-639.653	-52.786	0.256	0.118
-638.638	341.797	0.158	0.309
-637.624	-154.429	-0.225	-0.015
-636.609	74.474	-0.173	0.182
-635.595	-200.000	0.005	0.025
-634.580	800.000	0.012	-0.049
-633.565	-59.445	-0.046	-0.020
-632.551	-200.000	0.039	-0.357
-631.536	-10.801	-0.123	-0.081
-630.522	-72.486	-0.220	0.081
-629.507	381.927	0.057	-0.116
-628.492	120.271	0.015	0.019
-627.478	-71.954	0.249	-0.093
-626.463	110.702	-0.155	0.186
-625.449	-89.036	-0.049	-0.014
-624.434	800.000	-0.088	-0.306
-623.419	800.000	-0.063	0.220
-622.405	198.683	-0.110	0.168
-621.390	169.956	-0.108	0.154
-620.376	-173.942	0.207	0.006
-619.361	101.529	-0.274	-0.318
-618.346	-200.000	-0.029	-0.247
-617.332	6.853	-0.292	-0.217
-616.317	-114.088	-0.141	-0.027
-615.303	-112.675	-0.344	-0.068
-614.288	-200.000	0.000	-0.194
-613.273	-75.086	0.040	-0.014
-612.259	231.909	0.100	0.164
-611.244	800.000	-0.082	0.349
-610.230	-85.695	0.309	0.096
-609.215	-97.177	-0.156	-0.041
-608.201	-178.104	0.019	-0.000
-607.186	-200.000	-0.007	-0.281
-606.171	609.304	0.054	-0.135
-605.157	177.238	-0.122	-0.177
-604.142	46.679	0.131	-0.121
-603.128	-117.976	-0.264	0.047
-602.113	800.000	0.111	0.374
-601.098	-31.989	0.054	-0.030
-600.084	-200.000	-0.267	0.001
-599.069	-65.137	-0.289	0.116
-598.055	800.000	0.028	-0.089
-597.040	-44.447	0.205	0.102
-596.025	22.565	0.171	0.140
-595.011	-200.000	-0.022	-0.226
-593.996	122.389	0.158	-0.197
-592.982	-141.433	-0.371	0.037
-591.967	93.414	-0.300	0.338
-590.952	-88.780	-0.153	-0.045
-589.938	-144.050	0.175	0.016
-588.923	-114.614	-0.159	-0.030
-587.909	-117.054	-0.140	-0.025
-586.894	30.547	0.129	-0.109
-585.879	182.374	-0.025	0.037
-584.865	-143.433	0.096	0.009
-583.850	-200.000	0.030	0.295
-582.836	-117.085	0.100	0.018
-581.821	23.520	-0.171	-0.140
-580.806	-75.933	0.197	0.069
-579.792	-187.851	-0.379	-0.005
-578.777	-71.163	-0.176	-0.066
-577.763	-52.108	0.173	0.080
-576.748	-1.532	-0.038	-0.027
-575.733	137.061	-0.037	-0.048
-574.719	33.912	-0.043	0.037
-573.704	77.930	0.036	-0.039
-572.690	74.868	0.076	-0.079
-571.675	288.918	-0.137	0.247
-570.661	5.607	0.080	0.059
-569.646	118.740	0.203	-0.250
-568.631	-39.221	0.231	-0.121
-567.617	-158.259	0.207	-0.012
-566.602	800.000	-0.038	-0.106
-565.588	-40.283	-0.347	-0.179
-564.573	91.245	-0.134	0.150
-563.558	-8.167	-0.123	-0.082
-562.544	382.873	-0.095	-0.195
-561.529	-34.613	-0.122	0.066
-560.515	-200.000	0.010	-0.153
-559.500	26.045	0.251	-0.208
-558.485	45.708	-0.091	0.084
-557.471	540.117	0.093	-0.220
-556.456	485.164	0.056	0.127
-555.442	-115.047	0.274	0.052
-554.427	-136.702	0.355	-0.041
-553.412	-200.000	-0.039	0.188
-552.398	745.130	0.114	0.304
-551.383	49.603	-0.016	-0.015
-550.369	-175.514	-0.523	-0.014
-549.354	-200.000	-0.003	0.042
-548.339	-40.915	0.165	-0.085
-547.325	-128.091	-0.071	0.010
-546.310	-33.290	-0.258	-0.142
-545.296	266.887	-0.018	-0.031
-544.281	281.761	-0.074	-0.132
-543.266	-144.138	-0.141	-0.013
-542.252	72.817	-0.144	-0.150
-541.237	-200.000	0.032	0.179
-540.223	267.256	-0.120	-0.209
-539.208	144.153	-0.063	-0.084
-538.193	-200.000	0.031	-0.268
-537.179	-200.000	-0.003	-0.050
-536.164	256.582	0.144	-0.245
-535.150	-200.000	0.026	0.393
-534.135	42.888	-0.045	0.041
-533.121	-141.724	0.320	-0.032
-532.106	-200.000	0.011	0.602
-531.091	-200.000	0.016	-0.342
-530.077	-154.623	0.119	-0.008
-529.062	-27.147	0.033	0.019
-528.048	-154.499	-0.306	-0.020
-527.033	99.993	-0.200	0.230
-526.018	-200.000	-0.051	-0.240
-525.004	-33.173	-0.273	0.151
-523.989	168.669	-0.043	0.061
-522.975	42.133	-0.338	0.305
-521.960	212.237	-0.098	-0.153
-520.945	-10.615	-0.147	-0.097
-519.931	-7.712	0.080	-0.053
-518.916	-200.000	-0.000	-0.104
-517.902	-111.072	-0.317	-0.065
-516.887	-132.573	-0.197	-0.025
-515.872	32.084	0.032	0.027
-514.858	-29.661	-0.325	0.184
-513.843	-162.335	-0.138	0.007
-512.829	-143.512	0.226	-0.021
-511.814	418.366	-0.064	-0.135
-510.799	-161.291	0.083	0.004
-509.785	461.443	0.130	-0.287
-508.770	-200.000	-0.041	-0.309
-507.756	-114.131	-0.090	0.017
-506.741	-18.242	0.237	0.147
-505.726	-109.338	0.154	0.032
-504.712	218.499	0.057	0.090
-503.697	99.710	0.077	0.088
-502.683	800.000	-0.106	0.328
-501.668	-155.523	-0.220	0.014
-500.653	-93.066	-0.182	-0.050
-499.639	800.000	-0.044	-0.182
-498.624	-107.172	0.218	0.048
-497.610	-64.919	-0.161	0.064
-496.595	-162.064	0.119	-0.006
-495.581	148.228	-0.122	-0.163
-494.566	800.000	-0.053	0.172
-493.551	-200.000	0.032	-0.607
-492.537	550.063	0.087	-0.207
-491.522	-19.155	-0.196	0.121
-490.508	642.678	0.043	-0.109
-489.493	-200.000	0.012	-0.194
-488.478	-200.000	-0.041	-0.236
-487.464	-141.359	0.112	-0.011
-486.449	229.693	-0.097	-0.157
-485.435	59.333	0.346	-0.338
-484.420	-113.746	0.434	0.084
-483.405	-200.000	0.032	0.216
-482.391	109.658	-0.242	-0.287
-481.376	143.475	-0.123	0.162
-480.362	50.917	-0.185	0.174
-479.347	-131.899	0.218	0.028
-478.332	67.040	-0.232	-0.234
-477.318	-60.086	0.387	-0.164
-476.303	-1.782	-0.086	-0.060
-475.289	-200.000	0.010	-0.179
-474.274	86.663	-0.171	0.187
-473.259	36.418	-0.187	0.164
-472.245	165.977	-0.106	-0.149
-471.230	209.345	0.184	0.286
-470.216	227.693	0.079	0.127
-469.201	-149.934	0.225	-0.017
-468.186	201.397	0.126	-0.192
-467.172	-28.819	-0.167	0.095
-466.157	-200.000	-0.009	-0.338
-465.143	800.000	0.107	0.320
-464.128	792.992	-0.038	-0.104
-463.113	161.854	0.082	0.113
-462.099	351.945	-0.036	0.070
-461.084	-200.000	-0.006	0.121
-460.070	699.073	-0.131	0.342
-459.055	-200.000	-0.083	-0.435
-458.040	175.285	-0.196	0.281
-457.026	-200.000	-0.043	0.337
-456.011	800.000	-0.073	-0.240
-454.997	-53.854	0.093	-0.042
-453.982	143.562	-0.087	-0.114
-452.968	453.330	0.044	0.097
-451.953	25.298	0.133	-0.109
-450.938	-200.000	0.000	0.349
-449.924	228.440	-0.038	-0.061
-448.909	-200.000	0.040	0.186
-447.895	-51.389	-0.273	-0.126
-446.880	113.907	0.195	-0.234
-445.865	-0.853	0.263	0.184
-444.851	89.772	-0.124	0.138
-443.836	-179.134	-0.241	0.005
-442.822	-200.000	0.033	-0.349
-441.807	142.529	-0.247	0.325
-440.792	406.993	-0.215	-0.449
-439.778	-138.410	0.107	0.012
-438.763	301.556	0.149	-0.273
-437.749	335.391	-0.163	-0.313
-436.734	52.232	-0.082	-0.078
-435.719	110.561	-0.072	-0.086
-434.705	30.243	-0.062	0.052
-433.690	50.493	0.124	0.116
-432.676	-85.073	-0.161	0.050
-431.661	37.836	-0.136	-0.120
-430.646	540.543	0.037	0.088
-429.632	628.424	-0.107	0.268
-428.617	-200.000	-0.019	0.163
-427.603	171.444	-0.132	0.188
-426.588	-46.482	-0.299	0.145
-425.573	-200.000	-0.010	-0.212
-424.559	-29.548	-0.165	0.093
-423.544	-38.835	-0.094	-0.049
-422.530	31.814	0.284	-0.242
-421.515	-98.915	0.366	0.092
-420.500	800.000	-0.026	-0.081
-419.486	31.467	0.125	-0.106
-418.471	800.000	-0.043	-0.131
-417.457	-85.116	-0.161	0.050
-416.442	255.043	-0.101	0.172
-415.428	-6.907	0.379	-0.255
-414.413	-200.000	0.015	0.130
-413.398	-67.552	0.065	-0.025
-412.384	370.644	0.133	0.266
-411.369	800.000	-0.105	0.322
-410.355	-118.983	0.115	0.020
-409.340	-167.612	0.094	0.004
-408.325	-2.746	-0.189	0.131
-407.311	-77.867	-0.209	0.071
-406.296	38.410	-0.336	-0.296
-405.282	-200.000	-0.049	0.211
-404.267	245.869	0.179	-0.299
-403.252	800.000	0.142	-0.421
-402.238	-125.874	0.172	-0.026
-401.223	-200.000	0.031	-0.179
-400.209	-126.997	0.337	0.049
-399.194	-95.737	-0.120	0.032
-398.179	-200.000	-0.001	-0.029
-397.165	-80.989	-0.127	0.042
-396.150	442.655	-0.119	-0.258
-395.136	-23.594	-0.173	-0.102
-394.121	56.704	0.178	-0.171
-393.106	364.184	-0.106	-0.211
-392.092	-43.312	0.205	-0.102
-391.077	44.666	0.134	0.121
-390.063	-96.627	-0.201	-0.052
-389.048	175.961	-0.131	0.187
-388.033	-133.104	-0.193	-0.024
-387.019	112.855	-0.271	0.325
-386.004	117.702	0.009	0.011
-384.990	-82.549	-0.108	0.035
-383.975	-56.277	0.278	0.122
-382.960	-170.686	-0.248	-0.008
-381.946	-116.589	-0.224	-0.041
-380.931	-17.484	-0.061	-0.038
-379.917	218.919	0.108	-0.170
-378.902	174.930	-0.210	-0.301
-377.888	-77.178	0.198	0.068
-376.873	-145.786	0.337	0.030
-375.858	382.146	-0.102	0.207
-374.844	-5.015	0.130	-0.089
-373.829	-200.000	-0.098	-0.458
-372.815	-114.584	-0.350	0.066
-371.800	197.674	-0.107	0.161
-370.785	800.000	-0.107	0.328
-369.771	87.360	-0.100	-0.109
-368.756	800.000	0.029	0.086
-367.742	-136.280	0.308	-0.036
-366.727	-129.003	-0.143	-0.020
-365.712	800.000	-0.038	0.156
-364.698	508.759	0.070	0.161
-363.683	-157.786	-0.220	0.013
-362.669	-26.504	0.303	-0.175
-361.654	-101.856	0.179	0.043
-360.639	111.654	-0.135	-0.161
-359.625	-83.570	0.141	0.044
-358.610	90.368	-0.087	0.096
-357.596	-74.928	0.261	-0.092
-356.581	516.538	0.040	-0.092
-355.566	261.782	0.149	0.255
-354.552	-137.115	-0.227	-0.026
-353.537	-94.208	0.082	0.022
-352.523	800.000	-0.051	0.213
-351.508	67.896	-0.172	0.174
-350.493	800.000	0.088	0.276
-349.479	-200.000	-0.060	0.432
-348.464	123.975	-0.353	-0.438
-347.450	-200.000	0.007	-0.064
-346.435	-144.587	0.365	0.033
-345.420	41.968	0.083	0.074
-344.406	-28.839	0.321	-0.182
-343.391	-102.039	0.105	0.025
-342.377	-32.609	0.342	-0.188
-341.362	294.905	-0.044	-0.080
-340.348	94.488	0.099	0.111
-339.333	-200.000	-0.022	-0.233
-338.318	-4.478	0.370	-0.252
-337.304	-200.000	0.048	-0.222
-336.289	46.362	-0.188	-0.172
-335.275	427.796	0.066	-0.140
-334.260	-200.000	0.024	-0.328
-333.245	-83.545	-0.328	0.104
-332.231	-140.119	0.118	-0.012
-331.216	-66.555	-0.026	-0.010
-330.202	-26.466	0.158	-0.091
-329.187	-200.000	-0.007	0.121
-328.172	-200.000	-0.011	-0.289
-327.158	-200.000	-0.033	0.173
-326.143	328.027	-0.118	-0.223
-325.129	89.089	-0.124	0.136
-324.114	-39.210	0.292	-0.151
-323.099	-200.000	0.031	0.196
-322.085	800.000	0.061	-0.213
-321.070	-200.000	0.006	-0.055
-320.056	-136.618	-0.103	-0.012
-319.041	96.210	0.178	-0.200
-318.026	15.818	0.058	0.045
-317.012	179.662	0.144	0.208
-315.997	381.910	0.055	-0.111
-314.983	278.515	0.246	0.432
-313.968	747.261	-0.131	0.349
-312.953	226.665	-0.203	0.324
-311.939	-134.816	0.226	-0.027
-310.924	121.183	0.131	-0.161
-309.910	279.807	-0.096	0.169
-308.895	-200.000	0.007	-0.132
-307.880	-135.612	0.269	0.031
-306.866	800.000	-0.028	0.085
-305.851	-51.248	-0.189	-0.087
-304.837	-200.000	-0.129	-0.001
-303.822	-200.000	-0.015	-0.089
-302.807	-200.000	0.003	0.030
-301.793	-97.002	0.454	-0.117
-300.778	-162.340	0.090	0.004
-299.764	-200.000	-0.015	-0.101
-298.749	241.421	-0.129	-0.212
-297.735	-161.182	0.159	0.008
-296.720	-73.948	-0.194	0.069
-295.705	-55.332	0.378	-0.167
-294.691	800.000	0.136	0.411
-293.676	-188.056	0.374	0.005
-292.662	-63.169	0.454	-0.184
-291.647	-118.645	-0.218	0.038
-290.632	-200.000	0.004	-0.037
-289.618	67.186	-0.167	0.168
-288.603	234.721	-0.230	0.373
-287.589	-40.638	-0.028	0.014
-286.574	-200.000	0.043	0.225
-285.559	-200.000	-0.072	-0.343
-284.545	475.851	0.010	0.021
-283.530	-145.733	-0.248	0.022
-282.516	302.307	0.121	0.220
-281.501	-147.561	0.120	-0.010
-280.486	509.203	0.036	-0.083
-279.472	800.000	-0.089	-0.267
-278.457	139.166	-0.108	-0.139
-277.443	-200.000	0.009	-0.067
-276.428	-64.236	0.191	-0.077
-275.413	800.000	-0.053	0.151
-274.399	-43.751	-0.177	0.088
-273.384	6.025	-0.188	0.137
-272.370	-200.000	-0.014	0.290
-271.355	520.612	-0.187	0.431
-270.340	-200.000	0.093	-0.528
-269.326	-14.390	0.125	0.079
-268.311	-200.000	0.005	-0.060
-267.297	-200.000	-0.016	-0.169
-266.282	-46.820	0.306	0.147
-265.267	-101.899	-0.086	-0.020
-264.253	-101.889	0.308	0.073
-263.238	-116.279	-0.221	0.040
-262.224	-48.107	-0.204	0.097
-261.209	78.391	0.139	0.145
-260.195	-6.200	-0.145	0.098
-259.180	266.224	0.131	0.224
-258.165	191.642	0.107	0.159
-257.151	96.960	0.189	-0.213
-256.136	-148.893	0.138	0.011
-255.122	-78.694	-0.186	0.062
-254.107	-37.696	-0.412	-0.215
-253.092	-200.000	0.058	-0.423
-252.078	358.481	-0.055	0.109
-251.063	429.246	0.070	-0.149
-250.049	-4.700	0.195	-0.132
-249.034	10.650	-0.202	-0.152
-248.019	-36.256	0.219	-0.116
-247.005	-121.914	-0.417	0.068
-245.990	-128.484	-0.068	-0.010
-244.976	34.332	0.089	0.076
-243.961	-61.147	-0.198	0.082
-242.946	-179.722	0.189	-0.004
-241.932	-125.564	-0.040	-0.006
-240.917	1.550	-0.218	-0.154
-239.903	-17.422	0.308	-0.190
-238.888	-146.336	0.152	0.013
-237.873	800.000	-0.004	-0.015
-236.859	14.854	0.208	-0.160
-235.844	-42.413	-0.169	0.085
-234.830	-200.000	0.009	0.205
-233.815	-155.343	0.307	0.020
-232.800	-31.750	0.105	-0.058
-231.786	-22.248	0.112	-0.067
-230.771	-159.848	-0.097	-0.005
-229.757	120.807	-0.226	-0.276
-228.742	11.598	0.085	0.064
-227.727	-200.000	-0.014	0.298
-226.713	800.000	0.065	0.254
-225.698	307.512	-0.111	-0.203
-224.684	800.000	-0.045	0.154
-223.669	81.245	0.057	0.060
-222.655	181.712	-0.130	0.189
-221.640	-81.311	-0.227	-0.073
-220.625	-194.193	0.128	0.001
-219.611	-18.175	0.216	0.133
-218.596	-75.128	-0.030	0.011
-217.582	-106.274	0.188	0.041
-216.567	-189.516	0.298	0.003
-215.552	-200.000	-0.024	-0.150
-214.538	-123.961	0.323	-0.050
-213.523	-45.107	-0.184	0.090
-212.509	139.649	0.182	0.235
-211.494	-200.000	0.027	-0.227
-210.479	800.000	-0.132	0.438
-209.465	-137.274	-0.487	0.054
-208.450	157.548	0.289	0.393
-207.436	28.244	-0.159	-0.131
-206.421	78.600	-0.360	-0.377
-205.406	-38.071	0.365	0.190
-204.392	13.989	-0.090	-0.069
-203.377	198.849	-0.163	0.244
-202.363	-200.000	0.036	0.241
-201.348	-137.933	0.270	-0.030
-200.333	72.640	0.172	-0.176
-199.319	114.975	-0.364	0.436
-198.304	-110.132	0.240	0.049
-197.290	8.973	0.026	0.019
-196.275	570.871	-0.100	0.239
-195.260	188.986	0.076	0.112
-194.246	-200.000	0.008	-0.143
-193.231	320.362	-0.113	0.210
-192.217	-67.022	0.086	0.033
-191.202	24.803	0.284	-0.231
-190.187	117.815	-0.117	-0.141
-189.173	-90.207	0.042	-0.012
-188.158	-31.002	-0.258	0.143
-187.144	-149.081	0.253	-0.020
-186.129	161.072	-0.115	0.158
-185.114	-32.895	0.343	-0.187
-184.100	108.197	0.272	-0.318
-183.085	-200.000	-0.040	-0.228
-182.071	-132.516	0.161	0.020
-181.056	800.000	-0.042	0.159
-180.042	-200.000	0.006	0.327
-179.027	327.376	0.051	0.096
-178.012	-124.800	0.405	-0.061
-176.998	77.232	0.126	-0.131
-175.983	361.118	0.168	-0.330
-174.969	34.205	0.057	0.049
-173.954	-70.580	0.323	0.120
-172.939	6.573	0.288	0.210
-171.925	42.623	-0.149	-0.133
-170.910	50.856	-0.086	0.080
-169.896	71.471	-0.069	0.071
-168.881	243.743	0.069	0.113
-167.866	-200.000	-0.056	0.265
-166.852	-176.206	0.201	0.005
-165.837	-200.000	-0.062	0.300
-164.823	206.285	0.086	0.132
-163.808	-166.966	0.163	0.007
-162.793	206.537	0.137	0.209
-161.779	-54.283	-0.326	0.145
-160.764	17.869	0.121	-0.094
-159.750	45.383	-0.062	0.056
-158.735	-68.600	-0.214	0.081
-157.720	-88.122	0.129	0.038
-156.706	38.111	-0.195	0.170
-155.691	-81.531	-0.103	-0.033
-154.677	-144.329	-0.180	-0.016
-153.662	112.123	0.169	-0.200
-152.647	35.401	0.282	0.242
-151.633	-54.898	0.243	0.107
-150.618	96.325	0.024	-0.027
-149.604	97.234	-0.031	0.035
-148.589	-64.073	0.312	0.125
-147.574	39.481	-0.215	-0.188
-146.560	95.096	-0.102	0.113
-145.545	800.000	-0.046	0.147
-144.531	-189.204	0.386	-0.004
-143.516	800.000	-0.048	-0.143
-142.502	-97.451	-0.370	0.094
-141.487	-195.990	0.045	-0.000
-140.472	-97.620	0.074	0.019
-139.458	447.327	0.124	0.266
-138.443	-28.836	0.193	-0.109
-137.429	-30.583	-0.186	0.103
-136.414	-200.000	0.007	-0.380
-135.399	800.000	0.027	0.073
-134.385	800.000	-0.084	0.318
-133.370	493.718	-0.076	-0.170
-132.356	-200.000	0.054	-0.384
-131.341	-17.412	-0.189	0.116
-130.326	20.875	0.202	0.160
-129.312	-200.000	0.017	0.145
-128.297	800.000	-0.075	0.246
-127.283	-42.576	-0.362	0.181
-126.268	26.089	-0.267	-0.218
-125.253	336.397	0.185	-0.350
-124.239	-76.301	-0.125	0.043
-123.224	-200.000	-0.040	0.357
-122.210	-200.000	-0.002	-0.197
-121.195	126.015	0.183	-0.226
-120.180	89.314	0.235	0.256
-119.166	-61.539	-0.175	-0.072
-118.151	-115.468	-0.049	0.009
-117.137	-7.450	-0.072	0.048
-116.122	-200.000	-0.005	-0.189
-115.107	62.824	0.130	0.127
-114.093	-22.155	-0.051	0.030
-113.078	35.554	-0.112	-0.096
-112.064	-200.000	-0.002	-0.041
-111.049	515.153	-0.176	-0.401
-110.034	130.828	0.060	-0.075
-109.020	-24.773	0.391	-0.227
-108.005	-134.774	-0.090	-0.011
-106.991	534.503	-0.102	-0.237
-105.976	-85.307	-0.238	-0.072
-104.962	-200.000	0.033	0.224
-103.947	-110.120	0.062	0.013
-102.932	-75.941	0.416	0.144
-101.918	-200.000	0.039	0.311
-100.903	15.639	-0.209	0.161
-99.889	137.940	0.193	0.248
-98.874	222.234	-0.058	-0.091
-97.859	-82.579	-0.354	-0.112
-96.845	-46.761	0.242	0.116
-95.830	1.301	0.139	0.098
-94.816	590.635	0.089	-0.215
-93.801	-82.287	0.335	0.106
-92.786	-22.052	0.272	0.162
-91.772	319.972	-0.077	0.143
-90.757	-76.564	0.262	0.090
-89.743	32.790	0.064	-0.054
-88.728	10.064	0.167	-0.124
-87.713	-200.000	-0.003	-0.058
-86.699	202.621	-0.356	-0.537
-85.684	406.329	-0.098	-0.203
-84.670	-80.371	-0.162	-0.053
-83.655	-2.491	0.181	-0.124
-82.640	800.000	-0.072	-0.198
-81.626	-34.745	0.292	-0.156
-80.611	90.688	0.095	-0.104
-79.597	262.815	0.157	0.266
-78.582	272.961	-0.062	0.107
-77.567	-200.000	0.058	-0.308
-76.553	616.084	-0.050	-0.123
-75.538	9.869	0.248	0.184
-74.524	-200.000	0.009	0.095
-73.509	-134.948	-0.263	-0.031
-72.494	-11.297	0.059	0.038
-71.480	-108.347	-0.064	0.013
-70.465	129.618	0.321	-0.400
-69.451	240.244	0.218	0.355
-68.436	10.666	0.062	0.046
-67.422	-200.000	0.007	0.148
-66.407	57.456	-0.486	-0.463
-65.392	90.968	-0.157	-0.172
-64.378	-124.983	0.339	0.051
-63.363	800.000	-0.041	0.132
-62.349	800.000	-0.043	0.166
-61.334	147.927	-1.119	-1.472
-60.319	73.737	0.735	0.752
-59.305	585.793	-0.509	-1.220
-58.290	293.041	0.679	1.208
-57.276	221.489	0.971	1.522
-56.261	-200.000	135.641	644.738
-55.246	331.995	1661.968	3128.078
-54.232	133.914	2800.854	3537.006
-53.217	83.705	2175.097	2313.764
-52.203	30.665	1603.837	1338.305
-51.188	22.794	1353.086	1081.028
-50.173	20.821	1317.838	1041.045
-49.159	47.753	1392.656	1267.526
-48.144	43.435	1401.138	1248.584
-47.130	22.878	1348.950	1078.063
-46.115	19.938	1329.798	1044.999
-45.100	19.701	1324.629	1039.470
-44.086	19.692	1322.238	1037.494
-43.071	19.544	1319.909	1034.740
-42.057	19.657	1317.417	1033.421
-41.042	19.684	1316.471	1032.800
-40.027	19.743	1314.836	1031.827
-39.013	19.739	1312.889	1030.236
-37.998	19.821	1310.836	1029.070
-36.984	19.792	1309.217	1027.589
-35.969	19.860	1307.538	1026.636
-34.954	19.810	1305.647	1024.813
-33.940	19.805	1304.790	1024.070
-32.925	19.763	1303.633	1022.871
-31.911	19.919	1301.438	1022.031
-30.896	19.893	1300.440	1021.053
-29.881	20.021	1298.665	1020.372
-28.867	19.898	1297.616	1018.785
-27.852	19.946	1295.830	1017.625
-26.838	20.013	1294.546	1016.967
-25.823	20.015	1293.152	1015.845
-24.809	19.912	1292.338	1014.560
-23.794	19.858	1291.276	1013.370
-22.779	19.802	1290.379	1012.295
-21.765	19.853	1288.599	1011.162
-20.750	19.817	1287.373	1009.945
-19.736	19.705	1285.642	1007.897
-18.721	19.798	1284.951	1007.859
-17.706	19.690	1283.679	1006.189
-16.692	19.783	1282.011	1005.381
-15.677	19.672	1281.024	1003.923
-14.663	19.701	1279.498	1002.855
-13.648	19.734	1278.853	1002.505
-12.633	19.674	1277.971	1001.422
-11.619	19.744	1277.117	1001.123
-10.604	19.723	1276.478	1000.456
-9.590	19.747	1275.583	999.855
-8.575	19.652	1274.809	998.659
-7.560	19.649	1273.633	997.682
-6.546	19.749	1272.433	997.278
-5.531	19.740	1272.014	996.861
-4.517	19.835	1270.430	996.126
-3.502	19.660	1270.548	995.173
-2.487	19.704	1269.485	994.551
-1.473	19.580	1265.341	990.558
-0.458	18.411	1250.558	972.315
0.556	14.371	1235.569	938.191
1.571	11.238	1245.002	927.467
2.586	10.699	1260.739	936.001
3.600	10.806	1247.711	926.858
4.615	8.184	1175.887	859.315
5.629	2.952	1106.457	781.929
6.644	0.686	1090.231	759.019
7.659	0.549	1088.264	756.898
8.673	0.413	1088.141	756.061
9.688	0.562	1086.574	755.654
10.702	0.687	1083.999	754.417
11.717	3.745	1087.202	771.875
12.731	10.065	1095.392	809.350
13.746	15.290	1102.402	840.718
14.761	17.177	1104.169	851.461
15.775	16.352	1102.795	846.192
16.790	15.488	1100.664	840.162
17.804	14.761	1099.536	835.593
18.819	14.525	1097.866	833.068
19.834	14.262	1097.160	831.149
20.848	14.078	1095.872	829.183
21.863	13.741	1095.535	827.174
22.877	13.563	1094.545	825.463
23.892	13.473	1093.752	824.345
24.907	13.619	1092.732	824.229
25.921	13.526	1092.438	823.472
26.936	13.519	1091.498	822.659
27.950	13.679	1090.438	822.579
28.965	13.815	1088.712	821.878
29.980	13.712	1087.781	820.592
30.994	13.641	1087.109	819.663
32.009	13.766	1085.751	819.184
33.023	13.773	1084.788	818.417
34.038	13.671	1084.044	817.284
35.053	13.691	1082.513	816.155
36.067	13.718	1081.841	815.709
37.082	13.734	1080.988	815.071
38.096	13.851	1080.187	814.970
39.111	13.675	1079.984	813.879
40.126	13.734	1078.128	812.699
41.140	13.579	1077.240	811.200
42.155	13.647	1075.579	810.209
43.169	13.556	1074.698	809.027
44.184	13.490	1073.958	808.076
45.199	13.627	1072.562	807.624
46.213	13.504	1071.712	806.312
47.228	13.684	1070.725	806.374
48.242	13.688	1069.749	805.590
49.257	13.703	1068.492	804.642
50.271	13.771	1067.572	804.210
51.286	13.705	1066.926	803.331
52.301	13.704	1065.660	802.303
53.315	13.648	1064.715	801.248
54.330	13.609	1063.879	800.361
55.344	13.588	1062.915	799.464
56.359	13.649	1062.027	799.018
57.374	13.575	1061.393	798.117
58.388	13.628	1059.964	797.225
59.403	13.469	1059.638	796.141
60.417	13.560	1058.363	795.552
61.432	13.503	1057.246	794.370
62.447	13.525	1056.428	793.789
63.461	13.570	1055.910	793.548
64.476	13.487	1055.327	792.638
65.490	13.578	1054.129	792.104
66.505	13.481	1053.680	791.236
67.520	13.681	1052.827	791.479
68.534	13.609	1051.855	790.335
69.549	13.569	1051.264	789.631
70.563	13.517	1050.291	788.581
71.578	13.523	1049.753	788.138
72.593	13.432	1048.999	787.066
73.607	13.469	1048.594	786.871
74.622	13.566	1047.295	786.284
75.636	13.388	1047.223	785.317
76.651	13.402	1046.129	784.496
77.666	13.519	1045.525	784.525
78.680	13.465	1044.709	783.591
79.695	13.481	1044.296	783.287
80.709	13.485	1043.845	782.899
81.724	13.639	1042.864	782.820
82.739	13.695	1042.102	782.444
83.753	13.740	1041.025	781.776
84.768	13.673	1039.829	780.492
85.782	13.702	1039.272	780.143
86.797	13.713	1038.479	779.533
87.812	13.673	1037.467	778.513
88.826	13.511	1037.020	777.348
89.841	13.659	1035.553	776.874
90.855	13.687	1034.924	776.464
91.870	13.814	1033.695	776.068
92.884	13.728	1033.336	775.329
93.899	13.772	1032.312	774.695
94.914	13.753	1031.002	773.555
95.928	13.727	1030.857	773.258
96.943	13.804	1029.528	772.549
97.957	13.703	1028.868	771.517
98.972	13.752	1027.865	770.924
99.987	13.685	1027.126	769.994
101.001	13.731	1025.953	769.257
102.016	13.743	1025.372	768.810
103.030	13.751	1024.285	767.965
104.045	13.811	1023.428	767.532
105.060	13.685	1022.916	766.498
106.074	13.683	1021.759	765.549
107.089	13.620	1020.569	764.301
108.103	13.629	1020.066	763.901
109.118	13.526	1018.952	762.524
110.133	13.685	1017.871	762.379
111.147	13.697	1016.939	761.667
112.162	13.663	1016.185	760.877
113.176	13.714	1015.384	760.444
114.191	13.608	1015.117	759.693
115.206	13.619	1013.975	758.820
116.220	13.749	1012.921	758.559
117.235	13.763	1011.976	757.850
118.249	13.765	1011.137	757.163
119.264	13.598	1010.493	755.851
120.279	13.761	1009.810	756.018
121.293	13.699	1008.908	754.995
122.308	13.743	1007.900	754.370
123.322	13.565	1007.144	752.932
124.337	13.619	1005.724	752.049
125.352	13.636	1004.859	751.413
126.366	13.596	1003.807	750.378
127.381	13.751	1002.391	749.952
128.395	13.661	1002.132	749.286
129.410	13.662	1000.670	748.133
130.424	13.797	999.647	747.910
131.439	13.655	999.143	746.826
132.454	13.716	998.638	746.657
133.468	13.725	997.358	745.673
134.483	13.741	996.338	744.919
135.497	13.718	995.458	744.089
136.512	13.613	994.717	743.001
137.527	13.732	993.678	742.692
138.541	13.657	993.406	742.086
139.556	13.768	992.493	741.835
140.570	13.854	991.789	741.626
141.585	13.707	991.191	740.456
142.600	13.884	989.682	740.053
143.614	13.805	989.083	739.187
144.629	13.888	988.524	739.077
145.643	13.840	987.347	737.915
146.658	13.810	986.130	736.809
147.673	13.875	985.219	736.352
148.687	13.848	984.591	735.696
149.702	13.761	983.701	734.582
150.716	13.908	982.756	734.462
151.731	13.799	981.932	733.299
152.746	13.894	981.442	733.288
153.760	13.783	981.109	732.484
154.775	13.798	980.527	732.052
155.789	13.921	979.444	731.720
156.804	13.973	978.628	731.272
157.819	14.002	977.911	730.803
158.833	14.159	977.040	730.775
159.848	14.123	975.799	729.623
160.862	14.054	975.436	728.985
161.877	13.768	974.655	727.083
162.892	13.969	973.463	727.010
163.906	14.040	972.077	726.224
164.921	13.878	971.902	725.317
165.935	14.058	970.642	725.102
166.950	13.839	970.375	723.882
167.964	14.000	969.086	723.556
168.979	14.102	968.085	723.191
169.994	14.095	967.250	722.470
171.008	14.127	966.758	722.176
172.023	14.121	965.965	721.497
173.037	14.217	964.811	720.984
174.052	14.034	964.738	720.076
175.067	14.130	963.929	719.822
176.081	13.926	963.615	718.643
177.096	14.019	962.995	718.518
178.110	14.126	962.082	718.235
179.125	14.042	961.453	717.339
180.140	14.181	960.798	717.386
181.154	14.232	960.523	717.338
182.169	14.277	959.797	716.925
183.183	14.196	959.214	716.080
184.198	14.264	958.304	715.629
185.213	14.338	957.818	715.519
186.227	14.256	956.855	714.385
187.242	14.397	955.792	714.132
188.256	14.383	955.267	713.617
189.271	14.358	954.771	713.078
190.286	14.260	954.142	712.124
191.300	14.128	953.828	711.265
192.315	14.194	952.696	710.637
193.329	14.228	951.926	710.147
194.344	14.181	951.450	709.527
195.359	14.292	950.198	709.004
196.373	14.429	949.963	709.347
197.388	14.382	949.707	708.895
198.402	14.493	948.876	708.685
199.417	14.492	948.380	708.246
200.432	14.517	947.719	707.797
201.446	14.581	947.343	707.722
202.461	14.573	946.671	707.125
203.475	14.515	945.842	706.197
204.490	14.515	945.015	705.517
205.504	14.481	944.297	704.774
206.519	14.561	943.559	704.499
207.534	14.629	942.606	704.012
208.548	14.503	942.333	703.215
209.563	14.559	941.640	702.873
210.577	14.546	941.453	702.614
211.592	14.818	940.076	702.669
212.607	14.600	939.691	701.405
213.621	14.720	938.298	700.804
214.636	14.714	937.794	700.342
215.650	14.649	936.907	699.346
216.665	14.600	936.872	699.052
217.680	14.771	935.543	698.713
218.694	14.777	934.958	698.241
219.709	14.740	934.215	697.470
220.723	14.758	933.571	697.001
221.738	14.824	932.688	696.555
222.753	14.831	932.363	696.280
223.767	14.784	932.494	696.122
224.782	14.841	930.987	695.172
225.796	14.931	930.428	695.068
226.811	14.906	929.872	694.487
227.826	14.888	929.193	693.843
228.840	14.808	928.495	692.926
229.855	14.882	927.813	692.665
230.869	14.858	926.742	691.703
231.884	14.851	926.105	691.140
232.899	14.745	925.678	690.322
233.913	14.871	924.490	689.895
234.928	14.950	924.320	690.034
235.942	15.056	923.527	689.814
236.957	14.801	923.087	688.378
237.972	14.947	922.449	688.440
238.986	14.909	921.551	687.553
240.001	14.933	920.988	687.172
241.015	14.988	920.320	686.838
242.030	14.922	919.936	686.218
243.045	15.023	919.162	685.996
244.059	15.033	918.680	685.617
245.074	15.085	917.773	685.090
246.088	15.043	917.016	684.295
247.103	15.138	916.286	684.078
248.117	15.144	915.859	683.720
249.132	15.178	915.462	683.502
250.147	15.137	914.891	682.847
251.161	15.379	914.060	683.156
252.176	15.260	913.596	682.262
253.190	15.274	912.652	681.555
254.205	15.255	912.297	681.154
255.220	15.325	911.549	680.816
256.234	15.397	910.722	680.432
257.249	15.273	910.321	679.568
258.263	15.390	909.273	679.201
259.278	15.510	908.541	679.079
260.293	15.335	908.484	678.269
261.307	15.522	907.429	678.176
262.322	15.449	906.872	677.405
263.336	15.376	906.235	676.576
264.351	15.575	905.357	676.660
265.366	15.609	904.977	676.452
266.380	15.440	904.208	675.141
267.395	15.543	902.875	674.498
268.409	15.563	902.746	674.422
269.424	15.552	901.851	673.648
270.439	15.740	900.775	673.538
271.453	15.657	900.253	672.759
272.468	15.606	900.235	672.479
273.482	15.760	899.070	672.166
274.497	15.686	898.545	671.418
275.512	15.685	898.283	671.159
276.526	15.561	897.761	670.215
277.541	15.707	897.065	670.217
278.555	15.742	896.773	670.078
279.570	15.910	895.406	669.668
280.585	15.813	894.694	668.692
281.599	15.821	893.710	667.927
282.614	15.778	893.174	667.297
283.628	15.839	893.072	667.404
284.643	15.878	892.176	666.828
285.657	15.947	891.442	666.493
286.672	15.850	890.906	665.652
287.687	15.819	890.326	665.039
288.701	15.877	889.685	664.729
289.716	15.883	889.201	664.332
290.730	16.016	888.138	664.004
291.745	15.892	888.001	663.351
292.760	15.949	887.596	663.215
293.774	15.938	886.677	662.428
294.789	16.005	885.996	662.126
295.803	15.986	885.462	661.592
296.818	15.898	884.674	660.601
297.833	15.918	883.733	659.914
298.847	16.019	883.353	659.969
299.862	16.068	882.757	659.656
300.876	16.066	882.177	659.158
301.891	16.077	881.277	658.470
302.906	16.197	880.828	658.544
303.920	16.274	880.040	658.197
304.935	16.225	879.955	657.885
305.949	16.164	879.290	657.092
306.964	16.251	878.401	656.706
307.979	16.266	878.034	656.435
308.993	16.262	877.454	655.928
310.008	16.197	876.835	655.153
311.022	16.181	876.216	654.572
312.037	16.194	875.524	654.047
313.052	16.329	874.933	654.069
314.066	16.288	874.311	653.389
315.081	16.243	873.884	652.837
316.095	16.374	872.964	652.599
317.110	16.233	872.708	651.806
318.125	16.326	872.068	651.628
319.139	16.245	871.898	651.129
320.154	16.319	870.906	650.619
321.168	16.271	870.623	650.164
322.183	16.386	869.810	649.939
323.197	16.394	869.256	649.499
324.212	16.421	869.132	649.453
325.227	16.456	868.205	648.839
326.241	16.431	867.701	648.310
327.256	16.282	867.563	647.575
328.270	16.334	866.572	646.979
329.285	16.402	866.174	646.886
330.300	16.525	865.007	646.427
331.314	16.529	864.397	645.928
332.329	16.501	864.169	645.594
333.343	16.504	863.784	645.261
334.358	16.543	863.219	644.932
335.373	16.563	862.713	644.570
336.387	16.514	862.652	644.283
337.402	16.632	862.140	644.291
338.416	16.579	862.061	643.974
339.431	16.590	861.488	643.530
340.446	16.804	860.884	643.836
341.460	16.677	860.544	643.043
342.475	16.763	860.256	643.097
343.489	16.749	859.533	642.446
344.504	16.711	859.472	642.201
345.519	16.820	858.693	641.975
346.533	16.669	858.538	641.229
347.548	16.898	857.513	641.271
348.562	16.796	857.033	640.473
349.577	16.856	856.526	640.265
350.592	16.789	855.965	639.533
351.606	16.705	855.398	638.738
352.621	16.862	854.109	638.309
353.635	16.736	854.277	637.904
354.650	16.786	853.415	637.392
355.665	16.901	852.623	637.176
356.679	16.978	851.865	636.845
357.694	16.950	851.126	636.127
358.708	16.971	850.687	635.823
359.723	16.884	850.079	634.986
360.738	16.857	849.675	634.527
361.752	17.103	849.136	634.990
362.767	17.035	848.515	634.213
363.781	16.955	848.172	633.602
364.796	17.134	847.484	633.701
365.810	17.175	846.792	633.280
366.825	17.144	846.720	633.056
367.840	17.297	845.930	632.979
368.854	17.102	845.580	631.934
369.869	17.125	845.219	631.694
370.883	17.090	845.006	631.347
371.898	17.242	844.417	631.416
372.913	17.228	843.904	630.925
373.927	17.349	843.792	631.234
374.942	17.219	843.164	630.228
375.956	17.363	842.538	630.237
376.971	17.223	842.077	629.321
377.986	17.306	841.803	629.366
379.000	17.296	841.114	628.760
380.015	17.471	840.478	628.873
381.029	17.380	840.024	628.142
382.044	17.327	839.650	627.613
383.059	17.619	838.427	627.719
384.073	17.389	838.283	626.707
385.088	17.399	837.561	626.150
386.102	17.540	836.752	626.005
387.117	17.520	836.239	625.495
388.132	17.305	836.112	624.555
389.146	17.478	835.896	624.974
390.161	17.508	834.771	624.188
391.175	17.566	834.615	624.227
392.190	17.434	834.301	623.453
393.205	17.391	833.860	622.910
394.219	17.413	833.537	622.694
395.234	17.513	833.177	622.738
396.248	17.516	832.410	622.120
397.263	17.458	832.005	621.549
398.278	17.470	831.520	621.175
399.292	17.416	831.114	620.619
400.307	17.641	830.366	620.829
401.321	17.539	830.260	620.322
402.336	17.521	830.000	620.007
403.350	17.549	829.600	619.754
404.365	17.661	828.833	619.534
405.380	17.593	828.259	618.805
406.394	17.637	827.817	618.578
407.409	17.729	827.400	618.546
408.423	17.795	826.647	618.166
409.438	17.848	826.465	618.170
410.453	17.900	826.111	618.037
411.467	17.884	825.443	617.426
412.482	17.921	825.305	617.400
413.496	17.935	825.007	617.174
414.511	17.908	824.608	616.724
415.526	17.938	823.777	616.155
416.540	17.992	823.542	616.121
417.555	18.095	822.856	615.924
418.569	18.078	822.517	615.554
419.584	17.948	822.066	614.695
420.599	17.962	821.862	614.536
421.613	115.568	1301.090	1492.455
422.628	100.329	1370.852	1492.535
