DTS Sentinel unit serial number:	SN413079Multiplexer serial number:	ORYXHardware model number:	OX4-SRSoftware version number:	ORYX F/W v4.00 Oryx Data Collector v3.7.2.0data status	okinstallation	princeton_trtdifferential loss correction	single-endedforward channel	channel 1reverse channel	N/Adate	2019/09/18time	08:38:35forward acquisition time	60.00reverse acquisition time	0.00gamma	496.2192k internal	0.2337k external	0.2337temperature offset calibration	0.9978default loss term (dB/km)	0.3790temperature slope calibration	1.0000multiplexer offset coefficient	1.0000multiplexer slope coefficient	1.0000fibre end	0.00T internal ref (°C)	24.50T ext. ref 1 (°C)	0.22T ext. ref 2 (°C)	20.22length (m)	temperature (°C)	Stokes	anti-Stokes-747.200	52.285	0.095	-0.091
-746.185	-200.000	0.010	-0.073
-745.171	-2.503	-0.091	-0.064
-744.156	57.692	-0.140	0.137
-743.142	-200.000	-0.005	-0.046
-742.127	-200.000	0.022	0.218
-741.112	64.510	-0.266	0.269
-740.098	407.704	0.098	0.207
-739.083	-105.808	0.362	-0.082
-738.069	132.221	-0.357	0.462
-737.054	419.532	-0.036	-0.078
-736.039	544.566	-0.090	-0.217
-735.025	219.381	-0.254	0.408
-734.010	449.305	0.039	-0.087
-732.996	300.369	-0.068	0.126
-731.981	-1.577	0.245	-0.173
-730.966	-63.946	0.117	-0.048
-729.952	0.047	-0.190	0.136
-728.937	-157.861	0.231	0.014
-727.923	-200.000	-0.004	-0.026
-726.908	800.000	0.030	-0.091
-725.894	-87.846	-0.208	-0.063
-724.879	-97.606	-0.123	0.032
-723.864	-61.006	0.087	-0.037
-722.850	-17.543	-0.387	-0.244
-721.835	-116.577	0.061	-0.011
-720.821	-44.674	-0.111	0.056
-719.806	800.000	0.009	0.038
-718.791	-105.457	0.072	-0.016
-717.777	-69.457	-0.109	-0.042
-716.762	-79.855	-0.385	0.130
-715.748	-37.140	-0.311	-0.167
-714.733	-200.000	-0.059	-0.423
-713.718	118.622	0.088	-0.108
-712.704	-200.000	-0.066	0.394
-711.689	90.687	0.267	-0.300
-710.675	800.000	0.050	-0.145
-709.660	-41.114	0.059	0.031
-708.645	800.000	0.083	-0.262
-707.631	105.399	0.190	-0.225
-706.616	42.998	-0.185	0.169
-705.602	78.260	0.109	-0.116
-704.587	800.000	0.053	-0.201
-703.572	402.508	-0.058	0.122
-702.558	-49.371	-0.231	-0.111
-701.543	-69.956	-0.192	0.073
-700.529	800.000	-0.047	-0.178
-699.514	-135.120	-0.105	0.013
-698.499	-200.000	-0.015	-0.266
-697.485	150.007	0.161	0.219
-696.470	-200.000	0.025	0.284
-695.456	-62.988	0.276	0.114
-694.441	-200.000	-0.024	0.267
-693.426	72.161	0.105	0.109
-692.412	-190.379	-0.221	0.002
-691.397	800.000	0.021	0.069
-690.383	18.190	-0.386	0.308
-689.368	-200.000	-0.044	-0.277
-688.354	800.000	0.067	0.280
-687.339	9.151	-0.066	-0.050
-686.324	416.287	-0.055	-0.118
-685.310	-85.600	-0.395	0.123
-684.295	-162.349	0.231	0.011
-683.281	-60.401	-0.092	0.039
-682.266	800.000	0.056	0.155
-681.251	89.740	-0.276	0.308
-680.237	-125.076	-0.108	0.017
-679.222	337.905	-0.029	-0.057
-678.208	800.000	-0.058	0.168
-677.193	-200.000	0.001	0.172
-676.178	-10.025	-0.369	-0.246
-675.164	-5.166	0.209	-0.144
-674.149	119.134	0.244	-0.303
-673.135	102.803	-0.395	-0.463
-672.120	16.659	-0.063	0.050
-671.105	31.449	-0.360	-0.309
-670.091	-147.194	-0.162	0.014
-669.076	-74.429	-0.221	0.080
-668.062	432.816	-0.051	-0.111
-667.047	-15.994	0.234	-0.149
-666.032	142.754	-0.180	-0.240
-665.018	181.208	0.146	-0.215
-664.003	800.000	0.087	-0.300
-662.989	72.758	-0.226	0.236
-661.974	-200.000	0.021	-0.096
-660.959	-83.351	-0.241	0.077
-659.945	-53.617	0.107	-0.049
-658.930	-200.000	0.025	-0.446
-657.916	386.039	-0.221	-0.457
-656.901	-106.882	0.697	0.155
-655.886	-121.359	0.137	-0.023
-654.872	-40.497	-0.264	-0.137
-653.857	800.000	-0.031	-0.120
-652.843	53.678	0.170	0.164
-651.828	-84.598	0.090	-0.028
-650.814	-200.000	0.036	-0.298
-649.799	288.000	-0.111	0.201
-648.784	-70.568	-0.342	0.129
-647.770	-140.809	0.312	-0.032
-646.755	-14.539	-0.245	0.158
-645.741	202.153	-0.112	-0.173
-644.726	800.000	-0.058	0.183
-643.711	393.160	-0.093	0.194
-642.697	-16.863	0.323	-0.204
-641.682	-200.000	-0.019	-0.255
-640.668	-87.734	0.340	0.102
-639.653	-200.000	-0.015	-0.244
-638.638	322.454	0.085	-0.162
-637.624	800.000	-0.069	0.255
-636.609	30.555	0.073	0.063
-635.595	454.938	0.229	-0.507
-634.580	800.000	-0.059	-0.174
-633.565	177.966	-0.092	0.135
-632.551	335.335	-0.220	-0.426
-631.536	-200.000	0.105	-0.000
-630.522	334.950	-0.113	0.218
-629.507	800.000	0.032	-0.124
-628.492	-119.362	0.136	-0.024
-627.478	-109.453	-0.056	0.012
-626.463	-200.000	0.045	0.323
-625.449	-20.309	-0.221	-0.136
-624.434	100.605	-0.168	-0.195
-623.419	-200.000	0.017	0.256
-622.405	-3.282	0.093	0.065
-621.390	-16.297	-0.272	-0.173
-620.376	204.184	-0.338	-0.523
-619.361	-85.767	0.303	0.094
-618.346	-62.546	-0.112	0.047
-617.332	-87.911	0.379	-0.114
-616.317	-30.388	0.112	0.064
-615.303	-6.635	-0.127	0.086
-614.288	100.381	-0.032	-0.037
-613.273	-200.000	0.028	0.260
-612.259	-200.000	-0.015	0.290
-611.244	302.318	0.102	-0.188
-610.230	-200.000	-0.027	-0.359
-609.215	8.225	-0.067	0.050
-608.201	-32.134	0.215	-0.120
-607.186	-148.955	-0.248	0.020
-606.171	28.007	0.112	0.094
-605.157	-200.000	-0.005	-0.050
-604.142	205.827	-0.203	-0.315
-603.128	216.118	0.136	0.216
-602.113	91.978	0.082	-0.092
-601.098	-14.570	-0.333	-0.214
-600.084	-10.380	-0.417	-0.276
-599.069	-47.942	-0.108	0.052
-598.055	-27.575	-0.178	-0.103
-597.040	-200.000	0.013	-0.231
-596.025	376.894	0.043	-0.088
-595.011	-103.973	-0.137	-0.032
-593.996	173.507	0.190	0.274
-592.982	-87.189	-0.027	0.008
-591.967	283.093	0.056	-0.101
-590.952	143.182	0.165	-0.219
-589.938	1.445	-0.208	0.149
-588.923	0.847	0.186	-0.133
-587.909	236.687	-0.102	0.169
-586.894	800.000	0.059	-0.189
-585.879	-69.976	-0.375	0.143
-584.865	740.226	-0.042	0.112
-583.850	243.299	0.108	-0.181
-582.836	-89.524	-0.223	0.065
-581.821	-108.879	-0.199	0.042
-580.806	-200.000	-0.013	-0.061
-579.792	591.976	0.103	0.254
-578.777	-86.498	0.087	-0.027
-577.763	348.341	0.067	-0.131
-576.748	33.698	-0.297	0.257
-575.733	-142.545	0.069	0.007
-574.719	345.597	0.113	-0.221
-573.704	36.529	-0.097	0.085
-572.690	-36.604	0.118	-0.063
-571.675	534.488	0.073	0.173
-570.661	-89.003	0.053	-0.016
-569.646	-200.000	-0.003	-0.195
-568.631	220.227	-0.101	0.161
-567.617	-27.597	0.066	0.038
-566.602	-31.644	0.228	-0.128
-565.588	78.672	-0.102	-0.109
-564.573	800.000	-0.090	-0.311
-563.558	-77.088	0.200	0.069
-562.544	-200.000	0.053	-0.377
-561.529	-137.091	-0.276	-0.031
-560.515	-200.000	-0.016	-0.189
-559.500	-58.199	0.266	0.116
-558.485	-84.339	-0.131	0.041
-557.471	396.032	-0.088	-0.184
-556.456	800.000	0.043	0.157
-555.442	-62.663	0.055	-0.023
-554.427	-168.574	-0.076	0.003
-553.412	800.000	-0.091	0.271
-552.398	-109.382	0.298	0.063
-551.383	303.665	-0.235	0.434
-550.369	136.624	0.024	0.031
-549.354	-57.482	-0.219	-0.096
-548.339	31.029	0.271	-0.231
-547.325	-25.804	-0.264	-0.155
-546.310	-83.701	-0.182	0.058
-545.296	684.872	-0.103	0.268
-544.281	-66.402	-0.298	0.118
-543.266	-200.000	-0.016	-0.157
-542.252	800.000	-0.058	-0.190
-541.237	90.392	0.216	0.241
-540.223	40.915	-0.167	0.151
-539.208	-200.000	0.036	0.201
-538.193	136.511	-0.122	-0.158
-537.179	-19.287	-0.233	-0.144
-536.164	-200.000	0.016	0.297
-535.150	74.603	-0.130	-0.137
-534.135	-46.089	-0.368	-0.180
-533.121	-178.114	-0.067	0.002
-532.106	-125.743	0.141	-0.021
-531.091	284.416	0.140	-0.251
-530.077	36.357	-0.271	-0.238
-529.062	-200.000	-0.023	-0.334
-528.048	469.363	0.099	0.222
-527.033	349.580	0.147	0.289
-526.018	-200.000	0.021	-0.414
-525.004	44.232	0.296	-0.270
-523.989	-10.556	-0.088	-0.058
-522.975	-200.000	-0.002	-0.036
-521.960	800.000	0.019	0.061
-520.945	-143.134	-0.139	0.013
-519.931	124.430	0.038	0.048
-518.916	-51.813	-0.088	0.041
-517.902	257.773	0.177	0.303
-516.887	-40.942	0.218	-0.112
-515.872	180.208	-0.150	0.219
-514.858	800.000	-0.129	-0.376
-513.843	-51.029	0.167	-0.078
-512.829	162.070	0.103	0.144
-511.814	-31.944	0.136	-0.076
-510.799	800.000	-0.145	-0.487
-509.785	-56.765	-0.194	0.085
-508.770	-133.028	-0.424	-0.054
-507.756	-44.215	0.138	0.069
-506.741	-118.321	-0.075	0.013
-505.726	34.293	0.016	-0.014
-504.712	3.517	0.182	-0.132
-503.697	76.524	0.128	0.134
-502.683	-2.718	0.171	-0.119
-501.668	-124.146	-0.157	-0.024
-500.653	62.528	0.110	-0.109
-499.639	-77.453	0.350	0.121
-498.624	-167.838	0.241	-0.009
-497.610	49.395	0.178	0.167
-496.595	800.000	0.062	-0.186
-495.581	-175.373	0.184	-0.005
-494.566	800.000	0.046	-0.134
-493.551	-7.635	0.271	-0.182
-492.537	596.833	-0.011	-0.027
-491.522	28.266	0.252	-0.211
-490.508	-50.905	0.213	-0.099
-489.493	-63.408	-0.333	0.136
-488.478	800.000	-0.024	0.097
-487.464	155.395	0.030	0.041
-486.449	-200.000	-0.044	-0.258
-485.435	48.152	-0.048	-0.044
-484.420	54.041	-0.256	-0.244
-483.405	-103.364	-0.165	0.039
-482.391	-200.000	0.056	-0.374
-481.376	-44.078	0.096	-0.048
-480.362	111.170	-0.213	-0.255
-479.347	238.458	-0.045	0.074
-478.332	-25.670	0.257	-0.150
-477.318	5.289	-0.209	-0.153
-476.303	127.232	-0.079	-0.100
-475.289	-184.306	0.148	0.002
-474.274	124.187	-0.041	-0.051
-473.259	-112.455	0.215	0.043
-472.245	-49.071	-0.292	-0.139
-471.230	171.001	-0.189	-0.269
-470.216	800.000	-0.095	0.290
-469.201	-29.350	0.388	0.221
-468.186	-200.000	-0.003	-0.072
-467.172	-87.250	-0.124	0.037
-466.157	71.471	-0.371	-0.383
-465.143	-8.797	0.263	-0.175
-464.128	96.445	0.178	0.202
-463.113	800.000	0.019	-0.071
-462.099	72.059	0.095	0.099
-461.084	-200.000	0.002	-0.057
-460.070	-138.448	0.242	-0.027
-459.055	29.822	-0.233	-0.197
-458.040	-200.000	-0.012	0.116
-457.026	-42.144	-0.360	-0.183
-456.011	-200.000	0.021	0.396
-454.997	800.000	-0.079	0.282
-453.982	-166.277	-0.222	0.009
-452.968	-193.576	-0.180	0.002
-451.953	-81.190	0.258	0.084
-450.938	169.919	-0.077	-0.110
-449.924	-118.883	0.305	-0.053
-448.909	-90.572	0.370	-0.106
-447.895	-42.363	0.232	0.117
-446.880	-200.000	-0.223	-0.000
-445.865	-78.139	0.183	0.063
-444.851	-22.781	0.186	0.111
-443.836	-13.826	-0.130	0.083
-442.822	-119.155	0.041	0.007
-441.807	-132.636	-0.365	-0.046
-440.792	103.416	0.120	-0.139
-439.778	-96.327	0.081	-0.021
-438.763	-145.792	-0.229	0.020
-437.749	-106.230	-0.223	-0.050
-436.734	-191.116	0.227	-0.002
-435.719	-31.455	0.237	-0.132
-434.705	-129.831	-0.104	-0.014
-433.690	81.686	0.159	0.171
-432.676	103.681	0.136	-0.159
-431.661	-1.107	0.097	0.068
-430.646	78.196	0.188	-0.199
-429.632	54.239	0.283	-0.270
-428.617	-146.262	0.198	-0.017
-427.603	292.923	0.121	0.219
-426.588	-77.032	0.197	-0.068
-425.573	55.291	0.277	0.265
-424.559	-85.846	-0.154	0.047
-423.544	120.291	0.204	0.252
-422.530	-200.000	-0.020	-0.120
-421.515	-200.000	-0.046	-0.267
-420.500	260.461	-0.089	-0.152
-419.486	-51.367	0.212	0.098
-418.471	56.942	0.113	-0.109
-417.457	-48.017	-0.550	0.263
-416.442	329.122	-0.088	0.168
-415.428	-71.715	0.055	0.020
-414.413	800.000	0.036	0.100
-413.398	564.458	0.055	0.133
-412.384	156.415	0.108	-0.148
-411.369	-159.924	-0.193	-0.010
-410.355	-121.041	-0.438	0.073
-409.340	800.000	0.076	-0.316
-408.325	105.725	0.070	-0.082
-407.311	36.869	0.317	-0.278
-406.296	0.301	0.102	0.072
-405.282	-38.060	0.416	0.219
-404.267	139.491	-0.156	0.204
-403.252	140.237	-0.101	-0.133
-402.238	470.129	-0.046	0.103
-401.223	304.902	-0.052	-0.096
-400.209	19.022	0.250	0.199
-399.194	800.000	-0.056	-0.168
-398.179	-20.059	0.165	0.101
-397.165	-200.000	-0.019	0.085
-396.150	-176.527	-0.025	0.001
-395.136	-132.170	0.271	0.035
-394.121	5.094	-0.102	0.074
-393.106	-65.756	-0.262	-0.104
-392.092	-200.000	0.050	0.276
-391.077	50.096	0.302	-0.282
-390.063	800.000	-0.079	-0.289
-389.048	-200.000	-0.029	0.250
-388.033	19.605	0.195	-0.155
-387.019	164.017	0.036	-0.050
-386.004	368.727	0.061	0.122
-384.990	-200.000	0.033	0.184
-383.975	800.000	-0.071	0.263
-382.960	249.474	0.060	0.101
-381.946	-4.725	-0.356	0.243
-380.931	-128.756	-0.205	-0.029
-379.917	744.810	-0.101	0.270
-378.902	-200.000	0.003	0.110
-377.888	-200.000	-0.018	0.367
-376.873	-143.776	-0.228	-0.021
-375.858	62.817	0.065	0.065
-374.844	29.919	-0.095	0.080
-373.829	-80.973	0.061	0.020
-372.815	-200.000	0.031	0.178
-371.800	-65.751	-0.142	0.056
-370.785	-200.000	0.014	0.101
-369.771	-108.858	-0.166	-0.035
-368.756	79.752	0.094	0.100
-367.742	43.402	-0.143	-0.129
-366.727	278.770	0.154	0.271
-365.712	800.000	-0.021	-0.058
-364.698	147.909	0.146	0.194
-363.683	-44.364	-0.078	-0.039
-362.669	-155.018	-0.461	-0.030
-361.654	106.798	-0.190	0.223
-360.639	-65.023	0.340	-0.136
-359.625	66.591	0.078	-0.078
-358.610	210.411	-0.033	-0.051
-357.596	16.236	-0.163	0.127
-356.581	800.000	-0.067	-0.204
-355.566	-200.000	0.026	0.155
-354.552	-200.000	0.023	-0.217
-353.537	-137.436	-0.072	0.008
-352.523	-200.000	0.034	-0.196
-351.508	-200.000	0.028	-0.125
-350.493	-30.302	0.218	0.122
-349.479	67.581	0.247	-0.250
-348.464	13.500	-0.116	-0.089
-347.450	-149.176	0.060	-0.005
-346.435	223.519	0.063	0.100
-345.420	228.659	-0.062	0.100
-344.406	362.617	0.036	-0.072
-343.391	-113.999	0.142	-0.027
-342.377	800.000	0.032	0.091
-341.362	-90.104	0.136	0.039
-340.348	-200.000	-0.025	-0.201
-339.333	-75.657	0.234	-0.082
-338.318	800.000	0.101	0.425
-337.304	64.146	-0.119	-0.119
-336.289	-134.516	-0.239	-0.029
-335.275	-200.000	-0.003	0.221
-334.260	-96.351	-0.106	-0.028
-333.245	475.188	0.088	-0.196
-332.231	465.406	-0.079	-0.174
-331.216	38.791	-0.213	0.188
-330.202	-200.000	0.011	-0.082
-329.187	-200.000	-0.029	-0.156
-328.172	-28.082	-0.323	0.185
-327.158	-161.316	0.220	-0.011
-326.143	136.281	-0.237	0.306
-325.129	-100.438	0.347	0.085
-324.114	800.000	0.027	0.084
-323.099	-109.933	-0.121	0.025
-322.085	-160.567	-0.156	-0.008
-321.070	272.142	-0.145	0.253
-320.056	342.649	-0.197	0.380
-319.041	21.429	-0.069	0.056
-318.026	6.593	-0.117	0.086
-317.012	-200.000	0.016	0.174
-315.997	-25.054	-0.310	-0.181
-314.983	282.012	0.078	-0.138
-313.968	-167.169	-0.010	0.000
-312.953	-200.000	0.021	-0.286
-311.939	-200.000	-0.029	-0.163
-310.924	-126.218	0.236	0.035
-309.910	-200.000	0.045	0.219
-308.895	-131.757	-0.162	0.021
-307.880	45.069	-0.330	-0.300
-306.866	258.518	-0.089	-0.151
-305.851	800.000	-0.071	0.235
-304.837	227.530	-0.231	0.370
-303.822	234.318	0.020	-0.033
-302.807	180.283	0.122	-0.177
-301.793	-200.000	0.014	0.117
-300.778	52.831	0.147	-0.139
-299.764	30.163	-0.150	-0.126
-298.749	71.412	0.065	0.067
-297.735	463.541	-0.092	-0.203
-296.720	-80.975	0.151	0.049
-295.705	-106.127	-0.080	0.018
-294.691	556.420	-0.073	0.174
-293.676	28.728	-0.318	0.266
-292.662	-85.944	0.089	0.027
-291.647	800.000	-0.018	-0.062
-290.632	-102.196	0.302	0.072
-289.618	-105.347	-0.449	0.101
-288.603	361.112	-0.158	0.312
-287.589	-80.728	0.380	0.124
-286.574	-200.000	-0.015	-0.068
-285.559	65.103	0.113	-0.113
-284.545	-200.000	0.023	0.175
-283.530	222.567	0.209	-0.331
-282.516	-21.829	0.378	0.227
-281.501	-135.650	-0.074	0.009
-280.486	-200.000	-0.036	0.339
-279.472	-108.710	-0.042	-0.009
-278.457	-129.676	-0.332	0.045
-277.443	316.550	0.077	0.144
-276.428	-133.233	-0.466	-0.058
-275.413	20.109	0.022	-0.018
-274.399	-113.262	0.325	-0.063
-273.384	-200.000	-0.026	0.169
-272.370	200.335	0.202	0.306
-271.355	-200.000	0.054	0.314
-270.340	-45.944	-0.133	0.065
-269.326	260.043	0.110	-0.187
-268.311	280.842	0.121	0.213
-267.297	5.297	-0.278	0.202
-266.282	-35.866	-0.245	-0.131
-265.267	197.340	0.149	-0.224
-264.253	509.243	0.123	0.282
-263.238	188.872	-0.076	-0.112
-262.224	-74.796	-0.133	-0.047
-261.209	216.666	0.278	-0.436
-260.195	27.810	-0.240	0.199
-259.180	-181.887	0.351	-0.007
-258.165	84.830	-0.066	-0.072
-257.151	-46.997	0.216	-0.104
-256.136	70.990	0.106	0.108
-255.122	217.999	0.052	0.081
-254.107	-200.000	0.001	-0.136
-253.092	130.390	-0.076	0.096
-252.078	800.000	0.033	-0.111
-251.063	-77.601	0.131	0.045
-250.049	274.056	-0.222	-0.388
-249.034	293.240	-0.126	0.227
-248.019	-200.000	-0.073	-0.330
-247.005	800.000	0.077	-0.227
-245.990	-200.000	-0.003	0.093
-244.976	-200.000	0.012	0.309
-243.961	-99.391	0.268	-0.067
-242.946	800.000	0.044	-0.131
-241.932	800.000	0.045	-0.172
-240.917	-14.444	-0.279	0.177
-239.903	-106.872	0.257	0.056
-238.888	-44.515	-0.010	-0.005
-237.873	-200.000	0.005	0.091
-236.859	-200.000	0.188	0.001
-235.844	751.427	-0.083	0.222
-234.830	-115.770	-0.284	-0.052
-233.815	800.000	0.006	-0.024
-232.800	-98.198	-0.167	-0.042
-231.786	800.000	-0.065	0.223
-230.771	-110.962	0.183	0.037
-229.757	97.568	-0.168	-0.190
-228.742	-100.598	-0.231	0.056
-227.727	-64.884	-0.260	0.103
-226.713	-185.771	0.490	0.007
-225.698	205.070	-0.089	0.136
-224.684	42.069	0.049	0.044
-223.669	-51.168	-0.154	-0.071
-222.655	379.580	-0.175	0.352
-221.640	-0.153	-0.239	0.167
-220.625	-63.508	-0.155	0.062
-219.611	-51.806	-0.035	0.016
-218.596	314.635	0.040	0.074
-217.582	203.780	0.101	0.154
-216.567	-73.022	0.161	-0.058
-215.552	106.611	0.090	-0.105
-214.538	600.761	0.043	-0.106
-213.523	-200.000	-0.077	-0.345
-212.509	800.000	-0.033	0.133
-211.494	59.391	0.102	0.099
-210.479	-200.000	0.002	-0.100
-209.465	539.069	0.061	-0.142
-208.450	-200.000	-0.062	0.327
-207.436	-200.000	0.010	0.101
-206.421	-146.084	-0.347	0.030
-205.406	743.608	0.068	-0.180
-204.392	800.000	0.074	0.207
-203.377	-200.000	-0.005	-0.339
-202.363	9.175	0.172	-0.128
-201.348	-200.000	-0.012	0.225
-200.333	-112.307	-0.123	0.024
-199.319	-164.893	0.139	0.006
-198.304	223.789	0.116	-0.183
-197.290	278.695	-0.088	-0.154
-196.275	-85.008	-0.114	0.035
-195.260	-170.975	-0.086	0.003
-194.246	73.316	-0.098	-0.101
-193.231	163.375	-0.174	-0.241
-192.217	72.562	0.188	-0.193
-191.202	37.892	0.083	-0.073
-190.187	151.549	0.048	-0.064
-189.173	-200.000	-0.061	0.410
-188.158	-23.354	-0.070	0.041
-187.144	-161.851	0.177	0.009
-186.129	19.975	-0.305	-0.242
-185.114	-40.481	-0.231	0.118
-184.100	-26.504	-0.349	0.201
-183.085	-132.601	0.142	-0.018
-182.071	-200.000	-0.067	0.363
-181.056	-142.605	0.138	0.013
-180.042	567.464	0.076	-0.181
-179.027	-78.685	0.372	-0.125
-178.012	-135.874	0.141	0.016
-176.998	-127.514	-0.219	0.031
-175.983	800.000	-0.062	-0.199
-174.969	800.000	-0.058	0.199
-173.954	-154.891	0.120	-0.008
-172.939	-104.403	-0.110	-0.025
-171.925	-154.862	-0.198	0.013
-170.910	-17.428	0.311	0.192
-169.896	-26.455	0.434	-0.250
-168.881	800.000	0.060	-0.186
-167.866	-0.378	-0.006	-0.004
-166.852	91.028	-0.104	-0.114
-165.837	56.379	0.195	0.186
-164.823	-76.919	-0.235	-0.081
-163.808	-63.617	0.173	0.070
-162.793	-200.000	-0.019	0.171
-161.779	800.000	0.119	0.357
-160.764	-200.000	0.013	-0.229
-159.750	-169.225	0.354	-0.013
-158.735	612.536	-0.145	0.357
-157.720	-22.092	0.453	0.270
-156.706	20.185	0.284	-0.225
-155.691	75.211	0.412	0.426
-154.677	233.644	-0.136	-0.219
-153.662	-117.663	0.323	-0.057
-152.647	3.824	0.100	-0.072
-151.633	-200.000	-0.023	0.229
-150.618	-94.200	0.218	0.058
-149.604	-200.000	-0.005	-0.396
-148.589	711.512	-0.157	0.407
-147.574	-200.000	-0.012	0.179
-146.560	-171.664	0.153	0.005
-145.545	-186.765	0.017	0.000
-144.531	268.056	0.103	0.177
-143.516	399.356	-0.158	-0.324
-142.502	67.940	0.248	-0.249
-141.487	-17.299	-0.274	0.169
-140.472	-200.000	-0.074	0.431
-139.458	142.603	0.046	0.060
-138.443	-200.000	0.000	0.009
-137.429	272.892	-0.035	0.060
-136.414	14.796	-0.181	0.139
-135.399	-48.154	0.129	-0.061
-134.385	60.025	-0.246	0.238
-133.370	-200.000	-0.003	-0.098
-132.356	-54.798	-0.137	0.061
-131.341	-200.000	0.069	-0.307
-130.326	800.000	0.044	-0.163
-129.312	142.404	-0.182	0.237
-128.297	-200.000	-0.026	0.169
-127.283	-98.234	0.208	0.052
-126.268	116.722	0.172	-0.206
-125.253	-127.381	0.175	-0.025
-124.239	344.397	0.099	-0.190
-123.224	134.515	-0.202	0.256
-122.210	-29.593	0.247	-0.138
-121.195	800.000	-0.050	0.157
-120.180	-200.000	-0.001	-0.124
-119.166	-61.677	0.307	-0.126
-118.151	800.000	0.058	0.187
-117.137	800.000	0.171	0.471
-116.122	12.508	-0.103	0.078
-115.107	-47.625	0.092	-0.044
-114.093	-121.674	0.079	-0.013
-113.078	42.468	-0.048	-0.043
-112.064	-122.210	-0.298	-0.048
-111.049	150.149	0.086	0.114
-110.034	-200.000	0.009	0.193
-109.020	230.638	-0.112	0.180
-108.005	800.000	-0.039	0.125
-106.991	-200.000	0.219	0.001
-105.976	-155.331	0.197	0.013
-104.962	67.745	0.097	0.098
-103.947	800.000	-0.007	-0.026
-102.932	800.000	-0.012	0.044
-101.918	564.423	-0.047	0.111
-100.903	70.177	-0.144	-0.145
-99.889	9.462	0.020	0.015
-98.874	94.568	0.255	0.284
-97.859	12.377	-0.025	-0.019
-96.845	-74.901	-0.158	-0.055
-95.830	800.000	-0.007	0.020
-94.816	3.235	-0.154	-0.110
-93.801	800.000	-0.024	0.078
-92.786	800.000	0.071	-0.211
-91.772	459.026	0.046	0.100
-90.757	505.576	0.111	-0.251
-89.743	-75.490	-0.538	0.188
-88.728	-54.286	-0.048	-0.021
-87.713	-33.742	-0.085	-0.046
-86.699	-3.941	-0.269	0.182
-85.684	-54.460	-0.320	-0.142
-84.670	-62.103	0.145	-0.059
-83.655	-46.529	-0.291	0.140
-82.640	-145.259	0.190	-0.017
-81.626	-200.000	-0.028	-0.325
-80.611	389.136	-0.015	-0.031
-79.597	-39.838	0.237	0.121
-78.582	-114.697	0.062	-0.012
-77.567	-63.438	0.237	-0.095
-76.553	16.322	-0.184	-0.142
-75.538	619.002	-0.109	-0.268
-74.524	-40.928	-0.154	-0.078
-73.509	800.000	-0.099	0.320
-72.494	-200.000	-0.042	-0.208
-71.480	800.000	-0.028	-0.114
-70.465	-131.756	-0.126	-0.016
-69.451	800.000	0.092	0.339
-68.436	0.311	0.148	0.103
-67.422	-73.806	-0.091	-0.032
-66.407	-200.000	-0.015	-0.169
-65.392	14.565	0.181	-0.139
-64.378	-126.289	-0.094	-0.014
-63.363	-47.387	0.177	0.084
-62.349	-135.375	0.205	0.024
-61.334	-17.331	-1.502	-0.925
-60.319	36.543	0.921	0.795
-59.305	515.975	-0.465	-1.063
-58.290	330.803	0.699	1.317
-57.276	372.545	0.644	1.279
-56.261	-200.000	121.801	616.990
-55.246	387.344	1571.366	3174.165
-54.232	140.958	2734.294	3532.244
-53.217	94.704	2171.313	2412.541
-52.203	35.809	1601.786	1376.144
-51.188	27.697	1345.608	1107.014
-50.173	25.081	1307.631	1060.276
-49.159	49.769	1373.768	1264.951
-48.144	48.001	1386.502	1265.876
-47.130	27.857	1335.558	1099.533
-46.115	24.636	1317.298	1065.293
-45.100	24.518	1311.878	1060.166
-44.086	24.383	1309.653	1057.527
-43.071	24.361	1307.362	1055.504
-42.057	24.300	1305.567	1053.649
-41.042	24.352	1303.473	1052.228
-40.027	24.463	1302.427	1051.993
-39.013	24.368	1300.187	1049.581
-37.998	24.351	1298.416	1048.013
-36.984	24.489	1296.652	1047.358
-35.969	24.470	1295.040	1045.900
-34.954	24.440	1293.365	1044.332
-33.940	24.427	1292.313	1043.366
-32.925	24.659	1290.442	1043.168
-31.911	24.643	1289.064	1041.921
-30.896	24.676	1287.597	1040.882
-29.881	24.575	1286.832	1039.634
-28.867	24.668	1285.422	1038.996
-27.852	24.691	1283.207	1037.300
-26.838	24.584	1282.405	1035.990
-25.823	24.566	1281.335	1034.981
-24.809	24.592	1279.774	1033.829
-23.794	24.701	1278.147	1033.101
-22.779	24.500	1277.377	1031.277
-21.765	24.576	1275.695	1030.319
-20.750	24.659	1274.030	1029.409
-19.736	24.583	1273.186	1028.247
-18.721	24.443	1272.229	1026.633
-17.706	24.497	1271.028	1025.930
-16.692	24.433	1270.202	1024.858
-15.677	24.535	1269.185	1024.579
-14.663	24.427	1268.328	1023.228
-13.648	24.520	1266.596	1022.325
-12.633	24.371	1266.104	1021.033
-11.619	24.396	1264.818	1020.096
-10.604	24.436	1263.859	1019.510
-9.590	24.418	1263.029	1018.703
-8.575	24.408	1261.714	1017.544
-7.560	24.367	1261.443	1017.050
-6.546	24.433	1260.609	1016.710
-5.531	24.326	1259.447	1015.127
-4.517	24.509	1258.238	1015.153
-3.502	24.483	1257.803	1014.613
-2.487	24.389	1256.999	1013.388
-1.473	24.409	1252.502	1009.837
-0.458	23.135	1237.921	990.912
0.556	18.616	1222.605	957.081
1.571	15.314	1230.366	944.502
2.586	14.540	1245.902	951.931
3.600	14.443	1233.912	942.134
4.615	10.588	1160.556	865.520
5.629	3.574	1088.654	776.624
6.644	0.288	1071.237	747.841
7.659	0.166	1068.946	745.570
8.673	0.245	1067.941	745.195
9.688	0.180	1067.114	744.231
10.702	0.374	1064.757	743.476
11.717	4.592	1069.597	767.653
12.731	11.662	1079.319	809.686
13.746	15.866	1083.750	833.805
14.761	16.784	1084.535	838.881
15.775	16.089	1082.925	834.124
16.790	15.042	1081.411	827.708
17.804	14.376	1079.316	822.745
18.819	14.085	1078.471	820.593
19.834	13.918	1077.360	818.850
20.848	13.548	1076.912	816.614
21.863	13.285	1075.614	814.263
22.877	13.197	1074.863	813.190
23.892	13.115	1073.997	812.058
24.907	13.139	1073.530	811.751
25.921	13.218	1072.724	811.457
26.936	13.300	1071.674	810.995
27.950	13.238	1070.703	809.883
28.965	13.377	1070.145	810.068
29.980	13.354	1068.676	808.773
30.994	13.509	1067.238	808.372
32.009	13.440	1066.534	807.432
33.023	13.375	1065.837	806.513
34.038	13.298	1064.417	804.995
35.053	13.286	1063.453	804.135
36.067	13.304	1062.834	803.682
37.082	13.328	1061.647	802.829
38.096	13.244	1061.207	802.021
39.111	13.370	1060.451	801.987
40.126	13.180	1058.996	799.896
41.140	13.212	1057.946	799.186
42.155	13.165	1056.767	797.999
43.169	13.165	1055.544	797.004
44.184	13.136	1054.664	796.132
45.199	13.276	1053.861	796.127
46.213	13.208	1052.602	794.781
47.228	13.318	1051.643	794.513
48.242	13.274	1050.540	793.399
49.257	13.316	1049.628	792.840
50.271	13.259	1048.744	791.829
51.286	13.287	1047.496	790.954
52.301	13.322	1047.144	790.784
53.315	13.275	1045.855	789.515
54.330	13.192	1044.452	787.989
55.344	13.288	1043.611	787.744
56.359	13.244	1043.265	787.202
57.374	13.214	1042.065	786.088
58.388	13.192	1041.184	785.247
59.403	13.117	1040.516	784.320
60.417	13.170	1039.667	783.860
61.432	13.070	1038.818	782.678
62.447	13.255	1037.417	782.426
63.461	13.202	1036.832	781.666
64.476	13.126	1036.088	780.678
65.490	12.995	1035.287	779.386
66.505	13.070	1034.700	779.229
67.520	13.079	1034.267	778.878
68.534	13.132	1033.193	778.246
69.549	13.185	1032.390	777.824
70.563	13.129	1031.777	777.028
71.578	13.244	1030.721	776.704
72.593	12.974	1030.554	775.242
73.607	13.042	1029.469	774.679
74.622	13.140	1028.571	774.390
75.636	13.030	1028.421	773.697
76.651	13.031	1027.670	773.066
77.666	12.963	1027.260	772.371
78.680	13.022	1026.330	771.879
79.695	13.182	1025.229	771.733
80.709	13.192	1024.948	771.500
81.724	13.216	1023.929	770.774
82.739	13.165	1023.841	770.400
83.753	13.295	1022.665	770.055
84.768	13.312	1021.215	768.973
85.782	13.405	1020.561	768.847
86.797	13.294	1019.929	767.788
87.812	13.361	1018.721	767.118
88.826	13.270	1018.188	766.231
89.841	13.368	1016.754	765.535
90.855	13.229	1016.519	764.645
91.870	13.348	1015.314	764.225
92.884	13.261	1014.948	763.479
93.899	13.357	1013.570	762.814
94.914	13.398	1012.603	762.213
95.928	13.408	1012.027	761.756
96.943	13.237	1011.406	760.435
97.957	13.256	1010.305	759.628
98.972	13.397	1008.979	759.207
99.987	13.360	1008.634	758.713
101.001	13.305	1007.523	757.557
102.016	13.293	1006.727	756.838
103.030	13.265	1005.970	756.072
104.045	13.385	1004.949	755.789
105.060	13.360	1004.168	755.018
106.074	13.199	1003.448	753.676
107.089	13.221	1002.136	752.725
108.103	13.275	1000.966	752.027
109.118	13.241	1000.396	751.376
110.133	13.193	999.376	750.324
111.147	13.293	998.385	749.967
112.162	13.257	997.544	749.105
113.176	13.241	996.856	748.450
114.191	13.316	996.377	748.364
115.206	13.368	995.446	747.835
116.220	13.413	994.357	747.152
117.235	13.234	993.544	745.668
118.249	13.222	992.920	745.082
119.264	13.179	992.178	744.263
120.279	13.315	991.377	744.210
121.293	13.232	990.221	742.905
122.308	13.306	989.106	742.333
123.322	13.247	988.241	741.353
124.337	13.370	987.099	740.983
125.352	13.304	985.617	739.509
126.366	13.227	985.082	738.699
127.381	13.207	983.887	737.648
128.395	13.178	983.552	737.202
129.410	13.331	982.406	736.959
130.424	13.263	981.682	736.050
131.439	13.272	981.030	735.537
132.454	13.411	979.695	735.086
133.468	13.359	978.950	734.230
134.483	13.353	978.268	733.628
135.497	13.294	977.343	732.608
136.512	13.458	976.097	732.333
137.527	13.327	975.732	731.417
138.541	13.360	974.985	730.936
139.556	13.223	974.670	730.030
140.570	13.391	973.911	730.141
141.585	13.531	972.673	729.763
142.600	13.539	971.705	729.011
143.614	13.512	970.861	728.192
144.629	13.550	970.142	727.756
145.643	13.553	969.145	726.956
146.658	13.451	968.500	725.962
147.673	13.540	967.478	725.520
148.687	13.349	966.950	724.224
149.702	13.558	965.750	724.173
150.716	13.395	965.302	723.065
151.731	13.305	964.952	722.343
152.746	13.513	963.874	722.380
153.760	13.472	963.339	721.738
154.775	13.611	962.673	721.778
155.789	13.490	962.160	720.802
156.804	13.547	961.137	720.220
157.819	13.524	960.344	719.465
158.833	13.703	959.669	719.670
159.848	13.626	958.610	718.480
160.862	13.738	957.946	718.402
161.877	13.589	957.029	717.007
162.892	13.575	956.176	716.244
163.906	13.482	955.563	715.322
164.921	13.622	954.084	714.754
165.935	13.589	953.822	714.351
166.950	13.701	952.656	713.899
167.964	13.606	951.675	712.690
168.979	13.580	951.237	712.190
169.994	13.668	950.304	711.804
171.008	13.650	949.749	711.249
172.023	13.754	949.053	711.108
173.037	13.775	948.006	710.351
174.052	13.742	947.567	709.819
175.067	13.736	946.981	709.291
176.081	13.755	946.312	708.808
177.096	13.769	945.620	708.289
178.110	13.723	944.988	707.555
179.125	13.744	944.355	707.111
180.140	13.627	943.846	706.164
181.154	13.774	943.657	706.588
182.169	13.908	942.952	706.570
183.183	13.912	942.089	705.876
184.198	13.807	941.554	704.966
185.213	13.949	940.761	704.913
186.227	13.868	939.891	703.857
187.242	14.001	939.269	703.893
188.256	13.991	939.013	703.596
189.271	14.000	937.748	702.625
190.286	13.921	937.454	702.007
191.300	13.739	936.540	700.493
192.315	13.796	936.182	700.403
193.329	13.849	935.840	700.309
194.344	13.891	934.862	699.691
195.359	13.985	934.258	699.573
196.373	13.905	933.610	698.689
197.388	14.070	932.884	698.779
198.402	13.968	932.751	698.186
199.417	14.134	932.199	698.410
200.432	14.167	931.277	697.796
201.446	14.199	931.201	697.809
202.461	14.129	930.454	696.896
203.475	14.247	929.514	696.623
204.490	14.162	928.906	695.751
205.504	14.136	928.098	694.976
206.519	14.166	927.476	694.577
207.534	14.238	926.489	694.074
208.548	14.163	926.195	693.480
209.563	14.172	925.316	692.796
210.577	14.241	924.677	692.544
211.592	14.296	923.944	692.162
212.607	14.284	923.079	691.403
213.621	14.356	922.042	690.868
214.636	14.232	921.915	690.194
215.650	14.384	920.748	689.891
216.665	14.307	920.314	689.185
217.680	14.394	919.441	688.830
218.694	14.569	918.858	689.055
219.709	14.339	918.568	687.826
220.723	14.356	917.887	687.325
221.738	14.523	916.674	687.046
222.753	14.431	916.078	686.157
223.767	14.479	915.295	685.709
224.782	14.574	914.936	685.770
225.796	14.517	914.434	685.097
226.811	14.363	914.025	684.099
227.826	14.531	912.878	683.868
228.840	14.495	912.046	683.039
229.855	14.513	911.475	682.626
230.869	14.499	910.583	681.839
231.884	14.404	910.233	681.129
232.899	14.554	909.430	681.079
233.913	14.469	908.944	680.308
234.928	14.623	907.713	679.953
235.942	14.559	907.373	679.378
236.957	14.640	906.850	679.256
237.972	14.556	906.091	678.285
238.986	14.554	905.508	677.782
240.001	14.495	905.288	677.315
241.015	14.573	904.127	676.704
242.030	14.461	904.119	676.183
243.045	14.732	903.250	676.572
244.059	14.616	902.546	675.516
245.074	14.620	902.170	675.191
246.088	14.650	901.399	674.676
247.103	14.723	900.635	674.340
248.117	14.593	900.929	673.974
249.132	14.840	899.727	674.013
250.147	14.823	898.908	673.270
251.161	14.922	897.978	672.912
252.176	14.917	897.434	672.425
253.190	14.887	896.741	671.724
254.205	15.037	895.937	671.665
255.220	15.032	895.519	671.271
256.234	14.997	895.314	670.919
257.249	14.964	894.241	669.925
258.263	15.006	893.292	669.324
259.278	15.055	892.834	669.114
260.293	15.067	892.301	668.703
261.307	15.126	891.679	668.414
262.322	15.085	891.078	667.740
263.336	15.297	889.893	667.638
264.351	15.114	889.578	666.616
265.366	15.196	889.065	666.498
266.380	15.261	888.073	665.952
267.395	15.300	887.332	665.494
268.409	15.352	886.611	665.098
269.424	15.233	886.126	664.207
270.439	15.158	885.287	663.220
271.453	15.242	884.534	662.930
272.468	15.195	884.469	662.639
273.482	15.172	883.629	661.860
274.497	15.337	883.265	662.179
275.512	15.311	882.431	661.394
276.526	15.180	882.259	660.689
277.541	15.404	881.489	660.938
278.555	15.451	880.686	660.460
279.570	15.365	880.190	659.690
280.585	15.456	879.552	659.511
281.599	15.447	878.476	658.610
282.614	15.454	878.075	658.280
283.628	15.313	877.416	657.177
284.643	15.389	876.993	657.100
285.657	15.474	876.268	656.829
286.672	15.454	875.344	655.999
287.687	15.425	874.690	655.341
288.701	15.438	874.641	655.294
289.716	15.579	873.903	655.234
290.730	15.556	873.208	654.567
291.745	15.640	872.417	654.242
292.760	15.669	871.871	653.889
293.774	15.674	871.216	653.357
294.789	15.586	870.805	652.651
295.803	15.538	870.052	651.842
296.818	15.659	868.719	651.253
297.833	15.479	868.743	650.519
298.847	15.702	867.790	650.608
299.862	15.613	867.349	649.877
300.876	15.745	867.052	650.106
301.891	15.670	866.497	649.342
302.906	15.663	866.031	648.910
303.920	15.842	865.125	648.864
304.935	15.875	864.598	648.537
305.949	15.801	864.121	647.837
306.964	15.874	863.578	647.655
307.979	15.853	863.226	647.254
308.993	15.921	862.457	646.878
310.008	15.891	861.621	646.079
311.022	15.853	861.295	645.633
312.037	16.057	860.498	645.762
313.052	15.895	860.069	644.760
314.066	15.786	859.725	644.028
315.081	15.833	858.914	643.542
316.095	15.820	858.481	643.115
317.110	15.728	858.088	642.411
318.125	15.850	857.529	642.400
319.139	15.799	857.097	641.826
320.154	15.994	856.250	641.878
321.168	15.903	856.169	641.412
322.183	15.996	855.252	641.023
323.197	16.023	854.775	640.710
324.212	15.912	854.098	639.724
325.227	16.081	853.383	639.775
326.241	16.076	852.867	639.313
327.256	15.993	852.532	638.688
328.270	15.928	851.935	637.939
329.285	16.081	851.091	637.831
330.300	16.058	850.524	637.263
331.314	16.001	850.110	636.681
332.329	16.071	849.792	636.649
333.343	16.080	849.137	636.138
334.358	16.111	848.651	635.834
335.373	16.160	848.324	635.718
336.387	16.160	848.307	635.648
337.402	16.120	847.924	635.155
338.416	16.207	847.399	635.031
339.431	16.391	847.112	635.454
340.446	16.337	846.667	634.859
341.460	16.453	845.809	634.597
342.475	16.401	845.549	634.150
343.489	16.319	845.385	633.664
344.504	16.405	844.547	633.299
345.519	16.424	844.159	633.027
346.533	16.376	843.772	632.500
347.548	16.338	843.439	632.050
348.562	16.381	842.542	631.485
349.577	16.356	842.208	631.086
350.592	16.431	841.318	630.640
351.606	16.478	840.871	630.424
352.621	16.125	840.311	628.634
353.635	16.330	839.421	628.677
354.650	16.495	838.925	628.863
355.665	16.564	838.143	628.478
356.679	16.558	837.640	628.023
357.694	16.571	836.986	627.524
358.708	16.396	836.617	626.544
359.723	16.626	835.461	626.474
360.738	16.429	835.587	625.785
361.752	16.582	834.858	625.750
362.767	16.616	834.003	625.178
363.781	16.639	833.493	624.826
364.796	16.792	832.957	624.932
365.810	16.706	832.722	624.384
366.825	16.711	832.275	624.013
367.840	16.799	831.607	623.779
368.854	16.796	831.546	623.666
369.869	16.862	830.792	623.291
370.883	16.703	830.611	622.515
371.898	16.819	830.293	622.648
372.913	16.798	829.850	622.183
373.927	16.815	829.460	621.898
374.942	16.851	828.624	621.348
375.956	16.969	828.290	621.476
376.971	17.041	827.846	621.352
377.986	16.977	827.658	620.921
379.000	17.062	826.844	620.565
380.015	17.023	826.189	619.878
381.029	17.055	826.297	620.019
382.044	17.126	825.463	619.599
383.059	17.279	824.343	619.259
384.073	17.203	823.771	618.497
385.088	16.882	823.625	617.166
386.102	16.939	823.391	617.142
387.117	17.117	822.254	616.883
388.132	17.115	821.703	616.407
389.146	16.943	821.305	615.430
390.161	16.979	821.227	615.449
391.175	17.021	820.594	615.073
392.190	16.939	820.210	614.433
393.205	16.925	819.454	613.762
394.219	17.075	818.884	613.824
395.234	17.165	818.508	613.813
396.248	17.178	818.153	613.538
397.263	17.084	818.005	613.032
398.278	17.031	817.395	612.332
399.292	17.089	816.938	612.142
400.307	17.236	816.705	612.444
401.321	17.258	816.012	611.950
402.336	17.175	815.572	611.268
403.350	17.224	815.226	611.129
404.365	17.264	814.776	610.883
405.380	17.159	814.396	610.167
406.394	17.380	813.518	610.246
407.409	17.455	812.898	609.995
408.423	17.482	812.892	610.034
409.438	17.554	812.434	609.895
410.453	17.439	812.079	609.162
411.467	17.441	811.469	608.659
412.482	17.434	811.114	608.314
413.496	17.498	811.030	608.424
414.511	17.411	810.730	607.834
415.526	17.504	809.981	607.554
416.540	17.491	809.681	607.226
417.555	17.598	808.924	606.988
418.569	17.705	808.398	606.919
419.584	17.605	808.038	606.238
420.599	17.637	807.509	605.902
421.613	113.191	1298.055	1485.285
422.628	97.768	1369.478	1485.385
