DTS Sentinel unit serial number:	SN413079Multiplexer serial number:	ORYXHardware model number:	OX4-SRSoftware version number:	ORYX F/W v4.00 Oryx Data Collector v3.7.2.0data status	okinstallation	princeton_trtdifferential loss correction	single-endedforward channel	channel 1reverse channel	N/Adate	2019/09/15time	00:58:35forward acquisition time	60.00reverse acquisition time	0.00gamma	496.2192k internal	0.2321k external	0.2321temperature offset calibration	0.9985default loss term (dB/km)	0.3790temperature slope calibration	1.0000multiplexer offset coefficient	1.0000multiplexer slope coefficient	1.0000fibre end	0.00T internal ref (°C)	32.02T ext. ref 1 (°C)	4.53T ext. ref 2 (°C)	26.89length (m)	temperature (°C)	Stokes	anti-Stokes-747.200	-92.129	-0.151	0.043
-746.185	-200.000	-0.027	0.280
-745.171	-200.000	0.001	-0.102
-744.156	-71.857	0.213	0.080
-743.142	0.498	-0.087	0.063
-742.127	800.000	0.072	0.259
-741.112	800.000	0.049	0.180
-740.098	75.581	-0.089	0.095
-739.083	-39.709	-0.315	0.166
-738.069	800.000	0.064	0.191
-737.054	800.000	0.112	0.367
-736.039	800.000	-0.043	-0.142
-735.025	94.778	-0.064	-0.074
-734.010	-109.062	-0.040	-0.009
-732.996	-117.453	-0.290	-0.053
-731.981	180.902	0.091	-0.134
-730.966	-200.000	-0.003	0.175
-729.952	-200.000	0.030	0.244
-728.937	-59.150	0.030	0.013
-727.923	469.735	-0.173	-0.393
-726.908	47.268	0.022	-0.021
-725.894	-200.000	-0.008	0.086
-724.879	-151.210	0.203	-0.015
-723.864	274.411	-0.104	0.185
-722.850	-7.641	0.119	-0.081
-721.835	211.817	0.316	-0.503
-720.821	502.093	0.036	-0.083
-719.806	-157.146	-0.346	-0.021
-718.791	45.614	0.159	-0.148
-717.777	-120.404	0.081	-0.014
-716.762	67.431	-0.090	-0.093
-715.748	-88.473	0.230	0.069
-714.733	-11.752	-0.342	0.226
-713.718	-200.000	0.030	0.524
-712.704	-123.294	-0.073	0.012
-711.689	-181.635	-0.264	0.005
-710.675	-49.143	0.212	-0.103
-709.660	-127.545	-0.164	-0.024
-708.645	-142.232	0.209	0.021
-707.631	235.944	0.061	0.103
-706.616	105.439	-0.098	0.117
-705.602	800.000	-0.057	0.253
-704.587	-77.911	-0.191	-0.067
-703.572	800.000	-0.073	-0.236
-702.558	-126.612	0.320	-0.048
-701.543	-3.328	-0.276	-0.194
-700.529	800.000	-0.048	0.141
-699.514	550.768	0.032	-0.077
-698.499	-200.000	-0.014	0.078
-697.485	-152.042	0.316	-0.023
-696.470	37.326	0.290	0.260
-695.456	413.058	0.129	0.276
-694.441	168.321	-0.336	-0.483
-693.426	800.000	0.079	-0.314
-692.412	-116.445	0.342	0.064
-691.397	38.096	-0.139	-0.125
-690.383	800.000	-0.021	-0.079
-689.368	-12.844	-0.115	-0.075
-688.354	-91.415	-0.306	0.088
-687.339	649.994	0.054	-0.141
-686.324	-45.229	-0.156	-0.078
-685.310	-49.072	0.292	-0.141
-684.295	-105.650	-0.318	-0.073
-683.281	468.156	-0.079	-0.178
-682.266	-180.193	0.150	0.003
-681.251	-17.673	-0.119	-0.075
-680.237	-100.214	-0.121	0.030
-679.222	-119.719	-0.232	0.040
-678.208	-30.060	0.261	-0.149
-677.193	-200.000	0.025	-0.382
-676.178	13.524	-0.385	-0.301
-675.164	246.560	0.063	0.107
-674.149	288.858	-0.093	-0.170
-673.135	-45.886	0.232	0.116
-672.120	-200.000	-0.032	0.201
-671.105	-1.701	0.114	0.081
-670.091	195.474	-0.027	0.041
-669.076	151.723	0.143	-0.196
-668.062	-171.578	0.185	-0.006
-667.047	-105.947	-0.235	-0.053
-666.032	101.475	-0.040	-0.047
-665.018	-200.000	-0.035	-0.190
-664.003	-165.514	-0.154	0.007
-662.989	-133.274	0.241	0.031
-661.974	-131.177	-0.285	-0.038
-660.959	30.662	-0.084	-0.072
-659.945	-24.344	0.164	-0.099
-658.930	-65.448	-0.081	0.033
-657.916	-200.000	-0.011	-0.063
-656.901	590.008	0.023	0.058
-655.886	-111.930	0.361	-0.073
-654.872	-200.000	-0.005	-0.223
-653.857	-200.000	0.022	0.198
-652.843	158.377	0.075	-0.105
-651.828	655.053	-0.167	0.433
-650.814	-130.524	0.328	0.045
-649.799	-13.882	0.123	-0.080
-648.784	-15.078	0.020	0.013
-647.770	-65.391	-0.089	0.036
-646.755	-200.000	0.023	0.131
-645.741	728.034	0.076	-0.204
-644.726	-200.000	-0.062	-0.319
-643.711	-96.817	-0.314	-0.083
-642.697	291.396	-0.165	0.302
-641.682	-87.083	0.081	-0.025
-640.668	21.931	0.125	-0.103
-639.653	499.142	0.045	-0.106
-638.638	-163.364	0.248	-0.012
-637.624	800.000	-0.083	-0.283
-636.609	800.000	0.031	-0.125
-635.595	-34.358	-0.185	0.102
-634.580	118.468	-0.132	-0.165
-633.565	-175.331	-0.148	-0.004
-632.551	-118.208	0.182	-0.033
-631.536	221.206	-0.058	0.095
-630.522	-200.000	0.096	-0.494
-629.507	471.919	-0.121	-0.273
-628.492	379.007	-0.102	0.210
-627.478	-93.585	-0.218	0.061
-626.463	800.000	-0.058	-0.199
-625.449	122.893	-0.230	0.290
-624.434	272.865	0.097	0.171
-623.419	-92.249	-0.134	0.038
-622.405	-115.590	-0.278	-0.053
-621.390	88.938	-0.148	0.166
-620.376	98.859	-0.175	0.204
-619.361	70.607	0.165	0.172
-618.346	-200.000	0.002	-0.098
-617.332	-42.614	0.218	-0.112
-616.317	-200.000	0.012	-0.277
-615.303	-75.343	-0.042	0.015
-614.288	31.936	0.272	-0.236
-613.273	399.780	-0.143	0.301
-612.259	84.151	0.177	0.194
-611.244	342.115	-0.100	0.197
-610.230	-164.055	0.447	-0.021
-609.215	293.297	-0.079	0.145
-608.201	800.000	0.076	-0.215
-607.186	-139.552	0.088	-0.009
-606.171	-200.000	0.023	0.212
-605.157	800.000	-0.031	-0.118
-604.142	125.326	0.116	0.147
-603.128	-118.903	0.145	0.026
-602.113	-200.000	-0.013	-0.186
-601.098	-185.860	-0.104	-0.002
-600.084	-200.000	0.042	-0.269
-599.069	800.000	0.068	0.206
-598.055	-200.000	-0.029	0.193
-597.040	800.000	0.122	0.362
-596.025	164.665	0.142	-0.201
-595.011	-81.191	-0.086	0.029
-593.996	128.854	-0.104	-0.133
-592.982	-3.192	0.194	0.136
-591.967	-200.000	-0.041	0.205
-590.952	-65.148	-0.272	-0.110
-589.938	-143.652	-0.453	0.043
-588.923	-29.093	0.106	0.061
-587.909	-200.000	0.009	0.204
-586.894	800.000	0.053	-0.162
-585.879	65.052	-0.134	0.136
-584.865	306.775	-0.082	0.153
-583.850	-73.015	-0.325	0.120
-582.836	-184.217	-0.228	0.004
-581.821	137.301	0.111	-0.146
-580.806	569.816	0.098	0.239
-579.792	733.181	0.053	-0.142
-578.777	-132.934	-0.140	0.018
-577.763	800.000	0.013	-0.047
-576.748	202.726	-0.101	0.157
-575.733	-125.093	0.141	-0.022
-574.719	-57.666	0.144	0.063
-573.704	800.000	0.070	0.240
-572.690	-163.228	0.088	-0.004
-571.675	800.000	-0.085	-0.291
-570.661	-200.000	-0.040	-0.188
-569.646	-200.000	0.023	0.229
-568.631	-54.971	-0.317	0.144
-567.617	31.992	-0.232	0.201
-566.602	-91.568	0.224	0.064
-565.588	522.615	0.016	-0.037
-564.573	-25.783	-0.215	-0.127
-563.558	-200.000	-0.060	0.285
-562.544	-107.519	-0.268	-0.059
-561.529	-200.000	0.062	0.307
-560.515	800.000	0.047	0.134
-559.500	-139.591	-0.076	0.008
-558.485	-175.438	0.225	0.006
-557.471	129.503	-0.230	0.295
-556.456	800.000	0.090	-0.351
-555.442	-107.501	-0.280	0.062
-554.427	-200.000	0.008	-0.038
-553.412	-125.856	-0.206	-0.031
-552.398	-200.000	0.023	0.208
-551.383	-94.379	0.289	0.079
-550.369	-97.812	0.098	-0.025
-549.354	659.969	-0.115	-0.298
-548.339	391.595	0.131	-0.274
-547.325	-102.079	0.106	-0.026
-546.310	-200.000	-0.024	-0.152
-545.296	-153.591	-0.046	-0.003
-544.281	228.957	0.077	-0.125
-543.266	360.868	-0.032	-0.064
-542.252	16.620	0.106	0.084
-541.237	-198.622	0.098	0.001
-540.223	800.000	-0.046	0.157
-539.208	-200.000	-0.055	-0.258
-538.193	-200.000	0.014	-0.103
-537.179	343.757	0.240	-0.473
-536.164	26.270	-0.062	0.052
-535.150	131.862	0.150	-0.193
-534.135	0.784	0.125	0.089
-533.121	-200.000	0.036	-0.204
-532.106	50.416	-0.112	-0.106
-531.091	-145.262	-0.344	-0.031
-530.077	683.280	0.142	0.371
-529.062	-46.223	0.311	-0.153
-528.048	800.000	-0.052	-0.212
-527.033	800.000	0.060	-0.175
-526.018	264.716	0.030	0.052
-525.004	800.000	-0.034	-0.141
-523.989	-121.099	-0.116	0.020
-522.975	-200.000	0.016	-0.082
-521.960	-131.856	0.018	-0.002
-520.945	-200.000	-0.027	-0.232
-519.931	12.199	0.047	-0.036
-518.916	800.000	0.034	0.147
-517.902	725.846	0.210	-0.561
-516.887	-75.193	-0.133	0.047
-515.872	89.442	0.198	0.221
-514.858	111.796	-0.095	0.115
-513.843	-175.343	0.262	-0.007
-512.829	-140.282	0.216	0.023
-511.814	-89.304	-0.108	-0.032
-510.799	-90.504	-0.164	-0.048
-509.785	224.828	-0.095	0.153
-508.770	567.597	-0.021	0.051
-507.756	-141.115	-0.278	0.028
-506.741	302.045	-0.172	0.319
-505.726	-5.833	0.219	0.150
-504.712	152.623	0.206	-0.282
-503.697	87.646	0.211	0.234
-502.683	549.638	-0.109	-0.261
-501.668	-200.000	-0.038	-0.227
-500.653	388.598	-0.088	-0.182
-499.639	-200.000	0.001	-0.132
-498.624	-4.607	0.197	0.136
-497.610	351.426	0.099	-0.197
-496.595	524.660	0.032	0.075
-495.581	-46.535	-0.215	0.106
-494.566	-200.000	-0.055	-0.454
-493.551	-55.108	-0.201	0.091
-492.537	237.837	0.079	0.132
-491.522	31.456	-0.194	0.167
-490.508	-94.555	-0.348	-0.095
-489.493	-80.677	0.356	-0.118
-488.478	-147.739	0.088	0.007
-487.464	-59.304	-0.096	-0.042
-486.449	-136.284	-0.306	0.036
-485.435	378.657	-0.102	-0.208
-484.420	-94.348	0.301	0.082
-483.405	707.194	0.114	0.300
-482.391	-165.285	0.362	-0.016
-481.376	800.000	-0.077	0.235
-480.362	-97.985	0.150	-0.039
-479.347	237.669	-0.101	-0.168
-478.332	800.000	0.021	0.072
-477.318	24.051	0.224	0.185
-476.303	419.038	-0.085	-0.181
-475.289	10.507	0.074	-0.057
-474.274	132.933	0.056	0.072
-473.259	-61.860	-0.330	0.138
-472.245	700.792	0.133	0.350
-471.230	-200.000	0.014	0.171
-470.216	203.173	0.204	-0.315
-469.201	800.000	0.082	-0.257
-468.186	-200.000	-0.008	-0.125
-467.172	477.909	0.015	0.033
-466.157	47.509	0.021	-0.020
-465.143	-185.360	0.140	-0.002
-464.128	-138.685	0.366	-0.040
-463.113	367.580	-0.068	0.137
-462.099	-189.832	0.114	0.001
-461.084	-36.206	0.041	-0.022
-460.070	-42.767	0.301	-0.153
-459.055	258.832	0.089	-0.154
-458.040	-64.658	-0.245	0.099
-457.026	-177.924	0.090	0.002
-456.011	800.000	0.075	0.276
-454.997	-109.022	-0.097	-0.021
-453.982	205.736	0.138	0.214
-452.968	146.902	-0.099	-0.133
-451.953	-80.896	-0.374	0.124
-450.938	115.831	0.250	-0.306
-449.924	-44.524	0.130	0.065
-448.909	-62.496	-0.105	0.044
-447.895	101.125	0.110	0.128
-446.880	-200.000	-0.042	0.242
-445.865	686.979	0.122	0.319
-444.851	149.823	-0.038	-0.051
-443.836	145.632	0.198	-0.266
-442.822	800.000	-0.067	-0.203
-441.807	800.000	0.059	0.171
-440.792	-32.595	0.220	0.122
-439.778	-34.393	0.192	0.105
-438.763	-200.000	0.045	0.392
-437.749	-104.112	0.076	-0.018
-436.734	-6.469	-0.439	-0.299
-435.719	800.000	0.067	-0.285
-434.705	211.586	0.006	-0.009
-433.690	198.705	-0.183	-0.280
-432.676	800.000	0.049	0.143
-431.661	370.045	-0.177	0.358
-430.646	70.176	0.135	0.139
-429.632	-83.951	0.176	0.056
-428.617	76.890	-0.056	0.059
-427.603	800.000	0.074	0.246
-426.588	124.928	-0.057	-0.072
-425.573	800.000	0.095	0.318
-424.559	-114.139	0.173	0.033
-423.544	706.358	-0.042	-0.111
-422.530	-83.718	-0.327	-0.104
-421.515	-187.823	-0.327	0.004
-420.500	-147.173	0.360	0.031
-419.486	-153.197	0.177	-0.012
-418.471	-162.865	-0.057	0.003
-417.457	407.613	-0.027	-0.057
-416.442	-200.000	-0.022	0.243
-415.428	-200.000	0.031	-0.164
-414.413	-88.836	0.321	-0.095
-413.398	102.455	-0.130	-0.152
-412.384	-28.589	-0.132	-0.076
-411.369	-200.000	-0.011	0.240
-410.355	-80.569	-0.174	0.058
-409.340	281.351	-0.057	0.101
-408.325	-40.905	0.340	-0.175
-407.311	-179.057	-0.084	0.002
-406.296	182.955	-0.124	-0.183
-405.282	37.509	-0.307	-0.272
-404.267	-8.537	-0.281	-0.188
-403.252	172.205	-0.078	-0.112
-402.238	-0.614	-0.104	0.073
-401.223	68.184	0.048	0.049
-400.209	580.394	0.087	-0.213
-399.194	-92.946	0.204	-0.057
-398.179	3.887	0.283	-0.206
-397.165	-114.046	-0.326	-0.063
-396.150	-46.822	0.398	-0.194
-395.136	-46.679	-0.275	-0.134
-394.121	-42.240	0.225	0.115
-393.106	-9.743	0.266	0.177
-392.092	-67.248	-0.212	0.083
-391.077	-200.000	-0.012	0.133
-390.063	542.804	0.066	0.158
-389.048	-48.342	0.154	0.074
-388.033	-58.301	-0.433	0.188
-387.019	31.284	0.188	0.161
-386.004	800.000	0.064	0.182
-384.990	-161.750	-0.436	-0.022
-383.975	226.263	0.083	0.135
-382.960	-33.205	0.308	0.170
-381.946	800.000	-0.077	0.234
-380.931	157.622	-0.140	-0.193
-379.917	556.126	0.056	-0.134
-378.902	-200.000	-0.003	-0.104
-377.888	-102.363	-0.241	-0.058
-376.873	140.370	0.050	0.066
-375.858	187.456	-0.058	-0.087
-374.844	234.309	0.161	-0.264
-373.829	-200.000	-0.166	-0.000
-372.815	800.000	-0.033	-0.094
-371.800	3.619	0.115	-0.083
-370.785	-200.000	0.010	0.194
-369.771	-200.000	0.026	0.228
-368.756	-17.097	-0.230	0.145
-367.742	322.001	-0.054	0.103
-366.727	239.151	-0.161	-0.268
-365.712	800.000	-0.132	-0.385
-364.698	-105.321	-0.343	0.078
-363.683	-200.000	-0.055	0.422
-362.669	34.914	-0.028	0.025
-361.654	800.000	-0.068	0.286
-360.639	-92.627	-0.213	-0.059
-359.625	-31.785	-0.432	0.241
-358.610	-175.372	-0.176	-0.005
-357.596	-200.000	0.001	0.145
-356.581	-200.000	0.007	-0.113
-355.566	170.739	-0.130	-0.185
-354.552	800.000	0.047	-0.180
-353.537	-200.000	-0.027	-0.159
-352.523	-147.855	0.154	-0.013
-351.508	-46.069	-0.218	-0.107
-350.493	-47.393	0.172	0.083
-349.479	800.000	-0.070	0.253
-348.464	-84.538	-0.155	-0.049
-347.450	800.000	0.048	-0.136
-346.435	-73.392	-0.068	0.025
-345.420	71.505	-0.180	-0.186
-344.406	10.941	0.102	0.077
-343.391	7.805	-0.122	0.091
-342.377	-143.899	-0.121	-0.011
-341.362	-62.903	-0.094	-0.039
-340.348	-117.871	-0.323	-0.058
-339.333	-200.000	-0.055	-0.297
-338.318	-144.715	0.222	0.020
-337.304	-154.791	0.193	0.013
-336.289	24.600	-0.055	-0.046
-335.275	196.649	-0.082	0.124
-334.260	169.468	0.219	-0.312
-333.245	-61.988	0.265	0.110
-332.231	-200.000	0.005	0.294
-331.216	-179.341	-0.341	0.008
-330.202	-153.823	0.102	0.007
-329.187	-104.562	0.430	0.099
-328.172	-58.020	0.113	-0.049
-327.158	518.021	0.084	0.196
-326.143	236.652	0.113	0.186
-325.129	-143.695	-0.242	0.023
-324.114	-70.109	0.422	0.160
-323.099	128.952	-0.131	0.166
-322.085	317.818	0.067	0.125
-321.070	40.952	-0.273	0.245
-320.056	-200.000	0.046	0.204
-319.041	-13.815	-0.432	-0.278
-318.026	65.072	0.210	-0.211
-317.012	-200.000	0.080	-0.392
-315.997	1.710	-0.049	0.035
-314.983	-200.000	0.043	0.314
-313.968	-198.044	0.184	-0.001
-312.953	-200.000	0.032	0.214
-311.939	-200.000	0.003	-0.114
-310.924	369.595	-0.142	-0.286
-309.910	-49.744	-0.339	0.160
-308.895	800.000	0.110	-0.418
-307.880	-85.130	0.300	-0.093
-306.866	-157.197	0.383	-0.023
-305.851	800.000	0.056	0.161
-304.837	169.763	0.037	-0.052
-303.822	-64.897	-0.359	0.144
-302.807	329.248	0.137	0.262
-301.793	49.150	0.128	0.120
-300.778	-159.648	-0.150	0.008
-299.764	-200.000	0.028	0.205
-298.749	-108.773	-0.051	-0.011
-297.735	-133.381	-0.332	-0.041
-296.720	13.126	0.310	-0.238
-295.705	-200.000	-0.035	0.201
-294.691	-65.366	-0.278	-0.111
-293.676	-51.354	-0.364	0.169
-292.662	253.720	0.094	0.160
-291.647	-94.191	-0.194	0.053
-290.632	-200.000	-0.025	-0.447
-289.618	131.434	-0.078	0.099
-288.603	713.167	0.100	0.264
-287.589	800.000	0.072	-0.251
-286.574	24.692	0.119	-0.098
-285.559	800.000	0.054	0.174
-284.545	567.488	-0.018	-0.044
-283.530	800.000	-0.030	-0.081
-282.516	125.744	0.104	-0.130
-281.501	-200.000	-0.007	-0.235
-280.486	-200.000	-0.008	0.136
-279.472	271.573	0.009	0.016
-278.457	-91.786	-0.142	0.040
-277.443	-146.495	0.082	0.007
-276.428	124.284	0.106	0.132
-275.413	-52.768	0.281	-0.129
-274.399	-79.494	0.318	-0.107
-273.384	75.120	0.161	0.168
-272.370	-17.721	-0.200	0.124
-271.355	111.012	0.288	0.344
-270.340	-33.575	0.170	-0.093
-269.326	-16.012	0.141	0.089
-268.311	-50.560	0.144	0.067
-267.297	-200.000	0.019	-0.312
-266.282	-18.397	-0.305	0.189
-265.267	-9.559	0.285	0.188
-264.253	-117.172	-0.074	0.013
-263.238	573.304	-0.046	0.111
-262.224	57.991	0.128	-0.125
-261.209	-138.417	0.278	0.030
-260.195	77.349	-0.118	-0.124
-259.180	-40.789	-0.350	0.180
-258.165	-200.000	0.006	-0.273
-257.151	678.410	0.075	0.194
-256.136	329.242	0.016	0.030
-255.122	-77.468	-0.261	0.090
-254.107	800.000	-0.039	0.125
-253.092	-200.000	-0.022	0.117
-252.078	-21.243	0.098	0.059
-251.063	-200.000	0.015	-0.086
-250.049	-200.000	0.002	0.049
-249.034	-200.000	0.023	-0.127
-248.019	-82.482	0.188	0.061
-247.005	214.220	-0.110	0.173
-245.990	-200.000	-0.008	-0.125
-244.976	-83.307	0.233	-0.074
-243.961	427.337	-0.098	-0.210
-242.946	271.052	-0.187	0.326
-241.932	800.000	0.067	0.225
-240.917	-15.298	0.201	-0.127
-239.903	-198.289	-0.272	0.002
-238.888	800.000	0.117	-0.437
-237.873	-158.544	0.121	0.007
-236.859	800.000	0.046	0.136
-235.844	-200.000	-0.013	-0.090
-234.830	-55.728	-0.301	0.133
-233.815	62.779	0.114	-0.113
-232.800	-171.731	-0.594	-0.019
-231.786	800.000	0.038	0.107
-230.771	67.070	0.204	-0.206
-229.757	-76.171	-0.224	-0.078
-228.742	613.759	0.078	0.193
-227.727	800.000	0.042	-0.161
-226.713	726.121	0.056	0.147
-225.698	431.996	0.124	-0.266
-224.684	74.234	0.071	-0.074
-223.669	28.738	0.085	-0.072
-222.655	800.000	0.013	0.049
-221.640	157.615	0.254	-0.348
-220.625	800.000	-0.057	0.229
-219.611	-158.751	0.415	0.024
-218.596	125.039	0.008	0.010
-217.582	349.654	-0.105	0.206
-216.567	-200.000	-0.103	-0.462
-215.552	-135.737	0.132	-0.016
-214.538	-200.000	-0.009	0.215
-213.523	-179.631	0.100	0.002
-212.509	424.480	0.060	0.129
-211.494	-80.331	-0.148	-0.049
-210.479	-200.000	0.001	-0.086
-209.465	800.000	-0.039	-0.137
-208.450	800.000	-0.059	-0.225
-207.436	-34.589	-0.039	-0.021
-206.421	532.395	-0.145	0.340
-205.406	174.593	0.202	-0.290
-204.392	227.967	-0.104	-0.168
-203.377	74.846	-0.091	0.095
-202.363	136.948	-0.187	0.241
-201.348	87.387	0.158	-0.173
-200.333	800.000	-0.117	0.340
-199.319	-94.932	0.141	0.038
-198.304	-200.000	0.015	0.128
-197.290	312.091	-0.071	-0.132
-196.275	502.600	0.102	-0.233
-195.260	44.770	0.172	-0.156
-194.246	-200.000	0.099	0.469
-193.231	-48.387	0.242	0.115
-192.217	-58.680	-0.079	-0.034
-191.202	-119.767	-0.254	0.043
-190.187	800.000	0.086	0.254
-189.173	501.959	-0.085	-0.195
-188.158	2.112	-0.205	-0.147
-187.144	473.161	0.051	0.114
-186.129	-91.497	0.143	-0.040
-185.114	77.444	-0.257	0.271
-184.100	-200.000	0.000	0.133
-183.085	-117.978	-0.228	0.040
-182.071	800.000	0.031	-0.125
-181.056	-135.384	-0.261	-0.031
-180.042	-16.589	-0.100	0.062
-179.027	17.958	0.116	0.091
-178.012	-104.777	0.215	0.049
-176.998	469.699	-0.033	-0.073
-175.983	414.364	-0.049	0.103
-174.969	-200.000	0.030	-0.190
-173.954	-43.081	-0.281	-0.141
-172.939	-67.268	0.078	0.030
-171.925	-35.349	0.179	-0.096
-170.910	-81.080	0.202	0.066
-169.896	-200.000	0.014	-0.212
-168.881	-18.792	-0.175	0.108
-167.866	-188.170	-0.097	-0.001
-166.852	74.127	0.167	0.174
-165.837	-148.386	-0.524	-0.043
-164.823	-137.424	0.290	0.032
-163.808	-200.000	-0.030	-0.227
-162.793	800.000	0.059	-0.192
-161.779	800.000	-0.054	-0.172
-160.764	20.837	0.287	0.230
-159.750	-7.390	-0.156	0.105
-158.735	-200.000	-0.013	0.119
-157.720	212.562	0.195	-0.304
-156.706	-18.075	0.202	-0.125
-155.691	-121.415	0.319	-0.052
-154.677	-1.669	0.298	-0.208
-153.662	-200.000	-0.043	-0.535
-152.647	-103.689	-0.094	0.022
-151.633	-150.077	-0.213	-0.016
-150.618	-67.938	-0.145	-0.056
-149.604	-131.452	-0.390	-0.051
-148.589	800.000	0.057	-0.197
-147.574	-61.060	0.298	-0.124
-146.560	554.260	0.082	0.196
-145.545	24.882	0.089	0.073
-144.531	-63.222	0.411	-0.167
-143.516	-54.209	0.394	0.177
-142.502	14.761	-0.144	-0.111
-141.487	-200.000	-0.007	0.211
-140.472	308.602	0.182	-0.336
-139.458	-113.158	-0.081	-0.016
-138.443	7.318	-0.275	0.203
-137.429	266.108	0.129	0.223
-136.414	-200.000	0.028	-0.373
-135.399	-88.566	-0.017	-0.005
-134.385	-119.984	-0.144	-0.024
-133.370	-31.627	-0.052	0.029
-132.356	462.803	-0.111	0.244
-131.341	-200.000	-0.053	0.302
-130.326	-27.798	0.303	0.173
-129.312	567.588	0.077	0.184
-128.297	738.996	0.063	0.166
-127.283	-50.864	0.389	-0.180
-126.268	-200.000	0.076	-0.491
-125.253	269.764	-0.126	0.218
-124.239	800.000	0.069	0.189
-123.224	-62.120	0.187	0.077
-122.210	153.712	-0.118	-0.160
-121.195	-31.619	0.064	-0.036
-120.180	155.975	-0.093	0.127
-119.166	-97.856	-0.250	-0.064
-118.151	-13.773	-0.102	0.065
-117.137	7.522	-0.053	0.039
-116.122	800.000	-0.008	0.023
-115.107	-47.506	-0.024	-0.011
-114.093	91.354	0.130	-0.144
-113.078	-107.748	0.131	0.028
-112.064	-200.000	-0.013	0.300
-111.049	-105.236	0.087	-0.020
-110.034	800.000	0.106	0.320
-109.020	-200.000	0.006	-0.187
-108.005	-108.027	-0.438	0.094
-106.991	3.462	0.108	0.078
-105.976	-26.101	-0.190	-0.110
-104.962	66.860	0.053	-0.054
-103.947	-105.525	0.408	-0.091
-102.932	-48.156	0.218	0.104
-101.918	-200.000	0.030	0.315
-100.903	14.761	0.065	0.050
-99.889	800.000	0.048	0.164
-98.874	146.491	0.240	-0.318
-97.859	800.000	0.070	0.246
-96.845	272.263	0.020	0.036
-95.830	800.000	-0.081	-0.242
-94.816	-200.000	-0.027	0.289
-93.801	-112.706	0.182	-0.036
-92.786	-77.706	0.217	0.074
-91.772	-200.000	0.003	-0.059
-90.757	186.555	-0.185	-0.272
-89.743	-71.641	0.186	-0.069
-88.728	138.301	0.216	-0.279
-87.713	5.646	-0.094	0.069
-86.699	221.670	0.137	0.218
-85.684	63.122	-0.369	-0.364
-84.670	61.557	0.192	-0.188
-83.655	68.578	-0.252	0.254
-82.640	143.724	0.045	-0.059
-81.626	79.732	-0.140	-0.149
-80.611	230.567	0.173	0.279
-79.597	-200.000	-0.000	0.040
-78.582	27.359	-0.112	-0.093
-77.567	800.000	0.046	0.137
-76.553	-51.695	0.436	0.200
-75.538	-6.162	-0.245	0.165
-74.524	578.688	0.096	0.232
-73.509	-56.377	-0.143	0.063
-72.494	255.968	-0.142	0.240
-71.480	800.000	0.106	0.310
-70.465	-200.000	0.019	0.255
-69.451	405.330	-0.087	-0.182
-68.436	147.347	-0.066	0.087
-67.422	-60.202	0.484	-0.203
-66.407	493.466	-0.059	-0.134
-65.392	-145.926	-0.229	-0.020
-64.378	-95.349	0.179	0.047
-63.363	-67.118	0.259	0.101
-62.349	800.000	-0.032	-0.127
-61.334	43.552	-1.181	-1.063
-60.319	800.000	0.138	0.396
-59.305	460.237	-0.444	-0.974
-58.290	73.694	1.081	1.115
-57.276	290.750	0.805	1.440
-56.261	-200.000	95.418	594.608
-55.246	659.356	1366.345	3460.361
-54.232	200.237	2541.875	3842.024
-53.217	120.617	2138.452	2614.797
-52.203	43.997	1602.708	1445.290
-51.188	35.510	1340.520	1157.901
-50.173	32.359	1298.838	1103.406
-49.159	55.068	1345.780	1279.215
-48.144	57.098	1362.582	1307.226
-47.130	35.652	1321.420	1142.066
-46.115	32.156	1304.312	1106.684
-45.100	31.990	1299.552	1101.627
-44.086	31.955	1296.450	1098.747
-43.071	31.862	1294.710	1096.689
-42.057	31.885	1292.585	1094.978
-41.042	31.893	1290.574	1093.276
-40.027	31.904	1289.164	1092.102
-39.013	31.963	1287.131	1090.683
-37.998	31.914	1285.283	1088.788
-36.984	31.986	1283.727	1087.847
-35.969	32.118	1281.636	1086.791
-34.954	32.047	1280.253	1085.166
-33.940	32.040	1279.258	1084.240
-32.925	32.103	1277.561	1083.123
-31.911	32.084	1275.986	1081.636
-30.896	31.962	1274.766	1079.852
-29.881	32.119	1272.920	1079.149
-28.867	32.076	1271.975	1078.060
-27.852	32.175	1270.287	1077.157
-26.838	32.211	1268.771	1076.033
-25.823	32.122	1267.392	1074.313
-24.809	32.203	1266.004	1073.555
-23.794	32.068	1265.145	1072.013
-22.779	32.052	1264.248	1071.120
-21.765	32.128	1262.672	1070.172
-20.750	32.018	1261.329	1068.367
-19.736	32.005	1259.673	1066.848
-18.721	32.064	1258.956	1066.535
-17.706	31.912	1257.812	1064.660
-16.692	31.893	1256.975	1063.802
-15.677	31.906	1255.409	1062.506
-14.663	32.028	1254.699	1062.554
-13.648	32.039	1253.168	1061.278
-12.633	31.893	1252.053	1059.468
-11.619	32.075	1251.354	1059.862
-10.604	31.953	1250.436	1058.356
-9.590	31.909	1249.811	1057.535
-8.575	31.923	1248.806	1056.719
-7.560	31.968	1247.794	1056.073
-6.546	31.919	1247.068	1055.144
-5.531	31.886	1246.049	1054.055
-4.517	31.902	1245.233	1053.410
-3.502	31.963	1244.349	1052.961
-2.487	32.091	1242.884	1052.402
-1.473	31.895	1239.392	1048.309
-0.458	30.717	1223.788	1028.560
0.556	25.780	1206.648	990.093
1.571	21.974	1212.576	973.801
2.586	21.073	1226.633	979.941
3.600	20.566	1215.747	968.336
4.615	15.666	1144.499	885.749
5.629	7.991	1071.528	791.209
6.644	4.661	1052.547	760.858
7.659	4.561	1049.808	758.320
8.673	4.513	1048.738	757.248
9.688	4.395	1047.582	755.772
10.702	4.613	1045.750	755.445
11.717	8.836	1051.829	780.369
12.731	15.934	1061.066	821.906
13.746	18.668	1063.854	837.354
14.761	18.062	1062.783	833.479
15.775	16.960	1060.723	826.423
16.790	15.778	1058.781	819.090
17.804	15.165	1057.108	814.743
18.819	14.830	1055.821	812.048
19.834	14.531	1055.214	810.058
20.848	14.325	1054.331	808.307
21.863	14.178	1053.601	806.965
22.877	14.063	1052.731	805.669
23.892	13.959	1052.143	804.646
24.907	13.971	1051.422	804.080
25.921	14.064	1050.127	803.466
26.936	14.012	1049.049	802.320
27.950	14.121	1047.384	801.502
28.965	14.150	1046.170	800.641
29.980	14.329	1044.088	799.838
30.994	14.310	1043.305	799.077
32.009	14.274	1042.323	798.079
33.023	14.291	1041.554	797.503
34.038	14.284	1040.209	796.371
35.053	14.101	1039.771	795.086
36.067	14.086	1038.594	794.047
37.082	14.174	1037.911	793.875
38.096	14.307	1036.905	793.668
39.111	14.191	1036.335	792.610
40.126	14.149	1035.447	791.660
41.140	14.013	1034.022	789.856
42.155	13.846	1032.850	788.097
43.169	13.909	1031.254	787.107
44.184	13.766	1030.738	785.964
45.199	13.861	1029.431	785.348
46.213	13.915	1028.821	785.070
47.228	14.128	1027.329	784.866
48.242	14.127	1026.805	784.392
49.257	14.081	1025.631	783.210
50.271	14.101	1024.713	782.535
51.286	14.129	1023.802	781.900
52.301	14.163	1022.897	781.301
53.315	14.019	1022.017	779.880
54.330	13.933	1020.977	778.617
55.344	14.102	1019.595	778.285
56.359	14.005	1019.073	777.363
57.374	13.967	1018.154	776.415
58.388	13.887	1017.672	775.608
59.403	13.904	1016.753	774.915
60.417	13.952	1015.464	774.091
61.432	13.916	1015.017	773.513
62.447	13.924	1013.902	772.630
63.461	13.845	1013.480	771.873
64.476	13.707	1012.517	770.432
65.490	13.738	1011.726	769.908
66.505	13.878	1011.036	769.962
67.520	13.852	1010.560	769.409
68.534	13.879	1009.928	768.985
69.549	13.949	1008.804	768.384
70.563	13.894	1008.056	767.493
71.578	13.813	1007.126	766.343
72.593	13.720	1006.232	765.167
73.607	13.685	1005.863	764.658
74.622	13.640	1005.538	764.134
75.636	13.649	1004.874	763.604
76.651	13.667	1004.142	763.065
77.666	13.780	1003.572	763.085
78.680	13.743	1002.573	762.083
79.695	13.722	1002.196	761.633
80.709	13.727	1001.489	761.052
81.724	13.902	1001.140	761.522
82.739	14.040	1000.094	761.293
83.753	14.200	999.306	761.357
84.768	14.265	998.222	760.762
85.782	14.241	997.488	760.028
86.797	14.335	996.669	759.762
87.812	14.151	995.872	758.249
88.826	14.174	994.883	757.535
89.841	14.154	993.983	756.690
90.855	14.193	992.980	756.039
91.870	14.287	992.283	755.866
92.884	14.275	991.330	755.017
93.899	14.264	990.147	754.001
94.914	14.317	989.716	753.845
95.928	14.358	988.749	753.228
96.943	14.301	988.099	752.409
97.957	14.238	987.193	751.370
98.972	14.212	986.624	750.751
99.987	14.315	985.410	750.226
101.001	14.192	985.010	749.302
102.016	14.416	983.820	749.339
103.030	14.241	983.482	748.225
104.045	14.161	982.428	746.998
105.060	14.109	982.023	746.394
106.074	14.064	980.573	745.022
107.089	13.936	979.235	743.369
108.103	13.919	978.568	742.720
109.118	13.889	977.780	741.920
110.133	13.969	976.467	741.214
111.147	13.940	975.802	740.515
112.162	13.969	975.114	740.056
113.176	14.046	974.560	739.916
114.191	14.196	973.185	739.472
115.206	14.047	972.911	738.538
116.220	14.034	971.995	737.717
117.235	14.033	971.076	736.952
118.249	14.068	969.930	736.173
119.264	13.952	969.552	735.303
120.279	14.022	968.952	735.094
121.293	13.861	968.103	733.675
122.308	13.905	967.042	733.000
123.322	13.902	965.881	732.041
124.337	13.874	965.013	731.197
125.352	13.907	964.146	730.621
126.366	13.974	962.860	729.876
127.381	13.961	961.885	729.012
128.395	14.001	961.230	728.628
129.410	13.904	960.243	727.392
130.424	13.920	959.707	726.992
131.439	14.166	958.633	727.190
132.454	14.066	958.119	726.297
133.468	14.057	957.322	725.587
134.483	14.047	956.722	725.028
135.497	14.161	955.380	724.442
136.512	14.030	955.026	723.538
137.527	14.011	954.109	722.699
138.541	14.047	953.269	722.156
139.556	14.176	952.735	722.247
140.570	14.216	952.229	721.970
141.585	14.302	951.190	721.494
142.600	14.301	950.476	720.883
143.614	14.314	949.444	720.091
144.629	14.437	948.474	719.824
145.643	14.332	947.908	718.877
146.658	14.208	947.122	717.684
147.673	14.083	946.369	716.509
148.687	14.156	944.992	715.720
149.702	14.114	944.432	715.050
150.716	14.187	943.567	714.648
151.731	14.266	942.586	714.180
152.746	14.211	941.724	713.228
153.760	14.221	941.482	713.024
154.775	14.183	940.556	712.095
155.789	14.346	939.788	712.150
156.804	14.368	939.738	712.142
157.819	14.374	938.781	711.378
158.833	14.426	938.263	711.147
159.848	14.410	937.840	710.696
160.862	14.415	936.677	709.772
161.877	14.219	935.754	708.176
162.892	14.230	934.428	707.154
163.906	14.147	933.704	706.193
164.921	14.125	933.403	705.809
165.935	14.224	931.978	705.087
166.950	14.298	930.896	704.523
167.964	14.226	930.490	703.846
168.979	14.377	929.053	703.335
169.994	14.308	928.612	702.649
171.008	14.353	927.885	702.224
172.023	14.440	927.289	702.078
173.037	14.515	926.887	702.028
174.052	14.453	925.800	700.881
175.067	14.353	925.271	700.000
176.081	14.243	924.907	699.202
177.096	14.275	924.135	698.687
178.110	14.405	923.303	698.542
179.125	14.483	922.583	698.264
180.140	14.429	922.250	697.725
181.154	14.363	922.014	697.207
182.169	14.459	921.346	697.042
183.183	14.627	920.450	697.004
184.198	14.591	920.064	696.497
185.213	14.536	919.358	695.672
186.227	14.502	918.617	694.911
187.242	14.737	917.647	695.093
188.256	14.681	917.487	694.678
189.271	14.740	916.561	694.159
190.286	14.494	915.455	692.238
191.300	14.338	914.457	690.776
192.315	14.260	914.011	690.054
193.329	14.311	913.820	690.061
194.344	14.443	913.266	690.128
195.359	14.417	912.663	689.504
196.373	14.629	911.864	689.716
197.388	14.698	911.496	689.663
198.402	14.804	911.093	689.733
199.417	14.791	910.282	689.004
200.432	14.907	909.928	689.155
201.446	14.863	909.716	688.751
202.461	14.993	909.173	688.816
203.475	14.904	908.179	687.632
204.490	14.946	907.241	687.037
205.504	14.745	906.783	685.801
206.519	14.903	905.990	685.790
207.534	14.824	905.148	684.768
208.548	14.926	904.424	684.577
209.563	14.886	903.953	683.997
210.577	14.800	903.363	683.137
211.592	14.986	902.557	683.227
212.607	14.791	902.399	682.252
213.621	14.991	901.123	682.040
214.636	14.912	900.586	681.254
215.650	15.055	899.570	681.005
216.665	15.016	899.617	680.822
217.680	15.214	898.531	680.744
218.694	15.065	898.198	679.829
219.709	15.029	897.472	679.073
220.723	15.061	896.647	678.518
221.738	15.078	895.860	677.931
222.753	15.257	895.156	678.061
223.767	15.242	895.008	677.829
224.782	15.260	894.384	677.368
225.796	15.228	893.868	676.788
226.811	15.289	893.229	676.491
227.826	15.244	891.906	675.249
228.840	15.208	891.492	674.733
229.855	15.080	890.888	673.701
230.869	15.092	890.438	673.349
231.884	15.190	889.366	672.872
232.899	15.115	888.653	671.971
233.913	15.159	887.928	671.541
234.928	14.960	887.600	670.433
235.942	15.032	886.886	670.125
236.957	15.128	886.359	670.050
237.972	15.176	885.470	669.510
238.986	15.148	885.056	669.025
240.001	15.126	884.202	668.233
241.015	15.068	884.259	667.987
242.030	15.148	883.444	667.633
243.045	15.142	882.765	667.035
244.059	15.190	881.914	666.524
245.074	15.225	881.712	666.450
246.088	15.330	880.828	666.141
247.103	15.363	880.217	665.751
248.117	15.520	879.555	665.813
249.132	15.663	879.371	666.185
250.147	15.637	878.513	665.370
251.161	15.675	878.168	665.199
252.176	15.795	877.369	665.011
253.190	15.752	876.563	664.170
254.205	15.838	875.836	663.903
255.220	15.832	875.561	663.612
256.234	15.761	874.835	662.722
257.249	15.801	874.265	662.391
258.263	15.778	873.713	661.824
259.278	15.833	872.692	661.205
260.293	15.844	872.652	661.159
261.307	15.795	872.063	660.462
262.322	15.972	870.806	660.145
263.336	15.950	870.552	659.808
264.351	16.046	869.643	659.440
265.366	16.007	868.900	658.665
266.380	16.040	868.471	658.408
267.395	15.992	867.774	657.635
268.409	15.862	867.105	656.561
269.424	15.925	866.130	656.010
270.439	15.901	865.403	655.309
271.453	15.799	865.266	654.751
272.468	16.039	864.120	654.759
273.482	16.015	863.842	654.395
274.497	15.859	863.446	653.434
275.512	15.938	862.583	653.028
276.526	16.019	861.905	652.772
277.541	15.996	861.408	652.248
278.555	16.162	860.940	652.480
279.570	16.132	860.358	651.865
280.585	16.077	859.851	651.211
281.599	16.142	858.667	650.507
282.614	16.134	858.043	649.946
283.628	16.054	857.869	649.447
284.643	16.019	857.610	649.057
285.657	16.121	856.465	648.526
286.672	16.180	855.905	648.271
287.687	16.126	855.527	647.722
288.701	16.235	854.833	647.559
289.716	16.200	854.485	647.102
290.730	16.300	853.440	646.635
291.745	16.196	853.268	646.049
292.760	16.227	852.704	645.684
293.774	16.511	851.892	646.099
294.789	16.248	851.044	644.395
295.803	16.330	850.665	644.363
296.818	16.302	849.818	643.558
297.833	16.323	849.009	642.970
298.847	16.228	848.397	642.088
299.862	16.289	848.222	642.127
300.876	16.314	847.920	641.940
301.891	16.284	847.572	641.505
302.906	16.396	846.702	641.212
303.920	16.591	846.022	641.380
304.935	16.666	845.755	641.406
305.949	16.592	844.977	640.478
306.964	16.476	844.355	639.511
307.979	16.502	843.643	639.017
308.993	16.412	843.675	638.644
310.008	16.581	842.717	638.499
311.022	16.628	841.893	637.996
312.037	16.634	840.903	637.211
313.052	16.462	840.612	636.288
314.066	16.558	840.229	636.300
315.081	16.535	839.550	635.645
316.095	16.578	839.052	635.372
317.110	16.433	838.713	634.514
318.125	16.418	838.160	633.984
319.139	16.452	837.543	633.589
320.154	16.493	837.107	633.357
321.168	16.536	836.475	632.983
322.183	16.611	835.839	632.728
323.197	16.537	835.775	632.347
324.212	16.591	835.147	632.017
325.227	16.502	834.358	631.030
326.241	16.513	833.821	630.612
327.256	16.756	833.100	630.916
328.270	16.545	832.880	629.908
329.285	16.483	832.153	629.071
330.300	16.597	831.474	628.925
331.314	16.572	831.237	628.597
332.329	16.621	830.658	628.287
333.343	16.798	830.037	628.417
334.358	16.730	829.823	627.947
335.373	16.738	829.850	627.940
336.387	16.670	829.335	627.245
337.402	16.835	828.849	627.431
338.416	16.897	828.718	627.508
339.431	16.849	828.399	627.031
340.446	17.006	827.976	627.236
341.460	16.866	827.790	626.522
342.475	17.049	827.336	626.801
343.489	17.088	826.722	626.425
344.504	17.136	825.952	625.964
345.519	17.186	825.546	625.782
346.533	17.030	825.274	624.947
347.548	17.044	824.427	624.303
348.562	16.977	823.927	623.621
349.577	17.019	823.120	623.109
350.592	16.910	822.789	622.404
351.606	16.830	822.199	621.609
352.621	16.997	821.294	621.482
353.635	17.047	820.554	621.049
354.650	16.966	820.387	620.571
355.665	17.212	819.563	620.795
356.679	17.164	818.861	620.033
357.694	17.177	818.284	619.589
358.708	17.157	817.877	619.151
359.723	17.148	817.088	618.465
360.738	17.160	816.651	618.125
361.752	17.057	816.386	617.495
362.767	17.235	815.801	617.645
363.781	17.271	815.084	617.179
364.796	17.455	814.640	617.453
365.810	17.357	814.370	616.838
366.825	17.363	814.202	616.679
367.840	17.281	813.676	615.929
368.854	17.275	813.447	615.679
369.869	17.395	812.528	615.362
370.883	17.450	812.387	615.400
371.898	17.475	811.969	615.122
372.913	17.509	811.662	614.956
373.927	17.440	811.034	614.178
374.942	17.494	810.682	614.050
375.956	17.646	810.196	614.178
376.971	17.572	809.843	613.588
377.986	17.737	809.235	613.667
379.000	17.718	808.680	613.123
380.015	17.532	808.059	611.930
381.029	17.806	807.631	612.537
382.044	17.692	807.048	611.630
383.059	17.715	806.481	611.229
384.073	17.683	805.813	610.552
385.088	17.556	805.263	609.627
386.102	17.553	804.758	609.181
387.117	17.566	804.257	608.795
388.132	17.607	803.789	608.535
389.146	17.705	802.814	608.089
390.161	17.775	802.577	608.107
391.175	17.689	802.167	607.437
392.190	17.881	801.565	607.611
393.205	17.743	801.152	606.754
394.219	17.547	801.024	605.906
395.234	17.635	800.366	605.665
396.248	17.613	799.719	605.045
397.263	17.579	799.718	604.870
398.278	17.588	799.014	604.316
399.292	17.699	798.799	604.493
400.307	17.602	797.933	603.441
401.321	17.599	797.565	603.099
402.336	17.491	797.587	602.679
403.350	17.801	796.586	602.965
404.365	17.805	796.434	602.813
405.380	17.872	795.933	602.615
406.394	17.931	795.493	602.435
407.409	17.970	795.142	602.255
408.423	18.084	794.879	602.406
409.438	18.163	794.531	602.365
410.453	18.034	794.119	601.544
411.467	18.021	793.899	601.281
412.482	18.174	793.427	601.408
413.496	18.208	792.967	601.125
414.511	18.231	792.516	600.810
415.526	18.187	791.824	600.080
416.540	18.041	791.735	599.447
417.555	18.136	791.184	599.311
418.569	18.202	790.686	599.110
419.584	18.252	790.396	599.014
420.599	18.216	789.764	598.353
421.613	156.301	1370.179	1794.824
422.628	135.182	1454.750	1794.900
