DTS Sentinel unit serial number:	SN413079Multiplexer serial number:	ORYXHardware model number:	OX4-SRSoftware version number:	ORYX F/W v4.00 Oryx Data Collector v3.7.2.0data status	okinstallation	princeton_trtdifferential loss correction	single-endedforward channel	channel 1reverse channel	N/Adate	2019/09/12time	00:12:11forward acquisition time	60.00reverse acquisition time	0.00gamma	496.2192k internal	0.2318k external	0.2318temperature offset calibration	1.0075default loss term (dB/km)	0.3790temperature slope calibration	1.0000multiplexer offset coefficient	1.0000multiplexer slope coefficient	1.0000fibre end	0.00T internal ref (°C)	33.62T ext. ref 1 (°C)	2.02T ext. ref 2 (°C)	28.26length (m)	temperature (°C)	Stokes	anti-Stokes-747.200	38.435	0.218	0.197
-746.185	-200.000	-0.089	0.498
-745.171	-70.964	-0.224	0.085
-744.156	296.547	-0.034	-0.063
-743.142	-54.048	-0.147	0.068
-742.127	-200.000	0.089	0.602
-741.112	-112.159	-0.277	0.056
-740.098	-200.000	0.036	0.309
-739.083	800.000	-0.025	0.086
-738.069	80.705	-0.163	0.178
-737.054	212.031	-0.018	0.029
-736.039	0.459	-0.375	0.271
-735.025	14.695	0.108	-0.086
-734.010	544.194	0.094	-0.226
-732.996	-81.205	-0.147	-0.049
-731.981	-91.064	-0.137	0.040
-730.966	-61.635	-0.326	-0.139
-729.952	279.550	-0.102	0.184
-728.937	-200.000	0.001	0.087
-727.923	-200.000	-0.028	-0.393
-726.908	162.373	-0.167	-0.237
-725.894	59.735	-0.178	0.177
-724.879	221.706	0.194	0.316
-723.864	-90.086	0.059	-0.017
-722.850	114.825	0.024	0.030
-721.835	-187.449	0.277	-0.004
-720.821	-7.780	0.175	0.119
-719.806	-105.040	-0.129	0.030
-718.791	80.114	-0.111	-0.120
-717.777	86.357	-0.391	-0.435
-716.762	92.208	-0.062	-0.071
-715.748	202.960	-0.153	-0.239
-714.733	14.583	-0.310	-0.245
-713.718	15.315	-0.292	-0.232
-712.704	-200.000	0.001	-0.022
-711.689	476.311	0.101	0.231
-710.675	716.299	-0.020	-0.053
-709.660	322.893	-0.036	0.069
-708.645	-200.000	0.015	-0.174
-707.631	-21.323	0.136	-0.084
-706.616	-28.202	0.069	-0.040
-705.602	-149.955	-0.272	0.021
-704.587	800.000	0.085	-0.374
-703.572	-97.807	-0.052	-0.014
-702.558	-63.878	-0.144	0.060
-701.543	-70.094	0.222	-0.085
-700.529	125.099	0.180	-0.229
-699.514	29.805	0.343	-0.295
-698.499	-136.865	-0.217	0.025
-697.485	31.864	0.068	-0.059
-696.470	9.038	0.165	0.126
-695.456	193.406	-0.090	0.138
-694.441	86.213	0.094	-0.105
-693.426	327.167	0.081	0.156
-692.412	-126.189	0.162	0.024
-691.397	233.990	-0.246	-0.409
-690.383	672.217	-0.150	-0.393
-689.368	-46.482	-0.312	-0.154
-688.354	-200.000	0.027	0.202
-687.339	-70.457	-0.186	0.071
-686.324	-58.049	0.226	0.099
-685.310	-150.420	0.315	0.024
-684.295	-200.000	-0.035	-0.214
-683.281	-35.525	-0.252	-0.138
-682.266	-200.000	-0.003	-0.285
-681.251	249.675	0.008	-0.013
-680.237	-37.248	-0.071	-0.038
-679.222	-132.659	-0.049	0.006
-678.208	-200.000	0.022	-0.137
-677.193	20.919	0.096	0.079
-676.178	800.000	0.063	0.210
-675.164	241.933	-0.040	-0.067
-674.149	782.922	0.131	0.363
-673.135	-101.123	0.176	0.043
-672.120	-185.474	-0.222	-0.003
-671.105	38.363	-0.188	-0.169
-670.091	49.250	-0.121	-0.115
-669.076	-57.432	0.212	0.094
-668.062	-95.477	-0.189	0.051
-667.047	-52.489	-0.331	-0.155
-666.032	-142.678	-0.235	0.023
-665.018	0.407	-0.190	0.137
-664.003	-85.269	0.244	0.077
-662.989	-200.000	0.002	0.052
-661.974	-125.725	-0.112	-0.017
-660.959	-38.573	0.051	0.027
-659.945	79.473	0.127	-0.137
-658.930	13.464	-0.185	0.144
-657.916	-15.890	-0.176	0.113
-656.901	800.000	0.047	-0.196
-655.886	800.000	0.073	-0.214
-654.872	103.864	-0.221	-0.262
-653.857	-200.000	-0.015	-0.243
-652.843	800.000	0.044	-0.173
-651.828	-67.327	0.445	-0.176
-650.814	102.899	-0.040	0.047
-649.799	-200.000	0.017	-0.088
-648.784	-200.000	0.021	0.142
-647.770	387.900	0.075	-0.157
-646.755	800.000	0.096	-0.386
-645.741	800.000	0.058	0.190
-644.726	-15.016	0.113	0.073
-643.711	251.221	-0.123	0.211
-642.697	22.323	-0.210	0.173
-641.682	0.115	-0.393	0.283
-640.668	-82.974	-0.314	0.102
-639.653	-76.300	-0.100	0.035
-638.638	800.000	0.023	-0.081
-637.624	-22.566	0.360	0.219
-636.609	-119.026	-0.115	-0.020
-635.595	144.396	0.056	-0.075
-634.580	-55.959	0.144	-0.065
-633.565	575.720	0.127	-0.313
-632.551	53.995	0.146	0.142
-631.536	-200.000	-0.009	0.139
-630.522	-103.589	-0.249	0.059
-629.507	-200.000	0.004	-0.062
-628.492	290.935	0.229	0.420
-627.478	18.051	0.182	-0.146
-626.463	-136.256	-0.352	-0.041
-625.449	-70.982	0.187	0.071
-624.434	-200.000	-0.060	0.280
-623.419	511.092	-0.104	-0.243
-622.405	39.949	-0.052	0.047
-621.390	-200.000	-0.010	0.112
-620.376	800.000	-0.090	-0.308
-619.361	197.248	-0.185	-0.285
-618.346	-200.000	-0.050	-0.253
-617.332	11.829	0.122	0.094
-616.317	-63.975	0.117	0.048
-615.303	-200.000	0.033	0.224
-614.288	158.525	-0.167	-0.234
-613.273	63.196	0.117	0.118
-612.259	-200.000	0.282	0.001
-611.244	-21.765	0.325	0.199
-610.230	-200.000	-0.052	-0.234
-609.215	-36.261	-0.104	-0.056
-608.201	-139.991	0.288	-0.031
-607.186	-200.000	0.038	-0.187
-606.171	-184.542	-0.343	0.006
-605.157	-172.833	-0.326	0.010
-604.142	-136.751	-0.187	0.022
-603.128	-106.398	-0.131	0.029
-602.113	39.178	-0.108	0.097
-601.098	91.379	0.089	-0.101
-600.084	-200.000	0.011	0.165
-599.069	95.982	-0.084	0.097
-598.055	-51.253	-0.215	0.101
-597.040	315.246	0.197	0.374
-596.025	-109.397	-0.363	-0.077
-595.011	139.315	-0.058	0.076
-593.996	-177.640	0.300	-0.007
-592.982	64.568	0.231	0.235
-591.967	-200.000	0.006	0.181
-590.952	281.742	0.188	-0.339
-589.938	144.035	-0.419	-0.562
-588.923	79.530	-0.197	-0.213
-587.909	9.156	-0.098	0.074
-586.894	-200.000	-0.098	0.477
-585.879	-76.999	0.435	-0.153
-584.865	20.474	-0.046	-0.037
-583.850	223.907	-0.136	-0.221
-582.836	31.533	0.151	-0.131
-581.821	55.491	-0.098	0.095
-580.806	800.000	-0.062	0.198
-579.792	-200.000	0.016	-0.226
-578.777	-55.898	-0.342	0.153
-577.763	28.964	-0.224	0.191
-576.748	589.139	-0.077	0.190
-575.733	276.833	-0.316	0.565
-574.719	-96.825	0.154	-0.041
-573.704	64.924	-0.249	-0.253
-572.690	162.416	-0.060	0.085
-571.675	-162.847	-0.190	0.009
-570.661	-156.764	0.283	0.018
-569.646	-200.000	-0.090	-0.441
-568.631	-107.859	-0.222	-0.049
-567.617	131.807	-0.037	0.047
-566.602	373.928	-0.036	-0.074
-565.588	-200.000	-0.013	-0.208
-564.573	14.014	0.046	-0.036
-563.558	-200.000	-0.004	0.038
-562.544	284.783	0.075	-0.136
-561.529	-200.000	0.231	0.000
-560.515	214.497	-0.057	-0.091
-559.500	800.000	-0.054	-0.226
-558.485	30.351	0.102	0.087
-557.471	-53.205	-0.234	0.108
-556.456	57.074	0.173	-0.169
-555.442	11.916	0.219	0.169
-554.427	-31.580	-0.355	0.200
-553.412	-182.612	0.229	-0.004
-552.398	89.336	0.170	0.191
-551.383	800.000	-0.099	0.342
-550.369	-1.427	-0.202	-0.143
-549.354	-200.000	0.004	-0.199
-548.339	27.461	0.160	0.135
-547.325	56.041	0.151	0.148
-546.310	172.696	0.127	0.183
-545.296	-10.396	0.214	-0.142
-544.281	60.724	0.063	0.062
-543.266	581.269	-0.047	-0.116
-542.252	194.478	-0.122	0.186
-541.237	119.255	-0.275	-0.342
-540.223	-200.000	-0.053	-0.377
-539.208	-61.473	0.051	-0.022
-538.193	-122.027	0.134	-0.022
-537.179	-10.252	0.027	0.018
-536.164	-70.803	-0.160	0.061
-535.150	-16.843	-0.185	0.117
-534.135	-79.711	0.095	-0.032
-533.121	94.432	-0.142	-0.162
-532.106	14.279	-0.156	0.122
-531.091	150.817	-0.237	0.323
-530.077	334.288	-0.142	-0.276
-529.062	-85.894	0.185	-0.057
-528.048	-178.241	-0.045	-0.001
-527.033	128.010	-0.183	-0.234
-526.018	800.000	-0.024	-0.091
-525.004	86.073	0.235	-0.260
-523.989	-133.869	-0.081	-0.010
-522.975	35.203	-0.054	-0.048
-521.960	-52.546	0.312	0.145
-520.945	-75.887	-0.173	-0.062
-519.931	192.530	0.127	-0.192
-518.916	-200.000	-0.023	-0.137
-517.902	-200.000	0.010	-0.177
-516.887	-7.283	0.180	-0.122
-515.872	26.059	0.209	-0.175
-514.858	-119.226	0.173	0.030
-513.843	121.661	0.113	0.142
-512.829	800.000	0.088	0.253
-511.814	-57.768	-0.489	0.215
-510.799	-28.119	0.189	0.110
-509.785	59.485	-0.191	-0.189
-508.770	-200.000	-0.020	-0.457
-507.756	142.086	0.282	-0.375
-506.741	-200.000	0.023	-0.153
-505.726	800.000	0.044	-0.133
-504.712	-122.448	-0.203	-0.033
-503.697	97.657	0.123	0.142
-502.683	800.000	0.125	-0.392
-501.668	-15.925	0.252	-0.161
-500.653	-77.777	0.270	0.094
-499.639	77.299	0.097	0.103
-498.624	191.007	0.041	0.062
-497.610	-200.000	-0.001	0.040
-496.595	-107.895	-0.126	0.027
-495.581	142.042	0.102	0.135
-494.566	135.869	0.080	0.105
-493.551	52.997	0.151	-0.145
-492.537	-129.444	0.390	0.054
-491.522	-51.518	0.184	-0.086
-490.508	800.000	0.031	-0.087
-489.493	24.073	0.039	0.032
-488.478	208.833	0.172	0.270
-487.464	-59.718	0.147	0.063
-486.449	-22.183	0.298	-0.181
-485.435	-83.833	-0.270	0.086
-484.420	208.055	-0.168	-0.262
-483.405	800.000	0.102	-0.411
-482.391	-164.208	-0.136	-0.006
-481.376	388.446	0.067	0.139
-480.362	209.188	-0.051	0.079
-479.347	-57.074	0.275	0.122
-478.332	-149.945	0.214	0.017
-477.318	-200.000	-0.034	-0.345
-476.303	5.838	0.098	-0.073
-475.289	551.012	-0.055	0.133
-474.274	129.638	0.189	0.242
-473.259	233.541	0.038	-0.062
-472.245	292.794	0.070	-0.128
-471.230	-200.000	0.009	-0.147
-470.216	-200.000	-0.006	-0.121
-469.201	-42.452	0.191	0.098
-468.186	22.636	-0.094	0.077
-467.172	-200.000	-0.005	-0.182
-466.157	184.496	-0.207	0.307
-465.143	800.000	-0.033	0.126
-464.128	-103.154	-0.482	-0.114
-463.113	-200.000	0.064	-0.409
-462.099	800.000	0.046	0.144
-461.084	-154.765	0.141	0.009
-460.070	-99.103	-0.164	-0.042
-459.055	94.775	-0.093	0.106
-458.040	443.192	0.080	0.176
-457.026	-96.704	0.202	0.053
-456.011	-129.101	-0.289	-0.040
-454.997	-184.662	-0.139	-0.002
-453.982	-85.539	0.055	0.017
-452.968	41.923	-0.046	-0.042
-451.953	101.647	-0.106	0.123
-450.938	96.442	-0.220	-0.251
-449.924	-51.628	0.223	-0.104
-448.909	-117.439	-0.056	-0.010
-447.895	120.358	-0.037	-0.047
-446.880	-20.777	0.070	0.043
-445.865	-37.335	0.179	-0.096
-444.851	-32.902	-0.188	0.105
-443.836	45.451	0.151	0.139
-442.822	-200.000	0.039	0.347
-441.807	329.663	-0.013	0.025
-440.792	23.402	0.254	-0.208
-439.778	-76.226	0.433	-0.153
-438.763	2.268	0.266	-0.192
-437.749	36.185	0.228	0.201
-436.734	800.000	-0.087	-0.255
-435.719	-76.081	0.295	-0.104
-434.705	-155.952	-0.349	-0.022
-433.690	-200.000	-0.013	-0.183
-432.676	391.881	0.031	0.064
-431.661	617.209	-0.079	0.199
-430.646	507.582	0.039	0.092
-429.632	47.394	-0.155	0.144
-428.617	83.239	0.044	-0.048
-427.603	-200.000	-0.072	0.388
-426.588	172.718	-0.132	0.189
-425.573	253.210	0.057	-0.097
-424.559	144.815	-0.306	-0.409
-423.544	-200.000	0.031	-0.150
-422.530	167.787	0.078	-0.110
-421.515	-150.715	-0.105	0.008
-420.500	-119.386	0.221	-0.038
-419.486	220.371	0.134	0.214
-418.471	-178.832	-0.275	-0.006
-417.457	-143.154	-0.052	0.005
-416.442	100.506	0.312	0.362
-415.428	-200.000	0.004	0.112
-414.413	-132.004	-0.139	0.018
-413.398	18.479	0.166	0.132
-412.384	-154.338	-0.433	0.029
-411.369	800.000	-0.111	0.332
-410.355	-84.432	-0.215	-0.068
-409.340	800.000	0.069	-0.249
-408.325	-62.947	0.078	0.032
-407.311	97.271	0.153	-0.175
-406.296	-196.163	-0.215	-0.001
-405.282	233.149	-0.213	-0.350
-404.267	800.000	0.131	0.406
-403.252	85.122	0.115	0.126
-402.238	-200.000	0.009	0.072
-401.223	-31.266	0.123	0.069
-400.209	543.907	0.156	-0.372
-399.194	-32.790	-0.149	-0.083
-398.179	214.556	0.172	0.271
-397.165	-200.000	0.070	0.576
-396.150	-84.643	0.210	-0.066
-395.136	800.000	-0.062	0.180
-394.121	23.849	-0.249	-0.205
-393.106	-200.000	0.021	0.237
-392.092	-101.470	0.059	0.014
-391.077	-71.353	0.153	0.057
-390.063	56.594	0.021	0.020
-389.048	-200.000	-0.062	-0.344
-388.033	547.445	0.102	0.243
-387.019	26.019	-0.100	-0.083
-386.004	800.000	0.062	-0.189
-384.990	-200.000	0.024	0.108
-383.975	800.000	0.024	-0.084
-382.960	585.728	0.084	0.207
-381.946	4.470	-0.237	-0.174
-380.931	-44.980	0.139	-0.069
-379.917	87.467	0.098	0.109
-378.902	505.970	-0.090	-0.208
-377.888	-172.772	0.119	0.004
-376.873	-38.665	0.030	-0.016
-375.858	23.968	0.135	-0.111
-374.844	800.000	-0.085	-0.235
-373.829	-200.000	0.046	-0.290
-372.815	-200.000	0.016	0.186
-371.800	800.000	-0.047	0.145
-370.785	-163.371	-0.191	-0.009
-369.771	-62.908	0.064	0.026
-368.756	-50.511	0.144	0.068
-367.742	-87.848	0.202	0.061
-366.727	800.000	0.047	-0.168
-365.712	-27.923	-0.180	0.104
-364.698	-67.971	0.163	-0.063
-363.683	-79.637	-0.173	-0.058
-362.669	54.199	0.038	-0.037
-361.654	-137.745	0.313	0.035
-360.639	-200.000	0.014	-0.216
-359.625	-200.000	0.009	0.361
-358.610	800.000	0.047	0.176
-357.596	-111.125	0.194	0.040
-356.581	-131.538	0.239	-0.031
-355.566	532.450	-0.013	0.030
-354.552	-5.235	-0.053	0.036
-353.537	800.000	0.058	-0.237
-352.523	763.186	-0.078	0.210
-351.508	-200.000	0.006	0.158
-350.493	-152.895	0.108	-0.008
-349.479	86.412	-0.146	0.161
-348.464	96.996	-0.153	-0.175
-347.450	62.002	-0.151	-0.150
-346.435	127.094	0.361	-0.457
-345.420	800.000	-0.111	-0.317
-344.406	-117.315	0.272	0.049
-343.391	-171.893	0.059	0.002
-342.377	-200.000	-0.004	-0.095
-341.362	-65.859	-0.215	-0.086
-340.348	586.659	-0.172	-0.422
-339.333	131.668	-0.102	-0.131
-338.318	38.329	0.042	0.037
-337.304	-62.762	0.167	0.069
-336.289	80.653	0.152	0.163
-335.275	563.478	-0.111	-0.268
-334.260	93.191	-0.081	0.091
-333.245	35.614	0.167	0.146
-332.231	-200.000	-0.004	0.082
-331.216	-26.708	-0.093	-0.054
-330.202	-200.000	0.001	-0.150
-329.187	-50.567	-0.076	0.035
-328.172	800.000	-0.079	-0.238
-327.158	728.922	0.090	0.238
-326.143	436.097	-0.060	-0.131
-325.129	-200.000	-0.002	0.120
-324.114	398.554	0.069	-0.144
-323.099	-135.645	-0.121	0.014
-322.085	321.587	0.146	-0.277
-321.070	-200.000	-0.014	0.094
-320.056	-31.942	0.146	0.081
-319.041	35.601	-0.179	0.157
-318.026	56.480	0.161	0.156
-317.012	-184.563	0.277	-0.004
-315.997	-200.000	0.029	-0.215
-314.983	-92.119	-0.149	-0.042
-313.968	-116.372	-0.364	0.067
-312.953	96.717	0.296	-0.337
-311.939	98.110	-0.259	0.296
-310.924	-200.000	0.024	-0.124
-309.910	-200.000	-0.027	-0.165
-308.895	800.000	0.038	0.136
-307.880	-145.865	-0.262	0.023
-306.866	-200.000	0.036	0.388
-305.851	-200.000	0.030	-0.133
-304.837	35.790	-0.200	0.175
-303.822	46.623	-0.163	-0.150
-302.807	-107.081	-0.096	-0.021
-301.793	52.011	-0.238	0.226
-300.778	249.783	-0.037	-0.062
-299.764	-200.000	0.096	0.487
-298.749	-175.439	-0.147	0.004
-297.735	800.000	0.103	0.422
-296.720	-115.280	0.342	-0.064
-295.705	-200.000	-0.021	-0.225
-294.691	800.000	0.087	0.244
-293.676	547.765	-0.101	0.240
-292.662	-125.328	0.177	-0.027
-291.647	800.000	-0.061	0.244
-290.632	7.732	-0.116	0.086
-289.618	89.169	0.055	0.061
-288.603	-61.397	0.535	-0.224
-287.589	80.720	0.167	-0.179
-286.574	39.221	-0.134	0.119
-285.559	705.261	-0.032	-0.083
-284.545	-134.821	-0.197	0.024
-283.530	-200.000	-0.100	-0.553
-282.516	-77.610	-0.101	-0.035
-281.501	-182.545	-0.116	-0.002
-280.486	-200.000	0.008	0.162
-279.472	800.000	-0.094	0.322
-278.457	-122.237	0.364	0.059
-277.443	-28.826	0.467	-0.267
-276.428	34.458	0.160	0.139
-275.413	-123.932	0.277	0.043
-274.399	45.570	0.247	0.226
-273.384	800.000	-0.037	0.125
-272.370	-200.000	-0.040	-0.204
-271.355	800.000	0.119	0.363
-270.340	-44.358	-0.412	-0.205
-269.326	-4.938	0.201	-0.138
-268.311	601.096	-0.097	-0.239
-267.297	471.397	-0.042	0.095
-266.282	-200.000	-0.019	-0.256
-265.267	-166.921	0.019	-0.001
-264.253	602.386	-0.086	-0.211
-263.238	-57.645	-0.036	0.016
-262.224	-167.852	-0.361	0.014
-261.209	-200.000	0.059	0.436
-260.195	-8.423	-0.266	0.177
-259.180	2.829	0.086	0.062
-258.165	-110.710	0.151	0.031
-257.151	800.000	-0.025	-0.095
-256.136	-82.963	0.205	-0.066
-255.122	344.703	0.182	-0.354
-254.107	576.818	-0.059	-0.144
-253.092	800.000	0.046	0.164
-252.078	-82.800	-0.201	-0.064
-251.063	-146.323	-0.255	-0.022
-250.049	-200.000	-0.050	0.295
-249.034	10.283	0.142	0.108
-248.019	237.125	0.248	-0.408
-247.005	-17.179	-0.205	0.128
-245.990	8.212	0.101	-0.075
-244.976	-135.256	-0.202	0.024
-243.961	317.200	0.100	-0.188
-242.946	30.257	-0.088	-0.075
-241.932	-76.150	0.111	0.039
-240.917	171.590	0.183	0.260
-239.903	76.897	0.095	-0.100
-238.888	-12.125	-0.335	0.218
-237.873	293.683	0.137	-0.248
-236.859	-17.159	-0.183	-0.114
-235.844	31.345	0.118	-0.101
-234.830	-92.468	0.246	0.069
-233.815	800.000	-0.031	0.115
-232.800	-200.000	-0.033	0.405
-231.786	178.894	-0.138	-0.200
-230.771	-79.812	-0.075	-0.025
-229.757	-3.436	-0.214	-0.148
-228.742	30.588	-0.110	-0.094
-227.727	-154.586	0.366	0.024
-226.713	386.935	-0.218	-0.447
-225.698	49.967	-0.170	-0.159
-224.684	-154.507	0.256	-0.017
-223.669	24.954	0.077	-0.063
-222.655	-110.725	-0.274	0.056
-221.640	123.937	-0.118	-0.147
-220.625	-200.000	0.012	0.089
-219.611	93.680	-0.099	-0.111
-218.596	129.440	0.062	0.078
-217.582	-67.513	-0.074	-0.029
-216.567	800.000	-0.036	-0.146
-215.552	-200.000	-0.026	0.118
-214.538	205.505	0.219	0.337
-213.523	-200.000	-0.030	-0.142
-212.509	181.004	0.243	-0.354
-211.494	-12.265	0.230	0.149
-210.479	-60.718	-0.318	0.134
-209.465	218.082	0.157	-0.248
-208.450	-200.000	0.013	-0.112
-207.436	-162.179	-0.185	0.009
-206.421	541.378	0.081	0.192
-205.406	-77.346	-0.197	0.068
-204.392	-200.000	-0.034	0.296
-203.377	152.316	0.031	0.042
-202.363	-161.752	0.380	-0.019
-201.348	-200.000	0.018	0.136
-200.333	800.000	-0.145	-0.416
-199.319	800.000	-0.038	-0.137
-198.304	-55.239	0.217	-0.097
-197.290	-59.122	-0.335	0.143
-196.275	-200.000	-0.003	0.188
-195.260	-71.435	0.168	0.062
-194.246	-82.758	-0.125	0.040
-193.231	234.005	-0.153	-0.249
-192.217	-200.000	-0.010	-0.219
-191.202	800.000	0.033	0.091
-190.187	-161.932	-0.223	-0.011
-189.173	-178.012	-0.226	0.005
-188.158	-11.612	-0.371	0.242
-187.144	88.432	-0.068	0.075
-186.129	-200.000	-0.071	0.323
-185.114	91.753	-0.159	0.178
-184.100	-82.260	-0.198	0.064
-183.085	301.624	-0.222	0.406
-182.071	-37.118	0.454	0.240
-181.056	-38.160	0.012	0.006
-180.042	-200.000	-0.008	0.169
-179.027	800.000	-0.059	0.214
-178.012	-115.261	-0.314	-0.059
-176.998	66.713	0.042	0.042
-175.983	-79.074	0.192	0.065
-174.969	31.933	-0.330	0.282
-173.954	-21.978	0.051	-0.031
-172.939	37.739	-0.268	-0.236
-171.925	-77.624	0.404	-0.138
-170.910	-200.000	-0.051	0.340
-169.896	-22.220	0.141	-0.085
-168.881	484.961	-0.045	0.100
-167.866	-200.000	-0.026	-0.203
-166.852	16.661	0.149	0.117
-165.837	-40.047	0.168	0.087
-164.823	14.815	-0.136	0.105
-163.808	-200.000	-0.032	-0.178
-162.793	116.099	0.150	0.181
-161.779	-74.034	-0.582	0.209
-160.764	16.736	-0.033	-0.026
-159.750	-109.542	0.267	-0.056
-158.735	124.648	-0.067	0.083
-157.720	-98.995	0.153	-0.038
-156.706	800.000	-0.052	0.175
-155.691	163.722	0.037	-0.052
-154.677	800.000	0.034	-0.097
-153.662	200.808	-0.078	-0.119
-152.647	-33.319	-0.193	0.106
-151.633	-22.491	-0.128	0.077
-150.618	108.407	-0.093	-0.110
-149.604	-61.673	0.405	0.168
-148.589	800.000	-0.050	-0.151
-147.574	-141.088	-0.209	-0.021
-146.560	-184.480	-0.250	-0.004
-145.545	-109.699	0.261	-0.054
-144.531	0.715	0.226	-0.160
-143.516	68.161	-0.199	-0.202
-142.502	-125.866	0.152	0.023
-141.487	-200.000	-0.007	-0.370
-140.472	321.101	0.071	-0.133
-139.458	-87.031	-0.238	0.072
-138.443	134.330	-0.055	-0.070
-137.429	11.492	-0.106	-0.081
-136.414	172.309	-0.031	0.045
-135.399	230.500	0.152	0.246
-134.385	55.030	0.202	0.193
-133.370	-68.980	-0.215	0.082
-132.356	121.778	-0.121	-0.149
-131.341	-40.130	-0.208	0.107
-130.326	210.277	0.159	0.247
-129.312	800.000	-0.136	-0.373
-128.297	42.059	-0.152	-0.136
-127.283	-61.383	-0.244	-0.101
-126.268	-122.445	0.171	-0.027
-125.253	441.544	-0.063	-0.137
-124.239	78.341	-0.356	-0.375
-123.224	800.000	-0.099	-0.321
-122.210	-30.708	0.132	0.074
-121.195	-63.593	-0.111	-0.045
-120.180	524.249	-0.085	-0.197
-119.166	79.013	0.368	0.389
-118.151	200.172	-0.163	-0.247
-117.137	-17.964	-0.234	-0.145
-116.122	-132.023	0.134	-0.017
-115.107	-200.000	0.001	-0.231
-114.093	0.822	0.104	0.073
-113.078	67.748	-0.057	0.058
-112.064	-141.402	0.068	0.007
-111.049	86.892	0.096	0.104
-110.034	-129.439	0.244	0.033
-109.020	136.321	-0.280	-0.360
-108.005	-135.285	0.172	0.020
-106.991	144.504	0.051	0.068
-105.976	354.029	0.085	-0.167
-104.962	-113.493	0.230	-0.044
-103.947	55.638	-0.293	-0.280
-102.932	800.000	-0.097	-0.339
-101.918	162.693	-0.121	-0.168
-100.903	800.000	0.066	0.196
-99.889	-200.000	0.063	-0.308
-98.874	-36.362	-0.183	-0.097
-97.859	219.345	0.033	-0.053
-96.845	-97.394	0.084	-0.022
-95.830	-200.000	0.019	-0.151
-94.816	122.840	-0.148	0.182
-93.801	800.000	-0.080	0.317
-92.786	113.594	0.105	-0.126
-91.772	-60.949	0.242	-0.101
-90.757	-200.000	-0.016	0.301
-89.743	-133.489	0.128	0.016
-88.728	-191.722	-0.117	0.001
-87.713	-149.923	-0.362	0.028
-86.699	-200.000	-0.010	0.280
-85.684	-61.726	-0.204	-0.084
-84.670	-160.859	-0.212	-0.011
-83.655	117.255	0.244	-0.296
-82.640	-200.000	0.024	0.115
-81.626	230.089	0.172	-0.278
-80.611	-94.909	0.082	-0.022
-79.597	10.171	0.302	0.226
-78.582	-16.638	-0.197	0.123
-77.567	24.043	0.230	0.187
-76.553	800.000	-0.116	-0.336
-75.538	93.706	0.136	0.152
-74.524	-99.358	-0.161	0.040
-73.509	414.039	-0.129	-0.271
-72.494	-106.131	0.280	0.062
-71.480	148.765	-0.058	0.077
-70.465	-42.694	-0.114	0.057
-69.451	-62.836	-0.303	-0.124
-68.436	-146.835	-0.306	-0.026
-67.422	467.344	-0.143	0.315
-66.407	152.477	-0.064	-0.086
-65.392	-47.589	-0.130	-0.062
-64.378	233.834	-0.054	0.087
-63.363	-200.000	-0.027	-0.118
-62.349	53.032	-0.147	0.139
-61.334	195.029	-0.627	-0.938
-60.319	310.206	0.184	0.340
-59.305	-200.000	-0.164	-0.725
-58.290	800.000	0.277	0.973
-57.276	304.674	0.753	1.377
-56.261	-200.000	96.772	580.157
-55.246	543.869	1388.933	3265.661
-54.232	156.065	2576.480	3499.272
-53.217	111.873	2150.174	2557.285
-52.203	45.001	1609.078	1459.541
-51.188	37.041	1346.690	1173.566
-50.173	33.794	1304.957	1118.071
-49.159	56.504	1351.683	1294.493
-48.144	58.765	1369.320	1324.848
-47.130	37.257	1326.772	1157.312
-46.115	33.832	1309.077	1121.647
-45.100	33.657	1304.389	1116.557
-44.086	33.495	1302.256	1113.738
-43.071	33.367	1300.169	1111.158
-42.057	33.439	1297.426	1109.190
-41.042	33.588	1295.686	1108.527
-40.027	33.579	1294.587	1107.492
-39.013	33.586	1292.120	1105.380
-37.998	33.502	1290.950	1103.843
-36.984	33.521	1289.599	1102.754
-35.969	33.634	1287.857	1101.880
-34.954	33.808	1285.704	1101.002
-33.940	33.617	1284.735	1099.021
-32.925	33.609	1283.683	1098.031
-31.911	33.719	1281.948	1097.143
-30.896	33.692	1280.498	1095.703
-29.881	33.641	1279.269	1094.309
-28.867	33.826	1277.504	1093.826
-27.852	33.704	1276.214	1091.976
-26.838	33.701	1274.922	1090.808
-25.823	33.823	1272.974	1089.800
-24.809	33.734	1272.088	1088.486
-23.794	33.709	1270.698	1087.109
-22.779	33.793	1269.251	1086.308
-21.765	33.814	1267.792	1085.140
-20.750	33.755	1266.858	1083.961
-19.736	33.580	1265.901	1082.095
-18.721	33.530	1264.545	1080.612
-17.706	33.591	1263.297	1079.847
-16.692	33.520	1262.136	1078.411
-15.677	33.616	1261.318	1078.216
-14.663	33.599	1260.178	1077.100
-13.648	33.562	1259.412	1076.194
-12.633	33.562	1258.202	1075.114
-11.619	33.542	1257.147	1074.058
-10.604	33.488	1256.788	1073.403
-9.590	33.578	1255.516	1072.784
-8.575	33.579	1254.314	1071.718
-7.560	33.463	1253.769	1070.554
-6.546	33.586	1252.770	1070.353
-5.531	33.505	1251.903	1069.116
-4.517	33.588	1250.789	1068.588
-3.502	33.682	1249.901	1068.314
-2.487	33.544	1249.556	1067.201
-1.473	33.486	1245.455	1063.334
-0.458	32.263	1230.378	1043.636
0.556	29.194	1212.452	1005.564
1.571	25.638	1218.552	990.987
2.586	24.762	1234.175	998.716
3.600	24.418	1223.836	988.353
4.615	18.162	1150.615	896.456
5.629	7.296	1072.556	782.199
6.644	2.417	1051.041	742.802
7.659	1.929	1048.285	738.424
8.673	1.862	1047.038	737.156
9.688	1.874	1045.477	736.054
10.702	2.553	1043.994	738.215
11.717	9.226	1054.299	777.826
12.731	19.473	1068.807	838.502
13.746	24.394	1074.316	866.719
14.761	25.114	1075.208	870.862
15.775	25.159	1074.592	870.506
16.790	24.902	1073.943	868.653
17.804	24.925	1073.308	868.175
18.819	25.020	1072.892	868.225
19.834	25.151	1072.551	868.503
20.848	25.212	1071.866	868.168
21.863	25.131	1071.758	867.610
22.877	24.985	1071.118	866.310
23.892	24.975	1070.260	865.491
24.907	25.063	1069.445	865.180
25.921	25.086	1068.319	864.308
26.936	24.985	1067.384	862.984
27.950	24.883	1065.768	861.111
28.965	24.897	1063.517	859.282
29.980	24.948	1062.198	858.387
30.994	25.107	1061.505	858.513
32.009	25.118	1060.157	857.397
33.023	24.889	1059.164	855.428
34.038	24.941	1058.656	855.189
35.053	25.186	1057.564	855.400
36.067	25.027	1057.239	854.302
37.082	25.194	1056.352	854.306
38.096	25.315	1055.505	854.120
39.111	25.414	1054.915	854.039
40.126	25.307	1053.630	852.414
41.140	24.792	1052.152	848.700
42.155	24.698	1050.608	846.935
43.169	24.765	1049.397	846.199
44.184	24.832	1048.803	845.966
45.199	24.662	1048.206	844.602
46.213	24.667	1046.984	843.567
47.228	25.003	1046.418	844.621
48.242	25.041	1045.370	843.880
49.257	25.091	1044.803	843.583
50.271	25.224	1043.884	843.392
51.286	25.251	1043.142	842.844
52.301	25.243	1042.280	842.035
53.315	25.183	1041.055	840.689
54.330	25.048	1040.540	839.571
55.344	25.049	1040.131	839.167
56.359	25.031	1038.928	838.040
57.374	24.892	1037.731	836.350
58.388	24.916	1037.099	835.881
59.403	24.757	1036.184	834.325
60.417	24.756	1035.144	833.410
61.432	24.870	1034.730	833.534
62.447	24.839	1034.697	833.289
63.461	25.015	1033.600	833.151
64.476	24.929	1032.302	831.632
65.490	24.697	1031.808	830.085
66.505	24.927	1030.726	830.205
67.520	24.873	1030.302	829.541
68.534	24.573	1029.227	827.214
69.549	24.397	1027.608	825.026
70.563	24.355	1027.224	824.451
71.578	24.398	1026.448	823.954
72.593	24.310	1025.450	822.673
73.607	24.401	1024.997	822.657
74.622	24.659	1024.573	823.432
75.636	24.673	1023.861	822.850
76.651	24.469	1022.867	821.040
77.666	24.406	1022.370	820.278
78.680	24.406	1022.003	819.914
79.695	24.642	1020.890	820.031
80.709	24.724	1020.000	819.619
81.724	24.823	1019.217	819.368
82.739	24.668	1018.948	818.370
83.753	25.207	1017.954	819.964
84.768	25.257	1017.829	820.023
85.782	25.485	1016.719	820.096
86.797	25.372	1015.795	818.760
87.812	25.213	1014.901	817.243
88.826	25.248	1014.003	816.606
89.841	25.334	1013.214	816.290
90.855	25.405	1012.131	815.669
91.870	25.406	1011.305	814.935
92.884	25.263	1009.989	813.156
93.899	25.142	1009.235	811.927
94.914	25.388	1008.496	812.374
95.928	25.204	1007.153	810.391
96.943	24.974	1005.941	808.305
97.957	24.778	1004.816	806.448
98.972	24.662	1003.802	805.038
99.987	24.779	1003.448	805.209
101.001	25.069	1002.415	805.614
102.016	25.151	1001.862	805.467
103.030	25.063	1000.814	804.156
104.045	24.892	999.601	802.346
105.060	24.604	998.867	800.396
106.074	24.922	998.192	801.208
107.089	25.145	997.908	801.906
108.103	25.087	996.712	800.614
109.118	24.715	995.671	798.047
110.133	24.891	994.542	797.859
111.147	24.739	993.060	795.922
112.162	24.514	992.285	794.227
113.176	24.730	991.615	794.581
114.191	24.679	990.841	793.667
115.206	24.272	989.920	791.052
116.220	24.319	989.281	790.681
117.235	24.677	988.006	791.176
118.249	24.594	987.085	789.999
119.264	24.503	986.586	789.131
120.279	24.501	986.149	788.701
121.293	24.560	985.311	788.222
122.308	24.476	984.579	787.197
123.322	24.435	983.467	786.056
124.337	24.362	981.998	784.492
125.352	23.815	980.185	780.574
126.366	23.721	979.727	779.726
127.381	24.510	979.500	782.937
128.395	25.053	978.918	784.780
129.410	25.069	978.245	784.243
130.424	25.027	977.548	783.429
131.439	25.051	976.742	782.821
132.454	25.046	975.601	781.812
133.468	25.002	974.645	780.787
134.483	25.143	973.680	780.561
135.497	25.202	973.176	780.344
136.512	25.187	972.690	779.819
137.527	25.233	972.002	779.397
138.541	25.383	971.077	779.237
139.556	25.299	970.155	778.064
140.570	25.454	969.406	778.066
141.585	25.420	968.216	776.894
142.600	25.265	967.263	775.392
143.614	25.526	966.931	776.187
144.629	25.679	965.846	775.907
145.643	25.446	964.567	773.806
146.658	25.315	963.025	771.937
147.673	25.267	962.029	770.864
148.687	25.155	960.887	769.402
149.702	24.988	959.993	767.901
150.716	24.995	959.464	767.442
151.731	25.134	958.775	767.418
152.746	25.477	958.014	768.206
153.760	25.488	957.679	767.918
154.775	25.539	956.778	767.342
155.789	25.493	956.533	766.881
156.804	25.414	955.218	765.423
157.819	25.435	954.734	765.056
158.833	25.781	953.924	765.812
159.848	25.556	952.825	763.905
160.862	25.374	951.642	762.120
161.877	25.382	950.996	761.566
162.892	25.600	949.725	761.406
163.906	25.480	948.472	759.825
164.921	25.472	947.630	759.051
165.935	25.642	946.409	758.724
166.950	25.470	946.350	757.884
167.964	25.396	945.400	756.742
168.979	25.365	943.869	755.320
169.994	25.275	942.885	754.089
171.008	25.406	942.921	754.599
172.023	25.578	941.894	754.432
173.037	25.285	940.958	752.390
174.052	25.247	939.890	751.310
175.067	25.223	939.064	750.481
176.081	25.374	938.501	750.595
177.096	25.308	937.914	749.784
178.110	24.919	937.218	747.539
179.125	24.799	936.402	746.323
180.140	24.970	936.040	746.679
181.154	25.041	935.737	746.668
182.169	25.271	935.672	747.506
183.183	25.605	934.845	748.172
184.198	25.422	934.439	747.020
185.213	25.381	933.413	745.964
186.227	25.519	932.797	745.974
187.242	25.408	932.090	744.887
188.256	25.455	931.791	744.776
189.271	25.558	930.687	744.253
190.286	25.217	929.496	741.825
191.300	24.641	927.906	738.111
192.315	23.937	926.357	733.909
193.329	23.691	926.445	732.901
194.344	24.698	926.719	737.207
195.359	25.462	926.645	740.230
196.373	25.448	926.548	740.033
197.388	25.216	925.784	738.401
198.402	25.387	924.749	738.211
199.417	25.405	924.078	737.686
200.432	25.063	923.514	735.765
201.446	24.898	922.746	734.415
202.461	25.007	921.502	733.805
203.475	24.093	920.278	729.023
204.490	23.463	918.612	725.064
205.504	24.324	918.801	728.668
206.519	24.913	919.110	731.257
207.534	24.995	918.749	731.239
208.548	25.348	918.623	732.516
209.563	25.122	917.638	730.742
210.577	25.222	916.337	730.049
211.592	25.462	917.387	731.800
212.607	25.524	915.659	730.608
213.621	25.665	914.891	730.504
214.636	25.518	914.639	729.640
215.650	25.504	913.893	728.922
216.665	25.534	913.303	728.508
217.680	25.557	912.161	727.630
218.694	25.119	911.082	724.932
219.709	24.965	910.421	723.721
220.723	25.186	910.188	724.365
221.738	25.332	909.444	724.297
222.753	25.403	908.961	724.135
223.767	25.499	908.450	724.048
224.782	25.699	908.205	724.597
225.796	25.652	907.727	723.961
226.811	25.000	906.560	720.347
227.826	24.302	904.910	716.169
228.840	24.481	904.770	716.711
229.855	24.498	903.720	715.887
230.869	24.300	902.579	714.124
231.884	24.720	902.769	715.896
232.899	25.348	902.682	718.276
233.913	25.139	902.489	717.221
234.928	25.219	901.679	716.834
235.942	25.280	901.097	716.553
236.957	24.968	900.063	714.421
237.972	24.942	899.659	713.934
238.986	25.000	899.079	713.643
240.001	24.937	898.655	712.992
241.015	25.093	898.098	713.108
242.030	25.346	897.420	713.512
243.045	25.436	897.154	713.596
244.059	25.704	896.391	713.988
245.074	25.280	895.347	711.410
246.088	25.052	894.182	709.521
247.103	25.273	894.383	710.494
248.117	25.899	894.248	712.800
249.132	26.091	893.597	712.977
250.147	26.198	893.405	713.181
251.161	26.238	892.968	712.930
252.176	26.226	892.532	712.469
253.190	26.329	891.828	712.250
254.205	26.378	891.353	712.001
255.220	26.431	890.598	711.545
256.234	26.265	889.940	710.303
257.249	26.031	889.424	708.909
258.263	26.122	888.784	708.693
259.278	26.338	888.170	708.987
260.293	26.106	887.904	707.804
261.307	26.380	886.247	707.490
262.322	26.055	885.691	705.715
263.336	25.311	883.627	701.103
264.351	24.443	881.692	696.121
265.366	24.413	881.916	696.119
266.380	25.311	882.708	700.189
267.395	25.826	882.583	702.033
268.409	25.650	882.033	700.850
269.424	26.017	880.885	701.304
270.439	26.015	880.775	701.145
271.453	26.118	879.907	700.790
272.468	26.361	879.792	701.581
273.482	26.425	879.018	701.152
274.497	25.925	877.572	698.001
275.512	25.546	876.585	695.689
276.526	26.004	876.684	697.473
277.541	26.043	876.731	697.602
278.555	25.788	875.903	695.894
279.570	25.798	874.651	694.877
280.585	25.773	874.561	694.649
281.599	25.995	873.341	694.475
282.614	25.437	872.189	691.351
283.628	25.206	872.191	690.401
284.643	25.690	871.236	691.444
285.657	25.269	870.490	689.175
286.672	24.998	869.844	687.561
287.687	25.640	869.739	689.882
288.701	25.743	868.879	689.530
289.716	25.280	868.216	687.173
290.730	25.219	867.942	686.661
291.745	25.002	866.471	684.609
292.760	25.306	866.544	685.767
293.774	26.314	866.831	689.783
294.789	26.718	866.373	690.899
295.803	26.557	866.143	690.040
296.818	26.590	865.556	689.635
297.833	26.123	864.459	686.923
298.847	26.073	863.604	685.996
299.862	26.380	863.566	687.069
300.876	26.476	863.429	687.265
301.891	26.494	862.212	686.305
302.906	26.222	861.079	684.309
303.920	26.169	861.263	684.194
304.935	26.588	860.913	685.442
305.949	26.465	860.216	684.365
306.964	26.196	859.701	682.877
307.979	26.400	859.178	683.171
308.993	26.739	858.730	684.035
310.008	26.775	858.034	683.555
311.022	26.376	857.325	681.426
312.037	26.187	856.756	680.199
313.052	26.000	855.583	678.508
314.066	25.107	854.243	674.026
315.081	24.908	853.553	672.677
316.095	25.816	853.795	676.219
317.110	26.245	853.691	677.684
318.125	25.431	851.928	673.178
319.139	24.386	850.897	668.391
320.154	24.262	850.444	667.511
321.168	25.281	850.602	671.390
322.183	26.081	850.434	674.188
323.197	26.163	850.501	674.489
324.212	26.331	850.293	674.892
325.227	26.413	849.612	674.597
326.241	26.269	848.789	673.347
327.256	26.114	847.979	672.066
328.270	25.982	847.826	671.393
329.285	25.748	846.850	669.693
330.300	25.707	845.971	668.785
331.314	25.758	845.846	668.820
332.329	26.319	845.665	670.698
333.343	26.465	845.171	670.787
334.358	26.249	844.958	669.759
335.373	26.502	844.753	670.475
336.387	26.692	844.908	671.243
337.402	26.854	844.502	671.460
338.416	26.726	844.287	670.755
339.431	26.834	843.541	670.502
340.446	27.076	843.251	671.107
341.460	26.926	842.851	670.176
342.475	26.784	842.278	669.139
343.489	26.976	841.680	669.311
344.504	27.097	841.324	669.415
345.519	27.319	841.157	670.039
346.533	27.402	840.628	669.863
347.548	27.280	839.855	668.739
348.562	27.254	839.626	668.403
349.577	27.177	839.208	667.729
350.592	27.041	838.467	666.583
351.606	27.102	837.449	665.938
352.621	27.053	836.641	665.057
353.635	26.996	835.826	664.139
354.650	26.425	834.013	660.557
355.665	25.450	832.709	655.908
356.679	25.742	832.737	656.938
357.694	26.278	832.184	658.397
358.708	26.246	831.486	657.670
359.723	26.516	831.915	658.936
360.738	26.868	831.516	659.841
361.752	26.957	830.925	659.639
362.767	27.336	830.845	660.892
363.781	27.517	830.152	660.940
364.796	27.497	830.277	660.907
365.810	27.670	829.717	661.029
366.825	27.680	829.360	660.725
367.840	27.350	828.605	658.870
368.854	26.873	827.283	656.036
369.869	27.059	827.021	656.441
370.883	27.050	826.690	656.087
371.898	26.899	826.271	655.151
372.913	26.997	825.964	655.204
373.927	27.150	825.263	655.143
374.942	27.304	825.186	655.579
375.956	27.277	824.569	654.933
376.971	27.493	824.126	655.299
377.986	27.630	823.963	655.605
379.000	27.496	823.547	654.734
380.015	27.507	822.407	653.811
381.029	27.530	821.997	653.508
382.044	27.601	821.537	653.339
383.059	27.526	821.360	652.873
384.073	27.762	820.200	652.736
385.088	27.492	819.833	651.421
386.102	27.262	819.143	649.994
387.117	27.302	818.129	649.275
388.132	26.862	817.378	647.053
389.146	26.463	816.634	644.984
390.161	26.946	816.667	646.672
391.175	27.230	816.319	647.351
392.190	26.872	815.291	645.206
393.205	25.563	813.074	638.749
394.219	24.127	811.241	632.160
395.234	24.174	810.982	632.069
396.248	25.668	812.728	638.681
397.263	27.135	813.283	644.267
398.278	27.110	812.963	643.866
399.292	26.887	812.221	642.430
400.307	26.903	811.709	642.026
401.321	27.083	811.089	642.117
402.336	27.285	811.369	642.995
403.350	27.837	811.274	644.813
404.365	28.167	811.179	645.847
405.380	28.355	810.548	645.949
406.394	28.444	809.836	645.637
407.409	28.223	809.420	644.471
408.423	28.230	809.464	644.473
409.438	28.254	808.896	644.049
410.453	28.206	808.774	643.724
411.467	28.224	808.123	643.213
412.482	28.197	808.052	643.006
413.496	28.293	807.561	642.897
414.511	28.351	806.784	642.423
415.526	28.460	806.336	642.393
416.540	28.247	805.751	641.124
417.555	27.961	805.000	639.468
418.569	28.114	804.534	639.578
419.584	28.028	804.124	638.891
420.599	27.804	803.400	637.477
421.613	109.994	1284.300	1451.341
422.628	94.946	1354.375	1451.479
