DTS Sentinel unit serial number:	SN413079Multiplexer serial number:	ORYXHardware model number:	OX4-SRSoftware version number:	ORYX F/W v4.00 Oryx Data Collector v3.7.2.0data status	okinstallation	princeton_trtdifferential loss correction	single-endedforward channel	channel 1reverse channel	N/Adate	2019/09/14time	22:30:35forward acquisition time	60.00reverse acquisition time	0.00gamma	496.2192k internal	0.2319k external	0.2319temperature offset calibration	1.0004default loss term (dB/km)	0.3790temperature slope calibration	1.0000multiplexer offset coefficient	1.0000multiplexer slope coefficient	1.0000fibre end	0.00T internal ref (°C)	32.56T ext. ref 1 (°C)	4.68T ext. ref 2 (°C)	27.53length (m)	temperature (°C)	Stokes	anti-Stokes-747.200	164.087	-0.143	0.203
-746.185	-116.799	-0.120	-0.022
-745.171	-200.000	-0.015	-0.166
-744.156	160.656	-0.108	0.153
-743.142	97.950	0.286	0.333
-742.127	62.010	0.260	-0.263
-741.112	596.736	-0.065	-0.164
-740.098	420.190	-0.095	0.206
-739.083	60.340	0.072	0.072
-738.069	800.000	0.051	0.214
-737.054	249.440	0.162	-0.278
-736.039	-200.000	-0.020	0.276
-735.025	-200.000	0.052	0.257
-734.010	-119.414	-0.135	-0.024
-732.996	152.896	0.032	0.044
-731.981	-200.000	-0.003	0.183
-730.966	-200.000	-0.033	-0.303
-729.952	370.166	0.114	-0.233
-728.937	-39.937	0.074	0.039
-727.923	74.207	-0.096	-0.102
-726.908	-127.482	-0.052	-0.008
-725.894	27.839	-0.146	-0.125
-724.879	-200.000	-0.014	-0.221
-723.864	228.121	-0.086	0.142
-722.850	639.660	0.116	-0.299
-721.835	225.929	0.237	-0.388
-720.821	253.482	-0.062	0.107
-719.806	800.000	-0.018	-0.072
-718.791	-66.979	-0.285	-0.114
-717.777	800.000	0.095	-0.290
-716.762	-200.000	0.049	0.317
-715.748	323.673	-0.219	-0.423
-714.733	-200.000	0.031	0.335
-713.718	-39.759	-0.125	-0.066
-712.704	166.832	-0.210	-0.302
-711.689	109.648	0.014	0.017
-710.675	64.294	0.089	0.091
-709.660	-61.927	0.178	-0.075
-708.645	-200.000	-0.005	-0.439
-707.631	-78.568	-0.161	-0.056
-706.616	-200.000	-0.036	-0.365
-705.602	21.593	-0.147	-0.121
-704.587	-200.000	0.000	-0.051
-703.572	15.440	-0.258	0.205
-702.558	149.416	-0.132	0.180
-701.543	-159.700	0.297	-0.017
-700.529	-98.977	0.179	-0.046
-699.514	22.407	-0.164	-0.136
-698.499	-32.637	0.208	0.117
-697.485	257.563	0.100	0.174
-696.470	62.424	-0.186	-0.187
-695.456	-55.900	-0.180	0.081
-694.441	270.456	0.111	-0.197
-693.426	109.171	-0.221	0.267
-692.412	-116.130	0.128	-0.024
-691.397	-5.739	-0.223	-0.154
-690.383	128.580	-0.162	-0.209
-689.368	-166.658	0.162	0.007
-688.354	-49.823	-0.476	-0.228
-687.339	-55.849	-0.015	0.007
-686.324	-15.818	-0.055	-0.035
-685.310	170.108	-0.213	-0.307
-684.295	45.963	0.264	-0.246
-683.281	-50.686	-0.062	-0.029
-682.266	-15.397	-0.181	0.117
-681.251	-85.968	0.198	0.062
-680.237	224.762	0.076	-0.125
-679.222	207.409	-0.221	0.347
-678.208	113.077	0.124	-0.151
-677.193	-79.110	-0.142	-0.049
-676.178	-48.956	0.247	0.119
-675.164	48.670	-0.140	-0.132
-674.149	314.014	-0.095	-0.180
-673.135	-200.000	-0.029	0.130
-672.120	-166.448	0.530	-0.022
-671.105	62.052	-0.205	-0.206
-670.091	-200.000	-0.013	-0.336
-669.076	-200.000	0.020	0.373
-668.062	-200.000	0.028	-0.451
-667.047	-30.891	0.037	-0.021
-666.032	39.213	-0.164	-0.148
-665.018	264.022	0.042	0.073
-664.003	800.000	0.059	-0.253
-662.989	574.544	0.143	-0.351
-661.974	16.555	0.182	0.145
-660.959	106.152	0.076	-0.091
-659.945	89.316	0.178	0.200
-658.930	-95.142	0.099	0.027
-657.916	-124.702	-0.256	-0.040
-656.901	-200.000	0.239	-0.001
-655.886	-117.120	-0.065	0.012
-654.872	85.771	0.054	-0.060
-653.857	-89.749	-0.264	0.078
-652.843	-56.249	0.072	0.032
-651.828	9.884	0.151	-0.116
-650.814	59.193	0.232	0.230
-649.799	-108.213	-0.113	0.025
-648.784	213.452	-0.116	0.185
-647.770	-200.000	-0.013	-0.098
-646.755	800.000	0.024	0.082
-645.741	-61.787	-0.270	-0.114
-644.726	182.066	-0.183	-0.272
-643.711	7.687	-0.148	-0.112
-642.697	-200.000	0.019	0.185
-641.682	-133.387	0.241	-0.031
-640.668	-158.906	0.175	0.010
-639.653	401.307	-0.130	0.275
-638.638	-68.178	0.107	-0.042
-637.624	196.667	-0.049	0.075
-636.609	151.440	0.070	0.096
-635.595	52.376	-0.175	0.169
-634.580	-200.000	-0.081	0.399
-633.565	117.181	0.189	-0.233
-632.551	141.654	0.015	0.020
-631.536	-170.644	-0.121	0.004
-630.522	800.000	-0.080	-0.227
-629.507	-200.000	-0.000	0.103
-628.492	-37.849	0.272	-0.146
-627.478	-200.000	0.019	0.145
-626.463	-200.000	0.081	-0.359
-625.449	248.120	0.158	-0.268
-624.434	22.107	0.203	-0.167
-623.419	111.696	-0.138	0.168
-622.405	800.000	0.106	0.347
-621.390	-56.402	-0.161	0.072
-620.376	-200.000	-0.023	0.144
-619.361	-200.000	0.059	0.385
-618.346	43.130	0.136	-0.125
-617.332	800.000	0.032	-0.136
-616.317	-200.000	-0.011	0.134
-615.303	-200.000	0.006	-0.156
-614.288	15.291	-0.075	0.059
-613.273	-54.168	-0.343	-0.157
-612.259	45.089	0.154	-0.143
-611.244	5.087	-0.277	-0.206
-610.230	-24.570	0.211	-0.126
-609.215	-132.378	-0.464	-0.060
-608.201	-134.197	-0.208	-0.026
-607.186	28.988	0.078	0.066
-606.171	140.402	-0.147	0.196
-605.157	-82.022	0.262	-0.086
-604.142	18.485	-0.183	0.147
-603.128	-75.985	0.183	0.065
-602.113	-126.106	0.308	0.046
-601.098	12.097	0.142	0.110
-600.084	-200.000	-0.047	0.276
-599.069	48.639	-0.291	0.275
-598.055	428.136	-0.012	-0.026
-597.040	348.439	0.122	0.243
-596.025	-113.569	0.192	-0.038
-595.011	-22.697	0.074	-0.045
-593.996	-48.951	-0.115	0.056
-592.982	573.431	-0.014	0.035
-591.967	-111.420	0.117	-0.024
-590.952	96.148	0.096	0.110
-589.938	317.729	0.100	0.190
-588.923	-146.910	-0.364	-0.031
-587.909	-70.101	-0.069	-0.027
-586.894	-86.505	0.230	-0.071
-585.879	532.931	0.011	-0.027
-584.865	75.657	0.213	-0.226
-583.850	62.137	0.213	0.214
-582.836	-81.878	0.161	0.053
-581.821	791.202	0.063	-0.174
-580.806	-187.200	0.198	0.003
-579.792	-30.922	-0.107	0.061
-578.777	-23.693	0.164	0.099
-577.763	800.000	-0.071	-0.262
-576.748	-142.066	0.020	0.002
-575.733	-200.000	0.005	0.161
-574.719	-93.291	0.113	0.032
-573.704	181.276	0.152	-0.225
-572.690	-180.331	-0.168	-0.004
-571.675	800.000	-0.085	0.263
-570.661	-79.330	0.088	-0.030
-569.646	-200.000	0.025	0.165
-568.631	-38.169	-0.035	0.019
-567.617	455.988	-0.093	-0.208
-566.602	-105.981	-0.100	-0.023
-565.588	-200.000	0.033	-0.171
-564.573	-118.344	-0.202	-0.036
-563.558	178.515	-0.041	-0.061
-562.544	8.593	0.033	0.025
-561.529	-135.969	-0.492	-0.058
-560.515	-177.259	0.476	-0.012
-559.500	4.997	0.090	-0.067
-558.485	218.159	-0.184	0.294
-557.471	-200.000	0.030	0.173
-556.456	78.579	-0.290	-0.312
-555.442	79.423	0.150	-0.162
-554.427	37.006	0.227	-0.201
-553.412	-59.108	0.329	0.143
-552.398	397.649	0.082	-0.172
-551.383	-200.000	0.087	-0.494
-550.369	-200.000	-0.018	0.253
-549.354	255.078	-0.123	0.211
-548.339	-107.829	-0.110	0.024
-547.325	-175.949	0.321	0.009
-546.310	-200.000	0.004	0.040
-545.296	29.850	0.236	-0.202
-544.281	-152.472	-0.139	0.010
-543.266	523.663	0.117	0.275
-542.252	-200.000	0.010	0.078
-541.237	360.517	-0.010	-0.020
-540.223	-5.873	-0.176	-0.121
-539.208	23.200	-0.148	0.122
-538.193	800.000	-0.058	-0.206
-537.179	220.284	-0.063	-0.102
-536.164	800.000	0.026	-0.113
-535.150	179.389	0.144	0.211
-534.135	-48.658	0.164	-0.079
-533.121	-147.636	0.140	0.012
-532.106	-6.891	-0.205	-0.140
-531.091	107.068	0.032	-0.039
-530.077	-200.000	0.043	0.372
-529.062	-109.702	-0.095	-0.020
-528.048	131.225	0.072	-0.093
-527.033	-200.000	-0.006	-0.328
-526.018	-113.185	-0.145	0.029
-525.004	-183.970	-0.288	0.005
-523.989	-200.000	0.054	0.314
-522.975	-80.174	0.140	0.047
-521.960	33.035	0.206	0.179
-520.945	-200.000	0.033	-0.150
-519.931	-200.000	0.041	-0.384
-518.916	-200.000	-0.006	-0.257
-517.902	-37.920	0.218	0.116
-516.887	-98.868	-0.315	0.080
-515.872	12.740	0.255	0.197
-514.858	696.128	-0.063	0.167
-513.843	203.764	0.104	-0.162
-512.829	673.328	0.055	-0.144
-511.814	-109.079	-0.091	0.020
-510.799	75.254	0.135	0.143
-509.785	-28.949	0.286	-0.165
-508.770	-152.111	0.105	0.008
-507.756	202.346	-0.138	-0.214
-506.741	800.000	0.080	-0.226
-505.726	109.290	0.101	-0.121
-504.712	474.476	0.171	0.386
-503.697	664.543	0.038	0.098
-502.683	-200.000	0.095	-0.449
-501.668	-200.000	-0.074	-0.497
-500.653	-40.003	0.178	-0.093
-499.639	328.889	0.142	-0.273
-498.624	-200.000	0.072	-0.429
-497.610	137.399	-0.104	-0.137
-496.595	176.054	-0.101	0.147
-495.581	322.476	-0.170	0.324
-494.566	-110.237	0.205	-0.043
-493.551	243.832	-0.175	-0.294
-492.537	-94.378	-0.315	0.086
-491.522	-200.000	-0.024	0.232
-490.508	-1.836	-0.284	-0.200
-489.493	-57.382	0.354	0.156
-488.478	-200.000	-0.011	0.332
-487.464	-200.000	-0.014	-0.168
-486.449	91.829	-0.052	-0.058
-485.435	-89.274	-0.130	-0.038
-484.420	-62.203	0.210	0.088
-483.405	-19.395	0.230	-0.143
-482.391	-30.847	0.236	0.133
-481.376	346.962	-0.064	-0.127
-480.362	-41.713	0.230	0.118
-479.347	-200.000	0.010	-0.137
-478.332	-90.281	0.292	0.085
-477.318	-91.900	-0.107	-0.030
-476.303	-121.258	0.307	0.051
-475.289	-36.502	-0.270	-0.146
-474.274	255.939	0.060	0.102
-473.259	-162.362	0.351	-0.017
-472.245	-71.404	-0.336	-0.126
-471.230	419.536	-0.055	-0.117
-470.216	-200.000	0.043	-0.191
-469.201	-22.434	0.129	0.078
-468.186	3.533	0.298	0.217
-467.172	17.463	0.301	-0.239
-466.157	339.657	0.079	-0.153
-465.143	38.801	-0.169	-0.151
-464.128	800.000	-0.058	0.243
-463.113	-11.506	0.089	-0.059
-462.099	800.000	-0.101	-0.351
-461.084	403.735	-0.083	0.174
-460.070	-27.590	0.311	-0.181
-459.055	-200.000	-0.038	-0.312
-458.040	66.398	-0.225	-0.229
-457.026	-200.000	0.015	-0.250
-456.011	20.947	0.131	0.106
-454.997	114.757	-0.105	-0.128
-453.982	-57.811	-0.106	-0.047
-452.968	-99.212	-0.160	0.040
-451.953	396.551	-0.132	0.275
-450.938	347.066	-0.131	-0.259
-449.924	-149.480	0.084	0.007
-448.909	49.648	0.132	0.124
-447.895	265.988	-0.098	-0.172
-446.880	-109.802	-0.134	0.028
-445.865	-68.635	-0.260	-0.101
-444.851	-104.370	-0.250	0.058
-443.836	800.000	-0.046	-0.136
-442.822	-165.924	0.311	-0.013
-441.807	-64.647	-0.464	-0.188
-440.792	800.000	0.116	-0.343
-439.778	-134.823	0.210	0.025
-438.763	-74.260	-0.121	0.044
-437.749	-200.000	-0.019	-0.182
-436.734	184.127	0.092	-0.136
-435.719	-185.044	-0.174	-0.003
-434.705	-111.256	-0.147	0.030
-433.690	800.000	0.060	0.190
-432.676	-69.187	0.090	0.035
-431.661	153.236	-0.149	-0.203
-430.646	-122.717	-0.188	0.030
-429.632	800.000	0.065	-0.205
-428.617	-43.782	-0.288	0.145
-427.603	800.000	-0.125	0.493
-426.588	-19.987	0.191	0.118
-425.573	478.781	0.084	-0.189
-424.559	522.644	0.068	-0.159
-423.544	800.000	-0.086	0.257
-422.530	800.000	-0.058	-0.176
-421.515	743.381	-0.077	0.207
-420.500	-105.714	-0.308	-0.070
-419.486	800.000	-0.047	-0.185
-418.471	-109.278	0.222	0.047
-417.457	-200.000	-0.004	0.152
-416.442	-182.328	0.190	-0.004
-415.428	72.503	-0.101	-0.105
-414.413	292.349	0.074	0.134
-413.398	-39.080	-0.155	0.082
-412.384	176.201	-0.173	-0.251
-411.369	-46.518	-0.166	-0.081
-410.355	436.368	0.081	-0.176
-409.340	240.167	0.173	0.288
-408.325	15.867	0.170	0.133
-407.311	-76.178	0.316	-0.111
-406.296	210.374	0.097	-0.151
-405.282	-200.000	-0.009	-0.146
-404.267	143.423	0.325	0.432
-403.252	590.449	-0.031	0.076
-402.238	-33.800	0.430	-0.237
-401.223	-196.269	0.142	0.001
-400.209	-98.012	-0.266	-0.068
-399.194	800.000	0.060	-0.224
-398.179	-200.000	-0.003	0.289
-397.165	70.025	0.189	0.194
-396.150	592.748	-0.161	0.397
-395.136	800.000	0.047	0.175
-394.121	-98.994	-0.392	-0.099
-393.106	-17.445	0.159	-0.100
-392.092	-59.732	-0.182	0.078
-391.077	-85.955	0.174	0.054
-390.063	59.251	0.064	0.063
-389.048	-102.927	-0.202	0.048
-388.033	306.538	-0.131	-0.243
-387.019	-31.793	-0.107	-0.060
-386.004	-200.000	0.082	0.644
-384.990	-23.230	0.201	0.121
-383.975	-200.000	-0.057	0.302
-382.960	-200.000	-0.001	0.323
-381.946	-180.636	-0.183	0.004
-380.931	800.000	0.118	-0.377
-379.917	-21.983	-0.175	-0.106
-378.902	138.030	-0.085	0.111
-377.888	82.533	-0.193	-0.209
-376.873	-51.881	0.199	0.092
-375.858	51.646	-0.377	-0.357
-374.844	-200.000	-0.006	0.208
-373.829	187.822	0.128	0.190
-372.815	312.016	-0.095	-0.177
-371.800	-31.798	-0.128	0.071
-370.785	-100.773	0.244	0.060
-369.771	487.725	-0.185	0.421
-368.756	-200.000	-0.003	-0.099
-367.742	800.000	-0.025	0.088
-366.727	-200.000	-0.032	-0.239
-365.712	-71.920	0.319	-0.118
-364.698	541.222	-0.135	-0.321
-363.683	111.012	-0.137	0.165
-362.669	-200.000	0.006	0.214
-361.654	-37.941	0.145	0.077
-360.639	-103.606	-0.080	-0.019
-359.625	595.251	-0.072	0.178
-358.610	-33.799	-0.314	0.172
-357.596	-74.956	-0.088	-0.031
-356.581	800.000	-0.094	0.336
-355.566	211.376	-0.155	-0.242
-354.552	-66.303	-0.257	-0.102
-353.537	-71.670	0.292	-0.109
-352.523	54.887	0.132	0.127
-351.508	-200.000	0.076	-0.436
-350.493	-138.730	0.224	-0.024
-349.479	157.181	0.167	0.229
-348.464	-133.255	0.205	0.026
-347.450	-200.000	0.004	-0.194
-346.435	-84.514	-0.406	-0.128
-345.420	-31.317	-0.299	0.168
-344.406	-19.340	-0.253	0.156
-343.391	74.007	0.061	0.064
-342.377	223.245	0.132	0.212
-341.362	-200.000	-0.024	-0.239
-340.348	800.000	0.037	0.157
-339.333	800.000	0.018	-0.067
-338.318	-7.173	-0.052	0.035
-337.304	-200.000	-0.014	0.081
-336.289	82.199	-0.211	-0.228
-335.275	800.000	0.081	-0.270
-334.260	800.000	-0.028	-0.115
-333.245	124.529	-0.185	0.232
-332.231	407.311	0.106	-0.224
-331.216	-64.364	0.099	0.040
-330.202	-45.801	0.259	-0.127
-329.187	-151.951	-0.342	0.025
-328.172	-41.238	-0.178	0.091
-327.158	-35.379	-0.113	-0.061
-326.143	308.343	-0.044	-0.082
-325.129	282.060	0.097	-0.173
-324.114	-43.466	-0.107	0.054
-323.099	126.903	0.078	0.099
-322.085	-200.000	0.012	0.102
-321.070	91.361	-0.139	0.156
-320.056	10.570	-0.457	0.347
-319.041	-95.741	-0.240	-0.064
-318.026	123.648	-0.027	-0.034
-317.012	-200.000	-0.026	0.160
-315.997	-115.179	-0.181	0.034
-314.983	147.765	-0.017	-0.023
-313.968	482.727	0.079	-0.179
-312.953	-20.958	-0.343	-0.209
-311.939	-117.531	0.118	0.021
-310.924	-155.063	-0.282	-0.018
-309.910	-51.953	-0.106	-0.049
-308.895	-164.568	0.193	-0.009
-307.880	800.000	-0.026	0.107
-306.866	-48.817	-0.235	0.112
-305.851	41.613	0.142	0.128
-304.837	180.898	0.229	-0.335
-303.822	250.160	-0.139	0.235
-302.807	339.470	0.133	0.258
-301.793	-200.000	0.028	0.137
-300.778	61.256	-0.084	0.083
-299.764	414.706	0.090	-0.191
-298.749	58.982	-0.193	0.189
-297.735	111.174	-0.042	0.050
-296.720	104.499	0.129	0.151
-295.705	31.627	0.163	0.139
-294.691	800.000	-0.054	0.181
-293.676	-69.495	0.102	-0.039
-292.662	800.000	0.084	-0.277
-291.647	-0.707	-0.216	-0.152
-290.632	-34.740	0.027	-0.015
-289.618	-22.498	-0.125	-0.075
-288.603	-60.687	0.280	0.118
-287.589	-56.169	0.114	-0.051
-286.574	-200.000	0.010	0.091
-285.559	166.070	-0.147	-0.207
-284.545	-200.000	-0.275	-0.001
-283.530	-106.344	-0.278	-0.062
-282.516	494.430	0.067	0.153
-281.501	-62.866	-0.281	0.116
-280.486	580.803	0.036	0.088
-279.472	-200.000	-0.022	-0.187
-278.457	-200.000	0.014	-0.097
-277.443	381.451	-0.139	0.283
-276.428	-31.800	-0.201	0.112
-275.413	143.679	0.056	-0.075
-274.399	-13.003	0.320	0.207
-273.384	-64.718	0.069	-0.028
-272.370	-200.000	-0.049	-0.399
-271.355	-13.498	0.208	0.134
-270.340	95.182	-0.129	0.146
-269.326	-78.289	-0.038	-0.013
-268.311	121.167	0.180	0.222
-267.297	-52.053	0.139	-0.064
-266.282	123.949	0.042	-0.052
-265.267	767.651	0.131	-0.355
-264.253	39.915	0.321	-0.286
-263.238	46.144	0.067	0.061
-262.224	-3.733	-0.170	0.117
-261.209	-88.589	-0.209	-0.062
-260.195	54.413	-0.140	-0.134
-259.180	-29.676	0.112	0.064
-258.165	800.000	0.062	0.241
-257.151	-76.855	-0.302	0.105
-256.136	-45.627	0.137	0.067
-255.122	800.000	0.109	0.332
-254.107	800.000	0.088	0.381
-253.092	-16.750	0.263	0.165
-252.078	800.000	-0.023	0.089
-251.063	111.038	-0.272	0.325
-250.049	-18.864	0.028	0.017
-249.034	800.000	-0.052	0.169
-248.019	-200.000	-0.040	-0.248
-247.005	-43.183	-0.315	-0.158
-245.990	-58.588	-0.175	0.076
-244.976	120.722	-0.113	-0.140
-243.961	-200.000	0.007	0.043
-242.946	-67.856	0.217	-0.084
-241.932	-106.065	-0.088	0.020
-240.917	-200.000	0.055	-0.254
-239.903	-99.054	0.202	0.051
-238.888	-141.541	0.250	-0.025
-237.873	-88.917	-0.156	-0.046
-236.859	42.151	-0.152	-0.137
-235.844	341.403	-0.059	-0.114
-234.830	14.887	-0.188	-0.146
-233.815	-76.456	-0.230	-0.080
-232.800	-92.699	0.065	-0.018
-231.786	100.624	-0.259	0.299
-230.771	86.334	0.265	0.289
-229.757	-200.000	0.004	0.111
-228.742	91.363	-0.245	0.273
-227.727	-200.000	-0.020	-0.187
-226.713	-154.263	0.274	-0.018
-225.698	800.000	0.094	-0.302
-224.684	-49.328	-0.392	-0.185
-223.669	375.875	-0.135	0.273
-222.655	561.339	0.079	0.189
-221.640	729.483	0.047	0.124
-220.625	800.000	0.131	-0.400
-219.611	-121.566	0.264	-0.043
-218.596	-199.485	0.248	0.001
-217.582	198.323	-0.137	0.208
-216.567	-200.000	0.002	-0.049
-215.552	-200.000	0.073	0.392
-214.538	61.066	0.073	0.072
-213.523	150.255	0.068	-0.091
-212.509	19.229	-0.105	-0.084
-211.494	-11.945	0.170	0.110
-210.479	136.064	0.146	-0.188
-209.465	-97.539	-0.265	0.068
-208.450	-46.566	-0.126	0.061
-207.436	26.401	-0.043	0.036
-206.421	59.548	0.193	-0.189
-205.406	33.168	0.324	-0.278
-204.392	-110.639	-0.465	-0.095
-203.377	89.436	0.204	0.225
-202.363	-31.446	-0.212	0.118
-201.348	-170.115	0.103	0.004
-200.333	-18.132	-0.205	-0.127
-199.319	-200.000	-0.000	-0.113
-198.304	-134.154	0.108	-0.013
-197.290	-200.000	-0.021	-0.093
-196.275	-38.070	0.031	0.016
-195.260	232.554	0.176	0.286
-194.246	-200.000	-0.090	0.419
-193.231	171.513	-0.105	-0.149
-192.217	-72.848	-0.159	0.058
-191.202	800.000	0.124	0.402
-190.187	18.764	0.208	0.165
-189.173	-51.881	0.123	0.057
-188.158	800.000	-0.079	-0.235
-187.144	104.801	0.189	-0.220
-186.129	-10.715	-0.193	0.127
-185.114	-200.000	0.043	0.254
-184.100	190.981	-0.081	-0.121
-183.085	-200.000	-0.004	-0.409
-182.071	337.666	0.043	0.082
-181.056	-200.000	0.037	0.181
-180.042	-151.502	0.207	-0.015
-179.027	186.296	-0.067	0.098
-178.012	83.232	-0.060	-0.064
-176.998	232.879	0.058	-0.094
-175.983	-120.989	-0.216	0.036
-174.969	-165.283	0.432	-0.019
-173.954	-31.852	-0.308	0.171
-172.939	-66.412	0.209	0.082
-171.925	-200.000	-0.035	0.306
-170.910	-55.904	0.242	-0.107
-169.896	-109.119	0.306	-0.064
-168.881	-150.557	-0.124	0.009
-167.866	-200.000	-0.003	-0.036
-166.852	-15.347	0.053	0.034
-165.837	-127.073	-0.129	-0.019
-164.823	800.000	-0.031	0.117
-163.808	-38.049	0.200	-0.105
-162.793	120.595	-0.215	-0.264
-161.779	800.000	0.029	-0.081
-160.764	266.729	0.146	-0.253
-159.750	800.000	0.129	-0.403
-158.735	14.078	0.175	0.134
-157.720	-132.095	0.080	0.010
-156.706	800.000	-0.065	-0.190
-155.691	-16.446	-0.266	-0.166
-154.677	-34.195	0.285	0.155
-153.662	800.000	0.036	0.116
-152.647	405.368	-0.032	0.066
-151.633	228.238	0.042	0.068
-150.618	106.362	0.209	0.245
-149.604	30.381	0.141	0.119
-148.589	-130.538	-0.236	-0.031
-147.574	-200.000	0.058	0.472
-146.560	-200.000	0.029	-0.136
-145.545	616.760	-0.060	0.148
-144.531	237.037	-0.124	0.202
-143.516	82.754	0.136	-0.146
-142.502	-39.538	0.214	-0.111
-141.487	-200.000	0.050	-0.365
-140.472	-149.725	0.290	-0.023
-139.458	525.192	0.058	0.135
-138.443	7.652	-0.224	-0.165
-137.429	-94.030	0.166	0.045
-136.414	46.352	-0.111	0.102
-135.399	257.210	0.104	-0.176
-134.385	-42.216	-0.239	0.121
-133.370	-200.000	-0.007	-0.054
-132.356	5.744	-0.156	0.114
-131.341	383.500	0.069	-0.140
-130.326	-149.946	0.370	0.029
-129.312	190.534	-0.239	-0.355
-128.297	-187.984	0.358	-0.005
-127.283	-84.636	0.257	0.080
-126.268	84.083	0.195	0.211
-125.253	-113.395	0.159	0.031
-124.239	-14.156	-0.241	-0.154
-123.224	147.018	-0.255	-0.339
-122.210	-37.725	0.245	0.129
-121.195	-200.000	-0.195	0.001
-120.180	24.208	-0.180	0.147
-119.166	126.948	0.114	-0.143
-118.151	122.844	-0.200	0.247
-117.137	800.000	0.037	-0.150
-116.122	237.610	-0.169	0.276
-115.107	223.575	0.077	0.123
-114.093	17.591	-0.039	0.031
-113.078	-100.138	-0.051	0.013
-112.064	114.559	-0.317	0.381
-111.049	202.645	0.069	0.105
-110.034	-200.000	0.058	0.367
-109.020	147.934	0.215	-0.286
-108.005	-18.038	0.253	0.156
-106.991	-22.967	0.233	0.139
-105.976	-112.094	0.226	0.045
-104.962	-3.333	0.116	-0.079
-103.947	11.934	-0.087	-0.066
-102.932	238.092	0.132	0.217
-101.918	-102.827	0.266	0.062
-100.903	-128.274	0.160	0.023
-99.889	-92.043	-0.329	0.092
-98.874	-65.387	-0.230	0.091
-97.859	77.060	-0.101	-0.106
-96.845	119.143	-0.252	0.308
-95.830	-200.000	-0.030	-0.307
-94.816	-122.201	0.269	0.043
-93.801	-137.257	-0.149	-0.017
-92.786	132.529	-0.136	0.173
-91.772	-52.411	-0.280	-0.128
-90.757	-118.096	0.265	-0.047
-89.743	-200.000	-0.030	0.215
-88.728	67.457	-0.188	0.189
-87.713	252.010	0.178	-0.300
-86.699	-200.000	-0.096	-0.459
-85.684	-21.328	0.167	-0.101
-84.670	800.000	0.038	0.127
-83.655	800.000	-0.100	0.286
-82.640	726.929	0.093	0.245
-81.626	240.301	0.287	-0.472
-80.611	-0.626	0.256	0.179
-79.597	-11.960	0.247	0.160
-78.582	800.000	0.064	0.240
-77.567	-200.000	0.008	0.057
-76.553	41.401	0.383	0.341
-75.538	-151.035	-0.414	-0.031
-74.524	-89.387	-0.302	0.088
-73.509	345.019	-0.006	-0.011
-72.494	-33.490	0.140	-0.076
-71.480	-127.563	0.136	-0.019
-70.465	800.000	0.059	-0.195
-69.451	800.000	0.065	-0.215
-68.436	-127.149	-0.144	-0.021
-67.422	-67.235	0.127	0.049
-66.407	94.678	0.226	-0.253
-65.392	-111.434	-0.142	0.028
-64.378	-178.873	0.222	-0.005
-63.363	268.621	0.205	-0.354
-62.349	-140.594	0.277	-0.028
-61.334	84.990	-0.903	-0.975
-60.319	-86.108	0.547	0.166
-59.305	569.523	-0.391	-0.936
-58.290	162.106	0.697	0.962
-57.276	800.000	0.626	1.784
-56.261	-200.000	94.892	579.137
-55.246	661.243	1370.172	3476.150
-54.232	199.827	2542.575	3842.203
-53.217	120.831	2140.181	2620.483
-52.203	44.562	1605.162	1452.526
-51.188	36.133	1343.375	1164.928
-50.173	32.936	1301.189	1109.550
-49.159	54.752	1347.820	1280.159
-48.144	56.971	1364.919	1309.603
-47.130	36.230	1323.715	1148.275
-46.115	32.740	1306.720	1112.934
-45.100	32.594	1301.240	1107.359
-44.086	32.486	1299.126	1104.886
-43.071	32.350	1297.358	1102.541
-42.057	32.464	1294.976	1101.140
-41.042	32.448	1293.140	1099.440
-40.027	32.416	1292.034	1098.272
-39.013	32.473	1289.720	1096.595
-37.998	32.427	1288.176	1094.970
-36.984	32.577	1286.369	1094.262
-35.969	32.570	1284.680	1092.739
-34.954	32.536	1283.071	1091.132
-33.940	32.644	1281.806	1090.638
-32.925	32.626	1280.624	1089.486
-31.911	32.590	1279.060	1087.900
-30.896	32.696	1277.412	1087.065
-29.881	32.755	1275.886	1086.066
-28.867	32.720	1274.170	1084.362
-27.852	32.649	1272.836	1082.778
-26.838	32.629	1271.584	1081.550
-25.823	32.736	1270.168	1080.916
-24.809	32.685	1268.593	1079.246
-23.794	32.600	1267.665	1077.924
-22.779	32.673	1265.972	1076.858
-21.765	32.741	1265.084	1076.449
-20.750	32.606	1263.947	1074.668
-19.736	32.593	1262.485	1073.307
-18.721	32.514	1261.572	1072.041
-17.706	32.493	1260.377	1070.863
-16.692	32.394	1259.466	1069.485
-15.677	32.500	1257.777	1068.611
-14.663	32.515	1256.760	1067.785
-13.648	32.570	1255.507	1066.995
-12.633	32.537	1254.762	1066.131
-11.619	32.496	1253.926	1065.146
-10.604	32.433	1253.403	1064.303
-9.590	32.495	1251.926	1063.356
-8.575	32.467	1251.249	1062.579
-7.560	32.482	1250.062	1061.616
-6.546	32.420	1249.740	1060.949
-5.531	32.504	1248.818	1060.601
-4.517	32.623	1247.313	1059.947
-3.502	32.492	1246.866	1058.787
-2.487	32.637	1245.525	1058.421
-1.473	32.491	1241.774	1054.377
-0.458	31.099	1226.828	1033.938
0.556	26.734	1209.068	996.181
1.571	22.982	1214.026	979.430
2.586	21.948	1228.696	985.373
3.600	21.468	1217.019	973.256
4.615	16.248	1146.302	889.190
5.629	8.341	1072.225	792.549
6.644	4.798	1052.350	760.504
7.659	4.601	1050.278	757.982
8.673	4.671	1049.265	757.526
9.688	4.650	1047.737	756.254
10.702	4.776	1045.884	755.459
11.717	9.245	1052.033	781.609
12.731	16.544	1062.290	824.883
13.746	19.118	1064.864	839.376
14.761	18.463	1062.615	834.341
15.775	17.300	1061.274	827.557
16.790	16.179	1059.030	820.284
17.804	15.456	1057.769	815.722
18.819	15.070	1056.707	812.958
19.834	14.924	1055.455	811.214
20.848	14.797	1054.417	809.733
21.863	14.495	1053.808	807.729
22.877	14.351	1053.252	806.532
23.892	14.301	1052.678	805.780
24.907	14.442	1051.838	805.748
25.921	14.435	1050.296	804.462
26.936	14.493	1049.589	804.128
27.950	14.421	1048.284	802.714
28.965	14.597	1046.673	802.255
29.980	14.677	1045.042	801.316
30.994	14.645	1044.101	800.371
32.009	14.726	1043.330	800.099
33.023	14.721	1041.990	798.975
34.038	14.682	1040.535	797.604
35.053	14.521	1039.776	796.181
36.067	14.646	1039.079	796.171
37.082	14.552	1038.298	795.057
38.096	14.571	1037.873	794.753
39.111	14.724	1036.888	794.655
40.126	14.566	1035.457	792.737
41.140	14.410	1034.250	791.001
42.155	14.328	1032.797	789.430
43.169	14.274	1032.217	788.663
44.184	14.347	1030.757	787.822
45.199	14.244	1029.944	786.646
46.213	14.270	1029.102	786.054
47.228	14.527	1028.021	786.374
48.242	14.466	1026.964	785.208
49.257	14.531	1025.629	784.425
50.271	14.458	1025.162	783.651
51.286	14.583	1024.436	783.615
52.301	14.516	1023.560	782.561
53.315	14.398	1022.294	780.970
54.330	14.342	1021.254	779.845
55.344	14.408	1020.110	779.213
56.359	14.378	1019.504	778.539
57.374	14.182	1018.864	777.066
58.388	14.230	1018.066	776.613
59.403	14.223	1016.858	775.592
60.417	14.241	1015.932	774.897
61.432	14.305	1015.246	774.607
62.447	14.274	1014.540	773.853
63.461	14.225	1013.576	772.822
64.476	14.137	1013.049	771.943
65.490	14.195	1011.965	771.318
66.505	14.188	1011.214	770.645
67.520	14.192	1010.681	770.191
68.534	14.147	1010.291	769.617
69.549	14.267	1009.279	769.331
70.563	14.264	1008.022	768.290
71.578	14.155	1007.592	767.392
72.593	14.139	1006.736	766.600
73.607	13.997	1006.056	765.359
74.622	14.102	1005.943	765.692
75.636	14.082	1004.868	764.713
76.651	14.173	1004.150	764.516
77.666	14.133	1003.577	763.830
78.680	14.140	1003.079	763.414
79.695	14.228	1002.479	763.292
80.709	14.284	1001.537	762.764
81.724	14.251	1001.340	762.398
82.739	14.437	1000.108	762.241
83.753	14.387	999.548	761.521
84.768	14.688	998.549	762.066
85.782	14.740	997.496	761.433
86.797	14.571	996.807	760.067
87.812	14.472	996.123	759.027
88.826	14.561	995.002	758.513
89.841	14.572	994.090	757.797
90.855	14.656	993.435	757.613
91.870	14.704	992.599	757.126
92.884	14.573	991.802	755.857
93.899	14.614	991.647	755.861
94.914	14.786	989.955	755.283
95.928	14.640	989.564	754.258
96.943	14.695	988.663	753.749
97.957	14.539	987.520	752.109
98.972	14.648	986.742	751.940
99.987	14.598	985.988	751.076
101.001	14.639	984.819	750.304
102.016	14.532	984.273	749.338
103.030	14.593	983.562	749.007
104.045	14.645	982.560	748.409
105.060	14.592	981.768	747.504
106.074	14.410	980.530	745.680
107.089	14.248	979.706	744.261
108.103	14.250	978.961	743.637
109.118	14.327	977.866	743.087
110.133	14.198	977.087	741.852
111.147	14.394	975.810	741.691
112.162	14.351	975.451	741.158
113.176	14.380	975.369	741.164
114.191	14.361	974.239	740.154
115.206	14.380	973.341	739.491
116.220	14.390	972.295	738.674
117.235	14.330	971.255	737.552
118.249	14.336	970.735	737.118
119.264	14.342	969.858	736.416
120.279	14.294	969.232	735.664
121.293	14.346	968.179	735.026
122.308	14.264	967.508	734.092
123.322	14.261	966.569	733.302
124.337	14.259	965.646	732.526
125.352	14.192	964.500	731.298
126.366	14.166	963.632	730.460
127.381	14.356	962.275	730.200
128.395	14.275	961.924	729.516
129.410	14.407	960.542	728.977
130.424	14.477	959.859	728.702
131.439	14.432	959.181	727.926
132.454	14.404	958.723	727.393
133.468	14.458	957.882	726.925
134.483	14.518	956.907	726.384
135.497	14.490	955.995	725.506
136.512	14.422	955.779	724.979
137.527	14.567	954.798	724.804
138.541	14.522	954.000	723.937
139.556	14.400	953.427	722.911
140.570	14.578	952.956	723.261
141.585	14.762	951.853	723.153
142.600	14.763	951.023	722.467
143.614	14.718	950.457	721.777
144.629	14.771	949.526	721.233
145.643	14.641	948.616	719.917
146.658	14.633	947.319	718.837
147.673	14.474	946.906	717.775
148.687	14.636	945.959	717.691
149.702	14.447	945.215	716.250
150.716	14.379	944.310	715.208
151.731	14.405	943.759	714.839
152.746	14.611	942.680	714.844
153.760	14.627	942.262	714.532
154.775	14.615	941.766	714.041
155.789	14.552	941.145	713.235
156.804	14.525	940.229	712.365
157.819	14.705	939.715	712.680
158.833	14.777	939.155	712.500
159.848	14.923	937.779	712.014
160.862	14.854	936.776	710.894
161.877	14.586	936.166	709.232
162.892	14.546	935.106	708.194
163.906	14.538	934.272	707.468
164.921	14.597	933.536	707.099
165.935	14.606	932.683	706.429
166.950	14.601	931.901	705.751
167.964	14.813	930.691	705.666
168.979	14.741	929.750	704.589
169.994	14.632	929.206	703.652
171.008	14.719	928.707	703.581
172.023	14.943	927.967	703.902
173.037	14.863	927.160	702.889
174.052	14.723	926.673	701.868
175.067	14.753	925.836	701.298
176.081	14.633	925.325	700.348
177.096	14.651	924.398	699.659
178.110	14.809	923.825	699.823
179.125	14.739	923.470	699.200
180.140	14.795	922.778	698.850
181.154	14.753	922.719	698.568
182.169	14.862	921.964	698.390
183.183	14.974	921.446	698.403
184.198	14.962	920.746	697.761
185.213	14.920	919.743	696.763
186.227	15.035	919.221	696.785
187.242	15.079	918.697	696.509
188.256	15.112	918.427	696.380
189.271	15.117	917.412	695.571
190.286	14.820	916.698	693.732
191.300	14.657	915.660	692.212
192.315	14.614	915.562	691.897
193.329	14.744	914.424	691.515
194.344	14.811	914.222	691.579
195.359	14.747	913.569	690.759
196.373	15.183	912.855	691.958
197.388	15.202	912.525	691.727
198.402	15.249	911.903	691.385
199.417	15.229	911.425	690.881
200.432	15.203	910.889	690.307
201.446	15.301	910.362	690.248
202.461	15.282	910.009	689.841
203.475	15.290	909.154	689.166
204.490	15.339	908.051	688.470
205.504	15.202	907.548	687.465
206.519	15.091	907.081	686.597
207.534	15.040	906.325	685.754
208.548	15.202	905.639	685.837
209.563	15.287	904.752	685.452
210.577	15.294	904.255	685.044
211.592	15.518	903.466	685.299
212.607	15.369	903.106	684.358
213.621	15.150	902.751	683.135
214.636	15.248	901.566	682.577
215.650	15.441	900.672	682.624
216.665	15.433	900.263	682.222
217.680	15.487	899.678	681.939
218.694	15.609	898.736	681.657
219.709	15.518	898.153	680.786
220.723	15.463	897.854	680.279
221.738	15.362	897.492	679.532
222.753	15.593	896.044	679.309
223.767	15.518	895.924	678.858
224.782	15.546	895.370	678.490
225.796	15.542	895.048	678.170
226.811	15.632	894.359	677.952
227.826	15.573	893.418	676.941
228.840	15.522	892.832	676.229
229.855	15.556	891.718	675.463
230.869	15.528	890.893	674.669
231.884	15.462	890.389	673.960
232.899	15.610	889.480	673.807
233.913	15.376	889.144	672.553
234.928	15.474	888.274	672.230
235.942	15.414	887.626	671.440
236.957	15.350	886.925	670.592
237.972	15.533	886.416	670.879
238.986	15.503	886.026	670.407
240.001	15.436	885.535	669.706
241.015	15.605	884.733	669.717
242.030	15.647	884.365	669.545
243.045	15.550	883.969	668.798
244.059	15.617	882.826	668.142
245.074	15.566	882.485	667.622
246.088	15.718	882.005	667.804
247.103	15.824	881.653	667.898
248.117	15.867	880.896	667.438
249.132	16.031	880.187	667.491
250.147	16.123	879.887	667.569
251.161	16.118	879.249	667.004
252.176	16.048	878.364	665.999
253.190	15.979	878.116	665.480
254.205	16.143	877.101	665.299
255.220	16.190	876.626	665.066
256.234	16.121	875.977	664.240
257.249	16.008	875.711	663.535
258.263	15.998	875.288	663.118
259.278	16.072	873.968	662.351
260.293	16.312	873.376	662.785
261.307	16.194	873.098	662.049
262.322	16.279	872.168	661.619
263.336	16.353	871.607	661.426
264.351	16.423	870.779	661.014
265.366	16.382	870.115	660.292
266.380	16.368	869.779	659.921
267.395	16.397	869.062	659.431
268.409	16.233	868.162	658.054
269.424	16.235	867.471	657.478
270.439	16.289	866.757	657.090
271.453	16.167	866.174	656.113
272.468	16.441	865.320	656.473
273.482	16.183	865.294	655.393
274.497	16.433	864.616	655.793
275.512	16.291	864.029	654.739
276.526	16.330	863.449	654.392
277.541	16.376	863.010	654.181
278.555	16.365	862.626	653.787
279.570	16.597	861.800	654.000
280.585	16.541	861.309	653.355
281.599	16.463	860.210	652.164
282.614	16.447	859.585	651.571
283.628	16.516	859.320	651.575
284.643	16.549	858.388	650.938
285.657	16.418	858.061	650.130
286.672	16.469	857.573	649.897
287.687	16.523	856.698	649.387
288.701	16.433	856.231	648.630
289.716	16.685	855.208	648.760
290.730	16.581	855.109	648.233
291.745	16.709	854.431	648.149
292.760	16.548	853.975	647.129
293.774	16.734	853.247	647.230
294.789	16.655	852.706	646.465
295.803	16.559	851.820	645.368
296.818	16.708	851.218	645.421
297.833	16.793	850.251	644.955
298.847	16.661	849.768	644.030
299.862	16.735	849.501	644.051
300.876	16.771	849.086	643.816
301.891	16.783	848.315	643.220
302.906	16.841	848.072	643.201
303.920	16.909	847.334	642.843
304.935	16.855	847.073	642.383
305.949	16.924	846.322	642.019
306.964	16.748	845.783	640.885
307.979	16.842	845.005	640.596
308.993	16.931	844.439	640.447
310.008	16.903	844.111	640.034
311.022	16.830	843.260	639.055
312.037	16.909	842.462	638.694
313.052	16.901	841.560	637.923
314.066	16.838	841.145	637.316
315.081	16.678	841.007	636.550
316.095	16.787	840.587	636.586
317.110	16.834	839.769	636.089
318.125	16.889	839.270	635.861
319.139	16.870	839.086	635.594
320.154	16.847	838.282	634.841
321.168	16.938	837.642	634.641
322.183	16.927	837.096	634.131
323.197	16.987	836.459	633.816
324.212	16.896	836.100	633.147
325.227	16.920	835.266	632.551
326.241	17.040	834.762	632.561
327.256	16.977	834.297	631.917
328.270	16.957	833.895	631.483
329.285	16.838	833.287	630.524
330.300	16.865	832.795	630.197
331.314	16.826	832.351	629.658
332.329	17.000	831.999	629.981
333.343	17.095	831.638	630.007
334.358	17.084	830.912	629.358
335.373	17.110	830.530	629.112
336.387	17.125	830.393	629.007
337.402	17.076	830.603	628.929
338.416	17.133	829.904	628.554
339.431	17.197	829.540	628.460
340.446	17.319	828.848	628.332
341.460	17.387	828.650	628.375
342.475	17.498	828.149	628.353
343.489	17.444	827.697	627.754
344.504	17.438	827.294	627.371
345.519	17.549	826.917	627.439
346.533	17.656	826.192	627.226
347.548	17.302	825.955	625.687
348.562	17.356	825.239	625.291
349.577	17.418	824.345	624.784
350.592	17.454	823.469	624.195
351.606	17.384	823.049	623.565
352.621	17.233	822.367	622.442
353.635	17.448	821.774	622.725
354.650	17.299	821.718	622.082
355.665	17.355	821.112	621.774
356.679	17.520	820.193	621.624
357.694	17.457	819.472	620.793
358.708	17.536	818.833	620.541
359.723	17.566	818.242	620.147
360.738	17.504	817.890	619.600
361.752	17.551	817.337	619.299
362.767	17.519	816.807	618.726
363.781	17.698	816.305	618.942
364.796	17.641	816.108	618.530
365.810	17.717	815.706	618.445
366.825	17.948	815.088	618.760
367.840	17.867	814.930	618.290
368.854	17.705	814.236	617.125
369.869	17.601	814.090	616.583
370.883	17.688	813.199	616.168
371.898	17.931	813.111	616.922
372.913	17.942	812.677	616.579
373.927	17.983	811.608	615.863
374.942	17.841	811.578	615.275
375.956	17.916	811.476	615.412
376.971	17.949	810.794	614.960
377.986	18.020	810.350	614.823
379.000	18.103	809.831	614.672
380.015	18.127	809.367	614.354
381.029	18.025	808.637	613.379
382.044	18.075	808.170	613.149
383.059	18.184	807.323	612.843
384.073	18.008	807.394	612.212
385.088	17.960	806.529	611.329
386.102	17.910	806.096	610.768
387.117	17.909	805.169	610.010
388.132	18.123	804.784	610.428
389.146	18.143	804.294	610.073
390.161	18.113	803.873	609.594
391.175	18.140	803.329	609.222
392.190	18.038	803.074	608.612
393.205	18.049	802.656	608.281
394.219	18.038	802.384	607.981
395.234	18.003	801.679	607.269
396.248	18.102	801.137	607.156
397.263	17.870	800.883	606.086
398.278	17.818	800.441	605.513
399.292	18.139	799.759	606.083
400.307	18.035	798.832	604.958
401.321	17.878	799.150	604.587
402.336	17.982	798.638	604.517
403.350	18.142	797.844	604.427
404.365	18.101	797.745	604.153
405.380	18.237	797.482	604.383
406.394	18.371	796.915	604.370
407.409	18.408	796.230	603.930
408.423	18.449	796.181	603.984
409.438	18.586	795.425	603.838
410.453	18.387	795.450	603.101
411.467	18.294	795.408	602.691
412.482	18.618	794.572	603.143
413.496	18.628	794.053	602.730
414.511	18.501	793.928	602.135
415.526	18.494	793.362	601.629
416.540	18.670	792.400	601.465
417.555	18.701	791.782	601.050
418.569	18.564	792.125	600.778
419.584	18.682	791.682	600.800
420.599	18.478	790.939	599.470
421.613	156.575	1370.953	1795.090
422.628	135.461	1455.457	1795.194
