DTS Sentinel unit serial number:	SN413079Multiplexer serial number:	ORYXHardware model number:	OX4-SRSoftware version number:	ORYX F/W v4.00 Oryx Data Collector v3.7.2.0data status	okinstallation	princeton_trtdifferential loss correction	single-endedforward channel	channel 1reverse channel	N/Adate	2019/09/19time	03:34:35forward acquisition time	60.00reverse acquisition time	0.00gamma	496.2192k internal	0.2343k external	0.2343temperature offset calibration	1.0020default loss term (dB/km)	0.3790temperature slope calibration	1.0000multiplexer offset coefficient	1.0000multiplexer slope coefficient	1.0000fibre end	0.00T internal ref (°C)	20.59T ext. ref 1 (°C)	0.64T ext. ref 2 (°C)	14.40length (m)	temperature (°C)	Stokes	anti-Stokes-747.200	800.000	-0.099	-0.402
-746.185	800.000	-0.055	0.211
-745.171	31.377	-0.156	0.134
-744.156	16.630	0.220	-0.174
-743.142	-35.098	-0.385	-0.210
-742.127	-98.821	-0.320	-0.082
-741.112	558.639	0.022	0.054
-740.098	52.350	-0.153	0.146
-739.083	562.162	0.073	0.177
-738.069	-200.000	0.006	0.076
-737.054	-170.092	-0.098	-0.003
-736.039	-12.847	-0.114	-0.074
-735.025	-47.699	0.210	-0.102
-734.010	-78.363	-0.309	-0.106
-732.996	210.564	-0.180	0.283
-731.981	-200.000	0.015	-0.330
-730.966	-118.599	-0.097	-0.017
-729.952	53.607	0.044	-0.042
-728.937	800.000	-0.024	-0.093
-727.923	36.412	0.216	0.190
-726.908	-117.676	-0.349	0.063
-725.894	-200.000	-0.037	-0.269
-724.879	354.169	-0.206	-0.409
-723.864	800.000	0.222	-0.677
-722.850	-200.000	0.058	-0.461
-721.835	731.904	-0.108	-0.289
-720.821	-200.000	-0.011	-0.191
-719.806	-149.589	0.077	-0.006
-718.791	-103.614	0.175	-0.041
-717.777	-200.000	0.024	-0.189
-716.762	-20.136	-0.144	-0.089
-715.748	32.741	-0.055	-0.048
-714.733	-192.530	0.374	0.003
-713.718	-141.089	-0.296	-0.030
-712.704	77.803	-0.120	-0.128
-711.689	-200.000	-0.013	0.298
-710.675	-26.154	0.015	0.009
-709.660	-2.546	-0.236	0.165
-708.645	386.419	-0.072	-0.150
-707.631	14.138	0.225	0.175
-706.616	-100.882	-0.178	-0.044
-705.602	210.223	0.220	0.344
-704.587	-200.000	-0.020	0.378
-703.572	-55.283	0.291	0.131
-702.558	-113.122	0.173	-0.034
-701.543	-75.079	-0.226	-0.081
-700.529	-33.509	0.116	0.064
-699.514	422.175	-0.022	0.047
-698.499	136.936	0.141	0.184
-697.485	323.289	0.062	0.119
-696.470	746.537	-0.068	0.183
-695.456	-200.000	-0.034	-0.179
-694.441	7.091	-0.354	-0.264
-693.426	-55.217	-0.232	-0.104
-692.412	-35.880	0.292	0.158
-691.397	-26.234	-0.107	0.063
-690.383	800.000	-0.072	-0.261
-689.368	800.000	0.180	-0.635
-688.354	-131.816	0.284	-0.037
-687.339	159.505	-0.072	0.100
-686.324	-8.184	-0.076	0.051
-685.310	201.409	0.048	-0.074
-684.295	-25.316	-0.124	-0.074
-683.281	800.000	-0.060	-0.172
-682.266	-89.100	-0.300	-0.089
-681.251	-79.672	-0.412	-0.139
-680.237	-30.852	0.288	0.163
-679.222	100.521	-0.120	-0.139
-678.208	-160.642	-0.239	-0.013
-677.193	-20.075	-0.090	0.055
-676.178	800.000	0.017	-0.075
-675.164	-154.142	-0.246	0.017
-674.149	-49.029	0.028	-0.013
-673.135	382.189	-0.137	-0.281
-672.120	165.166	0.109	0.153
-671.105	182.261	-0.162	0.238
-670.091	551.621	0.090	0.216
-669.076	-102.822	-0.112	-0.027
-668.062	62.336	-0.217	0.216
-667.047	-200.000	-0.060	0.329
-666.032	-200.000	0.021	0.218
-665.018	-1.717	0.078	0.055
-664.003	649.724	-0.132	-0.337
-662.989	201.555	-0.049	-0.075
-661.974	449.927	0.137	-0.303
-660.959	142.467	0.245	0.324
-659.945	-73.354	0.162	-0.059
-658.930	800.000	-0.044	0.177
-657.916	-157.843	-0.177	-0.010
-656.901	-200.000	0.070	-0.535
-655.886	-200.000	-0.010	0.140
-654.872	-113.844	-0.238	-0.046
-653.857	155.765	-0.144	0.198
-652.843	-14.076	0.241	-0.155
-651.828	-200.000	0.005	-0.141
-650.814	-92.621	0.211	-0.059
-649.799	-29.534	-0.157	0.090
-648.784	62.137	-0.062	-0.062
-647.770	127.084	0.315	0.398
-646.755	479.855	0.053	0.120
-645.741	-200.000	0.002	-0.111
-644.726	-100.400	0.182	0.045
-643.711	-74.905	0.240	0.086
-642.697	699.611	0.049	0.128
-641.682	-21.930	-0.124	0.075
-640.668	-78.377	0.127	0.043
-639.653	800.000	-0.121	0.410
-638.638	800.000	-0.052	-0.219
-637.624	71.394	-0.128	0.132
-636.609	-147.047	0.217	-0.019
-635.595	242.798	0.107	-0.179
-634.580	574.623	0.058	0.142
-633.565	2.146	-0.402	-0.290
-632.551	278.385	-0.065	-0.115
-631.536	-182.846	-0.021	-0.000
-630.522	55.662	-0.087	-0.084
-629.507	-94.271	-0.184	-0.050
-628.492	-21.728	0.089	0.054
-627.478	650.110	0.097	-0.247
-626.463	-200.000	0.061	-0.315
-625.449	-174.313	-0.322	-0.009
-624.434	39.014	0.153	0.136
-623.419	466.129	0.109	0.242
-622.405	-200.000	-0.032	-0.190
-621.390	28.655	-0.151	0.127
-620.376	-200.000	0.020	-0.147
-619.361	304.410	0.089	0.164
-618.346	-196.379	-0.260	0.002
-617.332	-57.170	-0.268	-0.118
-616.317	209.298	0.127	-0.198
-615.303	-58.789	0.219	-0.094
-614.288	290.979	0.023	0.042
-613.273	-21.829	-0.201	-0.122
-612.259	151.767	0.104	0.141
-611.244	800.000	-0.076	0.317
-610.230	-111.803	0.233	-0.047
-609.215	113.975	-0.131	0.159
-608.201	264.504	0.069	-0.120
-607.186	113.061	0.276	-0.334
-606.171	166.176	-0.178	-0.251
-605.157	650.631	0.041	-0.106
-604.142	337.480	0.043	0.083
-603.128	189.549	-0.067	-0.099
-602.113	-140.844	-0.359	-0.037
-601.098	106.970	0.047	-0.056
-600.084	-89.527	-0.274	0.080
-599.069	49.953	-0.321	-0.302
-598.055	-93.531	0.389	-0.107
-597.040	-200.000	0.015	-0.148
-596.025	-200.000	0.038	-0.200
-595.011	-24.334	0.169	-0.101
-593.996	-42.367	-0.102	-0.052
-592.982	27.498	0.134	0.112
-591.967	48.665	-0.065	0.061
-590.952	74.168	0.066	0.069
-589.938	29.573	-0.205	-0.174
-588.923	-75.494	0.363	0.129
-587.909	-200.000	0.028	0.138
-586.894	-200.000	-0.051	-0.260
-585.879	800.000	-0.028	0.098
-584.865	-79.921	-0.040	0.013
-583.850	2.358	-0.244	0.176
-582.836	-140.442	-0.118	0.012
-581.821	800.000	0.079	0.310
-580.806	-122.960	0.098	0.016
-579.792	-200.000	-0.002	-0.105
-578.777	-3.003	0.042	0.029
-577.763	800.000	-0.037	0.113
-576.748	-42.953	-0.256	-0.129
-575.733	218.717	-0.169	-0.269
-574.719	111.419	0.072	-0.086
-573.704	19.831	0.096	0.077
-572.690	-148.966	-0.125	0.010
-571.675	478.502	0.138	-0.311
-570.661	-119.251	-0.167	0.029
-569.646	313.509	0.078	0.146
-568.631	-200.000	0.024	-0.156
-567.617	47.202	0.143	0.133
-566.602	201.057	-0.177	-0.271
-565.588	-200.000	0.034	-0.263
-564.573	174.481	-0.211	-0.304
-563.558	-7.581	-0.099	0.067
-562.544	-200.000	-0.022	0.519
-561.529	-47.005	0.196	-0.095
-560.515	-78.064	0.332	0.114
-559.500	147.557	-0.073	-0.098
-558.485	-118.452	0.138	0.024
-557.471	800.000	-0.045	0.134
-556.456	38.055	-0.096	-0.085
-555.442	-105.554	-0.204	-0.046
-554.427	-23.964	0.208	0.124
-553.412	-69.109	-0.262	0.100
-552.398	184.126	-0.024	-0.036
-551.383	-161.957	-0.381	0.019
-550.369	-200.000	0.009	0.058
-549.354	800.000	0.106	-0.343
-548.339	194.420	0.124	0.186
-547.325	-85.107	0.178	-0.055
-546.310	800.000	-0.087	0.253
-545.296	-164.561	0.198	-0.009
-544.281	-66.263	0.181	0.071
-543.266	-65.719	-0.168	0.067
-542.252	-139.680	0.187	0.020
-541.237	14.578	-0.128	-0.099
-540.223	-200.000	-0.018	-0.370
-539.208	392.533	0.044	-0.092
-538.193	-48.851	0.295	-0.140
-537.179	-200.000	-0.110	-0.495
-536.164	-200.000	-0.023	0.202
-535.150	-107.501	-0.046	-0.010
-534.135	31.801	-0.093	0.080
-533.121	-200.000	0.009	0.394
-532.106	-200.000	0.022	0.166
-531.091	366.835	0.063	-0.127
-530.077	-50.543	0.095	0.044
-529.062	-86.095	0.218	-0.067
-528.048	144.022	0.096	-0.127
-527.033	-200.000	-0.001	0.069
-526.018	171.411	-0.096	0.137
-525.004	-110.662	0.458	0.094
-523.989	-200.000	0.053	0.247
-522.975	800.000	-0.086	0.264
-521.960	5.902	0.143	-0.105
-520.945	-123.136	0.274	-0.044
-519.931	-28.698	-0.170	-0.097
-518.916	-200.000	-0.011	-0.163
-517.902	-49.798	0.243	0.115
-516.887	201.644	0.099	0.151
-515.872	800.000	0.004	-0.017
-514.858	-200.000	0.030	0.238
-513.843	440.032	0.044	-0.095
-512.829	800.000	0.041	-0.176
-511.814	-200.000	0.037	0.310
-510.799	11.249	0.245	0.186
-509.785	-200.000	-0.021	0.332
-508.770	800.000	0.007	0.020
-507.756	-146.517	-0.269	0.023
-506.741	11.780	0.184	-0.140
-505.726	53.890	0.104	-0.099
-504.712	110.105	-0.256	-0.305
-503.697	457.875	-0.027	-0.060
-502.683	102.499	0.232	-0.269
-501.668	-164.301	-0.239	0.011
-500.653	800.000	0.071	-0.202
-499.639	338.643	-0.040	-0.077
-498.624	119.677	0.181	0.223
-497.610	441.566	0.026	-0.056
-496.595	173.247	0.090	0.128
-495.581	-183.861	-0.181	0.003
-494.566	-54.488	0.204	-0.091
-493.551	800.000	0.042	0.132
-492.537	-92.448	0.288	-0.080
-491.522	-108.394	0.335	0.072
-490.508	800.000	-0.042	0.173
-489.493	163.088	-0.071	-0.099
-488.478	47.375	0.164	-0.152
-487.464	-155.124	-0.310	-0.020
-486.449	-163.682	-0.394	0.018
-485.435	-56.866	-0.128	-0.056
-484.420	-15.303	-0.408	0.259
-483.405	-200.000	-0.026	-0.356
-482.391	173.936	-0.129	0.185
-481.376	-18.823	-0.126	0.078
-480.362	-112.296	-0.114	0.023
-479.347	49.816	0.382	-0.357
-478.332	-35.821	0.244	-0.131
-477.318	491.379	-0.168	-0.380
-476.303	-176.339	0.409	-0.011
-475.289	-200.000	-0.003	0.069
-474.274	56.674	-0.134	0.129
-473.259	-91.450	0.124	-0.035
-472.245	800.000	-0.047	0.161
-471.230	-102.603	-0.185	-0.044
-470.216	207.708	-0.068	0.104
-469.201	309.184	-0.154	0.285
-468.186	211.833	-0.229	0.358
-467.172	800.000	0.042	0.115
-466.157	309.859	-0.053	-0.098
-465.143	-200.000	0.023	0.183
-464.128	424.392	0.032	0.069
-463.113	-117.284	0.256	-0.046
-462.099	269.676	-0.117	-0.204
-461.084	197.683	0.162	-0.245
-460.070	-151.269	-0.297	-0.022
-459.055	646.086	-0.060	0.153
-458.040	-0.730	0.209	-0.147
-457.026	-29.791	-0.118	0.066
-456.011	-111.251	-0.219	0.044
-454.997	-123.793	0.096	0.015
-453.982	82.142	0.096	0.103
-452.968	-20.621	0.196	0.119
-451.953	523.236	0.114	-0.264
-450.938	-200.000	-0.019	-0.209
-449.924	-50.153	0.141	0.066
-448.909	-62.033	-0.189	0.078
-447.895	1.248	0.220	-0.157
-446.880	-200.000	-0.013	-0.178
-445.865	230.660	-0.059	-0.096
-444.851	102.678	-0.342	-0.396
-443.836	-130.810	0.143	0.019
-442.822	-176.351	-0.297	-0.008
-441.807	-200.000	-0.049	0.251
-440.792	26.665	0.048	0.039
-439.778	100.744	-0.172	-0.198
-438.763	-67.363	0.026	0.010
-437.749	-200.000	-0.035	-0.206
-436.734	-39.113	-0.057	0.029
-435.719	-200.000	0.029	-0.147
-434.705	-44.416	-0.235	-0.116
-433.690	701.787	-0.034	0.090
-432.676	-91.293	-0.275	0.078
-431.661	481.446	0.128	-0.287
-430.646	-20.807	0.255	-0.155
-429.632	131.744	-0.138	0.176
-428.617	98.141	-0.076	-0.087
-427.603	-109.992	-0.491	0.102
-426.588	-79.724	-0.275	0.092
-425.573	-12.812	-0.130	-0.084
-424.559	-23.002	0.425	0.253
-423.544	368.214	-0.138	0.276
-422.530	-118.169	0.367	0.065
-421.515	800.000	-0.045	-0.160
-420.500	598.936	-0.079	0.193
-419.486	-89.418	-0.309	-0.090
-418.471	88.362	0.159	0.175
-417.457	-200.000	-0.058	0.263
-416.442	-86.107	0.249	0.076
-415.428	-128.320	-0.367	-0.052
-414.413	-91.137	0.322	0.091
-413.398	118.255	-0.091	0.111
-412.384	-116.152	0.345	-0.063
-411.369	-182.124	-0.384	-0.007
-410.355	25.810	-0.315	-0.259
-409.340	-116.255	0.235	0.043
-408.325	-92.799	-0.293	-0.081
-407.311	-15.916	0.315	0.198
-406.296	3.945	-0.276	0.199
-405.282	-200.000	0.039	-0.208
-404.267	-156.655	0.191	-0.012
-403.252	-200.000	-0.018	-0.110
-402.238	281.993	-0.092	0.162
-401.223	-200.000	0.040	0.244
-400.209	-200.000	-0.038	0.397
-399.194	34.621	-0.189	-0.163
-398.179	612.763	0.045	-0.112
-397.165	-82.161	-0.070	-0.023
-396.150	28.358	0.257	-0.215
-395.136	-70.711	0.072	-0.027
-394.121	259.427	-0.205	0.349
-393.106	-12.726	-0.512	-0.330
-392.092	244.758	-0.182	0.302
-391.077	236.483	-0.138	-0.226
-390.063	-128.149	0.251	0.035
-389.048	148.938	-0.053	0.070
-388.033	128.703	-0.082	-0.103
-387.019	-69.162	0.452	0.172
-386.004	-200.000	0.076	0.371
-384.990	96.507	0.115	-0.129
-383.975	27.328	-0.202	-0.167
-382.960	324.214	-0.119	0.224
-381.946	4.334	-0.235	0.170
-380.931	70.462	0.314	-0.320
-379.917	-200.000	-0.022	0.386
-378.902	-74.734	0.149	-0.053
-377.888	723.720	0.085	-0.222
-376.873	249.382	0.129	-0.215
-375.858	404.274	0.150	0.312
-374.844	-67.767	-0.440	0.170
-373.829	800.000	0.108	-0.299
-372.815	-200.000	-0.058	-0.272
-371.800	-200.000	0.039	-0.427
-370.785	170.489	-0.108	0.153
-369.771	64.080	0.080	0.079
-368.756	-101.901	0.363	-0.087
-367.742	556.105	-0.121	-0.288
-366.727	-120.515	0.051	-0.009
-365.712	-42.468	-0.243	-0.122
-364.698	800.000	-0.052	0.181
-363.683	-117.833	0.218	-0.039
-362.669	-200.000	-0.001	-0.050
-361.654	111.000	0.063	0.075
-360.639	-200.000	0.041	0.212
-359.625	-43.700	0.134	-0.066
-358.610	33.465	-0.058	0.050
-357.596	-28.522	0.076	-0.043
-356.581	299.709	-0.218	-0.397
-355.566	9.890	-0.113	0.085
-354.552	-105.438	0.205	-0.046
-353.537	-200.000	0.004	-0.213
-352.523	-81.041	0.082	-0.027
-351.508	772.869	0.034	0.091
-350.493	800.000	0.081	0.282
-349.479	83.626	0.253	-0.272
-348.464	-32.110	-0.378	-0.208
-347.450	-40.386	-0.165	0.084
-346.435	-200.000	-0.038	-0.304
-345.420	280.022	0.057	-0.100
-344.406	-70.433	-0.087	0.032
-343.391	-125.272	0.194	0.029
-342.377	-115.771	0.334	-0.062
-341.362	-126.082	-0.220	-0.033
-340.348	-140.267	0.303	0.031
-339.333	-200.000	-0.005	-0.157
-338.318	349.579	-0.070	-0.136
-337.304	-200.000	0.014	0.063
-336.289	62.811	-0.211	0.208
-335.275	-99.724	0.172	-0.042
-334.260	-160.091	0.238	0.013
-333.245	-22.622	-0.158	0.094
-332.231	-200.000	0.056	-0.286
-331.216	34.087	0.156	0.134
-330.202	-130.500	0.038	-0.005
-329.187	-45.239	-0.161	-0.079
-328.172	-44.470	0.040	0.020
-327.158	42.732	-0.375	-0.336
-326.143	-57.987	-0.150	0.064
-325.129	14.648	0.294	0.226
-324.114	483.569	-0.119	-0.267
-323.099	-200.000	-0.009	0.128
-322.085	2.797	-0.035	-0.025
-321.070	-200.000	0.036	-0.275
-320.056	-105.623	-0.202	0.045
-319.041	-55.012	0.229	-0.102
-318.026	182.439	0.110	0.159
-317.012	70.163	-0.072	-0.073
-315.997	800.000	0.069	0.198
-314.983	53.101	0.258	0.243
-313.968	-200.000	0.019	0.218
-312.953	39.984	-0.273	-0.241
-311.939	254.418	-0.160	0.270
-310.924	-138.310	-0.414	0.045
-309.910	-200.000	0.012	-0.180
-308.895	-67.476	-0.195	0.075
-307.880	373.602	0.099	-0.198
-306.866	-118.816	0.234	0.041
-305.851	9.217	0.251	0.186
-304.837	-42.116	-0.189	-0.095
-303.822	-43.907	-0.193	-0.096
-302.807	-60.622	-0.152	-0.064
-301.793	-200.000	0.003	0.164
-300.778	-200.000	-0.004	0.122
-299.764	607.958	0.106	-0.261
-298.749	-33.159	0.249	-0.136
-297.735	11.730	-0.146	-0.110
-296.720	-200.000	-0.006	0.097
-295.705	53.441	0.193	0.182
-294.691	-7.517	-0.111	-0.074
-293.676	-78.556	0.341	0.115
-292.662	-54.028	-0.284	-0.127
-291.647	-130.976	-0.581	0.076
-290.632	-26.762	-0.153	-0.088
-289.618	-61.554	0.189	-0.078
-288.603	56.247	0.149	-0.143
-287.589	-200.000	-0.026	-0.405
-286.574	173.071	-0.167	0.237
-285.559	-200.000	-0.022	-0.286
-284.545	302.298	0.144	0.262
-283.530	202.541	-0.236	0.358
-282.516	-22.914	0.178	-0.105
-281.501	268.172	-0.187	0.323
-280.486	-16.767	-0.179	-0.112
-279.472	-7.942	0.120	-0.080
-278.457	30.806	-0.119	0.100
-277.443	-51.552	0.178	0.082
-276.428	-115.260	0.205	0.038
-275.413	800.000	0.065	-0.207
-274.399	-134.617	-0.122	-0.015
-273.384	-200.000	0.013	-0.090
-272.370	800.000	0.090	-0.298
-271.355	268.058	0.038	-0.066
-270.340	772.951	0.124	0.333
-269.326	-200.000	0.044	0.469
-268.311	-22.180	-0.142	0.085
-267.297	-184.957	0.211	-0.003
-266.282	152.391	0.108	-0.145
-265.267	800.000	-0.062	-0.186
-264.253	-129.251	0.062	-0.009
-263.238	146.856	0.230	-0.304
-262.224	166.906	-0.116	-0.162
-261.209	-68.129	-0.121	0.046
-260.195	-71.142	0.209	0.077
-259.180	-83.861	-0.257	0.081
-258.165	125.218	-0.137	-0.170
-257.151	8.302	0.137	0.101
-256.136	800.000	0.012	0.043
-255.122	331.792	0.071	0.135
-254.107	21.520	-0.076	0.061
-253.092	-92.712	-0.201	-0.055
-252.078	600.776	0.104	0.253
-251.063	-32.175	-0.107	0.059
-250.049	-159.223	0.087	0.005
-249.034	-141.428	-0.051	0.005
-248.019	-200.000	-0.012	0.061
-247.005	-56.253	-0.334	0.146
-245.990	-200.000	-0.208	0.001
-244.976	-29.446	-0.142	-0.080
-243.961	-121.014	-0.094	0.015
-242.946	-72.791	0.354	0.128
-241.932	16.208	0.156	-0.121
-240.917	153.405	0.070	-0.095
-239.903	-200.000	-0.017	0.220
-238.888	106.918	0.048	-0.056
-237.873	-141.222	-0.087	-0.009
-236.859	-38.159	-0.053	0.028
-235.844	-62.679	-0.353	0.144
-234.830	116.014	0.072	-0.086
-233.815	30.369	-0.174	-0.146
-232.800	103.900	-0.289	0.334
-231.786	-102.090	0.093	-0.022
-230.771	-103.352	-0.277	0.064
-229.757	-200.000	-0.031	-0.353
-228.742	-42.861	0.216	-0.108
-227.727	-200.000	0.033	0.151
-226.713	22.786	0.233	0.187
-225.698	-167.542	0.108	-0.004
-224.684	-101.212	-0.066	-0.016
-223.669	-200.000	-0.048	-0.227
-222.655	111.242	-0.160	-0.190
-221.640	-200.000	0.008	0.115
-220.625	-200.000	0.054	0.237
-219.611	-10.884	-0.260	-0.168
-218.596	-200.000	-0.031	0.139
-217.582	-64.749	-0.178	-0.071
-216.567	-65.591	0.158	0.062
-215.552	-200.000	-0.053	0.327
-214.538	800.000	0.074	-0.225
-213.523	-10.212	0.107	-0.070
-212.509	-200.000	0.008	-0.091
-211.494	800.000	0.070	0.232
-210.479	284.986	-0.118	0.208
-209.465	384.856	0.047	-0.095
-208.450	-85.542	-0.189	-0.058
-207.436	-122.436	0.175	0.028
-206.421	-200.000	-0.028	0.358
-205.406	178.237	0.199	-0.285
-204.392	-200.000	0.019	0.444
-203.377	0.989	-0.056	0.040
-202.363	-200.000	0.007	0.162
-201.348	-65.826	-0.198	-0.078
-200.333	-200.000	0.022	0.197
-199.319	667.765	-0.059	0.149
-198.304	-149.307	-0.173	0.013
-197.290	-46.188	0.412	-0.199
-196.275	-3.477	0.144	0.098
-195.260	-200.000	0.069	0.340
-194.246	-17.952	0.238	0.146
-193.231	800.000	0.092	0.310
-192.217	-157.254	0.277	0.016
-191.202	800.000	-0.049	0.182
-190.187	230.357	-0.067	0.107
-189.173	-200.000	0.010	-0.488
-188.158	31.547	0.216	-0.182
-187.144	-200.000	0.019	0.102
-186.129	384.644	-0.116	0.234
-185.114	-199.118	-0.044	-0.000
-184.100	-7.585	0.213	-0.141
-183.085	-200.000	-0.010	-0.266
-182.071	-200.000	0.006	0.169
-181.056	-131.048	0.304	0.040
-180.042	369.154	0.126	-0.249
-179.027	800.000	-0.043	-0.128
-178.012	800.000	-0.061	0.172
-176.998	-82.348	0.155	-0.049
-175.983	283.968	-0.107	-0.189
-174.969	32.472	-0.033	-0.028
-173.954	171.998	-0.355	0.500
-172.939	12.893	0.228	0.173
-171.925	-90.811	0.240	0.068
-170.910	-73.206	-0.301	0.108
-169.896	245.301	0.186	-0.306
-168.881	-104.543	0.250	-0.056
-167.866	-156.086	-0.149	-0.009
-166.852	-102.401	0.292	0.068
-165.837	-200.000	-0.021	-0.097
-164.823	20.611	0.160	0.127
-163.808	21.517	-0.220	-0.176
-162.793	777.225	0.050	-0.133
-161.779	-71.149	-0.284	-0.104
-160.764	99.045	-0.092	-0.104
-159.750	-17.844	0.487	0.299
-158.735	-57.107	0.264	0.114
-157.720	-120.478	0.217	0.036
-156.706	-200.000	0.026	0.160
-155.691	800.000	-0.060	0.185
-154.677	-80.000	-0.139	-0.045
-153.662	133.724	-0.174	-0.220
-152.647	493.733	-0.075	-0.168
-151.633	438.549	0.135	0.288
-150.618	272.528	-0.019	0.032
-149.604	343.325	-0.072	-0.137
-148.589	800.000	0.029	0.121
-147.574	45.159	-0.115	-0.103
-146.560	106.602	0.221	0.256
-145.545	-158.936	-0.480	-0.027
-144.531	259.485	-0.033	-0.055
-143.516	-196.882	-0.187	-0.001
-142.502	-127.730	0.441	-0.062
-141.487	-200.000	0.017	0.351
-140.472	25.541	-0.150	-0.122
-139.458	-200.000	0.177	-0.000
-138.443	12.259	0.306	0.230
-137.429	200.473	-0.037	0.055
-136.414	-88.149	0.168	0.049
-135.399	-162.708	-0.096	-0.005
-134.385	-117.547	0.328	-0.058
-133.370	-123.698	0.102	0.016
-132.356	52.469	0.175	0.163
-131.341	-148.821	-0.261	-0.021
-130.326	-59.293	-0.261	0.110
-129.312	80.975	-0.051	0.054
-128.297	-99.741	0.070	0.017
-127.283	485.906	-0.041	0.091
-126.268	-87.278	-0.361	-0.107
-125.253	183.187	-0.170	-0.245
-124.239	-200.000	-0.006	-0.300
-123.224	-8.853	0.217	-0.142
-122.210	118.433	-0.082	-0.098
-121.195	-200.000	0.510	-0.002
-120.180	401.124	0.063	0.129
-119.166	312.496	0.059	0.108
-118.151	548.264	-0.178	0.416
-117.137	328.422	-0.110	0.205
-116.122	21.613	0.216	0.172
-115.107	-68.356	-0.262	0.100
-114.093	-200.000	-0.066	0.367
-113.078	17.363	0.103	-0.080
-112.064	369.062	0.053	0.105
-111.049	-41.763	0.144	-0.072
-110.034	96.715	0.125	0.140
-109.020	87.146	0.368	0.397
-108.005	209.037	0.204	0.311
-106.991	222.511	0.049	0.077
-105.976	-117.424	0.117	-0.021
-104.962	-35.430	0.068	0.036
-103.947	800.000	0.070	0.231
-102.932	32.934	-0.045	0.038
-101.918	-200.000	-0.030	0.289
-100.903	800.000	0.088	-0.292
-99.889	-100.382	0.442	-0.107
-98.874	-85.391	-0.033	0.010
-97.859	-24.834	0.185	-0.107
-96.845	-200.000	-0.014	0.097
-95.830	800.000	0.089	0.366
-94.816	-113.832	0.136	-0.026
-93.801	319.694	0.180	-0.334
-92.786	283.350	-0.068	-0.118
-91.772	-8.012	-0.134	-0.088
-90.757	280.778	-0.085	0.149
-89.743	-200.000	0.042	-0.260
-88.728	-182.374	0.132	-0.002
-87.713	82.955	0.058	-0.062
-86.699	207.215	0.102	-0.155
-85.684	33.522	-0.153	-0.130
-84.670	-118.797	-0.219	0.038
-83.655	-100.792	-0.255	-0.061
-82.640	105.331	0.030	0.035
-81.626	800.000	-0.063	0.212
-80.611	-200.000	-0.026	0.133
-79.597	-150.112	0.228	0.017
-78.582	-200.000	0.064	-0.284
-77.567	-63.376	-0.376	-0.151
-76.553	-97.495	0.197	-0.050
-75.538	115.468	-0.205	0.244
-74.524	-98.897	-0.289	0.072
-73.509	483.570	0.210	0.466
-72.494	-200.000	0.044	0.534
-71.480	-163.402	-0.139	-0.006
-70.465	-99.440	-0.099	-0.024
-69.451	800.000	-0.032	-0.130
-68.436	-200.000	-0.057	-0.300
-67.422	-200.000	-0.006	0.087
-66.407	200.390	-0.144	0.215
-65.392	-200.000	-0.008	0.085
-64.378	105.021	-0.085	0.097
-63.363	-45.181	0.132	0.064
-62.349	-200.000	-0.066	0.413
-61.334	64.765	-1.018	-1.001
-60.319	59.363	0.874	0.839
-59.305	800.000	-0.442	-1.373
-58.290	205.504	0.804	1.218
-57.276	800.000	0.357	1.427
-56.261	-200.000	136.126	668.371
-55.246	334.851	1676.370	3164.850
-54.232	134.127	2801.830	3537.696
-53.217	85.721	2172.484	2327.263
-52.203	31.515	1602.294	1342.060
-51.188	23.595	1352.854	1084.884
-50.173	21.577	1316.579	1043.736
-49.159	48.955	1390.432	1271.821
-48.144	45.199	1399.103	1256.653
-47.130	23.943	1347.137	1082.249
-46.115	20.736	1328.299	1047.800
-45.100	20.532	1322.715	1042.130
-44.086	20.512	1319.967	1039.800
-43.071	20.459	1317.776	1037.719
-42.057	20.449	1315.899	1036.139
-41.042	20.492	1314.133	1034.966
-40.027	20.473	1312.714	1033.691
-39.013	20.470	1310.826	1032.149
-37.998	20.622	1309.018	1031.581
-36.984	20.501	1307.121	1029.333
-35.969	20.594	1305.311	1028.414
-34.954	20.584	1303.704	1027.047
-33.940	20.585	1302.493	1026.061
-32.925	20.732	1301.050	1025.748
-31.911	20.618	1300.117	1024.304
-30.896	20.638	1298.490	1023.095
-29.881	20.717	1297.076	1022.405
-28.867	20.641	1296.282	1021.295
-27.852	20.758	1294.645	1020.649
-26.838	20.791	1292.677	1019.253
-25.823	20.736	1291.640	1018.072
-24.809	20.791	1290.026	1017.080
-23.794	20.722	1288.962	1015.795
-22.779	20.650	1287.600	1014.265
-21.765	20.622	1286.814	1013.441
-20.750	20.598	1285.364	1012.120
-19.736	20.632	1283.951	1011.164
-18.721	20.579	1283.292	1010.299
-17.706	20.492	1282.119	1008.831
-16.692	20.454	1280.572	1007.353
-15.677	20.533	1279.569	1006.979
-14.663	20.536	1278.475	1006.098
-13.648	20.547	1277.152	1005.078
-12.633	20.497	1276.549	1004.278
-11.619	20.537	1275.998	1004.036
-10.604	20.601	1275.193	1003.731
-9.590	20.515	1274.041	1002.284
-8.575	20.491	1272.867	1001.184
-7.560	20.517	1271.940	1000.567
-6.546	20.542	1271.377	1000.228
-5.531	20.558	1270.468	999.565
-4.517	20.493	1269.888	998.696
-3.502	20.577	1268.878	998.341
-2.487	20.557	1268.098	997.574
-1.473	20.557	1263.411	993.852
-0.458	18.874	1248.115	972.263
0.556	14.547	1232.920	935.726
1.571	10.946	1241.948	922.116
2.586	10.271	1257.483	929.691
3.600	10.575	1245.145	922.219
4.615	7.967	1173.295	854.939
5.629	3.002	1103.897	779.178
6.644	0.696	1087.894	756.279
7.659	0.605	1086.645	754.893
8.673	0.664	1085.134	754.068
9.688	0.605	1083.653	752.681
10.702	0.839	1080.850	751.831
11.717	3.775	1084.748	769.099
12.731	10.148	1092.851	806.645
13.746	15.479	1099.898	838.466
14.761	17.215	1101.962	848.647
15.775	16.548	1100.128	843.833
16.790	15.590	1098.142	837.458
17.804	15.013	1096.695	833.408
18.819	14.604	1095.429	830.341
19.834	14.375	1094.285	828.262
20.848	14.101	1093.540	826.261
21.863	13.915	1092.478	824.462
22.877	13.763	1091.581	822.958
23.892	13.702	1090.780	821.982
24.907	13.628	1090.284	821.168
25.921	13.762	1089.490	821.158
26.936	13.782	1088.730	820.614
27.950	13.814	1088.148	820.260
28.965	13.915	1086.312	819.302
29.980	13.915	1085.253	818.432
30.994	13.814	1084.387	817.208
32.009	13.981	1083.471	817.265
33.023	13.896	1082.466	816.017
34.038	13.996	1080.939	815.286
35.053	13.812	1080.753	814.171
36.067	13.949	1079.277	813.657
37.082	13.770	1079.034	812.524
38.096	13.821	1078.494	812.298
39.111	13.860	1077.233	811.468
40.126	13.814	1075.951	810.202
41.140	13.765	1075.093	809.246
42.155	13.696	1073.645	807.750
43.169	13.615	1072.712	806.581
44.184	13.638	1071.554	805.750
45.199	13.810	1070.387	805.636
46.213	13.717	1069.252	804.264
47.228	13.846	1068.062	803.920
48.242	13.829	1066.805	802.819
49.257	13.802	1066.015	802.025
50.271	13.808	1065.380	801.506
51.286	13.842	1064.216	800.723
52.301	13.723	1063.749	799.728
53.315	13.764	1062.006	798.542
54.330	13.757	1061.199	797.834
55.344	13.671	1060.474	796.802
56.359	13.653	1060.072	796.344
57.374	13.770	1058.843	795.912
58.388	13.682	1057.908	794.714
59.403	13.672	1056.948	793.876
60.417	13.721	1056.283	793.540
61.432	13.731	1055.195	792.701
62.447	13.707	1054.462	791.965
63.461	13.544	1054.069	790.824
64.476	13.597	1052.862	790.099
65.490	13.579	1052.205	789.452
66.505	13.642	1051.641	789.261
67.520	13.695	1050.384	788.498
68.534	13.756	1049.620	788.142
69.549	13.776	1048.630	787.424
70.563	13.652	1048.204	786.446
71.578	13.566	1047.316	785.306
72.593	13.575	1046.931	784.991
73.607	13.591	1045.594	783.992
74.622	13.649	1044.805	783.604
75.636	13.635	1044.266	783.065
76.651	13.600	1043.608	782.340
77.666	13.669	1042.800	781.989
78.680	13.543	1042.423	781.044
79.695	13.666	1041.434	780.811
80.709	13.704	1040.947	780.556
81.724	13.723	1039.979	779.851
82.739	13.744	1039.708	779.676
83.753	13.914	1038.723	779.666
84.768	13.834	1037.565	778.357
85.782	13.919	1036.996	778.255
86.797	13.832	1035.998	777.033
87.812	13.744	1035.440	776.136
88.826	13.736	1034.240	775.126
89.841	13.887	1032.872	774.737
90.855	13.959	1032.167	774.475
91.870	13.859	1031.586	773.508
92.884	13.822	1030.658	772.570
93.899	13.810	1030.019	771.967
94.914	13.912	1028.933	771.556
95.928	13.932	1028.226	771.052
96.943	13.820	1027.411	769.853
97.957	13.780	1026.364	768.818
98.972	13.831	1025.669	768.465
99.987	13.881	1024.710	767.908
101.001	13.868	1023.653	766.987
102.016	13.874	1022.613	766.168
103.030	13.927	1022.093	765.958
104.045	13.879	1021.483	765.212
105.060	13.966	1020.711	764.965
106.074	13.785	1019.615	763.242
107.089	13.705	1018.471	761.954
108.103	13.689	1017.664	761.206
109.118	13.701	1016.526	760.342
110.133	13.762	1015.860	760.060
111.147	13.642	1014.633	758.521
112.162	13.828	1013.968	758.810
113.176	13.892	1013.015	758.321
114.191	13.814	1012.439	757.466
115.206	13.724	1012.170	756.790
116.220	13.824	1011.067	756.353
117.235	13.843	1009.982	755.559
118.249	13.974	1008.866	755.253
119.264	13.737	1008.667	753.959
120.279	13.748	1008.027	753.465
121.293	13.757	1006.539	752.326
122.308	13.795	1005.495	751.652
123.322	13.786	1005.033	751.201
124.337	13.750	1003.777	750.032
125.352	13.804	1002.593	749.323
126.366	13.797	1001.411	748.345
127.381	13.710	1000.326	747.076
128.395	13.712	1000.038	746.804
129.410	13.809	998.662	746.143
130.424	13.762	998.114	745.457
131.439	13.794	997.157	744.820
132.454	13.761	996.549	744.151
133.468	13.866	995.320	743.639
134.483	13.781	994.605	742.660
135.497	13.811	993.764	742.099
136.512	13.835	992.608	741.281
137.527	13.898	991.783	740.877
138.541	13.867	991.299	740.313
139.556	13.867	990.423	739.594
140.570	13.964	989.816	739.506
141.585	13.976	988.913	738.820
142.600	13.973	988.004	738.061
143.614	14.235	986.754	738.223
144.629	14.014	986.416	736.928
145.643	14.214	984.703	736.469
146.658	13.967	984.453	735.122
147.673	13.969	983.860	734.622
148.687	13.830	983.285	733.516
149.702	13.992	982.051	733.246
150.716	13.890	981.696	732.466
151.731	13.997	980.524	731.998
152.746	14.080	979.621	731.624
153.760	13.990	979.126	730.793
154.775	13.999	979.180	730.807
155.789	14.131	978.105	730.522
156.804	14.200	977.179	730.067
157.819	14.133	976.834	729.453
158.833	14.226	976.092	729.242
159.848	14.229	975.213	728.533
160.862	14.295	973.679	727.611
161.877	14.191	973.126	726.677
162.892	14.149	972.149	725.700
163.906	14.055	971.638	724.845
164.921	14.099	970.800	724.347
165.935	14.105	969.261	723.162
166.950	14.139	968.619	722.768
167.964	14.056	967.914	721.816
168.979	14.154	966.644	721.230
169.994	14.252	965.999	721.108
171.008	14.216	965.720	720.682
172.023	14.136	964.836	719.613
173.037	14.255	964.207	719.592
174.052	14.247	963.339	718.848
175.067	14.213	962.779	718.219
176.081	14.201	962.113	717.609
177.096	14.222	961.607	717.255
178.110	14.174	960.956	716.502
179.125	14.252	960.057	716.104
180.140	14.332	959.784	716.179
181.154	14.296	958.987	715.366
182.169	14.423	958.471	715.464
183.183	14.427	957.805	714.919
184.198	14.507	957.061	714.646
185.213	14.520	956.049	713.880
186.227	14.495	955.807	713.531
187.242	14.608	954.712	713.133
188.256	14.538	954.636	712.714
189.271	14.410	953.611	711.341
190.286	14.433	952.805	710.772
191.300	14.459	951.855	710.111
192.315	14.332	951.300	709.094
193.329	14.336	950.776	708.659
194.344	14.443	950.021	708.487
195.359	14.444	949.555	708.082
196.373	14.611	948.835	708.191
197.388	14.540	948.791	707.795
198.402	14.498	947.978	706.949
199.417	14.553	946.975	706.368
200.432	14.586	946.679	706.227
201.446	14.745	946.178	706.463
202.461	14.660	945.473	705.515
203.475	14.721	945.326	705.602
204.490	14.700	944.203	704.610
205.504	14.670	943.240	703.706
206.519	14.692	942.488	703.173
207.534	14.671	942.329	702.906
208.548	14.767	941.550	702.664
209.563	14.667	940.845	701.654
210.577	14.821	939.787	701.452
211.592	14.705	939.554	700.728
212.607	14.821	938.640	700.469
213.621	14.865	937.892	700.036
214.636	14.737	937.485	699.135
215.650	14.779	936.647	698.623
216.665	14.916	935.638	698.382
217.680	14.913	935.138	697.934
218.694	14.851	934.672	697.262
219.709	14.910	933.847	696.833
220.723	14.926	933.066	696.255
221.738	14.767	932.896	695.406
222.753	14.923	931.738	695.130
223.767	14.885	931.473	694.710
224.782	14.982	930.446	694.287
225.796	15.066	929.986	694.229
226.811	15.074	929.199	693.616
227.826	14.991	928.916	692.999
228.840	15.095	927.739	692.490
229.855	15.098	926.495	691.511
230.869	15.128	925.787	691.045
231.884	15.025	925.737	690.523
232.899	15.031	925.080	689.996
233.913	15.034	923.955	689.109
234.928	15.116	923.783	689.255
235.942	15.081	922.880	688.378
236.957	15.085	922.276	687.883
237.972	15.082	921.796	687.450
238.986	15.030	921.362	686.853
240.001	15.100	920.214	686.223
241.015	15.115	919.482	685.681
242.030	15.181	919.190	685.671
243.045	15.171	918.263	684.876
244.059	15.296	917.331	684.634
245.074	15.123	916.917	683.557
246.088	15.205	916.510	683.526
247.103	15.337	915.683	683.389
248.117	15.203	915.515	682.658
249.132	15.334	914.587	682.437
250.147	15.376	913.765	681.935
251.161	15.381	913.006	681.329
252.176	15.408	912.879	681.283
253.190	15.427	912.245	680.823
254.205	15.447	911.482	680.278
255.220	15.584	910.584	680.101
256.234	15.551	909.789	679.312
257.249	15.551	909.174	678.794
258.263	15.464	908.680	678.014
259.278	15.671	908.020	678.296
260.293	15.666	907.303	677.682
261.307	15.625	907.156	677.346
262.322	15.817	906.184	677.335
263.336	15.700	905.022	675.933
264.351	15.754	904.776	675.910
265.366	15.772	904.047	675.377
266.380	15.664	903.362	674.373
267.395	15.678	902.730	673.894
268.409	15.695	902.120	673.450
269.424	15.755	901.143	672.899
270.439	15.761	900.752	672.571
271.453	15.868	899.548	672.039
272.468	15.799	899.371	671.576
273.482	15.843	898.763	671.237
274.497	15.729	898.456	670.494
275.512	15.846	897.590	670.253
276.526	15.853	896.951	669.746
277.541	15.791	896.616	669.191
278.555	15.819	896.075	668.837
279.570	15.892	895.156	668.383
280.585	15.979	894.520	668.192
281.599	15.959	893.749	667.480
282.614	15.853	893.407	666.744
283.628	15.980	892.169	666.263
284.643	16.150	891.517	666.389
285.657	16.156	891.014	665.977
286.672	16.081	890.141	664.973
287.687	16.028	889.674	664.354
288.701	15.907	889.277	663.523
289.716	16.066	888.953	663.849
290.730	16.174	887.875	663.407
291.745	16.182	887.331	662.976
292.760	16.049	886.965	662.123
293.774	16.117	886.144	661.715
294.789	16.038	885.642	660.972
295.803	16.163	884.705	660.703
296.818	16.126	884.033	659.998
297.833	16.205	883.498	659.853
298.847	16.210	882.986	659.432
299.862	16.324	882.583	659.515
300.876	16.315	881.825	658.856
301.891	16.182	881.533	658.059
302.906	16.206	880.707	657.480
303.920	16.297	880.423	657.565
304.935	16.465	879.568	657.519
305.949	16.423	878.918	656.815
306.964	16.286	878.469	655.887
307.979	16.402	877.566	655.604
308.993	16.441	877.229	655.448
310.008	16.474	876.271	654.801
311.022	16.525	875.751	654.550
312.037	16.346	875.498	653.610
313.052	16.327	874.982	653.095
314.066	16.431	874.345	652.964
315.081	16.495	873.428	652.469
316.095	16.481	873.022	652.053
317.110	16.517	872.448	651.704
318.125	16.371	871.871	650.655
319.139	16.452	871.420	650.571
320.154	16.562	871.126	650.720
321.168	16.449	870.272	649.590
322.183	16.562	869.579	649.447
323.197	16.583	869.334	649.289
324.212	16.482	868.911	648.527
325.227	16.687	867.972	648.553
326.241	16.503	867.777	647.646
327.256	16.534	866.865	647.028
328.270	16.615	866.428	646.954
329.285	16.520	866.118	646.300
330.300	16.513	865.257	645.574
331.314	16.512	864.940	645.278
332.329	16.581	864.514	645.167
333.343	16.630	863.822	644.781
334.358	16.667	863.695	644.766
335.373	16.754	863.021	644.539
336.387	16.770	862.608	644.234
337.402	16.798	862.367	644.105
338.416	16.623	862.261	643.302
339.431	16.802	861.596	643.428
340.446	16.845	860.994	643.087
341.460	16.844	860.625	642.748
342.475	16.906	860.423	642.777
343.489	16.989	859.849	642.607
344.504	17.044	859.199	642.271
345.519	17.105	858.690	642.066
346.533	17.026	858.138	641.297
347.548	17.010	858.023	641.091
348.562	16.859	857.404	640.003
349.577	16.819	856.933	639.445
350.592	16.912	855.876	638.951
351.606	16.842	855.554	638.389
352.621	16.800	855.041	637.791
353.635	16.933	854.137	637.563
354.650	17.029	853.343	637.273
355.665	17.132	852.720	637.138
356.679	16.985	852.428	636.310
357.694	17.122	851.221	635.868
358.708	17.030	850.921	635.243
359.723	17.129	850.312	635.103
360.738	17.163	849.498	634.565
361.752	17.096	848.954	633.853
362.767	17.270	848.652	634.222
363.781	17.166	848.385	633.577
364.796	17.308	847.582	633.452
365.810	17.243	847.561	633.135
366.825	17.409	846.768	633.107
367.840	17.261	846.069	631.975
368.854	17.295	845.728	631.794
369.869	17.321	845.238	631.466
370.883	17.288	844.784	630.949
371.898	17.512	844.383	631.425
372.913	17.456	843.992	630.869
373.927	17.384	843.447	630.139
374.942	17.390	842.994	629.768
375.956	17.415	842.609	629.515
376.971	17.589	842.048	629.684
377.986	17.567	842.080	629.573
379.000	17.553	841.535	629.057
380.015	17.535	840.807	628.391
381.029	17.608	839.962	627.973
382.044	17.714	839.578	628.021
383.059	17.671	838.528	627.021
384.073	17.660	838.526	626.923
385.088	17.502	837.882	625.805
386.102	17.508	837.534	625.512
387.117	17.623	836.855	625.371
388.132	17.588	835.999	624.549
389.146	17.607	835.599	624.264
390.161	17.757	835.252	624.500
391.175	17.770	834.685	624.068
392.190	17.710	833.865	623.179
393.205	17.763	833.613	623.130
394.219	17.650	833.481	622.562
395.234	17.597	833.168	622.082
396.248	17.619	832.433	621.558
397.263	17.567	832.406	621.294
398.278	17.642	831.794	621.054
399.292	17.696	831.112	620.685
400.307	17.734	830.445	620.274
401.321	17.647	830.250	619.757
402.336	17.752	829.218	619.311
403.350	17.771	829.064	619.209
404.365	17.857	828.347	618.932
405.380	17.827	828.167	618.636
406.394	17.874	827.738	618.430
407.409	17.889	827.557	618.295
408.423	17.856	827.443	618.036
409.438	18.052	826.542	618.015
410.453	17.947	826.018	617.188
411.467	18.161	825.483	617.506
412.482	17.954	825.256	616.535
413.496	18.244	824.903	617.265
414.511	18.112	824.575	616.488
415.526	18.036	824.222	615.896
416.540	18.250	823.289	615.914
417.555	17.964	823.212	614.771
418.569	18.245	822.727	615.365
419.584	18.195	822.328	614.835
420.599	18.264	821.813	614.642
421.613	115.794	1302.106	1492.435
422.628	100.508	1372.040	1492.486
