DTS Sentinel unit serial number:	SN413079Multiplexer serial number:	ORYXHardware model number:	OX4-SRSoftware version number:	ORYX F/W v4.00 Oryx Data Collector v3.7.2.0data status	okinstallation	princeton_trtdifferential loss correction	single-endedforward channel	channel 1reverse channel	N/Adate	2019/09/12time	08:48:11forward acquisition time	60.00reverse acquisition time	0.00gamma	496.2192k internal	0.2311k external	0.2311temperature offset calibration	1.0044default loss term (dB/km)	0.3790temperature slope calibration	1.0000multiplexer offset coefficient	1.0000multiplexer slope coefficient	1.0000fibre end	0.00T internal ref (°C)	33.95T ext. ref 1 (°C)	1.72T ext. ref 2 (°C)	30.63length (m)	temperature (°C)	Stokes	anti-Stokes-747.200	-104.154	-0.325	0.077
-746.185	-200.000	-0.032	0.234
-745.171	800.000	0.064	0.276
-744.156	800.000	0.110	0.353
-743.142	800.000	0.086	-0.259
-742.127	-200.000	-0.018	0.140
-741.112	-86.153	0.366	0.115
-740.098	143.867	-0.348	0.471
-739.083	76.086	-0.127	0.137
-738.069	-89.387	0.194	0.058
-737.054	-115.420	0.063	-0.012
-736.039	320.009	-0.054	0.103
-735.025	800.000	0.093	0.354
-734.010	-97.454	0.247	0.065
-732.996	-136.264	-0.500	-0.059
-731.981	-200.000	-0.021	0.342
-730.966	-134.957	-0.256	0.031
-729.952	77.625	-0.224	-0.242
-728.937	-156.944	-0.373	0.023
-727.923	322.416	-0.098	0.189
-726.908	-129.910	-0.433	0.060
-725.894	-48.125	-0.355	-0.174
-724.879	342.194	0.063	-0.126
-723.864	351.883	0.161	0.324
-722.850	-200.000	-0.000	0.155
-721.835	10.554	0.186	0.144
-720.821	148.024	-0.252	0.344
-719.806	184.569	-0.133	0.201
-718.791	-55.699	0.334	0.152
-717.777	141.898	0.161	-0.217
-716.762	79.215	-0.184	0.200
-715.748	51.874	0.141	-0.136
-714.733	630.181	-0.043	-0.110
-713.718	-32.276	0.262	0.149
-712.704	216.398	0.127	0.205
-711.689	75.846	-0.102	-0.109
-710.675	-68.242	-0.266	0.105
-709.660	371.655	-0.076	0.156
-708.645	-58.383	0.162	-0.072
-707.631	66.693	-0.236	0.243
-706.616	27.516	0.046	0.040
-705.602	326.352	0.168	-0.325
-704.587	595.379	0.031	-0.078
-703.572	-21.094	-0.120	-0.074
-702.558	-200.000	-0.018	0.082
-701.543	-98.398	-0.115	0.030
-700.529	800.000	-0.105	-0.309
-699.514	27.976	-0.088	0.075
-698.499	165.317	-0.042	-0.061
-697.485	800.000	-0.129	-0.391
-696.470	-120.696	-0.408	0.070
-695.456	-122.739	0.089	0.015
-694.441	800.000	-0.092	0.289
-693.426	422.292	0.072	0.157
-692.412	-200.000	-0.026	0.150
-691.397	209.333	0.095	-0.151
-690.383	-144.482	-0.400	-0.038
-689.368	-200.000	-0.072	0.386
-688.354	-103.226	-0.407	0.097
-687.339	-200.000	0.013	-0.194
-686.324	-200.000	0.029	-0.162
-685.310	-200.000	0.005	0.171
-684.295	-58.766	0.077	-0.034
-683.281	-200.000	-0.041	-0.276
-682.266	-184.041	-0.244	-0.004
-681.251	-23.679	-0.102	-0.062
-680.237	2.130	-0.188	-0.137
-679.222	-200.000	-0.052	-0.357
-678.208	352.914	-0.083	0.166
-677.193	-122.561	-0.196	0.032
-676.178	-9.239	-0.278	-0.188
-675.164	-200.000	-0.003	-0.199
-674.149	-14.822	0.428	-0.278
-673.135	-200.000	-0.021	-0.125
-672.120	-200.000	-0.025	0.213
-671.105	111.218	0.106	-0.129
-670.091	-45.963	-0.138	0.069
-669.076	-200.000	-0.015	-0.150
-668.062	-140.124	-0.317	-0.034
-667.047	800.000	0.129	0.392
-666.032	-94.922	-0.262	0.072
-665.018	-200.000	0.074	-0.573
-664.003	-145.425	-0.247	0.022
-662.989	-200.000	-0.001	-0.069
-661.974	-155.746	-0.528	0.034
-660.959	185.414	0.080	-0.121
-659.945	150.147	-0.057	-0.078
-658.930	147.418	-0.116	0.158
-657.916	-91.119	-0.478	-0.139
-656.901	-200.000	-0.057	-0.274
-655.886	13.848	0.107	-0.084
-654.872	118.747	0.089	-0.111
-653.857	-88.786	0.159	0.048
-652.843	30.971	-0.047	-0.040
-651.828	-200.000	0.007	0.057
-650.814	35.216	-0.159	0.141
-649.799	27.315	-0.082	-0.070
-648.784	-200.000	-0.040	0.212
-647.770	-75.709	-0.233	0.084
-646.755	165.058	0.157	0.224
-645.741	-94.328	0.079	0.022
-644.726	800.000	0.081	-0.296
-643.711	521.919	-0.179	-0.425
-642.697	-160.188	-0.231	0.013
-641.682	147.153	0.198	0.270
-640.668	-34.833	0.217	-0.120
-639.653	-120.385	-0.172	0.030
-638.638	800.000	-0.077	0.293
-637.624	5.413	-0.162	0.121
-636.609	5.727	-0.222	0.166
-635.595	4.638	-0.111	-0.083
-634.580	29.855	-0.176	0.151
-633.565	220.399	-0.008	-0.013
-632.551	-112.674	0.543	0.109
-631.536	-81.590	0.223	0.074
-630.522	-24.129	0.198	-0.120
-629.507	251.294	-0.127	0.219
-628.492	800.000	0.024	0.086
-627.478	-9.558	0.124	0.083
-626.463	-71.181	-0.442	0.168
-625.449	-32.970	0.126	-0.071
-624.434	800.000	-0.003	-0.010
-623.419	152.638	0.119	0.164
-622.405	-122.342	-0.233	-0.038
-621.390	-143.452	-0.106	-0.010
-620.376	-200.000	0.011	-0.130
-619.361	142.774	0.261	-0.350
-618.346	29.981	-0.128	-0.110
-617.332	-58.977	-0.362	-0.158
-616.317	-92.755	-0.105	-0.030
-615.303	91.200	0.049	-0.056
-614.288	-63.548	-0.205	-0.085
-613.273	-194.271	-0.394	-0.003
-612.259	-200.000	-0.054	-0.351
-611.244	39.518	0.059	0.054
-610.230	-200.000	0.055	0.403
-609.215	-69.751	0.087	-0.034
-608.201	-200.000	-0.020	-0.145
-607.186	87.031	-0.084	0.094
-606.171	59.975	-0.220	-0.219
-605.157	-57.633	0.157	0.070
-604.142	-200.000	-0.006	-0.336
-603.128	-200.000	0.033	-0.250
-602.113	442.518	-0.039	0.086
-601.098	-46.220	-0.098	0.049
-600.084	-200.000	0.109	0.566
-599.069	-57.980	0.167	-0.074
-598.055	-200.000	0.024	-0.233
-597.040	-24.855	-0.024	-0.014
-596.025	44.725	0.253	-0.234
-595.011	1.390	0.082	0.059
-593.996	800.000	0.024	0.097
-592.982	-160.962	0.086	-0.005
-591.967	159.332	-0.258	-0.362
-590.952	-55.014	0.286	0.130
-589.938	69.420	-0.188	0.195
-588.923	-200.000	-0.011	0.277
-587.909	-89.564	-0.240	0.071
-586.894	218.742	-0.142	0.229
-585.879	-104.327	0.411	-0.096
-584.865	800.000	-0.076	-0.234
-583.850	-200.000	0.014	-0.282
-582.836	193.850	0.162	0.247
-581.821	800.000	0.114	-0.426
-580.806	156.699	0.105	-0.147
-579.792	-66.086	-0.198	-0.080
-578.777	475.433	-0.074	-0.168
-577.763	800.000	0.026	0.086
-576.748	-66.417	0.063	0.025
-575.733	98.149	-0.028	0.033
-574.719	656.936	-0.047	0.123
-573.704	-125.060	-0.364	-0.056
-572.690	-200.000	-0.016	-0.162
-571.675	31.173	-0.075	0.065
-570.661	-49.305	0.214	0.103
-569.646	-111.756	-0.023	-0.005
-568.631	-200.000	0.012	0.139
-567.617	271.060	0.046	0.082
-566.602	-200.000	0.004	0.038
-565.588	-200.000	0.021	0.237
-564.573	150.109	0.075	0.102
-563.558	17.378	0.065	0.052
-562.544	-6.399	-0.188	-0.129
-561.529	-87.024	0.089	-0.027
-560.515	146.732	-0.112	-0.152
-559.500	95.014	0.153	-0.176
-558.485	4.402	-0.271	-0.200
-557.471	151.579	0.105	0.144
-556.456	800.000	0.046	-0.156
-555.442	24.073	0.061	0.051
-554.427	56.084	0.064	-0.063
-553.412	325.062	0.022	0.042
-552.398	-101.769	0.156	-0.038
-551.383	-61.737	0.056	0.024
-550.369	-49.878	-0.223	-0.107
-549.354	-78.747	-0.163	0.056
-548.339	108.517	-0.191	0.230
-547.325	26.800	0.070	-0.059
-546.310	12.623	-0.156	0.121
-545.296	800.000	0.033	-0.095
-544.281	188.816	0.164	0.247
-543.266	-200.000	-0.003	-0.161
-542.252	-159.335	-0.314	0.018
-541.237	12.789	-0.166	-0.129
-540.223	-200.000	0.070	-0.000
-539.208	204.768	-0.041	-0.064
-538.193	265.229	-0.138	0.242
-537.179	-97.567	-0.497	-0.130
-536.164	375.428	-0.138	-0.283
-535.150	124.316	-0.088	-0.111
-534.135	-122.122	-0.189	-0.031
-533.121	-112.143	-0.201	0.041
-532.106	-55.583	0.242	0.109
-531.091	24.199	0.084	-0.069
-530.077	-200.000	0.036	0.283
-529.062	-200.000	0.103	0.000
-528.048	84.529	-0.127	-0.140
-527.033	93.468	-0.167	-0.190
-526.018	-200.000	-0.000	-0.184
-525.004	-24.352	0.107	0.064
-523.989	-63.140	0.151	-0.063
-522.975	90.444	-0.052	-0.059
-521.960	164.505	-0.052	-0.074
-520.945	0.556	0.335	-0.241
-519.931	51.415	0.257	-0.246
-518.916	90.305	0.186	0.210
-517.902	-200.000	0.023	-0.271
-516.887	800.000	-0.171	-0.492
-515.872	75.242	-0.107	-0.114
-514.858	800.000	-0.050	-0.180
-513.843	800.000	-0.028	-0.122
-512.829	48.197	-0.410	-0.386
-511.814	800.000	0.079	0.345
-510.799	-200.000	-0.056	0.385
-509.785	-200.000	0.001	-0.178
-508.770	418.171	0.042	-0.091
-507.756	64.320	0.184	0.186
-506.741	-20.530	-0.189	-0.117
-505.726	-200.000	-0.026	-0.269
-504.712	-42.313	0.175	-0.090
-503.697	525.950	-0.162	-0.383
-502.683	-200.000	0.009	-0.145
-501.668	70.182	-0.067	0.070
-500.653	258.076	0.064	0.110
-499.639	-34.194	0.111	-0.061
-498.624	-200.000	0.009	0.091
-497.610	-151.323	-0.342	-0.026
-496.595	113.144	-0.207	0.252
-495.581	-102.424	-0.153	0.037
-494.566	190.463	0.098	-0.147
-493.551	-200.000	-0.000	0.117
-492.537	-73.206	0.319	-0.117
-491.522	422.416	-0.051	0.111
-490.508	125.474	-0.071	0.090
-489.493	-106.040	-0.297	-0.067
-488.478	336.443	0.111	-0.217
-487.464	800.000	-0.073	-0.229
-486.449	-22.877	-0.497	0.301
-485.435	235.581	-0.097	-0.161
-484.420	-46.832	0.071	-0.035
-483.405	-5.501	-0.274	-0.189
-482.391	-129.444	0.414	-0.058
-481.376	800.000	0.063	0.178
-480.362	-46.131	-0.212	0.105
-479.347	141.800	0.005	0.007
-478.332	-127.802	-0.112	-0.016
-477.318	-18.852	-0.239	0.149
-476.303	-169.959	-0.458	-0.016
-475.289	-94.963	-0.055	0.015
-474.274	-45.365	0.094	-0.047
-473.259	-94.075	-0.320	0.088
-472.245	-200.000	0.070	-0.333
-471.230	112.347	0.068	0.082
-470.216	-200.000	-0.021	0.110
-469.201	-72.460	0.251	-0.093
-468.186	-38.235	0.062	-0.033
-467.172	232.378	0.107	0.176
-466.157	9.528	-0.074	0.056
-465.143	-38.377	0.312	0.166
-464.128	56.400	0.238	0.232
-463.113	-81.357	0.032	0.011
-462.099	-125.710	0.192	0.029
-461.084	-176.050	0.318	-0.008
-460.070	91.899	0.141	-0.159
-459.055	-200.000	0.056	-0.294
-458.040	-200.000	-0.022	-0.437
-457.026	-200.000	-0.010	0.084
-456.011	-200.000	0.013	0.071
-454.997	385.914	-0.036	-0.074
-453.982	-84.544	0.145	0.046
-452.968	-145.033	0.009	-0.001
-451.953	-200.000	0.020	0.145
-450.938	-200.000	-0.002	0.048
-449.924	-32.617	-0.048	0.027
-448.909	-166.468	-0.233	-0.010
-447.895	-38.104	0.130	0.069
-446.880	288.876	-0.060	-0.108
-445.865	91.147	-0.226	0.255
-444.851	-200.000	-0.066	0.478
-443.836	-200.000	0.049	0.277
-442.822	147.437	0.077	-0.104
-441.807	-109.403	0.147	-0.031
-440.792	769.108	0.020	0.055
-439.778	-38.049	-0.167	0.089
-438.763	-97.043	-0.290	-0.076
-437.749	188.541	0.155	0.233
-436.734	-200.000	0.048	0.215
-435.719	-41.727	-0.090	-0.046
-434.705	262.805	-0.181	-0.315
-433.690	38.027	0.207	0.184
-432.676	182.321	-0.105	0.156
-431.661	120.326	-0.061	-0.076
-430.646	540.395	-0.068	0.162
-429.632	55.185	0.176	0.171
-428.617	-200.000	-0.031	-0.304
-427.603	583.910	0.038	0.094
-426.588	-200.000	-0.014	0.109
-425.573	800.000	-0.020	0.072
-424.559	249.103	0.027	0.046
-423.544	800.000	0.119	0.356
-422.530	82.882	0.191	0.209
-421.515	32.765	-0.061	0.053
-420.500	82.328	-0.263	-0.286
-419.486	255.613	-0.052	0.090
-418.471	-53.129	0.108	0.050
-417.457	178.142	0.110	-0.160
-416.442	-200.000	0.027	-0.179
-415.428	800.000	-0.059	0.242
-414.413	696.222	0.038	0.101
-413.398	49.434	-0.168	-0.159
-412.384	-57.620	-0.104	0.046
-411.369	-62.986	0.163	0.067
-410.355	-108.359	-0.151	-0.033
-409.340	83.835	-0.158	-0.173
-408.325	-145.644	0.275	-0.025
-407.311	800.000	-0.044	-0.192
-406.296	287.815	-0.074	0.134
-405.282	56.110	-0.382	-0.372
-404.267	-200.000	-0.013	0.238
-403.252	-200.000	0.065	-0.394
-402.238	-141.402	-0.222	-0.023
-401.223	77.160	-0.224	-0.238
-400.209	-35.935	0.059	0.032
-399.194	-200.000	-0.025	-0.186
-398.179	-159.867	-0.201	0.011
-397.165	-22.996	0.110	0.067
-396.150	546.942	0.093	0.222
-395.136	51.040	-0.097	0.093
-394.121	-32.804	-0.196	-0.109
-393.106	-120.107	0.359	0.062
-392.092	-53.037	-0.105	-0.049
-391.077	-5.600	0.270	0.185
-390.063	244.016	-0.108	-0.182
-389.048	-59.090	0.218	-0.094
-388.033	-188.601	-0.237	-0.003
-387.019	-200.000	-0.024	0.171
-386.004	-129.392	0.076	-0.011
-384.990	236.798	-0.159	0.264
-383.975	25.176	0.435	-0.361
-382.960	132.127	-0.164	-0.211
-381.946	-159.148	0.274	0.015
-380.931	665.121	0.074	0.191
-379.917	800.000	0.101	0.374
-378.902	87.656	-0.185	0.205
-377.888	800.000	-0.086	-0.337
-376.873	28.441	0.165	-0.139
-375.858	357.070	-0.041	0.082
-374.844	-22.240	-0.207	0.126
-373.829	-33.960	0.153	-0.084
-372.815	146.414	0.041	0.056
-371.800	136.059	-0.127	-0.166
-370.785	800.000	0.030	0.122
-369.771	543.475	-0.037	-0.087
-368.756	-124.068	-0.086	-0.013
-367.742	800.000	0.058	-0.221
-366.727	-98.586	-0.079	-0.020
-365.712	-114.580	-0.125	-0.024
-364.698	26.439	0.169	0.141
-363.683	800.000	-0.057	0.181
-362.669	-85.273	0.160	0.050
-361.654	-161.483	0.179	0.009
-360.639	-35.751	0.314	-0.170
-359.625	-200.000	0.065	-0.334
-358.610	-126.191	0.224	0.034
-357.596	-200.000	-0.004	0.234
-356.581	-38.348	-0.051	0.027
-355.566	-93.095	-0.169	0.047
-354.552	-65.188	0.244	-0.098
-353.537	433.004	0.066	0.142
-352.523	-200.000	0.595	0.003
-351.508	-200.000	-0.042	-0.353
-350.493	-200.000	0.055	-0.306
-349.479	-136.654	0.160	-0.019
-348.464	-200.000	-0.004	-0.035
-347.450	-22.174	0.108	-0.065
-346.435	369.496	-0.016	0.031
-345.420	-90.277	0.160	0.046
-344.406	-0.190	0.064	-0.045
-343.391	437.132	-0.035	-0.077
-342.377	-87.941	-0.344	0.103
-341.362	-48.577	-0.104	-0.050
-340.348	233.234	0.066	0.109
-339.333	117.260	-0.188	0.231
-338.318	-200.000	0.045	-0.283
-337.304	-200.000	0.019	-0.096
-336.289	-67.483	-0.171	0.067
-335.275	-59.407	-0.360	0.154
-334.260	-28.342	0.327	0.189
-333.245	10.833	0.177	-0.135
-332.231	689.689	-0.091	0.239
-331.216	27.756	-0.018	-0.015
-330.202	-143.357	-0.064	0.006
-329.187	-200.000	-0.027	-0.169
-328.172	14.358	0.098	0.076
-327.158	-160.655	0.257	-0.014
-326.143	-58.060	-0.122	-0.053
-325.129	-200.000	-0.005	0.272
-324.114	-47.087	0.152	0.074
-323.099	-103.109	-0.194	0.046
-322.085	413.883	-0.127	0.269
-321.070	-41.818	-0.163	0.083
-320.056	121.605	0.104	-0.130
-319.041	-200.000	-0.193	-0.001
-318.026	198.079	-0.131	0.200
-317.012	-7.051	-0.193	0.131
-315.997	-200.000	-0.047	-0.267
-314.983	-142.387	0.136	0.013
-313.968	-2.173	0.184	0.129
-312.953	24.848	0.109	-0.090
-311.939	296.301	-0.126	-0.230
-310.924	-200.000	0.003	-0.255
-309.910	-200.000	-0.065	0.313
-308.895	37.660	0.100	0.089
-307.880	-106.708	-0.299	0.066
-306.866	59.900	0.062	0.061
-305.851	126.953	-0.165	-0.209
-304.837	140.980	-0.280	0.369
-303.822	-200.000	-0.001	0.321
-302.807	109.049	0.089	-0.106
-301.793	242.595	-0.144	0.240
-300.778	-200.000	-0.011	-0.182
-299.764	28.137	0.313	-0.264
-298.749	-29.520	0.094	0.054
-297.735	184.717	0.138	0.204
-296.720	-200.000	0.013	-0.126
-295.705	295.186	0.123	-0.224
-294.691	415.127	-0.147	-0.313
-293.676	-27.338	-0.311	0.180
-292.662	79.689	0.192	-0.206
-291.647	-200.000	-0.013	0.081
-290.632	-200.000	-0.050	0.238
-289.618	800.000	0.104	-0.309
-288.603	-200.000	0.012	0.060
-287.589	232.012	-0.081	-0.132
-286.574	-45.764	0.120	-0.059
-285.559	75.264	-0.284	0.299
-284.545	76.188	0.067	0.071
-283.530	12.378	-0.147	0.113
-282.516	287.953	0.103	0.185
-281.501	-160.253	0.076	-0.004
-280.486	193.910	0.083	-0.126
-279.472	107.154	-0.142	0.168
-278.457	8.547	0.057	-0.043
-277.443	-146.511	-0.314	0.027
-276.428	271.674	-0.037	-0.065
-275.413	800.000	-0.043	0.164
-274.399	248.646	0.104	-0.175
-273.384	-142.660	0.094	-0.009
-272.370	800.000	-0.045	-0.124
-271.355	-200.000	0.031	-0.188
-270.340	-149.740	0.382	0.030
-269.326	-200.000	0.016	-0.251
-268.311	208.181	-0.077	0.119
-267.297	-140.886	0.042	0.004
-266.282	-200.000	-0.045	-0.278
-265.267	-53.166	-0.428	0.196
-264.253	-33.575	-0.134	-0.074
-263.238	-89.863	0.176	0.051
-262.224	-200.000	-0.099	0.500
-261.209	-179.475	0.206	0.004
-260.195	359.931	0.135	0.270
-259.180	45.277	0.144	-0.132
-258.165	128.765	0.217	0.276
-257.151	-149.018	0.434	0.035
-256.136	-200.000	-0.022	-0.473
-255.122	-194.759	-0.262	-0.002
-254.107	-200.000	0.306	0.001
-253.092	-200.000	0.008	0.279
-252.078	-79.666	0.112	0.038
-251.063	251.603	-0.130	0.220
-250.049	-119.194	0.279	0.048
-249.034	-14.778	0.098	-0.062
-248.019	-93.356	-0.206	0.057
-247.005	-168.821	0.153	-0.006
-245.990	-160.764	-0.167	0.009
-244.976	-106.922	-0.048	-0.011
-243.961	-63.322	0.216	-0.088
-242.946	-200.000	0.034	0.183
-241.932	22.451	0.334	-0.272
-240.917	-123.181	-0.150	0.024
-239.903	13.798	-0.315	0.244
-238.888	-20.168	-0.164	0.101
-237.873	-200.000	0.069	0.303
-236.859	18.238	0.024	-0.019
-235.844	396.346	0.260	0.541
-234.830	-34.108	0.188	-0.103
-233.815	-93.528	-0.268	-0.074
-232.800	-200.000	-0.017	0.133
-231.786	41.329	0.171	-0.154
-230.771	108.196	-0.179	0.212
-229.757	800.000	-0.094	0.341
-228.742	139.569	0.169	0.221
-227.727	-8.293	0.391	0.262
-226.713	-30.110	-0.271	-0.153
-225.698	-51.173	-0.310	0.145
-224.684	-11.080	0.085	-0.056
-223.669	-92.822	0.204	-0.057
-222.655	19.045	-0.115	0.091
-221.640	-200.000	-0.026	-0.307
-220.625	-68.630	-0.176	0.068
-219.611	148.712	-0.176	-0.237
-218.596	800.000	-0.074	0.309
-217.582	800.000	-0.055	-0.238
-216.567	177.467	-0.215	0.312
-215.552	800.000	0.041	0.140
-214.538	-200.000	-0.007	0.103
-213.523	-133.415	0.235	-0.029
-212.509	710.410	-0.018	0.049
-211.494	200.489	-0.152	-0.232
-210.479	251.574	0.059	-0.100
-209.465	120.807	0.246	-0.304
-208.450	-77.519	0.218	0.075
-207.436	-28.385	-0.269	0.154
-206.421	172.406	0.227	-0.324
-205.406	-155.052	0.273	-0.018
-204.392	-85.128	0.265	-0.083
-203.377	265.321	-0.071	0.123
-202.363	-200.000	-0.042	-0.228
-201.348	800.000	0.107	0.295
-200.333	739.127	-0.052	0.138
-199.319	-78.560	-0.409	0.139
-198.304	698.680	-0.052	0.136
-197.290	89.874	0.192	0.213
-196.275	369.995	-0.162	-0.326
-195.260	-77.194	0.536	-0.185
-194.246	-200.000	0.058	0.324
-193.231	800.000	0.040	0.144
-192.217	-156.152	0.203	-0.013
-191.202	777.509	0.096	-0.261
-190.187	302.371	0.174	-0.321
-189.173	-146.153	0.046	0.004
-188.158	118.213	-0.050	-0.062
-187.144	800.000	-0.082	-0.350
-186.129	-99.765	-0.158	0.039
-185.114	16.586	0.142	0.112
-184.100	696.386	-0.017	0.045
-183.085	800.000	-0.019	-0.072
-182.071	-81.836	0.291	0.095
-181.056	232.076	-0.126	0.205
-180.042	-200.000	-0.056	-0.280
-179.027	-127.966	-0.311	-0.044
-178.012	-82.434	0.259	-0.083
-176.998	167.362	0.110	-0.155
-175.983	253.071	-0.203	-0.343
-174.969	-24.036	0.241	-0.143
-173.954	-200.000	0.023	-0.349
-172.939	-31.529	-0.050	0.028
-171.925	353.454	-0.138	0.271
-170.910	-200.000	-0.008	0.056
-169.896	800.000	0.059	-0.211
-168.881	-140.774	0.181	-0.019
-167.866	336.683	0.082	0.158
-166.852	800.000	-0.055	-0.174
-165.837	231.754	0.060	-0.098
-164.823	800.000	-0.064	0.217
-163.808	31.830	-0.154	-0.131
-162.793	23.626	0.146	-0.120
-161.779	-113.766	0.381	0.074
-160.764	450.940	0.116	0.255
-159.750	-180.368	0.131	0.003
-158.735	800.000	-0.071	0.225
-157.720	-50.421	0.146	0.068
-156.706	-145.893	0.192	-0.017
-155.691	451.717	-0.069	0.152
-154.677	800.000	0.038	0.148
-153.662	-200.000	0.021	-0.438
-152.647	800.000	-0.137	0.385
-151.633	-60.578	0.174	0.073
-150.618	800.000	0.067	0.252
-149.604	-200.000	0.013	0.199
-148.589	8.671	0.163	0.122
-147.574	-69.081	0.014	0.006
-146.560	-200.000	0.006	-0.183
-145.545	-15.322	0.168	0.106
-144.531	82.996	-0.039	0.042
-143.516	-124.074	0.233	0.036
-142.502	374.189	0.062	0.126
-141.487	-129.273	0.353	0.049
-140.472	233.706	0.008	0.013
-139.458	440.238	0.156	-0.339
-138.443	638.067	-0.114	-0.288
-137.429	-200.000	-0.018	-0.420
-136.414	54.181	-0.288	0.275
-135.399	22.712	0.064	-0.052
-134.385	276.428	-0.117	-0.205
-133.370	-200.000	0.042	-0.343
-132.356	734.030	0.069	-0.183
-131.341	374.691	0.091	-0.183
-130.326	87.276	-0.144	0.158
-129.312	-91.892	-0.141	0.040
-128.297	-52.781	0.072	0.033
-127.283	-200.000	-0.034	-0.164
-126.268	178.328	0.102	-0.147
-125.253	-58.152	-0.285	0.123
-124.239	424.232	0.156	0.332
-123.224	800.000	0.065	0.188
-122.210	-200.000	-0.010	-0.086
-121.195	-42.659	0.246	0.124
-120.180	350.720	0.070	0.138
-119.166	-200.000	-0.025	-0.149
-118.151	-200.000	0.053	-0.287
-117.137	240.783	0.077	-0.128
-116.122	-164.556	0.369	-0.017
-115.107	276.015	0.059	0.104
-114.093	-200.000	-0.064	-0.293
-113.078	-121.272	-0.137	-0.023
-112.064	-47.434	0.281	-0.135
-111.049	672.313	0.246	-0.633
-110.034	-200.000	0.040	0.431
-109.020	-63.251	-0.055	-0.022
-108.005	-200.000	0.003	-0.418
-106.991	800.000	0.034	-0.137
-105.976	-54.881	-0.140	-0.062
-104.962	58.119	-0.085	0.082
-103.947	-124.797	-0.165	-0.025
-102.932	-135.022	-0.191	0.023
-101.918	-35.741	0.251	-0.135
-100.903	-163.022	-0.318	-0.015
-99.889	-36.211	-0.186	0.099
-98.874	-125.922	0.134	0.020
-97.859	-200.000	-0.021	0.331
-96.845	52.435	0.193	-0.182
-95.830	-200.000	-0.046	0.262
-94.816	-200.000	-0.028	-0.127
-93.801	5.207	0.057	0.042
-92.786	-101.726	0.274	-0.066
-91.772	-191.340	0.085	-0.001
-90.757	-200.000	-0.106	-0.522
-89.743	158.784	0.104	-0.143
-88.728	136.726	0.064	-0.082
-87.713	58.590	0.161	0.156
-86.699	-85.198	0.247	0.076
-85.684	-8.184	0.099	0.066
-84.670	-200.000	0.008	-0.178
-83.655	-73.135	-0.008	-0.003
-82.640	800.000	-0.113	0.320
-81.626	179.304	0.055	-0.080
-80.611	-22.718	0.222	0.133
-79.597	195.824	0.168	-0.252
-78.582	36.551	-0.290	-0.253
-77.567	-200.000	-0.003	0.098
-76.553	-29.956	0.216	0.122
-75.538	516.244	-0.089	0.205
-74.524	-200.000	0.004	0.223
-73.509	345.650	-0.077	0.149
-72.494	-63.322	0.314	0.128
-71.480	68.900	-0.195	0.198
-70.465	401.846	0.216	0.448
-69.451	26.014	-0.152	-0.125
-68.436	800.000	-0.048	-0.131
-67.422	800.000	-0.046	-0.145
-66.407	-76.785	0.292	0.101
-65.392	800.000	0.058	0.225
-64.378	800.000	0.070	-0.250
-63.363	-106.420	-0.293	0.065
-62.349	43.581	0.195	-0.176
-61.334	97.076	-0.727	-0.824
-60.319	-65.521	0.639	0.253
-59.305	800.000	-0.254	-0.782
-58.290	135.667	0.538	0.692
-57.276	800.000	0.520	1.476
-56.261	-200.000	98.899	584.320
-55.246	534.207	1406.032	3292.609
-54.232	149.054	2615.145	3495.594
-53.217	113.424	2178.774	2613.208
-52.203	45.779	1627.680	1486.869
-51.188	37.401	1362.376	1193.312
-50.173	34.167	1319.805	1136.705
-49.159	56.778	1369.322	1317.303
-48.144	60.908	1386.649	1358.949
-47.130	37.779	1340.884	1176.589
-46.115	34.265	1322.610	1139.529
-45.100	33.976	1318.085	1133.861
-44.086	33.919	1315.674	1131.399
-43.071	33.750	1313.792	1128.734
-42.057	33.843	1311.834	1127.557
-41.042	33.861	1309.699	1125.788
-40.027	33.849	1308.694	1124.805
-39.013	33.827	1306.681	1122.900
-37.998	33.852	1304.624	1121.234
-36.984	33.872	1302.856	1119.788
-35.969	33.927	1301.375	1118.798
-34.954	33.970	1299.632	1117.507
-33.940	34.063	1298.105	1116.695
-32.925	34.030	1296.669	1115.219
-31.911	34.033	1295.361	1114.071
-30.896	34.144	1293.611	1113.170
-29.881	34.044	1292.655	1111.721
-28.867	34.053	1291.010	1110.312
-27.852	34.138	1289.688	1109.626
-26.838	34.146	1288.133	1108.291
-25.823	34.017	1287.378	1106.847
-24.809	34.077	1285.303	1105.367
-23.794	33.931	1284.474	1103.764
-22.779	34.047	1282.482	1102.679
-21.765	34.015	1281.496	1101.605
-20.750	33.936	1280.634	1100.363
-19.736	34.054	1278.718	1099.354
-18.721	33.854	1278.067	1097.597
-17.706	33.873	1277.212	1096.929
-16.692	33.871	1275.533	1095.430
-15.677	33.942	1274.315	1094.751
-14.663	33.973	1273.382	1094.081
-13.648	33.811	1272.755	1092.569
-12.633	33.922	1271.468	1092.060
-11.619	33.962	1270.630	1091.522
-10.604	33.866	1269.704	1090.134
-9.590	33.891	1268.512	1089.209
-8.575	33.931	1267.583	1088.597
-7.560	33.909	1266.597	1087.584
-6.546	33.887	1265.745	1086.684
-5.531	33.769	1265.348	1085.627
-4.517	33.951	1263.824	1085.313
-3.502	33.948	1263.015	1084.561
-2.487	33.846	1262.406	1083.412
-1.473	33.944	1258.789	1080.824
-0.458	32.752	1243.885	1061.280
0.556	29.544	1225.883	1025.097
1.571	26.049	1230.726	1009.537
2.586	25.172	1246.528	1017.439
3.600	24.263	1235.112	1002.915
4.615	17.235	1159.800	904.410
5.629	6.758	1080.529	790.318
6.644	2.045	1059.983	752.042
7.659	1.714	1057.282	748.431
8.673	1.530	1056.121	746.639
9.688	1.572	1054.134	745.375
10.702	1.791	1053.091	745.643
11.717	8.142	1062.520	783.538
12.731	18.714	1077.475	846.924
13.746	24.172	1083.833	878.852
14.761	24.944	1085.404	883.859
15.775	25.094	1084.487	883.773
16.790	24.748	1083.863	881.480
17.804	24.809	1082.895	880.918
18.819	24.960	1082.593	881.335
19.834	25.087	1082.200	881.565
20.848	25.063	1082.435	881.559
21.863	25.036	1081.388	880.496
22.877	25.003	1080.724	879.714
23.892	24.875	1079.936	878.365
24.907	25.066	1079.155	878.588
25.921	25.040	1077.886	877.351
26.936	25.011	1076.787	876.239
27.950	24.938	1075.537	874.788
28.965	24.682	1073.709	871.973
29.980	24.892	1071.850	871.411
30.994	25.196	1070.717	871.887
32.009	24.912	1070.538	870.285
33.023	24.843	1069.461	868.996
34.038	24.895	1067.934	867.933
35.053	25.104	1067.348	868.392
36.067	25.036	1066.489	867.288
37.082	25.150	1065.828	867.226
38.096	25.395	1064.907	867.581
39.111	25.334	1064.754	867.085
40.126	25.137	1063.423	864.975
41.140	24.750	1061.800	861.715
42.155	24.690	1060.066	859.945
43.169	24.667	1059.072	858.950
44.184	24.716	1058.159	858.367
45.199	24.514	1057.503	856.788
46.213	24.633	1056.588	856.545
47.228	24.853	1055.909	856.971
48.242	24.984	1055.009	856.791
49.257	25.007	1053.974	855.986
50.271	25.124	1053.403	856.003
51.286	25.133	1052.831	855.508
52.301	25.043	1051.782	854.148
53.315	25.024	1050.815	853.198
54.330	24.997	1049.762	852.138
55.344	24.989	1049.385	851.721
56.359	25.017	1048.140	850.767
57.374	24.856	1047.027	849.023
58.388	24.828	1046.426	848.332
59.403	24.755	1045.600	847.240
60.417	24.488	1045.093	845.491
61.432	24.699	1044.117	845.622
62.447	24.843	1043.053	845.368
63.461	24.739	1042.830	844.620
64.476	24.717	1041.919	843.702
65.490	24.781	1040.465	842.755
66.505	24.657	1040.356	842.008
67.520	24.805	1039.421	841.870
68.534	24.670	1037.944	839.967
69.549	24.219	1037.461	837.383
70.563	24.157	1036.729	836.428
71.578	24.224	1035.885	835.987
72.593	24.158	1034.746	834.683
73.607	24.254	1034.244	834.652
74.622	24.575	1033.989	835.876
75.636	24.526	1033.728	835.361
76.651	24.502	1032.167	833.915
77.666	24.436	1031.461	832.962
78.680	24.475	1031.052	832.739
79.695	24.539	1030.622	832.618
80.709	24.498	1029.941	831.801
81.724	24.483	1029.255	831.108
82.739	24.788	1027.928	831.377
83.753	24.966	1027.974	832.170
84.768	25.303	1027.163	833.005
85.782	25.457	1026.006	832.706
86.797	25.358	1024.924	831.295
87.812	25.098	1024.304	829.517
88.826	25.348	1022.770	829.354
89.841	25.354	1022.075	828.748
90.855	25.279	1021.759	828.071
91.870	25.120	1020.878	826.553
92.884	24.981	1019.976	825.108
93.899	25.131	1018.546	824.565
94.914	25.339	1017.711	824.774
95.928	25.045	1017.073	822.833
96.943	24.873	1015.417	820.630
97.957	24.648	1014.474	818.767
98.972	24.521	1013.474	817.308
99.987	24.741	1013.042	817.890
101.001	25.048	1012.034	818.408
102.016	24.954	1011.709	817.642
103.030	24.950	1010.241	816.368
104.045	24.720	1009.462	814.618
105.060	24.699	1008.298	813.513
106.074	24.708	1008.382	813.549
107.089	25.177	1007.108	814.580
108.103	25.013	1005.740	812.655
109.118	24.730	1004.770	810.518
110.133	24.825	1003.974	810.233
111.147	24.569	1002.761	808.027
112.162	24.476	1001.951	806.880
113.176	24.593	1001.806	807.222
114.191	24.598	1000.648	806.241
115.206	24.355	999.651	804.269
116.220	24.355	998.400	803.192
117.235	24.423	997.631	802.806
118.249	24.316	997.300	801.987
119.264	24.208	996.367	800.682
120.279	24.349	995.622	800.646
121.293	24.434	994.747	800.254
122.308	24.458	993.729	799.471
123.322	24.468	992.313	798.306
124.337	24.304	991.121	796.545
125.352	23.769	989.759	792.990
126.366	23.717	989.150	792.202
127.381	24.471	989.159	795.501
128.395	24.870	988.762	796.887
129.410	25.011	987.662	796.556
130.424	24.936	986.668	795.351
131.439	25.035	985.602	794.859
132.454	24.908	985.036	793.771
133.468	25.014	984.036	793.363
134.483	24.999	983.793	793.030
135.497	25.136	983.034	792.955
136.512	25.232	982.177	792.619
137.527	25.111	981.255	791.272
138.541	25.143	980.377	790.632
139.556	25.115	979.988	790.125
140.570	25.138	979.576	789.825
141.585	25.308	977.941	789.187
142.600	25.285	976.969	788.229
143.614	25.458	976.152	788.258
144.629	25.481	975.602	787.846
145.643	25.328	974.116	785.906
146.658	25.267	972.366	784.160
147.673	25.047	971.932	782.781
148.687	24.968	970.804	781.456
149.702	25.045	969.502	780.674
150.716	24.979	969.054	779.956
151.731	25.112	968.158	779.749
152.746	25.265	968.089	780.289
153.760	25.310	967.355	779.821
154.775	25.462	966.407	779.648
155.789	25.389	965.626	778.633
156.804	25.287	964.747	777.415
157.819	25.502	963.843	777.546
158.833	25.615	963.439	777.640
159.848	25.521	962.395	776.322
160.862	25.447	960.929	774.755
161.877	25.295	960.182	773.429
162.892	25.284	959.542	772.794
163.906	25.241	958.398	771.619
164.921	25.190	957.433	770.558
165.935	25.423	956.549	770.776
166.950	25.403	955.482	769.765
167.964	25.359	954.834	768.987
168.979	25.295	953.360	767.458
169.994	25.287	952.572	766.720
171.008	25.410	952.343	766.995
172.023	25.385	951.754	766.341
173.037	25.209	950.376	764.416
174.052	25.146	948.958	762.940
175.067	25.127	948.566	762.478
176.081	25.261	948.410	762.854
177.096	25.143	947.595	761.632
178.110	24.911	946.614	759.789
179.125	24.722	945.709	758.193
180.140	24.728	945.906	758.309
181.154	25.030	945.207	758.963
182.169	25.355	944.971	760.083
183.183	25.514	944.751	760.511
184.198	25.268	943.896	758.714
185.213	25.275	943.367	758.250
186.227	25.360	942.671	757.982
187.242	25.370	941.729	757.203
188.256	25.427	941.262	756.998
189.271	25.533	940.397	756.684
190.286	25.133	939.230	753.995
191.300	24.597	937.738	750.482
192.315	23.608	936.569	745.329
193.329	23.759	936.027	745.466
194.344	24.700	936.196	749.479
195.359	25.285	936.121	751.804
196.373	25.356	935.674	751.673
197.388	25.151	935.499	750.610
198.402	25.252	934.472	750.140
199.417	25.287	933.980	749.826
200.432	25.067	933.054	748.100
201.446	24.934	932.419	746.970
202.461	24.924	931.621	746.223
203.475	24.037	930.150	741.285
204.490	23.338	928.519	737.014
205.504	24.259	928.818	741.018
206.519	24.772	928.961	743.195
207.534	24.920	928.866	743.671
208.548	25.362	928.623	745.244
209.563	25.048	927.489	742.966
210.577	25.152	926.466	742.513
211.592	25.385	926.565	743.489
212.607	25.481	925.523	742.986
213.621	25.497	924.897	742.482
214.636	25.471	924.445	741.946
215.650	25.379	923.776	740.965
216.665	25.648	922.992	741.379
217.680	25.398	922.317	739.741
218.694	25.073	920.858	737.170
219.709	24.915	920.274	735.986
220.723	25.077	920.179	736.511
221.738	25.422	918.979	736.902
222.753	25.306	918.634	736.083
223.767	25.320	918.591	736.040
224.782	25.751	918.013	737.278
225.796	25.589	917.595	736.213
226.811	25.107	915.792	732.734
227.826	24.261	914.718	728.353
228.840	24.491	914.627	729.158
229.855	24.579	913.439	728.504
230.869	24.133	912.574	725.931
231.884	24.602	912.563	727.770
232.899	25.395	912.747	731.083
233.913	25.265	911.701	729.652
234.928	25.145	911.479	728.921
235.942	25.103	911.013	728.313
236.957	24.805	910.024	726.251
237.972	24.912	909.347	726.077
238.986	24.979	908.867	725.904
240.001	24.811	908.943	725.219
241.015	25.103	907.853	725.465
242.030	25.182	907.264	725.252
243.045	25.294	906.806	725.274
244.059	25.529	906.307	725.758
245.074	25.168	905.305	723.436
246.088	24.881	904.671	721.707
247.103	25.162	904.092	722.315
248.117	25.779	904.353	724.944
249.132	26.096	903.931	725.815
250.147	26.037	903.425	725.107
251.161	26.164	903.493	725.609
252.176	26.096	902.627	724.576
253.190	26.194	902.277	724.625
254.205	26.328	901.793	724.711
255.220	26.386	900.785	724.068
256.234	26.182	900.047	722.596
257.249	26.156	898.794	721.420
258.263	26.063	898.850	721.031
259.278	26.172	897.709	720.486
260.293	26.352	897.332	720.839
261.307	26.171	896.682	719.531
262.322	25.938	896.087	718.060
263.336	25.148	893.691	712.937
264.351	24.184	891.901	707.622
265.366	24.377	891.928	708.346
266.380	25.348	892.815	712.845
267.395	25.906	892.244	714.539
268.409	25.613	892.087	713.187
269.424	25.863	891.066	713.299
270.439	25.915	890.454	712.950
271.453	26.159	889.852	713.370
272.468	26.199	889.718	713.356
273.482	26.350	888.853	713.198
274.497	25.845	887.914	710.389
275.512	25.504	886.712	708.021
276.526	25.968	887.090	710.089
277.541	26.030	886.807	710.042
278.555	25.792	886.051	708.439
279.570	25.616	885.276	707.066
280.585	25.885	884.632	707.547
281.599	25.842	883.460	706.375
282.614	25.197	882.415	702.951
283.628	25.158	881.681	702.150
284.643	25.529	881.749	703.596
285.657	25.101	880.617	700.958
286.672	24.891	879.859	699.471
287.687	25.530	879.890	701.929
288.701	25.632	879.271	701.771
289.716	25.239	878.226	699.347
290.730	25.155	877.735	698.565
291.745	24.928	876.655	696.758
292.760	25.189	876.818	697.843
293.774	26.204	877.527	702.297
294.789	26.651	876.758	703.352
295.803	26.496	876.307	702.330
296.818	26.655	875.295	702.072
297.833	26.117	874.418	699.222
298.847	25.894	873.837	697.833
299.862	26.334	873.445	699.161
300.876	26.473	873.615	699.772
301.891	26.371	872.470	698.399
302.906	25.930	871.874	696.159
303.920	26.400	871.018	697.226
304.935	26.458	871.359	697.662
305.949	26.536	870.242	697.002
306.964	26.112	869.518	694.730
307.979	26.474	868.986	695.638
308.993	26.700	868.853	696.337
310.008	26.741	868.258	695.957
311.022	26.268	868.058	693.920
312.037	26.135	867.243	692.696
313.052	26.022	866.190	691.361
314.066	25.065	864.472	686.263
315.081	24.720	863.819	684.365
316.095	25.753	863.738	688.192
317.110	26.066	864.050	689.575
318.125	25.243	862.209	684.907
319.139	24.201	860.976	679.891
320.154	24.217	860.762	679.725
321.168	25.252	860.966	683.769
322.183	25.905	860.945	686.181
323.197	25.922	860.739	686.019
324.212	26.347	859.934	686.932
325.227	26.196	859.916	686.284
326.241	26.150	858.745	685.117
327.256	25.996	858.358	684.162
328.270	25.914	857.603	683.188
329.285	25.697	857.009	681.831
330.300	25.630	855.892	680.629
331.314	25.915	855.657	681.461
332.329	26.296	855.733	682.900
333.343	26.439	855.025	682.815
334.358	26.424	855.159	682.805
335.373	26.314	854.983	682.188
336.387	26.683	854.671	683.273
337.402	26.813	854.394	683.481
338.416	26.741	854.013	682.844
339.431	26.925	853.781	683.289
340.446	27.156	853.515	683.886
341.460	26.885	852.920	682.330
342.475	26.620	852.291	680.772
343.489	26.732	852.120	680.996
344.504	27.187	851.244	681.943
345.519	27.200	851.478	682.117
346.533	27.225	850.838	681.639
347.548	27.190	850.224	680.956
348.562	27.295	849.532	680.734
349.577	27.127	848.902	679.539
350.592	27.149	848.253	679.043
351.606	27.021	847.795	678.138
352.621	27.030	846.635	677.184
353.635	26.793	846.055	675.776
354.650	26.274	844.161	672.275
355.665	25.282	842.890	667.516
356.679	25.810	842.503	669.113
357.694	26.250	842.565	670.736
358.708	26.026	841.751	669.197
359.723	26.394	842.087	670.768
360.738	26.881	841.401	671.970
361.752	26.858	841.210	671.673
362.767	27.163	840.618	672.267
363.781	27.485	840.414	673.235
364.796	27.795	839.363	673.479
365.810	27.468	839.812	672.571
366.825	27.509	839.157	672.140
367.840	27.127	838.612	670.232
368.854	26.863	837.374	668.211
369.869	26.747	837.043	667.464
370.883	26.917	836.719	667.771
371.898	26.674	836.670	666.779
372.913	26.844	836.073	666.866
373.927	27.051	835.328	666.977
374.942	27.137	835.130	667.076
375.956	27.200	834.643	666.857
376.971	27.326	834.298	666.983
377.986	27.593	834.251	667.866
379.000	27.580	832.936	666.708
380.015	27.395	832.561	665.670
381.029	27.460	832.163	665.531
382.044	27.476	832.002	665.404
383.059	27.486	831.087	664.647
384.073	27.624	830.377	664.527
385.088	27.590	829.527	663.660
386.102	27.371	828.827	662.246
387.117	27.230	828.240	661.207
388.132	26.814	827.340	658.919
389.146	26.618	826.218	657.255
390.161	26.795	826.505	658.066
391.175	27.129	826.440	659.168
392.190	26.929	825.088	657.308
393.205	25.393	823.164	650.162
394.219	24.079	821.200	643.808
395.234	23.897	820.935	642.883
396.248	25.631	822.504	650.329
397.263	27.102	823.555	656.421
398.278	26.904	822.747	655.004
399.292	26.817	822.121	654.134
400.307	26.754	821.701	653.514
401.321	26.830	821.710	653.738
402.336	27.361	821.138	655.139
403.350	27.714	821.115	656.333
404.365	27.908	820.986	656.870
405.380	28.167	820.797	657.591
406.394	28.342	820.392	657.836
407.409	28.289	819.360	656.762
408.423	28.069	819.412	655.955
409.438	28.225	819.150	656.244
410.453	28.276	818.625	655.949
411.467	28.230	817.572	654.885
412.482	28.150	817.668	654.616
413.496	28.198	817.627	654.696
414.511	28.310	816.910	654.467
415.526	28.179	816.166	653.346
416.540	28.122	815.596	652.626
417.555	27.914	814.801	651.190
418.569	27.868	814.511	650.737
419.584	27.894	814.192	650.519
420.599	27.667	813.508	649.108
421.613	107.453	1283.969	1447.601
422.628	92.883	1352.572	1447.697
