DTS Sentinel unit serial number:	SN413079Multiplexer serial number:	ORYXHardware model number:	OX4-SRSoftware version number:	ORYX F/W v4.00 Oryx Data Collector v3.7.2.0data status	okinstallation	princeton_trtdifferential loss correction	single-endedforward channel	channel 1reverse channel	N/Adate	2019/09/18time	04:34:35forward acquisition time	60.00reverse acquisition time	0.00gamma	496.2192k internal	0.2338k external	0.2338temperature offset calibration	0.9979default loss term (dB/km)	0.3790temperature slope calibration	1.0000multiplexer offset coefficient	1.0000multiplexer slope coefficient	1.0000fibre end	0.00T internal ref (°C)	23.39T ext. ref 1 (°C)	0.19T ext. ref 2 (°C)	17.67length (m)	temperature (°C)	Stokes	anti-Stokes-747.200	-29.662	0.096	-0.055
-746.185	800.000	-0.042	-0.146
-745.171	-200.000	-0.067	0.333
-744.156	200.116	-0.190	0.293
-743.142	-200.000	-0.010	-0.113
-742.127	-10.130	-0.307	-0.204
-741.112	29.017	0.226	0.192
-740.098	177.681	-0.204	-0.298
-739.083	-42.963	-0.097	0.049
-738.069	800.000	-0.029	-0.102
-737.054	-200.000	-0.045	0.309
-736.039	-86.116	-0.106	-0.033
-735.025	-12.963	0.212	0.138
-734.010	-200.000	-0.028	-0.208
-732.996	-200.000	-0.008	-0.169
-731.981	211.651	0.072	0.113
-730.966	-200.000	0.094	0.473
-729.952	-123.625	0.209	-0.033
-728.937	-137.062	-0.263	0.030
-727.923	-200.000	-0.036	0.170
-726.908	20.178	-0.182	0.148
-725.894	800.000	0.094	-0.356
-724.879	421.504	0.119	-0.256
-723.864	9.188	0.313	-0.237
-722.850	-200.000	0.017	-0.251
-721.835	-69.783	-0.089	-0.034
-720.821	-82.938	0.166	0.054
-719.806	29.946	0.205	-0.175
-718.791	94.959	-0.269	-0.307
-717.777	119.234	-0.277	-0.343
-716.762	-200.000	-0.045	0.303
-715.748	36.434	0.203	-0.180
-714.733	15.498	0.163	-0.128
-713.718	-157.515	-0.321	-0.019
-712.704	-100.231	0.595	-0.148
-711.689	502.224	-0.055	-0.128
-710.675	168.391	0.156	-0.222
-709.660	71.887	-0.176	-0.183
-708.645	-5.090	-0.293	0.202
-707.631	-118.809	0.118	-0.021
-706.616	156.638	-0.057	0.079
-705.602	-36.937	-0.170	-0.091
-704.587	800.000	0.047	0.142
-703.572	-30.475	-0.028	-0.016
-702.558	3.597	-0.041	0.030
-701.543	428.256	0.026	-0.057
-700.529	572.590	0.071	0.172
-699.514	121.628	0.077	-0.096
-698.499	800.000	0.061	-0.242
-697.485	-183.194	0.327	-0.006
-696.470	-11.008	0.199	-0.131
-695.456	800.000	-0.055	0.160
-694.441	800.000	-0.039	-0.149
-693.426	-52.579	-0.202	-0.094
-692.412	-200.000	-0.008	0.108
-691.397	120.413	-0.147	-0.183
-690.383	41.603	0.112	0.102
-689.368	-92.065	0.054	0.015
-688.354	-76.289	0.168	-0.059
-687.339	-133.164	-0.263	-0.033
-686.324	-47.118	-0.158	-0.077
-685.310	800.000	-0.085	-0.370
-684.295	-36.083	-0.268	-0.145
-683.281	240.362	0.130	-0.217
-682.266	-47.593	0.073	-0.035
-681.251	-27.736	-0.123	0.072
-680.237	306.838	0.132	-0.246
-679.222	-200.000	-0.043	-0.220
-678.208	310.778	-0.141	-0.265
-677.193	45.829	0.097	0.090
-676.178	529.190	0.131	-0.310
-675.164	-46.441	-0.315	-0.155
-674.149	176.885	-0.059	0.086
-673.135	-124.369	0.254	0.040
-672.120	-176.687	0.282	-0.007
-671.105	-81.273	0.094	-0.031
-670.091	-148.227	-0.436	0.036
-669.076	575.639	0.113	-0.275
-668.062	168.701	0.167	0.239
-667.047	193.128	0.148	-0.224
-666.032	75.287	0.147	0.155
-665.018	-200.000	-0.025	0.146
-664.003	-200.000	0.131	0.692
-662.989	-123.011	-0.120	-0.019
-661.974	-108.036	-0.140	0.030
-660.959	364.170	-0.128	-0.258
-659.945	-51.668	0.133	-0.062
-658.930	-36.128	-0.059	-0.032
-657.916	329.198	-0.080	-0.153
-656.901	-51.103	0.078	0.037
-655.886	800.000	-0.051	0.156
-654.872	654.427	0.113	-0.290
-653.857	266.570	-0.098	-0.171
-652.843	-49.749	-0.194	0.092
-651.828	-200.000	-0.013	-0.257
-650.814	281.817	0.087	-0.156
-649.799	23.149	-0.173	0.142
-648.784	2.697	0.159	0.116
-647.770	-168.845	0.163	0.006
-646.755	-10.455	-0.246	0.163
-645.741	235.675	-0.126	-0.208
-644.726	-200.000	0.003	0.013
-643.711	-132.675	-0.397	-0.051
-642.697	-56.062	0.153	-0.068
-641.682	261.992	-0.173	0.300
-640.668	-11.673	-0.164	-0.107
-639.653	-48.030	-0.153	-0.074
-638.638	253.998	-0.066	-0.112
-637.624	-200.000	-0.002	0.180
-636.609	317.464	-0.188	-0.355
-635.595	-200.000	-0.055	-0.000
-634.580	-167.409	-0.148	0.006
-633.565	167.473	-0.129	-0.183
-632.551	604.496	-0.039	0.098
-631.536	-50.154	0.071	0.034
-630.522	65.117	0.365	-0.369
-629.507	-200.000	0.055	-0.322
-628.492	157.023	0.184	0.254
-627.478	-200.000	0.025	-0.135
-626.463	209.808	0.125	0.195
-625.449	-200.000	0.017	-0.155
-624.434	-0.768	-0.095	-0.067
-623.419	-48.821	0.547	0.262
-622.405	105.355	0.129	-0.152
-621.390	681.120	0.103	-0.267
-620.376	-200.000	-0.016	0.274
-619.361	-61.549	0.333	0.140
-618.346	178.305	-0.136	0.198
-617.332	90.723	-0.413	0.462
-616.317	49.331	-0.185	-0.173
-615.303	-25.625	-0.089	-0.052
-614.288	195.436	-0.079	0.120
-613.273	-154.866	0.395	-0.026
-612.259	-200.000	0.007	0.040
-611.244	-133.001	-0.252	0.032
-610.230	-200.000	-0.043	-0.286
-609.215	800.000	0.067	-0.215
-608.201	1.596	0.051	-0.036
-607.186	181.792	0.059	-0.086
-606.171	571.496	-0.121	-0.293
-605.157	-200.000	-0.004	-0.158
-604.142	2.327	-0.112	-0.081
-603.128	-184.713	0.162	0.003
-602.113	-57.592	0.064	-0.028
-601.098	111.553	0.264	0.318
-600.084	-121.275	0.099	-0.016
-599.069	48.528	-0.149	-0.139
-598.055	800.000	-0.118	0.359
-597.040	-167.564	0.304	-0.012
-596.025	42.481	-0.090	0.081
-595.011	-200.000	0.055	0.280
-593.996	60.081	0.229	0.225
-592.982	-191.675	-0.233	-0.002
-591.967	-200.000	-0.024	-0.109
-590.952	-70.986	0.448	0.168
-589.938	-129.459	-0.099	-0.014
-588.923	-200.000	-0.017	-0.333
-587.909	643.910	-0.029	0.074
-586.894	93.984	0.111	0.125
-585.879	-200.000	-0.015	-0.146
-584.865	-200.000	-0.069	-0.306
-583.850	-101.981	-0.100	-0.024
-582.836	10.191	0.220	0.167
-581.821	-200.000	-0.025	-0.214
-580.806	9.697	0.117	0.089
-579.792	-137.033	-0.155	-0.018
-578.777	-163.617	0.556	-0.026
-577.763	-145.101	-0.205	0.019
-576.748	-85.776	0.104	-0.032
-575.733	122.994	0.071	-0.089
-574.719	-133.987	-0.240	-0.030
-573.704	170.377	0.103	0.146
-572.690	-50.871	-0.375	-0.176
-571.675	-56.277	-0.542	-0.240
-570.661	-200.000	-0.019	-0.165
-569.646	-17.722	0.223	0.140
-568.631	-48.653	0.104	-0.050
-567.617	77.565	0.042	-0.044
-566.602	-133.236	0.282	-0.036
-565.588	800.000	0.040	-0.117
-564.573	401.116	0.102	-0.214
-563.558	-104.210	-0.294	-0.068
-562.544	4.757	-0.309	-0.226
-561.529	62.305	-0.234	0.233
-560.515	258.404	0.029	-0.050
-559.500	510.626	0.113	-0.261
-558.485	-200.000	-0.022	-0.334
-557.471	-200.000	0.006	-0.111
-556.456	-79.852	-0.109	-0.036
-555.442	496.594	0.081	0.185
-554.427	800.000	0.024	-0.074
-553.412	-200.000	0.012	-0.269
-552.398	80.080	0.150	-0.161
-551.383	78.707	-0.087	0.093
-550.369	-122.167	-0.295	-0.048
-549.354	27.167	0.083	0.069
-548.339	-50.275	-0.411	0.194
-547.325	-68.590	-0.105	0.041
-546.310	277.053	0.145	0.256
-545.296	-81.357	0.121	0.040
-544.281	24.111	-0.432	-0.355
-543.266	142.223	0.081	0.107
-542.252	-200.000	0.034	0.156
-541.237	300.069	0.041	0.076
-540.223	-200.000	-0.036	-0.210
-539.208	111.512	0.195	0.234
-538.193	-50.091	0.130	0.061
-537.179	-200.000	-0.011	0.417
-536.164	-200.000	0.250	0.000
-535.150	137.854	-0.073	0.096
-534.135	-60.720	0.042	-0.018
-533.121	88.324	-0.316	-0.349
-532.106	-200.000	-0.033	0.373
-531.091	1.871	-0.132	0.095
-530.077	-104.771	0.118	0.027
-529.062	-200.000	-0.011	0.204
-528.048	-200.000	0.007	0.196
-527.033	48.087	-0.149	-0.138
-526.018	664.735	0.069	0.178
-525.004	-13.616	0.130	-0.084
-523.989	-88.808	-0.258	0.076
-522.975	-200.000	-0.024	0.198
-521.960	-89.740	0.146	0.043
-520.945	-86.970	0.205	-0.062
-519.931	-28.336	0.075	-0.043
-518.916	-12.200	-0.196	-0.127
-517.902	236.561	-0.052	-0.086
-516.887	151.880	-0.058	0.078
-515.872	-71.475	-0.282	-0.105
-514.858	209.376	0.143	0.222
-513.843	800.000	-0.086	0.319
-512.829	-51.892	0.182	-0.084
-511.814	-54.035	-0.145	-0.066
-510.799	-90.369	-0.105	-0.030
-509.785	-200.000	0.009	0.243
-508.770	-68.897	-0.078	0.030
-507.756	800.000	0.104	0.330
-506.741	116.505	-0.152	-0.185
-505.726	-197.220	-0.128	0.001
-504.712	-46.873	0.184	0.089
-503.697	-37.227	0.069	-0.037
-502.683	-90.803	0.046	-0.013
-501.668	-33.288	-0.081	0.045
-500.653	-106.627	0.134	0.030
-499.639	-109.603	-0.184	0.039
-498.624	-2.647	-0.088	0.061
-497.610	366.554	-0.113	-0.226
-496.595	-0.614	-0.073	-0.052
-495.581	-43.414	-0.356	-0.179
-494.566	800.000	-0.089	-0.374
-493.551	-200.000	0.019	0.191
-492.537	800.000	-0.107	-0.319
-491.522	45.829	-0.200	0.184
-490.508	418.295	-0.146	0.311
-489.493	50.033	-0.103	0.097
-488.478	71.353	0.106	-0.109
-487.464	40.548	-0.200	-0.179
-486.449	-200.000	-0.015	-0.095
-485.435	131.627	-0.146	0.187
-484.420	800.000	0.073	-0.249
-483.405	585.332	-0.058	0.141
-482.391	41.886	0.146	0.132
-481.376	-127.167	-0.163	0.024
-480.362	-101.640	0.255	0.061
-479.347	148.513	-0.217	-0.291
-478.332	-200.000	0.015	-0.237
-477.318	-7.027	0.230	0.155
-476.303	-112.979	-0.169	0.033
-475.289	-27.716	-0.169	-0.097
-474.274	305.059	-0.051	-0.095
-473.259	-182.336	-0.294	-0.005
-472.245	-200.000	0.031	0.143
-471.230	29.783	0.108	0.091
-470.216	-113.281	0.304	0.059
-469.201	95.482	-0.189	0.214
-468.186	325.335	-0.010	-0.020
-467.172	-171.150	0.179	0.006
-466.157	595.614	-0.106	-0.259
-465.143	-113.079	0.271	0.053
-464.128	105.148	0.251	0.293
-463.113	-146.299	0.151	0.013
-462.099	137.605	-0.246	0.320
-461.084	161.683	-0.077	-0.107
-460.070	-80.571	-0.102	0.034
-459.055	-69.130	0.113	-0.043
-458.040	-200.000	-0.002	0.333
-457.026	115.368	0.051	-0.062
-456.011	-200.000	-0.008	-0.089
-454.997	800.000	-0.059	0.206
-453.982	121.383	-0.207	0.255
-452.968	-119.956	0.224	-0.038
-451.953	163.442	0.270	0.377
-450.938	151.620	-0.233	-0.315
-449.924	-200.000	0.010	-0.120
-448.909	273.623	0.114	0.200
-447.895	17.690	-0.259	-0.204
-446.880	-26.692	0.091	0.053
-445.865	-36.026	-0.364	-0.195
-444.851	108.571	0.085	-0.101
-443.836	-50.951	0.224	0.104
-442.822	-18.725	-0.182	0.113
-441.807	-61.607	-0.254	-0.106
-440.792	-200.000	0.043	-0.217
-439.778	800.000	-0.003	0.012
-438.763	2.444	-0.232	0.167
-437.749	21.429	0.270	0.217
-436.734	-125.042	-0.161	0.025
-435.719	-18.358	0.318	0.197
-434.705	59.888	0.073	0.072
-433.690	-141.698	0.131	0.013
-432.676	-94.851	0.246	-0.066
-431.661	-176.005	0.418	0.011
-430.646	327.113	-0.116	-0.221
-429.632	142.861	0.227	0.299
-428.617	-42.162	0.145	0.073
-427.603	-68.013	-0.299	-0.116
-426.588	-179.765	0.156	0.003
-425.573	-125.830	0.252	-0.038
-424.559	-98.767	-0.210	0.053
-423.544	-160.409	0.201	0.011
-422.530	-60.551	0.218	-0.092
-421.515	250.265	0.125	-0.211
-420.500	-156.374	0.389	0.024
-419.486	137.644	0.043	0.056
-418.471	137.611	0.046	0.060
-417.457	65.804	0.193	0.193
-416.442	60.416	0.093	-0.092
-415.428	800.000	-0.044	0.140
-414.413	94.632	-0.267	0.300
-413.398	-116.868	0.201	0.037
-412.384	169.332	0.050	0.070
-411.369	800.000	0.073	0.226
-410.355	-106.326	-0.138	-0.031
-409.340	-110.943	-0.335	-0.068
-408.325	-200.000	0.026	0.153
-407.311	-88.262	0.566	0.168
-406.296	-124.883	0.203	-0.031
-405.282	-9.386	-0.194	0.128
-404.267	561.270	0.144	0.345
-403.252	-200.000	-0.000	-0.034
-402.238	-127.691	0.263	0.038
-401.223	-55.114	0.216	-0.096
-400.209	205.001	-0.248	-0.381
-399.194	248.319	-0.109	-0.183
-398.179	208.523	-0.130	-0.201
-397.165	22.740	0.181	-0.147
-396.150	800.000	0.030	-0.107
-395.136	61.326	-0.173	-0.170
-394.121	-200.000	-0.017	0.377
-393.106	-41.415	0.033	0.017
-392.092	-200.000	0.057	0.293
-391.077	38.954	-0.236	0.208
-390.063	-124.409	-0.326	-0.050
-389.048	282.180	-0.035	0.063
-388.033	-59.913	-0.490	-0.207
-387.019	-120.367	0.135	-0.023
-386.004	-186.668	-0.133	-0.002
-384.990	103.202	0.160	0.185
-383.975	-122.237	-0.452	0.073
-382.960	-83.817	-0.271	0.085
-381.946	-200.000	0.030	0.322
-380.931	-128.720	0.235	0.033
-379.917	-200.000	-0.030	0.139
-378.902	31.901	-0.286	-0.243
-377.888	-70.364	0.571	0.214
-376.873	-40.831	0.212	-0.108
-375.858	-200.000	0.022	-0.102
-374.844	147.202	0.077	-0.102
-373.829	-191.050	-0.194	0.002
-372.815	-200.000	0.018	-0.186
-371.800	-111.619	0.139	0.028
-370.785	677.201	0.040	-0.104
-369.771	-32.871	-0.128	0.070
-368.756	176.204	0.080	-0.114
-367.742	88.533	0.082	-0.090
-366.727	-15.756	-0.137	-0.086
-365.712	-191.450	0.291	-0.003
-364.698	-50.183	-0.033	-0.015
-363.683	504.738	0.015	0.035
-362.669	-133.836	-0.274	-0.034
-361.654	-7.678	-0.191	0.127
-360.639	800.000	-0.100	-0.293
-359.625	14.920	0.129	-0.100
-358.610	-148.114	0.209	0.017
-357.596	-134.100	-0.150	-0.018
-356.581	186.797	0.241	0.354
-355.566	-77.149	0.229	-0.079
-354.552	354.508	-0.131	0.257
-353.537	-188.274	0.244	-0.003
-352.523	184.134	0.087	-0.128
-351.508	-100.983	0.033	-0.008
-350.493	52.521	0.204	0.192
-349.479	47.729	-0.290	-0.268
-348.464	-123.548	0.093	-0.015
-347.450	-200.000	-0.036	-0.197
-346.435	291.009	-0.067	0.120
-345.420	-162.437	-0.184	-0.009
-344.406	-200.000	-0.043	-0.193
-343.391	157.787	0.096	0.132
-342.377	-200.000	0.001	0.153
-341.362	-26.579	0.097	0.056
-340.348	100.803	0.104	0.120
-339.333	-104.062	-0.249	0.057
-338.318	4.605	-0.227	-0.164
-337.304	-200.000	0.004	0.155
-336.289	-101.927	-0.130	-0.031
-335.275	-12.090	0.226	-0.146
-334.260	228.600	-0.131	0.210
-333.245	315.815	0.118	-0.220
-332.231	-200.000	-0.061	0.335
-331.216	-81.655	-0.181	0.059
-330.202	-200.000	-0.023	0.108
-329.187	-61.395	-0.080	0.033
-328.172	-120.851	-0.270	0.045
-327.158	-200.000	-0.006	0.208
-326.143	800.000	-0.007	0.022
-325.129	-122.861	0.035	-0.006
-324.114	99.482	-0.113	-0.129
-323.099	-89.331	0.274	-0.080
-322.085	-200.000	0.036	0.222
-321.070	299.026	-0.110	-0.199
-320.056	800.000	-0.026	-0.082
-319.041	-38.399	0.251	0.131
-318.026	800.000	-0.040	0.118
-317.012	-200.000	0.009	-0.064
-315.997	-122.764	-0.222	-0.035
-314.983	-34.261	0.212	0.115
-313.968	18.455	-0.058	0.046
-312.953	542.394	0.116	0.272
-311.939	-122.710	-0.065	-0.010
-310.924	9.810	0.019	0.014
-309.910	-200.000	-0.015	-0.242
-308.895	705.224	0.105	0.274
-307.880	-200.000	-0.008	0.319
-306.866	-64.152	-0.047	-0.019
-305.851	-200.000	-0.001	0.091
-304.837	3.141	-0.206	0.148
-303.822	22.114	0.213	0.171
-302.807	800.000	-0.077	0.292
-301.793	-198.679	0.213	-0.001
-300.778	-200.000	-0.003	0.020
-299.764	-200.000	-0.008	-0.197
-298.749	-200.000	0.005	-0.077
-297.735	143.790	0.100	-0.131
-296.720	-61.790	0.236	0.097
-295.705	-200.000	0.020	0.209
-294.691	800.000	-0.071	0.245
-293.676	383.805	-0.166	-0.337
-292.662	-200.000	0.036	0.195
-291.647	75.274	0.229	0.238
-290.632	-29.550	-0.416	0.234
-289.618	-93.153	0.133	-0.036
-288.603	105.254	-0.196	-0.228
-287.589	-39.779	0.178	0.092
-286.574	-200.000	0.014	0.280
-285.559	365.991	-0.110	0.218
-284.545	800.000	-0.043	-0.140
-283.530	329.541	-0.133	0.252
-282.516	-115.452	-0.456	0.085
-281.501	800.000	-0.068	-0.220
-280.486	-200.000	0.005	-0.066
-279.472	92.302	-0.150	-0.167
-278.457	169.569	-0.043	0.060
-277.443	-109.577	0.037	-0.008
-276.428	-200.000	0.044	-0.221
-275.413	238.564	0.127	-0.207
-274.399	-102.252	-0.231	0.055
-273.384	345.467	0.096	0.185
-272.370	-64.784	0.064	0.025
-271.355	156.446	-0.079	-0.107
-270.340	-8.355	0.063	0.042
-269.326	-37.735	-0.135	0.071
-268.311	402.865	-0.038	-0.079
-267.297	437.750	-0.004	0.009
-266.282	61.177	0.204	-0.200
-265.267	470.369	0.056	-0.123
-264.253	209.271	-0.056	-0.086
-263.238	207.514	0.025	0.038
-262.224	79.032	0.201	0.212
-261.209	-29.920	-0.185	0.104
-260.195	-200.000	0.030	0.225
-259.180	-200.000	0.016	-0.194
-258.165	173.050	0.213	-0.303
-257.151	10.860	-0.189	0.142
-256.136	-93.965	0.068	-0.018
-255.122	167.390	0.103	0.143
-254.107	584.597	-0.050	0.122
-253.092	216.686	0.061	0.096
-252.078	265.540	-0.092	-0.159
-251.063	263.722	0.065	-0.111
-250.049	-49.100	0.131	-0.062
-249.034	-125.445	-0.086	0.013
-248.019	-200.000	0.007	0.069
-247.005	-200.000	-0.018	0.152
-245.990	-109.565	0.133	-0.028
-244.976	282.547	-0.121	0.213
-243.961	23.314	-0.319	-0.258
-242.946	113.794	0.145	0.173
-241.932	33.166	-0.102	0.087
-240.917	-200.000	0.023	-0.184
-239.903	800.000	-0.072	-0.233
-238.888	-9.527	-0.192	0.126
-237.873	-200.000	0.009	0.137
-236.859	-16.401	0.163	-0.102
-235.844	-200.000	0.026	0.169
-234.830	-82.816	0.175	-0.056
-233.815	-155.351	0.213	0.014
-232.800	-82.062	0.325	0.104
-231.786	167.419	0.142	-0.198
-230.771	-200.000	-0.011	0.362
-229.757	0.363	0.258	0.181
-228.742	-200.000	-0.286	0.000
-227.727	-107.145	-0.031	-0.007
-226.713	-200.000	0.036	-0.306
-225.698	554.568	0.033	0.078
-224.684	-80.606	0.215	-0.070
-223.669	-42.312	0.117	0.059
-222.655	-31.427	0.206	0.114
-221.640	-200.000	-0.091	-0.497
-220.625	81.190	0.034	0.036
-219.611	-200.000	-0.084	-0.395
-218.596	779.364	0.083	-0.223
-217.582	-90.232	0.295	-0.084
-216.567	-200.000	0.002	-0.246
-215.552	-12.102	0.032	-0.021
-214.538	230.965	0.089	-0.143
-213.523	49.447	-0.210	-0.194
-212.509	-164.176	0.147	0.007
-211.494	-200.000	-0.029	0.277
-210.479	-45.935	-0.171	-0.083
-209.465	-200.000	-0.014	-0.175
-208.450	-108.957	0.095	-0.020
-207.436	-174.650	0.168	-0.005
-206.421	-82.923	0.493	-0.156
-205.406	-10.895	0.115	0.075
-204.392	-52.764	-0.220	0.100
-203.377	800.000	0.048	0.175
-202.363	151.542	-0.088	0.118
-201.348	-186.783	0.414	0.006
-200.333	-30.862	-0.401	-0.223
-199.319	-35.096	-0.135	-0.072
-198.304	407.131	-0.030	0.062
-197.290	173.861	0.075	-0.107
-196.275	430.294	0.045	-0.096
-195.260	-106.435	-0.296	-0.065
-194.246	213.205	-0.072	-0.112
-193.231	205.457	0.220	-0.335
-192.217	302.748	0.051	-0.093
-191.202	125.496	0.174	0.215
-190.187	-56.674	-0.204	-0.089
-189.173	-200.000	0.052	0.300
-188.158	12.395	-0.048	-0.036
-187.144	109.612	-0.111	0.131
-186.129	247.337	0.127	-0.211
-185.114	122.631	0.069	0.084
-184.100	-152.110	0.090	0.006
-183.085	83.368	0.128	-0.137
-182.071	-49.081	-0.151	0.071
-181.056	-200.000	0.069	-0.415
-180.042	23.911	0.168	0.136
-179.027	704.136	0.170	-0.439
-178.012	-79.571	-0.116	0.038
-176.998	26.897	-0.092	-0.076
-175.983	800.000	0.081	0.228
-174.969	138.467	0.214	0.275
-173.954	290.801	-0.035	-0.062
-172.939	-200.000	-0.023	-0.333
-171.925	-91.422	-0.221	-0.062
-170.910	123.276	0.118	0.145
-169.896	305.325	-0.082	-0.150
-168.881	-104.239	-0.451	-0.103
-167.866	-200.000	-0.017	0.098
-166.852	557.174	-0.045	-0.105
-165.837	-152.803	-0.162	0.011
-164.823	-121.572	0.173	-0.028
-163.808	522.832	0.084	-0.192
-162.793	800.000	-0.027	-0.115
-161.779	-154.364	0.065	0.004
-160.764	-200.000	0.006	-0.296
-159.750	-200.000	-0.008	-0.257
-158.735	800.000	-0.049	0.134
-157.720	228.605	-0.085	-0.135
-156.706	-49.769	-0.155	-0.072
-155.691	686.544	-0.118	-0.302
-154.677	-126.703	-0.241	-0.035
-153.662	465.094	-0.154	-0.338
-152.647	171.216	0.020	0.028
-151.633	-99.185	0.366	-0.091
-150.618	-119.785	0.307	-0.052
-149.604	34.188	-0.063	-0.054
-148.589	120.199	-0.130	0.158
-147.574	-18.635	-0.059	0.036
-146.560	800.000	-0.108	-0.324
-145.545	800.000	-0.048	0.136
-144.531	-170.168	0.246	0.009
-143.516	-200.000	0.032	0.140
-142.502	800.000	-0.103	0.358
-141.487	-126.859	-0.020	-0.003
-140.472	-200.000	0.031	0.144
-139.458	50.945	0.154	0.143
-138.443	-200.000	-0.001	-0.333
-137.429	375.529	-0.072	-0.144
-136.414	251.396	-0.033	-0.055
-135.399	-18.883	-0.209	-0.127
-134.385	-112.353	-0.063	-0.012
-133.370	-109.361	-0.188	0.039
-132.356	-32.889	0.336	0.183
-131.341	-200.000	0.074	0.393
-130.326	-95.260	-0.095	-0.025
-129.312	-200.000	0.039	-0.238
-128.297	-200.000	0.006	0.059
-127.283	800.000	-0.062	-0.200
-126.268	14.213	-0.090	-0.069
-125.253	-17.574	0.169	-0.104
-124.239	-153.383	-0.197	0.013
-123.224	800.000	-0.034	0.136
-122.210	-200.000	-0.039	-0.395
-121.195	165.755	-0.152	-0.210
-120.180	-200.000	0.013	0.072
-119.166	346.489	0.126	-0.243
-118.151	-200.000	-0.090	0.417
-117.137	-50.687	-0.350	0.161
-116.122	19.441	0.180	0.141
-115.107	-135.988	0.347	-0.040
-114.093	-200.000	-0.008	0.087
-113.078	230.302	0.057	-0.091
-112.064	124.727	0.034	-0.041
-111.049	39.264	-0.139	0.122
-110.034	-107.357	0.038	0.008
-109.020	-200.000	-0.049	0.245
-108.005	-145.234	-0.446	-0.040
-106.991	-60.832	-0.379	0.157
-105.976	16.629	0.076	0.059
-104.962	-162.070	0.238	-0.012
-103.947	102.548	0.140	-0.161
-102.932	-95.202	0.329	0.087
-101.918	800.000	-0.053	-0.172
-100.903	-139.014	0.301	0.032
-99.889	-17.787	0.120	0.073
-98.874	600.824	0.159	-0.385
-97.859	-14.942	0.132	0.083
-96.845	-157.680	-0.473	-0.028
-95.830	46.152	0.318	0.288
-94.816	800.000	0.062	0.240
-93.801	134.850	0.140	0.178
-92.786	191.188	-0.116	0.171
-91.772	137.777	0.159	0.203
-90.757	-200.000	-0.002	-0.039
-89.743	-200.000	0.016	0.070
-88.728	-200.000	0.006	-0.409
-87.713	18.157	-0.302	-0.236
-86.699	-200.000	0.009	0.105
-85.684	-200.000	-0.005	0.076
-84.670	-200.000	-0.038	0.412
-83.655	44.500	-0.222	-0.200
-82.640	-130.784	-0.076	-0.010
-81.626	764.521	-0.042	0.111
-80.611	-200.000	0.013	-0.162
-79.597	-111.501	0.162	-0.032
-78.582	-156.917	0.260	-0.016
-77.567	-87.121	0.275	-0.082
-76.553	-152.872	0.307	0.021
-75.538	-93.042	-0.092	0.025
-74.524	-187.080	-0.189	0.003
-73.509	-130.479	0.208	-0.028
-72.494	-200.000	-0.027	0.294
-71.480	-200.000	0.022	-0.345
-70.465	800.000	-0.079	0.259
-69.451	163.648	-0.231	0.317
-68.436	-108.171	0.091	0.019
-67.422	71.734	-0.167	-0.169
-66.407	348.396	0.066	0.128
-65.392	800.000	0.156	0.641
-64.378	498.605	0.063	0.142
-63.363	-54.926	-0.094	0.041
-62.349	800.000	0.062	-0.190
-61.334	127.658	-1.071	-1.330
-60.319	7.613	0.710	0.519
-59.305	270.388	-0.909	-1.561
-58.290	259.077	0.679	1.144
-57.276	476.732	0.576	1.272
-56.261	-200.000	124.468	646.454
-55.246	413.461	1563.827	3248.344
-54.232	142.949	2722.370	3534.706
-53.217	96.238	2161.569	2413.592
-52.203	35.106	1594.213	1363.716
-51.188	26.665	1338.660	1094.331
-50.173	24.091	1301.362	1048.658
-49.159	51.425	1370.442	1270.977
-48.144	48.626	1382.421	1265.098
-47.130	26.611	1330.605	1087.248
-46.115	23.488	1311.171	1052.820
-45.100	23.368	1305.951	1047.877
-44.086	23.195	1303.929	1045.187
-43.071	23.284	1301.315	1043.577
-42.057	23.168	1299.657	1041.521
-41.042	23.224	1297.450	1040.042
-40.027	23.340	1296.106	1039.606
-39.013	23.316	1294.462	1038.107
-37.998	23.293	1292.308	1036.203
-36.984	23.405	1290.522	1035.380
-35.969	23.295	1289.048	1033.516
-34.954	23.412	1287.222	1032.695
-33.940	23.429	1286.055	1031.818
-32.925	23.330	1284.959	1030.318
-31.911	23.444	1283.237	1029.562
-30.896	23.486	1281.936	1028.717
-29.881	23.407	1281.499	1027.868
-28.867	23.650	1278.755	1027.033
-27.852	23.605	1277.631	1025.827
-26.838	23.511	1276.674	1024.479
-25.823	23.566	1274.963	1023.380
-24.809	23.479	1273.791	1021.898
-23.794	23.558	1272.702	1021.440
-22.779	23.544	1271.161	1020.083
-21.765	23.519	1269.661	1018.692
-20.750	23.585	1268.575	1018.159
-19.736	23.374	1267.668	1016.180
-18.721	23.350	1266.400	1014.990
-17.706	23.293	1265.933	1014.246
-16.692	23.369	1264.030	1013.114
-15.677	23.231	1263.388	1011.776
-14.663	23.315	1261.391	1010.612
-13.648	23.348	1260.408	1009.971
-12.633	23.277	1259.970	1009.176
-11.619	23.324	1259.063	1008.680
-10.604	23.323	1258.454	1008.143
-9.590	23.290	1257.392	1007.069
-8.575	23.237	1256.761	1006.218
-7.560	23.313	1255.685	1005.753
-6.546	23.352	1254.858	1005.267
-5.531	23.274	1253.916	1004.032
-4.517	23.448	1252.811	1004.092
-3.502	23.295	1252.361	1002.829
-2.487	23.392	1251.404	1002.570
-1.473	23.280	1247.129	998.474
-0.458	21.889	1231.887	978.478
0.556	17.025	1216.687	942.884
1.571	13.474	1224.784	929.180
2.586	12.958	1239.794	937.553
3.600	13.087	1227.943	929.234
4.615	9.493	1156.140	855.747
5.629	3.192	1085.374	771.774
6.644	0.421	1067.811	745.537
7.659	0.103	1065.707	742.431
8.673	0.145	1064.978	742.066
9.688	0.081	1064.264	741.187
10.702	0.325	1061.345	740.285
11.717	4.223	1066.194	762.809
12.731	11.178	1075.666	803.941
13.746	15.675	1080.807	829.961
14.761	16.682	1081.710	835.554
15.775	16.083	1079.768	831.025
16.790	15.147	1077.753	824.796
17.804	14.398	1076.441	820.033
18.819	14.018	1075.336	817.251
19.834	13.747	1074.667	815.337
20.848	13.582	1073.525	813.587
21.863	13.276	1072.796	811.464
22.877	13.207	1072.080	810.513
23.892	13.243	1071.356	810.067
24.907	13.145	1070.748	809.058
25.921	13.257	1069.363	808.488
26.936	13.299	1068.736	808.149
27.950	13.219	1068.295	807.352
28.965	13.378	1066.820	806.940
29.980	13.456	1065.687	806.392
30.994	13.373	1064.482	805.003
32.009	13.382	1063.714	804.397
33.023	13.444	1062.366	803.610
34.038	13.377	1061.179	802.315
35.053	13.437	1060.809	802.253
36.067	13.321	1060.039	801.038
37.082	13.261	1059.102	799.971
38.096	13.391	1058.168	799.820
39.111	13.359	1057.238	798.895
40.126	13.386	1056.047	798.054
41.140	13.249	1055.327	796.777
42.155	13.068	1054.652	795.328
43.169	13.141	1053.377	794.645
44.184	13.156	1051.887	793.523
45.199	13.080	1051.110	792.503
46.213	13.219	1049.817	792.124
47.228	13.216	1048.750	791.235
48.242	13.203	1047.660	790.278
49.257	13.260	1046.682	789.744
50.271	13.194	1045.892	788.761
51.286	13.356	1044.827	788.660
52.301	13.357	1043.895	787.894
53.315	13.216	1043.040	786.507
54.330	13.292	1042.098	786.087
55.344	13.289	1040.815	785.037
56.359	13.226	1039.897	783.975
57.374	13.124	1039.810	783.358
58.388	13.192	1038.417	782.561
59.403	13.163	1037.871	781.946
60.417	13.217	1036.828	781.342
61.432	13.035	1036.314	780.028
62.447	13.014	1035.377	779.155
63.461	13.119	1034.476	778.902
64.476	13.100	1033.617	778.098
65.490	12.954	1033.062	776.924
66.505	12.950	1032.593	776.483
67.520	13.173	1031.376	776.547
68.534	13.202	1030.482	775.942
69.549	13.171	1029.856	775.256
70.563	13.156	1029.199	774.621
71.578	13.114	1028.439	773.787
72.593	13.051	1027.927	773.034
73.607	13.156	1026.971	772.739
74.622	13.103	1026.161	771.816
75.636	12.941	1025.800	770.717
76.651	12.978	1024.866	770.122
77.666	12.963	1024.414	769.642
78.680	13.124	1023.468	769.615
79.695	13.031	1022.788	768.601
80.709	13.062	1022.518	768.473
81.724	13.129	1021.690	768.098
82.739	13.229	1020.740	767.777
83.753	13.257	1020.138	767.387
84.768	13.261	1019.223	766.651
85.782	13.319	1018.500	766.309
86.797	13.346	1017.299	765.459
87.812	13.156	1016.513	763.921
88.826	13.269	1015.536	763.646
89.841	13.354	1014.467	763.163
90.855	13.457	1013.457	762.811
91.870	13.348	1013.013	761.910
92.884	13.437	1012.334	761.738
93.899	13.424	1011.674	761.116
94.914	13.357	1010.805	760.089
95.928	13.411	1010.093	759.733
96.943	13.395	1008.836	758.644
97.957	13.340	1008.228	757.869
98.972	13.354	1007.650	757.432
99.987	13.470	1006.302	756.881
101.001	13.448	1005.542	756.145
102.016	13.443	1004.437	755.222
103.030	13.395	1004.080	754.671
104.045	13.396	1003.301	754.021
105.060	13.295	1002.666	753.019
106.074	13.283	1001.582	752.083
107.089	13.307	1000.250	751.125
108.103	13.292	999.637	750.531
109.118	13.216	998.642	749.373
110.133	13.279	997.368	748.632
111.147	13.144	997.259	747.874
112.162	13.241	996.049	747.342
113.176	13.345	995.392	747.251
114.191	13.363	994.507	746.602
115.206	13.394	993.612	746.001
116.220	13.204	993.534	745.024
117.235	13.276	992.047	744.166
118.249	13.288	990.995	743.363
119.264	13.314	990.534	743.069
120.279	13.241	990.007	742.279
121.293	13.292	988.559	741.360
122.308	13.333	987.842	740.940
123.322	13.223	987.129	739.846
124.337	13.348	986.016	739.503
125.352	13.300	985.132	738.562
126.366	13.280	984.144	737.669
127.381	13.254	983.147	736.739
128.395	13.189	982.352	735.786
129.410	13.374	981.253	735.723
130.424	13.373	980.383	735.002
131.439	13.451	979.066	734.296
132.454	13.364	979.086	733.859
133.468	13.373	978.113	733.103
134.483	13.367	976.801	732.029
135.497	13.244	976.667	731.319
136.512	13.215	975.906	730.559
137.527	13.274	974.604	729.777
138.541	13.335	973.802	729.381
139.556	13.401	973.592	729.451
140.570	13.399	972.717	728.721
141.585	13.486	971.550	728.165
142.600	13.482	970.910	727.605
143.614	13.490	969.926	726.839
144.629	13.582	969.001	726.484
145.643	13.600	967.855	725.640
146.658	13.336	967.265	723.976
147.673	13.431	966.107	723.461
148.687	13.513	965.554	723.342
149.702	13.342	964.741	721.921
150.716	13.370	963.996	721.425
151.731	13.421	963.521	721.226
152.746	13.540	962.441	720.874
153.760	13.521	961.819	720.259
154.775	13.509	961.257	719.723
155.789	13.645	960.577	719.741
156.804	13.543	960.183	718.938
157.819	13.640	959.275	718.616
158.833	13.794	958.490	718.631
159.848	13.589	957.688	717.080
160.862	13.600	956.801	716.402
161.877	13.629	955.940	715.818
162.892	13.464	955.373	714.617
163.906	13.495	954.233	713.834
164.921	13.600	953.277	713.508
165.935	13.495	952.769	712.612
166.950	13.712	951.457	712.503
167.964	13.479	951.349	711.358
168.979	13.668	950.012	711.104
169.994	13.574	949.003	709.882
171.008	13.663	948.380	709.736
172.023	13.760	947.817	709.664
173.037	13.743	947.016	708.932
174.052	13.836	946.200	708.654
175.067	13.616	946.012	707.510
176.081	13.557	945.496	706.812
177.096	13.763	944.293	706.727
178.110	13.784	943.948	706.497
179.125	13.744	943.141	705.661
180.140	13.852	942.780	705.787
181.154	13.784	942.666	705.348
182.169	13.868	941.746	704.956
183.183	13.891	941.526	704.826
184.198	13.870	940.358	703.801
185.213	13.820	939.791	703.100
186.227	13.855	938.844	702.480
187.242	13.932	938.244	702.294
188.256	13.890	937.789	701.714
189.271	13.961	936.633	701.086
190.286	13.826	936.319	700.218
191.300	13.771	935.479	699.296
192.315	13.874	934.642	699.043
193.329	13.827	934.526	698.698
194.344	13.875	934.099	698.517
195.359	13.927	932.628	697.573
196.373	13.950	932.458	697.484
197.388	13.948	932.317	697.307
198.402	14.200	931.364	697.588
199.417	14.199	930.657	696.992
200.432	14.261	930.394	696.996
201.446	14.297	929.669	696.539
202.461	14.097	929.505	695.521
203.475	14.205	928.767	695.358
204.490	14.114	928.227	694.512
205.504	14.089	927.615	693.887
206.519	14.206	926.474	693.458
207.534	14.032	926.102	692.397
208.548	14.120	925.387	692.166
209.563	14.182	924.537	691.726
210.577	14.207	924.167	691.492
211.592	14.125	923.423	690.533
212.607	14.389	922.513	690.886
213.621	14.344	921.731	690.056
214.636	14.323	921.145	689.465
215.650	14.392	920.452	689.176
216.665	14.389	919.656	688.504
217.680	14.326	919.059	687.734
218.694	14.405	918.305	687.439
219.709	14.463	917.519	687.028
220.723	14.301	916.867	685.812
221.738	14.401	916.475	685.870
222.753	14.392	915.998	685.412
223.767	14.320	915.279	684.521
224.782	14.515	914.549	684.711
225.796	14.625	913.799	684.543
226.811	14.483	913.577	683.732
227.826	14.523	912.603	683.106
228.840	14.474	911.688	682.163
229.855	14.590	910.761	681.881
230.869	14.431	910.335	680.851
231.884	14.427	909.858	680.419
232.899	14.540	908.787	680.019
233.913	14.425	908.161	679.023
234.928	14.327	908.000	678.444
235.942	14.487	907.040	678.317
236.957	14.479	906.492	677.815
237.972	14.653	905.976	678.076
238.986	14.501	905.271	676.870
240.001	14.435	904.717	676.129
241.015	14.582	903.892	676.047
242.030	14.712	903.142	675.952
243.045	14.719	902.920	675.754
244.059	14.529	902.526	674.633
245.074	14.607	901.552	674.159
246.088	14.714	900.461	673.715
247.103	14.747	899.934	673.393
248.117	14.709	899.593	672.927
249.132	14.835	898.990	672.926
250.147	15.060	897.857	672.922
251.161	14.853	897.546	671.795
252.176	14.976	896.860	671.718
253.190	15.024	895.964	671.180
254.205	15.024	895.826	671.018
255.220	14.896	895.186	669.964
256.234	15.085	894.266	669.975
257.249	14.894	893.923	668.893
258.263	15.000	893.056	668.610
259.278	15.010	892.114	667.884
260.293	14.996	892.053	667.725
261.307	15.138	890.963	667.414
262.322	15.103	890.519	666.882
263.336	15.299	889.653	666.956
264.351	15.149	889.077	665.869
265.366	15.274	888.242	665.682
266.380	15.135	887.812	664.750
267.395	15.211	887.099	664.455
268.409	15.127	886.203	663.393
269.424	15.297	885.382	663.393
270.439	15.126	884.930	662.321
271.453	15.205	884.466	662.226
272.468	15.321	883.819	662.142
273.482	15.171	883.220	661.043
274.497	15.225	882.503	660.660
275.512	15.130	882.502	660.228
276.526	15.249	882.101	660.338
277.541	15.279	881.448	659.906
278.555	15.345	880.602	659.475
279.570	15.537	879.670	659.474
280.585	15.413	878.983	658.413
281.599	15.372	878.099	657.533
282.614	15.329	877.590	656.924
283.628	15.457	877.067	656.975
284.643	15.533	876.166	656.540
285.657	15.494	875.597	655.902
286.672	15.368	875.285	655.118
287.687	15.397	874.644	654.695
288.701	15.424	874.396	654.556
289.716	15.536	873.508	654.269
290.730	15.505	872.877	653.618
291.745	15.576	872.500	653.556
292.760	15.674	871.553	653.169
293.774	15.531	870.911	652.072
294.789	15.636	870.285	651.957
295.803	15.626	869.516	651.283
296.818	15.722	868.632	650.934
297.833	15.583	868.325	650.109
298.847	15.694	867.814	650.097
299.862	15.587	867.252	649.206
300.876	15.739	866.209	648.954
301.891	15.661	866.077	648.499
302.906	15.686	865.552	648.143
303.920	15.834	864.689	648.010
304.935	15.751	864.361	647.389
305.949	16.020	863.330	647.592
306.964	15.795	862.926	646.367
307.979	15.917	862.617	646.546
308.993	15.883	862.155	646.013
310.008	15.829	861.683	645.397
311.022	15.896	861.196	645.231
312.037	15.840	860.284	644.276
313.052	15.901	859.561	643.911
314.066	15.784	859.324	643.228
315.081	15.890	858.519	642.974
316.095	15.763	858.088	642.107
317.110	15.949	857.452	642.284
318.125	15.770	856.814	641.070
319.139	15.859	856.581	641.178
320.154	16.015	855.932	641.230
321.168	15.874	855.593	640.380
322.183	16.065	854.376	640.137
323.197	16.122	854.103	640.095
324.212	15.809	853.922	638.714
325.227	16.038	853.161	638.957
326.241	15.914	852.565	637.985
327.256	16.020	851.974	637.888
328.270	15.963	851.608	637.342
329.285	16.054	850.742	636.981
330.300	16.012	850.090	636.278
331.314	16.028	849.804	636.068
332.329	16.158	849.301	636.123
333.343	16.175	848.819	635.769
334.358	16.149	848.809	635.607
335.373	16.203	847.905	635.079
336.387	16.263	847.849	635.208
337.402	16.148	847.710	634.612
338.416	16.317	846.862	634.560
339.431	16.178	846.771	633.912
340.446	16.308	846.172	633.896
341.460	16.405	846.094	634.144
342.475	16.150	845.676	632.816
343.489	16.171	845.674	632.841
344.504	16.323	844.806	632.702
345.519	16.468	843.989	632.578
346.533	16.519	843.379	632.255
347.548	16.419	843.016	631.552
348.562	16.573	841.912	631.245
349.577	16.430	841.447	630.309
350.592	16.341	840.742	629.394
351.606	16.427	840.309	629.333
352.621	16.355	839.809	628.636
353.635	16.441	838.816	628.154
354.650	16.472	838.108	627.685
355.665	16.323	838.248	627.180
356.679	16.434	837.335	626.854
357.694	16.587	836.655	626.856
358.708	16.606	835.957	626.349
359.723	16.418	835.581	625.314
360.738	16.588	835.025	625.473
361.752	16.641	834.321	625.084
362.767	16.487	833.969	624.199
363.781	16.646	833.100	624.078
364.796	16.570	832.915	623.606
365.810	16.691	832.671	623.812
366.825	16.729	832.174	623.524
367.840	16.759	831.425	623.021
368.854	16.737	830.936	622.516
369.869	16.798	830.710	622.518
370.883	16.755	829.863	621.670
371.898	16.650	830.200	621.482
372.913	16.803	829.746	621.648
373.927	16.854	828.825	621.089
374.942	16.915	828.474	620.995
375.956	16.936	828.118	620.752
376.971	16.810	827.695	619.918
377.986	16.888	827.399	619.926
379.000	17.020	826.613	619.765
380.015	16.933	826.298	619.155
381.029	16.967	825.546	618.659
382.044	17.119	824.680	618.510
383.059	17.016	824.556	617.989
384.073	17.083	824.125	617.855
385.088	16.813	823.543	616.380
386.102	17.020	822.904	616.601
387.117	17.078	821.818	615.943
388.132	17.043	821.518	615.536
389.146	17.019	821.167	615.131
390.161	17.074	820.716	614.940
391.175	17.185	820.199	614.898
392.190	17.154	819.406	614.138
393.205	17.097	819.030	613.598
394.219	17.143	818.641	613.416
395.234	17.212	818.212	613.291
396.248	17.276	817.745	613.118
397.263	17.162	817.506	612.473
398.278	17.004	817.588	611.909
399.292	17.075	816.690	611.439
400.307	17.009	816.436	610.956
401.321	17.031	815.756	610.472
402.336	17.138	815.250	610.426
403.350	17.136	814.759	609.997
404.365	17.242	814.420	610.068
405.380	17.412	813.731	610.110
406.394	17.446	813.123	609.722
407.409	17.444	812.676	609.326
408.423	17.369	812.652	608.983
409.438	17.407	812.193	608.721
410.453	17.439	811.758	608.456
411.467	17.433	811.135	607.915
412.482	17.461	811.076	607.918
413.496	17.508	810.553	607.640
414.511	17.578	810.210	607.575
415.526	17.659	809.486	607.268
416.540	17.525	809.183	606.513
417.555	17.499	808.589	605.919
418.569	17.643	808.082	605.999
419.584	17.666	807.861	605.861
420.599	17.620	807.161	605.117
421.613	113.633	1299.151	1487.585
422.628	98.133	1370.809	1487.649
