DTS Sentinel unit serial number:	SN413079Multiplexer serial number:	ORYXHardware model number:	OX4-SRSoftware version number:	ORYX F/W v4.00 Oryx Data Collector v3.7.2.0data status	okinstallation	princeton_trtdifferential loss correction	single-endedforward channel	channel 1reverse channel	N/Adate	2019/09/18time	10:46:35forward acquisition time	60.00reverse acquisition time	0.00gamma	496.2192k internal	0.2327k external	0.2327temperature offset calibration	0.9973default loss term (dB/km)	0.3790temperature slope calibration	1.0000multiplexer offset coefficient	1.0000multiplexer slope coefficient	1.0000fibre end	0.00T internal ref (°C)	28.89T ext. ref 1 (°C)	0.38T ext. ref 2 (°C)	25.44length (m)	temperature (°C)	Stokes	anti-Stokes-747.200	-7.045	-0.157	0.107
-746.185	-98.131	-0.328	0.085
-745.171	-104.429	-0.140	-0.033
-744.156	714.498	0.083	0.222
-743.142	-81.081	-0.138	0.046
-742.127	800.000	-0.036	0.109
-741.112	-200.000	0.038	-0.219
-740.098	-91.981	-0.132	-0.038
-739.083	-86.327	-0.142	0.044
-738.069	-99.004	-0.296	0.076
-737.054	-200.000	-0.038	-0.195
-736.039	-113.626	-0.182	0.036
-735.025	488.658	-0.110	-0.253
-734.010	235.161	-0.090	0.150
-732.996	149.045	-0.140	0.191
-731.981	-200.000	0.029	0.183
-730.966	523.862	-0.140	-0.331
-729.952	93.186	-0.139	-0.159
-728.937	-43.132	0.102	0.052
-727.923	-64.870	-0.063	-0.026
-726.908	82.847	-0.201	0.220
-725.894	-7.025	-0.213	-0.146
-724.879	145.658	0.271	-0.366
-723.864	7.015	-0.210	-0.158
-722.850	-61.423	-0.093	0.039
-721.835	-165.540	-0.446	0.020
-720.821	568.488	0.070	0.171
-719.806	11.639	-0.340	-0.262
-718.791	-50.399	0.077	-0.037
-717.777	398.973	0.062	0.131
-716.762	-200.000	-0.019	-0.107
-715.748	-200.000	0.008	0.227
-714.733	18.487	-0.381	0.307
-713.718	131.821	-0.294	0.381
-712.704	-142.827	-0.183	-0.018
-711.689	147.577	-0.068	0.092
-710.675	800.000	0.031	-0.136
-709.660	-166.877	-0.141	-0.006
-708.645	-38.037	-0.243	0.130
-707.631	800.000	-0.008	0.031
-706.616	61.230	-0.170	0.170
-705.602	-122.737	0.193	0.031
-704.587	800.000	-0.078	-0.322
-703.572	9.742	0.090	0.069
-702.558	652.190	-0.107	-0.276
-701.543	-74.528	0.049	0.018
-700.529	68.905	0.300	0.310
-699.514	-82.264	-0.263	0.086
-698.499	45.611	-0.237	-0.220
-697.485	77.727	-0.158	-0.170
-696.470	-31.301	0.253	0.144
-695.456	-200.000	0.042	0.221
-694.441	-48.152	-0.287	0.139
-693.426	-63.640	-0.042	0.017
-692.412	113.395	-0.157	-0.192
-691.397	-25.433	-0.131	-0.078
-690.383	-74.554	-0.353	-0.128
-689.368	-30.302	-0.280	0.160
-688.354	100.098	0.093	-0.109
-687.339	35.147	0.164	-0.145
-686.324	-200.000	-0.000	-0.520
-685.310	279.754	-0.063	-0.113
-684.295	-51.069	-0.283	0.134
-683.281	197.173	-0.108	-0.166
-682.266	-200.000	0.027	-0.169
-681.251	327.529	0.057	0.111
-680.237	-115.919	0.210	0.039
-679.222	-46.369	-0.148	0.073
-678.208	-1.945	0.085	0.060
-677.193	-55.434	-0.133	-0.060
-676.178	23.061	0.216	-0.178
-675.164	1.619	-0.203	0.147
-674.149	511.833	0.124	0.290
-673.135	-154.719	0.382	0.025
-672.120	90.879	-0.121	-0.136
-671.105	22.688	-0.051	-0.042
-670.091	-200.000	0.008	0.165
-669.076	3.610	-0.314	0.230
-668.062	-102.677	0.051	0.012
-667.047	-169.991	0.390	-0.014
-666.032	-146.739	0.396	0.034
-665.018	419.291	0.057	0.122
-664.003	13.750	0.214	0.167
-662.989	-114.681	-0.136	0.026
-661.974	100.656	0.088	-0.102
-660.959	-200.000	0.014	-0.227
-659.945	-200.000	0.003	0.071
-658.930	401.445	-0.077	0.162
-657.916	-172.329	0.167	0.005
-656.901	-118.608	0.222	-0.039
-655.886	0.500	-0.220	-0.158
-654.872	-62.859	0.233	0.097
-653.857	-48.807	-0.180	0.087
-652.843	-53.072	-0.159	0.073
-651.828	-116.928	0.454	-0.083
-650.814	-11.845	-0.099	0.065
-649.799	34.296	-0.057	-0.050
-648.784	407.875	0.029	-0.061
-647.770	493.700	-0.160	-0.368
-646.755	-200.000	-0.010	0.233
-645.741	-128.114	0.178	0.026
-644.726	-108.495	-0.359	-0.077
-643.711	108.347	0.191	0.229
-642.697	-128.485	0.070	-0.010
-641.682	278.473	0.047	0.084
-640.668	-105.946	0.275	0.062
-639.653	-200.000	-0.020	-0.137
-638.638	260.417	0.037	0.064
-637.624	800.000	0.120	0.381
-636.609	-110.167	-0.281	0.059
-635.595	800.000	-0.066	-0.186
-634.580	800.000	-0.052	-0.198
-633.565	-171.056	0.317	-0.011
-632.551	800.000	0.082	0.329
-631.536	60.585	-0.075	0.074
-630.522	-200.000	0.069	-0.324
-629.507	-200.000	-0.033	-0.174
-628.492	-94.073	-0.271	0.075
-627.478	193.303	-0.160	0.243
-626.463	-101.877	-0.142	0.034
-625.449	-200.000	-0.013	0.118
-624.434	476.213	-0.081	-0.183
-623.419	115.777	-0.054	0.066
-622.405	-35.428	-0.243	-0.132
-621.390	321.330	0.122	0.233
-620.376	-20.934	0.116	-0.071
-619.361	116.462	-0.122	0.150
-618.346	-200.000	-0.027	-0.120
-617.332	91.748	-0.187	-0.211
-616.317	12.905	0.061	0.048
-615.303	454.727	-0.087	0.194
-614.288	-128.408	-0.220	0.031
-613.273	-200.000	0.015	-0.083
-612.259	-67.665	-0.201	0.079
-611.244	-102.486	-0.382	0.092
-610.230	-11.673	-0.170	-0.112
-609.215	-9.364	-0.068	-0.045
-608.201	324.941	-0.128	-0.244
-607.186	-78.226	-0.047	0.016
-606.171	108.320	0.082	0.098
-605.157	275.387	-0.324	-0.577
-604.142	424.950	-0.162	-0.349
-603.128	-63.919	-0.281	-0.115
-602.113	-132.897	0.102	-0.013
-601.098	282.470	0.180	-0.323
-600.084	139.412	0.093	0.122
-599.069	-151.385	0.279	0.021
-598.055	800.000	0.056	-0.196
-597.040	203.031	-0.070	-0.108
-596.025	-8.367	-0.287	0.194
-595.011	-193.185	0.063	-0.001
-593.996	-200.000	0.080	0.362
-592.982	-67.740	0.064	-0.025
-591.967	-144.933	0.024	0.002
-590.952	9.389	-0.271	0.206
-589.938	-24.582	0.032	-0.019
-588.923	-163.449	0.345	-0.016
-587.909	106.222	0.137	-0.162
-586.894	673.436	0.051	-0.134
-585.879	-200.000	-0.021	-0.316
-584.865	189.587	0.056	-0.084
-583.850	103.192	-0.049	-0.058
-582.836	-13.305	0.128	-0.083
-581.821	254.261	-0.128	-0.219
-580.806	-64.945	0.255	-0.103
-579.792	-9.483	-0.130	0.087
-578.777	15.392	-0.107	0.084
-577.763	-117.722	-0.353	-0.064
-576.748	-74.558	-0.484	-0.175
-575.733	800.000	-0.056	-0.177
-574.719	22.661	0.091	0.075
-573.704	14.754	-0.156	0.122
-572.690	800.000	-0.161	-0.457
-571.675	8.296	-0.225	-0.169
-570.661	800.000	-0.068	-0.200
-569.646	314.521	-0.035	0.066
-568.631	346.913	-0.149	-0.294
-567.617	88.778	0.167	-0.185
-566.602	800.000	-0.042	-0.152
-565.588	800.000	0.074	0.240
-564.573	397.693	0.051	-0.106
-563.558	33.210	0.066	0.058
-562.544	-3.467	-0.107	0.074
-561.529	-164.709	-0.180	0.008
-560.515	-167.724	0.259	0.010
-559.500	37.276	-0.089	-0.079
-558.485	-200.000	-0.044	-0.273
-557.471	434.973	0.103	-0.224
-556.456	644.648	-0.127	-0.325
-555.442	-14.016	-0.105	0.068
-554.427	105.382	-0.083	0.098
-553.412	345.556	0.163	-0.320
-552.398	-87.105	0.150	0.046
-551.383	800.000	-0.048	-0.192
-550.369	84.577	0.139	-0.152
-549.354	800.000	-0.122	0.372
-548.339	-200.000	-0.013	-0.107
-547.325	-53.607	0.049	-0.022
-546.310	43.171	-0.299	0.273
-545.296	-200.000	-0.072	0.323
-544.281	-200.000	-0.020	-0.117
-543.266	127.154	0.145	-0.184
-542.252	-140.169	-0.178	0.019
-541.237	-200.000	-0.010	0.167
-540.223	98.352	0.090	-0.104
-539.208	19.314	-0.252	0.202
-538.193	175.209	-0.090	0.130
-537.179	-36.069	-0.215	0.116
-536.164	42.002	0.168	0.152
-535.150	-134.377	0.422	0.052
-534.135	-200.000	0.025	-0.153
-533.121	-60.997	0.109	-0.046
-532.106	800.000	0.028	-0.084
-531.091	-200.000	0.051	-0.403
-530.077	-200.000	-0.045	-0.233
-529.062	-61.753	0.286	-0.120
-528.048	586.891	0.032	0.079
-527.033	-200.000	-0.073	0.000
-526.018	-4.363	0.125	-0.086
-525.004	-78.095	0.327	0.112
-523.989	57.663	0.259	0.253
-522.975	800.000	0.034	-0.130
-521.960	-158.817	-0.049	-0.003
-520.945	-27.417	0.139	-0.081
-519.931	-106.777	-0.008	0.002
-518.916	-41.181	-0.228	-0.118
-517.902	-61.795	0.315	0.132
-516.887	-93.901	0.186	0.051
-515.872	-124.840	-0.282	-0.043
-514.858	-200.000	0.019	0.086
-513.843	-116.811	-0.176	-0.032
-512.829	-126.559	-0.210	-0.031
-511.814	-86.163	0.134	0.041
-510.799	-124.349	-0.229	-0.036
-509.785	-134.763	-0.191	-0.023
-508.770	245.409	0.206	0.347
-507.756	-200.000	-0.057	-0.307
-506.741	800.000	-0.034	-0.115
-505.726	-69.989	-0.195	-0.074
-504.712	-143.409	-0.061	-0.006
-503.697	800.000	0.081	0.232
-502.683	800.000	0.033	0.107
-501.668	36.539	0.244	-0.215
-500.653	-200.000	-0.039	0.494
-499.639	-80.817	0.397	0.131
-498.624	99.853	-0.312	-0.361
-497.610	800.000	0.078	0.301
-496.595	800.000	-0.032	0.109
-495.581	-74.407	0.334	0.120
-494.566	612.566	-0.057	0.142
-493.551	800.000	0.115	0.362
-492.537	263.554	-0.064	0.112
-491.522	-200.000	-0.044	0.248
-490.508	-50.883	0.039	-0.018
-489.493	-40.014	-0.142	-0.074
-488.478	-200.000	-0.024	-0.181
-487.464	-200.000	0.011	-0.121
-486.449	800.000	-0.032	-0.089
-485.435	800.000	-0.056	0.185
-484.420	234.631	0.160	-0.263
-483.405	-65.086	-0.217	-0.087
-482.391	-200.000	0.026	0.199
-481.376	-200.000	0.019	0.265
-480.362	116.538	-0.251	0.307
-479.347	-46.540	-0.116	-0.057
-478.332	-200.000	0.026	-0.218
-477.318	-200.000	-0.020	0.144
-476.303	-72.062	-0.117	-0.043
-475.289	-80.688	0.074	0.025
-474.274	242.464	0.087	0.145
-473.259	293.575	0.108	-0.196
-472.245	-200.000	0.008	0.350
-471.230	60.248	-0.098	0.097
-470.216	80.394	0.115	0.123
-469.201	-200.000	0.071	-0.316
-468.186	-76.988	-0.342	-0.119
-467.172	800.000	-0.056	-0.173
-466.157	-200.000	0.015	-0.223
-465.143	-98.458	0.143	0.037
-464.128	-27.864	0.099	0.057
-463.113	1.311	-0.222	0.159
-462.099	800.000	-0.040	0.153
-461.084	-2.000	0.159	0.111
-460.070	-8.086	-0.111	-0.075
-459.055	-60.553	-0.519	-0.220
-458.040	-39.126	-0.018	-0.010
-457.026	-60.743	0.142	-0.060
-456.011	-200.000	-0.002	0.077
-454.997	115.585	-0.144	0.175
-453.982	-104.489	-0.376	-0.087
-452.968	111.779	0.128	-0.154
-451.953	-70.754	-0.218	-0.082
-450.938	800.000	0.063	-0.204
-449.924	-52.126	0.169	-0.078
-448.909	-200.000	-0.002	0.234
-447.895	-200.000	-0.010	-0.079
-446.880	-200.000	-0.025	-0.143
-445.865	-200.000	0.042	-0.338
-444.851	800.000	0.027	-0.080
-443.836	-162.083	-0.128	-0.006
-442.822	223.719	-0.172	-0.276
-441.807	-166.120	-0.245	0.010
-440.792	-72.502	0.120	-0.044
-439.778	-13.637	-0.195	-0.126
-438.763	-200.000	-0.002	0.009
-437.749	-25.585	-0.211	0.124
-436.734	258.519	0.091	0.157
-435.719	800.000	-0.032	0.139
-434.705	-40.029	-0.128	-0.067
-433.690	-72.184	0.366	-0.135
-432.676	-84.024	0.089	0.028
-431.661	-90.949	0.228	-0.065
-430.646	-135.241	-0.136	-0.016
-429.632	473.743	-0.063	-0.142
-428.617	-92.290	-0.126	-0.035
-427.603	-83.068	0.195	-0.063
-426.588	-0.669	0.172	-0.122
-425.573	-141.475	0.070	-0.007
-424.559	57.417	0.197	0.192
-423.544	-36.070	-0.251	0.135
-422.530	-17.770	-0.019	-0.012
-421.515	-200.000	0.034	0.234
-420.500	-3.072	0.169	0.118
-419.486	58.440	0.124	-0.121
-418.471	111.328	0.141	0.169
-417.457	-44.394	0.184	0.092
-416.442	-137.270	-0.162	-0.018
-415.428	800.000	-0.060	0.245
-414.413	-200.000	-0.011	0.237
-413.398	479.048	0.108	-0.243
-412.384	-200.000	-0.013	0.103
-411.369	203.443	0.090	-0.138
-410.355	18.686	-0.185	0.147
-409.340	-170.759	0.077	0.003
-408.325	467.419	0.050	0.111
-407.311	-200.000	-0.007	0.086
-406.296	-151.535	-0.248	0.018
-405.282	22.736	-0.097	0.079
-404.267	-200.000	-0.031	-0.424
-403.252	114.945	-0.234	0.283
-402.238	11.455	0.022	-0.017
-401.223	-200.000	-0.014	0.164
-400.209	-89.645	0.281	-0.082
-399.194	-200.000	0.047	-0.336
-398.179	17.679	-0.147	-0.116
-397.165	49.657	0.268	0.251
-396.150	327.971	0.108	-0.205
-395.136	72.879	-0.182	0.189
-394.121	2.053	0.077	-0.056
-393.106	48.514	-0.144	-0.134
-392.092	86.270	-0.191	-0.209
-391.077	-200.000	0.022	-0.145
-390.063	-200.000	-0.004	-0.151
-389.048	-66.908	-0.253	0.099
-388.033	685.181	-0.061	0.157
-387.019	-200.000	-0.019	0.126
-386.004	-200.000	0.003	0.380
-384.990	-16.880	0.252	-0.158
-383.975	108.971	0.218	-0.260
-382.960	-165.972	-0.444	-0.019
-381.946	-200.000	-0.012	0.125
-380.931	-18.266	0.122	-0.076
-379.917	121.958	0.242	-0.300
-378.902	-41.025	0.148	0.076
-377.888	-110.029	0.241	0.050
-376.873	-200.000	-0.008	0.415
-375.858	-148.254	-0.297	-0.024
-374.844	-45.555	-0.279	0.137
-373.829	525.212	-0.084	-0.195
-372.815	800.000	0.077	-0.220
-371.800	123.626	0.168	-0.210
-370.785	800.000	0.067	0.260
-369.771	-200.000	0.025	0.320
-368.756	-106.640	0.319	0.070
-367.742	800.000	-0.022	0.064
-366.727	330.220	-0.081	0.156
-365.712	59.226	-0.182	0.178
-364.698	-47.956	0.038	0.018
-363.683	557.972	-0.087	0.208
-362.669	135.190	0.088	0.113
-361.654	-134.913	0.215	0.026
-360.639	-17.698	0.397	0.247
-359.625	525.679	-0.033	0.077
-358.610	-200.000	-0.017	0.291
-357.596	-33.374	-0.067	-0.037
-356.581	-200.000	-0.016	-0.107
-355.566	46.948	-0.168	0.155
-354.552	-168.154	0.138	0.005
-353.537	800.000	0.058	0.168
-352.523	337.944	0.102	-0.196
-351.508	92.262	0.147	-0.165
-350.493	-104.862	-0.191	-0.044
-349.479	-95.199	-0.028	-0.007
-348.464	-27.433	-0.374	0.216
-347.450	51.843	-0.067	0.063
-346.435	-0.343	-0.006	-0.004
-345.420	-200.000	0.005	-0.193
-344.406	-109.269	-0.049	-0.010
-343.391	-200.000	0.018	-0.328
-342.377	-63.902	-0.181	0.074
-341.362	246.082	0.104	-0.173
-340.348	379.550	0.056	0.115
-339.333	82.963	0.199	0.215
-338.318	-21.869	-0.297	0.179
-337.304	354.320	0.178	-0.351
-336.289	-17.415	0.059	-0.037
-335.275	-49.080	0.342	-0.162
-334.260	48.215	0.057	-0.053
-333.245	86.149	0.061	0.067
-332.231	-200.000	0.012	-0.350
-331.216	-200.000	0.047	-0.277
-330.202	-162.426	0.215	-0.011
-329.187	518.821	-0.023	0.052
-328.172	-200.000	0.018	-0.159
-327.158	-200.000	0.021	0.329
-326.143	-102.749	0.180	-0.043
-325.129	-41.699	0.125	-0.064
-324.114	-11.247	-0.188	-0.123
-323.099	24.548	-0.325	-0.267
-322.085	800.000	0.083	0.250
-321.070	-96.247	0.084	-0.022
-320.056	22.124	0.084	-0.068
-319.041	-63.783	-0.252	-0.102
-318.026	471.053	-0.123	0.274
-317.012	85.262	0.168	-0.183
-315.997	-200.000	0.001	0.466
-314.983	800.000	-0.030	0.095
-313.968	-195.759	-0.254	-0.002
-312.953	-4.104	-0.303	0.208
-311.939	206.350	0.108	0.167
-310.924	19.512	0.086	0.069
-309.910	719.066	-0.102	-0.269
-308.895	-60.736	-0.224	-0.094
-307.880	322.195	0.065	0.123
-306.866	-200.000	0.008	-0.100
-305.851	546.469	0.119	0.283
-304.837	-58.137	-0.247	-0.107
-303.822	363.392	0.069	-0.137
-302.807	-115.589	0.227	0.042
-301.793	-52.196	-0.321	0.147
-300.778	-73.060	-0.179	-0.065
-299.764	248.489	-0.153	-0.257
-298.749	-87.187	0.432	-0.130
-297.735	785.682	0.056	-0.152
-296.720	154.782	-0.104	-0.142
-295.705	-200.000	-0.011	-0.068
-294.691	-200.000	0.029	0.401
-293.676	-198.747	-0.275	-0.002
-292.662	-200.000	0.002	0.052
-291.647	-100.377	0.371	0.091
-290.632	-200.000	-0.018	0.127
-289.618	36.233	-0.169	0.147
-288.603	394.362	-0.179	-0.370
-287.589	-119.421	0.224	-0.039
-286.574	800.000	0.062	0.190
-285.559	-89.238	0.096	-0.028
-284.545	800.000	-0.051	0.192
-283.530	-195.254	-0.144	-0.001
-282.516	-152.743	-0.328	-0.023
-281.501	265.027	-0.105	0.181
-280.486	30.644	0.072	-0.061
-279.472	-200.000	0.033	-0.288
-278.457	-91.089	0.375	-0.106
-277.443	-200.000	-0.007	0.037
-276.428	-200.000	0.034	0.218
-275.413	800.000	-0.073	-0.254
-274.399	-97.548	-0.311	0.080
-273.384	103.968	-0.095	-0.111
-272.370	756.124	0.120	0.320
-271.355	-9.830	-0.101	-0.067
-270.340	18.096	0.175	0.138
-269.326	52.611	0.048	0.046
-268.311	-200.000	0.009	0.050
-267.297	-40.153	0.124	-0.064
-266.282	12.316	0.091	-0.070
-265.267	-200.000	-0.022	0.285
-264.253	800.000	0.061	-0.176
-263.238	-16.064	0.159	-0.100
-262.224	800.000	-0.056	-0.195
-261.209	-117.353	0.484	-0.087
-260.195	162.502	-0.141	0.195
-259.180	800.000	0.104	-0.405
-258.165	80.314	0.082	-0.088
-257.151	175.612	0.153	0.220
-256.136	62.683	-0.106	0.104
-255.122	-53.035	-0.172	-0.078
-254.107	193.034	-0.168	0.251
-253.092	-200.000	0.027	0.165
-252.078	-156.271	-0.170	0.011
-251.063	-99.257	-0.237	-0.059
-250.049	-90.724	0.094	-0.027
-249.034	800.000	-0.126	-0.472
-248.019	443.109	0.086	-0.186
-247.005	-56.285	0.193	0.085
-245.990	290.961	-0.130	0.233
-244.976	46.318	-0.047	0.043
-243.961	-200.000	0.018	-0.089
-242.946	-158.597	0.316	-0.018
-241.932	-200.000	0.013	0.151
-240.917	800.000	0.089	0.296
-239.903	-113.576	0.078	0.015
-238.888	-200.000	0.016	-0.083
-237.873	-70.997	-0.126	0.047
-236.859	-32.424	-0.209	0.115
-235.844	-48.580	0.058	0.028
-234.830	455.759	0.025	-0.056
-233.815	-55.234	-0.152	0.068
-232.800	291.516	-0.193	-0.347
-231.786	800.000	0.085	-0.239
-230.771	115.027	0.119	-0.143
-229.757	56.397	0.083	-0.080
-228.742	800.000	-0.031	-0.122
-227.727	800.000	-0.106	0.391
-226.713	280.453	0.191	0.337
-225.698	583.152	0.179	-0.434
-224.684	493.016	-0.094	-0.214
-223.669	479.281	0.066	0.147
-222.655	-161.872	-0.239	0.012
-221.640	-13.579	-0.276	0.176
-220.625	-2.618	-0.214	0.148
-219.611	-132.269	-0.057	0.007
-218.596	62.596	-0.037	-0.036
-217.582	-0.406	0.149	-0.105
-216.567	324.069	0.096	0.181
-215.552	535.543	0.015	-0.034
-214.538	-80.161	-0.246	-0.081
-213.523	-48.646	-0.211	0.100
-212.509	368.211	0.073	-0.146
-211.494	-118.461	0.159	0.028
-210.479	0.515	0.227	-0.160
-209.465	-200.000	0.038	0.172
-208.450	-120.342	0.091	-0.015
-207.436	-131.454	0.074	-0.010
-206.421	89.516	0.153	-0.169
-205.406	-161.834	-0.075	0.004
-204.392	-50.016	0.160	0.075
-203.377	-88.423	-0.364	0.107
-202.363	-154.203	0.310	-0.021
-201.348	798.436	-0.058	0.157
-200.333	-200.000	0.037	0.162
-199.319	-48.796	-0.086	0.041
-198.304	-8.661	0.148	0.098
-197.290	86.307	-0.145	0.157
-196.275	51.248	-0.202	-0.189
-195.260	103.730	0.160	0.185
-194.246	-141.421	0.289	0.029
-193.231	-43.631	0.324	0.161
-192.217	-97.237	0.120	-0.031
-191.202	-200.000	0.032	-0.188
-190.187	-111.934	0.116	0.023
-189.173	-200.000	-0.024	0.134
-188.158	800.000	0.023	-0.075
-187.144	87.014	0.097	-0.106
-186.129	82.730	0.213	0.228
-185.114	-200.000	-0.001	0.452
-184.100	-200.000	-0.035	0.166
-183.085	800.000	0.001	-0.002
-182.071	-200.000	0.045	0.441
-181.056	275.640	0.139	0.243
-180.042	115.028	0.166	0.200
-179.027	-67.726	0.236	0.091
-178.012	-120.928	-0.134	-0.022
-176.998	523.351	0.143	-0.330
-175.983	36.583	0.310	-0.270
-174.969	800.000	0.117	0.322
-173.954	-99.538	0.308	-0.076
-172.939	-113.680	-0.012	-0.002
-171.925	800.000	-0.060	-0.192
-170.910	-110.511	-0.164	0.033
-169.896	104.023	0.154	-0.178
-168.881	113.131	0.184	0.220
-167.866	-27.736	-0.206	-0.118
-166.852	244.586	0.048	0.079
-165.837	154.307	0.051	0.069
-164.823	18.983	0.208	-0.164
-163.808	231.831	0.060	0.097
-162.793	-92.450	0.204	0.056
-161.779	-155.365	0.204	0.013
-160.764	-90.529	-0.337	0.096
-159.750	300.364	0.295	0.536
-158.735	397.423	0.112	0.231
-157.720	-29.684	0.160	-0.090
-156.706	710.839	-0.155	-0.404
-155.691	-137.367	0.101	0.011
-154.677	-123.764	-0.269	-0.042
-153.662	800.000	0.162	-0.478
-152.647	-200.000	0.030	0.349
-151.633	-50.478	0.169	-0.079
-150.618	-74.734	0.293	-0.104
-149.604	4.866	0.356	0.258
-148.589	-169.894	-0.093	0.003
-147.574	-57.062	-0.177	0.077
-146.560	-48.765	0.077	-0.036
-145.545	-27.252	0.197	0.113
-144.531	-200.000	-0.030	0.267
-143.516	-122.638	-0.094	0.015
-142.502	800.000	-0.064	-0.187
-141.487	-200.000	-0.037	-0.214
-140.472	-100.364	-0.158	-0.039
-139.458	102.340	-0.299	-0.344
-138.443	301.220	-0.196	0.356
-137.429	53.658	0.278	0.262
-136.414	-68.328	-0.330	0.126
-135.399	-48.740	0.076	0.036
-134.385	-119.582	0.088	0.015
-133.370	287.606	0.007	-0.012
-132.356	214.220	-0.077	0.120
-131.341	-41.973	-0.236	0.119
-130.326	5.903	-0.289	-0.211
-129.312	-69.655	-0.069	-0.026
-128.297	-200.000	-0.011	0.290
-127.283	-71.882	0.378	-0.139
-126.268	-200.000	0.029	-0.157
-125.253	-4.912	-0.138	-0.094
-124.239	-200.000	-0.003	0.141
-123.224	-153.334	-0.135	-0.009
-122.210	254.945	0.114	-0.192
-121.195	800.000	-0.078	0.239
-120.180	98.143	-0.201	-0.227
-119.166	-13.943	0.103	-0.065
-118.151	800.000	0.051	-0.187
-117.137	-61.672	-0.230	0.095
-116.122	260.093	-0.092	0.156
-115.107	-82.118	-0.247	0.079
-114.093	-200.000	0.038	-0.189
-113.078	-37.896	-0.111	0.058
-112.064	-104.782	0.125	0.028
-111.049	14.752	0.135	-0.104
-110.034	-103.458	-0.292	-0.067
-109.020	-119.706	0.215	0.036
-108.005	-151.962	-0.085	0.006
-106.991	800.000	-0.031	0.086
-105.976	-135.572	-0.082	-0.010
-104.962	-200.000	0.071	0.473
-103.947	-200.000	0.017	-0.335
-102.932	-0.397	-0.397	0.277
-101.918	-200.000	0.002	-0.044
-100.903	-32.751	-0.281	0.154
-99.889	-5.565	-0.255	0.172
-98.874	800.000	0.131	0.391
-97.859	35.663	0.152	0.131
-96.845	-94.898	-0.095	-0.025
-95.830	-200.000	-0.023	0.173
-94.816	-6.234	-0.255	0.171
-93.801	75.729	-0.066	0.069
-92.786	466.528	0.227	0.500
-91.772	774.078	0.085	-0.228
-90.757	581.366	-0.139	-0.334
-89.743	-94.670	0.237	0.063
-88.728	-200.000	-0.094	-0.431
-87.713	-108.809	-0.400	0.084
-86.699	-146.960	0.282	-0.024
-85.684	95.210	0.218	0.244
-84.670	167.704	0.096	-0.134
-83.655	59.760	0.167	-0.162
-82.640	-42.657	0.136	0.068
-81.626	-36.645	-0.439	0.232
-80.611	187.527	-0.113	-0.165
-79.597	-200.000	0.015	0.201
-78.582	800.000	-0.037	-0.140
-77.567	117.639	0.081	-0.098
-76.553	-35.680	-0.219	0.117
-75.538	162.333	-0.099	0.136
-74.524	175.037	-0.165	0.234
-73.509	33.209	-0.035	-0.030
-72.494	2.659	0.307	-0.218
-71.480	26.238	0.166	-0.136
-70.465	-200.000	-0.009	0.091
-69.451	800.000	0.177	0.491
-68.436	624.974	-0.042	-0.104
-67.422	-100.387	0.257	-0.062
-66.407	178.109	0.099	0.142
-65.392	11.451	0.099	-0.074
-64.378	-200.000	0.068	0.301
-63.363	159.230	0.030	-0.042
-62.349	80.904	0.127	-0.135
-61.334	-8.632	-1.080	-0.711
-60.319	67.999	0.560	0.562
-59.305	800.000	-0.353	-1.235
-58.290	560.849	0.458	1.087
-57.276	-200.000	0.253	1.312
-56.261	-200.000	107.835	574.945
-55.246	409.361	1518.142	3155.269
-54.232	140.135	2721.112	3521.782
-53.217	102.080	2200.080	2520.886
-52.203	40.052	1635.735	1442.340
-51.188	32.124	1372.234	1161.173
-50.173	29.209	1331.693	1109.299
-49.159	52.349	1385.480	1296.874
-48.144	52.455	1401.380	1312.358
-47.130	32.465	1356.293	1149.584
-46.115	29.093	1338.255	1113.887
-45.100	28.868	1333.692	1108.687
-44.086	28.849	1330.796	1106.125
-43.071	28.719	1328.843	1103.673
-42.057	28.783	1326.319	1101.920
-41.042	28.717	1324.568	1100.025
-40.027	28.810	1322.832	1099.093
-39.013	28.692	1321.120	1096.922
-37.998	28.872	1318.815	1096.042
-36.984	28.994	1316.807	1095.053
-35.969	28.895	1315.614	1093.429
-34.954	28.891	1313.962	1091.989
-33.940	28.888	1312.728	1090.903
-32.925	28.833	1311.445	1089.465
-31.911	28.969	1309.888	1088.938
-30.896	29.121	1307.989	1088.214
-29.881	28.946	1307.221	1086.495
-28.867	29.065	1305.334	1085.590
-27.852	29.078	1303.602	1084.180
-26.838	29.031	1302.355	1082.823
-25.823	29.035	1300.966	1081.652
-24.809	28.999	1299.515	1080.190
-23.794	28.839	1298.749	1078.569
-22.779	28.892	1297.047	1077.426
-21.765	29.007	1295.673	1076.913
-20.750	28.899	1294.062	1074.898
-19.736	28.864	1293.075	1073.834
-18.721	28.768	1292.020	1072.357
-17.706	28.821	1290.631	1071.469
-16.692	28.975	1289.188	1071.124
-15.677	28.951	1288.362	1070.257
-14.663	28.863	1287.554	1069.031
-13.648	28.807	1286.454	1067.747
-12.633	28.732	1285.402	1066.401
-11.619	28.789	1284.870	1066.245
-10.604	28.761	1283.419	1064.838
-9.590	28.849	1282.703	1064.710
-8.575	28.880	1281.399	1063.766
-7.560	28.885	1280.466	1062.980
-6.546	28.791	1280.089	1062.076
-5.531	28.828	1279.122	1061.451
-4.517	28.906	1277.914	1060.856
-3.502	28.897	1277.398	1060.332
-2.487	28.854	1276.412	1059.220
-1.473	28.919	1271.967	1055.864
-0.458	27.790	1257.807	1037.653
0.556	23.056	1241.448	1001.735
1.571	19.608	1247.994	987.256
2.586	18.629	1262.990	993.364
3.600	18.047	1251.125	980.604
4.615	13.070	1176.643	895.223
5.629	4.644	1099.450	793.571
6.644	0.625	1079.578	758.990
7.659	0.317	1077.567	755.967
8.673	0.312	1076.472	755.108
9.688	0.286	1075.434	754.183
10.702	0.489	1073.211	753.572
11.717	5.388	1079.853	782.737
12.731	13.202	1089.996	829.373
13.746	16.715	1093.777	849.837
14.761	16.744	1094.041	850.114
15.775	16.009	1091.733	844.565
16.790	15.141	1089.785	838.635
17.804	14.475	1088.289	834.080
18.819	14.101	1086.959	831.122
19.834	13.687	1086.291	828.466
20.848	13.531	1085.213	826.792
21.863	13.359	1084.285	825.155
22.877	13.088	1083.663	823.257
23.892	13.027	1082.807	822.232
24.907	12.970	1082.542	821.673
25.921	13.249	1080.837	821.690
26.936	13.141	1080.707	820.987
27.950	13.173	1079.664	820.278
28.965	13.308	1078.330	819.861
29.980	13.426	1076.746	819.168
30.994	13.373	1075.862	818.161
32.009	13.367	1075.037	817.431
33.023	13.396	1073.656	816.455
34.038	13.331	1072.767	815.383
35.053	13.249	1071.816	814.185
36.067	13.354	1071.021	814.026
37.082	13.327	1070.574	813.482
38.096	13.203	1069.866	812.263
39.111	13.280	1068.885	811.825
40.126	13.288	1067.962	811.088
41.140	13.240	1066.307	809.526
42.155	13.066	1065.549	808.029
43.169	13.122	1064.453	807.396
44.184	13.072	1063.320	806.223
45.199	13.163	1062.052	805.637
46.213	13.223	1060.701	804.833
47.228	13.286	1059.786	804.374
48.242	13.350	1058.464	803.609
49.257	13.225	1057.666	802.327
50.271	13.273	1057.048	802.018
51.286	13.354	1056.088	801.613
52.301	13.265	1055.194	800.431
53.315	13.222	1054.028	799.267
54.330	13.208	1052.912	798.282
55.344	13.132	1052.312	797.392
56.359	13.247	1051.392	797.176
57.374	13.161	1050.580	796.079
58.388	13.123	1049.705	795.160
59.403	13.087	1048.747	794.192
60.417	13.106	1048.060	793.693
61.432	13.043	1047.508	792.901
62.447	13.123	1046.567	792.502
63.461	12.995	1045.928	791.334
64.476	13.107	1044.991	791.095
65.490	13.103	1043.622	789.968
66.505	13.180	1042.955	789.761
67.520	13.157	1042.488	789.225
68.534	13.132	1041.615	788.379
69.549	13.207	1041.331	788.451
70.563	13.191	1039.935	787.246
71.578	13.093	1039.322	786.249
72.593	12.956	1038.580	784.965
73.607	13.105	1038.102	785.240
74.622	13.077	1037.443	784.541
75.636	12.982	1037.004	783.687
76.651	13.047	1035.924	783.113
77.666	13.007	1035.626	782.627
78.680	13.118	1034.536	782.259
79.695	13.103	1033.938	781.670
80.709	13.102	1033.630	781.363
81.724	13.119	1032.722	780.685
82.739	13.165	1031.544	779.945
83.753	13.234	1031.072	779.842
84.768	13.369	1030.173	779.729
85.782	13.434	1028.915	779.016
86.797	13.360	1028.076	777.963
87.812	13.220	1027.875	777.084
88.826	13.247	1026.303	775.952
89.841	13.164	1025.482	774.874
90.855	13.357	1024.221	774.758
91.870	13.281	1023.846	774.048
92.884	13.419	1022.810	773.843
93.899	13.378	1022.110	773.052
94.914	13.454	1021.190	772.643
95.928	13.307	1020.454	771.333
96.943	13.222	1019.481	770.134
97.957	13.273	1018.685	769.703
98.972	13.366	1017.694	769.318
99.987	13.307	1016.879	768.357
101.001	13.216	1016.097	767.278
102.016	13.327	1015.105	766.973
103.030	13.422	1014.140	766.620
104.045	13.351	1013.439	765.689
105.060	13.308	1012.750	764.903
106.074	13.248	1011.568	763.666
107.089	13.117	1010.568	762.241
108.103	13.224	1009.865	762.137
109.118	13.324	1008.093	761.193
110.133	13.177	1007.804	760.229
111.147	13.137	1006.865	759.269
112.162	13.207	1006.377	759.154
113.176	13.277	1005.573	758.804
114.191	13.230	1004.736	757.891
115.206	13.294	1003.893	757.480
116.220	13.224	1003.173	756.550
117.235	13.423	1001.460	756.099
118.249	13.310	1001.041	755.199
119.264	13.298	1000.319	754.533
120.279	13.193	999.897	753.672
121.293	13.282	998.845	753.215
122.308	13.314	997.338	752.158
123.322	13.312	996.484	751.437
124.337	13.314	995.518	750.652
125.352	13.303	994.447	749.730
126.366	13.123	993.940	748.467
127.381	13.142	992.383	747.314
128.395	13.333	991.340	747.326
129.410	13.360	990.538	746.774
130.424	13.221	990.172	745.806
131.439	13.332	989.281	745.570
132.454	13.363	988.291	744.898
133.468	13.308	987.616	744.076
134.483	13.350	986.458	743.325
135.497	13.377	985.580	742.720
136.512	13.460	984.841	742.469
137.527	13.379	983.968	741.384
138.541	13.290	983.374	740.470
139.556	13.277	982.990	740.056
140.570	13.418	982.205	740.031
141.585	13.541	980.662	739.350
142.600	13.443	980.595	738.798
143.614	13.521	979.638	738.359
144.629	13.558	978.759	737.797
145.643	13.543	977.879	737.004
146.658	13.330	976.943	735.284
147.673	13.501	976.065	735.317
148.687	13.394	975.339	734.230
149.702	13.421	974.318	733.515
150.716	13.340	973.717	732.640
151.731	13.361	972.614	731.840
152.746	13.368	972.080	731.404
153.760	13.433	971.497	731.188
154.775	13.570	970.773	731.183
155.789	13.531	970.162	730.486
156.804	13.522	969.684	730.020
157.819	13.647	968.619	729.705
158.833	13.670	967.984	729.262
159.848	13.614	967.072	728.266
160.862	13.565	966.482	727.543
161.877	13.535	965.226	726.399
162.892	13.620	964.253	725.975
163.906	13.540	962.986	724.609
164.921	13.564	962.442	724.242
165.935	13.471	961.729	723.233
166.950	13.552	961.017	722.988
167.964	13.610	959.741	722.215
168.979	13.573	958.866	721.331
169.994	13.650	958.146	721.062
171.008	13.595	957.742	720.454
172.023	13.676	956.661	719.929
173.037	13.753	956.024	719.721
174.052	13.600	955.567	718.651
175.067	13.601	954.508	717.792
176.081	13.530	954.407	717.347
177.096	13.575	953.558	716.839
178.110	13.663	952.873	716.644
179.125	13.747	952.151	716.397
180.140	13.756	951.895	716.184
181.154	13.699	951.220	715.365
182.169	13.745	950.899	715.259
183.183	13.876	949.996	715.078
184.198	13.851	948.947	714.120
185.213	14.057	948.014	714.240
186.227	14.093	946.921	713.509
187.242	13.873	947.160	712.678
188.256	14.027	946.298	712.627
189.271	13.962	945.373	711.590
190.286	13.856	944.806	710.647
191.300	13.713	944.084	709.427
192.315	13.758	943.222	708.910
193.329	13.753	943.131	708.760
194.344	13.666	942.534	707.877
195.359	13.783	942.087	707.978
196.373	13.821	941.509	707.640
197.388	13.954	940.772	707.593
198.402	14.089	939.765	707.347
199.417	14.074	939.640	707.124
200.432	13.985	938.708	705.985
201.446	14.021	938.528	705.940
202.461	14.155	937.711	705.832
203.475	14.070	937.238	705.050
204.490	14.068	936.548	704.462
205.504	14.143	935.446	703.886
206.519	14.031	935.174	703.147
207.534	14.098	934.335	702.737
208.548	14.041	933.431	701.753
209.563	14.066	932.980	701.459
210.577	14.077	932.369	700.983
211.592	14.210	931.692	700.972
212.607	14.319	930.759	700.667
213.621	14.233	929.869	699.576
214.636	14.159	929.513	698.935
215.650	14.244	928.458	698.436
216.665	14.373	927.874	698.474
217.680	14.401	927.080	697.931
218.694	14.336	926.554	697.201
219.709	14.267	925.648	696.170
220.723	14.305	924.981	695.766
221.738	14.416	924.299	695.657
222.753	14.420	923.798	695.233
223.767	14.460	922.754	694.554
224.782	14.388	922.929	694.324
225.796	14.452	922.440	694.162
226.811	14.504	921.489	693.599
227.826	14.425	920.594	692.536
228.840	14.416	919.705	691.769
229.855	14.254	919.442	690.839
230.869	14.402	918.569	690.733
231.884	14.450	917.619	690.158
232.899	14.374	917.110	689.398
233.913	14.371	916.126	688.585
234.928	14.401	915.389	688.093
235.942	14.315	915.355	687.653
236.957	14.341	915.008	687.437
237.972	14.442	913.998	687.037
238.986	14.647	912.817	686.929
240.001	14.455	912.455	685.809
241.015	14.492	912.214	685.719
242.030	14.455	911.275	684.799
243.045	14.624	910.296	684.699
244.059	14.632	909.987	684.436
245.074	14.632	909.156	683.751
246.088	14.645	908.501	683.252
247.103	14.740	907.939	683.155
248.117	14.543	907.593	682.032
249.132	14.655	906.819	681.847
250.147	14.625	906.513	681.431
251.161	14.786	905.814	681.504
252.176	14.919	904.816	681.235
253.190	14.849	904.047	680.311
254.205	14.866	903.749	680.096
255.220	14.803	902.936	679.168
256.234	14.913	902.157	678.969
257.249	14.982	901.633	678.794
258.263	14.938	900.776	677.908
259.278	14.946	899.919	677.237
260.293	14.977	899.790	677.207
261.307	15.054	898.959	676.832
262.322	15.048	898.546	676.435
263.336	15.067	897.724	675.837
264.351	15.113	896.970	675.392
265.366	15.205	896.250	675.162
266.380	15.148	895.933	674.635
267.395	15.046	895.101	673.537
268.409	14.991	894.538	672.831
269.424	15.119	893.452	672.470
270.439	15.082	892.612	671.630
271.453	15.066	891.891	670.964
272.468	15.177	891.415	670.991
273.482	15.091	891.195	670.424
274.497	15.074	890.477	669.753
275.512	15.179	889.521	669.394
276.526	15.197	889.393	669.312
277.541	15.247	888.850	669.045
278.555	15.224	888.598	668.703
279.570	15.395	887.067	668.173
280.585	15.169	887.075	667.218
281.599	15.432	885.794	667.244
282.614	15.392	884.996	666.423
283.628	15.137	885.125	665.449
284.643	15.145	884.339	664.832
285.657	15.343	883.543	664.961
286.672	15.392	883.059	664.731
287.687	15.359	882.340	664.001
288.701	15.400	881.897	663.770
289.716	15.376	881.465	663.291
290.730	15.397	880.643	662.698
291.745	15.322	880.498	662.230
292.760	15.483	879.546	662.093
293.774	15.471	878.677	661.331
294.789	15.561	877.946	661.078
295.803	15.505	877.386	660.377
296.818	15.514	876.452	659.652
297.833	15.511	875.751	659.054
298.847	15.558	875.538	659.019
299.862	15.589	875.044	658.712
300.876	15.643	874.261	658.275
301.891	15.655	873.594	657.760
302.906	15.738	873.052	657.619
303.920	15.639	872.801	656.984
304.935	15.724	872.136	656.759
305.949	15.802	871.251	656.340
306.964	15.783	870.654	655.755
307.979	15.656	870.183	654.851
308.993	15.667	869.600	654.396
310.008	15.841	868.868	654.462
311.022	15.728	868.384	653.602
312.037	16.012	867.462	653.953
313.052	15.754	867.107	652.627
314.066	15.704	866.646	652.026
315.081	15.681	866.288	651.610
316.095	15.717	865.512	651.109
317.110	15.747	865.187	650.922
318.125	15.814	864.685	650.748
319.139	15.800	863.874	650.026
320.154	15.803	863.437	649.648
321.168	15.759	863.232	649.266
322.183	15.909	862.275	649.068
323.197	15.806	862.070	648.461
324.212	15.884	861.323	648.142
325.227	15.815	860.964	647.550
326.241	15.849	860.272	647.100
327.256	15.900	859.666	646.784
328.270	16.050	858.668	646.550
329.285	15.893	858.251	645.581
330.300	15.663	857.926	644.397
331.314	15.927	857.035	644.680
332.329	16.113	856.510	644.941
333.343	16.126	855.849	644.435
334.358	16.069	855.727	644.066
335.373	16.042	855.701	643.888
336.387	16.136	855.057	643.706
337.402	16.134	854.867	643.498
338.416	16.171	854.500	643.307
339.431	16.214	854.095	643.107
340.446	16.258	853.529	642.791
341.460	16.338	853.233	642.816
342.475	16.240	852.787	642.051
343.489	16.214	852.353	641.568
344.504	16.377	851.861	641.760
345.519	16.495	850.865	641.401
346.533	16.377	850.825	640.867
347.548	16.189	850.417	639.789
348.562	16.368	849.324	639.588
349.577	16.334	848.818	639.023
350.592	16.327	848.304	638.554
351.606	16.413	847.490	638.206
352.621	16.510	846.846	638.034
353.635	16.335	846.518	637.068
354.650	16.318	845.898	636.481
355.665	16.404	845.445	636.408
356.679	16.380	844.760	635.748
357.694	16.414	844.051	635.285
358.708	16.517	843.241	635.007
359.723	16.469	842.896	634.511
360.738	16.419	842.203	633.744
361.752	16.477	841.585	633.441
362.767	16.574	840.868	633.208
363.781	16.563	840.422	632.774
364.796	16.595	840.132	632.620
365.810	16.719	839.439	632.506
366.825	16.634	839.195	631.950
367.840	16.631	838.777	631.567
368.854	16.645	838.306	631.209
369.869	16.643	837.736	630.717
370.883	16.568	837.719	630.368
371.898	16.690	837.338	630.480
372.913	16.826	836.416	630.236
373.927	16.843	836.094	630.002
374.942	16.826	835.529	629.457
375.956	16.948	834.913	629.389
376.971	17.013	834.284	629.099
377.986	16.862	834.138	628.373
379.000	16.877	833.606	627.974
380.015	16.923	833.531	628.032
381.029	16.914	832.344	627.050
382.044	16.970	831.958	626.910
383.059	17.065	831.268	626.684
384.073	16.957	830.938	625.980
385.088	16.899	830.313	625.242
386.102	16.885	829.869	624.801
387.117	16.910	829.035	624.210
388.132	16.940	828.537	623.888
389.146	16.964	828.016	623.530
390.161	16.994	827.773	623.403
391.175	16.968	827.036	622.695
392.190	17.141	826.501	622.872
393.205	17.159	826.001	622.509
394.219	17.037	825.913	621.937
395.234	17.034	825.577	621.619
396.248	16.980	825.102	621.007
397.263	17.062	824.435	620.753
398.278	16.989	824.294	620.324
399.292	17.089	823.704	620.190
400.307	17.001	822.843	619.166
401.321	17.053	822.446	619.002
402.336	17.201	821.803	619.003
403.350	17.211	821.494	618.750
404.365	17.211	821.339	618.580
405.380	17.207	820.913	618.189
406.394	17.254	820.205	617.771
407.409	17.362	819.534	617.607
408.423	17.341	819.733	617.626
409.438	17.235	819.175	616.766
410.453	17.344	818.519	616.613
411.467	17.474	818.254	616.828
412.482	17.379	818.176	616.370
413.496	17.443	817.346	615.921
414.511	17.502	817.056	615.863
415.526	17.544	816.421	615.483
416.540	17.531	816.042	615.096
417.555	17.495	815.269	614.327
418.569	17.565	815.247	614.508
419.584	17.660	814.633	614.334
420.599	17.604	814.306	613.831
421.613	109.939	1296.069	1474.008
422.628	94.996	1366.240	1474.099
