DTS Sentinel unit serial number:	SN413079Multiplexer serial number:	ORYXHardware model number:	OX4-SRSoftware version number:	ORYX F/W v4.00 Oryx Data Collector v3.7.2.0data status	okinstallation	princeton_trtdifferential loss correction	single-endedforward channel	channel 1reverse channel	N/Adate	2019/09/14time	08:18:35forward acquisition time	60.00reverse acquisition time	0.00gamma	496.2192k internal	0.2329k external	0.2329temperature offset calibration	1.0072default loss term (dB/km)	0.3790temperature slope calibration	1.0000multiplexer offset coefficient	1.0000multiplexer slope coefficient	1.0000fibre end	0.00T internal ref (°C)	27.84T ext. ref 1 (°C)	3.59T ext. ref 2 (°C)	26.12length (m)	temperature (°C)	Stokes	anti-Stokes-747.200	-200.000	0.042	-0.287
-746.185	444.014	-0.084	0.186
-745.171	26.793	0.090	0.076
-744.156	800.000	-0.046	-0.190
-743.142	-9.320	0.239	0.161
-742.127	-71.437	-0.091	0.034
-741.112	105.494	-0.029	-0.035
-740.098	-24.670	-0.401	-0.240
-739.083	367.327	0.004	-0.008
-738.069	-200.000	-0.021	-0.115
-737.054	752.537	-0.058	-0.159
-736.039	-18.242	-0.189	-0.119
-735.025	315.244	0.067	0.126
-734.010	-200.000	-0.008	-0.047
-732.996	-200.000	-0.113	-0.518
-731.981	46.498	0.133	-0.124
-730.966	-160.983	-0.200	0.011
-729.952	-76.976	0.309	0.109
-728.937	572.157	0.009	-0.022
-727.923	-21.918	0.243	0.149
-726.908	150.386	-0.119	-0.162
-725.894	42.834	-0.254	-0.233
-724.879	-159.196	-0.178	-0.010
-723.864	202.765	-0.049	0.076
-722.850	-124.053	0.127	-0.020
-721.835	-46.413	0.060	-0.029
-720.821	-200.000	-0.011	-0.080
-719.806	-172.405	-0.309	-0.010
-718.791	44.622	-0.124	0.114
-717.777	-0.119	0.295	-0.211
-716.762	-24.568	0.099	-0.059
-715.748	-200.000	0.186	0.001
-714.733	210.897	0.149	-0.235
-713.718	-81.270	0.374	0.124
-712.704	123.126	-0.092	-0.116
-711.689	-200.000	-0.025	-0.194
-710.675	-200.000	-0.067	-0.367
-709.660	800.000	0.055	-0.227
-708.645	-200.000	-0.006	-0.368
-707.631	-200.000	0.004	-0.117
-706.616	-91.096	0.136	0.039
-705.602	578.283	-0.128	-0.314
-704.587	-29.537	0.211	0.121
-703.572	-112.256	0.139	-0.028
-702.558	718.613	-0.017	-0.045
-701.543	70.078	0.172	0.178
-700.529	72.004	-0.135	-0.142
-699.514	-200.000	-0.015	-0.218
-698.499	800.000	-0.059	-0.202
-697.485	-200.000	0.022	0.140
-696.470	800.000	0.038	-0.162
-695.456	800.000	-0.029	-0.087
-694.441	-81.814	0.126	-0.041
-693.426	-118.967	0.202	-0.036
-692.412	-142.694	0.178	-0.017
-691.397	510.142	-0.032	-0.076
-690.383	-200.000	-0.006	0.189
-689.368	-148.220	-0.141	0.012
-688.354	-200.000	0.001	0.076
-687.339	294.505	0.115	-0.211
-686.324	49.434	0.251	-0.237
-685.310	37.349	-0.206	-0.184
-684.295	224.984	0.058	-0.095
-683.281	-200.000	-0.005	0.041
-682.266	-200.000	0.048	0.218
-681.251	-34.805	-0.174	-0.095
-680.237	591.231	0.111	-0.276
-679.222	800.000	-0.078	0.249
-678.208	4.317	0.162	0.119
-677.193	10.963	-0.183	-0.141
-676.178	-200.000	-0.014	0.064
-675.164	-73.620	-0.223	-0.081
-674.149	-118.563	-0.246	0.044
-673.135	800.000	-0.051	-0.163
-672.120	800.000	0.011	-0.039
-671.105	-200.000	0.043	0.217
-670.091	-200.000	-0.022	-0.192
-669.076	59.109	-0.240	0.237
-668.062	50.302	-0.229	-0.217
-667.047	84.713	-0.206	-0.226
-666.032	-108.268	0.158	-0.034
-665.018	-91.036	-0.215	0.062
-664.003	-25.911	0.253	-0.150
-662.989	29.035	-0.076	0.065
-661.974	-38.407	0.192	0.102
-660.959	81.935	0.161	-0.175
-659.945	-12.413	0.111	0.073
-658.930	-44.374	0.255	0.128
-657.916	-166.762	0.130	0.005
-656.901	-101.495	-0.177	-0.043
-655.886	-200.000	0.031	-0.204
-654.872	800.000	-0.088	-0.283
-653.857	-48.699	0.136	0.066
-652.843	-23.911	0.138	0.083
-651.828	-27.478	0.111	0.065
-650.814	571.587	-0.029	0.071
-649.799	-200.000	-0.045	-0.278
-648.784	800.000	-0.031	-0.085
-647.770	191.677	0.139	-0.210
-646.755	-200.000	-0.086	-0.393
-645.741	463.769	-0.043	-0.097
-644.726	-24.468	-0.073	0.044
-643.711	-139.705	0.344	0.037
-642.697	800.000	-0.066	-0.260
-641.682	-69.824	-0.330	-0.126
-640.668	800.000	0.027	-0.110
-639.653	-200.000	-0.052	-0.315
-638.638	-161.937	0.444	-0.022
-637.624	89.416	-0.179	0.200
-636.609	-76.471	0.183	0.064
-635.595	-23.598	-0.230	-0.138
-634.580	-33.042	0.205	-0.114
-633.565	800.000	-0.068	-0.294
-632.551	-200.000	-0.069	0.316
-631.536	800.000	0.010	-0.042
-630.522	-31.262	-0.190	0.107
-629.507	-200.000	-0.014	0.063
-628.492	-138.412	-0.185	0.020
-627.478	-133.716	0.129	0.016
-626.463	330.019	-0.106	-0.205
-625.449	-124.218	0.316	-0.050
-624.434	291.153	0.115	-0.209
-623.419	-128.743	0.153	0.022
-622.405	-84.437	0.150	-0.047
-621.390	213.566	-0.148	-0.235
-620.376	-109.642	0.605	0.128
-619.361	-103.365	-0.377	-0.089
-618.346	618.389	0.034	-0.086
-617.332	94.054	0.087	-0.099
-616.317	-62.265	-0.282	-0.118
-615.303	-14.571	0.134	0.086
-614.288	800.000	-0.037	-0.104
-613.273	-200.000	0.003	0.177
-612.259	800.000	0.040	0.132
-611.244	76.965	0.272	-0.289
-610.230	-200.000	0.056	-0.352
-609.215	-16.910	0.114	-0.072
-608.201	718.835	-0.039	-0.105
-607.186	220.519	0.118	-0.189
-606.171	-87.838	-0.403	-0.122
-605.157	-101.290	-0.217	-0.053
-604.142	129.630	0.052	-0.067
-603.128	4.607	-0.027	0.020
-602.113	74.004	-0.166	-0.175
-601.098	-169.202	0.189	0.007
-600.084	285.420	0.127	0.229
-599.069	-81.331	0.107	0.035
-598.055	800.000	-0.066	-0.284
-597.040	-98.270	-0.076	0.020
-596.025	-57.519	0.274	-0.120
-595.011	-71.460	0.018	0.007
-593.996	77.967	0.138	-0.147
-592.982	-124.825	0.212	0.033
-591.967	-200.000	0.001	0.118
-590.952	-117.068	0.359	-0.066
-589.938	-200.000	0.034	0.167
-588.923	-95.715	0.350	0.094
-587.909	76.542	0.068	-0.072
-586.894	-200.000	-0.011	-0.406
-585.879	-200.000	0.012	-0.126
-584.865	122.906	-0.052	0.065
-583.850	-64.891	-0.066	-0.027
-582.836	363.001	0.070	-0.141
-581.821	-200.000	0.049	0.271
-580.806	243.886	0.102	0.172
-579.792	-111.255	0.272	-0.056
-578.777	29.529	0.194	-0.165
-577.763	-134.397	0.221	0.027
-576.748	423.013	0.083	-0.179
-575.733	9.391	-0.082	0.062
-574.719	-71.251	0.169	0.063
-573.704	-60.855	0.198	0.084
-572.690	239.397	-0.105	-0.175
-571.675	-131.776	-0.063	-0.008
-570.661	-148.964	0.336	0.027
-569.646	-142.333	0.496	0.049
-568.631	276.519	-0.150	-0.267
-567.617	-200.000	-0.032	-0.358
-566.602	462.735	0.092	0.205
-565.588	-110.167	0.020	0.004
-564.573	-92.482	-0.261	0.073
-563.558	-200.000	-0.003	-0.283
-562.544	301.657	0.048	0.088
-561.529	800.000	-0.120	0.380
-560.515	-54.044	0.243	0.111
-559.500	800.000	-0.007	0.021
-558.485	424.336	0.068	0.147
-557.471	-200.000	-0.005	0.029
-556.456	-200.000	0.030	0.135
-555.442	-61.572	0.324	0.136
-554.427	-34.842	-0.276	0.150
-553.412	140.061	0.233	0.307
-552.398	-88.806	-0.197	-0.058
-551.383	147.703	0.097	0.130
-550.369	121.313	-0.235	-0.293
-549.354	-200.000	-0.034	-0.284
-548.339	-121.854	-0.150	-0.025
-547.325	-79.376	-0.231	-0.078
-546.310	196.206	-0.020	-0.030
-545.296	-200.000	-0.007	-0.050
-544.281	-3.692	0.243	0.168
-543.266	-104.454	-0.225	0.052
-542.252	327.440	-0.152	-0.291
-541.237	-100.274	-0.089	-0.022
-540.223	742.995	0.121	0.326
-539.208	-18.935	0.402	0.250
-538.193	454.728	-0.078	0.172
-537.179	800.000	0.055	-0.200
-536.164	47.713	0.044	0.041
-535.150	-88.004	-0.147	0.044
-534.135	800.000	-0.063	0.207
-533.121	94.504	0.034	-0.039
-532.106	-200.000	-0.029	-0.420
-531.091	-122.975	-0.365	-0.059
-530.077	15.666	-0.194	0.153
-529.062	-35.192	-0.048	0.026
-528.048	96.080	-0.197	-0.224
-527.033	-103.039	-0.104	0.025
-526.018	-200.000	-0.010	-0.051
-525.004	77.977	0.245	0.261
-523.989	166.906	-0.272	0.386
-522.975	411.258	0.054	0.114
-521.960	-111.230	-0.245	0.050
-520.945	-27.399	0.090	0.053
-519.931	-200.000	0.003	0.280
-518.916	111.478	0.268	0.323
-517.902	309.776	0.055	-0.103
-516.887	-46.277	0.071	-0.035
-515.872	-28.924	0.189	0.108
-514.858	-200.000	-0.047	0.254
-513.843	1.032	0.279	0.200
-512.829	-119.547	-0.129	0.022
-511.814	-200.000	-0.043	0.219
-510.799	-200.000	0.040	-0.272
-509.785	-126.538	0.359	-0.053
-508.770	117.955	0.255	0.313
-507.756	295.508	-0.120	0.220
-506.741	-200.000	0.017	0.210
-505.726	104.704	-0.260	-0.306
-504.712	-200.000	0.002	-0.317
-503.697	437.898	-0.202	-0.439
-502.683	-173.046	-0.094	0.003
-501.668	-66.703	-0.089	-0.035
-500.653	-8.992	-0.060	-0.040
-499.639	-162.627	-0.299	-0.015
-498.624	353.424	-0.091	0.180
-497.610	-153.276	0.189	-0.013
-496.595	-124.184	-0.215	0.034
-495.581	62.286	-0.163	-0.163
-494.566	442.799	-0.122	0.266
-493.551	800.000	0.081	-0.260
-492.537	-110.401	-0.269	-0.056
-491.522	-26.012	0.318	-0.187
-490.508	582.619	0.108	-0.264
-489.493	-200.000	-0.020	0.092
-488.478	-87.118	-0.337	0.102
-487.464	27.499	-0.155	-0.130
-486.449	-41.079	0.101	-0.052
-485.435	219.620	-0.044	-0.070
-484.420	-135.407	0.180	0.021
-483.405	67.478	-0.193	-0.196
-482.391	800.000	0.032	-0.138
-481.376	-133.532	-0.256	0.032
-480.362	133.335	-0.277	0.357
-479.347	11.122	-0.192	-0.147
-478.332	-140.077	-0.332	0.035
-477.318	-79.708	-0.256	0.086
-476.303	86.455	0.141	-0.155
-475.289	-155.965	-0.173	-0.011
-474.274	555.810	0.077	-0.184
-473.259	-105.907	0.156	0.035
-472.245	-200.000	-0.042	0.371
-471.230	-49.258	-0.214	-0.102
-470.216	-117.425	0.074	-0.013
-469.201	-89.908	-0.172	0.050
-468.186	800.000	-0.070	0.204
-467.172	-4.200	-0.084	0.058
-466.157	213.692	0.164	-0.258
-465.143	267.754	-0.234	0.408
-464.128	-200.000	-0.045	0.352
-463.113	-200.000	-0.008	-0.320
-462.099	-200.000	-0.045	-0.249
-461.084	-98.761	-0.188	-0.048
-460.070	53.269	0.163	-0.156
-459.055	71.785	0.164	-0.170
-458.040	3.481	0.072	0.052
-457.026	-6.495	0.221	0.150
-456.011	-93.010	-0.294	-0.082
-454.997	-200.000	0.045	-0.249
-453.982	-200.000	0.008	0.068
-452.968	-95.854	0.312	0.083
-451.953	-70.628	0.093	0.035
-450.938	-96.428	-0.108	0.028
-449.924	126.943	-0.203	-0.257
-448.909	-200.000	-0.025	0.124
-447.895	-200.000	-0.005	0.098
-446.880	-200.000	-0.023	0.366
-445.865	391.780	-0.200	-0.413
-444.851	800.000	0.082	0.310
-443.836	-200.000	-0.009	0.059
-442.822	-44.305	0.375	0.187
-441.807	-8.455	0.211	-0.141
-440.792	351.054	0.059	-0.117
-439.778	-99.330	-0.159	-0.040
-438.763	-52.488	0.166	0.076
-437.749	-45.449	-0.215	0.106
-436.734	164.373	-0.177	-0.249
-435.719	-187.574	0.118	-0.002
-434.705	-54.401	-0.187	-0.084
-433.690	-136.797	0.618	-0.071
-432.676	558.013	-0.073	-0.175
-431.661	320.141	-0.126	-0.238
-430.646	-66.057	-0.099	0.039
-429.632	-160.943	0.007	-0.000
-428.617	71.779	0.134	0.138
-427.603	-69.070	-0.077	-0.029
-426.588	153.600	-0.149	0.204
-425.573	-101.288	-0.436	0.106
-424.559	-114.604	-0.206	0.039
-423.544	-200.000	0.021	0.160
-422.530	-200.000	0.033	0.342
-421.515	-200.000	0.027	-0.191
-420.500	800.000	-0.050	0.155
-419.486	-103.709	-0.305	-0.071
-418.471	800.000	0.108	-0.326
-417.457	389.986	0.123	-0.254
-416.442	-50.842	0.094	-0.044
-415.428	800.000	0.089	0.268
-414.413	-48.123	0.158	0.076
-413.398	-67.276	-0.217	-0.085
-412.384	-42.710	-0.218	0.110
-411.369	-200.000	0.031	0.515
-410.355	122.611	0.150	0.187
-409.340	-71.633	-0.294	-0.109
-408.325	-93.587	0.249	-0.068
-407.311	187.448	-0.176	0.262
-406.296	-70.739	0.113	-0.042
-405.282	552.066	-0.099	0.237
-404.267	477.001	-0.095	-0.214
-403.252	51.951	0.142	-0.134
-402.238	784.979	-0.030	-0.081
-401.223	-2.425	-0.088	0.061
-400.209	569.438	0.115	-0.278
-399.194	-107.250	0.254	0.055
-398.179	-3.575	-0.146	0.101
-397.165	800.000	-0.056	-0.160
-396.150	-2.306	-0.060	0.042
-395.136	800.000	-0.085	0.242
-394.121	-109.437	0.055	0.012
-393.106	-200.000	0.008	-0.198
-392.092	-49.496	0.103	-0.049
-391.077	800.000	0.019	0.054
-390.063	10.910	0.037	0.028
-389.048	63.741	0.212	0.212
-388.033	125.331	-0.106	0.132
-387.019	659.334	0.136	0.348
-386.004	131.543	-0.148	-0.188
-384.990	168.777	0.051	0.072
-383.975	-51.251	0.269	-0.125
-382.960	72.658	0.082	0.085
-381.946	6.393	0.198	-0.146
-380.931	52.562	-0.224	0.212
-379.917	800.000	0.047	-0.138
-378.902	-200.000	0.026	0.209
-377.888	800.000	0.035	0.138
-376.873	-35.393	0.134	-0.072
-375.858	-200.000	-0.001	-0.129
-374.844	39.841	-0.089	-0.079
-373.829	-140.418	0.341	-0.035
-372.815	42.154	-0.228	0.205
-371.800	-101.851	0.178	0.043
-370.785	800.000	0.098	-0.327
-369.771	450.041	-0.156	0.341
-368.756	-200.000	0.006	0.175
-367.742	66.310	-0.085	0.086
-366.727	-128.427	-0.207	-0.029
-365.712	800.000	0.113	-0.310
-364.698	-175.847	-0.025	-0.001
-363.683	800.000	0.021	-0.061
-362.669	247.617	-0.037	-0.062
-361.654	-20.760	-0.255	-0.155
-360.639	148.609	-0.089	0.119
-359.625	-86.680	0.230	-0.070
-358.610	267.739	0.115	-0.200
-357.596	-121.672	0.040	0.007
-356.581	617.903	0.145	0.362
-355.566	-133.767	-0.273	0.034
-354.552	-85.337	0.131	0.041
-353.537	-200.000	0.012	-0.338
-352.523	-200.000	0.005	-0.099
-351.508	-200.000	0.043	0.402
-350.493	90.559	-0.113	0.125
-349.479	241.251	-0.053	0.087
-348.464	-100.055	-0.177	0.044
-347.450	69.239	0.184	0.188
-346.435	800.000	-0.113	-0.411
-345.420	-200.000	-0.043	-0.292
-344.406	58.346	-0.032	-0.031
-343.391	8.901	-0.199	-0.149
-342.377	-200.000	-0.022	0.114
-341.362	69.646	-0.143	0.146
-340.348	-200.000	0.026	-0.149
-339.333	-15.348	0.052	-0.033
-338.318	800.000	-0.060	0.178
-337.304	800.000	-0.109	0.422
-336.289	111.063	-0.071	0.085
-335.275	97.116	-0.058	0.066
-334.260	-11.479	0.272	-0.178
-333.245	128.880	-0.093	0.118
-332.231	80.751	-0.022	0.023
-331.216	800.000	0.064	0.194
-330.202	59.907	-0.146	-0.143
-329.187	-83.947	0.132	-0.042
-328.172	-200.000	-0.028	-0.251
-327.158	149.075	0.089	0.120
-326.143	-88.080	0.088	-0.026
-325.129	800.000	-0.094	-0.271
-324.114	-200.000	0.029	0.246
-323.099	641.433	0.099	0.251
-322.085	-59.564	0.288	-0.122
-321.070	-64.525	0.364	-0.147
-320.056	-200.000	0.022	0.258
-319.041	-43.197	0.231	-0.116
-318.026	-51.282	0.197	0.092
-317.012	355.861	0.046	0.090
-315.997	-23.252	-0.169	0.100
-314.983	800.000	0.100	0.328
-313.968	440.143	0.044	-0.094
-312.953	658.805	-0.015	0.038
-311.939	-174.251	0.370	0.011
-310.924	611.935	-0.024	0.059
-309.910	-148.635	0.303	0.024
-308.895	-118.426	0.017	-0.003
-307.880	-200.000	0.025	-0.297
-306.866	-200.000	-0.021	-0.412
-305.851	171.192	-0.172	-0.245
-304.837	-200.000	-0.027	-0.168
-303.822	111.868	0.188	0.224
-302.807	577.213	-0.030	0.073
-301.793	-171.465	-0.119	0.004
-300.778	-200.000	0.048	0.340
-299.764	-200.000	-0.027	-0.147
-298.749	532.110	-0.033	0.077
-297.735	455.312	0.095	-0.208
-296.720	-110.912	0.113	0.023
-295.705	2.526	0.061	-0.044
-294.691	129.020	0.111	-0.140
-293.676	-20.659	-0.111	-0.067
-292.662	33.163	-0.305	0.262
-291.647	-200.000	-0.018	0.151
-290.632	44.855	0.054	0.049
-289.618	202.011	-0.178	0.271
-288.603	116.645	0.146	-0.177
-287.589	450.917	-0.180	-0.393
-286.574	-103.488	-0.349	-0.081
-285.559	-200.000	0.086	-0.434
-284.545	-47.055	-0.152	0.073
-283.530	11.481	-0.238	-0.180
-282.516	-44.859	-0.259	0.128
-281.501	-200.000	-0.033	0.388
-280.486	-7.596	0.307	0.205
-279.472	207.200	-0.153	0.237
-278.457	125.117	0.136	-0.170
-277.443	448.931	-0.030	0.066
-276.428	-3.483	0.118	-0.081
-275.413	800.000	0.088	-0.324
-274.399	-200.000	0.003	-0.124
-273.384	-200.000	0.011	-0.095
-272.370	-42.333	0.172	-0.087
-271.355	266.392	-0.167	-0.288
-270.340	800.000	-0.097	0.372
-269.326	-136.264	0.137	0.016
-268.311	99.482	-0.049	0.056
-267.297	800.000	0.031	-0.124
-266.282	19.376	-0.191	0.152
-265.267	21.954	-0.205	-0.165
-264.253	-19.326	-0.141	0.086
-263.238	800.000	0.112	-0.331
-262.224	58.254	0.075	-0.073
-261.209	32.578	-0.272	0.233
-260.195	-200.000	0.022	-0.294
-259.180	-43.986	0.265	0.132
-258.165	-58.708	0.329	-0.141
-257.151	657.554	0.157	0.399
-256.136	800.000	-0.039	0.113
-255.122	7.712	-0.133	-0.098
-254.107	800.000	-0.064	-0.237
-253.092	-89.199	-0.074	-0.021
-252.078	-7.431	-0.231	0.155
-251.063	-200.000	-0.010	0.048
-250.049	-156.579	-0.139	0.009
-249.034	-6.316	0.129	0.087
-248.019	344.809	0.088	-0.171
-247.005	-32.773	0.172	0.095
-245.990	-194.766	0.091	-0.001
-244.976	-200.000	-0.034	0.246
-243.961	800.000	0.082	0.340
-242.946	-89.076	0.208	0.061
-241.932	459.329	0.149	-0.328
-240.917	-140.096	-0.427	-0.044
-239.903	92.247	0.106	0.118
-238.888	-200.000	0.010	-0.160
-237.873	-200.000	-0.031	-0.152
-236.859	182.657	-0.110	-0.160
-235.844	800.000	0.069	-0.293
-234.830	-10.725	-0.121	-0.079
-233.815	156.984	-0.063	-0.086
-232.800	34.970	0.174	-0.151
-231.786	-92.688	-0.642	0.178
-230.771	-200.000	0.041	0.240
-229.757	-200.000	-0.031	0.191
-228.742	800.000	-0.104	0.328
-227.727	-132.089	-0.227	0.029
-226.713	133.219	-0.134	0.171
-225.698	26.081	0.117	0.097
-224.684	86.746	-0.205	-0.223
-223.669	3.700	0.210	0.152
-222.655	162.573	-0.211	0.291
-221.640	800.000	0.047	0.169
-220.625	-72.208	0.217	-0.079
-219.611	350.300	-0.030	0.058
-218.596	-86.463	-0.132	0.040
-217.582	-137.768	-0.304	0.034
-216.567	687.169	0.080	-0.207
-215.552	96.481	0.214	0.241
-214.538	80.957	-0.157	0.167
-213.523	-200.000	0.076	0.397
-212.509	198.197	0.116	-0.174
-211.494	138.484	-0.107	0.139
-210.479	88.975	-0.141	0.155
-209.465	48.445	-0.135	0.125
-208.450	-100.722	0.047	-0.011
-207.436	-104.916	0.059	0.013
-206.421	800.000	-0.068	0.189
-205.406	-142.562	0.071	0.007
-204.392	179.819	-0.012	-0.018
-203.377	14.298	-0.205	-0.158
-202.363	118.730	0.122	-0.148
-201.348	264.326	-0.084	0.144
-200.333	55.245	-0.185	0.176
-199.319	-200.000	0.010	0.063
-198.304	-17.173	0.280	-0.174
-197.290	-23.646	0.325	0.192
-196.275	-144.643	0.096	-0.009
-195.260	-58.220	0.170	-0.073
-194.246	-116.861	0.186	-0.034
-193.231	160.927	-0.106	-0.147
-192.217	800.000	0.009	0.028
-191.202	-175.585	-0.174	0.005
-190.187	30.372	-0.119	0.100
-189.173	84.288	0.157	0.169
-188.158	77.292	-0.251	-0.263
-187.144	800.000	0.127	-0.386
-186.129	-200.000	0.049	-0.363
-185.114	-178.426	-0.478	-0.011
-184.100	-56.609	-0.274	-0.120
-183.085	-200.000	-0.059	-0.260
-182.071	-200.000	-0.039	0.217
-181.056	-29.984	-0.229	0.128
-180.042	-95.032	-0.289	-0.077
-179.027	144.811	-0.130	-0.171
-178.012	179.873	0.205	0.296
-176.998	800.000	-0.078	0.288
-175.983	792.842	0.040	-0.107
-174.969	800.000	-0.178	-0.527
-173.954	-200.000	-0.009	0.041
-172.939	-1.779	0.174	0.121
-171.925	270.965	0.060	-0.104
-170.910	469.207	-0.147	0.324
-169.896	-200.000	0.001	-0.010
-168.881	800.000	0.040	0.160
-167.866	-83.587	-0.091	0.029
-166.852	87.892	0.147	0.161
-165.837	-84.414	-0.103	0.032
-164.823	132.268	0.244	0.309
-163.808	-200.000	0.008	-0.088
-162.793	-105.453	0.238	0.053
-161.779	-165.468	0.302	0.013
-160.764	551.528	-0.126	0.299
-159.750	53.144	-0.065	0.061
-158.735	721.007	0.055	-0.143
-157.720	800.000	-0.063	0.241
-156.706	-30.109	-0.248	-0.139
-155.691	-200.000	0.018	0.194
-154.677	-119.987	0.262	-0.044
-153.662	-174.011	0.301	-0.009
-152.647	115.045	0.139	-0.167
-151.633	-39.934	0.166	-0.085
-150.618	536.899	0.112	-0.263
-149.604	800.000	-0.147	0.448
-148.589	159.997	0.282	0.387
-147.574	800.000	-0.033	0.101
-146.560	149.361	0.384	0.512
-145.545	-104.174	-0.076	-0.017
-144.531	-55.497	0.222	-0.098
-143.516	-155.402	0.085	-0.005
-142.502	223.589	0.074	0.118
-141.487	-200.000	-0.007	0.058
-140.472	-102.106	0.112	0.026
-139.458	800.000	0.069	-0.284
-138.443	11.635	0.093	-0.070
-137.429	800.000	-0.019	-0.068
-136.414	-200.000	-0.010	-0.481
-135.399	74.702	-0.269	0.278
-134.385	34.593	-0.351	0.301
-133.370	-131.484	0.083	-0.011
-132.356	800.000	-0.019	-0.080
-131.341	169.935	0.090	-0.126
-130.326	-200.000	0.047	-0.261
-129.312	174.150	0.059	0.084
-128.297	12.340	-0.138	0.105
-127.283	778.370	0.073	0.196
-126.268	-200.000	-0.040	-0.258
-125.253	-157.876	-0.108	-0.006
-124.239	-200.000	0.001	0.034
-123.224	-56.517	0.353	0.154
-122.210	349.895	-0.067	0.129
-121.195	-77.918	0.264	-0.090
-120.180	-30.461	-0.114	-0.063
-119.166	-77.053	0.113	0.039
-118.151	-41.150	-0.152	-0.077
-117.137	-106.910	-0.337	0.073
-116.122	5.919	0.171	-0.124
-115.107	-27.825	0.072	0.041
-114.093	-129.074	0.143	-0.020
-113.078	658.116	-0.052	0.132
-112.064	-27.888	-0.303	-0.173
-111.049	-121.906	0.631	0.102
-110.034	-110.899	0.066	0.013
-109.020	-150.457	-0.220	0.017
-108.005	800.000	0.090	-0.286
-106.991	-200.000	-0.007	-0.184
-105.976	-200.000	0.012	0.190
-104.962	800.000	0.046	0.149
-103.947	162.887	-0.184	-0.254
-102.932	-8.385	0.405	0.267
-101.918	59.367	0.088	0.085
-100.903	90.048	-0.216	0.237
-99.889	-200.000	-0.088	0.413
-98.874	-166.955	-0.035	0.001
-97.859	184.265	0.040	-0.059
-96.845	-41.410	0.269	-0.136
-95.830	-112.112	-0.305	-0.060
-94.816	43.539	-0.148	-0.133
-93.801	-62.766	0.307	0.125
-92.786	-55.462	0.389	-0.171
-91.772	-200.000	-0.017	-0.220
-90.757	-11.889	0.262	-0.169
-89.743	16.980	-0.270	0.210
-88.728	800.000	-0.025	-0.099
-87.713	249.153	-0.203	0.337
-86.699	-200.000	0.006	0.148
-85.684	-111.128	0.153	0.031
-84.670	87.397	0.183	0.198
-83.655	323.993	0.169	-0.317
-82.640	132.426	-0.063	-0.080
-81.626	172.888	-0.121	-0.171
-80.611	38.753	-0.219	-0.192
-79.597	-45.720	0.215	0.104
-78.582	-46.460	-0.058	0.028
-77.567	800.000	0.066	-0.214
-76.553	110.272	-0.104	-0.123
-75.538	-19.736	-0.225	-0.136
-74.524	75.607	-0.066	0.068
-73.509	800.000	0.091	-0.279
-72.494	-200.000	0.049	-0.403
-71.480	-143.499	0.185	0.017
-70.465	744.092	-0.091	0.241
-69.451	-109.660	0.181	-0.037
-68.436	10.889	0.260	-0.195
-67.422	-179.693	0.163	0.003
-66.407	800.000	-0.090	0.274
-65.392	-200.000	-0.018	-0.194
-64.378	242.427	-0.091	0.150
-63.363	800.000	0.078	0.255
-62.349	800.000	0.032	0.119
-61.334	81.711	-1.058	-1.122
-60.319	133.671	0.538	0.683
-59.305	-200.000	-0.094	-1.044
-58.290	82.935	0.734	0.782
-57.276	231.076	0.669	1.075
-56.261	-200.000	110.480	607.707
-55.246	499.419	1525.401	3447.517
-54.232	174.158	2711.286	3840.999
-53.217	108.341	2173.668	2542.876
-52.203	39.594	1611.183	1416.067
-51.188	31.307	1351.054	1137.203
-50.173	28.301	1311.394	1085.983
-49.159	52.779	1368.522	1282.368
-48.144	52.371	1384.023	1294.371
-47.130	31.333	1337.565	1125.825
-46.115	27.983	1319.137	1090.321
-45.100	27.811	1314.275	1085.238
-44.086	27.795	1311.925	1083.162
-43.071	27.706	1309.787	1080.822
-42.057	27.678	1307.813	1078.984
-41.042	27.716	1305.998	1077.669
-40.027	27.741	1304.005	1076.134
-39.013	27.656	1302.713	1074.520
-37.998	27.658	1300.907	1072.998
-36.984	27.925	1298.635	1072.654
-35.969	27.833	1296.684	1070.459
-34.954	27.771	1295.258	1068.877
-33.940	27.906	1293.555	1068.216
-32.925	27.826	1292.788	1067.076
-31.911	27.940	1291.143	1066.342
-30.896	27.983	1289.701	1065.356
-29.881	28.003	1288.524	1064.462
-28.867	27.999	1286.869	1063.026
-27.852	28.007	1285.692	1062.061
-26.838	28.043	1283.802	1060.663
-25.823	27.942	1283.106	1059.464
-24.809	27.928	1281.934	1058.370
-23.794	27.891	1280.556	1056.977
-22.779	27.828	1278.992	1055.283
-21.765	27.853	1277.773	1054.378
-20.750	27.991	1275.922	1053.602
-19.736	27.877	1274.689	1051.887
-18.721	27.840	1273.597	1050.733
-17.706	27.831	1272.745	1049.935
-16.692	27.815	1271.582	1048.839
-15.677	27.772	1270.438	1047.611
-14.663	27.912	1269.284	1047.416
-13.648	27.761	1268.894	1046.191
-12.633	27.830	1267.290	1045.223
-11.619	27.773	1266.870	1044.505
-10.604	27.790	1265.549	1043.475
-9.590	27.791	1264.627	1042.679
-8.575	27.721	1264.116	1041.813
-7.560	27.635	1263.548	1040.813
-6.546	27.761	1262.211	1040.388
-5.531	27.823	1260.955	1039.665
-4.517	27.707	1260.521	1038.608
-3.502	27.860	1259.152	1038.307
-2.487	27.721	1258.780	1037.170
-1.473	27.793	1255.020	1034.438
-0.458	27.000	1240.578	1018.048
0.556	24.810	1224.828	987.360
1.571	21.882	1231.096	976.061
2.586	21.010	1246.220	983.051
3.600	20.153	1234.264	968.745
4.615	14.914	1161.105	883.633
5.629	7.059	1087.598	788.606
6.644	3.616	1068.548	757.843
7.659	3.632	1065.775	755.885
8.673	3.477	1065.672	754.988
9.688	3.645	1063.660	754.318
10.702	3.760	1062.237	753.801
11.717	8.345	1068.354	780.529
12.731	16.051	1079.251	826.336
13.746	19.566	1082.959	846.360
14.761	19.499	1082.865	845.883
15.775	18.584	1081.004	839.880
16.790	17.793	1078.514	834.003
17.804	16.879	1077.801	828.912
18.819	16.583	1076.346	826.272
19.834	16.421	1075.300	824.606
20.848	16.386	1073.963	823.339
21.863	15.947	1074.017	821.167
22.877	15.891	1072.985	820.030
23.892	15.948	1072.191	819.632
24.907	15.958	1071.434	819.027
25.921	15.796	1070.592	817.524
26.936	16.027	1068.655	817.091
27.950	16.027	1067.192	815.905
28.965	16.104	1066.290	815.514
29.980	16.105	1064.761	814.279
30.994	16.309	1063.449	814.185
32.009	16.306	1062.749	813.560
33.023	16.319	1061.615	812.683
34.038	16.216	1060.716	811.431
35.053	16.012	1060.024	809.847
36.067	16.143	1058.596	809.315
37.082	16.087	1058.133	808.622
38.096	16.200	1057.053	808.265
39.111	16.223	1056.668	808.008
40.126	15.986	1055.377	805.816
41.140	15.914	1053.711	804.130
42.155	15.848	1052.705	802.975
43.169	15.752	1051.756	801.723
44.184	15.708	1050.509	800.492
45.199	15.737	1049.373	799.693
46.213	15.912	1048.270	799.615
47.228	16.036	1047.500	799.542
48.242	16.079	1046.487	798.903
49.257	16.028	1045.509	797.847
50.271	16.200	1044.100	797.511
51.286	15.979	1044.450	796.663
52.301	16.180	1042.548	796.090
53.315	16.047	1041.264	794.414
54.330	15.909	1040.708	793.271
55.344	15.844	1040.045	792.389
56.359	15.920	1038.924	791.820
57.374	15.781	1038.410	790.705
58.388	15.812	1037.289	789.928
59.403	15.730	1037.016	789.263
60.417	15.759	1036.073	788.614
61.432	15.714	1035.060	787.563
62.447	15.653	1034.375	786.684
63.461	15.501	1033.706	785.397
64.476	15.770	1031.954	785.250
65.490	15.657	1031.404	784.235
66.505	15.671	1030.865	783.822
67.520	15.656	1030.356	783.294
68.534	15.702	1029.498	782.789
69.549	15.630	1028.874	781.911
70.563	15.667	1027.956	781.316
71.578	15.564	1027.108	780.125
72.593	15.500	1026.131	779.013
73.607	15.483	1025.593	778.457
74.622	15.524	1024.859	778.024
75.636	15.601	1024.417	777.977
76.651	15.677	1023.513	777.571
77.666	15.495	1023.163	776.393
78.680	15.640	1021.826	775.983
79.695	15.661	1021.588	775.828
80.709	15.633	1021.623	775.657
81.724	15.817	1020.381	775.493
82.739	15.820	1019.372	774.674
83.753	15.982	1018.914	775.002
84.768	16.229	1017.778	775.201
85.782	16.132	1017.610	774.559
86.797	16.170	1016.276	773.653
87.812	16.059	1015.308	772.339
88.826	16.037	1014.723	771.721
89.841	16.151	1013.362	771.139
90.855	16.244	1012.782	771.056
91.870	16.319	1011.923	770.678
92.884	16.183	1011.258	769.481
93.899	16.261	1010.385	769.105
94.914	16.361	1009.313	768.677
95.928	16.292	1008.618	767.763
96.943	16.166	1007.710	766.433
97.957	16.245	1006.637	765.906
98.972	16.210	1005.883	765.108
99.987	16.265	1004.778	764.448
101.001	16.258	1003.679	763.514
102.016	16.273	1003.323	763.243
103.030	16.323	1002.457	762.744
104.045	16.229	1001.504	761.525
105.060	16.130	1000.994	760.622
106.074	15.909	999.881	758.715
107.089	15.916	998.409	757.563
108.103	15.803	997.580	756.360
109.118	15.791	996.320	755.284
110.133	15.771	995.613	754.589
111.147	15.780	994.674	753.852
112.162	15.910	994.072	753.910
113.176	15.922	993.941	753.799
114.191	15.909	993.144	753.070
115.206	15.903	992.096	752.180
116.220	15.955	991.382	751.803
117.235	15.944	990.151	750.758
118.249	15.833	989.278	749.532
119.264	15.813	988.550	748.825
120.279	15.813	987.809	748.199
121.293	15.738	987.125	747.280
122.308	15.740	986.021	746.389
123.322	15.639	985.045	745.134
124.337	15.691	984.254	744.705
125.352	15.735	982.660	743.626
126.366	15.702	982.033	742.938
127.381	15.761	981.136	742.457
128.395	15.797	980.171	741.818
129.410	15.695	979.329	740.665
130.424	15.870	978.306	740.598
131.439	15.824	978.013	740.108
132.454	15.943	977.207	739.955
133.468	15.890	976.085	738.806
134.483	15.920	975.271	738.257
135.497	15.933	974.702	737.819
136.512	16.038	973.260	737.120
137.527	15.918	972.892	736.251
138.541	15.945	972.167	735.755
139.556	15.955	971.299	735.079
140.570	16.020	971.072	735.125
141.585	16.084	970.220	734.695
142.600	16.237	969.194	734.519
143.614	16.318	968.441	734.233
144.629	16.297	967.956	733.712
145.643	16.416	966.357	732.951
146.658	16.155	965.359	730.997
147.673	16.104	964.630	730.160
148.687	16.029	963.514	728.923
149.702	16.058	962.534	728.246
150.716	15.925	961.665	726.948
151.731	16.000	961.145	726.816
152.746	16.131	960.572	726.883
153.760	16.024	960.010	725.931
154.775	16.157	959.610	726.134
155.789	16.170	958.842	725.546
156.804	16.199	958.041	725.003
157.819	16.172	957.326	724.282
158.833	16.311	957.054	724.607
159.848	16.338	956.076	723.917
160.862	16.477	954.427	723.201
161.877	16.184	953.476	721.164
162.892	16.084	952.464	719.908
163.906	16.014	951.587	718.881
164.921	16.032	950.969	718.430
165.935	16.259	949.618	718.313
166.950	16.237	948.969	717.663
167.964	16.157	948.066	716.575
168.979	16.094	947.370	715.718
169.994	16.031	946.332	714.606
171.008	16.223	945.953	715.070
172.023	16.306	945.550	715.051
173.037	16.313	944.842	714.485
174.052	16.309	943.921	713.709
175.067	16.210	942.934	712.481
176.081	16.179	942.724	712.126
177.096	16.212	941.818	711.518
178.110	16.228	941.534	711.307
179.125	16.169	941.043	710.628
180.140	16.260	940.389	710.453
181.154	16.303	940.101	710.355
182.169	16.325	939.802	710.157
183.183	16.441	939.139	710.080
184.198	16.518	937.644	709.210
185.213	16.404	937.344	708.443
186.227	16.456	937.060	708.382
187.242	16.595	936.302	708.327
188.256	16.721	935.163	707.934
189.271	16.539	934.570	706.658
190.286	16.520	933.461	705.679
191.300	16.134	933.004	703.659
192.315	16.137	932.267	703.055
193.329	16.266	931.465	702.926
194.344	16.235	931.527	702.779
195.359	16.368	930.595	702.570
196.373	16.531	930.032	702.760
197.388	16.563	929.556	702.470
198.402	16.695	929.469	702.893
199.417	16.788	928.678	702.615
200.432	16.698	928.250	701.856
201.446	16.918	927.608	702.220
202.461	16.890	926.896	701.504
203.475	16.841	926.739	701.121
204.490	16.663	925.589	699.453
205.504	16.606	924.789	698.552
206.519	16.724	923.806	698.232
207.534	16.582	923.294	697.199
208.548	16.756	922.816	697.494
209.563	16.736	921.757	696.547
210.577	16.761	921.380	696.306
211.592	16.781	920.903	695.964
212.607	16.881	919.964	695.606
213.621	16.828	919.388	694.890
214.636	16.860	918.681	694.425
215.650	16.804	917.625	693.338
216.665	17.023	916.816	693.557
217.680	17.050	916.544	693.401
218.694	17.122	915.760	693.040
219.709	16.879	915.385	691.706
220.723	17.035	914.748	691.801
221.738	17.165	913.310	691.180
222.753	17.028	913.055	690.368
223.767	17.030	912.948	690.235
224.782	17.189	912.017	690.116
225.796	17.136	911.922	689.768
226.811	17.165	910.832	688.998
227.826	17.147	909.790	688.077
228.840	16.863	909.596	686.717
229.855	17.010	908.806	686.656
230.869	16.832	908.167	685.392
231.884	17.015	907.012	685.198
232.899	16.926	906.191	684.161
233.913	16.892	905.743	683.622
234.928	16.769	905.288	682.726
235.942	16.920	904.553	682.719
236.957	16.848	904.302	682.179
237.972	16.828	903.496	681.431
238.986	16.799	903.008	680.885
240.001	16.945	901.944	680.606
241.015	16.920	901.493	680.107
242.030	17.121	900.854	680.371
243.045	17.155	900.182	679.938
244.059	17.151	899.352	679.237
245.074	17.303	898.873	679.421
246.088	17.305	898.389	679.003
247.103	17.242	897.920	678.336
248.117	17.363	897.484	678.431
249.132	17.576	896.684	678.614
250.147	17.662	896.563	678.807
251.161	17.591	895.887	677.950
252.176	17.738	894.651	677.539
253.190	17.641	894.261	676.797
254.205	17.718	893.674	676.599
255.220	17.796	892.693	676.107
256.234	17.570	893.000	675.384
257.249	17.692	891.429	674.620
258.263	17.728	890.936	674.328
259.278	17.722	890.346	673.797
260.293	17.900	889.446	673.759
261.307	17.933	888.999	673.491
262.322	17.720	888.965	672.566
263.336	17.945	888.021	672.678
264.351	18.016	886.732	671.921
265.366	17.984	886.361	671.455
266.380	18.030	885.708	671.082
267.395	17.833	885.142	669.819
268.409	17.728	884.145	668.595
269.424	17.806	883.624	668.449
270.439	17.816	882.900	667.879
271.453	17.708	882.288	666.938
272.468	17.684	881.783	666.402
273.482	17.721	881.248	666.084
274.497	17.889	880.738	666.295
275.512	17.719	880.057	665.057
276.526	17.799	879.559	664.933
277.541	17.930	879.138	665.066
278.555	18.010	878.318	664.701
279.570	18.070	877.689	664.396
280.585	17.982	876.882	663.385
281.599	17.936	876.116	662.568
282.614	17.729	875.915	661.555
283.628	17.855	874.762	661.114
284.643	17.856	874.195	660.633
285.657	17.861	873.948	660.406
286.672	17.863	873.514	660.029
287.687	17.925	872.599	659.518
288.701	17.829	872.194	658.780
289.716	17.973	871.467	658.731
290.730	18.145	870.456	658.570
291.745	18.129	870.155	658.222
292.760	18.095	869.704	657.692
293.774	18.074	869.465	657.373
294.789	18.198	868.313	656.920
295.803	18.066	867.353	655.629
296.818	18.053	866.965	655.226
297.833	17.983	866.338	654.427
298.847	18.036	865.929	654.263
299.862	18.165	865.290	654.218
300.876	18.209	864.961	654.077
301.891	18.353	864.080	653.903
302.906	18.304	863.688	653.363
303.920	18.413	863.426	653.524
304.935	18.407	862.670	652.869
305.949	18.439	861.791	652.268
306.964	18.255	861.473	651.269
307.979	18.454	860.754	651.425
308.993	18.511	860.175	651.144
310.008	18.424	859.754	650.439
311.022	18.558	858.816	650.179
312.037	18.393	857.751	648.691
313.052	18.161	857.536	647.591
314.066	18.045	857.169	646.821
315.081	18.216	856.682	647.040
316.095	18.168	856.003	646.291
317.110	18.198	855.175	645.719
318.125	18.321	854.671	645.747
319.139	18.208	854.211	644.916
320.154	18.105	854.221	644.479
321.168	18.195	853.867	644.492
322.183	18.442	852.761	644.532
323.197	18.322	852.256	643.640
324.212	18.314	852.159	643.481
325.227	18.287	851.558	642.867
326.241	18.323	850.385	642.059
327.256	18.182	850.144	641.295
328.270	18.276	849.347	640.988
329.285	18.353	848.702	640.731
330.300	18.357	847.970	640.139
331.314	18.421	847.635	640.066
332.329	18.510	847.257	640.058
333.343	18.643	846.915	640.241
334.358	18.528	846.589	639.507
335.373	18.467	845.967	638.753
336.387	18.512	845.976	638.870
337.402	18.608	845.514	638.824
338.416	18.746	845.376	639.175
339.431	18.693	845.174	638.769
340.446	18.856	844.668	638.935
341.460	18.821	844.257	638.440
342.475	18.953	843.900	638.603
343.489	18.998	843.255	638.226
344.504	19.061	842.598	637.905
345.519	19.135	842.302	637.901
346.533	18.927	841.490	636.456
347.548	18.677	841.355	635.374
348.562	18.706	840.503	634.781
349.577	18.683	839.903	634.187
350.592	18.777	838.660	633.540
351.606	18.786	838.239	633.198
352.621	18.646	837.918	632.382
353.635	18.815	836.904	632.183
354.650	18.792	836.706	631.893
355.665	18.842	836.070	631.542
356.679	18.838	835.245	630.847
357.694	18.895	834.494	630.433
358.708	18.926	834.320	630.362
359.723	18.905	833.395	629.531
360.738	18.988	832.670	629.231
361.752	19.006	832.192	628.880
362.767	19.120	831.608	628.797
363.781	19.122	831.531	628.690
364.796	19.244	831.124	628.774
365.810	19.200	831.051	628.501
366.825	19.364	830.013	628.260
367.840	19.291	829.860	627.821
368.854	19.363	829.327	627.625
369.869	19.188	828.945	626.644
370.883	19.151	828.360	626.012
371.898	19.342	827.710	626.157
372.913	19.326	827.440	625.841
373.927	19.186	826.919	624.885
374.942	19.278	826.561	624.891
375.956	19.383	826.068	624.842
376.971	19.485	825.985	625.094
377.986	19.545	825.482	624.876
379.000	19.625	824.572	624.421
380.015	19.491	824.286	623.665
381.029	19.610	823.635	623.549
382.044	19.642	822.683	622.888
383.059	19.587	822.378	622.401
384.073	19.662	821.715	622.115
385.088	19.460	821.182	620.931
386.102	19.458	820.620	620.442
387.117	19.340	819.937	619.448
388.132	19.431	819.107	619.093
389.146	19.532	818.817	619.180
390.161	19.576	818.609	619.127
391.175	19.516	818.374	618.681
392.190	19.461	817.660	617.887
393.205	19.469	817.045	617.395
394.219	19.459	816.602	616.971
395.234	19.390	816.504	616.597
396.248	19.221	815.893	615.476
397.263	19.287	815.462	615.334
398.278	19.343	815.097	615.203
399.292	19.372	814.316	614.662
400.307	19.395	813.898	614.373
401.321	19.366	813.426	613.861
402.336	19.506	813.024	614.001
403.350	19.516	813.092	614.032
404.365	19.539	812.947	613.950
405.380	19.769	811.949	613.961
406.394	19.800	811.099	613.372
407.409	19.722	811.104	613.045
408.423	19.858	810.968	613.372
409.438	19.994	810.212	613.225
410.453	19.945	810.030	612.860
411.467	19.877	809.460	612.135
412.482	19.982	809.130	612.202
413.496	20.091	808.811	612.290
414.511	19.996	808.417	611.603
415.526	19.966	807.464	610.723
416.540	19.891	807.301	610.282
417.555	19.957	806.817	610.093
418.569	20.111	806.097	610.037
419.584	19.949	806.465	609.692
420.599	20.020	805.352	609.044
421.613	160.314	1372.608	1795.102
422.628	139.299	1455.274	1795.220
