DTS Sentinel unit serial number:	SN413079Multiplexer serial number:	ORYXHardware model number:	OX4-SRSoftware version number:	ORYX F/W v4.00 Oryx Data Collector v3.7.2.0data status	okinstallation	princeton_trtdifferential loss correction	single-endedforward channel	channel 1reverse channel	N/Adate	2019/09/11time	00:24:11forward acquisition time	60.00reverse acquisition time	0.00gamma	496.2192k internal	0.2331k external	0.2331temperature offset calibration	0.9933default loss term (dB/km)	0.3790temperature slope calibration	1.0000multiplexer offset coefficient	1.0000multiplexer slope coefficient	1.0000fibre end	0.00T internal ref (°C)	29.25T ext. ref 1 (°C)	-0.31T ext. ref 2 (°C)	22.83length (m)	temperature (°C)	Stokes	anti-Stokes-747.200	-38.314	0.282	0.150
-746.185	-106.480	-0.144	0.032
-745.171	-164.668	-0.233	0.011
-744.156	-42.986	0.103	-0.052
-743.142	800.000	0.057	0.242
-742.127	-200.000	0.016	0.340
-741.112	-1.892	-0.091	-0.064
-740.098	7.181	-0.203	0.152
-739.083	5.972	-0.275	0.205
-738.069	800.000	-0.036	0.151
-737.054	800.000	-0.137	0.418
-736.039	376.722	0.064	0.132
-735.025	-200.000	0.006	-0.078
-734.010	378.583	-0.045	0.093
-732.996	-37.655	0.247	0.132
-731.981	-200.000	-0.031	-0.254
-730.966	310.325	0.032	-0.060
-729.952	800.000	0.181	-0.695
-728.937	-54.006	-0.256	-0.117
-727.923	53.509	0.285	-0.275
-726.908	76.915	-0.302	-0.323
-725.894	800.000	0.066	0.259
-724.879	94.135	-0.022	-0.025
-723.864	-166.800	-0.244	-0.010
-722.850	-162.789	0.126	-0.006
-721.835	31.424	-0.134	0.116
-720.821	-200.000	-0.020	-0.288
-719.806	-177.872	-0.340	-0.008
-718.791	-0.877	-0.240	-0.171
-717.777	-75.700	-0.246	-0.088
-716.762	-31.094	-0.301	-0.171
-715.748	0.832	0.088	-0.064
-714.733	-26.753	-0.248	-0.146
-713.718	-200.000	-0.040	-0.280
-712.704	79.748	-0.255	-0.275
-711.689	508.175	-0.032	-0.074
-710.675	168.870	0.170	-0.244
-709.660	-133.894	0.498	0.062
-708.645	-33.431	-0.353	-0.196
-707.631	525.733	-0.102	0.241
-706.616	-84.570	-0.210	-0.067
-705.602	-200.000	0.019	-0.121
-704.587	-125.357	0.178	0.027
-703.572	70.116	-0.057	0.059
-702.558	98.791	0.246	0.285
-701.543	520.149	-0.047	0.111
-700.529	123.932	-0.205	-0.259
-699.514	-82.391	0.215	0.070
-698.499	-33.639	0.135	0.075
-697.485	123.497	0.166	-0.209
-696.470	-200.000	0.008	0.105
-695.456	59.368	-0.171	0.169
-694.441	-83.444	0.199	-0.064
-693.426	-69.396	-0.061	-0.024
-692.412	-1.852	-0.191	0.135
-691.397	107.882	0.096	-0.115
-690.383	32.093	0.161	0.140
-689.368	127.476	0.102	-0.130
-688.354	475.924	0.063	-0.143
-687.339	-165.273	0.251	0.011
-686.324	-85.681	-0.152	0.047
-685.310	213.698	0.249	-0.395
-684.295	142.744	0.067	0.090
-683.281	45.039	-0.121	-0.112
-682.266	-200.000	0.003	-0.041
-681.251	-23.741	0.287	0.173
-680.237	800.000	0.026	-0.096
-679.222	-58.401	-0.212	0.093
-678.208	10.922	0.074	0.057
-677.193	40.126	-0.153	0.138
-676.178	-131.334	-0.333	0.044
-675.164	-34.338	0.072	-0.039
-674.149	71.613	-0.206	-0.215
-673.135	-200.000	0.017	0.145
-672.120	65.128	-0.065	0.066
-671.105	-14.612	-0.073	0.047
-670.091	-52.359	0.056	-0.026
-669.076	-86.939	0.166	-0.051
-668.062	148.137	-0.137	-0.185
-667.047	-200.000	-0.024	0.302
-666.032	-72.250	0.715	0.266
-665.018	299.220	0.065	-0.121
-664.003	-106.220	0.106	-0.024
-662.989	800.000	0.012	0.037
-661.974	-75.856	-0.159	0.057
-660.959	-156.683	-0.293	-0.018
-659.945	-156.325	-0.044	-0.003
-658.930	-32.464	-0.190	-0.106
-657.916	283.694	-0.125	-0.225
-656.901	106.815	-0.015	0.018
-655.886	119.399	-0.148	-0.184
-654.872	-6.657	-0.259	0.177
-653.857	117.201	0.134	0.165
-652.843	-200.000	-0.025	0.692
-651.828	800.000	0.039	0.151
-650.814	800.000	-0.079	-0.250
-649.799	193.788	-0.149	-0.227
-648.784	-14.219	-0.173	0.112
-647.770	489.929	-0.126	-0.289
-646.755	23.120	-0.074	0.061
-645.741	-75.062	-0.155	0.056
-644.726	-200.000	0.059	-0.333
-643.711	501.507	-0.104	-0.240
-642.697	602.842	-0.075	-0.186
-641.682	-62.710	0.202	-0.084
-640.668	3.066	0.079	0.058
-639.653	-41.002	-0.279	-0.145
-638.638	-31.115	0.142	0.080
-637.624	-51.406	0.454	-0.213
-636.609	-128.580	-0.401	0.057
-635.595	-69.112	0.383	0.148
-634.580	-200.000	0.007	0.093
-633.565	-47.989	0.130	-0.063
-632.551	75.149	0.119	0.126
-631.536	292.781	-0.117	0.213
-630.522	-55.878	-0.075	0.033
-629.507	-200.000	0.046	-0.249
-628.492	-120.901	0.150	0.025
-627.478	-200.000	0.040	-0.365
-626.463	-29.821	-0.194	-0.111
-625.449	70.090	0.211	-0.218
-624.434	-30.898	0.217	0.123
-623.419	169.683	0.113	0.161
-622.405	-79.813	-0.039	0.013
-621.390	-47.599	0.205	-0.100
-620.376	-105.022	-0.216	-0.050
-619.361	-165.645	-0.262	-0.011
-618.346	-200.000	-0.079	0.498
-617.332	-200.000	0.002	0.371
-616.317	341.308	-0.135	0.265
-615.303	99.397	0.145	-0.168
-614.288	371.157	-0.171	-0.348
-613.273	613.107	0.036	0.090
-612.259	-41.378	0.184	0.095
-611.244	-200.000	0.019	0.106
-610.230	-63.297	-0.207	0.085
-609.215	46.601	-0.205	-0.191
-608.201	800.000	-0.061	-0.220
-607.186	800.000	0.012	-0.036
-606.171	-0.344	-0.105	0.075
-605.157	0.639	0.260	0.187
-604.142	-78.881	-0.340	0.116
-603.128	-61.511	-0.315	0.132
-602.113	-34.076	-0.231	-0.127
-601.098	-137.202	-0.444	-0.051
-600.084	-176.128	0.174	0.005
-599.069	-130.532	-0.266	-0.036
-598.055	528.604	-0.110	0.261
-597.040	-111.681	0.142	0.029
-596.025	-200.000	0.010	0.152
-595.011	-155.188	0.215	0.014
-593.996	-156.041	-0.408	0.026
-592.982	235.548	0.176	0.291
-591.967	-13.753	0.143	0.092
-590.952	-46.146	-0.232	-0.114
-589.938	-94.136	0.242	0.066
-588.923	-200.000	-0.035	0.299
-587.909	-28.327	-0.055	0.032
-586.894	416.785	-0.126	-0.268
-585.879	-8.642	0.226	0.152
-584.865	154.624	-0.122	0.168
-583.850	100.033	0.245	0.284
-582.836	-200.000	-0.010	0.099
-581.821	-80.968	-0.151	-0.050
-580.806	112.735	-0.158	0.192
-579.792	-200.000	0.016	0.376
-578.777	-121.568	0.112	-0.019
-577.763	-45.383	-0.147	0.073
-576.748	-200.000	0.045	0.210
-575.733	456.568	0.078	-0.173
-574.719	-53.290	-0.317	-0.146
-573.704	-31.661	-0.103	0.058
-572.690	35.800	0.124	-0.109
-571.675	132.473	-0.243	-0.313
-570.661	60.389	-0.124	0.123
-569.646	-200.000	0.016	-0.457
-568.631	477.032	-0.057	-0.129
-567.617	468.500	0.074	0.165
-566.602	409.145	0.137	-0.291
-565.588	-170.217	-0.273	0.010
-564.573	-142.486	0.031	-0.003
-563.558	-17.830	0.541	-0.339
-562.544	367.916	0.082	-0.166
-561.529	751.633	0.113	-0.304
-560.515	-10.862	0.200	0.132
-559.500	-126.607	-0.383	-0.057
-558.485	-101.007	-0.066	0.016
-557.471	-107.544	-0.183	-0.040
-556.456	-21.310	0.133	0.081
-555.442	800.000	-0.080	-0.287
-554.427	-200.000	0.055	0.497
-553.412	-200.000	0.011	0.090
-552.398	123.350	-0.283	-0.355
-551.383	-17.793	-0.187	-0.117
-550.369	800.000	0.131	-0.442
-549.354	-19.913	-0.125	-0.077
-548.339	-89.197	-0.340	-0.100
-547.325	800.000	0.065	0.189
-546.310	-95.733	0.249	-0.066
-545.296	757.559	0.137	-0.371
-544.281	69.784	0.099	-0.102
-543.266	-95.979	0.054	-0.014
-542.252	-200.000	0.050	-0.290
-541.237	800.000	-0.037	0.120
-540.223	-200.000	-0.029	-0.165
-539.208	-69.712	0.192	-0.073
-538.193	-128.551	-0.188	0.027
-537.179	558.129	-0.062	0.150
-536.164	624.965	0.070	-0.176
-535.150	800.000	-0.115	0.333
-534.135	-200.000	-0.005	0.084
-533.121	-200.000	0.025	0.324
-532.106	-131.852	-0.385	-0.050
-531.091	-163.814	0.269	0.013
-530.077	-108.780	-0.293	-0.063
-529.062	-48.965	0.166	0.080
-528.048	-91.709	-0.158	-0.045
-527.033	-61.181	0.221	-0.093
-526.018	-146.391	-0.179	0.016
-525.004	-62.655	0.263	0.109
-523.989	-181.016	-0.331	-0.007
-522.975	267.546	-0.052	0.091
-521.960	26.360	-0.095	0.079
-520.945	2.121	0.158	0.114
-519.931	-37.891	0.235	-0.125
-518.916	-200.000	-0.006	-0.140
-517.902	-200.000	-0.010	-0.233
-516.887	800.000	-0.056	-0.210
-515.872	-123.271	-0.175	0.028
-514.858	800.000	-0.048	-0.158
-513.843	-52.972	-0.300	0.137
-512.829	277.428	0.185	-0.329
-511.814	-200.000	-0.030	0.136
-510.799	-42.843	-0.101	0.051
-509.785	-88.960	0.156	-0.046
-508.770	-80.995	0.149	-0.049
-507.756	769.946	-0.011	0.031
-506.741	717.026	-0.111	0.294
-505.726	82.451	0.233	0.252
-504.712	-48.276	-0.156	-0.075
-503.697	-200.000	-0.034	0.208
-502.683	-58.621	-0.315	0.136
-501.668	-144.999	0.174	0.016
-500.653	483.201	0.147	0.334
-499.639	-200.000	-0.009	-0.344
-498.624	75.050	-0.226	-0.237
-497.610	107.741	-0.154	-0.183
-496.595	63.598	0.315	-0.315
-495.581	-200.000	0.043	0.202
-494.566	729.509	-0.188	-0.500
-493.551	-64.431	-0.140	0.057
-492.537	800.000	-0.047	0.131
-491.522	157.488	-0.016	0.022
-490.508	-49.497	-0.107	-0.051
-489.493	-72.975	-0.340	0.125
-488.478	88.890	-0.095	-0.106
-487.464	-200.000	-0.070	0.322
-486.449	800.000	-0.132	0.369
-485.435	59.174	0.214	0.210
-484.420	-55.468	-0.251	0.112
-483.405	278.218	-0.111	0.197
-482.391	-84.081	0.096	-0.030
-481.376	93.414	-0.197	-0.223
-480.362	-200.000	-0.037	-0.281
-479.347	45.441	0.219	0.201
-478.332	-200.000	-0.091	0.493
-477.318	17.347	0.211	-0.166
-476.303	27.650	-0.101	-0.084
-475.289	303.388	-0.180	0.332
-474.274	-200.000	-0.006	0.175
-473.259	-156.154	0.358	0.022
-472.245	-87.638	-0.213	-0.064
-471.230	6.071	-0.108	0.079
-470.216	800.000	0.082	0.225
-469.201	-144.484	0.176	0.016
-468.186	-200.000	-0.010	-0.067
-467.172	-200.000	0.037	-0.309
-466.157	-25.075	0.152	-0.090
-465.143	-129.680	0.128	-0.018
-464.128	-174.091	0.297	-0.009
-463.113	-47.097	0.149	-0.072
-462.099	412.985	0.107	-0.227
-461.084	-5.043	-0.095	-0.065
-460.070	-128.815	-0.218	0.031
-459.055	-157.094	0.335	-0.020
-458.040	117.833	0.076	0.094
-457.026	-150.650	0.159	0.012
-456.011	46.476	0.069	0.064
-454.997	-0.007	0.159	-0.113
-453.982	63.770	0.370	-0.370
-452.968	118.924	-0.082	0.100
-451.953	119.633	-0.054	0.066
-450.938	115.968	0.086	0.105
-449.924	38.705	0.076	-0.068
-448.909	-200.000	0.044	-0.320
-447.895	327.455	0.108	0.205
-446.880	185.425	-0.074	0.110
-445.865	140.284	0.238	0.312
-444.851	-76.328	-0.186	-0.065
-443.836	-196.936	-0.247	0.002
-442.822	87.573	0.096	-0.106
-441.807	68.859	0.412	-0.420
-440.792	796.338	-0.077	0.212
-439.778	800.000	0.050	0.151
-438.763	-138.604	-0.180	0.020
-437.749	-57.754	0.125	-0.055
-436.734	-200.000	-0.023	-0.101
-435.719	15.788	0.090	-0.070
-434.705	11.941	-0.232	-0.178
-433.690	-27.128	0.239	-0.139
-432.676	9.928	0.216	-0.163
-431.661	-200.000	0.037	-0.186
-430.646	-158.781	0.083	-0.005
-429.632	152.674	0.109	-0.148
-428.617	40.033	-0.139	0.124
-427.603	-64.135	0.260	0.106
-426.588	103.451	-0.163	0.190
-425.573	-68.532	0.159	0.061
-424.559	-10.074	0.072	-0.048
-423.544	-40.802	0.222	-0.114
-422.530	-60.214	-0.094	-0.040
-421.515	-55.230	-0.285	0.127
-420.500	-118.056	0.037	0.007
-419.486	-81.044	-0.217	0.071
-418.471	-61.536	0.263	0.110
-417.457	196.409	0.098	0.149
-416.442	-81.080	0.262	-0.086
-415.428	800.000	-0.064	-0.194
-414.413	215.182	-0.129	0.204
-413.398	322.081	0.105	-0.199
-412.384	-91.143	-0.130	0.037
-411.369	-200.000	0.008	0.077
-410.355	151.847	-0.201	0.273
-409.340	301.722	0.056	0.102
-408.325	135.832	0.059	0.077
-407.311	-8.334	-0.201	-0.134
-406.296	-141.166	-0.062	0.006
-405.282	800.000	0.101	0.344
-404.267	-122.585	0.171	0.028
-403.252	-151.185	-0.515	0.038
-402.238	800.000	-0.110	-0.313
-401.223	-200.000	0.019	0.281
-400.209	-158.215	0.114	0.007
-399.194	113.448	0.136	-0.164
-398.179	192.488	0.111	-0.166
-397.165	-165.387	0.334	0.015
-396.150	-78.497	-0.358	0.122
-395.136	800.000	-0.033	0.097
-394.121	-160.484	0.205	0.011
-393.106	-152.022	0.120	-0.009
-392.092	-86.731	-0.238	-0.072
-391.077	38.520	-0.091	0.081
-390.063	-200.000	-0.021	0.312
-389.048	800.000	0.051	0.143
-388.033	-200.000	0.019	0.503
-387.019	144.249	-0.186	0.247
-386.004	-174.381	0.066	-0.002
-384.990	-105.712	-0.292	0.066
-383.975	-200.000	-0.038	0.362
-382.960	800.000	-0.070	-0.281
-381.946	179.195	-0.189	0.275
-380.931	800.000	0.034	0.123
-379.917	-38.910	-0.095	-0.050
-378.902	-200.000	-0.071	0.335
-377.888	-146.237	0.327	-0.028
-376.873	-36.062	-0.156	-0.084
-375.858	-13.280	0.114	-0.073
-374.844	-92.813	0.506	-0.140
-373.829	800.000	-0.053	-0.182
-372.815	178.713	-0.017	0.025
-371.800	-104.784	-0.227	-0.052
-370.785	-25.032	0.116	-0.068
-369.771	800.000	0.046	-0.150
-368.756	157.210	0.160	-0.220
-367.742	-106.690	0.159	0.035
-366.727	488.776	0.082	0.186
-365.712	-113.557	0.191	-0.037
-364.698	144.254	-0.143	-0.189
-363.683	-58.636	-0.269	0.115
-362.669	-200.000	0.040	-0.351
-361.654	-62.305	-0.197	-0.081
-360.639	-66.584	-0.216	0.085
-359.625	-200.000	0.017	-0.237
-358.610	800.000	-0.040	0.116
-357.596	-50.232	0.103	0.048
-356.581	-200.000	0.001	0.110
-355.566	-19.636	-0.078	0.048
-354.552	-200.000	0.011	0.105
-353.537	-200.000	0.000	0.025
-352.523	-82.225	0.328	-0.106
-351.508	-10.297	-0.104	0.068
-350.493	618.870	0.033	-0.082
-349.479	550.788	-0.066	0.156
-348.464	-200.000	0.017	-0.254
-347.450	89.495	0.305	0.337
-346.435	-79.402	-0.029	-0.010
-345.420	-67.897	0.358	-0.138
-344.406	-30.792	0.235	-0.132
-343.391	-38.695	0.259	-0.136
-342.377	9.701	-0.227	-0.171
-341.362	46.828	-0.056	0.051
-340.348	197.866	-0.208	-0.315
-339.333	-200.000	0.028	-0.374
-338.318	409.572	-0.139	-0.292
-337.304	-172.007	0.108	0.003
-336.289	20.428	-0.087	-0.070
-335.275	156.132	0.055	0.075
-334.260	-200.000	0.031	-0.335
-333.245	-200.000	-0.028	0.219
-332.231	363.956	0.042	0.084
-331.216	-21.534	0.122	0.074
-330.202	-99.273	0.141	-0.035
-329.187	533.213	-0.151	0.354
-328.172	-12.549	0.072	-0.047
-327.158	-66.793	-0.201	0.079
-326.143	-172.344	-0.382	-0.012
-325.129	-100.534	0.126	-0.031
-324.114	800.000	0.072	-0.223
-323.099	-200.000	0.039	-0.173
-322.085	-144.021	-0.223	0.021
-321.070	-50.030	0.200	-0.094
-320.056	110.844	-0.166	0.197
-319.041	-90.662	0.376	0.108
-318.026	-73.361	0.265	-0.096
-317.012	800.000	0.051	0.167
-315.997	-52.387	-0.082	-0.037
-314.983	-116.948	-0.131	-0.024
-313.968	46.579	0.199	0.183
-312.953	800.000	0.068	0.280
-311.939	800.000	-0.015	0.045
-310.924	-84.723	0.231	0.072
-309.910	34.908	-0.047	0.041
-308.895	-200.000	0.027	-0.326
-307.880	139.730	-0.130	0.170
-306.866	-200.000	-0.008	0.042
-305.851	-106.090	0.236	0.052
-304.837	-170.985	-0.235	0.008
-303.822	-153.365	0.315	0.022
-302.807	174.577	-0.157	0.225
-301.793	-107.009	-0.271	0.059
-300.778	69.672	0.120	-0.123
-299.764	-200.000	-0.005	-0.161
-298.749	-200.000	-0.071	-0.690
-297.735	-200.000	-0.020	-0.194
-296.720	-57.946	-0.157	0.068
-295.705	-162.831	0.070	0.003
-294.691	0.368	-0.215	-0.152
-293.676	800.000	0.068	-0.283
-292.662	29.627	0.163	0.137
-291.647	598.835	0.114	0.279
-290.632	-88.440	0.233	0.069
-289.618	55.839	-0.159	-0.153
-288.603	22.537	0.157	-0.127
-287.589	-118.434	0.154	-0.027
-286.574	474.037	-0.088	-0.197
-285.559	8.111	-0.263	-0.195
-284.545	150.356	-0.099	0.132
-283.530	-117.768	-0.205	0.036
-282.516	-44.216	-0.122	-0.060
-281.501	-15.857	-0.233	-0.147
-280.486	-47.978	0.247	-0.118
-279.472	190.143	-0.129	0.191
-278.457	171.463	0.117	-0.166
-277.443	320.578	0.107	0.201
-276.428	-200.000	0.002	0.168
-275.413	295.856	-0.099	-0.180
-274.399	800.000	-0.090	-0.359
-273.384	-99.956	0.370	-0.091
-272.370	-72.637	-0.082	-0.030
-271.355	-157.565	-0.159	-0.009
-270.340	376.822	0.065	-0.131
-269.326	-54.026	0.108	-0.049
-268.311	-128.472	-0.201	-0.028
-267.297	111.395	-0.032	-0.039
-266.282	123.603	0.259	-0.321
-265.267	-200.000	0.006	0.099
-264.253	316.650	-0.143	-0.266
-263.238	-97.392	0.121	-0.031
-262.224	-117.365	-0.048	0.009
-261.209	155.740	-0.294	0.400
-260.195	-169.259	-0.141	-0.005
-259.180	-116.733	0.237	0.043
-258.165	792.629	0.139	0.377
-257.151	94.265	0.125	0.141
-256.136	-200.000	-0.005	-0.029
-255.122	-8.218	-0.091	-0.061
-254.107	441.571	0.080	0.173
-253.092	-200.000	-0.051	-0.337
-252.078	1.418	-0.073	0.052
-251.063	800.000	-0.148	0.491
-250.049	68.594	0.253	-0.256
-249.034	-98.207	-0.313	0.079
-248.019	325.933	0.089	-0.168
-247.005	87.803	-0.106	-0.115
-245.990	20.084	0.095	0.076
-244.976	-32.301	-0.035	-0.019
-243.961	-200.000	-0.023	0.285
-242.946	-129.601	-0.137	-0.019
-241.932	-200.000	0.020	0.278
-240.917	-36.470	-0.549	0.292
-239.903	10.707	0.319	-0.240
-238.888	348.684	-0.146	0.284
-237.873	-110.525	0.388	0.079
-236.859	-126.402	0.409	0.060
-235.844	-200.000	0.019	0.234
-234.830	107.727	-0.143	-0.168
-233.815	218.948	0.094	0.149
-232.800	-17.100	0.167	-0.104
-231.786	36.266	0.193	-0.168
-230.771	-26.329	0.257	-0.149
-229.757	-35.821	-0.225	0.120
-228.742	-81.722	-0.009	-0.003
-227.727	34.044	0.224	-0.193
-226.713	261.362	-0.030	0.051
-225.698	239.124	0.015	-0.024
-224.684	-58.894	0.248	0.106
-223.669	81.628	-0.067	0.072
-222.655	274.397	0.073	0.127
-221.640	94.559	-0.062	0.069
-220.625	-200.000	-0.002	-0.154
-219.611	-200.000	-0.004	0.020
-218.596	-67.065	-0.399	-0.155
-217.582	48.979	0.103	0.096
-216.567	-200.000	0.023	0.159
-215.552	-136.277	0.185	0.021
-214.538	105.301	0.033	0.038
-213.523	-40.837	-0.332	-0.170
-212.509	-200.000	0.036	-0.221
-211.494	482.780	-0.116	-0.261
-210.479	-113.731	0.085	-0.016
-209.465	75.856	-0.212	0.221
-208.450	273.022	-0.029	0.050
-207.436	370.033	-0.037	0.074
-206.421	-200.000	-0.043	0.331
-205.406	38.742	-0.048	0.042
-204.392	-124.259	0.239	0.037
-203.377	283.355	-0.087	0.154
-202.363	-94.369	0.328	-0.088
-201.348	-9.555	0.094	-0.062
-200.333	800.000	0.070	-0.239
-199.319	-157.186	0.224	0.013
-198.304	-92.443	-0.285	0.079
-197.290	89.602	-0.261	-0.287
-196.275	-48.566	-0.168	-0.079
-195.260	-200.000	0.062	0.354
-194.246	355.240	0.153	0.299
-193.231	-200.000	0.014	0.290
-192.217	-169.590	-0.208	-0.007
-191.202	-200.000	-0.015	-0.101
-190.187	-200.000	-0.072	0.323
-189.173	-4.025	0.034	-0.023
-188.158	-34.220	0.187	0.101
-187.144	-78.844	-0.254	0.085
-186.129	800.000	-0.068	-0.235
-185.114	-87.115	-0.128	-0.038
-184.100	-68.651	0.089	0.034
-183.085	39.162	-0.152	0.134
-182.071	-12.284	0.456	-0.294
-181.056	-98.808	0.403	-0.101
-180.042	800.000	0.089	-0.371
-179.027	-200.000	0.016	0.176
-178.012	108.923	-0.299	0.352
-176.998	800.000	0.060	-0.222
-175.983	98.923	0.031	0.035
-174.969	800.000	-0.043	-0.181
-173.954	116.248	-0.104	-0.126
-172.939	-141.325	-0.178	-0.018
-171.925	98.576	-0.115	-0.131
-170.910	-178.854	-0.263	-0.006
-169.896	-87.147	0.124	0.037
-168.881	-36.997	-0.160	-0.084
-167.866	-200.000	0.037	-0.243
-166.852	800.000	0.062	0.211
-165.837	-200.000	0.038	0.238
-164.823	78.016	-0.232	0.244
-163.808	177.477	0.073	0.104
-162.793	-116.695	0.292	-0.053
-161.779	-104.342	-0.120	0.027
-160.764	-137.453	-0.129	0.014
-159.750	-66.675	0.190	-0.074
-158.735	-124.008	0.080	0.012
-157.720	83.107	0.091	0.097
-156.706	-147.806	0.107	0.009
-155.691	2.948	0.090	-0.064
-154.677	-31.232	-0.159	0.088
-153.662	81.728	0.088	0.094
-152.647	-161.858	-0.096	0.005
-151.633	14.646	0.269	0.206
-150.618	-37.014	0.020	-0.011
-149.604	467.927	0.059	0.130
-148.589	336.938	0.067	-0.127
-147.574	-200.000	-0.018	-0.098
-146.560	-200.000	-0.002	-0.151
-145.545	220.964	-0.222	0.351
-144.531	425.071	0.110	0.233
-143.516	238.977	0.141	0.230
-142.502	-101.415	-0.066	0.016
-141.487	23.569	-0.297	0.240
-140.472	800.000	-0.106	0.451
-139.458	800.000	0.031	-0.130
-138.443	-162.509	0.259	-0.013
-137.429	-200.000	0.003	-0.032
-136.414	-33.322	0.163	-0.088
-135.399	-100.613	-0.206	0.050
-134.385	166.778	0.136	-0.189
-133.370	72.745	-0.079	-0.081
-132.356	6.939	-0.210	-0.153
-131.341	-85.886	-0.169	0.051
-130.326	-142.554	-0.409	0.039
-129.312	-200.000	0.020	-0.146
-128.297	25.012	-0.332	0.270
-127.283	108.918	-0.075	0.088
-126.268	32.948	0.112	-0.095
-125.253	800.000	0.066	-0.268
-124.239	507.797	-0.037	-0.085
-123.224	355.296	0.068	-0.133
-122.210	66.675	0.078	-0.078
-121.195	-24.564	0.142	-0.083
-120.180	-17.578	-0.043	0.027
-119.166	-173.929	0.250	0.007
-118.151	30.012	0.137	-0.114
-117.137	199.063	0.092	0.138
-116.122	72.714	-0.037	0.038
-115.107	228.226	-0.149	0.238
-114.093	7.194	0.096	-0.071
-113.078	-200.000	-0.019	-0.089
-112.064	-200.000	0.014	0.244
-111.049	-120.952	0.245	-0.040
-110.034	-72.586	-0.165	-0.060
-109.020	515.345	-0.028	-0.063
-108.005	-156.908	-0.040	0.002
-106.991	-200.000	0.001	-0.093
-105.976	521.718	-0.047	0.108
-104.962	-61.721	0.044	0.018
-103.947	-200.000	0.010	-0.077
-102.932	448.102	-0.121	0.262
-101.918	-200.000	-0.040	0.192
-100.903	-101.610	0.244	0.058
-99.889	14.019	-0.265	-0.203
-98.874	104.144	0.278	0.321
-97.859	-95.977	-0.182	-0.047
-96.845	-3.857	-0.071	-0.048
-95.830	85.830	-0.102	-0.110
-94.816	-200.000	-0.086	0.490
-93.801	-200.000	-0.144	0.001
-92.786	-44.710	-0.240	0.118
-91.772	-11.861	0.103	-0.066
-90.757	-200.000	0.042	-0.211
-89.743	-173.739	0.475	0.014
-88.728	31.290	-0.169	0.143
-87.713	-27.020	-0.126	0.072
-86.699	44.751	0.115	-0.104
-85.684	-43.917	0.244	-0.120
-84.670	800.000	-0.099	0.381
-83.655	-200.000	-0.029	0.207
-82.640	-147.236	0.142	0.012
-81.626	-20.919	-0.081	0.049
-80.611	553.006	0.049	0.115
-79.597	-200.000	-0.003	0.069
-78.582	-200.000	-0.028	0.149
-77.567	-5.648	-0.103	-0.069
-76.553	800.000	-0.068	0.263
-75.538	-200.000	-0.010	0.120
-74.524	6.645	0.123	0.090
-73.509	339.807	-0.098	0.187
-72.494	-105.192	0.207	-0.046
-71.480	-200.000	0.035	-0.247
-70.465	-137.277	0.190	0.021
-69.451	262.588	0.149	-0.254
-68.436	-6.730	-0.076	0.051
-67.422	-200.000	0.016	0.327
-66.407	800.000	-0.085	-0.338
-65.392	-142.761	-0.257	0.025
-64.378	-58.147	0.474	0.203
-63.363	17.291	-0.085	0.066
-62.349	-57.049	-0.172	0.074
-61.334	19.260	-1.268	-0.997
-60.319	-37.987	0.708	0.369
-59.305	800.000	-0.390	-1.114
-58.290	395.458	0.678	1.385
-57.276	800.000	0.497	1.541
-56.261	-200.000	106.629	617.920
-55.246	513.934	1512.683	3457.317
-54.232	176.601	2700.256	3846.052
-53.217	110.630	2158.602	2543.306
-52.203	41.107	1597.547	1413.950
-51.188	32.766	1335.003	1131.744
-50.173	29.709	1293.655	1078.837
-49.159	53.437	1349.407	1267.542
-48.144	53.678	1364.041	1282.675
-47.130	32.776	1318.916	1117.984
-46.115	29.337	1301.161	1082.743
-45.100	29.159	1296.322	1077.630
-44.086	29.229	1293.408	1075.575
-43.071	29.087	1291.080	1072.769
-42.057	29.102	1289.254	1071.292
-41.042	29.153	1287.385	1069.995
-40.027	29.055	1286.083	1068.300
-39.013	29.178	1283.878	1067.139
-37.998	29.157	1282.281	1065.651
-36.984	29.245	1280.361	1064.519
-35.969	29.306	1278.490	1063.276
-34.954	29.274	1277.201	1061.975
-33.940	29.225	1275.761	1060.456
-32.925	29.262	1274.569	1059.636
-31.911	29.270	1273.132	1058.441
-30.896	29.443	1271.034	1057.650
-29.881	29.334	1270.114	1056.218
-28.867	29.403	1268.435	1055.173
-27.852	29.316	1267.079	1053.509
-26.838	29.394	1265.739	1052.794
-25.823	29.294	1264.748	1051.362
-24.809	29.326	1263.313	1050.305
-23.794	29.264	1262.227	1049.011
-22.779	29.337	1260.219	1047.715
-21.765	29.446	1259.123	1047.380
-20.750	29.240	1258.269	1045.462
-19.736	29.261	1256.802	1044.318
-18.721	29.295	1255.912	1043.728
-17.706	29.200	1254.643	1042.093
-16.692	29.166	1254.060	1041.379
-15.677	29.270	1252.291	1040.456
-14.663	29.206	1251.659	1039.526
-13.648	29.161	1250.195	1038.018
-12.633	29.193	1249.306	1037.417
-11.619	29.268	1248.421	1037.061
-10.604	29.206	1247.753	1036.118
-9.590	29.188	1246.964	1035.320
-8.575	29.183	1245.406	1033.960
-7.560	29.165	1245.244	1033.680
-6.546	29.138	1244.518	1032.886
-5.531	29.121	1243.503	1031.909
-4.517	29.232	1242.310	1031.501
-3.502	29.105	1241.585	1030.147
-2.487	29.107	1240.760	1029.431
-1.473	29.093	1236.819	1026.044
-0.458	27.665	1221.605	1005.515
0.556	22.072	1204.246	968.668
1.571	18.558	1209.899	953.619
2.586	17.782	1224.660	960.799
3.600	17.738	1213.621	951.812
4.615	12.835	1142.663	870.251
5.629	4.123	1068.012	770.174
6.644	-0.083	1048.868	735.737
7.659	-0.350	1046.236	732.521
8.673	-0.414	1044.868	731.186
9.688	-0.372	1043.108	730.096
10.702	-0.078	1041.783	730.533
11.717	5.445	1049.883	763.149
12.731	14.677	1062.526	817.678
13.746	19.075	1068.216	843.591
14.761	19.903	1069.009	848.202
15.775	20.001	1068.172	847.942
16.790	19.768	1067.706	846.355
17.804	19.608	1067.157	845.064
18.819	19.775	1066.694	845.441
19.834	19.807	1066.571	845.421
20.848	19.682	1065.902	844.205
21.863	19.904	1064.874	844.400
22.877	19.723	1064.731	843.329
23.892	19.736	1063.645	842.457
24.907	19.923	1063.123	842.883
25.921	19.773	1062.132	841.293
26.936	19.734	1061.015	840.143
27.950	19.758	1058.851	838.473
28.965	19.630	1057.063	836.361
29.980	19.775	1055.108	835.442
30.994	19.848	1054.159	834.967
32.009	19.855	1052.915	833.942
33.023	19.666	1051.814	832.090
34.038	19.740	1051.216	831.899
35.053	19.865	1050.852	832.136
36.067	19.945	1049.569	831.431
37.082	19.966	1048.852	830.889
38.096	20.116	1048.233	831.047
39.111	20.187	1047.403	830.655
40.126	19.997	1045.934	828.508
41.140	19.568	1044.231	825.038
42.155	19.481	1043.187	823.723
43.169	19.590	1041.892	823.145
44.184	19.630	1040.968	822.537
45.199	19.461	1039.926	820.834
46.213	19.331	1039.556	819.852
47.228	19.667	1038.000	820.148
48.242	19.675	1037.003	819.325
49.257	19.737	1036.637	819.256
50.271	19.839	1035.415	818.700
51.286	19.913	1034.475	818.233
52.301	20.011	1033.681	817.997
53.315	19.836	1032.884	816.470
54.330	19.881	1031.421	815.454
55.344	19.859	1031.200	815.099
56.359	19.732	1030.305	813.726
57.374	19.711	1028.755	812.329
58.388	19.637	1028.162	811.444
59.403	19.642	1027.189	810.628
60.417	19.492	1026.495	809.301
61.432	19.522	1025.946	808.937
62.447	19.717	1025.321	809.286
63.461	19.580	1024.942	808.278
64.476	19.694	1023.155	807.330
65.490	19.659	1022.336	806.446
66.505	19.662	1021.717	805.900
67.520	19.828	1021.134	806.143
68.534	19.343	1020.291	803.150
69.549	19.259	1018.446	801.235
70.563	19.255	1018.076	800.853
71.578	19.345	1017.006	800.361
72.593	19.174	1016.082	798.767
73.607	19.403	1015.534	799.328
74.622	19.599	1015.464	800.112
75.636	19.583	1014.490	799.200
76.651	19.337	1013.774	797.426
77.666	19.245	1012.770	796.140
78.680	19.558	1012.057	796.956
79.695	19.526	1011.473	796.278
80.709	19.506	1011.173	795.878
81.724	19.459	1010.349	794.942
82.739	19.633	1009.108	794.693
83.753	19.890	1008.670	795.460
84.768	20.019	1008.122	795.552
85.782	20.078	1006.866	794.760
86.797	20.117	1005.860	794.076
87.812	19.927	1004.848	792.337
88.826	20.016	1003.905	791.931
89.841	20.126	1002.936	791.598
90.855	20.033	1002.150	790.484
91.870	20.011	1001.223	789.580
92.884	19.980	999.590	788.082
93.899	19.824	998.657	786.570
94.914	19.982	998.240	786.890
95.928	19.955	996.780	785.543
96.943	19.547	996.244	783.204
97.957	19.445	994.519	781.315
98.972	19.262	993.606	779.701
99.987	19.662	992.612	780.660
101.001	19.861	991.938	780.959
102.016	19.767	990.986	779.718
103.030	19.675	990.154	778.580
104.045	19.705	988.945	777.695
105.060	19.553	987.997	776.196
106.074	19.607	987.284	775.809
107.089	19.941	987.099	777.096
108.103	19.768	985.884	775.296
109.118	19.701	984.367	773.732
110.133	19.771	983.093	772.976
111.147	19.507	982.152	770.987
112.162	19.286	981.610	769.510
113.176	19.597	980.553	769.997
114.191	19.432	980.086	768.830
115.206	19.235	978.776	766.855
116.220	19.288	977.845	766.297
117.235	19.381	977.126	766.075
118.249	19.386	976.191	765.298
119.264	19.292	975.401	764.193
120.279	19.279	974.824	763.615
121.293	19.572	973.770	764.018
122.308	19.557	972.948	763.242
123.322	19.401	971.481	761.334
124.337	19.229	970.097	759.423
125.352	18.786	968.716	756.326
126.366	18.775	967.388	755.173
127.381	19.457	967.501	758.195
128.395	19.788	967.335	759.450
129.410	19.882	965.980	758.731
130.424	19.935	965.000	758.128
131.439	19.813	964.040	756.772
132.454	19.694	963.906	756.080
133.468	19.770	962.404	755.166
134.483	19.956	961.372	755.098
135.497	20.049	961.022	755.163
136.512	20.149	959.923	754.667
137.527	20.153	958.991	753.884
138.541	20.129	958.608	753.415
139.556	19.945	958.036	752.100
140.570	20.092	956.851	751.741
141.585	20.097	955.591	750.705
142.600	19.954	954.798	749.397
143.614	20.301	954.415	750.532
144.629	20.241	953.602	749.567
145.643	20.217	951.995	748.132
146.658	20.099	950.462	746.354
147.673	20.047	949.259	745.119
148.687	19.885	948.599	743.838
149.702	19.953	947.582	743.270
150.716	19.780	947.126	742.103
151.731	19.959	946.773	742.529
152.746	20.229	945.788	742.847
153.760	20.364	944.636	742.452
154.775	20.309	944.435	741.992
155.789	20.287	943.457	741.068
156.804	20.207	942.290	739.741
157.819	20.191	941.890	739.293
158.833	20.355	940.991	739.224
159.848	20.247	940.292	738.148
160.862	20.212	938.399	736.447
161.877	20.271	938.250	736.517
162.892	20.287	937.197	735.692
163.906	20.239	936.094	734.559
164.921	20.350	934.881	734.010
165.935	20.130	934.803	732.956
166.950	20.353	933.379	732.716
167.964	20.261	932.600	731.652
168.979	20.118	931.510	730.131
169.994	20.143	930.375	729.279
171.008	20.324	929.650	729.406
172.023	20.024	929.449	727.923
173.037	19.999	928.087	726.688
174.052	19.900	927.048	725.395
175.067	19.900	926.545	724.938
176.081	20.091	925.917	725.183
177.096	20.041	924.944	724.147
178.110	19.788	923.793	722.124
179.125	19.687	923.279	721.237
180.140	19.785	922.837	721.236
181.154	19.789	922.650	721.045
182.169	20.109	922.331	722.066
183.183	20.199	921.955	722.083
184.198	20.183	921.002	721.203
185.213	20.036	920.507	720.143
186.227	20.246	919.478	720.143
187.242	20.180	918.915	719.366
188.256	20.379	918.158	719.535
189.271	20.189	917.856	718.446
190.286	20.044	916.546	716.758
191.300	19.543	914.735	713.212
192.315	18.834	913.738	709.444
193.329	18.876	913.362	709.263
194.344	19.627	913.806	712.643
195.359	20.096	913.494	714.270
196.373	20.311	912.886	714.618
197.388	19.989	912.135	712.639
198.402	20.028	911.723	712.416
199.417	20.058	911.016	711.924
200.432	19.737	909.863	709.643
201.446	19.602	909.398	708.665
202.461	19.708	908.455	708.300
203.475	18.857	906.849	703.503
204.490	18.280	904.936	699.601
205.504	19.174	905.501	703.627
206.519	19.667	905.958	705.935
207.534	19.743	905.413	705.758
208.548	20.142	905.049	707.041
209.563	19.893	904.069	705.199
210.577	20.047	903.185	705.072
211.592	20.339	903.052	706.094
212.607	20.380	901.770	705.195
213.621	20.257	901.713	704.588
214.636	20.300	900.550	703.793
215.650	20.282	899.745	703.029
216.665	20.196	899.589	702.498
217.680	20.323	898.835	702.359
218.694	19.727	897.434	698.792
219.709	19.748	896.567	698.140
220.723	20.000	896.246	698.846
221.738	20.124	895.759	698.904
222.753	20.156	895.060	698.425
223.767	20.202	894.638	698.223
224.782	20.472	893.940	698.700
225.796	20.306	893.853	697.905
226.811	19.765	892.172	694.357
227.826	19.192	890.856	690.972
228.840	19.295	890.614	691.139
229.855	19.380	889.733	690.735
230.869	18.998	888.358	688.077
231.884	19.650	888.406	690.663
232.899	20.334	888.625	693.505
233.913	20.086	888.110	692.049
234.928	20.124	887.103	691.355
235.942	19.985	886.681	690.410
236.957	19.760	885.688	688.682
237.972	19.826	884.914	688.281
238.986	19.887	884.701	688.298
240.001	19.932	883.871	687.768
241.015	20.117	883.251	687.958
242.030	20.187	883.151	688.099
243.045	20.120	882.701	687.421
244.059	20.311	882.087	687.639
245.074	20.141	880.606	685.751
246.088	19.741	879.585	683.316
247.103	20.075	879.579	684.570
248.117	20.478	879.600	686.118
249.132	20.695	878.920	686.384
250.147	20.834	878.247	686.346
251.161	20.835	877.874	685.995
252.176	20.837	877.098	685.338
253.190	21.006	876.498	685.471
254.205	21.118	875.961	685.432
255.220	21.078	875.170	684.593
256.234	20.986	874.112	683.347
257.249	20.818	873.729	682.330
258.263	20.849	873.265	682.027
259.278	20.991	872.657	682.046
260.293	20.902	871.610	680.822
261.307	20.880	871.128	680.298
262.322	20.782	869.821	678.836
263.336	19.904	868.004	673.941
264.351	18.856	866.049	668.289
265.366	19.108	865.742	668.972
266.380	20.240	866.705	674.056
267.395	20.567	866.304	674.958
268.409	20.455	865.833	674.093
269.424	20.705	865.066	674.407
270.439	20.699	864.339	673.756
271.453	21.028	863.439	674.267
272.468	21.046	863.697	674.481
273.482	21.201	862.883	674.383
274.497	20.618	861.917	671.319
275.512	20.267	861.010	669.200
276.526	20.831	860.503	670.921
277.541	20.770	860.686	670.767
278.555	20.686	859.584	669.527
279.570	20.391	858.783	667.707
280.585	20.601	857.965	667.821
281.599	20.552	857.188	666.967
282.614	20.155	855.683	664.218
283.628	20.046	855.592	663.669
284.643	20.498	854.891	664.800
285.657	19.970	854.120	662.123
286.672	19.921	853.177	661.146
287.687	20.398	853.309	663.009
288.701	20.401	852.593	662.404
289.716	20.011	851.728	660.190
290.730	19.936	851.362	659.560
291.745	19.790	850.209	658.053
292.760	20.170	849.866	659.178
293.774	20.961	850.567	662.670
294.789	21.260	850.250	663.501
295.803	21.454	849.491	663.586
296.818	21.360	848.694	662.549
297.833	20.965	847.618	660.154
298.847	20.852	847.175	659.322
299.862	21.174	846.927	660.288
300.876	21.343	846.556	660.581
301.891	21.146	845.447	658.911
302.906	20.745	844.588	656.673
303.920	20.945	844.643	657.410
304.935	21.253	844.079	658.076
305.949	21.093	843.190	656.721
306.964	20.978	842.632	655.797
307.979	21.169	842.191	656.112
308.993	21.538	841.751	657.099
310.008	21.366	841.322	656.061
311.022	21.126	840.800	654.695
312.037	20.948	839.930	653.291
313.052	20.835	839.209	652.248
314.066	19.882	837.966	647.662
315.081	19.809	836.679	646.337
316.095	20.631	837.156	649.719
317.110	20.949	837.173	650.863
318.125	20.305	835.260	646.918
319.139	19.311	834.160	642.306
320.154	19.318	833.453	641.734
321.168	20.134	834.134	645.238
322.183	20.847	834.358	648.007
323.197	20.848	834.070	647.729
324.212	21.171	833.587	648.497
325.227	21.166	832.843	647.844
326.241	21.042	832.143	646.782
327.256	20.898	831.684	645.834
328.270	20.883	830.680	644.942
329.285	20.719	830.205	643.907
330.300	20.635	829.251	642.802
331.314	20.771	829.243	643.240
332.329	21.243	828.693	644.501
333.343	21.247	828.390	644.221
334.358	21.023	828.284	643.256
335.373	21.248	827.525	643.440
336.387	21.503	827.512	644.311
337.402	21.704	827.077	644.655
338.416	21.625	826.774	644.071
339.431	21.565	826.535	643.606
340.446	21.620	826.313	643.580
341.460	21.630	825.722	643.099
342.475	21.350	824.899	641.374
343.489	21.518	824.555	641.667
344.504	21.743	824.431	642.338
345.519	21.759	824.333	642.262
346.533	21.938	823.396	642.132
347.548	22.147	822.888	642.440
348.562	21.948	822.061	641.011
349.577	22.024	821.767	641.002
350.592	22.027	821.193	640.509
351.606	21.894	820.457	639.397
352.621	21.942	819.383	638.677
353.635	21.705	818.678	637.208
354.650	21.201	816.976	633.999
355.665	20.280	815.740	629.643
356.679	20.692	815.774	631.107
357.694	21.084	815.196	632.024
358.708	20.885	814.777	630.923
359.723	21.337	814.868	632.576
360.738	21.645	814.436	633.298
361.752	21.658	814.195	633.101
362.767	22.062	813.264	633.777
363.781	22.198	813.279	634.227
364.796	22.275	812.731	634.020
365.810	22.113	812.895	633.508
366.825	22.158	812.268	633.126
367.840	21.995	811.060	631.541
368.854	21.715	810.086	629.721
369.869	21.502	809.983	628.819
370.883	21.719	809.315	629.022
371.898	21.643	808.666	628.192
372.913	21.604	808.668	627.998
373.927	21.681	808.193	627.849
374.942	21.881	807.824	628.224
375.956	22.058	807.234	628.340
376.971	22.178	806.986	628.523
377.986	22.359	806.796	628.965
379.000	22.162	806.121	627.681
380.015	22.068	805.342	626.684
381.029	22.148	805.031	626.671
382.044	22.218	804.315	626.308
383.059	22.327	803.914	626.327
384.073	22.319	803.575	625.979
385.088	22.316	802.985	625.453
386.102	22.212	801.936	624.212
387.117	22.130	801.389	623.439
388.132	21.828	800.451	621.586
389.146	21.188	799.754	618.722
390.161	21.498	799.608	619.652
391.175	21.826	799.512	620.683
392.190	21.621	798.129	618.830
393.205	20.310	796.204	612.658
394.219	19.164	794.308	607.106
395.234	19.240	794.346	607.351
396.248	20.567	796.008	613.252
397.263	22.127	796.402	619.000
398.278	22.039	795.938	618.278
399.292	21.819	795.188	616.864
400.307	21.733	795.174	616.498
401.321	21.871	794.525	616.424
402.336	22.163	794.849	617.647
403.350	22.474	794.302	618.259
404.365	22.787	793.938	619.020
405.380	22.849	793.769	619.051
406.394	22.994	793.166	619.033
407.409	22.808	792.744	617.997
408.423	22.786	792.667	617.808
409.438	22.746	792.504	617.485
410.453	22.997	791.790	617.752
411.467	22.955	790.580	616.606
412.482	22.979	790.383	616.483
413.496	23.074	789.945	616.415
414.511	22.938	789.477	615.522
415.526	22.967	789.533	615.615
416.540	22.878	788.484	614.430
417.555	22.601	787.881	612.944
418.569	22.743	787.362	612.980
419.584	22.591	787.231	612.296
420.599	22.413	786.764	611.259
421.613	158.749	1363.839	1799.987
422.628	137.425	1447.903	1800.083
