DTS Sentinel unit serial number:	SN413079Multiplexer serial number:	ORYXHardware model number:	OX4-SRSoftware version number:	ORYX F/W v4.00 Oryx Data Collector v3.7.2.0data status	okinstallation	princeton_trtdifferential loss correction	single-endedforward channel	channel 1reverse channel	N/Adate	2019/09/15time	19:02:36forward acquisition time	60.00reverse acquisition time	0.00gamma	496.2192k internal	0.2292k external	0.2292temperature offset calibration	0.9953default loss term (dB/km)	0.3790temperature slope calibration	1.0000multiplexer offset coefficient	1.0000multiplexer slope coefficient	1.0000fibre end	0.00T internal ref (°C)	41.89T ext. ref 1 (°C)	7.04T ext. ref 2 (°C)	31.36length (m)	temperature (°C)	Stokes	anti-Stokes-747.200	-64.372	0.194	-0.081
-746.185	84.686	0.155	0.173
-745.171	726.521	-0.069	0.187
-744.156	800.000	-0.031	-0.091
-743.142	-122.949	-0.170	-0.028
-742.127	-111.604	0.397	0.083
-741.112	67.150	-0.337	-0.352
-740.098	-200.000	-0.026	0.374
-739.083	-200.000	-0.008	-0.152
-738.069	122.287	-0.103	0.131
-737.054	-18.222	-0.150	-0.096
-736.039	-102.680	-0.273	-0.067
-735.025	189.203	-0.259	0.398
-734.010	252.844	-0.162	0.283
-732.996	-69.294	0.235	-0.092
-731.981	-117.855	-0.172	-0.032
-730.966	294.874	-0.077	-0.145
-729.952	53.824	0.086	0.084
-728.937	141.396	-0.036	0.049
-727.923	165.968	-0.147	-0.213
-726.908	29.442	0.157	0.136
-725.894	375.251	-0.054	-0.113
-724.879	245.085	0.056	0.096
-723.864	89.574	-0.171	-0.196
-722.850	591.185	0.024	0.061
-721.835	10.307	-0.078	0.061
-720.821	262.936	-0.061	-0.108
-719.806	86.015	-0.157	-0.177
-718.791	18.443	-0.126	-0.103
-717.777	81.313	0.143	0.158
-716.762	-50.355	-0.128	-0.062
-715.748	-200.000	-0.030	-0.368
-714.733	-200.000	0.290	0.000
-713.718	83.273	0.198	0.220
-712.704	-170.406	0.221	-0.008
-711.689	-148.386	0.348	-0.029
-710.675	-200.000	0.004	0.057
-709.660	420.944	-0.048	0.105
-708.645	-200.000	0.067	0.301
-707.631	374.593	0.098	0.203
-706.616	-139.376	0.213	-0.023
-705.602	-77.506	0.194	-0.069
-704.587	-56.613	-0.285	0.129
-703.572	-66.335	0.166	-0.067
-702.558	105.520	0.244	-0.295
-701.543	-164.062	0.092	0.004
-700.529	458.215	-0.200	-0.454
-699.514	-200.000	0.005	-0.187
-698.499	-200.000	-0.047	-0.300
-697.485	367.450	-0.129	-0.266
-696.470	460.585	-0.052	0.119
-695.456	-81.459	0.368	-0.124
-694.441	86.424	-0.169	0.191
-693.426	10.649	0.164	0.128
-692.412	-200.000	0.027	-0.134
-691.397	800.000	0.107	0.403
-690.383	1.443	0.059	-0.044
-689.368	-200.000	-0.007	-0.215
-688.354	-3.749	0.215	-0.152
-687.339	240.750	0.148	0.252
-686.324	-200.000	-0.001	0.151
-685.310	-42.507	-0.202	-0.105
-684.295	-69.714	-0.068	0.027
-683.281	-151.284	0.195	0.015
-682.266	-200.000	0.017	-0.284
-681.251	221.240	0.049	-0.081
-680.237	-116.769	0.253	0.047
-679.222	94.350	0.159	-0.184
-678.208	-94.286	-0.245	0.068
-677.193	-74.895	-0.433	0.158
-676.178	341.021	0.125	0.249
-675.164	78.908	-0.052	0.057
-674.149	-80.049	0.259	0.089
-673.135	800.000	-0.040	0.124
-672.120	-143.578	0.155	-0.015
-671.105	-96.907	-0.100	0.027
-670.091	131.911	-0.239	0.315
-669.076	99.805	0.045	0.053
-668.062	19.618	-0.096	0.079
-667.047	17.722	-0.406	0.330
-666.032	800.000	-0.064	-0.241
-665.018	45.960	-0.294	-0.277
-664.003	134.613	-0.117	0.155
-662.989	-200.000	-0.003	-0.137
-661.974	-200.000	0.043	-0.196
-660.959	-56.771	-0.200	-0.090
-659.945	-160.948	-0.225	-0.012
-658.930	-89.112	0.342	0.103
-657.916	-51.605	0.108	0.051
-656.901	-194.953	-0.261	-0.002
-655.886	-115.769	-0.130	0.025
-654.872	-125.393	0.272	0.042
-653.857	105.635	-0.062	-0.075
-652.843	239.812	-0.171	0.290
-651.828	800.000	-0.066	0.187
-650.814	410.490	-0.093	0.201
-649.799	-58.886	0.020	0.009
-648.784	67.183	0.058	-0.060
-647.770	-76.132	0.272	0.098
-646.755	-3.850	-0.097	-0.069
-645.741	26.568	-0.152	0.130
-644.726	129.101	0.048	0.062
-643.711	-200.000	-0.093	0.465
-642.697	225.655	0.164	0.270
-641.682	93.828	0.065	0.075
-640.668	66.778	-0.175	0.182
-639.653	100.379	-0.109	-0.129
-638.638	-27.392	-0.399	0.237
-637.624	207.289	0.077	-0.123
-636.609	722.037	0.070	0.190
-635.595	320.876	0.107	-0.207
-634.580	175.737	0.142	-0.210
-633.565	-37.028	-0.148	-0.081
-632.551	-140.282	0.277	0.030
-631.536	-81.692	-0.106	-0.035
-630.522	196.418	0.209	-0.325
-629.507	-200.000	0.071	0.356
-628.492	-139.198	-0.200	0.022
-627.478	-154.933	0.235	-0.016
-626.463	-142.733	0.215	0.021
-625.449	-121.102	0.161	0.027
-624.434	-80.731	-0.435	0.147
-623.419	-45.689	0.123	-0.062
-622.405	-200.000	0.037	-0.248
-621.390	-200.000	0.034	0.253
-620.376	-13.991	0.217	0.143
-619.361	72.351	-0.031	0.033
-618.346	-200.000	0.037	-0.275
-617.332	78.467	0.182	0.198
-616.317	800.000	0.070	0.248
-615.303	-200.000	-0.006	0.204
-614.288	-22.734	0.076	0.047
-613.273	-200.000	0.001	-0.150
-612.259	800.000	-0.076	0.228
-611.244	27.497	-0.298	-0.256
-610.230	-18.861	-0.521	0.331
-609.215	29.942	0.080	-0.069
-608.201	37.765	-0.085	0.077
-607.186	-200.000	-0.243	0.000
-606.171	80.336	-0.031	-0.034
-605.157	306.717	0.012	-0.022
-604.142	-145.423	-0.051	0.005
-603.128	465.219	0.050	-0.114
-602.113	-200.000	-0.001	0.114
-601.098	-34.740	0.208	-0.116
-600.084	-200.000	-0.001	0.234
-599.069	79.521	-0.228	-0.249
-598.055	-29.589	-0.143	0.083
-597.040	-117.764	-0.173	0.032
-596.025	96.293	-0.124	0.144
-595.011	-18.618	0.111	-0.070
-593.996	231.831	-0.044	-0.074
-592.982	-51.120	-0.338	0.161
-591.967	-103.784	-0.305	-0.073
-590.952	-151.201	0.075	0.006
-589.938	-11.558	-0.192	-0.129
-588.923	22.559	0.224	0.186
-587.909	-200.000	-0.000	-0.027
-586.894	-200.000	0.015	0.406
-585.879	-197.520	-0.065	-0.000
-584.865	-152.595	0.134	0.010
-583.850	-147.606	0.162	0.014
-582.836	800.000	0.042	0.149
-581.821	800.000	-0.042	-0.136
-580.806	-70.576	0.250	0.096
-579.792	-200.000	-0.000	0.083
-578.777	-122.890	-0.347	0.057
-577.763	-55.879	-0.180	-0.082
-576.748	250.936	0.061	-0.105
-575.733	800.000	-0.093	-0.279
-574.719	-107.633	-0.157	0.035
-573.704	-200.000	-0.038	0.204
-572.690	-67.750	-0.219	0.087
-571.675	-39.418	0.312	0.166
-570.661	800.000	-0.058	0.251
-569.646	231.113	-0.195	-0.325
-568.631	800.000	0.126	0.378
-567.617	752.676	-0.047	-0.130
-566.602	-10.013	0.356	0.240
-565.588	-134.302	0.069	0.009
-564.573	-2.312	-0.143	-0.102
-563.558	18.694	0.475	-0.386
-562.544	-104.747	0.302	-0.071
-561.529	38.820	0.038	0.035
-560.515	44.993	0.120	0.112
-559.500	14.104	0.195	-0.154
-558.485	633.762	0.090	0.232
-557.471	221.875	0.240	-0.392
-556.456	186.333	0.217	0.328
-555.442	-68.818	0.240	0.094
-554.427	-200.000	0.005	-0.388
-553.412	-65.142	-0.370	0.152
-552.398	-200.000	-0.013	-0.096
-551.383	-32.131	0.147	-0.083
-550.369	52.181	0.174	-0.169
-549.354	-21.973	-0.109	-0.067
-548.339	34.699	-0.110	0.098
-547.325	-200.000	-0.054	0.440
-546.310	-200.000	-0.047	0.255
-545.296	70.687	-0.051	0.053
-544.281	-1.098	-0.120	0.086
-543.266	-116.952	-0.112	-0.021
-542.252	-21.244	-0.207	0.129
-541.237	-134.446	-0.221	-0.027
-540.223	-76.903	0.255	0.091
-539.208	800.000	0.058	0.197
-538.193	-155.052	0.192	-0.013
-537.179	11.807	-0.147	0.115
-536.164	-124.434	-0.063	-0.010
-535.150	-91.290	-0.204	-0.059
-534.135	214.993	0.086	-0.139
-533.121	131.662	-0.126	0.165
-532.106	541.153	0.111	-0.268
-531.091	800.000	0.117	-0.392
-530.077	800.000	0.109	-0.344
-529.062	3.764	-0.057	0.042
-528.048	348.235	-0.030	0.061
-527.033	-186.293	0.104	0.002
-526.018	34.483	0.065	-0.058
-525.004	-200.000	0.001	0.060
-523.989	-200.000	0.029	0.384
-522.975	24.263	0.106	0.089
-521.960	-112.045	-0.134	0.027
-520.945	361.958	0.091	0.186
-519.931	622.259	-0.112	-0.286
-518.916	-24.579	0.133	0.080
-517.902	-108.839	0.086	-0.019
-516.887	-52.291	0.041	0.019
-515.872	800.000	0.021	0.072
-514.858	-98.689	-0.027	-0.007
-513.843	-103.071	-0.078	-0.019
-512.829	-48.669	-0.231	-0.113
-511.814	800.000	0.089	0.250
-510.799	-8.186	-0.407	0.278
-509.785	116.679	-0.222	0.276
-508.770	800.000	-0.084	0.263
-507.756	-134.869	-0.300	-0.037
-506.741	-200.000	0.035	-0.157
-505.726	-146.262	-0.296	-0.026
-504.712	-200.000	0.035	0.257
-503.697	-31.173	0.235	-0.134
-502.683	641.814	0.054	-0.140
-501.668	23.630	-0.063	0.053
-500.653	-200.000	0.000	0.048
-499.639	-46.574	-0.079	-0.039
-498.624	49.517	-0.124	-0.118
-497.610	-200.000	-0.026	0.183
-496.595	71.315	-0.050	0.052
-495.581	149.232	-0.077	0.106
-494.566	-200.000	0.007	-0.230
-493.551	41.768	0.208	-0.191
-492.537	-200.000	0.006	-0.245
-491.522	5.908	0.170	-0.128
-490.508	-21.926	0.146	-0.090
-489.493	446.615	0.086	-0.192
-488.478	494.128	-0.089	-0.207
-487.464	22.912	-0.125	-0.104
-486.449	-200.000	-0.022	-0.240
-485.435	-200.000	0.028	0.209
-484.420	-200.000	-0.012	-0.140
-483.405	-200.000	0.015	0.190
-482.391	-167.535	0.197	-0.008
-481.376	5.223	-0.214	-0.160
-480.362	-115.825	-0.292	0.055
-479.347	-20.958	0.124	-0.077
-478.332	668.510	-0.101	0.265
-477.318	-200.000	-0.001	0.156
-476.303	185.168	-0.114	0.172
-475.289	-120.570	0.175	-0.030
-474.274	78.539	0.207	0.224
-473.259	47.999	-0.321	-0.303
-472.245	800.000	-0.017	-0.059
-471.230	40.725	0.019	-0.017
-470.216	63.356	0.048	0.049
-469.201	-190.313	-0.111	-0.001
-468.186	-16.288	-0.147	0.095
-467.172	-200.000	0.031	-0.230
-466.157	-39.935	0.254	-0.134
-465.143	315.902	0.117	-0.223
-464.128	-200.000	0.002	-0.091
-463.113	-24.132	0.201	0.122
-462.099	800.000	0.011	0.044
-461.084	-59.503	0.105	0.046
-460.070	44.904	-0.222	0.207
-459.055	53.994	0.098	0.095
-458.040	-121.692	0.211	0.035
-457.026	203.360	0.082	-0.129
-456.011	-200.000	0.003	0.039
-454.997	142.565	0.330	-0.443
-453.982	37.289	0.165	-0.148
-452.968	-83.945	0.167	-0.054
-451.953	340.962	-0.126	-0.249
-450.938	696.090	0.105	0.278
-449.924	146.491	-0.156	0.213
-448.909	49.773	-0.042	0.040
-447.895	-143.056	-0.230	0.022
-446.880	-181.493	0.206	-0.004
-445.865	-186.152	0.410	-0.006
-444.851	135.067	0.027	-0.035
-443.836	411.775	-0.087	0.187
-442.822	96.327	-0.076	0.087
-441.807	341.583	0.135	-0.268
-440.792	-67.995	-0.083	0.033
-439.778	27.001	-0.192	-0.163
-438.763	-78.725	0.102	0.035
-437.749	-149.046	-0.321	-0.026
-436.734	-200.000	0.005	0.059
-435.719	30.268	0.172	-0.149
-434.705	413.707	-0.053	0.114
-433.690	378.718	-0.163	0.337
-432.676	-200.000	0.001	-0.048
-431.661	-138.129	-0.291	-0.033
-430.646	415.540	-0.040	-0.086
-429.632	359.063	-0.061	0.123
-428.617	620.517	0.179	0.455
-427.603	348.216	-0.099	0.197
-426.588	23.809	-0.152	-0.126
-425.573	-14.705	-0.070	-0.045
-424.559	313.837	0.026	-0.050
-423.544	173.140	-0.150	0.219
-422.530	-200.000	0.038	-0.266
-421.515	-200.000	0.003	0.129
-420.500	-73.309	-0.028	0.010
-419.486	111.551	-0.211	-0.258
-418.471	-200.000	-0.003	-0.142
-417.457	513.233	-0.111	0.261
-416.442	264.417	-0.070	-0.123
-415.428	-105.355	0.259	-0.060
-414.413	-200.000	-0.013	0.292
-413.398	215.268	0.081	-0.130
-412.384	438.006	0.137	-0.302
-411.369	-36.717	-0.100	-0.054
-410.355	-200.000	0.029	0.141
-409.340	-200.000	0.051	-0.271
-408.325	800.000	0.135	0.384
-407.311	318.703	-0.074	-0.142
-406.296	-12.124	0.164	-0.109
-405.282	337.611	-0.101	0.199
-404.267	-105.919	-0.303	-0.069
-403.252	-9.831	-0.062	0.042
-402.238	800.000	-0.077	0.247
-401.223	86.390	-0.107	-0.120
-400.209	-154.088	-0.181	0.012
-399.194	126.237	-0.154	-0.197
-398.179	24.292	-0.488	-0.407
-397.165	44.543	-0.095	-0.088
-396.150	-61.140	-0.187	-0.079
-395.136	156.744	0.151	-0.210
-394.121	-145.286	0.157	-0.014
-393.106	525.275	-0.141	-0.335
-392.092	800.000	0.056	-0.195
-391.077	-200.000	-0.033	-0.167
-390.063	-28.416	0.224	0.130
-389.048	-25.581	-0.297	-0.177
-388.033	24.163	-0.237	-0.197
-387.019	223.597	0.207	0.338
-386.004	78.254	-0.069	0.074
-384.990	254.903	-0.152	-0.263
-383.975	-200.000	0.021	0.184
-382.960	224.505	-0.057	0.093
-381.946	-200.000	-0.002	-0.101
-380.931	-97.937	-0.289	0.075
-379.917	-200.000	0.009	-0.119
-378.902	121.544	0.270	-0.340
-377.888	-35.542	-0.211	0.115
-376.873	-135.709	0.167	-0.020
-375.858	800.000	-0.079	-0.302
-374.844	-94.426	-0.328	0.090
-373.829	-11.230	0.205	-0.136
-372.815	800.000	0.006	0.022
-371.800	-12.813	0.159	-0.105
-370.785	-123.646	-0.270	0.043
-369.771	212.735	0.014	-0.022
-368.756	800.000	-0.038	0.111
-367.742	-63.278	-0.226	0.094
-366.727	800.000	-0.126	0.373
-365.712	-9.302	-0.148	0.100
-364.698	26.485	0.253	-0.213
-363.683	-10.703	-0.293	0.195
-362.669	10.763	-0.086	-0.066
-361.654	-200.000	0.022	-0.192
-360.639	292.665	0.123	0.226
-359.625	800.000	-0.056	0.228
-358.610	-115.970	-0.135	0.025
-357.596	-86.808	-0.261	0.080
-356.581	197.470	-0.040	-0.061
-355.566	-140.415	-0.389	-0.041
-354.552	-96.865	0.081	-0.021
-353.537	76.046	0.192	0.205
-352.523	42.414	0.081	-0.074
-351.508	-24.756	0.193	0.116
-350.493	-175.460	0.050	0.001
-349.479	-115.093	0.160	0.031
-348.464	406.642	0.027	-0.058
-347.450	-52.597	-0.258	-0.120
-346.435	-79.898	-0.145	0.049
-345.420	469.902	-0.061	-0.138
-344.406	-180.542	-0.180	0.004
-343.391	507.389	-0.102	0.238
-342.377	-200.000	0.014	0.226
-341.362	584.265	-0.144	0.357
-340.348	-200.000	-0.053	-0.375
-339.333	-104.562	-0.107	-0.025
-338.318	107.098	0.270	0.324
-337.304	-3.935	0.074	-0.052
-336.289	-200.000	0.024	-0.338
-335.275	-74.750	-0.175	-0.063
-334.260	11.083	-0.190	0.146
-333.245	-200.000	0.004	0.305
-332.231	447.131	0.135	0.298
-331.216	12.819	-0.143	0.112
-330.202	-159.968	0.088	-0.005
-329.187	-113.131	-0.115	0.023
-328.172	379.871	-0.066	0.137
-327.158	90.862	0.293	0.331
-326.143	70.403	0.087	0.091
-325.129	-113.855	-0.558	-0.109
-324.114	64.275	-0.144	0.146
-323.099	117.151	-0.143	0.177
-322.085	82.857	0.052	0.057
-321.070	800.000	-0.058	-0.174
-320.056	-194.446	-0.410	0.003
-319.041	-87.022	0.279	-0.086
-318.026	-200.000	0.048	-0.213
-317.012	361.190	0.142	-0.287
-315.997	-70.930	-0.101	-0.038
-314.983	-29.911	-0.347	-0.199
-313.968	627.662	-0.083	-0.211
-312.953	398.672	0.069	0.146
-311.939	184.466	0.219	0.326
-310.924	545.302	-0.055	-0.131
-309.910	-93.001	0.413	0.116
-308.895	4.623	-0.115	0.085
-307.880	149.381	-0.195	-0.266
-306.866	-66.104	0.216	0.087
-305.851	446.413	0.055	-0.121
-304.837	51.891	-0.102	0.098
-303.822	-60.839	-0.032	-0.014
-302.807	-129.750	0.273	-0.038
-301.793	345.317	0.101	0.199
-300.778	-200.000	-0.012	0.129
-299.764	-200.000	0.004	-0.169
-298.749	-56.728	0.193	0.086
-297.735	390.439	0.094	0.196
-296.720	800.000	0.057	-0.217
-295.705	-85.309	0.477	0.150
-294.691	645.415	0.052	-0.133
-293.676	800.000	-0.027	0.101
-292.662	800.000	0.027	-0.077
-291.647	-79.673	0.322	-0.109
-290.632	-20.390	-0.244	-0.151
-289.618	-83.389	0.448	-0.144
-288.603	-200.000	0.010	-0.396
-287.589	-33.747	0.130	0.072
-286.574	-200.000	-0.039	0.200
-285.559	-76.797	0.453	-0.159
-284.545	-99.882	0.199	-0.050
-283.530	-184.698	0.380	0.006
-282.516	343.043	-0.119	-0.235
-281.501	54.736	-0.300	-0.291
-280.486	-141.724	-0.352	0.036
-279.472	-133.809	0.123	0.015
-278.457	43.805	-0.024	0.022
-277.443	800.000	0.038	-0.108
-276.428	-5.718	-0.100	-0.069
-275.413	140.789	0.126	-0.167
-274.399	-200.000	0.031	0.242
-273.384	-177.147	-0.390	-0.010
-272.370	-200.000	0.075	-0.332
-271.355	-200.000	-0.003	-0.162
-270.340	108.241	-0.064	0.076
-269.326	37.229	-0.034	-0.030
-268.311	-4.471	0.086	0.060
-267.297	-200.000	0.016	0.095
-266.282	-200.000	0.002	-0.262
-265.267	-11.378	0.102	-0.068
-264.253	201.132	0.041	0.063
-263.238	-120.406	0.165	0.028
-262.224	-187.542	0.292	-0.004
-261.209	-152.692	-0.150	0.011
-260.195	-121.774	0.213	0.035
-259.180	-73.473	-0.090	0.033
-258.165	-164.847	-0.253	0.011
-257.151	41.501	-0.119	-0.109
-256.136	-200.000	0.004	0.093
-255.122	96.608	0.028	0.032
-254.107	119.235	-0.117	-0.146
-253.092	-171.861	-0.246	0.008
-252.078	800.000	0.029	0.095
-251.063	-162.856	0.319	0.016
-250.049	-11.433	-0.184	0.122
-249.034	-157.909	0.286	0.017
-248.019	-122.808	0.139	0.023
-247.005	-0.997	0.132	0.094
-245.990	800.000	-0.151	0.501
-244.976	-139.297	-0.040	0.004
-243.961	505.844	0.084	-0.196
-242.946	-48.817	0.224	-0.108
-241.932	800.000	0.092	-0.270
-240.917	-200.000	-0.004	-0.448
-239.903	-127.388	0.402	-0.059
-238.888	800.000	0.128	0.361
-237.873	263.139	-0.181	0.316
-236.859	-64.683	0.271	-0.110
-235.844	-200.000	0.028	-0.175
-234.830	16.771	0.131	0.104
-233.815	222.711	-0.060	-0.098
-232.800	-200.000	0.010	-0.181
-231.786	-31.461	0.098	0.055
-230.771	513.871	-0.167	0.390
-229.757	-96.170	0.112	-0.030
-228.742	800.000	-0.114	-0.316
-227.727	-73.172	-0.262	-0.096
-226.713	-28.730	-0.152	-0.088
-225.698	800.000	-0.032	0.113
-224.684	98.754	0.096	0.111
-223.669	492.318	0.095	-0.218
-222.655	-29.930	-0.118	0.068
-221.640	-20.081	-0.251	-0.155
-220.625	388.657	-0.233	0.484
-219.611	-125.389	-0.118	0.018
-218.596	187.233	0.050	0.074
-217.582	117.480	-0.181	-0.223
-216.567	-66.725	-0.069	-0.027
-215.552	-70.162	0.217	0.083
-214.538	-190.476	0.072	0.001
-213.523	52.341	-0.044	0.043
-212.509	93.808	0.149	-0.169
-211.494	800.000	0.036	0.133
-210.479	158.665	0.125	-0.174
-209.465	280.339	0.031	0.056
-208.450	119.799	0.078	-0.096
-207.436	345.659	-0.099	-0.194
-206.421	-12.827	0.289	0.189
-205.406	-200.000	-0.013	0.114
-204.392	-148.223	0.306	0.025
-203.377	-120.946	0.220	0.037
-202.363	-162.664	-0.223	-0.011
-201.348	-107.426	-0.137	0.030
-200.333	-52.248	-0.289	-0.134
-199.319	205.848	-0.163	-0.254
-198.304	-200.000	-0.002	0.116
-197.290	-183.746	-0.075	0.001
-196.275	-85.831	-0.365	-0.113
-195.260	-200.000	-0.014	-0.425
-194.246	84.689	0.231	0.254
-193.231	-134.119	0.272	0.034
-192.217	-83.391	-0.084	-0.027
-191.202	38.697	0.144	0.129
-190.187	-70.314	0.208	0.079
-189.173	800.000	-0.032	0.096
-188.158	-66.570	-0.131	-0.052
-187.144	800.000	0.084	-0.365
-186.129	35.382	0.201	-0.177
-185.114	-114.210	0.066	-0.013
-184.100	-32.319	0.132	-0.074
-183.085	-182.593	0.141	-0.003
-182.071	-0.424	0.338	-0.241
-181.056	-39.056	0.173	-0.091
-180.042	-3.978	0.302	-0.210
-179.027	-78.566	0.317	-0.108
-178.012	-23.900	-0.191	0.114
-176.998	-200.000	0.022	-0.225
-175.983	189.123	0.160	-0.241
-174.969	37.044	0.288	0.255
-173.954	758.222	0.033	0.088
-172.939	41.511	-0.080	-0.072
-171.925	800.000	-0.064	-0.223
-170.910	99.093	-0.133	-0.153
-169.896	800.000	0.046	0.198
-168.881	800.000	0.047	0.194
-167.866	800.000	0.079	0.282
-166.852	-200.000	0.008	0.310
-165.837	13.326	-0.135	-0.105
-164.823	-32.739	0.337	0.188
-163.808	88.024	-0.064	0.071
-162.793	-66.201	-0.341	-0.136
-161.779	-13.948	-0.353	0.228
-160.764	173.017	-0.143	-0.206
-159.750	-69.492	-0.038	0.015
-158.735	800.000	0.115	-0.354
-157.720	83.545	0.144	0.157
-156.706	-109.166	0.139	0.029
-155.691	-122.685	0.519	0.084
-154.677	-53.676	-0.345	-0.158
-153.662	-63.943	0.059	0.024
-152.647	800.000	0.040	0.119
-151.633	-4.369	0.095	-0.065
-150.618	800.000	-0.172	0.505
-149.604	265.088	0.087	0.151
-148.589	454.386	0.063	0.141
-147.574	155.391	0.013	-0.018
-146.560	312.952	0.037	-0.070
-145.545	800.000	0.137	0.469
-144.531	93.150	-0.091	0.103
-143.516	749.182	-0.073	-0.196
-142.502	646.617	-0.027	0.069
-141.487	-8.241	0.204	0.138
-140.472	-200.000	0.009	-0.229
-139.458	-66.774	-0.179	0.071
-138.443	545.170	0.165	0.395
-137.429	-141.699	-0.113	0.011
-136.414	87.152	0.169	0.187
-135.399	34.638	-0.046	-0.040
-134.385	-200.000	0.014	0.124
-133.370	-200.000	0.004	-0.117
-132.356	-200.000	-0.085	-0.375
-131.341	142.118	-0.064	-0.085
-130.326	-200.000	0.011	0.331
-129.312	-23.828	-0.483	0.289
-128.297	-200.000	-0.003	-0.060
-127.283	-200.000	0.016	0.153
-126.268	153.950	0.119	0.162
-125.253	-12.475	-0.270	-0.176
-124.239	453.930	-0.064	0.141
-123.224	41.536	-0.362	-0.328
-122.210	-25.747	-0.093	-0.055
-121.195	-200.000	0.017	0.164
-120.180	-145.966	0.204	0.018
-119.166	386.634	0.158	-0.327
-118.151	608.942	0.061	0.152
-117.137	-200.000	0.010	0.134
-116.122	-200.000	0.002	-0.056
-115.107	800.000	-0.094	0.267
-114.093	240.862	-0.283	-0.471
-113.078	-200.000	0.017	0.086
-112.064	800.000	0.045	-0.189
-111.049	800.000	0.076	-0.215
-110.034	-179.311	0.125	0.003
-109.020	-69.750	-0.110	-0.042
-108.005	315.366	0.176	0.331
-106.991	179.029	0.153	-0.223
-105.976	-74.842	0.267	0.096
-104.962	424.784	0.083	-0.179
-103.947	-148.655	-0.434	0.035
-102.932	434.911	0.054	-0.118
-101.918	800.000	-0.092	0.283
-100.903	-173.084	-0.081	-0.002
-99.889	39.523	0.077	-0.069
-98.874	-177.439	-0.302	-0.007
-97.859	800.000	-0.066	-0.273
-96.845	98.228	-0.119	0.136
-95.830	-164.008	0.149	0.007
-94.816	-167.402	0.229	-0.009
-93.801	-50.890	-0.393	0.184
-92.786	-200.000	-0.011	0.230
-91.772	350.190	0.053	0.105
-90.757	24.862	0.156	0.129
-89.743	-84.236	0.433	0.137
-88.728	600.553	0.176	-0.435
-87.713	145.284	-0.100	0.134
-86.699	-151.615	0.301	0.022
-85.684	-200.000	-0.017	-0.265
-84.670	174.278	0.133	-0.192
-83.655	-88.533	-0.070	0.021
-82.640	-38.417	0.543	0.287
-81.626	-200.000	-0.025	0.218
-80.611	-177.218	-0.208	-0.005
-79.597	-31.051	0.060	0.034
-78.582	-60.192	-0.220	0.094
-77.567	58.443	-0.166	0.162
-76.553	424.140	-0.099	-0.211
-75.538	-200.000	-0.046	-0.458
-74.524	-37.433	-0.107	-0.057
-73.509	221.012	0.059	-0.094
-72.494	313.630	-0.026	0.048
-71.480	800.000	-0.072	-0.247
-70.465	80.687	0.121	0.130
-69.451	482.518	-0.068	-0.153
-68.436	-200.000	-0.057	-0.464
-67.422	800.000	0.080	0.310
-66.407	-66.592	-0.111	0.044
-65.392	108.676	-0.087	0.104
-64.378	252.192	-0.129	0.219
-63.363	64.872	0.225	0.226
-62.349	685.507	0.050	-0.131
-61.334	8.194	-0.899	-0.673
-60.319	19.997	0.361	0.290
-59.305	394.059	-0.318	-0.659
-58.290	114.939	0.783	0.952
-57.276	-200.000	0.187	1.656
-56.261	-200.000	77.022	534.717
-55.246	563.119	1287.658	3105.912
-54.232	153.214	2503.263	3412.926
-53.217	119.196	2211.881	2726.097
-52.203	53.691	1670.009	1597.337
-51.188	45.758	1397.596	1287.179
-50.173	42.012	1352.653	1222.910
-49.159	60.614	1388.214	1370.122
-48.144	67.647	1406.328	1431.184
-47.130	46.200	1369.430	1263.757
-46.115	42.126	1352.950	1223.684
-45.100	41.784	1348.133	1217.195
-44.086	41.768	1345.826	1214.965
-43.071	41.729	1343.499	1212.580
-42.057	41.562	1341.368	1209.600
-41.042	41.727	1339.187	1208.580
-40.027	41.796	1338.161	1208.024
-39.013	41.810	1336.453	1206.521
-37.998	41.806	1334.311	1204.514
-36.984	41.922	1332.847	1203.844
-35.969	41.981	1330.892	1202.386
-34.954	42.017	1329.253	1201.070
-33.940	41.973	1327.772	1199.424
-32.925	42.072	1326.148	1198.497
-31.911	41.995	1324.956	1196.913
-30.896	41.937	1323.742	1195.423
-29.881	41.932	1322.622	1194.334
-28.867	41.991	1320.741	1192.939
-27.852	41.976	1319.372	1191.569
-26.838	41.981	1317.766	1190.099
-25.823	41.949	1316.346	1188.579
-24.809	41.890	1315.263	1187.204
-23.794	42.012	1313.844	1186.600
-22.779	41.933	1312.668	1185.021
-21.765	42.006	1310.718	1183.646
-20.750	41.981	1309.579	1182.423
-19.736	41.966	1308.000	1180.860
-18.721	41.798	1307.082	1178.995
-17.706	41.761	1306.327	1178.052
-16.692	41.844	1304.869	1177.177
-15.677	41.818	1303.834	1176.044
-14.663	41.884	1302.352	1175.047
-13.648	41.822	1301.728	1174.073
-12.633	41.755	1300.286	1172.335
-11.619	41.824	1299.497	1171.979
-10.604	41.922	1298.415	1171.535
-9.590	41.787	1297.763	1170.108
-8.575	41.808	1296.689	1169.213
-7.560	41.831	1295.388	1168.132
-6.546	41.842	1294.700	1167.526
-5.531	41.704	1294.243	1166.265
-4.517	41.874	1293.100	1166.182
-3.502	41.887	1292.338	1165.522
-2.487	41.830	1291.162	1164.085
-1.473	41.763	1286.838	1159.747
-0.458	39.227	1269.235	1129.303
0.556	31.202	1245.598	1069.460
1.571	25.109	1246.024	1034.688
2.586	23.185	1260.314	1035.220
3.600	21.914	1249.684	1019.020
4.615	17.521	1179.592	937.643
5.629	10.820	1104.146	842.945
6.644	7.268	1082.528	808.276
7.659	7.092	1079.701	805.199
8.673	6.941	1078.501	803.465
9.688	6.871	1077.230	802.091
10.702	7.323	1075.479	803.009
11.717	11.146	1080.788	826.326
12.731	16.381	1088.626	858.931
13.746	18.245	1089.654	869.141
14.761	17.224	1088.578	863.025
15.775	16.306	1085.758	856.060
16.790	15.192	1083.881	848.862
17.804	14.458	1082.123	843.698
18.819	14.025	1081.091	840.628
19.834	13.851	1079.750	838.634
20.848	13.526	1079.227	836.511
21.863	13.313	1078.094	834.483
22.877	13.347	1077.285	833.958
23.892	13.175	1077.027	832.813
24.907	13.098	1076.155	831.677
25.921	13.249	1075.082	831.538
26.936	13.175	1074.184	830.395
27.950	13.298	1072.645	829.750
28.965	13.243	1071.023	828.146
29.980	13.432	1069.193	827.605
30.994	13.533	1067.923	827.051
32.009	13.581	1067.076	826.564
33.023	13.423	1066.496	825.254
34.038	13.288	1065.112	823.436
35.053	13.330	1064.198	822.864
36.067	13.380	1063.195	822.267
37.082	13.297	1062.659	821.366
38.096	13.358	1061.942	821.042
39.111	13.407	1061.016	820.495
40.126	13.344	1059.808	819.177
41.140	13.201	1058.611	817.475
42.155	13.045	1057.490	815.763
43.169	13.070	1055.793	814.504
44.184	13.036	1055.067	813.707
45.199	13.082	1054.301	813.269
46.213	13.204	1053.384	813.089
47.228	13.204	1052.585	812.403
48.242	13.325	1051.208	811.861
49.257	13.338	1050.094	810.995
50.271	13.274	1049.399	810.071
51.286	13.354	1048.278	809.525
52.301	13.332	1047.315	808.601
53.315	13.235	1046.201	807.200
54.330	13.230	1045.608	806.646
55.344	13.135	1044.120	804.962
56.359	13.158	1043.528	804.545
57.374	13.266	1042.128	803.922
58.388	12.963	1042.067	802.330
59.403	13.128	1041.166	802.365
60.417	13.156	1040.060	801.580
61.432	13.133	1039.286	800.798
62.447	13.038	1038.326	799.528
63.461	13.058	1037.705	799.079
64.476	13.043	1036.965	798.362
65.490	12.936	1036.215	797.200
66.505	12.921	1035.527	796.525
67.520	13.091	1034.273	796.313
68.534	13.117	1033.578	795.833
69.549	13.022	1032.938	794.812
70.563	12.954	1032.322	793.942
71.578	12.922	1031.135	792.801
72.593	13.050	1030.721	793.030
73.607	12.941	1030.062	791.929
74.622	12.921	1029.151	791.060
75.636	12.877	1028.543	790.315
76.651	12.885	1027.783	789.700
77.666	12.953	1027.100	789.428
78.680	12.968	1026.384	788.881
79.695	12.941	1025.950	788.347
80.709	13.059	1025.347	788.378
81.724	13.148	1024.332	787.953
82.739	13.206	1023.412	787.451
83.753	13.296	1022.795	787.336
84.768	13.477	1022.140	787.625
85.782	13.359	1021.582	786.563
86.797	13.349	1020.339	785.487
87.812	13.267	1019.530	784.408
88.826	13.279	1018.056	783.258
89.841	13.420	1016.940	783.000
90.855	13.368	1016.629	782.444
91.870	13.380	1015.912	781.879
92.884	13.391	1014.977	781.143
93.899	13.380	1013.913	780.202
94.914	13.459	1013.015	779.817
95.928	13.334	1012.663	778.886
96.943	13.342	1011.434	777.912
97.957	13.479	1010.087	777.449
98.972	13.537	1009.537	777.228
99.987	13.355	1008.788	775.729
101.001	13.352	1008.075	775.102
102.016	13.318	1007.211	774.209
103.030	13.460	1006.203	774.027
104.045	13.370	1005.189	772.758
105.060	13.366	1004.288	771.979
106.074	13.230	1003.776	770.885
107.089	13.228	1002.546	769.861
108.103	13.213	1001.756	769.119
109.118	13.091	1001.088	767.969
110.133	13.142	999.392	766.838
111.147	13.192	999.054	766.744
112.162	13.197	998.254	766.082
113.176	13.216	996.959	765.111
114.191	13.273	996.782	765.168
115.206	13.151	995.962	763.908
116.220	13.261	995.053	763.652
117.235	13.222	994.222	762.766
118.249	13.233	993.167	761.940
119.264	13.248	991.908	760.978
120.279	13.182	991.826	760.542
121.293	13.297	990.627	760.082
122.308	13.128	989.890	758.674
123.322	13.084	989.146	757.834
124.337	13.214	987.874	757.390
125.352	13.130	986.998	756.265
126.366	13.112	985.851	755.240
127.381	13.164	984.855	754.646
128.395	13.209	984.048	754.166
129.410	13.130	983.045	752.972
130.424	13.222	982.281	752.738
131.439	13.165	981.842	752.076
132.454	13.263	980.694	751.574
133.468	13.307	980.330	751.430
134.483	13.366	979.136	750.718
135.497	13.466	978.243	750.416
136.512	13.398	977.300	749.320
137.527	13.404	976.122	748.378
138.541	13.397	975.992	748.178
139.556	13.478	975.212	747.883
140.570	13.530	974.611	747.589
141.585	13.583	973.800	747.143
142.600	13.667	972.524	746.472
143.614	13.535	972.198	745.562
144.629	13.687	970.899	745.184
145.643	13.573	970.087	743.985
146.658	13.538	969.311	743.166
147.673	13.458	968.384	742.029
148.687	13.423	967.446	741.090
149.702	13.327	966.542	739.901
150.716	13.245	966.384	739.347
151.731	13.388	965.186	739.007
152.746	13.298	964.852	738.280
153.760	13.396	963.955	737.968
154.775	13.477	963.482	737.901
155.789	13.585	962.420	737.503
156.804	13.515	962.151	736.922
157.819	13.466	961.641	736.250
158.833	13.506	960.948	735.829
159.848	13.639	959.643	735.353
160.862	13.616	958.919	734.635
161.877	13.575	957.500	733.299
162.892	13.516	956.630	732.309
163.906	13.545	955.750	731.697
164.921	13.483	954.660	730.524
165.935	13.560	954.033	730.321
166.950	13.573	952.952	729.484
167.964	13.462	952.247	728.390
168.979	13.427	951.564	727.653
169.994	13.494	950.709	727.225
171.008	13.550	950.246	727.054
172.023	13.518	949.655	726.396
173.037	13.780	948.507	726.603
174.052	13.678	947.723	725.492
175.067	13.594	946.908	724.434
176.081	13.470	946.883	723.810
177.096	13.506	946.189	723.375
178.110	13.565	944.987	722.649
179.125	13.648	944.413	722.506
180.140	13.596	944.414	722.217
181.154	13.662	943.718	721.909
182.169	13.742	943.337	721.900
183.183	13.692	942.833	721.236
184.198	13.747	941.959	720.740
185.213	13.677	941.410	719.955
186.227	13.905	940.518	720.199
187.242	13.960	939.587	719.656
188.256	13.954	938.941	719.073
189.271	13.764	938.461	717.822
190.286	13.811	937.425	717.169
191.300	13.641	936.823	715.909
192.315	13.635	935.729	714.985
193.329	13.606	935.419	714.561
194.344	13.564	935.193	714.144
195.359	13.585	934.351	713.527
196.373	13.858	933.416	713.923
197.388	14.024	933.531	714.663
198.402	14.043	932.910	714.206
199.417	13.977	932.172	713.295
200.432	13.838	931.878	712.409
201.446	13.964	931.330	712.468
202.461	14.165	930.753	712.822
203.475	14.156	930.224	712.319
204.490	13.997	929.492	711.015
205.504	14.025	928.736	710.491
206.519	14.054	927.732	709.786
207.534	14.012	927.072	709.040
208.548	14.131	926.195	708.814
209.563	14.066	925.648	708.053
210.577	14.165	924.843	707.795
211.592	14.274	924.378	707.842
212.607	14.251	923.598	707.084
213.621	14.154	922.950	706.111
214.636	14.266	921.893	705.718
215.650	14.191	921.543	705.070
216.665	14.169	921.096	704.574
217.680	14.321	920.290	704.537
218.694	14.244	919.644	703.653
219.709	14.348	918.695	703.305
220.723	14.352	918.192	702.872
221.738	14.241	917.475	701.794
222.753	14.332	916.858	701.645
223.767	14.343	916.541	701.385
224.782	14.429	915.984	701.257
225.796	14.391	915.441	700.622
226.811	14.378	914.594	699.857
227.826	14.270	914.022	698.903
228.840	14.376	912.953	698.469
229.855	14.388	912.081	697.791
230.869	14.365	911.775	697.400
231.884	14.279	911.193	696.534
232.899	14.380	910.322	696.228
233.913	14.334	909.399	695.266
234.928	14.412	908.862	695.122
235.942	14.293	908.182	694.042
236.957	14.432	907.251	693.850
237.972	14.379	907.009	693.380
238.986	14.446	906.429	693.154
240.001	14.312	905.982	692.196
241.015	14.465	904.881	691.926
242.030	14.471	904.504	691.601
243.045	14.463	903.890	691.039
244.059	14.500	903.377	690.739
245.074	14.574	902.500	690.314
246.088	14.550	902.005	689.772
247.103	14.585	901.329	689.343
248.117	14.541	901.180	688.983
249.132	14.845	900.623	689.751
250.147	14.962	899.592	689.383
251.161	14.953	898.820	688.694
252.176	14.830	898.314	687.742
253.190	14.869	897.848	687.481
254.205	14.961	897.118	687.242
255.220	14.916	896.638	686.627
256.234	14.889	895.693	685.733
257.249	15.036	895.159	685.864
258.263	14.780	895.058	684.679
259.278	14.971	893.810	684.445
260.293	15.000	893.309	684.121
261.307	14.971	892.678	683.455
262.322	15.060	891.994	683.235
263.336	15.138	891.086	682.799
264.351	15.120	890.323	682.080
265.366	15.092	890.121	681.749
266.380	15.210	889.062	681.359
267.395	15.045	888.897	680.501
268.409	15.080	887.502	679.514
269.424	15.037	887.285	679.114
270.439	15.118	886.472	678.761
271.453	15.147	885.667	678.202
272.468	15.209	885.241	678.064
273.482	15.023	884.890	676.983
274.497	15.076	884.125	676.553
275.512	15.161	883.115	676.063
276.526	15.030	883.194	675.537
277.541	15.151	883.063	675.864
278.555	15.332	882.011	675.727
279.570	15.239	881.521	674.919
280.585	15.470	880.126	674.720
281.599	15.316	879.862	673.837
282.614	15.279	879.044	673.003
283.628	15.222	878.312	672.157
284.643	15.248	878.054	672.003
285.657	15.318	877.327	671.669
286.672	15.299	876.526	670.920
287.687	15.311	875.628	670.221
288.701	15.318	875.558	670.137
289.716	15.439	874.657	669.869
290.730	15.373	874.292	669.266
291.745	15.516	873.531	669.196
292.760	15.377	873.373	668.461
293.774	15.535	872.500	668.362
294.789	15.410	871.951	667.386
295.803	15.541	870.821	666.981
296.818	15.536	870.163	666.399
297.833	15.530	869.617	665.899
298.847	15.417	869.313	665.158
299.862	15.392	868.636	664.481
300.876	15.632	868.122	664.982
301.891	15.642	867.313	664.344
302.906	15.761	867.031	664.538
303.920	15.703	866.505	663.846
304.935	15.781	865.884	663.619
305.949	15.623	865.426	662.585
306.964	15.620	865.002	662.191
307.979	15.709	864.214	661.881
308.993	15.811	863.428	661.621
310.008	15.814	862.962	661.218
311.022	15.824	861.910	660.390
312.037	15.689	861.815	659.731
313.052	15.539	861.202	658.616
314.066	15.631	860.592	658.452
315.081	15.748	859.884	658.308
316.095	15.616	859.421	657.379
317.110	15.787	858.879	657.576
318.125	15.758	858.400	657.036
319.139	15.629	858.055	656.210
320.154	15.763	857.509	656.259
321.168	15.567	857.152	655.161
322.183	15.755	856.308	655.192
323.197	15.797	855.624	654.774
324.212	15.703	855.668	654.385
325.227	15.801	854.726	653.985
326.241	15.789	854.187	653.469
327.256	15.741	853.236	652.497
328.270	15.813	853.002	652.539
329.285	15.803	852.335	651.934
330.300	15.911	851.742	651.841
331.314	15.881	850.813	650.958
332.329	15.940	850.569	650.940
333.343	15.957	850.438	650.849
334.358	15.927	849.800	650.185
335.373	15.859	849.839	649.895
336.387	16.005	849.378	650.050
337.402	16.057	849.152	650.019
338.416	16.062	848.738	649.665
339.431	15.997	848.547	649.211
340.446	16.183	847.782	649.283
341.460	16.149	847.544	648.914
342.475	16.239	847.057	648.830
343.489	16.242	846.786	648.574
344.504	16.320	845.980	648.201
345.519	16.457	845.156	648.034
346.533	16.371	844.792	647.370
347.548	16.281	844.341	646.623
348.562	16.167	844.083	645.931
349.577	16.226	843.506	645.660
350.592	16.002	842.947	644.315
351.606	16.088	842.001	643.866
352.621	16.162	841.124	643.421
353.635	16.195	840.658	643.131
354.650	16.249	840.106	642.858
355.665	16.224	839.798	642.470
356.679	16.314	838.595	641.834
357.694	16.124	838.368	640.884
358.708	16.427	837.313	641.168
359.723	16.418	836.866	640.737
360.738	16.272	836.456	639.811
361.752	16.417	835.820	639.819
362.767	16.692	835.015	640.185
363.781	16.604	834.678	639.537
364.796	16.590	834.511	639.302
365.810	16.697	833.799	639.102
366.825	16.564	833.857	638.589
367.840	16.638	833.117	638.244
368.854	16.614	832.845	637.889
369.869	16.633	831.850	637.140
370.883	16.728	831.370	637.077
371.898	16.584	831.574	636.634
372.913	16.519	831.394	636.193
373.927	16.619	830.788	636.052
374.942	16.648	830.220	635.668
375.956	16.735	829.593	635.460
376.971	16.902	829.285	635.792
377.986	16.991	828.528	635.489
379.000	16.978	827.693	634.746
380.015	16.975	827.761	634.729
381.029	17.061	826.795	634.255
382.044	16.886	826.186	633.078
383.059	17.094	825.573	633.325
384.073	16.935	825.521	632.639
385.088	16.950	824.359	631.747
386.102	16.940	823.931	631.327
387.117	17.020	823.267	631.061
388.132	16.829	822.776	629.918
389.146	16.987	822.223	630.026
390.161	16.922	822.193	629.706
391.175	17.033	821.372	629.434
392.190	17.058	820.688	628.946
393.205	16.954	820.218	628.144
394.219	16.797	820.423	627.663
395.234	16.898	819.923	627.599
396.248	16.740	819.363	626.532
397.263	16.734	819.139	626.282
398.278	16.718	818.708	625.838
399.292	16.849	818.159	625.847
400.307	16.901	817.260	625.294
401.321	17.017	816.752	625.279
402.336	16.984	816.307	624.761
403.350	16.971	816.108	624.505
404.365	16.972	815.762	624.189
405.380	17.138	815.264	624.362
406.394	17.017	814.821	623.524
407.409	17.079	814.298	623.298
408.423	17.173	814.026	623.380
409.438	17.314	813.395	623.357
410.453	17.203	813.253	622.786
411.467	17.259	813.027	622.763
412.482	17.206	812.704	622.265
413.496	17.406	812.065	622.453
414.511	17.334	811.631	621.802
415.526	17.403	811.079	621.577
416.540	17.214	810.971	620.747
417.555	17.465	809.935	620.818
418.569	17.470	809.518	620.460
419.584	17.406	809.200	619.930
420.599	17.432	809.005	619.820
421.613	90.468	1264.283	1364.845
422.628	77.373	1330.634	1364.951
