DTS Sentinel unit serial number:	SN413079Multiplexer serial number:	ORYXHardware model number:	OX4-SRSoftware version number:	ORYX F/W v4.00 Oryx Data Collector v3.7.2.0data status	okinstallation	princeton_trtdifferential loss correction	single-endedforward channel	channel 1reverse channel	N/Adate	2019/09/12time	11:12:11forward acquisition time	60.00reverse acquisition time	0.00gamma	496.2192k internal	0.2296k external	0.2296temperature offset calibration	1.0046default loss term (dB/km)	0.3790temperature slope calibration	1.0000multiplexer offset coefficient	1.0000multiplexer slope coefficient	1.0000fibre end	0.00T internal ref (°C)	38.81T ext. ref 1 (°C)	1.93T ext. ref 2 (°C)	36.08length (m)	temperature (°C)	Stokes	anti-Stokes-747.200	14.577	0.239	0.190
-746.185	-12.196	0.050	-0.033
-745.171	72.189	0.149	0.159
-744.156	-34.895	-0.260	-0.145
-743.142	136.700	0.221	0.295
-742.127	-23.283	0.255	0.156
-741.112	-185.900	-0.111	0.002
-740.098	-56.458	-0.175	-0.079
-739.083	204.239	0.080	0.126
-738.069	450.380	0.160	0.360
-737.054	149.939	-0.133	-0.184
-736.039	85.851	0.124	-0.139
-735.025	70.522	-0.068	0.072
-734.010	63.758	-0.147	-0.151
-732.996	-70.983	-0.365	-0.140
-731.981	-58.484	0.277	-0.123
-730.966	-142.463	-0.251	-0.025
-729.952	-200.000	0.001	-0.018
-728.937	-69.059	0.146	-0.057
-727.923	-146.891	-0.128	-0.011
-726.908	800.000	-0.043	-0.123
-725.894	37.715	0.194	-0.176
-724.879	800.000	-0.018	0.053
-723.864	-123.259	-0.207	0.034
-722.850	-176.009	-0.260	0.007
-721.835	183.840	0.169	0.256
-720.821	-84.146	-0.113	-0.036
-719.806	800.000	0.074	0.234
-718.791	695.930	-0.079	-0.211
-717.777	42.152	0.134	0.125
-716.762	-175.969	0.582	0.016
-715.748	396.237	-0.075	0.159
-714.733	-59.566	-0.190	0.083
-713.718	50.604	-0.039	0.038
-712.704	-2.988	-0.140	0.100
-711.689	166.795	-0.136	-0.197
-710.675	-27.060	0.131	0.078
-709.660	111.148	-0.208	0.256
-708.645	-55.144	-0.154	0.071
-707.631	-200.000	0.008	0.100
-706.616	-145.852	0.214	-0.019
-705.602	299.850	0.134	-0.253
-704.587	-180.235	0.328	0.007
-703.572	-200.000	-0.022	0.286
-702.558	736.041	0.113	-0.309
-701.543	-107.916	0.082	-0.018
-700.529	192.313	-0.140	-0.216
-699.514	542.704	-0.114	-0.278
-698.499	-153.008	0.222	0.016
-697.485	16.547	0.186	-0.150
-696.470	61.200	-0.090	0.091
-695.456	643.506	0.139	0.361
-694.441	717.378	0.092	-0.250
-693.426	94.204	0.164	-0.190
-692.412	-71.929	-0.199	-0.076
-691.397	795.398	0.014	0.039
-690.383	169.601	0.021	0.031
-689.368	-78.893	-0.106	0.037
-688.354	100.325	-0.080	0.095
-687.339	275.252	0.032	-0.057
-686.324	800.000	0.101	0.366
-685.310	-94.293	0.292	0.081
-684.295	-147.245	0.192	0.017
-683.281	-200.000	0.046	0.223
-682.266	800.000	-0.087	-0.283
-681.251	-125.567	-0.052	-0.008
-680.237	-110.475	-0.176	-0.037
-679.222	427.689	0.131	-0.289
-678.208	800.000	0.097	0.310
-677.193	115.716	-0.203	0.254
-676.178	184.378	-0.011	-0.016
-675.164	-176.800	0.028	0.001
-674.149	349.660	-0.009	0.017
-673.135	64.789	-0.235	0.242
-672.120	-200.000	-0.011	0.189
-671.105	271.630	-0.078	-0.140
-670.091	529.591	-0.022	-0.052
-669.076	98.174	0.082	-0.096
-668.062	-200.000	-0.007	0.150
-667.047	-200.000	0.032	-0.242
-666.032	-157.313	0.103	-0.006
-665.018	-46.140	0.226	-0.113
-664.003	100.066	-0.245	-0.289
-662.989	208.644	0.178	-0.283
-661.974	-200.000	-0.013	0.156
-660.959	-7.157	0.187	-0.129
-659.945	-200.000	0.011	0.060
-658.930	-115.855	-0.375	-0.071
-657.916	365.246	-0.080	0.165
-656.901	-85.791	0.189	0.060
-655.886	12.241	-0.162	-0.127
-654.872	371.653	0.193	-0.399
-653.857	65.464	0.076	0.078
-652.843	-107.434	-0.354	-0.079
-651.828	-163.113	0.162	-0.008
-650.814	-118.955	-0.379	0.068
-649.799	-200.000	0.020	-0.278
-648.784	9.625	0.316	-0.244
-647.770	-112.031	-0.070	-0.014
-646.755	-125.789	-0.236	-0.036
-645.741	7.995	-0.064	0.049
-644.726	-200.000	0.015	-0.132
-643.711	-48.675	0.230	0.112
-642.697	100.401	0.215	-0.254
-641.682	18.145	0.160	-0.130
-640.668	138.318	-0.072	0.096
-639.653	293.369	0.033	0.062
-638.638	-84.592	-0.155	-0.050
-637.624	270.237	0.076	0.136
-636.609	800.000	0.083	0.293
-635.595	169.258	0.180	0.262
-634.580	4.405	0.142	0.106
-633.565	-200.000	-0.001	-0.034
-632.551	-76.976	0.108	0.038
-631.536	171.021	0.045	-0.065
-630.522	-200.000	-0.044	0.503
-629.507	-101.444	-0.029	-0.007
-628.492	572.708	0.122	-0.302
-627.478	-66.975	-0.174	-0.070
-626.463	170.273	0.260	-0.378
-625.449	543.408	0.172	-0.418
-624.434	-200.000	-0.058	0.359
-623.419	-200.000	0.021	-0.301
-622.405	-200.000	-0.042	-0.350
-621.390	-93.676	0.156	-0.044
-620.376	-3.819	-0.075	0.053
-619.361	357.979	-0.045	-0.091
-618.346	-200.000	-0.016	0.214
-617.332	-187.442	-0.214	-0.003
-616.317	216.010	-0.144	0.232
-615.303	264.265	0.095	0.169
-614.288	-200.000	-0.006	0.167
-613.273	504.436	0.050	0.117
-612.259	-120.305	-0.194	-0.034
-611.244	214.104	-0.159	-0.256
-610.230	800.000	0.071	0.223
-609.215	-127.431	-0.094	-0.014
-608.201	-40.361	-0.255	0.135
-607.186	-200.000	-0.028	0.208
-606.171	467.860	-0.118	0.268
-605.157	157.112	-0.086	-0.121
-604.142	147.615	0.121	-0.166
-603.128	-99.961	0.089	-0.023
-602.113	-78.195	-0.176	-0.062
-601.098	451.736	-0.062	-0.138
-600.084	-67.750	-0.183	-0.073
-599.069	-128.572	0.181	-0.026
-598.055	17.352	0.205	0.166
-597.040	-61.542	0.134	-0.057
-596.025	-38.163	-0.241	-0.130
-595.011	-122.151	-0.182	-0.030
-593.996	-164.867	0.228	-0.010
-592.982	-31.378	0.146	-0.083
-591.967	-200.000	0.012	0.172
-590.952	351.168	-0.114	-0.230
-589.938	-94.374	0.233	0.065
-588.923	-16.620	0.332	0.214
-587.909	-95.193	-0.134	0.037
-586.894	441.813	0.165	0.367
-585.879	328.523	-0.118	0.230
-584.865	100.222	0.069	-0.081
-583.850	15.007	0.141	-0.112
-582.836	-200.000	0.010	-0.145
-581.821	800.000	-0.095	-0.333
-580.806	-20.439	0.283	0.177
-579.792	-200.000	0.032	0.293
-578.777	-151.413	0.100	-0.008
-577.763	-49.472	-0.134	0.065
-576.748	-200.000	0.000	0.092
-575.733	-66.402	-0.094	-0.038
-574.719	800.000	-0.008	0.031
-573.704	549.724	0.030	-0.073
-572.690	-70.600	0.219	0.084
-571.675	22.365	-0.356	-0.295
-570.661	-200.000	0.061	0.314
-569.646	-39.742	0.116	-0.062
-568.631	-2.087	-0.223	0.159
-567.617	330.094	0.093	0.181
-566.602	54.790	-0.043	0.042
-565.588	800.000	-0.052	-0.183
-564.573	-22.126	-0.279	-0.172
-563.558	800.000	0.090	-0.378
-562.544	138.379	0.151	0.201
-561.529	43.796	0.151	-0.140
-560.515	-46.016	0.204	-0.102
-559.500	-176.777	-0.132	0.003
-558.485	-26.042	-0.265	-0.158
-557.471	-97.594	0.160	-0.042
-556.456	-63.769	0.065	-0.027
-555.442	-200.000	-0.031	0.353
-554.427	800.000	-0.082	-0.268
-553.412	226.410	-0.195	-0.320
-552.398	-200.000	0.003	0.316
-551.383	241.219	0.198	0.335
-550.369	268.658	0.178	0.317
-549.354	455.525	0.077	-0.173
-548.339	-200.000	0.093	0.423
-547.325	800.000	0.067	0.211
-546.310	39.190	-0.164	-0.149
-545.296	-24.231	0.176	-0.107
-544.281	7.898	-0.105	-0.080
-543.266	26.228	0.091	0.077
-542.252	-200.000	-0.057	0.314
-541.237	214.630	0.175	0.280
-540.223	-101.300	-0.147	0.036
-539.208	-200.000	0.003	0.083
-538.193	-129.434	-0.369	0.052
-537.179	-200.000	-0.030	-0.207
-536.164	-200.000	0.017	-0.337
-535.150	-10.192	-0.117	0.079
-534.135	106.091	0.081	0.097
-533.121	-200.000	-0.048	-0.356
-532.106	470.760	-0.082	-0.188
-531.091	-118.286	-0.412	-0.074
-530.077	-58.585	0.068	-0.030
-529.062	245.717	0.080	-0.136
-528.048	-200.000	-0.020	0.120
-527.033	-200.000	0.013	-0.091
-526.018	-92.955	-0.180	0.051
-525.004	800.000	0.073	-0.247
-523.989	-200.000	0.042	-0.282
-522.975	-16.925	-0.091	-0.058
-521.960	800.000	-0.112	0.430
-520.945	-103.495	0.309	-0.074
-519.931	368.354	0.025	0.050
-518.916	800.000	-0.106	0.304
-517.902	-25.475	-0.285	-0.171
-516.887	-148.820	0.043	-0.004
-515.872	295.608	0.186	-0.345
-514.858	-156.855	0.160	0.010
-513.843	-200.000	0.006	-0.153
-512.829	-108.983	-0.109	0.024
-511.814	-150.243	-0.152	0.012
-510.799	-200.000	0.029	-0.170
-509.785	111.579	-0.014	-0.017
-508.770	-200.000	0.010	-0.196
-507.756	-157.020	0.119	-0.007
-506.741	800.000	-0.100	-0.366
-505.726	-75.642	-0.052	0.019
-504.712	-90.401	-0.027	-0.008
-503.697	-4.379	0.193	0.135
-502.683	-159.525	-0.211	0.012
-501.668	16.224	0.132	0.105
-500.653	800.000	-0.046	0.150
-499.639	-147.628	-0.196	-0.017
-498.624	-25.746	0.150	0.090
-497.610	226.467	-0.049	-0.080
-496.595	-154.340	0.284	-0.019
-495.581	800.000	0.095	0.383
-494.566	-158.010	-0.371	-0.022
-493.551	554.904	-0.098	-0.238
-492.537	557.859	0.116	0.283
-491.522	-119.144	0.052	0.009
-490.508	11.278	0.160	-0.124
-489.493	-200.000	0.033	-0.153
-488.478	107.544	0.126	-0.152
-487.464	353.197	-0.239	-0.480
-486.449	-22.457	-0.046	-0.028
-485.435	11.071	0.154	-0.119
-484.420	800.000	0.057	0.204
-483.405	92.971	-0.221	0.253
-482.391	-200.000	-0.024	-0.225
-481.376	-195.158	-0.401	-0.003
-480.362	7.106	-0.192	-0.145
-479.347	-50.042	-0.068	-0.033
-478.332	313.424	-0.189	-0.359
-477.318	-178.430	0.166	0.004
-476.303	800.000	-0.065	-0.197
-475.289	41.914	-0.129	-0.118
-474.274	9.059	0.252	-0.192
-473.259	-95.578	0.097	-0.026
-472.245	-155.397	-0.304	0.020
-471.230	-103.542	0.141	0.034
-470.216	163.837	-0.033	0.047
-469.201	417.532	0.110	0.237
-468.186	-37.474	0.120	0.065
-467.172	-37.173	-0.216	-0.117
-466.157	299.761	-0.183	-0.341
-465.143	-39.818	-0.148	-0.078
-464.128	-22.149	0.299	0.183
-463.113	-96.867	-0.318	-0.084
-462.099	-200.000	-0.018	-0.174
-461.084	160.617	-0.403	0.568
-460.070	135.925	-0.071	0.094
-459.055	-86.108	-0.281	-0.088
-458.040	136.927	-0.084	-0.111
-457.026	543.300	0.083	0.199
-456.011	-132.536	-0.151	0.020
-454.997	-200.000	0.015	-0.306
-453.982	-200.000	0.033	-0.358
-452.968	800.000	0.105	-0.299
-451.953	17.696	-0.188	-0.151
-450.938	140.754	-0.154	-0.206
-449.924	442.036	-0.142	0.315
-448.909	24.057	-0.214	-0.178
-447.895	-74.885	-0.284	-0.103
-446.880	119.825	0.212	0.266
-445.865	45.744	0.141	-0.132
-444.851	800.000	-0.083	0.279
-443.836	21.984	0.254	-0.209
-442.822	7.011	0.134	-0.101
-441.807	361.438	0.115	0.232
-440.792	-200.000	-0.034	0.184
-439.778	800.000	-0.081	-0.252
-438.763	-200.000	0.014	-0.220
-437.749	800.000	-0.056	0.239
-436.734	-94.380	0.428	0.118
-435.719	254.168	0.123	-0.212
-434.705	-200.000	0.017	-0.200
-433.690	664.582	-0.130	0.339
-432.676	387.494	-0.048	-0.100
-431.661	588.604	0.057	-0.141
-430.646	35.140	0.146	0.129
-429.632	-7.180	0.327	0.224
-428.617	-73.920	-0.089	0.033
-427.603	338.002	-0.090	0.177
-426.588	-200.000	0.004	0.125
-425.573	800.000	-0.026	0.104
-424.559	19.111	0.130	0.105
-423.544	-25.506	-0.125	-0.075
-422.530	-200.000	-0.018	-0.206
-421.515	-15.396	-0.191	-0.123
-420.500	-88.638	-0.341	0.102
-419.486	-200.000	0.023	-0.188
-418.471	54.807	0.075	0.073
-417.457	-65.303	0.294	0.119
-416.442	411.187	0.055	0.117
-415.428	318.449	-0.018	0.035
-414.413	-42.017	-0.112	-0.058
-413.398	-200.000	-0.027	0.365
-412.384	-200.000	0.040	0.205
-411.369	-157.075	-0.096	0.006
-410.355	113.195	-0.011	0.014
-409.340	171.649	0.154	0.223
-408.325	-143.609	-0.389	0.037
-407.311	-26.228	0.304	0.180
-406.296	-118.886	-0.129	0.023
-405.282	-25.972	0.198	0.118
-404.267	-93.217	0.129	-0.036
-403.252	101.462	-0.327	-0.384
-402.238	800.000	-0.057	-0.240
-401.223	-178.948	0.241	0.005
-400.209	-70.852	0.062	-0.023
-399.194	-200.000	-0.007	-0.122
-398.179	800.000	0.018	-0.063
-397.165	-72.809	-0.158	0.059
-396.150	800.000	0.098	0.313
-395.136	-200.000	-0.019	0.275
-394.121	800.000	0.143	-0.450
-393.106	-54.075	0.247	0.113
-392.092	-6.510	-0.292	-0.201
-391.077	106.009	0.118	0.140
-390.063	-102.028	-0.138	0.034
-389.048	-11.579	0.245	-0.163
-388.033	-44.505	0.284	-0.143
-387.019	800.000	-0.102	0.399
-386.004	-200.000	-0.044	0.196
-384.990	56.066	-0.109	0.106
-383.975	-114.715	0.133	0.026
-382.960	56.974	-0.224	0.220
-381.946	113.329	0.185	-0.226
-380.931	22.751	0.282	-0.233
-379.917	-68.719	0.070	-0.027
-378.902	148.636	-0.156	0.212
-377.888	-87.862	-0.150	0.045
-376.873	-89.141	-0.305	-0.091
-375.858	418.670	-0.090	-0.195
-374.844	-157.963	0.200	-0.012
-373.829	-64.926	0.341	-0.139
-372.815	-134.352	0.091	-0.011
-371.800	13.159	-0.090	-0.070
-370.785	8.484	-0.172	-0.130
-369.771	-137.512	0.240	-0.027
-368.756	-23.379	-0.167	-0.101
-367.742	-200.000	0.030	-0.189
-366.727	-20.720	-0.055	-0.034
-365.712	283.311	-0.140	0.253
-364.698	92.413	0.129	0.147
-363.683	345.575	-0.112	0.221
-362.669	24.422	0.081	-0.068
-361.654	-8.476	0.137	-0.093
-360.639	-46.407	-0.294	-0.145
-359.625	-25.899	-0.189	-0.112
-358.610	-30.680	-0.235	-0.134
-357.596	102.196	-0.161	-0.189
-356.581	-85.629	-0.328	0.103
-355.566	-82.335	-0.045	-0.015
-354.552	62.241	0.101	0.101
-353.537	-49.586	-0.096	-0.046
-352.523	-200.000	0.016	-0.170
-351.508	418.207	0.071	0.152
-350.493	-200.000	-0.019	0.167
-349.479	-151.271	0.172	0.013
-348.464	-200.000	-0.021	-0.116
-347.450	800.000	0.131	0.569
-346.435	-73.145	-0.240	-0.088
-345.420	390.092	-0.143	-0.298
-344.406	23.601	0.245	0.203
-343.391	30.619	0.177	-0.152
-342.377	-200.000	0.228	-0.001
-341.362	-200.000	-0.020	0.174
-340.348	227.038	-0.046	0.076
-339.333	-105.051	0.102	-0.023
-338.318	273.274	0.046	0.082
-337.304	103.964	0.089	0.106
-336.289	-19.227	0.301	0.188
-335.275	60.188	-0.243	0.242
-334.260	-70.318	-0.342	-0.131
-333.245	-55.809	-0.307	-0.138
-332.231	-200.000	0.040	0.404
-331.216	-164.004	0.297	0.014
-330.202	417.252	-0.076	-0.162
-329.187	800.000	-0.088	0.311
-328.172	800.000	0.029	-0.095
-327.158	-164.389	0.298	0.014
-326.143	165.093	-0.056	-0.079
-325.129	28.771	0.280	-0.238
-324.114	-173.631	0.301	-0.009
-323.099	-77.885	0.306	0.106
-322.085	-161.691	0.280	0.014
-321.070	118.038	0.277	-0.343
-320.056	-54.728	0.374	0.170
-319.041	280.104	0.084	-0.151
-318.026	-200.000	-0.040	-0.214
-317.012	158.518	0.019	0.026
-315.997	800.000	0.126	-0.479
-314.983	-200.000	-0.020	-0.103
-313.968	94.506	-0.104	-0.118
-312.953	569.866	-0.065	0.158
-311.939	-84.268	-0.194	0.062
-310.924	158.152	0.041	0.057
-309.910	-107.861	0.307	0.067
-308.895	-106.810	0.034	-0.008
-307.880	641.352	-0.167	0.427
-306.866	800.000	-0.057	0.209
-305.851	95.662	0.014	-0.016
-304.837	502.276	-0.106	-0.246
-303.822	800.000	-0.065	0.277
-302.807	-200.000	0.019	0.275
-301.793	-200.000	-0.019	0.166
-300.778	-1.297	0.174	0.123
-299.764	-48.338	0.158	-0.077
-298.749	-200.000	0.029	0.200
-297.735	-42.837	-0.072	0.037
-296.720	564.148	-0.109	0.265
-295.705	-200.000	0.022	0.102
-294.691	82.991	0.146	-0.160
-293.676	198.126	0.171	0.263
-292.662	164.312	0.106	0.150
-291.647	-112.758	0.197	-0.039
-290.632	-84.598	0.220	-0.070
-289.618	-108.975	-0.107	0.023
-288.603	249.656	-0.102	-0.174
-287.589	-200.000	-0.003	-0.339
-286.574	600.270	0.124	-0.309
-285.559	-0.962	0.076	-0.054
-284.545	90.629	0.061	0.068
-283.530	12.207	0.223	0.173
-282.516	275.878	0.227	0.404
-281.501	800.000	-0.065	-0.216
-280.486	-119.523	0.211	-0.037
-279.472	-17.492	0.122	-0.077
-278.457	800.000	0.083	0.281
-277.443	-168.982	0.313	-0.012
-276.428	96.146	-0.250	-0.286
-275.413	128.834	-0.173	0.221
-274.399	-131.870	-0.177	0.023
-273.384	-200.000	-0.004	-0.059
-272.370	377.380	-0.038	0.077
-271.355	-58.009	-0.231	-0.101
-270.340	759.443	-0.161	0.438
-269.326	-164.650	-0.052	0.002
-268.311	-105.254	0.320	-0.073
-267.297	90.726	-0.318	-0.357
-266.282	195.051	-0.174	0.265
-265.267	-68.844	0.094	0.037
-264.253	-200.000	0.025	0.183
-263.238	-32.817	0.133	-0.074
-262.224	-48.620	0.153	0.074
-261.209	-99.493	-0.242	0.061
-260.195	361.396	-0.088	-0.177
-259.180	227.530	-0.127	-0.207
-258.165	-70.836	0.162	-0.061
-257.151	-91.369	-0.195	-0.056
-256.136	-91.722	-0.367	-0.105
-255.122	-182.294	-0.271	-0.005
-254.107	-182.608	0.214	0.004
-253.092	715.847	-0.064	-0.171
-252.078	125.887	0.210	-0.266
-251.063	-200.000	-0.030	-0.138
-250.049	-200.000	0.019	-0.193
-249.034	-148.788	0.227	0.018
-248.019	-200.000	-0.042	-0.206
-247.005	90.132	0.103	0.116
-245.990	-200.000	-0.052	0.350
-244.976	-200.000	-0.002	0.172
-243.961	-20.907	-0.278	0.171
-242.946	-89.880	0.143	-0.042
-241.932	6.012	0.190	-0.141
-240.917	-200.000	-0.021	0.166
-239.903	800.000	0.141	0.406
-238.888	84.722	0.017	0.018
-237.873	168.991	-0.139	0.199
-236.859	189.145	-0.213	-0.320
-235.844	94.440	-0.177	0.202
-234.830	85.879	-0.079	0.087
-233.815	-75.699	0.425	0.151
-232.800	800.000	0.072	0.212
-231.786	-4.009	0.291	0.202
-230.771	-28.073	0.288	0.167
-229.757	-56.404	0.268	-0.119
-228.742	409.200	0.157	0.334
-227.727	-141.494	-0.238	-0.024
-226.713	41.240	-0.074	0.067
-225.698	-14.255	-0.132	0.085
-224.684	800.000	-0.049	-0.189
-223.669	-120.155	-0.030	-0.005
-222.655	316.193	-0.061	0.115
-221.640	-72.189	-0.127	-0.047
-220.625	-90.062	-0.101	-0.030
-219.611	-47.716	0.251	0.122
-218.596	-200.000	-0.013	0.193
-217.582	800.000	0.005	-0.019
-216.567	218.402	-0.176	0.281
-215.552	-200.000	-0.008	-0.144
-214.538	-29.531	0.120	0.069
-213.523	92.242	0.074	0.083
-212.509	-105.240	-0.389	-0.089
-211.494	-29.656	-0.427	-0.244
-210.479	800.000	-0.058	0.228
-209.465	-200.000	0.051	-0.276
-208.450	800.000	0.089	0.247
-207.436	-95.179	-0.268	0.072
-206.421	11.815	0.232	0.178
-205.406	-84.498	-0.086	-0.027
-204.392	25.766	0.089	0.074
-203.377	151.318	-0.288	0.392
-202.363	-200.000	0.020	-0.110
-201.348	359.093	0.042	0.084
-200.333	-25.162	-0.397	-0.235
-199.319	-15.710	0.148	-0.095
-198.304	390.752	-0.041	0.085
-197.290	-200.000	-0.017	-0.296
-196.275	-9.743	-0.237	0.158
-195.260	-200.000	-0.004	-0.198
-194.246	373.011	0.018	0.036
-193.231	210.988	0.097	0.152
-192.217	81.455	0.283	-0.306
-191.202	118.295	-0.227	-0.280
-190.187	-200.000	-0.003	-0.217
-189.173	-200.000	0.017	-0.219
-188.158	134.070	-0.073	0.095
-187.144	274.150	-0.153	0.270
-186.129	-84.127	0.197	-0.063
-185.114	-200.000	-0.041	-0.351
-184.100	46.885	0.389	-0.361
-183.085	-200.000	0.012	-0.096
-182.071	-200.000	0.024	-0.237
-181.056	247.175	-0.067	0.113
-180.042	14.351	0.374	0.292
-179.027	-34.679	0.052	-0.028
-178.012	-160.652	0.259	0.014
-176.998	800.000	-0.062	-0.194
-175.983	14.771	-0.171	0.133
-174.969	755.309	-0.059	0.160
-173.954	318.459	0.087	0.165
-172.939	482.788	0.034	-0.076
-171.925	800.000	0.045	-0.191
-170.910	800.000	-0.024	-0.074
-169.896	-98.390	0.057	-0.015
-168.881	415.788	0.081	-0.173
-167.866	-88.604	-0.242	0.072
-166.852	-176.067	-0.324	-0.009
-165.837	-80.132	-0.243	-0.081
-164.823	-88.180	0.235	-0.070
-163.808	800.000	-0.079	-0.297
-162.793	105.963	-0.147	0.173
-161.779	-200.000	0.006	0.092
-160.764	681.484	0.069	-0.178
-159.750	-109.120	-0.257	-0.055
-158.735	-45.441	-0.207	0.103
-157.720	-167.441	-0.278	-0.011
-156.706	800.000	-0.055	-0.219
-155.691	-81.784	0.130	-0.043
-154.677	176.429	0.056	-0.081
-153.662	28.555	0.121	-0.103
-152.647	-200.000	-0.033	0.317
-151.633	-200.000	-0.046	0.295
-150.618	-35.983	0.147	0.079
-149.604	111.599	-0.128	-0.155
-148.589	-200.000	0.033	0.215
-147.574	382.853	-0.070	-0.143
-146.560	800.000	-0.098	-0.273
-145.545	56.196	-0.341	0.331
-144.531	-8.712	0.136	-0.091
-143.516	-79.939	0.175	-0.059
-142.502	183.079	-0.181	-0.267
-141.487	-84.918	0.042	-0.013
-140.472	-1.891	0.150	-0.106
-139.458	-200.000	-0.008	-0.351
-138.443	-200.000	-0.010	0.283
-137.429	100.049	0.190	-0.220
-136.414	-91.848	-0.195	-0.055
-135.399	123.643	0.072	0.091
-134.385	195.388	0.216	-0.327
-133.370	-200.000	0.044	-0.514
-132.356	273.672	-0.045	0.079
-131.341	-168.752	-0.047	-0.002
-130.326	40.686	-0.314	0.283
-129.312	143.888	-0.106	-0.141
-128.297	-200.000	0.007	0.131
-127.283	-100.761	0.138	-0.034
-126.268	88.073	-0.188	0.208
-125.253	-152.362	0.240	-0.017
-124.239	-132.943	0.121	-0.015
-123.224	133.730	0.088	-0.114
-122.210	-115.706	0.472	-0.088
-121.195	-44.398	-0.234	0.117
-120.180	227.216	0.024	0.039
-119.166	57.158	0.098	0.096
-118.151	800.000	-0.031	-0.111
-117.137	-109.872	-0.109	0.023
-116.122	55.448	0.183	-0.177
-115.107	-200.000	0.006	-0.053
-114.093	-47.855	-0.269	-0.130
-113.078	800.000	0.107	-0.326
-112.064	-119.001	-0.365	-0.064
-111.049	-77.839	-0.307	-0.106
-110.034	-200.000	-0.092	0.474
-109.020	785.013	-0.167	-0.457
-108.005	-50.529	-0.243	0.114
-106.991	416.469	0.058	0.124
-105.976	-26.158	-0.134	0.078
-104.962	-70.420	0.100	0.038
-103.947	800.000	0.043	-0.183
-102.932	800.000	-0.065	0.219
-101.918	800.000	0.102	-0.324
-100.903	-123.867	-0.278	0.044
-99.889	-200.000	0.006	0.335
-98.874	-156.483	-0.098	0.006
-97.859	-131.605	-0.167	-0.022
-96.845	-124.438	0.031	0.005
-95.830	90.837	-0.322	-0.359
-94.816	20.290	0.248	-0.199
-93.801	300.712	0.044	0.081
-92.786	-15.346	0.314	0.200
-91.772	-36.040	0.100	-0.054
-90.757	-107.764	-0.181	-0.039
-89.743	-12.885	0.031	-0.020
-88.728	-200.000	-0.018	-0.168
-87.713	-200.000	0.007	0.480
-86.699	800.000	0.037	0.140
-85.684	-200.000	0.157	0.001
-84.670	-101.195	0.127	0.031
-83.655	76.663	-0.169	0.178
-82.640	-200.000	-0.007	0.167
-81.626	42.996	0.155	-0.141
-80.611	-200.000	-0.028	0.379
-79.597	-20.072	0.189	0.116
-78.582	-27.447	0.126	0.073
-77.567	665.450	0.144	0.370
-76.553	-200.000	0.013	-0.153
-75.538	358.850	0.211	0.420
-74.524	19.317	-0.192	-0.153
-73.509	-95.647	-0.165	0.044
-72.494	-147.640	-0.094	0.008
-71.480	-67.555	0.269	0.105
-70.465	477.199	-0.112	0.251
-69.451	213.290	0.116	0.183
-68.436	-6.426	0.062	0.042
-67.422	162.233	0.155	-0.216
-66.407	-117.561	0.217	-0.039
-65.392	-200.000	-0.006	0.251
-64.378	-43.455	0.388	-0.195
-63.363	-83.147	0.073	0.024
-62.349	133.924	-0.073	0.094
-61.334	81.582	-0.770	-0.829
-60.319	523.539	0.094	0.220
-59.305	800.000	-0.185	-0.655
-58.290	800.000	0.230	0.783
-57.276	800.000	0.498	1.611
-56.261	-200.000	80.588	498.335
-55.246	474.269	1372.927	3080.952
-54.232	143.835	2601.277	3449.225
-53.217	111.753	2245.311	2695.984
-52.203	49.652	1695.087	1588.190
-51.188	42.139	1425.241	1287.278
-50.173	38.923	1380.798	1227.024
-49.159	56.878	1419.040	1374.897
-48.144	62.184	1438.641	1427.390
-47.130	42.681	1399.199	1266.978
-46.115	38.801	1382.832	1227.875
-45.100	38.763	1377.625	1222.966
-44.086	38.703	1375.574	1220.724
-43.071	38.619	1373.180	1218.025
-42.057	38.566	1371.250	1215.941
-41.042	38.690	1369.039	1214.699
-40.027	38.698	1367.260	1213.123
-39.013	38.785	1365.766	1212.287
-37.998	38.691	1364.271	1210.328
-36.984	38.680	1362.708	1208.827
-35.969	38.926	1360.127	1208.002
-34.954	38.892	1358.443	1206.253
-33.940	38.887	1357.150	1205.024
-32.925	38.856	1355.972	1203.738
-31.911	38.868	1354.377	1202.348
-30.896	38.980	1352.655	1201.462
-29.881	38.850	1351.431	1199.530
-28.867	38.926	1349.738	1198.442
-27.852	38.815	1348.833	1196.915
-26.838	38.874	1347.186	1195.764
-25.823	38.990	1345.307	1194.754
-24.809	38.801	1344.357	1192.718
-23.794	38.965	1342.432	1191.957
-22.779	38.989	1341.210	1190.968
-21.765	38.971	1339.554	1189.342
-20.750	38.850	1338.605	1187.722
-19.736	38.760	1337.236	1185.916
-18.721	38.672	1336.036	1184.270
-17.706	38.802	1334.734	1183.853
-16.692	38.813	1333.043	1182.375
-15.677	38.848	1332.404	1181.973
-14.663	38.765	1331.604	1180.715
-13.648	38.730	1329.990	1179.027
-12.633	38.708	1329.382	1178.308
-11.619	38.891	1327.882	1178.030
-10.604	38.786	1327.550	1177.058
-9.590	38.706	1326.698	1175.778
-8.575	38.741	1325.621	1174.987
-7.560	38.719	1324.828	1174.103
-6.546	38.648	1324.821	1173.626
-5.531	38.674	1323.235	1172.333
-4.517	38.718	1322.578	1171.966
-3.502	38.685	1321.060	1170.377
-2.487	38.710	1320.010	1169.550
-1.473	38.854	1315.713	1166.553
-0.458	37.832	1301.386	1147.790
0.556	34.361	1281.695	1106.814
1.571	30.489	1284.860	1086.855
2.586	29.285	1299.892	1092.345
3.600	27.785	1288.319	1073.704
4.615	19.735	1208.648	962.586
5.629	7.687	1123.893	832.264
6.644	2.401	1100.435	787.662
7.659	1.937	1096.945	782.716
8.673	1.723	1095.955	780.841
9.688	1.652	1094.449	779.335
10.702	2.014	1092.908	780.020
11.717	8.685	1104.025	822.245
12.731	19.797	1120.082	891.741
13.746	24.866	1125.855	922.452
14.761	25.230	1126.026	924.387
15.775	25.237	1125.557	923.960
16.790	25.038	1124.977	922.375
17.804	24.969	1124.134	921.248
18.819	25.203	1123.334	921.712
19.834	25.168	1123.606	921.676
20.848	25.130	1123.349	921.189
21.863	25.098	1122.587	920.317
22.877	25.147	1121.470	919.570
23.892	25.044	1120.894	918.491
24.907	25.163	1119.857	918.165
25.921	25.040	1119.082	916.823
26.936	25.125	1117.723	916.060
27.950	25.009	1116.177	914.122
28.965	24.995	1114.063	912.236
29.980	25.056	1112.530	911.212
30.994	25.150	1111.889	911.084
32.009	25.202	1110.880	910.440
33.023	25.028	1109.255	908.148
34.038	25.024	1108.994	907.833
35.053	25.183	1108.186	907.895
36.067	25.185	1107.173	906.996
37.082	25.174	1107.133	906.826
38.096	25.445	1105.700	906.940
39.111	25.419	1105.195	906.314
40.126	25.293	1103.786	904.447
41.140	24.944	1102.250	901.352
42.155	24.574	1101.217	898.566
43.169	24.671	1099.911	897.905
44.184	24.746	1099.269	897.680
45.199	24.790	1097.836	896.650
46.213	24.844	1096.890	896.067
47.228	24.827	1096.733	895.776
48.242	24.968	1095.647	895.513
49.257	24.969	1094.764	894.721
50.271	25.191	1094.117	895.220
51.286	25.212	1093.263	894.544
52.301	25.191	1092.433	893.684
53.315	25.209	1091.088	892.597
54.330	24.951	1090.651	890.875
55.344	25.209	1089.225	890.913
56.359	25.050	1088.968	889.836
57.374	24.857	1087.599	887.680
58.388	24.887	1086.930	887.205
59.403	24.941	1086.181	886.778
60.417	24.663	1085.080	884.429
61.432	24.684	1084.795	884.220
62.447	24.909	1083.773	884.420
63.461	24.828	1083.232	883.502
64.476	24.826	1081.992	882.401
65.490	24.689	1081.362	881.135
66.505	24.744	1080.477	880.606
67.520	24.869	1079.580	880.414
68.534	24.607	1078.938	878.525
69.549	24.384	1077.475	876.161
70.563	24.349	1076.540	875.152
71.578	24.389	1075.914	874.760
72.593	24.128	1075.071	872.719
73.607	24.380	1074.405	873.334
74.622	24.611	1073.993	874.054
75.636	24.594	1073.605	873.578
76.651	24.512	1072.550	872.241
77.666	24.333	1072.065	870.892
78.680	24.601	1070.871	871.153
79.695	24.662	1069.986	870.653
80.709	24.710	1069.649	870.537
81.724	24.704	1068.866	869.793
82.739	24.879	1067.955	869.826
83.753	25.111	1067.763	870.719
84.768	25.386	1066.839	871.221
85.782	25.475	1065.959	870.858
86.797	25.424	1064.917	869.684
87.812	25.281	1063.783	867.990
88.826	25.310	1063.120	867.513
89.841	25.292	1062.137	866.544
90.855	25.389	1060.700	865.763
91.870	25.229	1060.601	864.836
92.884	25.281	1059.153	863.826
93.899	25.169	1057.840	862.141
94.914	25.423	1057.254	862.808
95.928	25.103	1056.874	860.883
96.943	24.999	1054.942	858.738
97.957	24.723	1053.891	856.483
98.972	24.612	1052.875	855.052
99.987	24.787	1052.019	855.119
101.001	25.023	1051.601	855.829
102.016	25.064	1050.539	855.086
103.030	24.929	1049.388	853.427
104.045	24.971	1048.171	852.564
105.060	24.811	1047.381	851.086
106.074	24.790	1046.902	850.522
107.089	25.226	1045.946	851.738
108.103	25.084	1045.013	850.230
109.118	24.820	1043.862	847.968
110.133	24.754	1042.789	846.710
111.147	24.619	1041.283	844.772
112.162	24.452	1040.501	843.273
113.176	24.672	1040.234	844.021
114.191	24.668	1039.160	843.056
115.206	24.402	1037.889	840.697
116.220	24.348	1036.808	839.495
117.235	24.562	1036.246	839.974
118.249	24.470	1035.437	838.808
119.264	24.319	1034.871	837.568
120.279	24.495	1034.094	837.690
121.293	24.482	1033.167	836.805
122.308	24.544	1032.469	836.457
123.322	24.461	1030.929	834.748
124.337	24.266	1029.864	832.899
125.352	23.892	1027.971	829.548
126.366	23.709	1027.729	828.426
127.381	24.556	1027.383	832.023
128.395	25.037	1026.885	833.783
129.410	25.218	1025.549	833.467
130.424	25.036	1024.816	831.950
131.439	25.068	1023.874	831.261
132.454	24.936	1023.118	829.963
133.468	24.896	1022.415	829.135
134.483	25.099	1021.581	829.323
135.497	25.383	1020.805	829.932
136.512	25.349	1020.065	829.101
137.527	25.347	1019.055	828.196
138.541	25.237	1018.508	827.175
139.556	25.229	1017.537	826.273
140.570	25.477	1016.526	826.520
141.585	25.455	1016.099	826.000
142.600	25.327	1014.769	824.259
143.614	25.615	1013.932	824.825
144.629	25.726	1013.068	824.559
145.643	25.458	1011.890	822.302
146.658	25.204	1010.876	820.244
147.673	25.266	1009.766	819.554
148.687	25.116	1008.767	817.984
149.702	25.144	1007.829	817.278
150.716	25.014	1006.727	815.720
151.731	25.167	1006.018	815.769
152.746	25.283	1006.044	816.246
153.760	25.525	1004.803	816.265
154.775	25.538	1004.065	815.654
155.789	25.445	1003.468	814.675
156.804	25.384	1002.631	813.647
157.819	25.419	1001.741	813.013
158.833	25.508	1001.057	812.789
159.848	25.646	1000.108	812.568
160.862	25.524	998.576	810.699
161.877	25.334	998.191	809.462
162.892	25.568	996.559	809.118
163.906	25.458	995.285	807.519
164.921	25.281	994.843	806.292
165.935	25.433	993.807	806.065
166.950	25.399	993.116	805.278
167.964	25.351	992.165	804.220
168.979	25.224	991.045	802.675
169.994	25.239	989.729	801.605
171.008	25.391	989.774	802.249
172.023	25.553	988.933	802.221
173.037	25.383	987.247	800.024
174.052	25.147	986.535	798.325
175.067	25.042	986.021	797.373
176.081	25.231	985.211	797.489
177.096	25.207	984.663	796.866
178.110	24.929	983.457	794.588
179.125	24.681	983.212	793.218
180.140	24.964	982.208	793.591
181.154	24.968	982.285	793.603
182.169	25.327	981.917	794.825
183.183	25.549	981.878	795.706
184.198	25.394	980.868	794.129
185.213	25.373	980.050	793.307
186.227	25.371	979.533	792.808
187.242	25.305	978.759	791.821
188.256	25.483	978.284	792.148
189.271	25.596	977.223	791.717
190.286	25.215	975.982	788.966
191.300	24.563	974.348	784.712
192.315	23.680	973.179	779.827
193.329	23.596	972.527	778.866
194.344	24.512	973.242	783.390
195.359	25.159	973.088	786.035
196.373	25.396	972.370	786.424
197.388	25.243	972.089	785.456
198.402	25.421	971.125	785.388
199.417	25.405	970.394	784.655
200.432	25.137	969.355	782.576
201.446	24.958	968.569	781.094
202.461	25.045	967.994	780.940
203.475	24.246	966.071	775.841
204.490	23.406	964.804	771.102
205.504	24.111	965.436	774.608
206.519	24.835	965.297	777.577
207.534	24.920	964.902	777.555
208.548	25.319	964.687	779.048
209.563	25.205	963.582	777.592
210.577	25.170	962.837	776.772
211.592	25.634	962.418	778.373
212.607	25.497	961.621	777.065
213.621	25.471	961.440	776.737
214.636	25.574	960.348	776.232
215.650	25.354	959.692	774.684
216.665	25.551	958.814	774.757
217.680	25.485	957.928	773.687
218.694	25.059	956.957	771.003
219.709	24.971	956.083	769.851
220.723	25.236	955.560	770.501
221.738	25.304	955.611	770.763
222.753	25.236	954.561	769.557
223.767	25.442	954.340	770.196
224.782	25.504	954.200	770.279
225.796	25.556	953.159	769.593
226.811	24.982	951.667	765.869
227.826	24.313	950.113	761.691
228.840	24.442	949.885	761.994
229.855	24.550	949.088	761.749
230.869	24.339	947.949	759.865
231.884	24.508	948.124	760.660
232.899	25.296	948.369	764.146
233.913	25.259	947.550	763.260
234.928	25.159	947.270	762.544
235.942	25.168	946.394	761.808
236.957	24.868	945.265	759.558
237.972	24.831	944.857	759.008
238.986	24.906	944.333	758.837
240.001	24.997	943.658	758.613
241.015	25.091	943.097	758.492
242.030	25.228	942.498	758.521
243.045	25.221	942.359	758.314
244.059	25.533	941.640	758.987
245.074	25.274	940.961	757.279
246.088	24.957	939.633	754.808
247.103	25.238	939.252	755.619
248.117	25.777	939.409	757.945
249.132	25.920	939.212	758.321
250.147	25.977	938.913	758.252
251.161	26.284	938.250	758.940
252.176	26.124	937.794	757.831
253.190	26.293	937.087	757.902
254.205	26.364	936.610	757.747
255.220	26.392	935.783	757.127
256.234	26.226	934.845	755.607
257.249	26.132	934.424	754.807
258.263	26.138	933.411	753.950
259.278	26.372	932.830	754.389
260.293	26.376	932.110	753.756
261.307	26.115	931.678	752.251
262.322	25.944	930.642	750.637
263.336	25.331	928.744	746.491
264.351	24.208	926.895	740.279
265.366	24.226	926.586	740.039
266.380	25.333	927.066	744.955
267.395	25.856	926.906	746.930
268.409	25.824	925.956	745.965
269.424	25.924	925.807	746.192
270.439	26.043	925.135	746.076
271.453	26.139	924.614	745.987
272.468	26.179	924.219	745.767
273.482	26.337	923.355	745.655
274.497	25.892	922.443	743.021
275.512	25.469	921.623	740.552
276.526	25.893	921.666	742.265
277.541	26.076	921.022	742.436
278.555	25.877	920.138	740.840
279.570	25.739	919.562	739.742
280.585	25.843	919.253	739.855
281.599	25.943	918.008	739.198
282.614	25.304	916.866	735.596
283.628	25.284	916.340	735.026
284.643	25.515	916.340	735.908
285.657	25.179	914.810	733.242
286.672	24.947	913.845	731.453
287.687	25.637	913.644	734.046
288.701	25.450	913.730	733.285
289.716	25.267	912.385	731.397
290.730	25.210	911.872	730.689
291.745	24.829	911.372	728.671
292.760	25.218	910.897	729.810
293.774	26.258	911.553	734.504
294.789	26.525	911.027	735.098
295.803	26.581	910.137	734.543
296.818	26.702	909.276	734.273
297.833	26.219	908.191	731.378
298.847	26.053	907.593	730.157
299.862	26.289	907.537	731.002
300.876	26.616	906.982	731.813
301.891	26.614	906.199	731.110
302.906	26.028	905.279	727.939
303.920	26.263	905.243	728.792
304.935	26.605	904.679	729.652
305.949	26.576	904.456	729.289
306.964	26.206	903.199	726.723
307.979	26.334	903.043	727.049
308.993	26.581	903.092	728.018
310.008	26.702	902.066	727.613
311.022	26.339	901.621	725.733
312.037	26.245	900.674	724.529
313.052	26.112	899.307	722.831
314.066	25.186	897.921	717.949
315.081	24.843	897.113	715.868
316.095	25.736	897.720	719.862
317.110	26.232	897.448	721.562
318.125	25.487	895.841	717.234
319.139	24.154	894.629	710.883
320.154	24.268	893.950	710.739
321.168	25.219	893.998	714.504
322.183	25.899	894.486	717.536
323.197	25.980	894.214	717.576
324.212	26.143	894.228	718.175
325.227	26.363	892.846	717.873
326.241	26.229	892.259	716.809
327.256	25.982	891.916	715.488
328.270	25.957	891.022	714.609
329.285	25.881	889.705	713.186
330.300	25.629	888.947	711.522
331.314	25.897	888.909	712.486
332.329	26.358	888.857	714.203
333.343	26.365	888.671	714.020
334.358	26.485	887.956	713.854
335.373	26.392	887.927	713.400
336.387	26.811	887.562	714.697
337.402	26.958	887.435	715.112
338.416	26.841	886.915	714.166
339.431	26.882	886.959	714.301
340.446	26.838	887.085	714.165
341.460	26.947	885.915	713.589
342.475	26.738	885.363	712.262
343.489	26.792	885.345	712.396
344.504	27.037	885.051	713.057
345.519	27.284	884.398	713.438
346.533	27.344	883.582	712.953
347.548	27.299	883.291	712.476
348.562	27.123	882.838	711.360
349.577	27.155	882.060	710.796
350.592	27.133	881.593	710.272
351.606	27.199	880.556	709.629
352.621	26.949	879.542	707.775
353.635	26.995	878.773	707.274
354.650	26.397	877.409	703.785
355.665	25.397	875.816	698.559
356.679	25.780	875.558	699.781
357.694	26.225	875.214	701.169
358.708	26.183	874.722	700.553
359.723	26.447	874.359	701.221
360.738	26.820	874.419	702.654
361.752	26.984	873.929	702.831
362.767	27.278	873.631	703.670
363.781	27.595	872.961	704.294
364.796	27.560	872.848	704.004
365.810	27.566	872.261	703.489
366.825	27.604	871.857	703.249
367.840	27.249	870.842	700.999
368.854	27.029	869.878	699.315
369.869	26.875	869.747	698.553
370.883	27.028	869.122	698.577
371.898	26.761	869.039	697.425
372.913	26.902	868.636	697.580
373.927	27.200	867.833	698.018
374.942	27.120	867.592	697.457
375.956	27.316	867.102	697.751
376.971	27.385	866.728	697.655
377.986	27.601	866.286	698.062
379.000	27.445	865.869	697.070
380.015	27.151	865.264	695.396
381.029	27.334	864.546	695.456
382.044	27.596	863.727	695.736
383.059	27.639	863.301	695.494
384.073	27.562	862.818	694.750
385.088	27.498	862.385	694.099
386.102	27.158	861.539	692.061
387.117	27.210	860.580	691.428
388.132	26.954	859.357	689.411
389.146	26.386	858.612	686.595
390.161	26.937	858.351	688.418
391.175	27.262	858.346	689.584
392.190	26.949	857.591	687.733
393.205	25.453	855.476	680.315
394.219	24.115	853.129	673.333
395.234	23.997	852.991	672.720
396.248	25.716	854.067	680.007
397.263	27.098	855.938	686.666
398.278	26.973	855.126	685.482
399.292	26.709	854.428	683.866
400.307	26.772	853.887	683.610
401.321	27.069	853.053	684.000
402.336	27.284	853.253	684.908
403.350	27.655	853.386	686.351
404.365	27.937	853.337	687.311
405.380	28.187	853.254	688.124
406.394	28.273	852.496	687.775
407.409	28.048	851.966	686.444
408.423	28.170	851.401	686.385
409.438	28.244	851.054	686.321
410.453	28.274	850.412	685.856
411.467	28.309	849.737	685.383
412.482	28.198	849.422	684.651
413.496	28.383	848.998	684.940
414.511	28.263	848.978	684.415
415.526	28.256	848.520	683.961
416.540	28.149	847.284	682.504
417.555	27.976	846.512	681.176
418.569	27.960	846.505	681.052
419.584	27.916	845.976	680.400
420.599	27.784	845.221	679.243
421.613	98.226	1275.407	1401.194
422.628	85.392	1338.097	1401.286
