DTS Sentinel unit serial number:	SN413079Multiplexer serial number:	ORYXHardware model number:	OX4-SRSoftware version number:	ORYX F/W v4.00 Oryx Data Collector v3.7.2.0data status	okinstallation	princeton_trtdifferential loss correction	single-endedforward channel	channel 1reverse channel	N/Adate	2019/09/14time	03:46:35forward acquisition time	60.00reverse acquisition time	0.00gamma	496.2192k internal	0.2335k external	0.2335temperature offset calibration	1.0080default loss term (dB/km)	0.3790temperature slope calibration	1.0000multiplexer offset coefficient	1.0000multiplexer slope coefficient	1.0000fibre end	0.00T internal ref (°C)	26.64T ext. ref 1 (°C)	3.29T ext. ref 2 (°C)	21.69length (m)	temperature (°C)	Stokes	anti-Stokes-747.200	800.000	-0.042	0.136
-746.185	8.820	0.099	0.075
-745.171	800.000	0.055	0.222
-744.156	288.426	-0.142	0.259
-743.142	-9.729	0.222	0.149
-742.127	800.000	-0.075	0.260
-741.112	50.171	0.154	-0.146
-740.098	-75.277	0.160	0.057
-739.083	-6.514	0.140	0.096
-738.069	576.471	0.023	0.055
-737.054	46.871	-0.106	0.099
-736.039	-200.000	0.022	0.128
-735.025	-25.945	0.568	0.336
-734.010	-23.087	-0.155	0.094
-732.996	18.087	-0.114	0.091
-731.981	-87.350	0.090	-0.027
-730.966	4.215	-0.447	-0.328
-729.952	-82.672	-0.095	-0.031
-728.937	-200.000	0.036	-0.183
-727.923	358.421	0.043	-0.086
-726.908	-200.000	0.044	-0.530
-725.894	-0.644	0.045	-0.032
-724.879	225.313	0.141	-0.229
-723.864	-96.786	-0.087	0.023
-722.850	76.791	-0.220	-0.235
-721.835	-77.934	0.208	0.072
-720.821	350.108	-0.124	-0.246
-719.806	105.789	0.140	0.166
-718.791	-200.000	-0.000	0.092
-717.777	800.000	-0.118	-0.379
-716.762	-114.869	-0.235	0.045
-715.748	-116.884	0.141	-0.026
-714.733	-17.358	0.346	-0.218
-713.718	633.878	0.061	-0.156
-712.704	-200.000	-0.010	0.302
-711.689	-30.481	-0.047	-0.027
-710.675	-49.918	-0.231	-0.110
-709.660	267.717	-0.070	0.123
-708.645	-200.000	-0.014	-0.160
-707.631	-200.000	-0.000	0.245
-706.616	-200.000	0.001	0.030
-705.602	-200.000	0.005	-0.245
-704.587	-200.000	-0.020	0.292
-703.572	800.000	-0.023	-0.099
-702.558	163.493	-0.235	0.332
-701.543	-124.180	-0.121	-0.019
-700.529	-59.385	0.368	-0.159
-699.514	-157.370	-0.273	0.017
-698.499	91.339	0.412	0.464
-697.485	-28.046	0.079	0.046
-696.470	23.454	-0.250	0.206
-695.456	-60.195	-0.234	-0.100
-694.441	35.910	0.143	-0.126
-693.426	68.015	-0.045	0.047
-692.412	93.989	-0.097	-0.111
-691.397	499.731	0.030	-0.070
-690.383	-200.000	0.070	-0.599
-689.368	235.508	0.076	0.126
-688.354	11.529	0.155	-0.119
-687.339	-68.845	-0.105	-0.041
-686.324	-30.746	0.136	0.077
-685.310	800.000	-0.038	-0.131
-684.295	-200.000	0.015	-0.168
-683.281	174.304	-0.089	-0.128
-682.266	-127.659	-0.216	0.031
-681.251	182.356	-0.176	-0.260
-680.237	422.313	-0.076	-0.163
-679.222	-80.819	-0.216	-0.072
-678.208	57.244	-0.282	-0.276
-677.193	-200.000	0.078	0.599
-676.178	-49.543	0.282	-0.134
-675.164	187.527	0.036	-0.054
-674.149	-9.823	0.246	-0.164
-673.135	-170.638	-0.166	-0.006
-672.120	3.749	0.047	-0.035
-671.105	-101.256	-0.268	-0.065
-670.091	-55.982	-0.189	0.084
-669.076	-88.818	-0.320	-0.095
-668.062	-18.977	-0.107	-0.067
-667.047	-36.505	-0.131	0.071
-666.032	-126.913	-0.091	-0.013
-665.018	-200.000	0.004	0.151
-664.003	163.629	0.132	0.186
-662.989	-65.220	0.074	-0.030
-661.974	-104.815	0.210	0.048
-660.959	-200.000	-0.004	-0.128
-659.945	252.503	0.015	0.025
-658.930	-133.564	-0.192	-0.024
-657.916	-53.463	-0.040	0.018
-656.901	-73.443	0.227	-0.083
-655.886	0.195	0.296	-0.211
-654.872	800.000	-0.082	0.309
-653.857	-165.072	-0.311	0.014
-652.843	273.668	0.112	0.199
-651.828	117.520	0.211	0.260
-650.814	-120.919	0.207	0.035
-649.799	-78.920	0.223	0.076
-648.784	-96.118	0.329	-0.087
-647.770	-14.639	0.167	0.107
-646.755	-119.134	-0.346	-0.060
-645.741	-200.000	0.018	-0.380
-644.726	92.583	0.183	0.206
-643.711	-139.265	0.290	-0.031
-642.697	-92.282	0.395	-0.112
-641.682	-200.000	0.022	0.108
-640.668	371.339	-0.150	-0.305
-639.653	8.268	-0.217	0.163
-638.638	91.823	0.085	-0.096
-637.624	-200.000	-0.013	-0.483
-636.609	722.605	-0.079	-0.210
-635.595	43.642	-0.170	-0.156
-634.580	800.000	0.063	-0.239
-633.565	473.365	-0.046	0.104
-632.551	125.942	0.124	0.157
-631.536	15.069	-0.069	0.054
-630.522	-136.924	-0.039	0.004
-629.507	-146.987	-0.199	0.017
-628.492	-26.260	-0.303	-0.178
-627.478	-147.462	-0.202	-0.017
-626.463	-4.970	-0.151	0.104
-625.449	485.295	-0.082	0.187
-624.434	-200.000	-0.056	0.448
-623.419	-81.422	0.214	-0.070
-622.405	289.378	-0.055	-0.099
-621.390	800.000	0.102	-0.365
-620.376	-200.000	0.007	-0.151
-619.361	85.266	0.255	-0.280
-618.346	800.000	-0.055	-0.197
-617.332	-88.445	0.175	0.052
-616.317	270.847	0.054	0.094
-615.303	-13.656	-0.123	-0.080
-614.288	-200.000	0.033	-0.491
-613.273	-90.081	0.111	-0.032
-612.259	-200.000	-0.007	0.257
-611.244	100.157	0.045	0.052
-610.230	74.159	-0.180	-0.189
-609.215	-81.208	-0.171	-0.056
-608.201	66.186	0.191	0.194
-607.186	-122.543	-0.116	-0.019
-606.171	141.323	-0.270	0.356
-605.157	108.367	-0.193	0.230
-604.142	-82.025	0.285	-0.093
-603.128	-37.035	-0.141	0.075
-602.113	-106.757	-0.148	-0.033
-601.098	503.958	0.070	-0.162
-600.084	800.000	0.077	-0.255
-599.069	-80.035	0.150	-0.050
-598.055	29.846	-0.072	-0.061
-597.040	101.943	-0.134	0.156
-596.025	89.084	-0.218	-0.242
-595.011	-157.152	0.206	-0.012
-593.996	339.016	-0.038	-0.073
-592.982	349.800	-0.075	0.148
-591.967	-58.949	-0.130	0.056
-590.952	482.052	-0.185	-0.420
-589.938	-200.000	0.007	0.055
-588.923	-4.371	-0.148	0.102
-587.909	185.883	-0.174	-0.259
-586.894	-124.437	0.237	-0.037
-585.879	243.245	-0.267	-0.446
-584.865	244.118	0.011	0.018
-583.850	800.000	-0.050	-0.166
-582.836	800.000	-0.098	0.340
-581.821	800.000	-0.031	0.086
-580.806	-91.257	0.259	-0.074
-579.792	306.639	-0.104	0.194
-578.777	-111.845	-0.063	0.013
-577.763	-200.000	0.003	-0.117
-576.748	-29.057	0.241	-0.138
-575.733	800.000	0.017	0.063
-574.719	-79.355	-0.525	-0.177
-573.704	-19.253	0.128	-0.079
-572.690	-112.329	0.265	0.053
-571.675	800.000	0.115	0.440
-570.661	-153.652	0.445	-0.031
-569.646	-4.560	-0.242	-0.167
-568.631	123.572	0.133	0.167
-567.617	-119.642	-0.217	0.037
-566.602	103.590	-0.145	-0.169
-565.588	-2.836	-0.105	-0.073
-564.573	800.000	0.086	0.260
-563.558	-200.000	-0.076	0.509
-562.544	530.141	0.088	-0.207
-561.529	40.661	0.282	-0.254
-560.515	344.880	0.057	-0.112
-559.500	16.997	0.159	0.126
-558.485	93.131	0.174	-0.196
-557.471	416.383	0.181	0.386
-556.456	303.954	-0.096	-0.178
-555.442	389.685	0.200	0.414
-554.427	-19.844	-0.231	0.143
-553.412	-130.637	0.267	0.036
-552.398	-200.000	-0.012	0.126
-551.383	-73.390	-0.293	0.107
-550.369	-165.973	-0.251	-0.011
-549.354	-9.830	0.127	-0.084
-548.339	217.689	0.247	-0.393
-547.325	109.580	-0.031	0.037
-546.310	453.918	0.056	0.123
-545.296	96.366	0.130	-0.149
-544.281	-200.000	0.021	0.121
-543.266	-108.401	0.351	-0.075
-542.252	651.534	0.110	-0.281
-541.237	-27.713	0.212	-0.122
-540.223	689.133	-0.090	-0.235
-539.208	-144.162	0.110	0.010
-538.193	800.000	-0.070	0.208
-537.179	800.000	-0.101	0.280
-536.164	10.521	-0.435	-0.330
-535.150	-157.254	0.172	-0.010
-534.135	-55.800	-0.286	-0.127
-533.121	-26.444	-0.054	-0.032
-532.106	800.000	-0.090	0.300
-531.091	-200.000	0.024	-0.117
-530.077	-200.000	0.012	0.130
-529.062	-130.940	0.176	0.023
-528.048	-93.110	-0.189	-0.052
-527.033	377.920	-0.131	-0.266
-526.018	690.628	0.061	0.160
-525.004	327.374	-0.036	-0.069
-523.989	527.835	0.022	0.052
-522.975	-35.258	0.143	-0.078
-521.960	-65.734	-0.411	-0.164
-520.945	140.799	-0.096	-0.126
-519.931	-21.494	-0.149	0.091
-518.916	-200.000	-0.015	-0.089
-517.902	-62.073	0.166	-0.069
-516.887	477.546	0.045	-0.101
-515.872	-118.058	0.173	0.031
-514.858	188.143	0.125	0.186
-513.843	-130.366	-0.107	-0.014
-512.829	235.483	-0.060	-0.099
-511.814	-200.000	-0.001	0.112
-510.799	-40.267	-0.063	-0.033
-509.785	-200.000	0.025	0.164
-508.770	-122.766	-0.086	0.014
-507.756	90.252	0.154	0.172
-506.741	89.815	-0.079	0.087
-505.726	800.000	-0.065	0.239
-504.712	-76.459	0.120	0.042
-503.697	-53.566	-0.336	0.153
-502.683	157.641	0.246	0.339
-501.668	-36.625	-0.114	0.061
-500.653	-99.148	0.025	0.006
-499.639	800.000	-0.085	0.254
-498.624	-18.601	0.274	-0.170
-497.610	753.815	-0.094	-0.252
-496.595	-200.000	-0.027	-0.173
-495.581	135.024	-0.068	0.088
-494.566	-200.000	0.003	0.122
-493.551	-150.399	-0.476	0.036
-492.537	10.857	-0.275	-0.209
-491.522	-55.752	-0.216	0.096
-490.508	-200.000	0.041	0.278
-489.493	439.494	-0.134	0.291
-488.478	215.501	-0.097	-0.153
-487.464	-26.602	0.132	0.077
-486.449	-26.412	-0.055	-0.032
-485.435	366.441	0.047	0.095
-484.420	198.806	-0.180	-0.275
-483.405	-85.099	0.224	-0.070
-482.391	-200.000	-0.005	0.214
-481.376	-200.000	0.004	-0.203
-480.362	442.217	-0.030	-0.066
-479.347	-40.560	-0.087	-0.045
-478.332	-117.479	-0.144	-0.026
-477.318	161.008	0.124	-0.173
-476.303	143.780	0.117	0.155
-475.289	-158.810	0.196	-0.011
-474.274	174.354	0.055	0.079
-473.259	-200.000	0.002	-0.038
-472.245	-200.000	-0.004	-0.139
-471.230	800.000	0.086	-0.266
-470.216	800.000	-0.074	-0.285
-469.201	-99.420	-0.579	0.145
-468.186	43.322	-0.124	0.113
-467.172	-200.000	0.020	-0.151
-466.157	232.025	-0.060	-0.098
-465.143	102.384	-0.041	0.048
-464.128	61.440	-0.068	-0.067
-463.113	713.228	0.031	0.083
-462.099	-136.575	-0.142	-0.016
-461.084	45.816	-0.087	0.079
-460.070	717.447	-0.060	-0.158
-459.055	285.084	0.124	-0.222
-458.040	61.015	-0.253	0.250
-457.026	-166.530	-0.294	-0.012
-456.011	-68.392	-0.264	0.102
-454.997	800.000	-0.055	-0.186
-453.982	-200.000	-0.026	-0.239
-452.968	-78.482	0.281	-0.096
-451.953	-107.650	0.090	-0.019
-450.938	24.942	0.307	0.253
-449.924	69.144	-0.131	-0.134
-448.909	-24.356	0.221	-0.131
-447.895	-200.000	0.006	0.125
-446.880	38.029	-0.097	-0.086
-445.865	-59.223	-0.256	-0.109
-444.851	-200.000	0.001	-0.096
-443.836	-71.441	-0.286	0.106
-442.822	291.303	0.212	0.383
-441.807	296.785	0.093	-0.169
-440.792	624.068	0.083	-0.208
-439.778	-200.000	-0.007	-0.223
-438.763	30.474	0.082	0.070
-437.749	134.916	0.053	-0.068
-436.734	-176.699	0.229	0.006
-435.719	-186.650	0.241	-0.003
-434.705	-100.588	-0.018	0.004
-433.690	-162.567	0.162	0.008
-432.676	356.194	-0.018	-0.035
-431.661	108.705	-0.144	-0.170
-430.646	780.409	-0.033	0.089
-429.632	155.876	0.198	0.271
-428.617	800.000	-0.092	-0.255
-427.603	-51.137	0.068	-0.032
-426.588	-17.953	0.025	-0.015
-425.573	-107.146	-0.156	0.034
-424.559	429.436	0.079	0.169
-423.544	116.340	-0.042	-0.051
-422.530	-200.000	-0.010	-0.191
-421.515	-3.943	0.148	-0.102
-420.500	-124.022	0.346	-0.054
-419.486	-96.820	-0.146	0.038
-418.471	6.800	-0.472	0.348
-417.457	2.508	0.216	0.155
-416.442	800.000	-0.075	0.209
-415.428	103.777	-0.168	-0.196
-414.413	23.183	0.118	-0.096
-413.398	699.699	-0.161	0.420
-412.384	148.787	0.168	0.225
-411.369	11.177	0.174	-0.132
-410.355	455.136	0.066	0.145
-409.340	41.307	0.143	-0.129
-408.325	-182.953	0.142	-0.003
-407.311	800.000	-0.019	0.067
-406.296	91.729	-0.188	-0.210
-405.282	-158.425	0.162	-0.009
-404.267	-1.901	-0.223	-0.155
-403.252	-9.839	0.084	0.055
-402.238	19.651	0.079	-0.063
-401.223	-16.237	0.232	0.146
-400.209	461.880	-0.087	-0.192
-399.194	737.694	0.106	0.283
-398.179	-200.000	-0.054	0.294
-397.165	159.149	0.171	-0.236
-396.150	257.269	0.250	0.426
-395.136	-200.000	0.001	0.185
-394.121	-80.629	-0.230	0.076
-393.106	800.000	0.077	0.246
-392.092	67.713	0.124	0.126
-391.077	36.435	0.079	-0.069
-390.063	-58.870	-0.158	-0.068
-389.048	800.000	-0.061	0.228
-388.033	209.709	0.116	-0.180
-387.019	800.000	-0.068	-0.211
-386.004	-200.000	0.061	-0.359
-384.990	146.833	-0.240	0.320
-383.975	800.000	0.071	0.285
-382.960	-200.000	-0.018	0.185
-381.946	250.277	-0.206	0.347
-380.931	-85.805	-0.328	0.101
-379.917	800.000	0.039	0.145
-378.902	123.151	-0.123	-0.152
-377.888	-200.000	-0.049	-0.298
-376.873	-126.091	0.431	-0.064
-375.858	800.000	0.025	0.094
-374.844	-138.314	0.056	0.006
-373.829	-147.078	-0.160	0.014
-372.815	115.322	0.144	0.174
-371.800	671.663	0.153	0.393
-370.785	-0.305	-0.207	0.146
-369.771	-111.357	-0.146	-0.029
-368.756	-200.000	-0.016	-0.139
-367.742	-200.000	0.003	-0.094
-366.727	800.000	0.058	-0.159
-365.712	-44.207	-0.133	-0.066
-364.698	-200.000	-0.055	-0.446
-363.683	597.382	0.128	-0.313
-362.669	-55.030	-0.349	0.156
-361.654	800.000	-0.041	0.153
-360.639	-200.000	0.009	0.054
-359.625	-15.672	0.052	-0.033
-358.610	22.074	0.223	-0.180
-357.596	-72.907	-0.177	0.064
-356.581	72.117	0.136	0.140
-355.566	127.773	0.196	0.247
-354.552	-169.060	0.076	-0.003
-353.537	-121.047	0.249	-0.041
-352.523	-70.175	-0.160	0.060
-351.508	191.478	-0.066	0.098
-350.493	86.271	0.112	0.122
-349.479	18.570	-0.156	0.123
-348.464	244.355	-0.073	0.120
-347.450	-14.469	0.149	0.095
-346.435	5.962	0.038	-0.028
-345.420	32.780	-0.151	0.129
-344.406	-132.792	0.014	0.002
-343.391	-136.693	0.501	-0.057
-342.377	12.782	-0.312	-0.238
-341.362	332.390	0.123	-0.235
-340.348	-200.000	-0.020	-0.095
-339.333	-87.574	-0.384	0.115
-338.318	-159.587	0.211	-0.012
-337.304	618.584	0.088	-0.220
-336.289	568.823	-0.132	-0.317
-335.275	800.000	0.093	0.260
-334.260	-93.626	-0.338	0.092
-333.245	258.738	0.141	0.240
-332.231	-165.584	0.297	-0.013
-331.216	-200.000	0.006	0.160
-330.202	143.321	-0.055	0.072
-329.187	46.225	0.073	0.067
-328.172	800.000	-0.082	-0.317
-327.158	-88.563	0.189	0.056
-326.143	-25.001	-0.049	0.029
-325.129	-38.423	-0.109	0.057
-324.114	15.367	-0.215	0.167
-323.099	386.300	-0.138	0.282
-322.085	-0.339	-0.092	-0.064
-321.070	-200.000	0.014	0.157
-320.056	800.000	-0.056	0.155
-319.041	800.000	-0.085	-0.330
-318.026	454.538	0.017	0.038
-317.012	-86.775	0.186	0.056
-315.997	800.000	-0.017	0.061
-314.983	234.718	0.081	-0.131
-313.968	-99.067	-0.138	-0.034
-312.953	67.034	0.195	0.197
-311.939	-5.639	0.299	-0.202
-310.924	113.468	0.286	-0.343
-309.910	-200.000	0.006	-0.192
-308.895	298.424	0.176	-0.319
-307.880	-6.266	0.262	-0.176
-306.866	-92.830	0.117	-0.032
-305.851	800.000	0.010	0.043
-304.837	395.038	-0.076	0.157
-303.822	15.500	0.272	-0.211
-302.807	-200.000	-0.001	0.178
-301.793	24.600	-0.169	-0.138
-300.778	-111.465	-0.378	0.076
-299.764	-200.000	0.001	-0.032
-298.749	381.604	0.048	-0.097
-297.735	-186.560	0.241	-0.003
-296.720	-200.000	-0.021	-0.170
-295.705	-91.182	0.265	0.075
-294.691	63.638	0.158	-0.157
-293.676	139.041	0.118	0.153
-292.662	-200.000	-0.018	0.106
-291.647	-200.000	-0.046	0.306
-290.632	-31.805	0.299	-0.165
-289.618	9.118	-0.106	0.079
-288.603	332.204	-0.067	0.127
-287.589	800.000	-0.061	0.184
-286.574	-200.000	-0.050	0.228
-285.559	-15.552	-0.355	-0.224
-284.545	29.743	-0.148	-0.124
-283.530	340.178	0.075	0.145
-282.516	18.600	0.166	0.131
-281.501	12.979	0.288	-0.219
-280.486	234.152	-0.091	0.147
-279.472	137.639	-0.228	0.294
-278.457	192.505	-0.156	-0.232
-277.443	-55.538	-0.295	-0.130
-276.428	642.173	-0.085	-0.215
-275.413	241.460	-0.127	0.209
-274.399	-200.000	0.014	-0.183
-273.384	800.000	-0.085	0.270
-272.370	-57.198	0.054	-0.023
-271.355	-24.432	0.161	-0.095
-270.340	738.688	-0.095	-0.252
-269.326	-124.514	0.103	0.016
-268.311	-200.000	-0.015	0.493
-267.297	800.000	-0.150	0.444
-266.282	800.000	-0.017	0.068
-265.267	-200.000	0.026	0.444
-264.253	-44.534	0.196	-0.096
-263.238	170.443	-0.068	-0.096
-262.224	128.587	-0.069	-0.086
-261.209	-200.000	0.045	-0.417
-260.195	36.487	0.124	-0.108
-259.180	800.000	0.081	-0.268
-258.165	-200.000	-0.038	-0.239
-257.151	800.000	0.026	-0.070
-256.136	-143.031	-0.162	0.015
-255.122	139.498	0.120	-0.156
-254.107	-200.000	-0.080	-0.354
-253.092	568.863	0.173	0.415
-252.078	-200.000	0.035	0.168
-251.063	-200.000	-0.060	0.402
-250.049	800.000	0.038	0.112
-249.034	-178.642	0.156	-0.004
-248.019	-200.000	0.032	0.449
-247.005	112.848	-0.055	-0.065
-245.990	-200.000	-0.013	-0.414
-244.976	-93.459	-0.528	-0.144
-243.961	226.113	0.070	-0.112
-242.946	-200.000	0.038	-0.377
-241.932	54.376	-0.224	-0.212
-240.917	16.581	0.102	0.079
-239.903	800.000	0.051	0.172
-238.888	-200.000	-0.017	-0.343
-237.873	1.743	0.091	0.064
-236.859	63.308	-0.182	-0.180
-235.844	402.058	-0.056	0.117
-234.830	120.565	0.049	-0.060
-233.815	129.392	0.151	0.190
-232.800	260.853	0.092	0.156
-231.786	-83.781	0.127	-0.040
-230.771	-72.425	-0.240	-0.087
-229.757	-130.260	0.261	0.035
-228.742	-200.000	-0.002	-0.019
-227.727	-19.133	0.157	-0.096
-226.713	-67.193	-0.321	0.124
-225.698	443.520	0.011	0.024
-224.684	800.000	0.031	0.085
-223.669	-103.951	0.017	0.004
-222.655	124.106	-0.091	0.112
-221.640	-21.632	-0.101	-0.061
-220.625	48.061	0.138	0.127
-219.611	-102.205	0.018	0.004
-218.596	-192.820	-0.136	0.001
-217.582	-148.091	0.219	0.018
-216.567	-200.000	-0.086	0.000
-215.552	-200.000	-0.062	-0.338
-214.538	-149.686	0.319	0.025
-213.523	-37.552	-0.153	0.080
-212.509	136.066	0.057	0.073
-211.494	-93.292	-0.171	0.047
-210.479	-159.752	-0.271	-0.015
-209.465	-189.290	-0.166	-0.002
-208.450	-200.000	0.043	0.295
-207.436	-114.150	-0.375	0.071
-206.421	-126.674	0.160	0.023
-205.406	649.396	-0.080	-0.201
-204.392	-42.667	-0.337	-0.169
-203.377	-154.926	0.362	0.023
-202.363	79.288	-0.151	0.159
-201.348	-93.141	0.287	0.078
-200.333	800.000	0.090	-0.246
-199.319	241.886	0.175	-0.288
-198.304	-128.336	0.240	0.034
-197.290	-200.000	0.020	0.100
-196.275	57.487	0.145	0.139
-195.260	271.218	-0.061	-0.106
-194.246	-124.275	-0.151	0.023
-193.231	800.000	0.019	-0.075
-192.217	-90.396	0.273	0.078
-191.202	130.786	-0.092	-0.116
-190.187	-33.651	0.183	0.099
-189.173	-74.836	-0.259	-0.091
-188.158	169.504	-0.062	0.087
-187.144	-200.000	-0.126	0.001
-186.129	260.743	0.172	0.293
-185.114	276.993	0.154	-0.269
-184.100	-81.203	0.204	0.066
-183.085	249.471	0.174	0.290
-182.071	296.128	-0.182	0.327
-181.056	273.570	-0.283	-0.492
-180.042	40.164	0.283	0.250
-179.027	49.107	-0.074	-0.068
-178.012	-104.439	-0.170	-0.039
-176.998	-200.000	0.043	0.252
-175.983	-200.000	-0.065	-0.342
-174.969	458.739	-0.052	0.114
-173.954	16.773	-0.178	0.138
-172.939	-70.412	0.282	-0.105
-171.925	-100.753	0.185	0.045
-170.910	-200.000	-0.060	0.300
-169.896	-200.000	-0.017	-0.117
-168.881	-66.658	0.179	-0.070
-167.866	-87.919	0.240	0.071
-166.852	296.121	-0.190	0.341
-165.837	-29.639	0.386	0.216
-164.823	207.681	-0.031	0.048
-163.808	-52.929	-0.297	-0.134
-162.793	86.745	0.102	-0.110
-161.779	94.745	-0.170	-0.190
-160.764	-200.000	-0.001	0.108
-159.750	-168.835	0.176	-0.007
-158.735	96.357	-0.190	0.214
-157.720	-111.463	0.156	0.031
-156.706	-189.562	-0.065	-0.001
-155.691	61.677	0.185	0.181
-154.677	-163.111	0.157	0.007
-153.662	11.762	-0.040	0.030
-152.647	-88.411	-0.219	0.064
-151.633	-200.000	0.032	-0.304
-150.618	-200.000	0.011	-0.134
-149.604	-176.176	-0.356	-0.009
-148.589	263.018	0.115	0.195
-147.574	33.781	0.159	-0.136
-146.560	-200.000	-0.017	0.129
-145.545	-200.000	0.024	0.309
-144.531	-119.337	0.222	0.038
-143.516	170.863	0.214	-0.301
-142.502	-200.000	0.008	-0.559
-141.487	-200.000	0.034	-0.151
-140.472	-78.801	0.136	-0.045
-139.458	-49.895	0.204	0.095
-138.443	-138.315	-0.403	0.044
-137.429	-155.181	-0.531	-0.034
-136.414	-122.228	0.050	0.008
-135.399	-200.000	-0.033	-0.172
-134.385	-83.644	0.088	0.028
-133.370	55.629	0.040	0.038
-132.356	-200.000	-0.023	0.106
-131.341	-58.464	0.183	-0.078
-130.326	-200.000	0.024	0.224
-129.312	-92.229	0.216	0.060
-128.297	-200.000	0.008	0.180
-127.283	46.559	-0.306	-0.279
-126.268	111.219	-0.149	0.177
-125.253	-41.728	-0.073	-0.037
-124.239	-52.213	-0.228	0.104
-123.224	4.755	0.153	-0.110
-122.210	-41.097	-0.079	0.040
-121.195	155.292	-0.169	0.228
-120.180	-81.386	0.352	-0.114
-119.166	155.326	0.109	-0.148
-118.151	105.023	0.036	0.042
-117.137	12.950	0.129	0.097
-116.122	800.000	-0.165	0.464
-115.107	-3.723	0.108	-0.074
-114.093	76.144	0.057	-0.059
-113.078	-200.000	0.006	0.186
-112.064	-200.000	0.002	0.045
-111.049	281.975	0.053	0.092
-110.034	-157.961	-0.116	-0.007
-109.020	224.286	-0.190	-0.300
-108.005	62.340	-0.180	0.176
-106.991	-91.576	-0.186	-0.052
-105.976	-28.607	-0.082	0.046
-104.962	-54.557	0.145	-0.064
-103.947	-64.229	-0.217	-0.087
-102.932	75.446	0.121	0.125
-101.918	214.377	-0.061	0.094
-100.903	243.359	0.124	-0.203
-99.889	91.247	0.257	-0.283
-98.874	-11.197	-0.052	0.033
-97.859	-200.000	-0.003	0.048
-96.845	-66.677	0.122	0.047
-95.830	-200.000	-0.004	0.151
-94.816	-132.883	-0.226	0.028
-93.801	-200.000	0.055	0.270
-92.786	-38.382	-0.228	0.118
-91.772	-200.000	-0.027	0.237
-90.757	-200.000	-0.039	-0.217
-89.743	-99.525	0.220	0.054
-88.728	800.000	0.023	0.073
-87.713	-76.619	0.163	-0.056
-86.699	-22.798	-0.033	0.019
-85.684	56.709	-0.036	-0.034
-84.670	-69.691	0.411	0.154
-83.655	-200.000	-0.012	-0.056
-82.640	30.990	0.236	-0.198
-81.626	41.492	-0.136	-0.120
-80.611	-33.195	0.295	0.160
-79.597	-177.760	0.076	0.002
-78.582	-136.465	-0.224	0.025
-77.567	-200.000	0.019	0.277
-76.553	467.478	0.038	0.084
-75.538	101.546	0.052	-0.060
-74.524	296.278	0.095	-0.171
-73.509	-200.000	0.032	0.263
-72.494	371.823	0.088	0.176
-71.480	-52.831	0.138	-0.062
-70.465	51.788	-0.282	0.262
-69.451	411.244	0.164	-0.340
-68.436	290.443	-0.160	-0.284
-67.422	-200.000	0.009	0.178
-66.407	85.167	-0.060	-0.064
-65.392	-168.906	-0.360	-0.013
-64.378	-140.504	0.212	0.022
-63.363	-98.598	-0.290	-0.072
-62.349	-6.466	-0.141	0.094
-61.334	356.394	-0.626	-1.220
-60.319	529.011	0.338	0.780
-59.305	149.498	-0.666	-0.882
-58.290	266.093	0.756	1.291
-57.276	658.163	0.694	1.745
-56.261	-200.000	116.452	651.027
-55.246	513.727	1539.361	3510.332
-54.232	175.463	2711.264	3842.862
-53.217	107.167	2158.969	2508.688
-52.203	38.460	1593.252	1388.442
-51.188	30.079	1335.109	1113.339
-50.173	27.192	1296.974	1064.621
-49.159	53.864	1354.983	1272.635
-48.144	52.078	1368.413	1274.530
-47.130	30.114	1323.277	1103.507
-46.115	26.880	1304.609	1068.877
-45.100	26.589	1299.853	1063.230
-44.086	26.555	1297.192	1060.812
-43.071	26.437	1295.169	1058.426
-42.057	26.470	1292.982	1056.787
-41.042	26.459	1291.128	1055.170
-40.027	26.535	1289.745	1054.441
-39.013	26.518	1288.155	1052.998
-37.998	26.548	1285.615	1051.055
-36.984	26.599	1284.014	1049.996
-35.969	26.551	1282.784	1048.674
-34.954	26.637	1281.030	1047.693
-33.940	26.652	1279.761	1046.703
-32.925	26.713	1277.957	1045.537
-31.911	26.774	1276.161	1044.381
-30.896	26.673	1275.372	1043.111
-29.881	26.725	1273.751	1042.039
-28.867	26.745	1272.697	1041.253
-27.852	26.696	1270.943	1039.495
-26.838	26.640	1269.923	1038.300
-25.823	26.708	1268.759	1037.694
-24.809	26.855	1266.917	1036.987
-23.794	26.748	1265.209	1034.938
-22.779	26.725	1264.403	1034.108
-21.765	26.794	1263.265	1033.528
-20.750	26.801	1261.552	1032.127
-19.736	26.728	1260.523	1030.828
-18.721	26.605	1259.724	1029.433
-17.706	26.570	1258.448	1028.153
-16.692	26.619	1257.150	1027.325
-15.677	26.617	1256.049	1026.374
-14.663	26.611	1254.770	1025.254
-13.648	26.598	1253.861	1024.401
-12.633	26.627	1252.731	1023.600
-11.619	26.524	1252.574	1022.849
-10.604	26.591	1251.324	1022.164
-9.590	26.530	1250.931	1021.458
-8.575	26.543	1249.629	1020.428
-7.560	26.606	1248.431	1019.768
-6.546	26.532	1248.228	1019.141
-5.531	26.609	1246.594	1018.200
-4.517	26.644	1246.105	1017.958
-3.502	26.610	1244.807	1016.668
-2.487	26.647	1244.063	1016.227
-1.473	26.566	1239.719	1012.187
-0.458	25.112	1224.963	992.056
0.556	22.128	1208.761	956.449
1.571	18.571	1215.341	942.067
2.586	17.693	1230.555	948.888
3.600	17.390	1218.384	937.751
4.615	13.045	1147.127	860.231
5.629	6.356	1076.123	774.116
6.644	3.335	1059.109	747.174
7.659	3.333	1056.419	745.202
8.673	3.254	1055.554	744.143
9.688	3.239	1054.227	743.071
10.702	3.508	1051.847	742.623
11.717	7.284	1057.315	764.665
12.731	14.651	1067.577	807.788
13.746	18.988	1072.612	832.565
14.761	19.631	1073.111	835.995
15.775	18.889	1071.036	830.717
16.790	17.909	1069.116	824.427
17.804	17.160	1067.619	819.586
18.819	16.869	1066.941	817.591
19.834	16.560	1066.527	815.710
20.848	16.531	1065.396	814.633
21.863	16.342	1064.262	812.784
22.877	16.165	1063.836	811.533
23.892	16.198	1062.619	810.694
24.907	16.134	1062.251	810.034
25.921	16.133	1061.290	809.222
26.936	16.254	1059.921	808.689
27.950	16.264	1058.435	807.530
28.965	16.315	1056.912	806.540
29.980	16.441	1055.643	806.101
30.994	16.450	1054.398	805.125
32.009	16.557	1053.725	805.047
33.023	16.396	1053.047	803.691
34.038	16.376	1051.332	802.216
35.053	16.309	1050.640	801.300
36.067	16.217	1049.785	800.140
37.082	16.255	1048.957	799.622
38.096	16.404	1048.252	799.716
39.111	16.518	1047.466	799.587
40.126	16.300	1045.941	797.324
41.140	16.043	1044.747	795.130
42.155	16.044	1043.605	794.194
43.169	15.959	1042.370	792.782
44.184	15.840	1041.791	791.714
45.199	15.915	1040.518	791.028
46.213	16.089	1039.384	790.910
47.228	16.317	1038.443	791.193
48.242	16.330	1037.303	790.317
49.257	16.183	1036.912	789.259
50.271	16.261	1035.618	788.571
51.286	16.446	1034.456	788.481
52.301	16.204	1034.114	787.021
53.315	16.131	1032.953	785.729
54.330	16.130	1031.513	784.559
55.344	16.014	1031.083	783.624
56.359	16.073	1030.185	783.145
57.374	16.024	1029.124	782.043
58.388	15.897	1028.167	780.655
59.403	15.856	1027.386	779.805
60.417	15.967	1026.752	779.769
61.432	15.835	1025.796	778.363
62.447	15.882	1024.451	777.490
63.461	15.819	1024.367	777.067
64.476	15.735	1022.939	775.527
65.490	15.716	1022.453	775.001
66.505	15.891	1021.600	775.095
67.520	15.918	1021.063	774.740
68.534	15.878	1020.205	773.838
69.549	15.828	1019.701	773.159
70.563	15.781	1018.598	772.037
71.578	15.840	1017.475	771.389
72.593	15.641	1017.070	770.102
73.607	15.607	1016.407	769.374
74.622	15.651	1015.413	768.756
75.636	15.701	1014.851	768.493
76.651	15.745	1014.624	768.451
77.666	15.805	1013.332	767.677
78.680	15.768	1012.930	767.139
79.695	15.894	1012.201	767.092
80.709	15.973	1011.512	766.862
81.724	15.982	1011.167	766.575
82.739	16.135	1010.353	766.583
83.753	16.251	1009.479	766.377
84.768	16.388	1008.409	766.121
85.782	16.443	1008.222	766.160
86.797	16.462	1007.287	765.467
87.812	16.224	1006.115	763.435
88.826	16.175	1005.284	762.512
89.841	16.253	1004.560	762.251
90.855	16.481	1003.693	762.553
91.870	16.379	1002.881	761.407
92.884	16.437	1001.764	760.755
93.899	16.361	1000.944	759.723
94.914	16.512	1000.126	759.711
95.928	16.486	999.218	758.839
96.943	16.365	998.294	757.527
97.957	16.316	997.690	756.783
98.972	16.296	996.984	756.091
99.987	16.410	995.863	755.685
101.001	16.372	994.988	754.782
102.016	16.115	994.393	753.119
103.030	16.480	993.251	753.814
104.045	16.345	992.515	752.586
105.060	16.309	991.377	751.498
106.074	16.068	990.570	749.748
107.089	15.952	989.731	748.529
108.103	15.959	988.473	747.543
109.118	15.950	987.352	746.589
110.133	15.871	987.131	746.007
111.147	15.860	985.927	744.982
112.162	15.946	985.254	744.786
113.176	15.999	983.968	743.983
114.191	16.065	983.796	744.080
115.206	16.065	983.061	743.459
116.220	15.944	982.090	742.125
117.235	16.042	980.905	741.595
118.249	15.935	980.456	740.718
119.264	16.078	979.305	740.414
120.279	16.045	978.439	739.548
121.293	15.893	977.854	738.371
122.308	15.834	977.301	737.630
123.322	15.870	975.874	736.645
124.337	15.739	974.981	735.334
125.352	15.797	973.840	734.662
126.366	15.795	972.595	733.651
127.381	15.821	971.818	733.111
128.395	15.801	970.931	732.293
129.410	15.787	970.122	731.556
130.424	16.062	968.995	731.837
131.439	16.081	968.271	731.307
132.454	16.132	967.463	730.853
133.468	16.066	966.662	729.898
134.483	15.986	966.322	729.227
135.497	16.172	965.372	729.252
136.512	16.027	964.504	727.904
137.527	16.008	963.837	727.255
138.541	16.077	963.367	727.134
139.556	16.158	962.372	726.666
140.570	16.264	961.711	726.562
141.585	16.350	960.927	726.271
142.600	16.392	960.360	725.959
143.614	16.561	959.429	725.916
144.629	16.595	958.762	725.495
145.643	16.415	957.663	723.826
146.658	16.334	956.323	722.403
147.673	16.229	955.800	721.496
148.687	16.193	954.421	720.237
149.702	16.030	953.852	719.050
150.716	16.253	952.464	718.890
151.731	16.093	952.178	717.929
152.746	16.304	951.596	718.323
153.760	16.202	951.267	717.580
154.775	16.376	950.714	717.839
155.789	16.367	950.035	717.224
156.804	16.304	949.411	716.420
157.819	16.484	948.475	716.416
158.833	16.488	948.125	716.103
159.848	16.406	947.538	715.249
160.862	16.492	945.890	714.308
161.877	16.247	945.131	712.634
162.892	16.344	943.667	711.879
163.906	16.172	943.033	710.610
164.921	16.199	942.625	710.356
165.935	16.297	941.618	709.945
166.950	16.329	940.754	709.364
167.964	16.291	940.294	708.796
168.979	16.304	938.995	707.810
169.994	16.264	938.274	707.035
171.008	16.547	937.333	707.449
172.023	16.456	936.863	706.651
173.037	16.615	936.204	706.754
174.052	16.448	935.598	705.537
175.067	16.255	934.742	704.025
176.081	16.342	933.790	703.607
177.096	16.197	933.826	702.971
178.110	16.238	932.979	702.439
179.125	16.480	932.223	702.813
180.140	16.347	931.995	702.027
181.154	16.501	931.412	702.165
182.169	16.646	931.086	702.459
183.183	16.815	930.171	702.408
184.198	16.597	929.711	701.095
185.213	16.636	928.713	700.440
186.227	16.664	928.034	699.983
187.242	16.749	927.183	699.631
188.256	16.861	927.036	699.919
189.271	16.795	926.179	698.941
190.286	16.518	925.173	696.978
191.300	16.264	924.174	695.115
192.315	16.298	923.574	694.744
193.329	16.354	923.108	694.563
194.344	16.292	922.786	694.002
195.359	16.498	922.054	694.238
196.373	16.592	921.475	694.126
197.388	16.724	921.254	694.439
198.402	16.837	920.969	694.626
199.417	16.808	920.577	694.152
200.432	16.948	919.961	694.198
201.446	17.020	919.046	693.738
202.461	17.151	918.438	693.755
203.475	17.033	918.029	692.905
204.490	16.900	916.858	691.415
205.504	16.839	915.887	690.373
206.519	16.740	915.713	689.777
207.534	16.946	914.587	689.707
208.548	16.873	914.216	689.071
209.563	16.840	913.752	688.523
210.577	16.955	913.046	688.399
211.592	17.056	912.050	687.995
212.607	17.061	911.726	687.712
213.621	17.057	910.930	687.035
214.636	17.092	909.975	686.392
215.650	17.156	909.468	686.208
216.665	17.150	909.095	685.844
217.680	17.215	908.326	685.463
218.694	17.273	907.378	684.922
219.709	17.197	906.715	684.055
220.723	17.127	906.260	683.371
221.738	17.176	905.699	683.083
222.753	17.141	905.168	682.481
223.767	17.193	904.676	682.260
224.782	17.418	904.000	682.590
225.796	17.351	903.655	682.003
226.811	17.213	902.767	680.720
227.826	17.076	901.958	679.500
228.840	17.206	901.185	679.378
229.855	17.180	900.223	678.488
230.869	17.102	899.563	677.618
231.884	17.136	898.827	677.140
232.899	17.199	897.861	676.603
233.913	17.092	897.309	675.704
234.928	17.139	896.571	675.276
235.942	17.130	895.963	674.720
236.957	17.080	895.692	674.258
237.972	17.010	895.271	673.602
238.986	17.046	894.250	672.919
240.001	17.186	893.651	672.964
241.015	17.202	893.241	672.658
242.030	17.229	892.419	672.087
243.045	17.269	892.122	671.960
244.059	17.356	891.421	671.719
245.074	17.247	890.966	670.886
246.088	17.473	890.399	671.289
247.103	17.479	889.687	670.719
248.117	17.666	888.989	670.869
249.132	17.931	888.484	671.469
250.147	17.940	888.107	671.162
251.161	17.942	887.766	670.851
252.176	17.784	887.108	669.676
253.190	17.811	886.758	669.456
254.205	17.941	886.089	669.401
255.220	17.929	885.200	668.626
256.234	17.935	884.250	667.873
257.249	17.952	883.600	667.387
258.263	17.889	882.895	666.551
259.278	17.944	882.217	666.193
260.293	17.892	881.866	665.666
261.307	18.117	880.891	665.748
262.322	18.172	880.435	665.560
263.336	18.131	879.806	664.867
264.351	18.184	878.797	664.249
265.366	18.158	878.796	664.089
266.380	18.136	877.970	663.321
267.395	18.057	877.185	662.364
268.409	18.127	876.345	661.939
269.424	18.016	875.470	660.794
270.439	17.856	875.142	659.869
271.453	17.990	874.383	659.754
272.468	17.923	873.944	659.107
273.482	17.974	873.132	658.631
274.497	17.930	872.770	658.133
275.512	17.964	872.211	657.783
276.526	17.925	871.864	657.312
277.541	18.131	871.177	657.529
278.555	18.078	871.097	657.208
279.570	18.281	870.060	657.145
280.585	18.322	869.193	656.591
281.599	18.261	868.084	655.461
282.614	17.984	868.463	654.625
283.628	18.122	867.300	654.221
284.643	18.083	866.974	653.766
285.657	18.226	865.940	653.474
286.672	18.190	865.707	653.105
287.687	18.135	864.739	652.105
288.701	18.052	864.445	651.511
289.716	18.240	863.992	651.828
290.730	18.219	863.420	651.259
291.745	18.269	862.605	650.778
292.760	18.322	862.184	650.603
293.774	18.471	861.626	650.690
294.789	18.427	860.521	649.631
295.803	18.275	859.945	648.564
296.818	18.183	859.299	647.671
297.833	18.220	859.120	647.617
298.847	18.321	858.302	647.326
299.862	18.337	857.770	646.929
300.876	18.381	857.318	646.695
301.891	18.488	857.070	646.855
302.906	18.617	856.363	646.752
303.920	18.609	855.939	646.345
304.935	18.595	855.287	645.740
305.949	18.659	854.079	645.012
306.964	18.493	854.038	644.301
307.979	18.587	853.238	643.992
308.993	18.577	852.857	643.613
310.008	18.542	851.938	642.730
311.022	18.691	851.569	642.951
312.037	18.505	850.990	641.763
313.052	18.239	850.458	640.308
314.066	18.273	849.725	639.828
315.081	18.516	848.954	640.098
316.095	18.611	848.112	639.760
317.110	18.405	847.983	638.838
318.125	18.438	847.617	638.629
319.139	18.549	846.666	638.270
320.154	18.559	846.590	638.194
321.168	18.295	846.305	636.939
322.183	18.473	845.645	637.049
323.197	18.521	845.016	636.696
324.212	18.599	844.437	636.491
325.227	18.468	844.002	635.623
326.241	18.554	843.274	635.339
327.256	18.485	842.547	634.479
328.270	18.627	841.893	634.455
329.285	18.434	841.280	633.225
330.300	18.504	841.011	633.223
331.314	18.614	840.553	633.228
332.329	18.611	839.849	632.632
333.343	18.832	839.521	633.144
334.358	18.854	839.238	632.953
335.373	18.717	839.110	632.297
336.387	18.889	838.522	632.430
337.402	18.836	838.362	632.061
338.416	18.856	838.410	632.112
339.431	19.024	837.642	632.095
340.446	19.161	836.866	631.957
341.460	19.169	836.776	631.862
342.475	19.179	836.584	631.698
343.489	19.163	836.136	631.244
344.504	19.246	835.378	630.921
345.519	19.357	835.085	631.051
346.533	19.220	834.648	630.163
347.548	18.965	834.169	628.813
348.562	19.081	833.076	628.356
349.577	18.883	832.460	627.113
350.592	18.829	832.080	626.576
351.606	19.009	830.990	626.356
352.621	18.936	830.549	625.701
353.635	19.065	829.967	625.677
354.650	18.899	829.793	624.887
355.665	19.047	829.047	624.806
356.679	18.978	828.370	623.992
357.694	19.145	827.415	623.824
358.708	19.097	827.030	623.301
359.723	19.220	826.134	623.017
360.738	19.237	825.889	622.838
361.752	19.089	825.587	622.023
362.767	19.271	824.983	622.168
363.781	19.406	824.561	622.282
364.796	19.538	824.084	622.344
365.810	19.496	824.065	622.123
366.825	19.509	823.202	621.461
367.840	19.569	822.626	621.186
368.854	19.421	822.386	620.420
369.869	19.326	821.924	619.674
370.883	19.472	821.289	619.666
371.898	19.662	821.130	620.172
372.913	19.610	820.444	619.413
373.927	19.617	819.649	618.782
374.942	19.516	820.002	618.634
375.956	19.708	819.205	618.663
376.971	19.725	819.011	618.525
377.986	19.872	818.269	618.434
379.000	19.784	818.038	617.892
380.015	19.759	817.323	617.206
381.029	19.803	816.472	616.665
382.044	19.814	816.081	616.356
383.059	19.683	816.006	615.777
384.073	19.714	815.498	615.449
385.088	19.576	814.529	614.172
386.102	19.570	813.996	613.697
387.117	19.711	812.826	613.260
388.132	19.523	812.734	612.469
389.146	19.523	812.448	612.198
390.161	19.570	812.186	612.114
391.175	19.733	811.202	611.897
392.190	19.802	810.770	611.759
393.205	19.632	810.377	610.810
394.219	19.554	810.093	610.264
395.234	19.552	809.468	609.731
396.248	19.506	808.870	609.065
397.263	19.411	808.416	608.334
398.278	19.424	808.173	608.145
399.292	19.465	807.860	608.000
400.307	19.461	807.344	607.544
401.321	19.428	806.968	607.090
402.336	19.530	806.281	606.879
403.350	19.724	805.881	607.204
404.365	19.938	805.472	607.596
405.380	19.958	805.041	607.286
406.394	19.924	804.673	606.834
407.409	20.032	804.365	606.928
408.423	19.965	804.118	606.453
409.438	20.201	803.818	607.000
410.453	20.118	803.027	606.058
411.467	20.185	802.316	605.700
412.482	20.324	802.101	605.972
413.496	20.348	801.993	605.919
414.511	20.258	801.480	605.165
415.526	20.213	801.352	604.856
416.540	20.062	800.809	603.868
417.555	20.187	800.106	603.718
418.569	20.211	799.706	603.447
419.584	20.246	799.110	603.067
420.599	20.407	798.934	603.440
421.613	162.362	1371.785	1797.447
422.628	140.952	1455.227	1797.537
