DTS Sentinel unit serial number:	SN413079Multiplexer serial number:	ORYXHardware model number:	OX4-SRSoftware version number:	ORYX F/W v4.00 Oryx Data Collector v3.7.2.0data status	okinstallation	princeton_trtdifferential loss correction	single-endedforward channel	channel 1reverse channel	N/Adate	2019/09/12time	09:36:11forward acquisition time	60.00reverse acquisition time	0.00gamma	496.2192k internal	0.2300k external	0.2300temperature offset calibration	1.0043default loss term (dB/km)	0.3790temperature slope calibration	1.0000multiplexer offset coefficient	1.0000multiplexer slope coefficient	1.0000fibre end	0.00T internal ref (°C)	35.67T ext. ref 1 (°C)	1.81T ext. ref 2 (°C)	32.67length (m)	temperature (°C)	Stokes	anti-Stokes-747.200	-113.172	-0.287	0.058
-746.185	-146.802	0.177	-0.016
-745.171	800.000	-0.047	0.171
-744.156	-34.587	-0.394	0.220
-743.142	-200.000	-0.029	0.251
-742.127	416.425	0.113	0.246
-741.112	-12.242	-0.257	0.171
-740.098	800.000	-0.003	0.012
-739.083	124.596	-0.193	0.247
-738.069	209.914	0.129	0.206
-737.054	46.837	-0.090	-0.085
-736.039	-110.770	-0.196	0.041
-735.025	177.288	0.067	0.099
-734.010	347.337	0.034	-0.069
-732.996	-86.226	-0.175	0.055
-731.981	60.373	-0.307	-0.310
-730.966	236.231	-0.103	0.173
-729.952	189.320	-0.113	-0.172
-728.937	-106.614	0.060	-0.014
-727.923	800.000	-0.018	0.063
-726.908	-119.754	0.333	0.058
-725.894	-200.000	-0.017	-0.144
-724.879	-86.315	-0.227	-0.071
-723.864	-90.904	-0.023	-0.007
-722.850	-200.000	0.055	-0.248
-721.835	-59.209	0.087	0.038
-720.821	313.433	0.082	-0.156
-719.806	-126.915	-0.393	0.059
-718.791	-63.969	0.140	-0.058
-717.777	-170.830	0.310	0.011
-716.762	0.658	0.140	-0.102
-715.748	219.199	0.042	-0.068
-714.733	-200.000	0.073	0.389
-713.718	800.000	-0.144	-0.418
-712.704	0.215	0.105	0.077
-711.689	13.000	-0.291	0.229
-710.675	-182.124	0.507	-0.010
-709.660	-74.497	0.195	0.072
-708.645	-130.542	0.130	-0.018
-707.631	27.269	0.244	-0.208
-706.616	56.029	0.164	0.162
-705.602	-99.494	-0.302	0.077
-704.587	318.406	-0.084	0.163
-703.572	-175.932	-0.099	-0.003
-702.558	157.342	-0.068	-0.095
-701.543	-18.681	0.191	0.121
-700.529	-5.763	0.259	0.181
-699.514	40.797	0.122	0.112
-698.499	-62.158	0.124	-0.053
-697.485	800.000	-0.096	0.277
-696.470	800.000	-0.064	0.192
-695.456	-200.000	0.025	-0.127
-694.441	498.176	0.084	0.197
-693.426	66.320	0.162	-0.167
-692.412	110.336	0.175	0.214
-691.397	-87.273	0.077	0.024
-690.383	443.011	0.061	-0.136
-689.368	-37.847	0.092	0.050
-688.354	6.075	0.132	0.100
-687.339	-171.187	-0.545	-0.019
-686.324	-104.545	0.238	-0.056
-685.310	800.000	0.025	-0.109
-684.295	-138.068	-0.139	-0.016
-683.281	95.919	-0.243	-0.282
-682.266	31.625	0.086	-0.075
-681.251	-47.870	-0.059	0.029
-680.237	286.220	0.122	0.224
-679.222	47.709	0.097	-0.092
-678.208	-67.532	-0.143	-0.057
-677.193	11.303	-0.015	0.011
-676.178	800.000	-0.043	0.173
-675.164	800.000	-0.060	0.180
-674.149	-136.314	0.197	0.023
-673.135	-200.000	-0.018	0.110
-672.120	541.820	0.139	0.336
-671.105	-153.404	0.422	0.030
-670.091	800.000	-0.057	-0.220
-669.076	152.163	-0.066	-0.091
-668.062	-120.424	-0.300	-0.052
-667.047	12.253	0.219	0.172
-666.032	800.000	-0.077	0.312
-665.018	-67.133	-0.525	0.210
-664.003	-178.886	0.243	0.006
-662.989	-200.000	0.014	-0.305
-661.974	-68.654	-0.232	-0.091
-660.959	-200.000	0.039	0.225
-659.945	-90.068	0.167	-0.049
-658.930	-121.605	-0.443	-0.075
-657.916	180.338	0.164	0.244
-656.901	-136.318	0.348	-0.041
-655.886	-119.535	-0.278	0.049
-654.872	38.844	0.386	0.350
-653.857	8.524	-0.185	-0.141
-652.843	306.024	0.123	-0.233
-651.828	-114.270	0.186	0.036
-650.814	-100.124	0.112	-0.028
-649.799	-158.381	0.259	0.015
-648.784	-51.610	-0.342	-0.162
-647.770	26.265	0.025	0.021
-646.755	12.043	0.130	-0.101
-645.741	-94.557	-0.168	-0.046
-644.726	-18.943	0.102	0.064
-643.711	-81.588	-0.301	-0.101
-642.697	-200.000	-0.049	0.247
-641.682	-157.395	-0.158	-0.010
-640.668	-23.614	-0.201	-0.123
-639.653	-200.000	0.313	-0.000
-638.638	102.134	-0.288	-0.342
-637.624	-123.664	0.165	-0.026
-636.609	161.149	-0.263	-0.374
-635.595	-200.000	-0.040	0.265
-634.580	-90.242	-0.082	-0.024
-633.565	-45.836	0.341	0.171
-632.551	152.417	-0.187	-0.259
-631.536	-87.138	-0.331	0.102
-630.522	800.000	0.054	0.165
-629.507	4.351	-0.115	-0.086
-628.492	41.455	-0.239	-0.220
-627.478	-155.329	0.017	0.001
-626.463	-95.816	-0.059	0.016
-625.449	-106.892	-0.305	0.069
-624.434	554.820	0.067	-0.163
-623.419	99.191	0.096	0.113
-622.405	800.000	-0.039	0.152
-621.390	168.540	0.122	0.177
-620.376	47.358	0.093	-0.088
-619.361	-200.000	0.027	0.368
-618.346	386.397	0.060	-0.126
-617.332	-200.000	-0.309	-0.001
-616.317	-56.737	0.458	0.206
-615.303	-137.873	0.510	-0.058
-614.288	190.824	-0.311	-0.474
-613.273	245.220	-0.118	-0.202
-612.259	-200.000	-0.027	0.166
-611.244	23.589	0.254	0.212
-610.230	6.904	-0.308	0.232
-609.215	-51.423	0.340	0.161
-608.201	77.693	0.046	0.050
-607.186	-134.205	0.122	0.015
-606.171	81.057	0.092	-0.101
-605.157	-200.000	-0.024	-0.357
-604.142	-5.436	0.051	-0.036
-603.128	-200.000	-0.017	0.178
-602.113	-131.347	0.420	-0.056
-601.098	-19.814	0.327	0.205
-600.084	414.950	0.080	-0.174
-599.069	-164.083	0.239	0.011
-598.055	-200.000	0.016	-0.158
-597.040	58.150	-0.195	0.193
-596.025	20.226	0.164	-0.134
-595.011	-131.492	-0.213	0.028
-593.996	-81.231	0.171	0.057
-592.982	322.361	0.125	-0.241
-591.967	102.383	-0.034	-0.040
-590.952	77.696	0.247	-0.267
-589.938	800.000	0.072	-0.228
-588.923	-199.769	-0.124	-0.001
-587.909	-116.356	-0.266	-0.050
-586.894	-101.225	0.459	0.114
-585.879	-57.860	-0.280	0.124
-584.865	800.000	0.049	0.150
-583.850	-67.713	0.083	0.033
-582.836	-200.000	0.013	0.229
-581.821	92.552	-0.385	-0.440
-580.806	-200.000	0.073	0.405
-579.792	3.246	-0.060	0.045
-578.777	3.399	0.190	-0.140
-577.763	153.890	-0.214	-0.298
-576.748	-200.000	-0.287	-0.000
-575.733	53.846	0.062	0.060
-574.719	4.152	0.094	0.070
-573.704	-151.448	-0.272	0.020
-572.690	-200.000	0.005	0.164
-571.675	800.000	0.020	0.086
-570.661	-145.769	-0.212	0.019
-569.646	37.211	-0.200	0.180
-568.631	34.230	0.086	-0.076
-567.617	128.812	0.114	0.147
-566.602	-48.445	-0.089	0.043
-565.588	-118.186	0.175	0.032
-564.573	308.186	0.132	-0.250
-563.558	69.202	-0.173	0.180
-562.544	-124.609	-0.050	-0.008
-561.529	-200.000	-0.006	-0.146
-560.515	-97.869	0.204	-0.053
-559.500	-121.110	0.445	0.075
-558.485	127.462	0.010	0.013
-557.471	204.214	-0.119	0.187
-556.456	-165.967	0.327	-0.014
-555.442	-0.074	-0.138	-0.099
-554.427	-85.210	-0.313	0.099
-553.412	800.000	-0.091	0.292
-552.398	-20.034	0.243	-0.152
-551.383	-127.714	-0.264	-0.039
-550.369	40.076	0.164	0.150
-549.354	-200.000	-0.037	0.179
-548.339	-168.925	-0.169	-0.006
-547.325	800.000	0.119	-0.349
-546.310	-200.000	0.006	-0.125
-545.296	800.000	0.089	0.325
-544.281	2.340	0.240	0.176
-543.266	-200.000	-0.005	-0.464
-542.252	-66.783	-0.091	-0.037
-541.237	278.577	0.076	0.137
-540.223	18.964	-0.139	0.112
-539.208	-200.000	0.024	-0.253
-538.193	-17.104	-0.412	0.263
-537.179	30.021	-0.124	0.107
-536.164	800.000	-0.107	-0.384
-535.150	-26.521	0.276	0.164
-534.135	153.189	-0.124	0.171
-533.121	800.000	-0.034	-0.144
-532.106	800.000	-0.054	0.156
-531.091	-159.870	-0.107	0.006
-530.077	-136.650	0.163	-0.019
-529.062	-200.000	-0.002	-0.411
-528.048	800.000	0.041	0.147
-527.033	-200.000	0.045	-0.295
-526.018	800.000	0.132	-0.453
-525.004	-200.000	-0.077	-0.387
-523.989	225.538	0.161	-0.264
-522.975	-200.000	-0.014	-0.094
-521.960	-200.000	0.021	-0.188
-520.945	800.000	-0.030	-0.102
-519.931	725.458	0.012	-0.032
-518.916	-103.001	-0.199	0.048
-517.902	13.993	-0.154	-0.122
-516.887	800.000	-0.121	0.435
-515.872	-189.230	-0.301	-0.004
-514.858	800.000	-0.063	0.184
-513.843	-140.041	-0.323	0.034
-512.829	461.618	0.095	0.213
-511.814	-200.000	-0.012	-0.154
-510.799	-200.000	0.036	0.183
-509.785	800.000	0.060	0.258
-508.770	71.079	0.022	-0.023
-507.756	317.435	-0.059	-0.112
-506.741	-135.924	0.268	0.032
-505.726	-200.000	-0.020	-0.155
-504.712	-200.000	-0.039	0.386
-503.697	359.868	-0.125	-0.252
-502.683	686.778	0.066	0.175
-501.668	38.486	-0.168	0.151
-500.653	404.715	0.122	0.260
-499.639	-200.000	0.014	-0.204
-498.624	428.125	0.115	0.252
-497.610	-42.423	0.390	0.201
-496.595	-131.665	-0.162	0.022
-495.581	800.000	0.036	-0.152
-494.566	-101.371	0.297	-0.073
-493.551	-200.000	-0.041	0.401
-492.537	-114.369	-0.073	0.014
-491.522	-144.344	0.334	-0.031
-490.508	6.680	0.220	-0.165
-489.493	-137.469	0.119	-0.014
-488.478	-140.854	0.019	-0.002
-487.464	-37.626	-0.286	0.154
-486.449	-41.615	0.296	-0.153
-485.435	-200.000	0.043	0.217
-484.420	-200.000	0.005	0.197
-483.405	-200.000	-0.049	-0.314
-482.391	738.991	-0.126	-0.341
-481.376	-13.197	-0.055	0.036
-480.362	-200.000	0.015	-0.120
-479.347	-57.557	0.352	-0.156
-478.332	152.878	-0.199	0.275
-477.318	-77.993	0.199	-0.069
-476.303	-135.027	0.238	-0.029
-475.289	392.129	-0.025	0.052
-474.274	-33.058	0.244	-0.136
-473.259	-200.000	0.003	-0.076
-472.245	61.694	-0.104	0.105
-471.230	800.000	-0.030	-0.120
-470.216	-124.432	0.410	-0.064
-469.201	211.205	0.090	-0.143
-468.186	-54.068	-0.396	-0.182
-467.172	-200.000	-0.032	-0.189
-466.157	95.366	-0.174	0.200
-465.143	-108.945	-0.399	0.086
-464.128	800.000	0.023	0.095
-463.113	173.632	0.194	0.282
-462.099	19.492	-0.155	0.125
-461.084	124.975	-0.124	-0.158
-460.070	-51.311	-0.111	0.052
-459.055	22.506	-0.353	-0.291
-458.040	-172.895	0.270	0.008
-457.026	-200.000	0.021	0.189
-456.011	800.000	-0.110	0.321
-454.997	-200.000	0.038	-0.189
-453.982	192.888	0.113	0.172
-452.968	-200.000	0.031	0.147
-451.953	187.164	-0.102	0.154
-450.938	-102.791	-0.390	0.094
-449.924	250.738	0.196	0.336
-448.909	107.906	-0.192	-0.231
-447.895	-99.144	-0.067	0.017
-446.880	-200.000	-0.006	0.414
-445.865	-157.002	0.128	0.008
-444.851	-106.809	0.115	0.026
-443.836	205.778	-0.161	0.252
-442.822	-200.000	0.032	-0.247
-441.807	-200.000	-0.010	0.057
-440.792	800.000	0.045	-0.160
-439.778	333.252	0.026	-0.052
-438.763	-31.184	-0.220	0.125
-437.749	-65.729	0.187	0.075
-436.734	-61.621	-0.106	0.045
-435.719	-88.233	0.042	-0.013
-434.705	800.000	0.028	0.096
-433.690	-136.787	0.333	0.039
-432.676	-53.851	0.256	-0.118
-431.661	-200.000	-0.014	0.243
-430.646	-59.659	0.284	0.123
-429.632	800.000	0.075	0.243
-428.617	-184.470	0.468	0.008
-427.603	278.292	0.051	0.091
-426.588	-30.627	-0.135	-0.077
-425.573	-167.024	0.549	0.023
-424.559	16.767	0.214	0.171
-423.544	299.150	-0.122	0.226
-422.530	-97.638	-0.407	0.106
-421.515	429.387	0.042	0.093
-420.500	237.110	-0.113	0.189
-419.486	-122.899	-0.254	-0.041
-418.471	226.928	0.143	0.234
-417.457	-200.000	0.016	0.232
-416.442	189.409	-0.132	-0.199
-415.428	-41.352	-0.088	0.046
-414.413	248.269	-0.102	0.174
-413.398	-71.655	0.145	0.055
-412.384	77.858	-0.102	-0.110
-411.369	356.140	-0.201	0.402
-410.355	-110.235	0.320	-0.067
-409.340	800.000	0.099	0.358
-408.325	-200.000	0.019	-0.139
-407.311	-1.670	-0.148	-0.105
-406.296	800.000	-0.086	-0.272
-405.282	369.587	0.070	-0.143
-404.267	11.146	0.052	0.040
-403.252	-101.919	0.421	0.102
-402.238	99.788	0.112	-0.130
-401.223	-192.873	-0.163	-0.001
-400.209	394.216	-0.039	0.082
-399.194	-64.848	0.103	0.042
-398.179	-200.000	-0.025	-0.176
-397.165	-89.991	-0.300	-0.088
-396.150	193.874	0.154	-0.234
-395.136	800.000	-0.088	0.300
-394.121	730.014	0.072	-0.194
-393.106	-200.000	0.022	-0.191
-392.092	-71.017	-0.338	-0.128
-391.077	-130.689	0.212	-0.029
-390.063	201.502	-0.071	-0.110
-389.048	40.721	0.131	-0.119
-388.033	-130.015	0.204	0.028
-387.019	-22.114	0.050	-0.031
-386.004	507.272	0.062	0.145
-384.990	-200.000	-0.008	0.180
-383.975	-200.000	0.000	-0.096
-382.960	-79.728	0.164	0.056
-381.946	96.592	-0.032	-0.036
-380.931	189.407	0.082	-0.124
-379.917	110.351	0.181	0.218
-378.902	59.005	-0.198	-0.196
-377.888	-109.833	0.144	-0.030
-376.873	-125.985	-0.344	0.052
-375.858	-200.000	-0.001	-0.052
-374.844	-200.000	0.014	-0.142
-373.829	-200.000	0.027	0.222
-372.815	165.444	-0.098	-0.139
-371.800	800.000	0.094	-0.317
-370.785	-25.701	-0.303	-0.179
-369.771	307.084	-0.190	0.357
-368.756	22.855	-0.182	0.150
-367.742	-21.356	0.254	0.156
-366.727	-24.513	0.007	-0.004
-365.712	-108.774	0.062	-0.013
-364.698	-200.000	-0.037	-0.336
-363.683	47.251	-0.060	-0.056
-362.669	800.000	-0.082	-0.322
-361.654	709.847	-0.133	0.354
-360.639	-154.217	-0.151	-0.010
-359.625	-150.399	-0.195	0.015
-358.610	-109.085	0.242	0.052
-357.596	-200.000	0.015	0.099
-356.581	-200.000	-0.004	-0.173
-355.566	-28.148	-0.186	-0.108
-354.552	98.895	0.014	0.016
-353.537	800.000	-0.045	-0.180
-352.523	-110.831	0.205	-0.042
-351.508	-185.548	0.110	-0.002
-350.493	-174.116	-0.091	-0.003
-349.479	-200.000	-0.039	0.264
-348.464	-138.553	-0.259	-0.029
-347.450	800.000	0.054	-0.192
-346.435	-110.485	0.115	0.024
-345.420	800.000	0.081	0.262
-344.406	285.697	0.032	-0.057
-343.391	-175.020	0.129	-0.004
-342.377	88.542	0.073	-0.082
-341.362	253.021	0.095	-0.163
-340.348	462.756	0.034	-0.076
-339.333	63.544	0.171	-0.172
-338.318	125.375	0.230	-0.292
-337.304	-35.255	-0.218	-0.119
-336.289	-200.000	-0.041	0.243
-335.275	-200.000	-0.036	0.294
-334.260	131.226	-0.170	-0.219
-333.245	-86.233	0.373	-0.115
-332.231	800.000	-0.115	0.382
-331.216	-147.611	0.145	-0.012
-330.202	-107.036	0.391	-0.087
-329.187	-200.000	0.000	0.371
-328.172	800.000	0.067	0.237
-327.158	-157.924	-0.437	-0.026
-326.143	-57.962	0.093	0.041
-325.129	-120.817	-0.188	0.032
-324.114	-16.119	-0.201	0.128
-323.099	16.689	0.159	0.126
-322.085	-141.022	-0.134	-0.014
-321.070	610.443	0.031	-0.078
-320.056	-107.014	-0.085	-0.019
-319.041	-13.539	0.108	-0.070
-318.026	483.451	0.119	-0.272
-317.012	114.543	-0.052	0.063
-315.997	-116.756	0.266	-0.049
-314.983	-76.947	-0.055	0.019
-313.968	236.476	0.059	-0.099
-312.953	32.497	-0.104	-0.090
-311.939	-200.000	-0.024	0.172
-310.924	149.129	-0.083	0.113
-309.910	-150.646	0.132	-0.010
-308.895	-95.925	0.235	-0.063
-307.880	-200.000	-0.036	-0.293
-306.866	318.875	0.055	-0.105
-305.851	-23.525	0.079	0.048
-304.837	-91.278	0.133	-0.038
-303.822	-164.898	-0.099	-0.004
-302.807	-24.599	-0.170	-0.102
-301.793	-200.000	-0.040	-0.183
-300.778	-200.000	0.017	-0.241
-299.764	150.869	-0.011	-0.015
-298.749	-106.568	-0.433	-0.097
-297.735	213.166	-0.031	-0.049
-296.720	377.301	-0.078	-0.159
-295.705	504.048	-0.014	-0.032
-294.691	799.805	-0.128	-0.353
-293.676	800.000	-0.071	-0.270
-292.662	77.290	0.032	0.034
-291.647	-76.345	0.109	-0.039
-290.632	363.784	0.081	-0.164
-289.618	310.203	-0.077	0.144
-288.603	-37.924	0.137	0.073
-287.589	-109.593	-0.172	-0.036
-286.574	800.000	0.083	-0.247
-285.559	74.543	0.030	-0.032
-284.545	6.579	-0.113	-0.084
-283.530	-55.632	-0.174	-0.078
-282.516	800.000	0.068	-0.266
-281.501	535.051	-0.050	-0.119
-280.486	-29.463	-0.189	-0.108
-279.472	800.000	-0.035	0.104
-278.457	50.909	0.186	0.177
-277.443	-21.541	-0.176	-0.108
-276.428	-1.428	0.068	0.048
-275.413	-200.000	-0.020	0.164
-274.399	43.180	-0.344	0.315
-273.384	-200.000	0.002	-0.086
-272.370	-64.125	0.193	0.079
-271.355	-7.807	0.030	0.020
-270.340	78.827	-0.047	0.050
-269.326	-200.000	0.014	0.167
-268.311	-200.000	-0.001	0.165
-267.297	-121.293	0.354	0.059
-266.282	-200.000	-0.019	-0.098
-265.267	-88.398	-0.131	-0.039
-264.253	127.189	-0.120	0.153
-263.238	157.221	0.202	0.280
-262.224	283.264	-0.189	0.340
-261.209	-12.802	-0.066	-0.043
-260.195	-97.940	-0.136	-0.035
-259.180	-46.723	-0.102	0.050
-258.165	-15.055	-0.072	0.046
-257.151	-200.000	-0.048	0.275
-256.136	-84.210	-0.208	0.066
-255.122	800.000	-0.035	-0.125
-254.107	2.454	-0.055	-0.040
-253.092	654.019	0.104	-0.267
-252.078	131.245	0.245	0.315
-251.063	800.000	0.077	-0.233
-250.049	27.686	0.162	-0.137
-249.034	800.000	-0.039	-0.145
-248.019	-200.000	-0.044	-0.207
-247.005	9.393	-0.255	-0.193
-245.990	800.000	-0.040	0.139
-244.976	-188.339	-0.247	0.003
-243.961	800.000	0.137	-0.420
-242.946	-100.206	-0.185	0.046
-241.932	139.970	-0.136	0.179
-240.917	206.982	0.150	-0.234
-239.903	303.563	0.163	-0.302
-238.888	-146.177	-0.118	-0.010
-237.873	800.000	-0.013	-0.043
-236.859	415.370	-0.117	0.250
-235.844	-200.000	-0.004	0.131
-234.830	786.994	0.029	-0.078
-233.815	-82.388	-0.290	-0.094
-232.800	104.976	0.232	0.274
-231.786	407.714	-0.079	-0.166
-230.771	-25.053	-0.108	0.064
-229.757	800.000	-0.135	0.496
-228.742	-95.245	0.348	0.094
-227.727	-40.863	-0.057	0.030
-226.713	-115.968	0.244	0.045
-225.698	42.711	0.198	0.180
-224.684	159.147	0.033	-0.046
-223.669	-200.000	-0.030	-0.175
-222.655	163.891	0.197	0.277
-221.640	-14.017	-0.217	0.140
-220.625	-78.909	-0.316	0.108
-219.611	130.424	0.298	-0.381
-218.596	-200.000	-0.058	0.298
-217.582	-200.000	0.019	0.141
-216.567	-200.000	-0.035	0.332
-215.552	-182.159	0.124	0.002
-214.538	-122.047	0.198	-0.033
-213.523	723.396	-0.145	0.387
-212.509	-194.000	0.161	-0.001
-211.494	-27.714	0.242	0.140
-210.479	109.157	-0.133	-0.158
-209.465	-72.510	0.027	0.010
-208.450	800.000	-0.087	0.249
-207.436	-101.666	0.195	-0.047
-206.421	800.000	-0.069	-0.210
-205.406	-200.000	0.011	-0.164
-204.392	172.733	-0.141	-0.203
-203.377	-61.074	-0.134	0.057
-202.363	-200.000	0.079	-0.424
-201.348	104.995	-0.092	0.108
-200.333	24.837	0.107	0.088
-199.319	-200.000	-0.003	0.024
-198.304	63.687	0.112	-0.112
-197.290	195.655	-0.177	-0.268
-196.275	-175.113	-0.193	0.005
-195.260	174.500	0.148	0.214
-194.246	-90.107	-0.193	-0.056
-193.231	513.994	-0.072	-0.168
-192.217	117.342	0.167	0.205
-191.202	-200.000	0.008	0.148
-190.187	-59.826	-0.249	-0.106
-189.173	800.000	0.089	-0.315
-188.158	189.506	-0.083	-0.124
-187.144	-174.386	-0.499	0.014
-186.129	370.226	0.190	0.385
-185.114	130.996	-0.075	0.096
-184.100	6.132	0.140	-0.104
-183.085	-116.492	0.289	0.053
-182.071	-200.000	-0.019	-0.191
-181.056	-172.161	0.068	0.002
-180.042	-100.588	0.116	0.029
-179.027	265.208	0.128	0.222
-178.012	347.162	-0.093	-0.183
-176.998	-89.711	-0.064	-0.019
-175.983	102.089	0.226	-0.264
-174.969	112.418	-0.123	0.149
-173.954	-200.000	0.037	0.308
-172.939	-42.572	-0.030	0.015
-171.925	42.380	-0.063	-0.057
-170.910	800.000	-0.008	-0.036
-169.896	-111.385	0.419	0.085
-168.881	800.000	-0.085	-0.280
-167.866	6.220	0.154	0.114
-166.852	-200.000	-0.050	-0.231
-165.837	572.233	0.061	-0.149
-164.823	-123.231	0.182	0.029
-163.808	-76.446	-0.170	0.060
-162.793	-87.751	-0.207	-0.062
-161.779	-138.145	-0.178	0.020
-160.764	-28.044	-0.235	-0.136
-159.750	268.386	-0.228	0.397
-158.735	-114.556	-0.358	-0.068
-157.720	239.545	-0.124	-0.206
-156.706	9.575	0.116	0.087
-155.691	31.443	0.120	-0.103
-154.677	97.840	0.096	-0.110
-153.662	11.700	0.352	-0.270
-152.647	-9.703	-0.080	-0.053
-151.633	14.964	-0.103	0.080
-150.618	137.453	0.132	0.173
-149.604	-30.927	-0.298	-0.168
-148.589	-15.956	0.198	-0.126
-147.574	497.626	0.066	-0.152
-146.560	-154.495	0.122	0.008
-145.545	-30.159	0.120	0.068
-144.531	-44.100	-0.095	0.047
-143.516	362.925	-0.080	0.160
-142.502	800.000	0.053	0.210
-141.487	115.542	-0.117	-0.142
-140.472	-132.813	0.153	-0.020
-139.458	608.312	0.044	0.109
-138.443	-101.156	0.283	0.069
-137.429	108.459	0.074	0.088
-136.414	120.807	0.197	-0.244
-135.399	66.412	0.110	0.112
-134.385	-68.501	0.182	0.070
-133.370	-200.000	-0.041	0.242
-132.356	544.237	-0.166	-0.394
-131.341	375.964	-0.135	-0.274
-130.326	-57.869	-0.222	0.097
-129.312	-200.000	-0.015	0.150
-128.297	-200.000	0.054	0.443
-127.283	92.934	-0.037	0.042
-126.268	-82.983	-0.236	0.076
-125.253	-200.000	0.018	-0.136
-124.239	-200.000	-0.018	0.208
-123.224	411.691	0.013	-0.027
-122.210	800.000	0.072	0.267
-121.195	290.610	-0.156	-0.283
-120.180	-92.547	-0.021	-0.006
-119.166	229.408	-0.148	0.241
-118.151	24.104	0.207	-0.170
-117.137	-131.503	-0.226	0.030
-116.122	-200.000	-0.077	-0.382
-115.107	-64.734	0.311	0.125
-114.093	74.885	-0.176	0.184
-113.078	-21.965	-0.145	-0.088
-112.064	-66.175	-0.267	-0.106
-111.049	135.036	0.015	-0.020
-110.034	40.827	0.231	-0.207
-109.020	-20.969	0.063	-0.038
-108.005	-64.759	0.214	0.086
-106.991	-52.171	-0.117	0.054
-105.976	800.000	0.054	-0.148
-104.962	800.000	0.072	-0.210
-103.947	440.697	0.069	0.150
-102.932	-79.790	-0.144	0.048
-101.918	-21.100	0.257	0.156
-100.903	-31.463	0.198	-0.111
-99.889	-23.047	0.168	0.101
-98.874	-86.015	-0.106	0.033
-97.859	365.133	-0.120	-0.240
-96.845	54.064	0.116	0.111
-95.830	-35.194	0.291	-0.157
-94.816	-131.071	0.300	0.040
-93.801	800.000	0.022	0.085
-92.786	-65.646	0.235	-0.094
-91.772	5.405	-0.283	0.208
-90.757	-62.098	0.278	0.116
-89.743	-200.000	-0.014	0.230
-88.728	261.353	-0.147	0.253
-87.713	-69.728	0.281	0.107
-86.699	-127.326	-0.432	0.063
-85.684	-200.000	0.004	-0.367
-84.670	800.000	-0.013	-0.052
-83.655	378.635	0.203	0.414
-82.640	-68.704	-0.501	0.193
-81.626	-118.563	-0.064	-0.011
-80.611	278.533	0.012	-0.022
-79.597	-110.433	-0.295	0.061
-78.582	-44.545	0.164	0.081
-77.567	-96.860	-0.050	0.013
-76.553	-122.659	-0.143	-0.023
-75.538	54.543	-0.178	-0.170
-74.524	-122.916	-0.329	-0.053
-73.509	429.404	0.095	-0.204
-72.494	800.000	-0.058	0.237
-71.480	-17.683	0.232	0.145
-70.465	16.146	0.237	-0.185
-69.451	381.242	-0.068	-0.140
-68.436	431.804	-0.074	-0.160
-67.422	20.857	0.184	-0.148
-66.407	-60.506	0.308	-0.130
-65.392	-200.000	0.021	0.206
-64.378	134.200	0.066	0.085
-63.363	-112.242	-0.320	-0.064
-62.349	-200.000	-0.067	0.375
-61.334	-22.692	-1.235	-0.741
-60.319	115.430	0.284	0.345
-59.305	-200.000	-0.000	-0.975
-58.290	120.249	0.661	0.815
-57.276	688.492	0.707	1.837
-56.261	-200.000	91.076	532.502
-55.246	498.280	1384.910	3165.941
-54.232	148.681	2596.047	3482.201
-53.217	112.428	2199.361	2641.105
-52.203	46.727	1648.763	1519.960
-51.188	39.072	1380.320	1224.950
-50.173	35.809	1337.471	1167.126
-49.159	55.744	1383.967	1331.124
-48.144	60.148	1402.290	1375.853
-47.130	39.577	1358.041	1208.085
-46.115	35.865	1340.128	1169.597
-45.100	35.494	1335.940	1163.646
-44.086	35.637	1333.082	1161.976
-43.071	35.507	1330.862	1159.209
-42.057	35.532	1328.661	1157.396
-41.042	35.484	1326.941	1155.566
-40.027	35.572	1325.485	1154.780
-39.013	35.663	1323.027	1153.139
-37.998	35.607	1321.381	1151.323
-36.984	35.749	1319.425	1150.425
-35.969	35.783	1317.781	1149.144
-34.954	35.744	1316.104	1147.403
-33.940	35.758	1314.694	1146.212
-32.925	35.820	1313.578	1145.564
-31.911	35.822	1311.875	1144.047
-30.896	35.823	1310.246	1142.588
-29.881	35.798	1309.167	1141.450
-28.867	35.818	1307.679	1140.230
-27.852	35.759	1305.972	1138.344
-26.838	35.877	1304.520	1137.730
-25.823	35.744	1302.928	1135.513
-24.809	35.734	1301.771	1134.401
-23.794	35.815	1300.121	1133.394
-22.779	35.771	1298.744	1131.888
-21.765	35.721	1297.624	1130.577
-20.750	35.591	1296.926	1129.158
-19.736	35.600	1295.146	1127.619
-18.721	35.607	1294.109	1126.707
-17.706	35.599	1292.412	1125.142
-16.692	35.732	1290.814	1124.483
-15.677	35.688	1289.811	1123.305
-14.663	35.688	1289.098	1122.645
-13.648	35.513	1287.940	1120.567
-12.633	35.543	1287.193	1120.049
-11.619	35.498	1286.430	1119.076
-10.604	35.611	1284.976	1118.424
-9.590	35.532	1284.189	1117.236
-8.575	35.510	1283.284	1116.280
-7.560	35.503	1283.004	1115.949
-6.546	35.533	1281.566	1114.826
-5.531	35.512	1280.709	1113.915
-4.517	35.490	1279.933	1113.069
-3.502	35.596	1279.082	1112.901
-2.487	35.555	1277.762	1111.469
-1.473	35.668	1273.735	1108.572
-0.458	34.777	1258.751	1090.409
0.556	31.167	1240.986	1051.676
1.571	27.564	1245.648	1035.112
2.586	26.589	1260.829	1042.022
3.600	25.629	1248.796	1026.513
4.615	18.264	1171.896	923.621
5.629	6.888	1092.121	803.148
6.644	2.246	1069.819	763.531
7.659	1.813	1066.772	759.131
8.673	1.574	1065.471	756.946
9.688	1.609	1064.465	756.342
10.702	1.948	1062.643	756.661
11.717	8.363	1072.634	795.753
12.731	19.096	1088.423	861.394
13.746	24.416	1094.581	892.886
14.761	25.103	1095.235	896.777
15.775	25.048	1094.876	896.130
16.790	24.968	1093.312	894.370
17.804	24.840	1093.118	893.497
18.819	24.932	1092.858	893.663
19.834	25.086	1092.542	894.092
20.848	25.197	1091.645	893.834
21.863	24.944	1091.684	892.524
22.877	25.028	1090.255	891.698
23.892	24.945	1090.087	891.065
24.907	24.936	1089.303	890.301
25.921	25.084	1088.330	890.166
26.936	24.897	1086.946	888.026
27.950	24.858	1085.596	886.650
28.965	24.809	1083.332	884.481
29.980	24.896	1082.224	883.929
30.994	25.270	1080.757	884.494
32.009	25.162	1080.099	883.346
33.023	24.950	1078.592	880.991
34.038	25.091	1077.865	881.014
35.053	25.062	1077.428	880.438
36.067	25.165	1076.375	880.004
37.082	25.147	1075.881	879.435
38.096	25.200	1075.541	879.337
39.111	25.246	1074.742	878.831
40.126	25.085	1073.342	876.824
41.140	24.829	1071.147	873.701
42.155	24.534	1070.096	871.329
43.169	24.532	1069.464	870.725
44.184	24.714	1068.104	870.426
45.199	24.615	1066.755	868.772
46.213	24.686	1066.422	868.768
47.228	24.715	1065.761	868.292
48.242	24.918	1065.018	868.596
49.257	25.048	1063.845	868.190
50.271	25.047	1063.189	867.577
51.286	25.167	1062.471	867.492
52.301	25.074	1061.567	866.230
53.315	24.982	1060.715	865.011
54.330	24.990	1059.526	864.004
55.344	25.072	1058.803	863.736
56.359	24.909	1058.234	862.407
57.374	24.784	1057.053	860.767
58.388	24.805	1056.217	860.111
59.403	24.634	1055.641	858.746
60.417	24.512	1054.709	857.326
61.432	24.720	1053.667	857.402
62.447	24.793	1052.942	857.087
63.461	24.810	1052.602	856.815
64.476	24.678	1051.580	855.273
65.490	24.699	1050.493	854.416
66.505	24.738	1049.858	854.009
67.520	24.695	1049.405	853.360
68.534	24.489	1048.091	851.235
69.549	24.357	1046.605	849.323
70.563	24.260	1045.873	848.192
71.578	24.224	1045.567	847.698
72.593	24.172	1044.329	846.370
73.607	24.252	1043.999	846.408
74.622	24.476	1043.657	847.119
75.636	24.507	1043.142	846.774
76.651	24.401	1041.876	845.171
77.666	24.296	1041.341	844.164
78.680	24.305	1040.627	843.553
79.695	24.510	1039.980	843.922
80.709	24.747	1038.942	844.125
81.724	24.554	1038.428	842.721
82.739	24.702	1037.487	842.582
83.753	24.951	1037.037	843.316
84.768	25.352	1036.427	844.631
85.782	25.340	1035.548	843.782
86.797	25.133	1034.728	842.066
87.812	25.053	1033.922	840.963
88.826	25.239	1032.696	840.761
89.841	25.230	1032.033	840.106
90.855	25.451	1030.424	839.756
91.870	25.202	1029.781	837.994
92.884	25.159	1028.559	836.726
93.899	25.007	1027.526	835.099
94.914	25.201	1027.070	835.558
95.928	25.132	1025.786	834.120
96.943	24.893	1024.524	831.909
97.957	24.628	1023.602	829.858
98.972	24.618	1022.064	828.489
99.987	24.717	1021.753	828.626
101.001	24.969	1021.070	829.162
102.016	24.945	1020.198	828.273
103.030	24.867	1019.560	827.320
104.045	24.825	1018.097	825.868
105.060	24.671	1016.977	824.173
106.074	24.757	1016.492	824.103
107.089	25.101	1016.136	825.325
108.103	24.843	1015.235	823.334
109.118	24.811	1013.511	821.716
110.133	24.817	1012.329	820.713
111.147	24.556	1011.619	818.868
112.162	24.421	1010.334	817.140
113.176	24.676	1009.970	817.940
114.191	24.534	1009.489	816.828
115.206	24.278	1007.819	814.234
116.220	24.317	1007.119	813.773
117.235	24.361	1006.352	813.284
118.249	24.457	1005.456	812.927
119.264	24.353	1004.531	811.634
120.279	24.344	1004.284	811.321
121.293	24.453	1003.463	811.081
122.308	24.443	1002.315	810.037
123.322	24.320	1001.279	808.568
124.337	24.240	999.618	806.792
125.352	23.746	998.553	803.629
126.366	23.718	997.368	802.475
127.381	24.479	997.327	805.808
128.395	24.819	997.274	807.231
129.410	25.002	996.519	807.373
130.424	25.020	995.159	806.280
131.439	24.851	994.943	805.273
132.454	24.964	993.537	804.571
133.468	24.757	992.487	802.723
134.483	24.975	991.793	803.065
135.497	25.209	991.374	803.704
136.512	25.182	990.109	802.486
137.527	25.273	989.428	802.272
138.541	25.224	988.792	801.465
139.556	25.286	987.931	800.974
140.570	25.443	987.152	800.972
141.585	25.227	986.225	799.186
142.600	25.195	985.115	798.072
143.614	25.316	984.827	798.309
144.629	25.573	983.259	798.106
145.643	25.385	982.162	796.311
146.658	25.237	981.294	794.883
147.673	25.258	979.955	793.819
148.687	24.990	979.135	791.900
149.702	25.069	977.689	791.011
150.716	24.998	976.954	790.033
151.731	25.155	976.432	790.231
152.746	25.293	975.964	790.390
153.760	25.227	975.619	789.752
154.775	25.395	974.806	789.764
155.789	25.402	973.951	789.032
156.804	25.331	972.897	787.794
157.819	25.426	972.334	787.687
158.833	25.559	971.359	787.411
159.848	25.549	970.626	786.704
160.862	25.448	969.257	785.081
161.877	25.392	968.174	783.891
162.892	25.405	966.651	782.646
163.906	25.320	966.253	781.884
164.921	25.260	965.417	780.878
165.935	25.312	964.657	780.419
166.950	25.326	963.631	779.580
167.964	25.337	963.035	779.078
168.979	25.158	962.011	777.404
169.994	25.146	960.925	776.405
171.008	25.327	960.665	776.908
172.023	25.363	959.661	776.185
173.037	25.244	958.181	774.404
174.052	24.991	957.640	772.809
175.067	25.091	957.210	772.823
176.081	25.238	956.443	772.770
177.096	25.127	955.593	771.537
178.110	24.897	954.359	769.485
179.125	24.649	954.031	768.087
180.140	24.695	953.873	768.086
181.154	24.871	953.598	768.552
182.169	25.131	953.289	769.356
183.183	25.342	952.751	769.758
184.198	25.350	951.817	768.966
185.213	25.368	950.504	767.918
186.227	25.227	950.383	767.145
187.242	25.351	949.218	766.670
188.256	25.473	949.175	767.087
189.271	25.457	948.474	766.384
190.286	25.087	947.449	763.911
191.300	24.480	945.623	759.791
192.315	23.552	944.444	754.829
193.329	23.555	943.724	754.198
194.344	24.595	944.345	759.050
195.359	25.194	944.125	761.347
196.373	25.354	943.371	761.354
197.388	25.231	942.656	760.187
198.402	25.212	942.130	759.616
199.417	25.261	941.671	759.385
200.432	25.077	940.289	757.424
201.446	24.826	940.147	756.183
202.461	24.914	939.324	755.825
203.475	24.156	937.163	750.827
204.490	23.419	935.837	746.595
205.504	24.136	936.261	749.889
206.519	24.841	936.114	752.671
207.534	24.971	935.759	752.862
208.548	25.425	935.558	754.542
209.563	25.172	934.560	752.609
210.577	25.064	934.522	752.056
211.592	25.426	934.090	753.161
212.607	25.452	933.209	752.493
213.621	25.542	932.437	752.182
214.636	25.480	931.511	751.109
215.650	25.543	930.883	750.799
216.665	25.576	930.710	750.731
217.680	25.367	929.831	749.084
218.694	25.025	928.646	746.638
219.709	24.879	927.915	745.377
220.723	25.119	927.962	746.349
221.738	25.129	927.494	745.945
222.753	25.243	926.290	745.386
223.767	25.535	925.702	746.059
224.782	25.501	925.683	745.838
225.796	25.405	925.110	744.910
226.811	24.795	923.749	741.223
227.826	24.181	921.982	737.198
228.840	24.435	921.989	738.190
229.855	24.609	920.623	737.749
230.869	24.192	919.748	735.261
231.884	24.547	919.981	736.850
232.899	25.364	919.975	740.147
233.913	25.130	919.091	738.407
234.928	25.083	919.059	738.125
235.942	25.041	918.344	737.311
236.957	24.706	917.085	734.859
237.972	24.816	916.861	735.064
238.986	24.820	916.194	734.480
240.001	24.922	915.486	734.266
241.015	25.064	914.932	734.339
242.030	25.340	914.317	734.911
243.045	25.220	914.234	734.291
244.059	25.372	913.642	734.370
245.074	25.160	912.708	732.689
246.088	24.813	911.800	730.476
247.103	25.208	911.274	731.602
248.117	25.690	911.362	733.576
249.132	25.909	911.156	734.236
250.147	25.980	910.545	733.968
251.161	26.193	909.922	734.266
252.176	26.127	909.277	733.414
253.190	26.202	908.934	733.375
254.205	26.370	908.457	733.606
255.220	26.383	907.699	732.982
256.234	26.114	907.302	731.508
257.249	26.138	906.094	730.566
258.263	26.012	905.564	729.567
259.278	26.302	904.932	730.162
260.293	26.304	904.200	729.514
261.307	26.132	903.680	728.340
262.322	25.922	902.722	726.655
263.336	25.212	900.928	722.288
264.351	24.179	899.010	716.534
265.366	24.235	898.931	716.633
266.380	25.523	899.382	722.109
267.395	25.786	899.314	723.046
268.409	25.784	898.055	721.962
269.424	25.930	897.699	722.198
270.439	25.816	897.426	721.456
271.453	25.897	897.158	721.502
272.468	26.123	896.470	721.786
273.482	26.242	896.034	721.847
274.497	25.890	894.434	719.090
275.512	25.430	894.315	717.095
276.526	25.954	893.786	718.697
277.541	26.027	893.461	718.664
278.555	25.714	892.581	716.647
279.570	25.641	891.828	715.687
280.585	25.829	891.061	715.759
281.599	25.800	890.235	714.915
282.614	25.164	888.921	711.276
283.628	25.243	888.487	711.179
284.643	25.696	887.899	712.439
285.657	25.091	887.166	709.394
286.672	24.859	886.328	707.743
287.687	25.549	886.438	710.497
288.701	25.542	886.073	710.112
289.716	25.172	885.034	707.758
290.730	25.232	884.108	707.189
291.745	24.816	883.550	705.045
292.760	25.240	883.272	706.430
293.774	26.278	883.867	710.929
294.789	26.603	883.173	711.585
295.803	26.543	882.767	710.958
296.818	26.560	882.048	710.383
297.833	26.076	880.935	707.527
298.847	25.997	880.054	706.448
299.862	26.224	880.234	707.420
300.876	26.365	880.295	707.957
301.891	26.390	879.127	707.051
302.906	26.091	877.921	704.852
303.920	26.189	877.505	704.841
304.935	26.514	877.510	706.050
305.949	26.421	877.007	705.220
306.964	26.218	876.428	703.901
307.979	26.296	875.820	703.654
308.993	26.625	875.605	704.699
310.008	26.682	874.937	704.321
311.022	26.305	874.223	702.221
312.037	26.156	873.250	700.797
313.052	25.807	872.478	698.760
314.066	24.971	871.049	694.317
315.081	24.785	870.020	692.714
316.095	25.567	870.497	696.061
317.110	25.983	870.545	697.646
318.125	25.300	868.870	693.604
319.139	24.259	867.176	688.175
320.154	24.127	866.876	687.366
321.168	25.043	867.614	691.427
322.183	25.930	867.443	694.650
323.197	25.986	867.111	694.538
324.212	26.221	866.716	695.064
325.227	26.174	866.451	694.608
326.241	26.149	865.288	693.520
327.256	25.974	864.438	692.105
328.270	25.811	864.302	691.311
329.285	25.603	863.305	689.654
330.300	25.487	862.711	688.674
331.314	25.759	862.184	689.236
332.329	26.129	862.173	690.581
333.343	26.252	861.907	690.774
334.358	26.317	861.002	690.238
335.373	26.388	860.824	690.303
336.387	26.658	860.882	691.320
337.402	26.779	860.925	691.757
338.416	26.749	860.338	691.108
339.431	26.810	860.052	691.050
340.446	27.049	859.459	691.424
341.460	26.890	859.151	690.508
342.475	26.547	858.646	688.739
343.489	26.790	857.824	688.942
344.504	27.062	857.813	689.904
345.519	27.202	857.643	690.239
346.533	27.306	857.025	690.073
347.548	27.056	856.903	688.967
348.562	27.020	855.803	687.886
349.577	27.089	855.284	687.666
350.592	27.108	854.659	687.177
351.606	27.034	853.850	686.186
352.621	26.956	852.980	685.131
353.635	26.834	852.151	683.945
354.650	26.346	850.440	680.674
355.665	25.183	849.330	675.347
356.679	25.601	849.115	676.691
357.694	26.058	848.904	678.181
358.708	26.023	847.960	677.236
359.723	26.417	848.131	678.792
360.738	26.853	847.645	679.977
361.752	26.946	847.132	679.852
362.767	27.220	846.826	680.576
363.781	27.428	846.475	681.012
364.796	27.495	846.102	680.901
365.810	27.665	845.783	681.219
366.825	27.493	845.199	680.044
367.840	27.109	844.524	678.008
368.854	26.755	843.700	675.968
369.869	26.709	843.544	675.612
370.883	26.925	842.895	675.835
371.898	26.584	842.586	674.259
372.913	27.127	841.687	675.499
373.927	27.065	841.447	675.015
374.942	27.242	840.798	675.093
375.956	27.125	841.228	674.944
376.971	27.453	840.239	675.307
377.986	27.526	840.159	675.455
379.000	27.396	839.595	674.459
380.015	27.285	838.715	673.284
381.029	27.377	838.190	673.140
382.044	27.603	837.520	673.378
383.059	27.439	837.352	672.580
384.073	27.574	836.780	672.556
385.088	27.317	835.896	670.841
386.102	27.275	835.009	669.915
387.117	27.211	834.307	669.057
388.132	26.729	833.698	666.735
389.146	26.210	832.517	663.827
390.161	26.704	832.620	665.664
391.175	27.090	832.580	666.991
392.190	26.882	831.441	665.256
393.205	25.392	829.330	658.052
394.219	24.070	827.868	651.996
395.234	23.904	827.519	651.057
396.248	25.472	828.789	657.744
397.263	26.991	829.255	663.612
398.278	26.889	829.268	663.193
399.292	26.553	828.640	661.403
400.307	26.544	827.986	660.789
401.321	26.871	827.178	661.279
402.336	27.249	827.257	662.659
403.350	27.517	827.708	663.941
404.365	27.859	827.291	664.792
405.380	28.290	826.655	665.790
406.394	28.153	826.706	665.273
407.409	28.257	825.991	665.017
408.423	28.072	825.573	663.950
409.438	28.319	825.465	664.701
410.453	28.239	824.736	663.765
411.467	28.194	824.108	663.040
412.482	28.093	823.952	662.487
413.496	28.247	823.569	662.678
414.511	28.244	823.008	662.160
415.526	28.200	822.513	661.542
416.540	27.935	821.790	659.947
417.555	27.934	820.820	659.104
418.569	27.965	820.686	659.051
419.584	27.886	820.123	658.255
420.599	27.686	819.448	656.936
421.613	103.991	1281.468	1434.191
422.628	89.911	1348.774	1434.296
