DTS Sentinel unit serial number:	SN413079Multiplexer serial number:	ORYXHardware model number:	OX4-SRSoftware version number:	ORYX F/W v4.00 Oryx Data Collector v3.7.2.0data status	okinstallation	princeton_trtdifferential loss correction	single-endedforward channel	channel 1reverse channel	N/Adate	2019/09/16time	10:42:35forward acquisition time	60.00reverse acquisition time	0.00gamma	496.2192k internal	0.2302k external	0.2302temperature offset calibration	0.9965default loss term (dB/km)	0.3790temperature slope calibration	1.0000multiplexer offset coefficient	1.0000multiplexer slope coefficient	1.0000fibre end	0.00T internal ref (°C)	35.95T ext. ref 1 (°C)	12.65T ext. ref 2 (°C)	34.13length (m)	temperature (°C)	Stokes	anti-Stokes-747.200	-145.093	-0.192	-0.018
-746.185	-200.000	0.003	0.320
-745.171	99.366	-0.359	0.423
-744.156	800.000	0.093	-0.280
-743.142	362.099	0.113	-0.230
-742.127	437.357	0.144	0.320
-741.112	72.946	0.142	-0.152
-740.098	90.814	-0.351	-0.400
-739.083	-103.592	0.326	-0.078
-738.069	-200.000	0.003	-0.055
-737.054	-200.000	-0.021	-0.262
-736.039	-118.237	-0.312	-0.057
-735.025	9.053	0.327	0.252
-734.010	-200.000	0.009	-0.058
-732.996	691.051	-0.062	0.164
-731.981	116.517	0.119	0.149
-730.966	45.634	-0.187	-0.176
-729.952	41.595	-0.235	-0.217
-728.937	-200.000	-0.004	0.023
-727.923	800.000	-0.058	0.198
-726.908	142.926	-0.061	-0.083
-725.894	800.000	-0.075	-0.243
-724.879	-183.428	-0.242	-0.004
-723.864	800.000	-0.007	-0.031
-722.850	72.800	-0.155	-0.165
-721.835	259.983	0.085	0.149
-720.821	129.943	-0.191	-0.249
-719.806	-116.611	-0.117	0.022
-718.791	65.378	-0.118	-0.122
-717.777	-143.487	-0.168	-0.016
-716.762	-200.000	0.024	0.121
-715.748	44.270	-0.282	0.263
-714.733	214.692	0.126	0.203
-713.718	103.800	0.043	0.051
-712.704	-144.029	-0.219	0.021
-711.689	10.716	0.245	-0.191
-710.675	-57.727	0.126	-0.056
-709.660	-137.207	-0.247	-0.029
-708.645	-200.000	0.032	0.267
-707.631	-50.064	-0.169	-0.082
-706.616	-94.029	-0.192	0.054
-705.602	-120.782	0.032	0.005
-704.587	376.095	0.063	0.130
-703.572	-22.755	-0.109	0.067
-702.558	-124.461	-0.138	-0.022
-701.543	204.947	0.281	-0.444
-700.529	-53.761	-0.209	-0.097
-699.514	-200.000	0.008	-0.049
-698.499	-200.000	-0.045	0.219
-697.485	-200.000	-0.003	0.037
-696.470	800.000	0.033	-0.100
-695.456	-200.000	-0.238	0.001
-694.441	-139.952	-0.217	0.023
-693.426	735.899	-0.047	-0.128
-692.412	-200.000	0.022	-0.429
-691.397	-3.765	-0.279	0.197
-690.383	227.403	-0.108	0.178
-689.368	-7.755	0.255	-0.175
-688.354	70.684	-0.264	-0.277
-687.339	-169.637	-0.241	0.009
-686.324	50.683	0.154	0.148
-685.310	161.883	0.268	0.381
-684.295	234.085	-0.052	-0.087
-683.281	518.606	-0.054	-0.129
-682.266	-200.000	0.005	-0.181
-681.251	800.000	-0.077	-0.241
-680.237	213.957	-0.078	0.126
-679.222	-131.585	-0.262	0.035
-678.208	162.883	-0.175	0.250
-677.193	-9.938	0.340	-0.230
-676.178	283.651	-0.041	0.075
-675.164	-126.353	-0.096	-0.015
-674.149	504.472	0.045	-0.106
-673.135	-40.999	0.131	-0.069
-672.120	-166.910	0.293	0.012
-671.105	-31.486	0.208	-0.119
-670.091	-200.000	-0.004	0.383
-669.076	800.000	0.144	-0.409
-668.062	6.482	-0.209	0.158
-667.047	387.033	0.062	-0.130
-666.032	800.000	-0.138	-0.403
-665.018	-106.779	0.418	-0.094
-664.003	-19.461	-0.225	-0.141
-662.989	2.226	-0.180	0.132
-661.974	60.006	0.154	-0.154
-660.959	-200.000	-0.023	-0.421
-659.945	264.765	-0.028	-0.049
-658.930	-54.411	-0.215	0.099
-657.916	-47.381	0.263	0.130
-656.901	20.782	-0.063	0.052
-655.886	317.028	0.142	0.273
-654.872	-148.518	0.145	0.012
-653.857	279.313	-0.094	-0.171
-652.843	-60.172	-0.120	0.052
-651.828	-92.415	0.182	-0.052
-650.814	-200.000	0.034	-0.237
-649.799	-200.000	0.035	-0.562
-648.784	98.682	0.105	-0.124
-647.770	19.772	0.168	-0.137
-646.755	75.643	-0.060	-0.065
-645.741	800.000	-0.102	0.290
-644.726	242.627	-0.112	-0.191
-643.711	-122.940	-0.094	0.015
-642.697	-200.000	0.011	0.356
-641.682	-56.117	-0.213	-0.096
-640.668	296.923	0.211	0.393
-639.653	-56.058	0.275	0.124
-638.638	-200.000	0.016	0.129
-637.624	-77.143	-0.177	-0.063
-636.609	21.798	0.153	-0.126
-635.595	707.669	0.119	0.318
-634.580	-200.000	0.004	0.060
-633.565	696.002	0.151	-0.402
-632.551	-200.000	-0.035	-0.187
-631.536	174.095	-0.095	0.139
-630.522	-130.127	0.111	-0.015
-629.507	-51.814	-0.332	0.157
-628.492	129.217	0.149	-0.193
-627.478	800.000	-0.026	-0.085
-626.463	35.912	-0.074	-0.066
-625.449	-22.652	-0.281	-0.173
-624.434	114.213	-0.082	-0.101
-623.419	-121.841	0.111	0.019
-622.405	172.227	0.154	-0.225
-621.390	-132.640	0.169	-0.022
-620.376	-8.523	-0.174	0.118
-619.361	-200.000	0.019	0.133
-618.346	800.000	-0.053	0.213
-617.332	-119.463	-0.173	-0.030
-616.317	230.433	-0.088	-0.145
-615.303	-148.276	-0.112	0.009
-614.288	26.783	-0.050	0.042
-613.273	127.771	0.169	-0.217
-612.259	42.457	-0.087	0.080
-611.244	-79.057	-0.191	0.066
-610.230	800.000	0.004	-0.013
-609.215	-80.317	-0.176	-0.060
-608.201	-167.373	0.135	0.005
-607.186	69.797	-0.235	0.245
-606.171	800.000	-0.207	0.618
-605.157	243.670	-0.141	-0.239
-604.142	-99.402	0.073	0.019
-603.128	281.772	0.049	-0.088
-602.113	-111.796	0.222	-0.046
-601.098	-47.783	-0.173	0.085
-600.084	96.126	0.132	0.153
-599.069	800.000	-0.040	0.112
-598.055	-51.630	0.093	0.044
-597.040	-51.340	0.188	0.089
-596.025	-26.206	0.032	0.019
-595.011	-65.091	-0.162	-0.066
-593.996	-73.367	0.295	-0.109
-592.982	-111.497	0.071	0.015
-591.967	800.000	0.056	-0.187
-590.952	800.000	-0.052	-0.151
-589.938	333.274	0.341	0.667
-588.923	800.000	-0.094	0.320
-587.909	-174.278	0.137	0.004
-586.894	453.872	-0.063	0.140
-585.879	-99.730	-0.110	0.028
-584.865	-84.304	0.142	0.046
-583.850	-31.889	-0.242	0.137
-582.836	-119.631	-0.199	-0.035
-581.821	-41.500	-0.473	-0.246
-580.806	76.947	0.240	-0.258
-579.792	20.891	-0.045	-0.037
-578.777	-200.000	0.029	-0.208
-577.763	284.357	0.142	-0.259
-576.748	195.874	0.140	-0.216
-575.733	-52.773	-0.156	-0.073
-574.719	-200.000	-0.007	-0.208
-573.704	561.075	0.056	-0.136
-572.690	-200.000	-0.013	0.227
-571.675	220.655	-0.055	0.089
-570.661	603.475	-0.126	-0.317
-569.646	789.235	0.086	-0.238
-568.631	375.987	0.044	0.090
-567.617	-47.427	-0.263	-0.129
-566.602	5.986	0.053	-0.040
-565.588	332.691	-0.090	0.176
-564.573	-38.497	-0.179	0.096
-563.558	12.194	-0.207	-0.162
-562.544	-13.451	-0.101	0.066
-561.529	378.117	-0.031	-0.065
-560.515	-60.583	0.049	0.021
-559.500	-56.808	-0.157	0.070
-558.485	-200.000	0.054	0.274
-557.471	-3.991	0.113	0.079
-556.456	137.659	0.105	0.139
-555.442	-28.422	0.177	-0.103
-554.427	-36.081	-0.119	-0.065
-553.412	124.324	0.062	0.078
-552.398	-104.499	-0.099	0.023
-551.383	800.000	0.110	-0.323
-550.369	-42.829	-0.281	-0.144
-549.354	-109.017	0.469	-0.101
-548.339	-200.000	0.016	-0.199
-547.325	-56.595	-0.281	0.126
-546.310	139.872	-0.108	-0.144
-545.296	382.945	-0.074	-0.154
-544.281	166.767	-0.072	-0.104
-543.266	39.691	0.064	-0.058
-542.252	-200.000	-0.034	0.281
-541.237	-12.994	-0.190	0.125
-540.223	-139.347	-0.298	0.032
-539.208	-6.023	0.228	0.158
-538.193	-200.000	-0.002	-0.041
-537.179	-64.069	-0.067	0.028
-536.164	-200.000	0.016	0.148
-535.150	800.000	-0.070	0.300
-534.135	-119.207	-0.102	0.018
-533.121	-179.412	0.234	0.005
-532.106	-30.892	-0.180	-0.103
-531.091	-109.692	-0.050	0.011
-530.077	-72.963	-0.156	-0.058
-529.062	-116.810	-0.098	-0.018
-528.048	-200.000	-0.002	0.149
-527.033	-122.111	0.109	-0.018
-526.018	800.000	0.067	-0.261
-525.004	254.674	0.040	-0.069
-523.989	-4.909	-0.390	0.272
-522.975	-115.087	-0.156	-0.030
-521.960	-50.096	0.186	0.089
-520.945	112.931	0.203	-0.249
-519.931	-198.413	0.253	-0.001
-518.916	-200.000	0.042	0.423
-517.902	787.058	-0.047	-0.130
-516.887	-20.096	-0.113	-0.071
-515.872	-130.108	0.094	-0.013
-514.858	138.831	0.160	0.212
-513.843	-12.196	0.089	-0.059
-512.829	-200.000	0.026	-0.141
-511.814	55.768	0.111	0.109
-510.799	84.557	0.076	-0.084
-509.785	-56.554	0.319	-0.143
-508.770	443.602	0.068	-0.151
-507.756	-28.697	-0.339	-0.197
-506.741	-200.000	0.017	0.099
-505.726	800.000	0.072	0.227
-504.712	-3.849	0.298	-0.209
-503.697	-49.619	0.143	0.069
-502.683	-163.028	0.389	0.019
-501.668	-165.106	-0.097	0.004
-500.653	-24.386	0.150	0.090
-499.639	-77.890	-0.081	0.028
-498.624	-173.366	-0.272	-0.008
-497.610	-200.000	0.020	-0.387
-496.595	-134.373	0.222	-0.027
-495.581	800.000	0.070	0.231
-494.566	-89.059	-0.349	-0.104
-493.551	-136.791	-0.255	0.030
-492.537	198.901	-0.074	-0.114
-491.522	50.560	-0.045	0.043
-490.508	-17.815	-0.452	0.286
-489.493	292.334	-0.123	-0.227
-488.478	800.000	0.061	0.190
-487.464	151.441	-0.035	-0.048
-486.449	8.342	-0.309	0.234
-485.435	-200.000	-0.003	-0.082
-484.420	214.564	-0.215	0.344
-483.405	-200.000	-0.009	0.051
-482.391	800.000	-0.046	0.181
-481.376	486.313	0.206	0.473
-480.362	-200.000	0.018	0.322
-479.347	-47.421	-0.112	-0.055
-478.332	37.113	0.099	-0.088
-477.318	-39.584	0.374	0.198
-476.303	66.329	-0.099	-0.102
-475.289	109.526	-0.120	-0.146
-474.274	-45.933	0.250	-0.124
-473.259	11.003	-0.400	-0.308
-472.245	-191.650	0.237	-0.002
-471.230	127.493	-0.213	-0.273
-470.216	-200.000	0.045	-0.346
-469.201	-200.000	-0.042	0.222
-468.186	-67.661	0.212	0.084
-467.172	83.068	-0.035	0.039
-466.157	-200.000	0.042	-0.241
-465.143	800.000	-0.030	0.105
-464.128	2.239	0.244	0.178
-463.113	75.870	0.260	0.277
-462.099	-105.418	0.013	-0.003
-461.084	555.916	-0.061	0.148
-460.070	30.173	-0.237	-0.204
-459.055	-125.902	0.116	0.018
-458.040	663.359	0.087	0.226
-457.026	-200.000	-0.026	0.268
-456.011	39.151	-0.057	-0.051
-454.997	169.618	-0.126	-0.181
-453.982	-200.000	-0.004	0.096
-452.968	183.462	0.238	0.355
-451.953	-200.000	-0.014	0.345
-450.938	406.122	0.045	0.095
-449.924	213.113	0.151	-0.240
-448.909	373.095	0.096	0.197
-447.895	-58.948	0.137	-0.060
-446.880	-38.374	0.057	0.030
-445.865	144.899	-0.351	0.473
-444.851	-81.430	-0.404	0.134
-443.836	-89.835	0.181	0.053
-442.822	653.697	-0.093	0.239
-441.807	-24.465	-0.252	0.151
-440.792	-200.000	0.000	-0.078
-439.778	-59.353	-0.338	0.146
-438.763	800.000	0.163	-0.535
-437.749	-200.000	-0.074	-0.403
-436.734	-81.643	0.284	0.094
-435.719	-146.257	-0.252	-0.022
-434.705	800.000	-0.119	-0.360
-433.690	125.702	0.070	0.089
-432.676	-65.981	-0.224	0.090
-431.661	-200.000	0.012	0.190
-430.646	800.000	-0.016	0.057
-429.632	-8.883	0.084	-0.056
-428.617	800.000	-0.080	0.290
-427.603	370.575	-0.168	-0.343
-426.588	-115.122	-0.032	-0.006
-425.573	104.539	0.096	0.114
-424.559	-200.000	0.016	-0.480
-423.544	-200.000	0.024	0.278
-422.530	234.878	-0.160	0.266
-421.515	5.179	0.200	-0.148
-420.500	-133.429	0.162	-0.020
-419.486	-193.908	0.230	-0.002
-418.471	-8.458	0.207	0.140
-417.457	-46.169	-0.264	0.131
-416.442	45.025	0.219	0.203
-415.428	2.603	0.170	-0.124
-414.413	-92.694	-0.358	-0.101
-413.398	9.290	-0.180	0.137
-412.384	-45.987	0.146	0.072
-411.369	183.279	-0.043	0.064
-410.355	-179.142	0.166	0.004
-409.340	63.275	0.083	0.083
-408.325	62.845	0.190	0.191
-407.311	507.043	0.208	-0.485
-406.296	-65.862	-0.349	-0.140
-405.282	-200.000	-0.033	0.293
-404.267	478.315	0.055	-0.124
-403.252	-200.000	0.177	-0.001
-402.238	-8.952	-0.148	0.100
-401.223	-158.530	-0.141	-0.008
-400.209	-20.710	-0.150	-0.093
-399.194	-200.000	-0.006	0.067
-398.179	30.103	0.184	-0.158
-397.165	-144.792	0.238	-0.022
-396.150	-111.775	0.275	-0.056
-395.136	-122.916	-0.494	-0.080
-394.121	-49.796	0.170	-0.081
-393.106	-200.000	-0.036	-0.190
-392.092	28.297	-0.111	-0.095
-391.077	800.000	-0.095	0.264
-390.063	-19.133	0.176	0.110
-389.048	800.000	0.080	0.350
-388.033	13.688	-0.131	0.103
-387.019	636.856	-0.115	-0.295
-386.004	447.619	-0.044	0.098
-384.990	-130.894	0.017	0.002
-383.975	272.860	0.042	-0.074
-382.960	-97.574	0.144	-0.037
-381.946	-87.985	-0.146	0.044
-380.931	-145.125	-0.221	0.020
-379.917	800.000	0.019	0.080
-378.902	150.062	0.283	-0.386
-377.888	76.051	0.120	-0.128
-376.873	-123.315	-0.209	-0.034
-375.858	368.567	0.037	-0.075
-374.844	-23.206	0.199	0.120
-373.829	-66.116	-0.152	0.061
-372.815	-80.732	-0.120	0.040
-371.800	67.944	0.184	-0.189
-370.785	-173.695	-0.134	-0.004
-369.771	-34.746	0.202	0.111
-368.756	133.069	-0.213	0.276
-367.742	-48.784	-0.265	0.128
-366.727	113.143	-0.102	0.124
-365.712	800.000	0.031	0.120
-364.698	-119.864	-0.304	0.053
-363.683	-200.000	-0.050	0.283
-362.669	422.557	0.021	-0.046
-361.654	66.298	0.285	-0.290
-360.639	77.295	0.228	-0.243
-359.625	-200.000	0.006	0.066
-358.610	-52.581	0.162	-0.075
-357.596	35.613	0.365	0.322
-356.581	-200.000	0.002	-0.203
-355.566	-164.406	0.239	-0.011
-354.552	-131.142	-0.232	0.031
-353.537	-200.000	0.031	-0.230
-352.523	-200.000	-0.020	-0.331
-351.508	-200.000	-0.062	-0.291
-350.493	587.402	0.019	0.048
-349.479	557.150	0.107	0.258
-348.464	17.274	-0.045	-0.036
-347.450	-21.386	0.133	-0.082
-346.435	800.000	0.048	0.144
-345.420	129.328	-0.066	0.085
-344.406	53.985	-0.019	-0.019
-343.391	-107.301	0.097	-0.021
-342.377	-51.184	-0.225	-0.106
-341.362	200.476	0.045	0.069
-340.348	166.711	-0.019	-0.027
-339.333	-117.955	0.214	-0.038
-338.318	-107.171	-0.295	-0.065
-337.304	-200.000	0.026	-0.234
-336.289	-200.000	-0.036	-0.186
-335.275	-186.995	-0.181	-0.003
-334.260	-200.000	0.013	0.138
-333.245	-65.402	0.201	0.081
-332.231	10.945	0.191	-0.147
-331.216	114.258	-0.246	-0.300
-330.202	-129.806	-0.211	0.029
-329.187	106.733	-0.191	-0.227
-328.172	565.777	-0.047	-0.114
-327.158	443.776	0.080	0.176
-326.143	-86.416	-0.133	-0.041
-325.129	43.967	-0.143	-0.131
-324.114	115.799	0.173	-0.212
-323.099	99.229	-0.078	-0.090
-322.085	-90.570	-0.169	-0.049
-321.070	-172.836	0.272	0.008
-320.056	-91.159	0.152	0.044
-319.041	-13.444	0.075	-0.049
-318.026	17.477	-0.094	-0.075
-317.012	-200.000	0.034	-0.199
-315.997	-15.305	0.132	0.085
-314.983	18.237	-0.183	0.146
-313.968	-42.481	0.073	-0.037
-312.953	-0.387	-0.099	0.070
-311.939	-40.077	-0.118	0.061
-310.924	4.910	0.138	0.102
-309.910	-74.051	-0.148	-0.054
-308.895	-162.438	0.126	0.006
-307.880	92.433	-0.147	-0.166
-306.866	216.908	-0.116	-0.185
-305.851	-51.917	0.219	0.102
-304.837	-200.000	-0.451	-0.000
-303.822	8.694	0.080	-0.060
-302.807	642.055	-0.095	-0.243
-301.793	-151.084	0.057	-0.004
-300.778	31.050	0.307	0.264
-299.764	11.638	-0.149	0.115
-298.749	800.000	0.046	0.188
-297.735	-138.500	-0.128	0.014
-296.720	-200.000	-0.033	-0.149
-295.705	800.000	0.064	-0.215
-294.691	-57.028	-0.151	0.067
-293.676	-22.226	-0.189	-0.115
-292.662	336.850	-0.018	0.036
-291.647	-40.546	-0.156	0.081
-290.632	-107.739	-0.228	-0.050
-289.618	724.527	0.110	0.293
-288.603	-192.496	0.337	0.003
-287.589	-14.954	0.057	0.037
-286.574	-200.000	-0.001	-0.206
-285.559	32.774	-0.152	0.131
-284.545	800.000	-0.066	0.273
-283.530	-136.122	0.206	0.024
-282.516	-200.000	0.034	-0.305
-281.501	-118.226	-0.057	-0.010
-280.486	-200.000	-0.008	0.081
-279.472	87.680	0.202	0.224
-278.457	-66.553	-0.198	-0.079
-277.443	-148.576	0.211	0.017
-276.428	-200.000	-0.027	-0.146
-275.413	800.000	-0.050	-0.159
-274.399	800.000	-0.053	-0.206
-273.384	182.122	0.203	0.300
-272.370	-20.108	-0.178	-0.110
-271.355	22.522	-0.248	0.203
-270.340	57.083	0.146	-0.143
-269.326	-138.181	-0.274	0.030
-268.311	197.996	-0.258	0.395
-267.297	-54.352	0.159	-0.072
-266.282	44.466	-0.185	-0.170
-265.267	-200.000	-0.006	0.338
-264.253	17.037	0.060	-0.047
-263.238	109.507	-0.113	0.135
-262.224	-41.682	0.086	-0.044
-261.209	-82.636	-0.210	0.068
-260.195	800.000	-0.117	-0.354
-259.180	-112.914	0.392	-0.078
-258.165	800.000	-0.045	-0.129
-257.151	800.000	0.043	-0.163
-256.136	-77.391	-0.151	0.052
-255.122	-5.674	-0.388	-0.266
-254.107	800.000	0.037	-0.134
-253.092	-200.000	-0.015	-0.503
-252.078	2.143	0.090	-0.065
-251.063	-140.498	-0.143	0.015
-250.049	-115.278	0.154	0.029
-249.034	-96.246	0.024	-0.006
-248.019	329.012	-0.079	0.151
-247.005	67.956	-0.128	-0.131
-245.990	-158.837	0.385	-0.022
-244.976	800.000	-0.132	-0.373
-243.961	-34.767	-0.194	-0.106
-242.946	-153.052	0.235	-0.016
-241.932	-5.989	0.194	-0.132
-240.917	104.722	0.221	-0.261
-239.903	38.612	0.251	0.224
-238.888	599.718	0.144	-0.358
-237.873	-95.890	0.196	0.052
-236.859	67.023	0.113	-0.115
-235.844	249.438	0.144	-0.243
-234.830	-40.409	0.100	-0.052
-233.815	800.000	0.109	-0.359
-232.800	257.108	-0.072	0.123
-231.786	800.000	0.081	-0.273
-230.771	20.786	-0.225	0.182
-229.757	-100.448	-0.047	0.012
-228.742	126.038	0.095	0.120
-227.727	50.128	0.018	0.017
-226.713	800.000	0.118	-0.383
-225.698	-130.089	-0.215	-0.029
-224.684	-6.919	-0.128	0.087
-223.669	800.000	-0.060	0.214
-222.655	800.000	0.046	0.177
-221.640	451.075	0.228	0.503
-220.625	100.278	0.238	-0.276
-219.611	-62.739	0.183	0.076
-218.596	-147.387	-0.153	-0.013
-217.582	-200.000	-0.000	0.287
-216.567	-125.069	0.383	0.059
-215.552	95.492	0.152	-0.173
-214.538	-56.720	-0.419	-0.185
-213.523	-34.257	0.171	0.094
-212.509	-200.000	-0.026	0.509
-211.494	182.104	0.120	0.176
-210.479	-81.765	-0.117	-0.038
-209.465	174.894	0.137	0.197
-208.450	432.506	-0.146	0.316
-207.436	12.877	0.290	0.224
-206.421	-12.286	0.097	0.063
-205.406	-32.605	0.101	-0.056
-204.392	6.488	0.297	0.220
-203.377	-200.000	0.019	-0.291
-202.363	395.120	0.054	-0.113
-201.348	-63.677	-0.531	0.217
-200.333	307.220	-0.234	0.436
-199.319	-119.167	0.233	0.041
-198.304	173.481	0.166	-0.238
-197.290	212.595	0.046	-0.072
-196.275	167.861	-0.113	0.161
-195.260	-200.000	-0.058	0.373
-194.246	-24.913	-0.179	-0.106
-193.231	-102.566	0.148	-0.035
-192.217	-82.896	0.089	0.029
-191.202	318.225	0.110	-0.209
-190.187	-16.884	0.096	0.061
-189.173	-176.403	-0.162	0.004
-188.158	581.012	0.144	-0.353
-187.144	94.853	0.205	0.232
-186.129	13.209	-0.236	0.182
-185.114	-102.662	-0.050	0.012
-184.100	-36.376	0.095	-0.051
-183.085	-200.000	-0.052	0.392
-182.071	62.106	0.113	0.112
-181.056	171.786	0.198	0.284
-180.042	475.523	0.089	-0.200
-179.027	772.775	-0.026	0.070
-178.012	-124.499	0.156	-0.024
-176.998	50.382	-0.085	-0.080
-175.983	78.429	0.355	-0.378
-174.969	80.909	-0.075	0.081
-173.954	-80.626	-0.205	-0.068
-172.939	-67.300	-0.123	0.048
-171.925	177.573	0.149	0.216
-170.910	-100.482	-0.191	0.047
-169.896	-200.000	0.019	0.302
-168.881	-155.989	-0.113	0.007
-167.866	-27.947	-0.237	0.136
-166.852	13.214	-0.202	-0.156
-165.837	2.100	0.069	0.049
-164.823	-182.397	0.106	0.002
-163.808	513.377	-0.083	0.192
-162.793	-200.000	0.018	0.296
-161.779	168.745	0.129	-0.183
-160.764	-200.000	0.022	-0.186
-159.750	-200.000	0.078	-0.418
-158.735	-187.498	0.277	-0.004
-157.720	-200.000	-0.001	-0.133
-156.706	-200.000	0.092	-0.465
-155.691	5.507	0.345	0.254
-154.677	-73.441	0.340	0.124
-153.662	-200.000	-0.024	-0.240
-152.647	-92.800	-0.101	-0.028
-151.633	-174.250	-0.226	-0.007
-150.618	-72.102	-0.176	-0.065
-149.604	-200.000	-0.060	0.330
-148.589	184.622	-0.151	0.223
-147.574	-176.838	0.312	-0.008
-146.560	-98.071	-0.577	-0.148
-145.545	-136.792	-0.227	0.026
-144.531	31.265	0.049	0.042
-143.516	180.562	-0.152	-0.223
-142.502	54.069	0.274	0.262
-141.487	-32.378	0.273	-0.152
-140.472	-163.685	0.054	0.003
-139.458	-20.684	-0.123	-0.075
-138.443	90.118	0.130	-0.145
-137.429	53.882	0.100	0.095
-136.414	-33.610	0.145	-0.080
-135.399	-73.599	0.178	-0.065
-134.385	-43.108	0.202	-0.102
-133.370	258.529	-0.075	0.129
-132.356	-200.000	0.031	-0.154
-131.341	-53.801	0.287	-0.130
-130.326	166.830	0.146	0.206
-129.312	-90.160	0.307	-0.089
-128.297	-31.336	-0.325	-0.182
-127.283	-40.268	0.205	0.106
-126.268	80.813	-0.091	-0.098
-125.253	17.528	0.162	-0.128
-124.239	24.242	-0.154	-0.127
-123.224	-200.000	0.033	-0.196
-122.210	800.000	0.041	0.116
-121.195	800.000	0.037	0.122
-120.180	-94.526	-0.408	-0.110
-119.166	-126.527	-0.197	0.029
-118.151	800.000	-0.036	-0.149
-117.137	-81.528	-0.397	0.130
-116.122	-89.403	-0.520	0.152
-115.107	-71.910	0.091	0.034
-114.093	-152.299	0.558	-0.040
-113.078	169.369	-0.102	0.145
-112.064	30.121	0.115	-0.097
-111.049	22.560	0.273	-0.222
-110.034	800.000	-0.080	0.281
-109.020	246.165	-0.102	-0.171
-108.005	44.739	0.152	0.139
-106.991	690.463	-0.064	0.165
-105.976	800.000	0.036	0.102
-104.962	-200.000	0.029	-0.213
-103.947	-65.895	0.137	0.055
-102.932	-72.686	0.214	0.078
-101.918	-200.000	-0.034	0.188
-100.903	385.767	0.060	-0.123
-99.889	139.303	-0.247	0.323
-98.874	-200.000	-0.002	-0.063
-97.859	-71.842	0.142	-0.053
-96.845	-200.000	-0.167	0.001
-95.830	-107.275	0.452	-0.099
-94.816	-200.000	0.021	-0.129
-93.801	-165.932	-0.087	-0.004
-92.786	-128.892	0.184	-0.026
-91.772	380.186	0.049	0.100
-90.757	357.982	-0.124	-0.246
-89.743	63.831	0.097	-0.096
-88.728	158.035	-0.065	-0.090
-87.713	-200.000	0.030	0.240
-86.699	397.107	0.161	0.335
-85.684	-200.000	0.003	0.211
-84.670	-80.284	0.051	-0.017
-83.655	-200.000	-0.012	0.348
-82.640	800.000	-0.039	-0.160
-81.626	-47.569	-0.173	-0.083
-80.611	-69.301	-0.156	0.059
-79.597	-143.130	-0.145	0.014
-78.582	38.667	-0.295	-0.262
-77.567	-136.587	0.230	0.026
-76.553	20.359	0.265	0.212
-75.538	-200.000	0.012	0.319
-74.524	87.067	0.407	-0.446
-73.509	219.728	-0.137	0.218
-72.494	-200.000	-0.009	0.184
-71.480	15.003	-0.076	0.059
-70.465	-20.606	-0.234	0.143
-69.451	-114.259	0.163	-0.031
-68.436	800.000	-0.050	0.162
-67.422	244.007	0.033	-0.054
-66.407	-59.982	-0.167	-0.071
-65.392	-200.000	-0.051	-0.286
-64.378	-53.991	0.127	-0.057
-63.363	-116.924	-0.231	-0.042
-62.349	-70.210	-0.238	0.090
-61.334	74.552	-0.872	-0.910
-60.319	92.435	0.322	0.360
-59.305	800.000	-0.273	-0.800
-58.290	800.000	0.303	0.933
-57.276	667.120	0.732	1.877
-56.261	-200.000	90.048	514.128
-55.246	447.437	1425.364	3111.790
-54.232	142.752	2637.380	3476.524
-53.217	109.413	2240.827	2661.998
-52.203	46.795	1676.961	1545.446
-51.188	39.126	1405.890	1247.165
-50.173	36.152	1362.262	1190.092
-49.159	55.246	1407.893	1350.153
-48.144	59.322	1426.800	1393.812
-47.130	39.747	1382.750	1230.317
-46.115	36.066	1365.219	1191.956
-45.100	35.795	1360.284	1185.926
-44.086	35.778	1357.773	1183.586
-43.071	35.728	1355.605	1181.342
-42.057	35.677	1353.565	1179.206
-41.042	35.774	1351.361	1177.829
-40.027	35.806	1349.862	1176.677
-39.013	35.858	1348.029	1175.349
-37.998	35.895	1345.924	1173.694
-36.984	35.988	1344.047	1172.573
-35.969	35.937	1342.402	1170.781
-34.954	36.062	1340.394	1169.744
-33.940	36.029	1339.181	1168.437
-32.925	36.151	1337.587	1167.740
-31.911	36.138	1335.731	1165.996
-30.896	36.030	1334.623	1164.330
-29.881	36.074	1333.253	1163.353
-28.867	36.119	1331.431	1161.987
-27.852	36.080	1330.009	1160.469
-26.838	36.127	1328.043	1158.989
-25.823	36.057	1327.469	1158.023
-24.809	35.987	1325.677	1155.994
-23.794	36.059	1324.246	1155.129
-22.779	35.971	1322.874	1153.359
-21.765	36.021	1321.776	1152.654
-20.750	36.022	1319.978	1151.048
-19.736	35.895	1319.125	1149.502
-18.721	35.938	1317.702	1148.472
-17.706	35.903	1316.340	1147.029
-16.692	35.971	1314.676	1145.942
-15.677	35.960	1314.119	1145.342
-14.663	35.882	1312.814	1143.696
-13.648	35.787	1311.904	1142.297
-12.633	35.781	1310.652	1141.120
-11.619	35.765	1309.894	1140.324
-10.604	35.848	1308.995	1139.988
-9.590	35.845	1307.787	1138.871
-8.575	35.825	1307.317	1138.300
-7.560	35.921	1305.719	1137.431
-6.546	35.811	1305.361	1136.425
-5.531	35.895	1304.378	1136.016
-4.517	35.817	1303.249	1134.532
-3.502	35.905	1302.426	1134.289
-2.487	35.844	1301.245	1132.854
-1.473	35.936	1297.855	1130.399
-0.458	35.062	1283.698	1112.947
0.556	30.650	1265.430	1077.122
1.571	27.089	1271.311	1061.271
2.586	25.999	1285.832	1066.855
3.600	24.872	1275.415	1051.503
4.615	21.417	1204.026	973.366
5.629	15.819	1130.012	884.120
6.644	12.809	1109.819	852.693
7.659	12.566	1107.001	849.197
8.673	12.675	1105.514	848.545
9.688	12.569	1104.419	847.083
10.702	12.927	1102.966	847.734
11.717	16.602	1107.748	870.267
12.731	20.587	1112.710	894.636
13.746	19.808	1110.658	888.905
14.761	17.779	1107.497	875.890
15.775	16.686	1104.591	867.911
16.790	15.545	1102.776	860.564
17.804	14.779	1100.945	855.140
18.819	14.270	1099.948	851.688
19.834	13.940	1099.225	849.367
20.848	13.757	1098.103	847.488
21.863	13.550	1096.966	845.480
22.877	13.333	1096.081	843.617
23.892	13.296	1095.681	843.047
24.907	13.402	1094.415	842.539
25.921	13.489	1093.405	842.129
26.936	13.479	1092.199	841.075
27.950	13.434	1090.720	839.630
28.965	13.503	1089.209	838.743
29.980	13.549	1087.515	837.595
30.994	13.639	1086.491	837.190
32.009	13.662	1085.351	836.353
33.023	13.665	1084.131	835.355
34.038	13.532	1083.434	834.072
35.053	13.605	1082.230	833.439
36.067	13.544	1081.462	832.468
37.082	13.631	1080.398	832.011
38.096	13.456	1080.249	830.947
39.111	13.531	1079.197	830.438
40.126	13.523	1077.867	829.304
41.140	13.366	1076.436	827.343
42.155	13.275	1075.548	826.134
43.169	13.403	1074.019	825.522
44.184	13.342	1072.963	824.335
45.199	13.277	1072.003	823.202
46.213	13.286	1070.502	822.019
47.228	13.488	1069.795	822.407
48.242	13.472	1068.154	820.995
49.257	13.570	1067.487	820.896
50.271	13.478	1067.005	819.996
51.286	13.474	1066.046	819.164
52.301	13.490	1065.064	818.416
53.315	13.685	1063.466	818.081
54.330	13.458	1062.496	816.144
55.344	13.324	1062.165	815.156
56.359	13.416	1060.902	814.568
57.374	13.433	1059.721	813.672
58.388	13.394	1058.926	812.799
59.403	13.315	1058.395	811.932
60.417	13.265	1057.599	811.005
61.432	13.400	1056.424	810.691
62.447	13.330	1055.553	809.609
63.461	13.327	1054.950	809.059
64.476	13.348	1054.083	808.426
65.490	13.322	1053.032	807.421
66.505	13.335	1052.412	806.939
67.520	13.292	1052.014	806.351
68.534	13.316	1050.983	805.607
69.549	13.357	1049.899	804.906
70.563	13.250	1049.366	803.906
71.578	13.220	1048.701	803.180
72.593	13.062	1047.960	801.774
73.607	13.092	1047.510	801.503
74.622	13.269	1046.458	801.487
75.636	13.195	1045.582	800.383
76.651	13.226	1045.371	800.302
77.666	13.241	1044.223	799.423
78.680	13.237	1044.092	799.236
79.695	13.291	1043.280	798.804
80.709	13.387	1042.390	798.516
81.724	13.314	1042.133	797.897
82.739	13.442	1040.894	797.495
83.753	13.420	1040.013	796.640
84.768	13.454	1039.347	796.223
85.782	13.622	1038.234	796.109
86.797	13.430	1037.677	794.687
87.812	13.479	1036.495	793.948
88.826	13.486	1035.206	792.922
89.841	13.483	1034.333	792.169
90.855	13.551	1034.088	792.237
91.870	13.525	1033.165	791.335
92.884	13.628	1032.081	790.929
93.899	13.688	1031.287	790.535
94.914	13.597	1030.587	789.496
95.928	13.767	1029.348	789.286
96.943	13.567	1028.499	787.616
97.957	13.436	1027.953	786.506
98.972	13.626	1026.483	786.213
99.987	13.663	1025.149	785.295
101.001	13.542	1024.606	784.238
102.016	13.562	1024.105	783.878
103.030	13.629	1023.234	783.457
104.045	13.465	1022.553	782.094
105.060	13.573	1021.456	781.695
106.074	13.495	1020.781	780.742
107.089	13.413	1019.410	779.237
108.103	13.345	1018.732	778.328
109.118	13.470	1017.632	778.007
110.133	13.414	1016.733	776.991
111.147	13.385	1016.167	776.354
112.162	13.433	1015.088	775.686
113.176	13.481	1014.657	775.512
114.191	13.447	1013.556	774.441
115.206	13.448	1012.852	773.839
116.220	13.395	1012.259	773.070
117.235	13.543	1010.636	772.452
118.249	13.457	1010.044	771.530
119.264	13.459	1009.699	771.208
120.279	13.366	1008.812	770.031
121.293	13.439	1007.969	769.659
122.308	13.446	1006.760	768.701
123.322	13.480	1005.730	768.003
124.337	13.395	1004.531	766.628
125.352	13.471	1003.611	766.209
126.366	13.396	1002.635	765.046
127.381	13.411	1001.641	764.292
128.395	13.341	1001.078	763.472
129.410	13.453	999.717	762.880
130.424	13.532	998.695	762.397
131.439	13.504	998.443	762.007
132.454	13.510	997.251	761.061
133.468	13.588	996.576	760.833
134.483	13.669	995.584	760.384
135.497	13.502	995.206	759.262
136.512	13.524	994.114	758.459
137.527	13.589	993.259	758.038
138.541	13.563	992.631	757.372
139.556	13.514	991.756	756.416
140.570	13.592	991.116	756.218
141.585	13.677	990.448	756.029
142.600	13.792	989.251	755.572
143.614	13.816	988.068	754.712
144.629	13.814	987.658	754.320
145.643	13.822	986.468	753.381
146.658	13.572	986.126	751.920
147.673	13.596	985.072	751.160
148.687	13.570	983.932	750.103
149.702	13.557	982.894	749.189
150.716	13.544	982.489	748.755
151.731	13.621	981.379	748.189
152.746	13.563	980.645	747.303
153.760	13.766	979.938	747.610
154.775	13.794	979.444	747.293
155.789	13.681	978.956	746.346
156.804	13.892	977.598	746.192
157.819	13.703	977.473	745.186
158.833	13.880	976.793	745.396
159.848	13.862	976.182	744.782
160.862	13.758	974.989	743.341
161.877	13.759	973.912	742.457
162.892	13.784	972.794	741.652
163.906	13.686	972.001	740.541
164.921	13.793	971.051	740.229
165.935	13.704	970.342	739.228
166.950	13.776	969.591	738.911
167.964	13.822	968.832	738.471
168.979	13.590	967.929	736.686
169.994	13.715	966.969	736.448
171.008	13.729	966.052	735.748
172.023	13.814	965.315	735.494
173.037	13.957	964.578	735.500
174.052	13.822	963.973	734.378
175.067	13.726	963.512	733.536
176.081	13.750	962.785	733.025
177.096	13.731	962.425	732.604
178.110	13.945	961.093	732.467
179.125	13.780	960.873	731.509
180.140	13.822	960.435	731.294
181.154	13.929	959.776	731.201
182.169	13.968	959.075	730.771
183.183	13.885	958.248	729.712
184.198	14.046	957.107	729.484
185.213	14.020	956.640	728.952
186.227	14.159	955.776	728.838
187.242	14.060	955.532	728.151
188.256	14.174	954.752	727.994
189.271	14.042	954.021	726.793
190.286	13.906	953.478	725.722
191.300	13.853	952.536	724.710
192.315	13.868	951.946	724.261
193.329	13.826	951.456	723.642
194.344	13.925	950.834	723.537
195.359	13.972	950.276	723.253
196.373	14.160	949.186	723.174
197.388	14.085	949.262	722.845
198.402	14.120	948.730	722.528
199.417	14.236	947.986	722.400
200.432	14.352	947.311	722.323
201.446	14.379	946.822	722.005
202.461	14.386	946.429	721.671
203.475	14.409	945.972	721.361
204.490	14.193	945.282	719.834
205.504	14.261	944.061	719.133
206.519	14.202	943.660	718.510
207.534	14.281	942.592	717.976
208.548	14.309	941.887	717.496
209.563	14.232	941.325	716.670
210.577	14.290	940.900	716.533
211.592	14.393	940.037	716.256
212.607	14.486	939.243	715.986
213.621	14.455	938.227	715.016
214.636	14.469	937.765	714.662
215.650	14.493	937.124	714.212
216.665	14.527	936.602	713.896
217.680	14.581	935.181	712.981
218.694	14.602	934.872	712.772
219.709	14.530	934.567	712.170
220.723	14.525	933.688	711.416
221.738	14.555	933.200	711.109
222.753	14.529	932.700	710.551
223.767	14.590	931.659	709.957
224.782	14.702	931.022	709.886
225.796	14.665	930.547	709.303
226.811	14.667	930.018	708.846
227.826	14.660	929.245	708.163
228.840	14.581	928.369	707.100
229.855	14.539	927.404	706.124
230.869	14.619	926.563	705.760
231.884	14.545	926.088	705.024
232.899	14.565	925.565	704.645
233.913	14.479	924.929	703.738
234.928	14.511	924.080	703.163
235.942	14.616	923.454	703.067
236.957	14.572	923.220	702.643
237.972	14.837	921.644	702.494
238.986	14.621	921.655	701.532
240.001	14.587	921.080	700.888
241.015	14.656	920.375	700.580
242.030	14.634	920.001	700.143
243.045	14.636	919.184	699.465
244.059	14.720	918.800	699.464
245.074	14.745	917.744	698.701
246.088	14.796	917.145	698.398
247.103	14.881	916.166	697.945
248.117	14.942	915.953	697.976
249.132	15.103	915.087	697.924
250.147	15.043	914.872	697.451
251.161	15.023	914.069	696.691
252.176	15.062	913.431	696.306
253.190	15.069	912.841	695.824
254.205	15.099	912.122	695.339
255.220	15.041	911.624	694.658
256.234	15.052	910.708	693.945
257.249	15.173	910.046	693.881
258.263	15.139	909.332	693.131
259.278	15.208	908.476	692.704
260.293	15.196	908.106	692.310
261.307	15.287	907.466	692.139
262.322	15.376	906.682	691.847
263.336	15.332	905.769	690.906
264.351	15.457	905.068	690.827
265.366	15.462	904.656	690.469
266.380	15.288	904.278	689.405
267.395	15.384	903.312	689.000
268.409	15.304	902.741	688.176
269.424	15.451	901.541	687.805
270.439	15.486	900.850	687.358
271.453	15.225	900.483	685.951
272.468	15.266	900.015	685.700
273.482	15.327	899.126	685.210
274.497	15.354	898.303	684.634
275.512	15.428	898.229	684.821
276.526	15.372	897.874	684.260
277.541	15.475	897.144	684.062
278.555	15.434	896.105	683.041
279.570	15.554	895.887	683.306
280.585	15.435	895.302	682.313
281.599	15.516	894.311	681.829
282.614	15.520	893.418	681.102
283.628	15.601	892.848	680.936
284.643	15.557	892.390	680.346
285.657	15.613	891.747	680.022
286.672	15.495	891.255	679.113
287.687	15.464	890.966	678.706
288.701	15.464	890.167	678.037
289.716	15.607	889.347	677.928
290.730	15.545	888.822	677.221
291.745	15.601	888.025	676.778
292.760	15.791	887.259	676.899
293.774	15.750	886.976	676.457
294.789	15.652	886.417	675.580
295.803	15.683	885.316	674.803
296.818	15.890	884.807	675.188
297.833	15.695	884.044	673.761
298.847	15.700	883.269	673.131
299.862	15.695	883.089	672.915
300.876	15.770	882.476	672.690
301.891	15.789	881.661	672.085
302.906	15.824	881.181	671.797
303.920	15.980	880.409	671.774
304.935	16.055	880.033	671.725
305.949	15.876	879.444	670.502
306.964	15.878	879.029	670.134
307.979	16.005	878.401	670.101
308.993	15.974	877.719	669.401
310.008	16.073	876.777	669.016
311.022	16.095	876.177	668.586
312.037	16.008	875.742	667.848
313.052	16.030	875.363	667.588
314.066	15.810	874.561	666.046
315.081	15.766	874.499	665.766
316.095	15.850	873.628	665.378
317.110	15.916	872.864	664.997
318.125	15.992	872.299	664.807
319.139	15.791	871.926	663.670
320.154	15.889	871.759	663.872
321.168	15.912	871.011	663.334
322.183	16.049	870.092	663.114
323.197	16.110	869.575	662.900
324.212	16.070	869.348	662.514
325.227	15.913	868.830	661.443
326.241	16.038	868.155	661.361
327.256	15.940	867.291	660.261
328.270	16.121	866.878	660.596
329.285	16.148	865.991	659.969
330.300	16.069	865.616	659.315
331.314	16.007	865.211	658.704
332.329	16.084	864.460	658.375
333.343	16.103	864.482	658.408
334.358	16.195	863.643	658.070
335.373	16.212	863.294	657.814
336.387	16.178	863.291	657.622
337.402	16.247	862.903	657.536
338.416	16.240	862.606	657.222
339.431	16.382	861.860	657.150
340.446	16.458	861.182	656.870
341.460	16.479	861.037	656.782
342.475	16.534	860.620	656.621
343.489	16.449	860.503	656.140
344.504	16.572	859.901	656.101
345.519	16.496	859.592	655.515
346.533	16.615	858.660	655.206
347.548	16.510	858.237	654.418
348.562	16.390	857.503	653.339
349.577	16.398	856.950	652.888
350.592	16.403	856.290	652.349
351.606	16.498	855.545	652.088
352.621	16.585	854.602	651.647
353.635	16.612	854.231	651.411
354.650	16.589	853.554	650.750
355.665	16.562	852.925	650.108
356.679	16.495	852.535	649.496
357.694	16.475	851.928	648.898
358.708	16.601	851.312	648.855
359.723	16.578	850.620	648.182
360.738	16.658	849.889	647.874
361.752	16.547	849.665	647.223
362.767	16.690	848.831	647.075
363.781	16.701	848.501	646.808
364.796	16.737	847.843	646.385
365.810	16.844	847.663	646.600
366.825	16.759	847.249	645.902
367.840	16.853	846.839	645.893
368.854	16.898	845.825	645.235
369.869	16.876	845.616	644.934
370.883	16.840	845.538	644.681
371.898	16.712	844.943	643.681
372.913	16.902	844.567	644.062
373.927	16.883	843.851	643.386
374.942	16.975	843.504	643.411
375.956	17.094	842.651	643.156
376.971	17.120	842.240	642.882
377.986	17.117	842.001	642.632
379.000	17.130	841.521	642.261
380.015	17.067	841.187	641.709
381.029	17.118	840.601	641.400
382.044	17.089	839.951	640.738
383.059	17.126	839.205	640.251
384.073	17.249	838.458	640.086
385.088	17.044	837.936	638.860
386.102	17.026	837.325	638.271
387.117	17.256	836.511	638.456
388.132	17.104	836.249	637.631
389.146	17.191	835.495	637.326
390.161	17.181	835.287	637.074
391.175	17.194	834.821	636.708
392.190	17.131	834.123	635.886
393.205	17.111	833.873	635.563
394.219	17.079	833.809	635.338
395.234	17.143	832.967	634.878
396.248	17.084	832.849	634.512
397.263	17.147	832.413	634.358
398.278	17.158	831.766	633.853
399.292	17.165	831.076	633.295
400.307	17.080	830.834	632.739
401.321	17.136	830.365	632.534
402.336	17.222	829.880	632.427
403.350	17.145	829.474	631.775
404.365	17.250	829.242	631.935
405.380	17.362	828.385	631.642
406.394	17.430	827.959	631.515
407.409	17.452	827.518	631.202
408.423	17.533	827.360	631.326
409.438	17.522	827.031	630.977
410.453	17.535	826.744	630.753
411.467	17.602	825.862	630.272
412.482	17.669	825.208	629.965
413.496	17.508	825.245	629.342
414.511	17.689	824.467	629.360
415.526	17.701	823.961	628.964
416.540	17.557	824.060	628.451
417.555	17.661	823.100	628.047
418.569	17.584	822.648	627.364
419.584	17.631	822.454	627.332
420.599	17.568	821.983	626.687
421.613	100.447	1283.165	1428.494
422.628	86.663	1350.371	1428.610
