DTS Sentinel unit serial number:	SN413079Multiplexer serial number:	ORYXHardware model number:	OX4-SRSoftware version number:	ORYX F/W v4.00 Oryx Data Collector v3.7.2.0data status	okinstallation	princeton_trtdifferential loss correction	single-endedforward channel	channel 1reverse channel	N/Adate	2019/09/12time	17:08:11forward acquisition time	60.00reverse acquisition time	0.00gamma	496.2192k internal	0.2313k external	0.2313temperature offset calibration	1.0099default loss term (dB/km)	0.3790temperature slope calibration	1.0000multiplexer offset coefficient	1.0000multiplexer slope coefficient	1.0000fibre end	0.00T internal ref (°C)	35.41T ext. ref 1 (°C)	2.82T ext. ref 2 (°C)	28.78length (m)	temperature (°C)	Stokes	anti-Stokes-747.200	800.000	-0.026	-0.097
-746.185	143.115	0.109	-0.147
-745.171	15.093	0.274	0.218
-744.156	-200.000	-0.008	0.253
-743.142	-56.238	0.108	-0.049
-742.127	799.645	-0.121	0.340
-741.112	276.977	-0.141	0.255
-740.098	-200.000	-0.001	0.108
-739.083	800.000	0.014	0.042
-738.069	-41.773	0.198	0.103
-737.054	800.000	-0.040	0.115
-736.039	177.333	-0.239	0.352
-735.025	-47.885	0.187	-0.092
-734.010	-200.000	-0.009	-0.110
-732.996	-200.000	-0.015	-0.241
-731.981	-200.000	0.024	-0.420
-730.966	-43.765	-0.020	0.010
-729.952	11.034	-0.269	0.209
-728.937	-88.278	0.182	-0.055
-727.923	-108.913	-0.393	-0.085
-726.908	-165.278	-0.261	-0.012
-725.894	130.095	0.253	-0.329
-724.879	140.716	-0.123	0.165
-723.864	-145.699	-0.219	0.020
-722.850	-152.973	-0.342	0.024
-721.835	35.687	0.091	-0.081
-720.821	-124.433	-0.179	-0.028
-719.806	84.754	-0.321	-0.356
-718.791	800.000	-0.054	0.173
-717.777	74.207	0.111	-0.118
-716.762	-79.359	0.074	0.025
-715.748	137.383	-0.056	-0.074
-714.733	194.368	0.064	-0.098
-713.718	800.000	0.052	0.188
-712.704	339.450	0.067	0.133
-711.689	-34.644	-0.140	-0.078
-710.675	-200.000	0.000	0.063
-709.660	-136.524	-0.173	0.020
-708.645	282.395	0.220	-0.399
-707.631	138.870	0.117	-0.156
-706.616	-152.189	0.357	0.026
-705.602	76.682	-0.142	0.153
-704.587	-200.000	-0.049	-0.259
-703.572	800.000	-0.041	-0.127
-702.558	-200.000	0.008	-0.106
-701.543	193.008	-0.086	0.132
-700.529	180.743	0.051	-0.077
-699.514	-200.000	0.067	0.304
-698.499	-200.000	-0.058	0.346
-697.485	-147.195	0.127	-0.011
-696.470	-200.000	0.200	-0.001
-695.456	145.341	0.053	0.072
-694.441	34.269	-0.177	-0.156
-693.426	-100.620	-0.263	0.066
-692.412	-200.000	-0.007	0.220
-691.397	4.978	-0.184	0.137
-690.383	-200.000	0.020	0.203
-689.368	-57.609	0.307	0.136
-688.354	800.000	0.072	0.232
-687.339	-81.491	0.243	-0.081
-686.324	-200.000	-0.023	-0.352
-685.310	-200.000	0.009	-0.200
-684.295	-200.000	-0.030	0.242
-683.281	-122.305	-0.267	-0.044
-682.266	-200.000	0.014	-0.153
-681.251	208.294	0.075	0.118
-680.237	-200.000	0.033	0.156
-679.222	-45.729	-0.234	-0.117
-678.208	-77.538	0.064	0.022
-677.193	-178.048	0.304	0.007
-676.178	800.000	-0.117	-0.357
-675.164	800.000	0.056	-0.192
-674.149	-162.592	0.044	0.002
-673.135	55.219	-0.231	-0.226
-672.120	52.608	-0.211	-0.204
-671.105	72.635	-0.230	-0.243
-670.091	329.274	0.077	-0.150
-669.076	477.243	0.064	0.147
-668.062	-19.497	0.299	0.187
-667.047	-63.139	0.388	0.162
-666.032	-200.000	0.001	-0.048
-665.018	800.000	-0.047	0.185
-664.003	117.215	-0.176	-0.219
-662.989	680.972	-0.038	0.101
-661.974	-146.600	-0.278	0.024
-660.959	-200.000	0.005	0.140
-659.945	-60.842	-0.179	0.077
-658.930	298.202	0.076	0.142
-657.916	-82.369	0.283	-0.093
-656.901	520.464	-0.170	-0.404
-655.886	-164.669	-0.187	0.009
-654.872	15.479	0.175	-0.139
-653.857	-14.444	-0.323	-0.210
-652.843	198.370	-0.242	0.374
-651.828	800.000	0.084	-0.289
-650.814	-75.284	-0.213	0.077
-649.799	-51.470	0.145	0.068
-648.784	-71.596	-0.242	0.092
-647.770	-200.000	0.095	0.470
-646.755	-5.869	0.349	-0.242
-645.741	-87.533	-0.349	0.107
-644.726	-30.802	-0.155	-0.088
-643.711	-68.426	0.131	-0.051
-642.697	294.737	0.088	0.164
-641.682	-136.890	0.368	0.043
-640.668	173.729	0.131	-0.190
-639.653	426.557	-0.083	-0.181
-638.638	319.302	-0.120	-0.230
-637.624	-84.872	0.350	-0.111
-636.609	-200.000	0.002	-0.022
-635.595	-156.807	-0.211	-0.013
-634.580	-56.884	0.261	-0.117
-633.565	-51.080	-0.466	-0.221
-632.551	-134.913	-0.101	0.012
-631.536	158.975	-0.055	-0.077
-630.522	-200.000	-0.015	-0.143
-629.507	-164.685	0.161	-0.007
-628.492	413.173	-0.119	-0.255
-627.478	173.224	-0.099	0.144
-626.463	4.950	-0.265	-0.197
-625.449	800.000	-0.120	-0.467
-624.434	-90.636	-0.415	-0.121
-623.419	-83.175	-0.162	-0.053
-622.405	800.000	-0.020	-0.060
-621.390	-130.830	0.379	0.051
-620.376	-200.000	0.010	0.098
-619.361	168.761	-0.195	-0.281
-618.346	106.280	-0.223	-0.267
-617.332	4.001	-0.106	-0.078
-616.317	-36.836	-0.142	0.077
-615.303	-200.000	-0.034	-0.396
-614.288	43.214	-0.219	0.202
-613.273	70.066	0.227	-0.237
-612.259	-115.873	-0.269	-0.051
-611.244	-109.992	-0.336	0.071
-610.230	8.243	0.036	0.027
-609.215	-200.000	-0.020	0.163
-608.201	123.155	-0.130	-0.165
-607.186	29.065	0.200	0.171
-606.171	-200.000	0.064	0.383
-605.157	7.266	0.193	0.145
-604.142	-200.000	-0.024	-0.126
-603.128	297.312	0.028	0.051
-602.113	-114.668	0.226	0.044
-601.098	492.002	0.156	0.359
-600.084	-33.545	-0.301	-0.168
-599.069	393.368	0.078	-0.164
-598.055	8.884	0.238	0.181
-597.040	97.809	0.152	-0.176
-596.025	-77.434	0.138	0.048
-595.011	-84.112	0.470	0.150
-593.996	392.546	-0.122	-0.257
-592.982	218.123	-0.135	0.218
-591.967	-62.905	-0.127	0.053
-590.952	-81.238	0.065	-0.022
-589.938	-1.452	-0.208	-0.148
-588.923	-65.720	0.491	-0.198
-587.909	-96.197	-0.370	-0.099
-586.894	358.412	-0.174	0.351
-585.879	-66.130	0.123	0.049
-584.865	-121.573	-0.193	0.032
-583.850	-200.000	-0.004	-0.064
-582.836	-1.058	-0.095	-0.068
-581.821	-200.000	-0.001	0.129
-580.806	-108.109	-0.190	0.042
-579.792	93.144	-0.022	-0.025
-578.777	301.713	-0.099	0.184
-577.763	-119.353	-0.198	0.035
-576.748	-200.000	-0.028	-0.177
-575.733	18.146	0.187	0.150
-574.719	48.691	-0.111	-0.105
-573.704	-104.857	-0.376	0.087
-572.690	293.181	-0.072	0.132
-571.675	-200.000	0.045	-0.238
-570.661	-200.000	-0.010	0.230
-569.646	57.643	0.136	0.134
-568.631	-200.000	-0.009	-0.348
-567.617	-58.242	0.109	-0.048
-566.602	-200.000	0.011	0.068
-565.588	98.096	-0.112	0.130
-564.573	-51.668	0.129	-0.061
-563.558	-56.587	0.054	-0.024
-562.544	-200.000	0.040	-0.401
-561.529	-80.646	0.044	0.015
-560.515	113.230	-0.283	-0.346
-559.500	-60.360	-0.162	0.069
-558.485	-9.764	-0.089	-0.060
-557.471	204.051	-0.098	-0.152
-556.456	-126.685	-0.327	0.049
-555.442	425.857	0.082	-0.178
-554.427	800.000	0.050	-0.194
-553.412	800.000	0.049	0.160
-552.398	-200.000	0.002	0.076
-551.383	-121.696	-0.264	0.044
-550.369	64.030	0.120	0.121
-549.354	195.850	0.151	0.231
-548.339	-102.976	-0.230	-0.055
-547.325	-101.909	-0.131	-0.032
-546.310	-62.572	-0.119	0.050
-545.296	-52.612	0.229	0.106
-544.281	-200.000	-0.022	-0.183
-543.266	194.903	-0.055	-0.085
-542.252	32.843	-0.170	0.148
-541.237	-200.000	-0.008	0.041
-540.223	-37.641	0.179	-0.096
-539.208	-200.000	-0.027	-0.132
-538.193	800.000	-0.108	-0.360
-537.179	124.297	0.174	-0.220
-536.164	257.163	0.077	-0.134
-535.150	-27.511	0.331	-0.193
-534.135	59.173	0.111	-0.110
-533.121	-200.000	0.001	-0.120
-532.106	-131.308	0.203	-0.027
-531.091	138.932	0.261	0.345
-530.077	146.856	-0.232	0.314
-529.062	275.462	0.096	-0.171
-528.048	-147.426	0.390	-0.033
-527.033	-40.879	0.260	0.135
-526.018	666.735	0.072	0.186
-525.004	-145.985	-0.169	0.015
-523.989	-164.632	-0.355	0.016
-522.975	-186.848	0.129	0.002
-521.960	217.229	-0.052	-0.083
-520.945	-115.504	0.480	0.091
-519.931	337.866	0.144	-0.281
-518.916	800.000	0.066	0.205
-517.902	-200.000	0.056	-0.256
-516.887	74.512	0.236	-0.250
-515.872	-30.819	0.203	-0.115
-514.858	105.271	-0.135	0.160
-513.843	75.090	0.185	0.196
-512.829	44.330	0.219	0.202
-511.814	-101.689	-0.214	0.052
-510.799	112.221	0.269	0.327
-509.785	582.272	-0.034	-0.083
-508.770	58.340	0.205	0.202
-507.756	166.093	-0.143	0.203
-506.741	326.883	-0.108	0.208
-505.726	-68.815	0.075	0.029
-504.712	-157.875	0.279	-0.017
-503.697	514.488	-0.038	-0.088
-502.683	18.051	-0.026	-0.020
-501.668	-143.326	-0.249	0.024
-500.653	-143.397	0.115	0.011
-499.639	28.270	0.227	-0.192
-498.624	-200.000	-0.043	0.233
-497.610	800.000	0.116	0.448
-496.595	-200.000	-0.008	-0.052
-495.581	-6.534	0.270	-0.185
-494.566	-77.118	0.142	-0.050
-493.551	-200.000	-0.030	-0.264
-492.537	66.691	-0.222	-0.227
-491.522	-141.854	0.212	0.021
-490.508	469.460	0.049	0.112
-489.493	800.000	-0.079	-0.246
-488.478	71.479	-0.167	0.175
-487.464	125.697	-0.204	0.259
-486.449	-173.136	0.206	-0.006
-485.435	158.237	-0.072	-0.100
-484.420	-81.317	0.172	-0.057
-483.405	86.538	-0.040	0.045
-482.391	-88.387	-0.193	-0.058
-481.376	-78.531	-0.480	0.165
-480.362	125.786	-0.204	0.259
-479.347	-167.149	0.307	-0.013
-478.332	-200.000	0.044	-0.279
-477.318	-6.903	-0.183	0.125
-476.303	82.089	0.265	0.289
-475.289	-200.000	0.053	0.288
-474.274	800.000	0.047	0.191
-473.259	-100.411	-0.174	-0.043
-472.245	-164.397	0.039	0.002
-471.230	-154.345	0.208	-0.014
-470.216	-200.000	-0.019	-0.230
-469.201	-75.555	0.178	0.063
-468.186	417.448	-0.053	0.114
-467.172	-21.203	0.315	0.193
-466.157	-200.000	-0.015	-0.105
-465.143	653.545	0.060	-0.155
-464.128	-200.000	-0.024	0.130
-463.113	-57.924	-0.083	-0.036
-462.099	-200.000	0.018	-0.145
-461.084	-66.707	-0.393	0.156
-460.070	-82.032	-0.230	0.075
-459.055	87.889	0.065	-0.072
-458.040	-200.000	0.050	0.268
-457.026	-120.332	0.137	-0.023
-456.011	259.901	-0.114	-0.197
-454.997	-91.409	-0.128	0.037
-453.982	-51.580	0.087	-0.041
-452.968	597.409	0.185	-0.460
-451.953	-1.368	0.212	-0.150
-450.938	-200.000	-0.046	0.207
-449.924	800.000	-0.049	0.180
-448.909	-129.208	-0.114	-0.016
-447.895	-137.776	0.453	-0.051
-446.880	-3.504	-0.223	-0.156
-445.865	-52.300	-0.041	0.019
-444.851	-49.271	-0.186	0.089
-443.836	-45.027	-0.042	0.021
-442.822	800.000	0.057	0.164
-441.807	50.280	-0.335	-0.317
-440.792	102.018	0.260	0.304
-439.778	-109.696	-0.249	-0.053
-438.763	-0.276	0.112	-0.080
-437.749	650.537	0.124	0.317
-436.734	41.397	-0.231	0.209
-435.719	68.684	0.302	-0.311
-434.705	-28.414	-0.199	0.115
-433.690	-200.000	-0.010	0.207
-432.676	-27.111	0.076	-0.044
-431.661	516.434	0.067	0.156
-430.646	-200.000	0.019	0.162
-429.632	-101.214	-0.205	-0.050
-428.617	-200.000	-0.021	0.142
-427.603	12.026	0.034	0.026
-426.588	377.822	-0.051	-0.104
-425.573	-23.780	0.287	-0.172
-424.559	266.507	-0.056	-0.098
-423.544	355.995	0.032	-0.065
-422.530	27.297	-0.101	-0.085
-421.515	-66.324	0.136	-0.054
-420.500	782.542	0.077	-0.211
-419.486	360.138	0.137	0.274
-418.471	-110.410	-0.327	-0.068
-417.457	324.864	-0.164	-0.314
-416.442	9.487	-0.104	-0.079
-415.428	-112.236	-0.196	-0.039
-414.413	-39.582	0.207	0.109
-413.398	-200.000	0.018	-0.337
-412.384	-200.000	-0.013	0.125
-411.369	95.969	0.061	-0.069
-410.355	-200.000	-0.013	0.207
-409.340	-200.000	0.059	0.331
-408.325	586.521	0.033	0.081
-407.311	-200.000	-0.001	0.270
-406.296	-99.185	-0.153	-0.039
-405.282	23.704	0.229	-0.189
-404.267	276.587	-0.142	0.252
-403.252	-70.701	-0.107	0.040
-402.238	-100.947	-0.063	-0.015
-401.223	-109.512	0.175	0.037
-400.209	317.679	0.064	-0.121
-399.194	22.074	-0.283	-0.231
-398.179	168.355	0.161	-0.229
-397.165	-200.000	-0.005	-0.136
-396.150	27.406	-0.116	0.097
-395.136	-67.617	0.064	0.025
-394.121	-136.138	-0.150	-0.018
-393.106	69.989	0.141	-0.146
-392.092	-0.205	-0.218	0.155
-391.077	442.163	0.098	0.214
-390.063	60.346	-0.322	0.319
-389.048	-200.000	-0.040	0.207
-388.033	-146.280	0.153	-0.013
-387.019	-133.939	-0.033	-0.004
-386.004	12.532	-0.172	-0.133
-384.990	-128.367	-0.175	-0.025
-383.975	-50.356	-0.076	0.036
-382.960	429.189	0.105	0.226
-381.946	-23.519	-0.186	0.112
-380.931	78.733	0.128	-0.136
-379.917	-200.000	-0.002	0.207
-378.902	-154.855	0.320	0.021
-377.888	-200.000	0.038	0.208
-376.873	-42.651	0.178	0.091
-375.858	784.536	-0.079	0.216
-374.844	800.000	-0.028	-0.089
-373.829	-200.000	-0.023	0.104
-372.815	-200.000	0.003	0.404
-371.800	-200.000	-0.018	-0.179
-370.785	-134.393	0.104	-0.013
-369.771	-108.302	0.154	-0.033
-368.756	-200.000	0.002	0.082
-367.742	-115.477	0.235	0.044
-366.727	334.569	0.050	0.097
-365.712	627.937	0.011	0.027
-364.698	-200.000	-0.025	-0.145
-363.683	570.764	-0.134	0.325
-362.669	106.634	0.014	-0.017
-361.654	-200.000	0.021	0.138
-360.639	261.672	-0.104	0.180
-359.625	633.750	0.029	-0.073
-358.610	800.000	-0.040	-0.126
-357.596	103.474	-0.090	-0.106
-356.581	-32.883	0.096	0.053
-355.566	-200.000	0.003	-0.194
-354.552	137.179	-0.100	-0.130
-353.537	-190.476	-0.242	0.003
-352.523	44.174	0.232	0.213
-351.508	20.850	0.239	-0.193
-350.493	552.545	0.076	-0.184
-349.479	-106.984	-0.100	-0.022
-348.464	786.578	0.051	-0.140
-347.450	-81.229	-0.131	0.043
-346.435	-135.539	-0.198	0.023
-345.420	-192.937	-0.127	0.001
-344.406	-84.357	-0.073	-0.023
-343.391	56.375	0.208	-0.202
-342.377	36.452	-0.267	-0.235
-341.362	-109.131	-0.176	-0.037
-340.348	229.707	0.113	-0.184
-339.333	589.846	0.024	-0.058
-338.318	-200.000	-0.047	-0.223
-337.304	-124.114	-0.177	-0.028
-336.289	-101.943	0.275	0.066
-335.275	-200.000	-0.019	-0.184
-334.260	-101.290	0.185	0.045
-333.245	800.000	0.098	-0.354
-332.231	370.999	0.072	-0.146
-331.216	135.764	0.123	0.160
-330.202	-54.007	-0.284	0.129
-329.187	800.000	-0.040	-0.120
-328.172	439.443	0.074	-0.160
-327.158	111.125	-0.250	0.300
-326.143	183.548	0.160	-0.236
-325.129	-103.767	0.120	-0.028
-324.114	-90.948	0.185	0.053
-323.099	-166.778	0.163	-0.007
-322.085	229.058	-0.215	-0.350
-321.070	-200.000	0.041	-0.189
-320.056	-165.688	0.155	0.007
-319.041	157.395	0.134	-0.185
-318.026	-200.000	-0.100	0.461
-317.012	-101.639	-0.204	-0.049
-315.997	288.700	0.067	0.121
-314.983	800.000	-0.031	0.112
-313.968	623.620	0.087	0.220
-312.953	31.255	-0.159	-0.136
-311.939	328.410	-0.065	0.124
-310.924	-110.869	0.421	0.086
-309.910	-146.397	0.258	0.022
-308.895	-105.478	0.053	-0.012
-307.880	-102.757	-0.345	0.082
-306.866	-89.538	-0.226	-0.066
-305.851	50.432	0.233	0.219
-304.837	-95.147	0.241	0.065
-303.822	209.894	0.199	0.311
-302.807	450.895	0.197	0.434
-301.793	-33.421	0.135	0.075
-300.778	-79.350	0.301	0.102
-299.764	-76.928	-0.262	-0.091
-298.749	592.957	0.033	0.081
-297.735	-84.080	-0.081	0.026
-296.720	-165.055	-0.162	-0.007
-295.705	498.107	-0.028	-0.064
-294.691	-157.602	0.057	0.003
-293.676	102.628	-0.176	0.206
-292.662	604.647	0.112	0.278
-291.647	202.341	-0.330	-0.508
-290.632	124.079	0.212	-0.265
-289.618	-143.048	-0.169	-0.016
-288.603	-23.270	0.354	-0.212
-287.589	-161.637	0.104	-0.005
-286.574	29.264	-0.137	0.116
-285.559	65.323	0.227	-0.228
-284.545	800.000	-0.143	0.565
-283.530	-200.000	0.069	0.337
-282.516	236.928	0.151	-0.250
-281.501	-200.000	-0.029	0.187
-280.486	-43.860	0.220	0.110
-279.472	-16.741	0.017	0.011
-278.457	413.674	0.176	-0.373
-277.443	-200.000	-0.005	-0.101
-276.428	-146.510	-0.155	-0.013
-275.413	-200.000	-0.017	0.112
-274.399	-31.863	0.177	0.099
-273.384	14.250	-0.203	-0.157
-272.370	800.000	-0.083	-0.302
-271.355	49.563	-0.328	0.307
-270.340	-200.000	-0.008	0.160
-269.326	-50.969	-0.113	0.053
-268.311	10.327	0.182	0.138
-267.297	69.615	-0.053	0.055
-266.282	-61.701	-0.271	-0.113
-265.267	505.190	0.062	-0.143
-264.253	-144.945	0.404	0.037
-263.238	63.252	0.081	-0.081
-262.224	-200.000	0.001	0.112
-261.209	-59.856	-0.371	-0.158
-260.195	-78.391	-0.303	0.103
-259.180	134.072	0.089	0.115
-258.165	-35.153	-0.085	-0.046
-257.151	-43.796	0.106	-0.053
-256.136	-73.165	0.256	0.094
-255.122	-87.615	-0.123	0.037
-254.107	-80.874	0.179	0.059
-253.092	374.927	-0.147	0.297
-252.078	443.081	0.079	-0.172
-251.063	-21.493	-0.159	0.097
-250.049	800.000	-0.173	-0.590
-249.034	156.333	0.183	-0.251
-248.019	-21.347	-0.146	0.089
-247.005	32.692	-0.272	0.234
-245.990	796.398	0.070	0.193
-244.976	-115.770	0.067	-0.012
-243.961	-200.000	-0.016	0.091
-242.946	-28.162	-0.133	0.077
-241.932	13.011	0.173	0.133
-240.917	-104.156	0.186	0.043
-239.903	449.281	0.051	0.113
-238.888	215.911	-0.069	0.109
-237.873	77.792	-0.059	-0.063
-236.859	158.308	0.162	0.224
-235.844	348.372	0.055	0.108
-234.830	-104.221	0.251	-0.058
-233.815	-46.897	0.214	0.104
-232.800	-200.000	0.045	0.233
-231.786	-128.780	-0.159	0.022
-230.771	800.000	-0.039	-0.146
-229.757	-200.000	-0.001	-0.048
-228.742	-38.294	-0.219	0.115
-227.727	124.863	-0.156	0.196
-226.713	-135.725	-0.259	0.030
-225.698	-149.386	0.232	-0.018
-224.684	-45.391	-0.395	-0.194
-223.669	21.833	0.281	-0.227
-222.655	-71.030	0.127	-0.048
-221.640	-62.411	-0.035	-0.014
-220.625	10.834	0.123	0.093
-219.611	124.013	0.227	-0.283
-218.596	-114.098	-0.358	0.069
-217.582	478.213	0.045	-0.102
-216.567	293.824	-0.071	0.129
-215.552	160.981	-0.145	-0.201
-214.538	-139.811	0.203	-0.021
-213.523	-200.000	-0.104	0.486
-212.509	265.965	-0.010	0.017
-211.494	800.000	-0.099	-0.315
-210.479	-200.000	0.019	-0.109
-209.465	800.000	0.029	0.114
-208.450	-69.842	-0.047	-0.018
-207.436	-200.000	-0.007	0.357
-206.421	-112.325	0.221	0.044
-205.406	661.841	0.076	-0.194
-204.392	286.358	-0.065	0.117
-203.377	-200.000	-0.018	0.300
-202.363	-117.242	-0.196	0.035
-201.348	-200.000	0.070	0.325
-200.333	-200.000	0.032	0.145
-199.319	61.939	-0.215	-0.213
-198.304	42.568	0.021	0.019
-197.290	-187.436	0.298	0.004
-196.275	-98.945	0.253	0.064
-195.260	125.689	0.192	0.241
-194.246	-200.000	0.051	-0.563
-193.231	-39.190	-0.378	-0.197
-192.217	231.929	0.019	-0.031
-191.202	-200.000	-0.012	-0.099
-190.187	800.000	-0.025	0.104
-189.173	83.847	0.101	-0.110
-188.158	-158.852	0.073	-0.004
-187.144	184.150	-0.080	0.117
-186.129	-200.000	0.001	-0.113
-185.114	207.669	-0.222	-0.344
-184.100	-34.311	0.293	-0.159
-183.085	138.856	0.115	-0.150
-182.071	-17.998	-0.197	-0.123
-181.056	168.957	0.079	0.112
-180.042	-35.319	-0.250	-0.135
-179.027	-200.000	0.038	0.402
-178.012	118.469	0.181	0.222
-176.998	800.000	-0.159	-0.485
-175.983	-50.285	-0.217	0.102
-174.969	-200.000	-0.049	0.249
-173.954	-200.000	-0.008	0.077
-172.939	-75.201	-0.079	0.028
-171.925	-63.846	-0.124	-0.050
-170.910	130.277	0.091	-0.115
-169.896	27.176	-0.261	-0.218
-168.881	-200.000	-0.001	-0.060
-167.866	-200.000	-0.029	0.128
-166.852	-24.172	-0.102	-0.060
-165.837	-200.000	-0.016	-0.152
-164.823	800.000	0.081	-0.253
-163.808	-200.000	-0.013	-0.178
-162.793	4.921	0.199	-0.145
-161.779	-97.777	0.193	0.049
-160.764	-200.000	-0.052	0.371
-159.750	-69.187	0.051	-0.019
-158.735	-93.576	0.039	0.011
-157.720	-59.884	0.048	-0.020
-156.706	-194.907	0.162	-0.001
-155.691	-200.000	0.045	-0.298
-154.677	-86.755	-0.255	-0.077
-153.662	-200.000	-0.022	-0.190
-152.647	66.428	-0.188	0.189
-151.633	-39.051	-0.290	-0.151
-150.618	-127.300	0.197	0.028
-149.604	-200.000	-0.044	0.518
-148.589	318.888	0.098	-0.185
-147.574	-40.345	0.197	0.101
-146.560	196.349	0.058	-0.088
-145.545	57.964	-0.145	-0.141
-144.531	-200.000	0.025	-0.278
-143.516	-152.176	0.106	0.008
-142.502	28.226	-0.073	0.061
-141.487	348.604	0.051	0.100
-140.472	-145.410	-0.095	-0.009
-139.458	-83.015	0.118	-0.038
-138.443	-89.230	0.159	-0.046
-137.429	98.630	-0.175	0.200
-136.414	-133.805	0.263	0.032
-135.399	75.561	0.260	0.271
-134.385	-28.337	-0.248	-0.142
-133.370	800.000	0.075	0.207
-132.356	-127.103	0.191	-0.028
-131.341	36.218	-0.045	-0.039
-130.326	-142.315	-0.142	-0.014
-129.312	22.208	0.214	-0.173
-128.297	-200.000	0.054	-0.418
-127.283	-20.252	0.175	0.107
-126.268	-200.000	0.023	0.309
-125.253	-200.000	-0.007	0.253
-124.239	366.161	0.071	-0.141
-123.224	800.000	-0.007	0.025
-122.210	28.535	0.397	-0.333
-121.195	206.097	-0.049	0.075
-120.180	3.146	0.131	-0.094
-119.166	266.137	-0.111	0.192
-118.151	-45.488	-0.107	-0.053
-117.137	228.239	-0.086	0.139
-116.122	-106.955	-0.189	0.041
-115.107	208.998	0.238	0.369
-114.093	715.075	0.225	0.591
-113.078	-200.000	-0.024	-0.230
-112.064	19.518	0.108	-0.086
-111.049	-23.798	0.385	0.228
-110.034	-94.283	-0.054	-0.015
-109.020	-177.437	-0.136	0.003
-108.005	248.108	-0.013	-0.022
-106.991	-200.000	0.058	0.264
-105.976	800.000	-0.053	-0.174
-104.962	800.000	-0.127	-0.458
-103.947	-200.000	-0.030	0.252
-102.932	800.000	0.050	0.147
-101.918	80.121	-0.370	0.394
-100.903	-31.091	-0.117	-0.065
-99.889	411.381	-0.193	0.404
-98.874	-116.618	0.317	-0.058
-97.859	800.000	-0.119	0.383
-96.845	800.000	0.063	0.177
-95.830	578.891	-0.040	-0.096
-94.816	128.568	0.116	0.146
-93.801	-200.000	-0.004	0.153
-92.786	487.957	-0.065	-0.147
-91.772	800.000	0.060	0.233
-90.757	-200.000	-0.013	-0.069
-89.743	-15.652	0.127	0.080
-88.728	260.215	-0.134	-0.228
-87.713	-57.968	-0.115	-0.050
-86.699	39.807	-0.013	0.011
-85.684	173.974	0.063	-0.090
-84.670	-99.091	-0.132	-0.033
-83.655	227.455	0.105	-0.169
-82.640	168.541	-0.090	0.126
-81.626	-59.493	-0.325	0.138
-80.611	18.461	-0.082	-0.065
-79.597	-200.000	0.077	0.562
-78.582	-4.410	0.302	0.207
-77.567	132.267	-0.071	0.090
-76.553	434.755	0.219	0.470
-75.538	-200.000	0.027	0.128
-74.524	310.492	-0.099	-0.184
-73.509	-144.415	0.085	-0.008
-72.494	84.967	0.151	0.163
-71.480	800.000	0.100	0.294
-70.465	800.000	0.127	-0.495
-69.451	-163.527	0.382	-0.018
-68.436	86.808	-0.161	0.176
-67.422	372.113	0.102	-0.205
-66.407	332.780	-0.147	0.281
-65.392	-59.039	0.212	0.090
-64.378	-200.000	0.037	0.383
-63.363	-200.000	-0.010	0.109
-62.349	-160.009	-0.013	-0.001
-61.334	72.056	-1.010	-1.039
-60.319	263.656	0.100	0.172
-59.305	-200.000	-0.171	-0.866
-58.290	800.000	0.346	1.083
-57.276	249.950	0.810	1.357
-56.261	-200.000	96.133	583.641
-55.246	569.943	1373.351	3298.363
-54.232	154.552	2573.155	3489.081
-53.217	116.562	2158.271	2613.457
-52.203	47.218	1617.787	1487.030
-51.188	38.938	1355.569	1195.789
-50.173	35.474	1313.505	1138.142
-49.159	57.827	1362.640	1316.100
-48.144	62.352	1380.596	1360.623
-47.130	39.212	1334.741	1178.874
-46.115	35.475	1316.980	1140.980
-45.100	35.324	1312.093	1135.805
-44.086	35.255	1309.284	1132.925
-43.071	35.283	1306.877	1130.957
-42.057	35.234	1305.192	1129.171
-41.042	35.243	1303.415	1127.637
-40.027	35.405	1301.519	1126.904
-39.013	35.249	1300.230	1124.830
-37.998	35.201	1298.502	1123.008
-36.984	35.357	1296.440	1122.091
-35.969	35.411	1294.209	1120.435
-34.954	35.401	1292.937	1119.228
-33.940	35.477	1291.858	1118.696
-32.925	35.584	1290.058	1117.712
-31.911	35.502	1288.477	1115.823
-30.896	35.459	1287.590	1114.760
-29.881	35.637	1285.670	1114.089
-28.867	35.533	1284.653	1112.560
-27.852	35.544	1283.305	1111.410
-26.838	35.620	1281.669	1110.390
-25.823	35.542	1280.508	1108.885
-24.809	35.466	1279.349	1107.404
-23.794	35.409	1278.045	1105.900
-22.779	35.495	1276.653	1105.147
-21.765	35.457	1275.117	1103.558
-20.750	35.467	1274.139	1102.726
-19.736	35.407	1272.688	1101.078
-18.721	35.321	1272.172	1100.097
-17.706	35.413	1270.067	1098.759
-16.692	35.371	1269.062	1097.605
-15.677	35.414	1268.027	1096.910
-14.663	35.285	1267.121	1095.347
-13.648	35.347	1265.710	1094.438
-12.633	35.388	1264.660	1093.724
-11.619	35.239	1264.456	1092.653
-10.604	35.431	1263.224	1092.635
-9.590	35.407	1262.291	1091.650
-8.575	35.262	1261.199	1089.838
-7.560	35.266	1260.687	1089.378
-6.546	35.427	1259.364	1089.101
-5.531	35.260	1258.659	1087.503
-4.517	35.265	1258.116	1087.021
-3.502	35.314	1257.048	1086.332
-2.487	35.365	1256.076	1085.737
-1.473	35.296	1251.720	1081.540
-0.458	33.464	1236.357	1058.001
0.556	30.070	1216.858	1014.122
1.571	25.615	1221.516	993.376
2.586	24.399	1235.592	997.938
3.600	23.490	1225.113	984.341
4.615	17.381	1152.042	893.563
5.629	7.545	1075.251	785.481
6.644	3.167	1054.879	749.244
7.659	2.713	1052.061	744.972
8.673	2.666	1050.236	743.387
9.688	2.716	1048.575	742.389
10.702	3.029	1047.665	743.191
11.717	8.843	1056.282	777.516
12.731	18.861	1070.373	836.839
13.746	24.829	1077.544	871.538
14.761	26.288	1079.120	879.842
15.775	26.272	1078.962	879.561
16.790	26.046	1078.390	877.916
17.804	26.065	1077.436	877.154
18.819	26.068	1077.426	877.084
19.834	26.241	1076.814	877.345
20.848	26.273	1076.498	877.169
21.863	26.370	1076.022	877.170
22.877	26.334	1074.935	876.033
23.892	26.222	1074.112	874.741
24.907	26.274	1073.879	874.728
25.921	26.145	1072.901	873.229
26.936	26.136	1071.471	871.947
27.950	26.223	1069.662	870.816
28.965	26.109	1068.014	868.846
29.980	26.133	1066.615	867.748
30.994	26.347	1065.607	867.880
32.009	26.238	1064.897	866.700
33.023	26.148	1063.617	865.153
34.038	26.152	1063.271	864.813
35.053	26.341	1062.200	864.767
36.067	26.215	1061.434	863.466
37.082	26.323	1060.723	863.330
38.096	26.530	1059.974	863.628
39.111	26.601	1059.324	863.365
40.126	26.466	1057.679	861.305
41.140	26.016	1056.337	857.994
42.155	25.817	1055.344	856.163
43.169	25.909	1054.282	855.663
44.184	25.947	1053.515	855.146
45.199	25.843	1052.592	853.830
46.213	25.828	1051.869	853.094
47.228	25.967	1051.384	853.285
48.242	26.013	1050.557	852.756
49.257	26.272	1049.529	853.068
50.271	26.338	1048.787	852.702
51.286	26.507	1047.931	852.727
52.301	26.361	1047.182	851.356
53.315	26.212	1046.097	849.699
54.330	26.134	1045.209	848.535
55.344	26.265	1044.671	848.638
56.359	26.157	1043.484	847.089
57.374	26.025	1042.532	845.626
58.388	26.044	1042.015	845.217
59.403	26.048	1041.090	844.412
60.417	25.888	1040.166	842.839
61.432	25.786	1039.710	841.917
62.447	25.881	1039.096	841.790
63.461	26.051	1038.578	842.091
64.476	26.035	1037.043	840.698
65.490	25.849	1036.243	839.107
66.505	25.873	1035.957	838.914
67.520	26.007	1034.924	838.628
68.534	25.791	1033.565	836.446
69.549	25.486	1032.811	834.346
70.563	25.448	1032.251	833.646
71.578	25.460	1031.336	832.888
72.593	25.197	1030.623	831.021
73.607	25.416	1029.938	831.409
74.622	25.759	1030.026	832.993
75.636	25.745	1028.756	831.829
76.651	25.647	1027.824	830.547
77.666	25.448	1027.072	828.948
78.680	25.750	1025.772	829.216
79.695	25.634	1025.987	828.785
80.709	25.919	1024.703	828.986
81.724	25.870	1024.057	828.163
82.739	25.821	1023.664	827.548
83.753	26.295	1023.024	829.132
84.768	26.421	1022.449	829.169
85.782	26.637	1021.540	829.349
86.797	26.474	1020.380	827.590
87.812	26.325	1019.624	826.222
88.826	26.503	1018.145	825.762
89.841	26.560	1018.087	825.900
90.855	26.556	1017.072	824.989
91.870	26.518	1015.613	823.558
92.884	26.251	1014.931	821.717
93.899	26.386	1013.709	821.267
94.914	26.450	1013.425	821.255
95.928	26.406	1012.021	819.845
96.943	26.123	1010.672	817.399
97.957	25.936	1009.502	815.535
98.972	25.690	1008.824	813.802
99.987	26.002	1007.891	814.386
101.001	26.059	1007.576	814.317
102.016	26.035	1006.487	813.260
103.030	26.150	1005.180	812.646
104.045	25.968	1004.426	811.147
105.060	25.849	1003.401	809.711
106.074	25.988	1003.139	810.056
107.089	26.381	1002.190	810.981
108.103	26.255	1001.172	809.519
109.118	25.950	999.980	807.119
110.133	25.845	999.301	806.029
111.147	25.811	997.771	804.572
112.162	25.723	996.737	803.277
113.176	26.028	996.432	804.317
114.191	25.821	995.871	802.872
115.206	25.417	994.711	800.065
116.220	25.475	993.892	799.594
117.235	25.530	993.419	799.390
118.249	25.731	991.980	799.055
119.264	25.511	991.667	797.754
120.279	25.599	991.033	797.564
121.293	25.749	989.899	797.243
122.308	25.688	989.503	796.585
123.322	25.594	988.147	795.006
124.337	25.373	986.988	793.028
125.352	24.956	985.361	789.814
126.366	24.840	984.537	788.570
127.381	25.654	984.491	792.049
128.395	26.136	984.236	793.892
129.410	26.200	983.633	793.618
130.424	26.188	982.501	792.584
131.439	26.171	981.735	791.821
132.454	26.124	980.924	790.888
133.468	26.092	980.225	790.117
134.483	26.218	979.117	789.702
135.497	26.413	978.630	790.093
136.512	26.462	977.783	789.555
137.527	26.489	976.772	788.786
138.541	26.365	976.660	788.085
139.556	26.494	975.626	787.740
140.570	26.518	974.740	787.061
141.585	26.483	973.854	786.123
142.600	26.578	972.366	785.266
143.614	26.677	971.979	785.314
144.629	26.929	971.291	785.778
145.643	26.692	969.649	783.354
146.658	26.510	968.362	781.462
147.673	26.385	967.780	780.382
148.687	26.248	966.786	778.923
149.702	26.144	965.529	777.391
150.716	26.149	964.914	776.850
151.731	26.546	963.852	777.631
152.746	26.405	963.898	776.996
153.760	26.520	963.521	777.116
154.775	26.597	962.982	776.943
155.789	26.614	961.645	775.868
156.804	26.684	960.564	775.227
157.819	26.624	960.224	774.627
158.833	26.779	959.482	774.625
159.848	26.639	958.738	773.355
160.862	26.631	957.370	772.148
161.877	26.653	956.456	771.440
162.892	26.543	955.280	769.953
163.906	26.615	953.725	768.939
164.921	26.480	953.256	767.920
165.935	26.492	952.860	767.584
166.950	26.634	951.084	766.684
167.964	26.482	951.133	766.013
168.979	26.531	949.308	764.685
169.994	26.461	948.683	763.817
171.008	26.649	948.347	764.273
172.023	26.703	947.738	763.941
173.037	26.326	946.443	761.244
174.052	26.207	945.521	759.933
175.067	26.275	944.805	759.575
176.081	26.385	944.529	759.749
177.096	26.327	943.879	758.915
178.110	26.037	942.757	756.728
179.125	25.919	942.191	755.713
180.140	26.029	941.496	755.551
181.154	26.041	941.679	755.681
182.169	26.420	941.111	756.745
183.183	26.617	940.756	757.214
184.198	26.497	940.016	756.051
185.213	26.396	939.271	754.965
186.227	26.557	938.587	755.018
187.242	26.594	937.810	754.482
188.256	26.589	936.998	753.740
189.271	26.723	936.127	753.531
190.286	26.401	935.102	751.299
191.300	25.584	933.754	746.760
192.315	24.898	932.038	742.479
193.329	24.876	931.190	741.646
194.344	25.842	932.571	746.687
195.359	26.373	932.142	748.474
196.373	26.390	931.871	748.263
197.388	26.390	931.241	747.691
198.402	26.503	930.159	747.222
199.417	26.576	929.490	746.918
200.432	26.191	928.792	744.704
201.446	26.334	927.806	744.438
202.461	26.160	927.862	743.699
203.475	25.192	926.281	738.386
204.490	24.538	924.478	734.193
205.504	25.312	925.084	737.792
206.519	25.963	925.124	740.432
207.534	26.044	924.349	740.080
208.548	26.582	923.816	741.792
209.563	26.315	922.778	739.799
210.577	26.211	922.495	739.082
211.592	26.746	922.113	740.898
212.607	26.599	921.306	739.584
213.621	26.544	921.086	739.117
214.636	26.763	919.815	738.924
215.650	26.578	919.446	737.810
216.665	26.630	919.087	737.667
217.680	26.754	917.808	737.080
218.694	26.249	916.859	734.203
219.709	26.156	915.941	733.025
220.723	26.239	916.006	733.347
221.738	26.501	915.240	733.733
222.753	26.518	914.926	733.485
223.767	26.614	914.685	733.616
224.782	26.838	914.039	733.937
225.796	26.826	913.564	733.443
226.811	26.100	911.917	729.125
227.826	25.417	910.795	725.407
228.840	25.567	910.249	725.512
229.855	25.642	909.868	725.449
230.869	25.271	908.665	722.932
231.884	25.732	908.912	724.921
232.899	26.535	908.880	728.063
233.913	26.415	908.126	726.911
234.928	26.209	907.888	725.830
235.942	26.453	906.903	725.955
236.957	25.971	905.973	723.214
237.972	26.032	905.448	722.974
238.986	26.081	904.868	722.647
240.001	26.023	904.325	721.915
241.015	26.269	903.808	722.422
242.030	26.444	903.249	722.612
243.045	26.476	903.049	722.514
244.059	26.720	902.349	722.864
245.074	26.494	901.545	721.256
246.088	26.174	900.458	719.047
247.103	26.255	900.670	719.476
248.117	26.831	900.774	721.788
249.132	27.229	899.954	722.649
250.147	27.155	899.693	722.082
251.161	27.331	899.263	722.372
252.176	27.362	898.467	721.792
253.190	27.446	898.391	722.000
254.205	27.705	897.513	722.258
255.220	27.465	897.083	720.897
256.234	27.422	896.211	719.961
257.249	27.270	895.389	718.637
258.263	27.217	895.114	718.143
259.278	27.423	894.373	718.299
260.293	27.546	893.591	718.093
261.307	27.269	893.158	716.588
262.322	27.124	891.796	714.861
263.336	26.314	890.244	710.372
264.351	25.328	888.446	705.005
265.366	25.481	888.203	705.353
266.380	26.465	889.103	709.866
267.395	26.910	888.550	711.106
268.409	27.089	887.392	710.818
269.424	27.109	887.247	710.716
270.439	27.199	886.714	710.579
271.453	27.246	886.097	710.203
272.468	27.475	885.803	710.802
273.482	27.377	885.625	710.212
274.497	27.075	884.078	707.733
275.512	26.703	883.425	705.698
276.526	27.191	883.444	707.551
277.541	27.338	883.026	707.727
278.555	27.033	882.042	705.689
279.570	26.971	881.295	704.790
280.585	26.915	880.831	704.137
281.599	26.972	879.912	703.562
282.614	26.372	878.856	700.332
283.628	26.378	878.504	700.012
284.643	26.914	877.824	701.482
285.657	26.428	876.712	698.654
286.672	26.138	876.038	696.935
287.687	26.673	876.304	699.151
288.701	26.821	875.535	699.048
289.716	26.409	874.685	696.717
290.730	26.498	874.055	696.498
291.745	25.981	873.331	693.871
292.760	26.484	873.080	695.545
293.774	27.476	873.452	699.591
294.789	27.670	872.937	699.862
295.803	27.648	872.870	699.661
296.818	27.744	871.932	699.215
297.833	27.344	870.593	696.550
298.847	27.111	870.071	695.176
299.862	27.538	869.948	696.651
300.876	27.859	869.842	697.730
301.891	27.576	869.164	696.045
302.906	27.261	867.967	693.825
303.920	27.388	867.727	694.057
304.935	27.677	867.626	695.015
305.949	27.717	866.558	694.250
306.964	27.393	866.434	692.855
307.979	27.486	865.615	692.495
308.993	27.853	865.801	693.974
310.008	27.873	864.824	693.206
311.022	27.679	863.828	691.612
312.037	27.334	863.364	689.870
313.052	27.178	862.328	688.392
314.066	26.145	861.215	683.533
315.081	25.925	860.142	681.789
316.095	26.908	860.069	685.387
317.110	27.398	860.263	687.332
318.125	26.529	858.768	682.798
319.139	25.485	857.244	677.593
320.154	25.345	857.118	676.907
321.168	26.298	857.593	680.814
322.183	26.909	858.124	683.476
323.197	27.209	857.549	684.087
324.212	27.442	857.132	684.572
325.227	27.488	855.994	683.774
326.241	27.305	855.648	682.750
327.256	27.220	854.891	681.769
328.270	27.195	854.053	680.945
329.285	27.010	853.105	679.435
330.300	26.592	852.769	677.545
331.314	26.967	852.217	678.449
332.329	27.408	852.297	680.098
333.343	27.679	851.757	680.622
334.358	27.515	851.342	679.617
335.373	27.598	851.367	679.887
336.387	27.927	851.293	680.994
337.402	28.035	851.271	681.318
338.416	27.824	850.912	680.184
339.431	28.166	850.539	681.099
340.446	28.217	850.016	680.809
341.460	28.039	849.708	679.842
342.475	27.931	848.884	678.722
343.489	28.104	848.460	678.962
344.504	28.300	848.404	679.585
345.519	28.438	847.806	679.559
346.533	28.352	847.852	679.215
347.548	28.427	846.868	678.645
348.562	28.351	846.385	677.918
349.577	28.370	845.688	677.371
350.592	28.397	844.930	676.803
351.606	28.320	844.260	675.922
352.621	28.319	843.300	675.089
353.635	28.092	843.078	674.017
354.650	27.432	841.245	670.062
355.665	26.626	839.433	665.601
356.679	26.969	839.523	666.873
357.694	27.353	839.151	667.928
358.708	27.156	838.991	667.020
359.723	27.725	838.551	668.697
360.738	27.956	838.363	669.333
361.752	28.154	837.916	669.643
362.767	28.239	837.799	669.801
363.781	28.727	837.241	671.077
364.796	28.789	837.139	671.163
365.810	28.763	836.914	670.829
366.825	28.749	836.322	670.244
367.840	28.363	835.266	667.930
368.854	28.061	833.972	665.739
369.869	28.102	833.807	665.695
370.883	28.110	833.594	665.496
371.898	28.009	833.080	664.662
372.913	28.039	832.647	664.365
373.927	28.245	832.178	664.679
374.942	28.480	831.752	665.134
375.956	28.391	831.547	664.588
376.971	28.537	831.266	664.834
377.986	28.628	831.066	664.946
379.000	28.692	830.203	664.428
380.015	28.449	829.245	662.723
381.029	28.482	828.756	662.393
382.044	28.659	828.388	662.679
383.059	28.719	827.968	662.500
384.073	28.767	827.295	662.076
385.088	28.713	826.726	661.367
386.102	28.341	826.302	659.631
387.117	28.299	825.360	658.671
388.132	27.983	823.905	656.317
389.146	27.549	823.318	654.234
390.161	28.001	823.150	655.664
391.175	28.338	822.895	656.610
392.190	28.150	821.864	655.058
393.205	26.689	819.917	648.223
394.219	25.002	818.427	640.957
395.234	25.087	817.867	640.767
396.248	26.740	819.210	647.676
397.263	28.131	820.550	653.652
398.278	28.297	819.825	653.609
399.292	27.952	819.215	651.836
400.307	27.881	818.762	651.161
401.321	28.064	818.189	651.302
402.336	28.464	818.175	652.657
403.350	28.776	818.202	653.732
404.365	29.098	818.174	654.797
405.380	29.463	817.714	655.669
406.394	29.459	817.401	655.343
407.409	29.463	816.331	654.441
408.423	29.363	816.160	653.893
409.438	29.400	815.812	653.687
410.453	29.449	815.413	653.485
411.467	29.388	814.959	652.846
412.482	29.302	814.829	652.380
413.496	29.422	814.237	652.274
414.511	29.419	813.821	651.871
415.526	29.461	812.818	651.158
416.540	29.298	812.907	650.597
417.555	28.955	812.166	648.736
418.569	29.107	811.405	648.605
419.584	29.172	810.719	648.231
420.599	28.918	810.412	647.033
421.613	108.153	1283.011	1441.001
422.628	93.477	1351.868	1441.141
