DTS Sentinel unit serial number:	SN413079Multiplexer serial number:	ORYXHardware model number:	OX4-SRSoftware version number:	ORYX F/W v4.00 Oryx Data Collector v3.7.2.0data status	okinstallation	princeton_trtdifferential loss correction	single-endedforward channel	channel 1reverse channel	N/Adate	2019/09/11time	09:48:11forward acquisition time	60.00reverse acquisition time	0.00gamma	496.2192k internal	0.2304k external	0.2304temperature offset calibration	0.9958default loss term (dB/km)	0.3790temperature slope calibration	1.0000multiplexer offset coefficient	1.0000multiplexer slope coefficient	1.0000fibre end	0.00T internal ref (°C)	35.00T ext. ref 1 (°C)	0.12T ext. ref 2 (°C)	31.83length (m)	temperature (°C)	Stokes	anti-Stokes-747.200	-89.465	0.155	0.046
-746.185	42.771	-0.059	-0.055
-745.171	800.000	-0.068	-0.239
-744.156	-200.000	-0.070	0.364
-743.142	74.116	-0.197	-0.210
-742.127	-84.246	0.167	-0.054
-741.112	-46.539	-0.246	-0.123
-740.098	-37.662	0.248	0.134
-739.083	-200.000	0.008	0.090
-738.069	76.609	-0.171	-0.185
-737.054	800.000	0.117	0.404
-736.039	-117.372	-0.354	0.065
-735.025	-151.974	0.257	-0.019
-734.010	-46.701	-0.344	-0.172
-732.996	-8.212	0.040	0.027
-731.981	800.000	0.115	0.329
-730.966	-200.000	0.008	0.129
-729.952	-101.819	-0.233	-0.057
-728.937	-161.666	0.265	-0.014
-727.923	800.000	-0.061	0.229
-726.908	240.877	0.065	-0.111
-725.894	-6.622	0.229	0.158
-724.879	45.445	0.092	0.086
-723.864	-200.000	0.075	-0.562
-722.850	181.646	-0.125	-0.187
-721.835	-197.884	0.066	0.000
-720.821	1.773	-0.088	-0.065
-719.806	-91.834	-0.375	-0.108
-718.791	247.756	-0.311	-0.535
-717.777	-20.375	0.515	0.322
-716.762	26.553	0.172	0.147
-715.748	-34.320	0.351	-0.196
-714.733	292.145	-0.184	-0.342
-713.718	-28.472	-0.354	0.208
-712.704	-114.383	-0.406	-0.079
-711.689	800.000	0.058	0.199
-710.675	-200.000	0.019	0.163
-709.660	99.775	0.151	-0.178
-708.645	-72.147	-0.059	-0.022
-707.631	800.000	-0.073	-0.236
-706.616	800.000	0.048	0.167
-705.602	-200.000	-0.032	-0.263
-704.587	-183.179	-0.214	-0.004
-703.572	423.096	-0.104	0.227
-702.558	43.802	-0.185	0.172
-701.543	-158.121	-0.237	-0.014
-700.529	69.655	0.116	-0.121
-699.514	-66.208	0.256	0.104
-698.499	336.966	0.034	-0.066
-697.485	149.900	-0.115	0.158
-696.470	86.255	-0.036	0.040
-695.456	156.596	-0.178	-0.250
-694.441	-200.000	-0.004	-0.279
-693.426	800.000	-0.133	-0.498
-692.412	202.435	0.044	0.070
-691.397	-170.297	0.105	-0.004
-690.383	-87.791	0.095	-0.029
-689.368	41.920	0.061	0.056
-688.354	-12.063	-0.099	-0.066
-687.339	558.135	-0.167	-0.410
-686.324	-106.004	-0.228	-0.052
-685.310	167.789	-0.163	-0.235
-684.295	32.323	0.141	-0.124
-683.281	82.649	-0.143	0.157
-682.266	-200.000	0.001	0.121
-681.251	182.458	-0.216	-0.324
-680.237	-100.043	0.108	-0.027
-679.222	-75.606	0.157	-0.057
-678.208	-160.109	0.314	-0.017
-677.193	-200.000	0.002	-0.217
-676.178	75.533	-0.133	0.143
-675.164	248.061	-0.184	0.316
-674.149	449.117	-0.151	0.339
-673.135	114.503	-0.301	-0.372
-672.120	160.212	-0.083	0.118
-671.105	-19.335	-0.280	0.176
-670.091	274.764	-0.041	0.073
-669.076	165.280	-0.057	0.082
-668.062	-47.932	0.123	0.061
-667.047	115.940	0.186	-0.231
-666.032	-25.972	0.210	0.125
-665.018	68.081	0.195	-0.203
-664.003	225.801	-0.040	-0.065
-662.989	800.000	0.051	0.209
-661.974	135.933	0.056	0.074
-660.959	3.251	0.310	-0.229
-659.945	-200.000	-0.006	-0.192
-658.930	197.508	-0.160	0.248
-657.916	-41.841	-0.174	0.091
-656.901	-200.000	-0.012	-0.097
-655.886	65.150	-0.153	-0.157
-654.872	-127.463	-0.304	-0.045
-653.857	459.756	0.040	0.091
-652.843	20.771	-0.085	0.070
-651.828	28.783	0.223	0.192
-650.814	-200.000	-0.004	0.065
-649.799	323.231	-0.086	-0.166
-648.784	336.959	0.095	-0.187
-647.770	130.575	-0.031	0.040
-646.755	-56.941	-0.243	0.109
-645.741	-200.000	0.005	-0.129
-644.726	610.964	-0.088	-0.224
-643.711	-5.353	0.103	-0.072
-642.697	20.477	-0.085	-0.070
-641.682	-200.000	-0.031	-0.156
-640.668	45.924	-0.228	0.214
-639.653	-137.401	0.140	0.016
-638.638	405.394	-0.093	-0.199
-637.624	800.000	-0.074	-0.310
-636.609	-4.635	-0.149	0.104
-635.595	-133.601	0.272	-0.035
-634.580	364.166	0.118	-0.241
-633.565	-137.765	0.094	0.011
-632.551	-200.000	-0.033	0.154
-631.536	-47.903	-0.161	0.079
-630.522	-82.969	0.137	0.045
-629.507	-132.739	0.115	0.015
-628.492	8.660	0.153	0.117
-627.478	-60.533	-0.312	-0.134
-626.463	-200.000	0.002	0.121
-625.449	57.412	-0.185	-0.183
-624.434	117.840	-0.205	-0.256
-623.419	146.860	-0.116	-0.159
-622.405	33.720	-0.076	0.067
-621.390	38.128	-0.160	-0.144
-620.376	-47.866	-0.207	0.101
-619.361	-25.357	0.333	-0.199
-618.346	800.000	-0.057	0.237
-617.332	-16.332	0.220	0.142
-616.317	574.325	-0.044	-0.108
-615.303	63.121	0.044	0.045
-614.288	212.417	-0.196	-0.313
-613.273	-200.000	0.008	0.064
-612.259	-102.480	-0.408	-0.099
-611.244	-126.271	-0.144	0.022
-610.230	-71.922	-0.488	-0.184
-609.215	-54.996	-0.136	-0.062
-608.201	-104.381	0.318	0.075
-607.186	242.410	-0.227	0.384
-606.171	-200.000	0.005	-0.287
-605.157	167.532	0.210	-0.302
-604.142	-140.520	-0.228	0.024
-603.128	158.822	0.166	-0.233
-602.113	-15.184	0.144	0.093
-601.098	-134.308	-0.161	-0.020
-600.084	-200.000	-0.042	0.224
-599.069	90.619	0.057	-0.064
-598.055	542.795	-0.056	0.134
-597.040	-85.604	0.169	-0.053
-596.025	96.690	0.076	-0.088
-595.011	224.233	-0.158	-0.258
-593.996	215.765	0.177	-0.284
-592.982	251.432	-0.097	-0.168
-591.967	-111.085	-0.360	-0.075
-590.952	-100.478	-0.130	-0.033
-589.938	147.565	-0.113	0.154
-588.923	-185.858	0.205	-0.003
-587.909	300.286	-0.094	-0.175
-586.894	-58.266	-0.112	0.049
-585.879	147.617	0.148	-0.201
-584.865	-200.000	-0.009	-0.425
-583.850	182.919	0.048	-0.072
-582.836	-37.989	0.270	0.145
-581.821	-37.424	0.202	-0.109
-580.806	242.234	-0.106	0.179
-579.792	83.233	0.098	-0.108
-578.777	-128.866	0.198	0.028
-577.763	-200.000	0.003	0.050
-576.748	-200.000	-0.010	-0.187
-575.733	-171.603	0.194	0.006
-574.719	100.905	0.026	0.030
-573.704	298.732	0.080	0.149
-572.690	-200.000	-0.001	-0.108
-571.675	386.541	0.101	-0.211
-570.661	-90.907	0.399	-0.116
-569.646	-200.000	-0.033	-0.253
-568.631	-92.192	-0.413	0.118
-567.617	-188.176	0.066	0.001
-566.602	-200.000	-0.003	-0.059
-565.588	-144.860	0.167	-0.015
-564.573	180.171	0.064	0.095
-563.558	225.546	0.050	0.083
-562.544	-71.604	0.284	0.107
-561.529	158.273	-0.137	-0.192
-560.515	85.693	0.115	0.128
-559.500	55.096	-0.042	0.041
-558.485	126.943	0.046	-0.059
-557.471	-141.449	0.151	-0.015
-556.456	-113.911	-0.296	0.058
-555.442	-80.849	-0.243	-0.081
-554.427	-1.156	0.217	0.155
-553.412	523.696	-0.139	-0.331
-552.398	-200.000	-0.016	0.346
-551.383	97.503	-0.181	-0.210
-550.369	-105.875	-0.163	0.037
-549.354	-200.000	-0.076	0.460
-548.339	-200.000	0.026	0.176
-547.325	418.038	-0.079	-0.170
-546.310	-200.000	0.000	0.039
-545.296	136.239	-0.258	-0.339
-544.281	-95.031	0.146	-0.040
-543.266	21.337	-0.102	0.083
-542.252	272.401	-0.003	-0.005
-541.237	800.000	0.067	0.235
-540.223	593.197	0.138	0.344
-539.208	604.869	0.144	0.361
-538.193	-50.394	-0.292	0.139
-537.179	18.548	-0.261	0.211
-536.164	-66.879	0.221	-0.088
-535.150	800.000	-0.077	-0.253
-534.135	30.098	0.221	-0.190
-533.121	632.778	0.168	0.431
-532.106	-200.000	-0.064	-0.539
-531.091	-106.666	0.217	0.049
-530.077	-69.255	0.106	0.041
-529.062	-7.504	0.250	0.171
-528.048	520.591	0.086	0.204
-527.033	-142.758	-0.075	0.007
-526.018	398.216	0.104	0.219
-525.004	-109.898	-0.275	0.058
-523.989	-67.922	0.075	0.029
-522.975	-200.000	0.047	-0.270
-521.960	61.862	0.165	0.166
-520.945	-41.961	-0.499	-0.258
-519.931	800.000	0.079	-0.265
-518.916	800.000	-0.060	0.249
-517.902	629.644	-0.031	-0.080
-516.887	-200.000	-0.018	-0.275
-515.872	469.780	-0.108	0.246
-514.858	-50.778	-0.102	0.049
-513.843	-27.879	0.069	0.040
-512.829	-200.000	-0.026	-0.188
-511.814	-63.998	0.257	-0.106
-510.799	391.293	0.095	0.199
-509.785	1.251	0.163	0.118
-508.770	156.356	-0.091	-0.127
-507.756	-15.312	-0.146	0.094
-506.741	-49.885	-0.278	0.133
-505.726	-109.039	-0.313	0.067
-504.712	-107.962	0.216	0.047
-503.697	64.343	-0.248	0.252
-502.683	-119.247	-0.135	0.024
-501.668	-156.728	-0.188	-0.012
-500.653	-91.855	0.335	0.096
-499.639	538.923	0.146	-0.351
-498.624	145.882	-0.090	0.121
-497.610	-41.246	0.235	0.122
-496.595	-200.000	0.082	-0.379
-495.581	800.000	-0.058	-0.219
-494.566	-200.000	-0.012	0.220
-493.551	-200.000	-0.072	-0.347
-492.537	281.561	0.140	-0.253
-491.522	553.876	0.109	-0.264
-490.508	-200.000	-0.004	0.088
-489.493	9.143	-0.159	-0.121
-488.478	800.000	0.027	0.104
-487.464	206.778	-0.086	0.136
-486.449	-35.520	-0.112	-0.061
-485.435	-200.000	0.008	0.118
-484.420	800.000	-0.066	-0.218
-483.405	561.452	0.128	-0.312
-482.391	327.195	0.151	-0.291
-481.376	-35.843	0.221	-0.120
-480.362	39.790	-0.110	0.099
-479.347	104.617	0.081	-0.096
-478.332	653.007	-0.106	0.274
-477.318	310.935	-0.208	0.392
-476.303	-49.932	0.548	0.262
-475.289	-200.000	-0.047	0.377
-474.274	-200.000	-0.016	0.196
-473.259	-108.037	0.304	0.067
-472.245	633.621	-0.032	0.082
-471.230	-70.710	-0.260	0.099
-470.216	-120.866	0.176	-0.030
-469.201	156.408	0.159	0.221
-468.186	-200.000	-0.028	-0.219
-467.172	4.627	-0.056	-0.042
-466.157	353.724	0.037	0.074
-465.143	-200.000	-0.010	-0.198
-464.128	235.555	-0.154	-0.257
-463.113	59.813	-0.172	-0.171
-462.099	12.793	-0.119	0.092
-461.084	-72.752	0.305	0.113
-460.070	664.980	-0.134	0.349
-459.055	287.014	-0.142	0.258
-458.040	-169.458	0.154	-0.006
-457.026	-200.000	0.030	-0.499
-456.011	-62.155	-0.106	0.044
-454.997	-77.191	-0.417	-0.146
-453.982	194.813	-0.090	-0.138
-452.968	-36.502	-0.207	0.112
-451.953	-121.438	-0.175	0.029
-450.938	-200.000	0.013	-0.145
-449.924	-53.274	0.321	0.148
-448.909	-120.867	-0.168	0.029
-447.895	283.345	0.067	-0.121
-446.880	-200.000	0.011	-0.075
-445.865	7.082	-0.134	-0.101
-444.851	-78.582	-0.332	0.114
-443.836	-110.672	-0.464	0.097
-442.822	-73.278	0.230	-0.085
-441.807	-109.870	-0.171	-0.036
-440.792	800.000	0.052	0.146
-439.778	-24.443	0.269	-0.161
-438.763	-200.000	-0.071	-0.472
-437.749	56.482	0.215	0.211
-436.734	268.370	-0.167	0.294
-435.719	-16.678	0.158	-0.100
-434.705	55.692	-0.154	0.151
-433.690	-109.949	-0.083	-0.018
-432.676	18.165	0.138	-0.110
-431.661	-90.557	0.171	-0.050
-430.646	33.107	0.337	0.294
-429.632	-138.445	-0.364	-0.040
-428.617	-5.151	0.067	0.046
-427.603	-80.694	-0.028	-0.009
-426.588	-200.000	0.033	0.181
-425.573	-131.055	0.415	-0.056
-424.559	4.147	0.172	-0.126
-423.544	603.362	0.055	-0.138
-422.530	-6.314	-0.088	0.061
-421.515	800.000	-0.097	0.283
-420.500	-200.000	0.027	-0.251
-419.486	257.154	0.033	0.057
-418.471	-98.245	-0.029	0.008
-417.457	-200.000	-0.042	0.294
-416.442	-153.297	-0.447	0.031
-415.428	431.681	0.037	0.081
-414.413	-55.705	0.339	-0.153
-413.398	800.000	0.031	0.125
-412.384	196.560	-0.037	0.056
-411.369	-22.943	0.039	0.024
-410.355	800.000	-0.079	0.281
-409.340	-148.976	0.148	0.012
-408.325	-148.504	0.390	0.032
-407.311	406.759	-0.069	-0.146
-406.296	-200.000	-0.064	-0.355
-405.282	-35.244	-0.318	-0.174
-404.267	-200.000	-0.003	-0.236
-403.252	-200.000	0.049	0.250
-402.238	-78.555	0.178	-0.061
-401.223	-49.856	-0.093	-0.044
-400.209	-28.024	-0.152	-0.089
-399.194	176.008	0.236	-0.344
-398.179	-200.000	0.052	-0.267
-397.165	-200.000	0.015	-0.069
-396.150	460.463	-0.050	0.111
-395.136	-101.802	0.321	0.078
-394.121	220.910	-0.162	-0.261
-393.106	-166.465	-0.396	-0.017
-392.092	800.000	0.041	0.172
-391.077	438.547	-0.089	0.196
-390.063	-200.000	-0.008	0.524
-389.048	101.974	0.089	0.105
-388.033	14.601	-0.056	0.044
-387.019	800.000	0.122	0.349
-386.004	-114.127	0.210	0.041
-384.990	188.165	0.280	0.420
-383.975	69.823	0.122	-0.126
-382.960	-180.769	-0.252	0.005
-381.946	16.288	0.225	-0.178
-380.931	-200.000	0.026	0.121
-379.917	-200.000	0.016	-0.381
-378.902	-87.061	-0.184	0.056
-377.888	800.000	0.042	0.182
-376.873	-90.916	0.267	-0.077
-375.858	47.394	0.132	0.124
-374.844	-200.000	-0.023	-0.152
-373.829	800.000	-0.038	0.128
-372.815	121.767	0.034	0.042
-371.800	196.368	0.087	0.132
-370.785	96.831	0.169	-0.195
-369.771	-200.000	0.031	0.147
-368.756	351.347	0.027	-0.053
-367.742	46.898	0.156	0.145
-366.727	-1.814	-0.209	0.147
-365.712	25.896	-0.075	0.062
-364.698	-109.002	-0.135	-0.029
-363.683	-151.049	0.240	0.018
-362.669	-200.000	-0.043	0.318
-361.654	-124.028	-0.106	0.017
-360.639	-163.830	0.301	-0.014
-359.625	258.390	0.073	-0.126
-358.610	-200.000	-0.057	0.409
-357.596	-111.681	0.177	0.036
-356.581	125.677	0.112	-0.141
-355.566	-14.479	-0.207	0.134
-354.552	21.798	-0.071	-0.058
-353.537	3.517	-0.087	0.063
-352.523	262.286	-0.178	0.310
-351.508	42.512	0.182	0.166
-350.493	-200.000	0.010	-0.060
-349.479	50.679	-0.060	-0.057
-348.464	80.669	-0.221	0.239
-347.450	-183.399	0.203	-0.004
-346.435	-49.339	0.229	-0.110
-345.420	21.840	-0.174	-0.142
-344.406	-41.512	-0.219	-0.113
-343.391	-107.646	-0.174	0.038
-342.377	118.469	-0.008	0.010
-341.362	-68.683	0.072	-0.028
-340.348	277.324	-0.105	0.186
-339.333	-33.075	-0.244	-0.136
-338.318	-200.000	-0.028	-0.130
-337.304	-47.612	-0.243	0.118
-336.289	247.932	0.293	-0.497
-335.275	-200.000	0.006	-0.475
-334.260	-200.000	-0.018	0.206
-333.245	-104.847	0.116	0.027
-332.231	348.649	-0.097	-0.191
-331.216	76.889	-0.168	-0.179
-330.202	-120.743	-0.158	-0.027
-329.187	-112.795	0.177	-0.035
-328.172	105.571	0.098	-0.116
-327.158	63.470	0.154	0.155
-326.143	-27.155	0.126	0.074
-325.129	-200.000	-0.014	0.127
-324.114	-200.000	-0.014	-0.091
-323.099	-12.147	-0.295	0.193
-322.085	-51.740	0.043	-0.020
-321.070	-21.941	0.137	0.083
-320.056	-60.316	0.472	0.201
-319.041	-121.422	-0.226	-0.038
-318.026	146.342	0.094	-0.126
-317.012	-108.960	0.315	-0.067
-315.997	47.963	-0.108	-0.101
-314.983	-200.000	-0.008	0.099
-313.968	-2.284	-0.250	0.175
-312.953	-4.652	-0.105	-0.072
-311.939	-200.000	0.003	0.078
-310.924	-179.689	0.070	0.002
-309.910	78.991	-0.135	0.145
-308.895	-74.665	0.519	-0.187
-307.880	800.000	-0.049	-0.193
-306.866	-112.063	-0.189	0.038
-305.851	-68.365	-0.021	0.008
-304.837	-200.000	0.022	-0.099
-303.822	800.000	-0.051	0.215
-302.807	-200.000	-0.057	0.349
-301.793	-77.823	0.363	-0.125
-300.778	39.155	0.171	0.153
-299.764	-143.494	0.255	0.024
-298.749	265.183	-0.203	-0.354
-297.735	8.436	-0.220	0.166
-296.720	-58.252	0.090	0.039
-295.705	-4.040	0.314	-0.218
-294.691	-134.850	0.323	-0.039
-293.676	-64.470	0.098	0.040
-292.662	800.000	0.012	-0.049
-291.647	-200.000	-0.050	-0.413
-290.632	800.000	0.084	0.253
-289.618	648.025	-0.139	-0.356
-288.603	-138.907	0.432	-0.047
-287.589	216.185	-0.077	0.122
-286.574	800.000	-0.026	0.077
-285.559	-15.041	-0.357	0.229
-284.545	-200.000	-0.056	-0.380
-283.530	-200.000	-0.021	0.308
-282.516	-117.325	-0.237	-0.043
-281.501	-200.000	-0.006	-0.305
-280.486	10.248	0.073	-0.055
-279.472	-200.000	0.044	0.216
-278.457	447.770	-0.017	0.037
-277.443	-38.523	-0.255	0.135
-276.428	-95.793	-0.286	-0.076
-275.413	-130.170	0.553	-0.075
-274.399	90.219	0.139	0.155
-273.384	97.912	0.124	0.143
-272.370	3.197	-0.312	0.227
-271.355	132.665	-0.199	0.257
-270.340	-119.302	0.172	0.030
-269.326	-120.708	-0.184	0.031
-268.311	-200.000	0.008	0.355
-267.297	-200.000	-0.046	0.290
-266.282	-200.000	-0.013	0.107
-265.267	356.040	0.137	0.273
-264.253	-105.360	-0.255	0.058
-263.238	-40.028	0.027	0.014
-262.224	-84.890	-0.118	0.037
-261.209	43.243	-0.144	-0.131
-260.195	37.001	-0.154	0.136
-259.180	23.474	-0.279	0.230
-258.165	800.000	0.106	0.304
-257.151	800.000	-0.066	0.267
-256.136	-200.000	-0.029	0.161
-255.122	-154.179	0.273	-0.018
-254.107	-200.000	0.020	-0.125
-253.092	146.167	0.175	-0.234
-252.078	-96.062	0.152	0.040
-251.063	-200.000	0.025	-0.246
-250.049	800.000	-0.069	0.200
-249.034	-3.354	-0.243	-0.169
-248.019	-91.093	-0.233	0.067
-247.005	508.218	0.084	-0.194
-245.990	-33.332	0.126	0.070
-244.976	-9.727	-0.300	-0.199
-243.961	65.475	-0.150	0.152
-242.946	110.577	0.106	0.127
-241.932	-200.000	0.001	-0.222
-240.917	-93.123	0.143	0.040
-239.903	124.293	0.084	0.105
-238.888	-47.419	-0.086	-0.042
-237.873	21.730	0.057	0.046
-236.859	-126.219	0.291	0.043
-235.844	438.206	-0.067	0.145
-234.830	-200.000	0.020	-0.095
-233.815	19.635	0.194	-0.156
-232.800	582.437	0.029	0.070
-231.786	-51.973	-0.041	0.019
-230.771	-165.776	0.292	0.013
-229.757	316.818	-0.118	-0.223
-228.742	800.000	0.072	0.242
-227.727	-200.000	-0.019	-0.101
-226.713	-182.556	0.311	-0.006
-225.698	-119.475	-0.259	0.045
-224.684	-87.056	-0.231	-0.070
-223.669	84.084	-0.255	0.278
-222.655	131.547	0.096	-0.123
-221.640	-92.729	-0.411	0.115
-220.625	138.893	-0.369	0.484
-219.611	268.727	-0.138	0.241
-218.596	29.975	0.058	0.049
-217.582	-48.179	-0.105	0.050
-216.567	440.642	-0.124	-0.270
-215.552	-200.000	0.003	0.171
-214.538	-141.608	0.139	-0.014
-213.523	-200.000	-0.027	-0.175
-212.509	-42.015	0.289	0.147
-211.494	-152.474	0.203	-0.015
-210.479	-105.590	0.143	-0.032
-209.465	78.686	-0.164	-0.175
-208.450	23.828	0.177	0.145
-207.436	135.735	-0.161	0.209
-206.421	320.245	-0.035	-0.066
-205.406	-17.607	-0.362	0.227
-204.392	371.995	-0.087	0.175
-203.377	800.000	0.131	-0.364
-202.363	-200.000	-0.003	-0.228
-201.348	782.143	-0.115	0.313
-200.333	75.813	0.143	0.151
-199.319	-200.000	0.059	-0.319
-198.304	527.127	0.042	-0.099
-197.290	461.366	-0.004	0.008
-196.275	106.409	0.143	0.169
-195.260	800.000	0.031	0.129
-194.246	21.264	-0.229	-0.185
-193.231	-200.000	-0.022	-0.381
-192.217	467.119	0.036	0.081
-191.202	99.635	0.211	0.243
-190.187	81.194	-0.193	-0.207
-189.173	-87.518	0.163	-0.049
-188.158	-47.573	0.182	0.088
-187.144	1.363	-0.208	-0.149
-186.129	-38.573	0.105	0.055
-185.114	-100.428	-0.227	0.056
-184.100	-140.166	0.181	-0.019
-183.085	-104.255	-0.330	-0.076
-182.071	685.050	0.053	-0.137
-181.056	-73.324	-0.346	-0.126
-180.042	67.947	-0.098	0.100
-179.027	-42.348	0.111	0.057
-178.012	800.000	-0.006	-0.026
-176.998	-22.958	0.045	-0.027
-175.983	277.172	0.054	-0.096
-174.969	-68.662	0.425	-0.164
-173.954	30.988	0.420	-0.358
-172.939	-108.872	-0.259	-0.055
-171.925	-2.577	-0.061	-0.042
-170.910	125.210	-0.062	0.078
-169.896	25.980	0.058	-0.048
-168.881	-28.466	-0.158	-0.091
-167.866	800.000	0.038	-0.104
-166.852	-116.893	0.360	0.066
-165.837	-200.000	0.023	-0.188
-164.823	260.340	0.130	-0.224
-163.808	-90.187	0.402	-0.116
-162.793	-0.975	-0.105	0.074
-161.779	-62.426	0.104	0.043
-160.764	-53.571	-0.051	-0.023
-159.750	-200.000	-0.006	-0.110
-158.735	-48.446	0.062	0.030
-157.720	-120.578	-0.111	0.019
-156.706	800.000	-0.114	0.343
-155.691	-59.685	0.316	0.135
-154.677	211.690	0.097	-0.152
-153.662	-6.224	-0.284	-0.193
-152.647	-60.894	0.263	0.111
-151.633	-200.000	-0.174	-0.000
-150.618	560.896	0.074	0.179
-149.604	-132.147	0.165	0.021
-148.589	800.000	0.023	-0.069
-147.574	-59.211	0.340	-0.146
-146.560	-200.000	-0.015	0.135
-145.545	-73.473	0.159	-0.058
-144.531	-31.676	-0.125	0.070
-143.516	-200.000	-0.006	0.079
-142.502	566.394	0.080	-0.193
-141.487	66.339	0.077	-0.078
-140.472	141.978	0.195	0.258
-139.458	-150.164	0.118	-0.009
-138.443	-12.017	0.391	0.255
-137.429	57.764	0.194	-0.189
-136.414	250.375	-0.082	-0.139
-135.399	36.331	-0.291	0.255
-134.385	-200.000	-0.008	-0.136
-133.370	-92.877	0.200	0.056
-132.356	-41.647	-0.263	-0.134
-131.341	-35.952	-0.301	0.162
-130.326	-200.000	0.046	0.365
-129.312	-30.434	-0.078	0.044
-128.297	-169.768	0.297	-0.011
-127.283	-52.118	0.345	0.159
-126.268	-16.492	0.192	-0.121
-125.253	81.160	-0.235	0.253
-124.239	-43.133	-0.246	0.124
-123.224	-200.000	0.008	0.251
-122.210	-56.390	0.279	0.123
-121.195	-102.161	0.351	-0.084
-120.180	-40.984	-0.352	0.181
-119.166	-200.000	0.049	0.287
-118.151	7.031	0.077	-0.057
-117.137	95.364	0.259	-0.293
-116.122	-200.000	0.012	-0.106
-115.107	-87.230	0.218	0.066
-114.093	0.349	0.091	-0.065
-113.078	9.272	0.166	-0.124
-112.064	714.550	-0.178	0.468
-111.049	-107.679	0.205	-0.045
-110.034	-131.188	-0.011	-0.001
-109.020	-107.664	0.407	-0.088
-108.005	-200.000	0.010	0.181
-106.991	565.730	0.107	0.257
-105.976	-102.036	0.355	-0.085
-104.962	800.000	-0.076	-0.233
-103.947	-126.093	0.151	-0.023
-102.932	8.968	-0.206	0.155
-101.918	-4.243	-0.233	0.160
-100.903	-29.633	-0.028	-0.016
-99.889	-118.813	0.391	-0.068
-98.874	-71.689	-0.144	-0.053
-97.859	418.305	0.101	0.215
-96.845	101.638	0.118	-0.137
-95.830	178.613	-0.072	-0.105
-94.816	113.038	0.173	-0.208
-93.801	-16.522	-0.054	0.034
-92.786	-200.000	0.020	0.177
-91.772	-106.819	0.260	0.057
-90.757	-136.729	0.448	-0.051
-89.743	-200.000	0.003	0.046
-88.728	-200.000	0.023	0.405
-87.713	-200.000	0.016	0.246
-86.699	800.000	-0.117	-0.328
-85.684	-149.301	0.253	-0.020
-84.670	-200.000	-0.009	-0.085
-83.655	-131.677	-0.450	-0.059
-82.640	68.065	0.080	-0.081
-81.626	74.513	0.117	-0.122
-80.611	-75.751	-0.174	-0.061
-79.597	717.580	0.052	0.136
-78.582	-14.687	0.231	0.147
-77.567	-200.000	0.029	0.403
-76.553	123.646	0.080	-0.099
-75.538	-60.650	-0.320	0.135
-74.524	7.508	-0.189	-0.140
-73.509	58.533	0.079	-0.077
-72.494	-146.761	0.314	-0.027
-71.480	-90.743	-0.389	-0.111
-70.465	356.950	0.062	-0.122
-69.451	257.974	0.137	-0.234
-68.436	-200.000	-0.014	0.118
-67.422	-27.552	-0.126	-0.073
-66.407	50.160	0.263	-0.246
-65.392	530.632	0.083	0.194
-64.378	302.499	0.107	-0.196
-63.363	-50.052	-0.273	-0.128
-62.349	800.000	-0.019	0.072
-61.334	-9.134	-0.899	-0.596
-60.319	17.153	0.566	0.445
-59.305	474.395	-0.361	-0.808
-58.290	228.949	0.744	1.203
-57.276	336.538	0.851	1.639
-56.261	-200.000	92.479	515.638
-55.246	560.611	1369.485	3280.563
-54.232	184.792	2611.221	3837.920
-53.217	117.004	2208.203	2688.497
-52.203	46.280	1656.475	1521.744
-51.188	38.548	1387.445	1226.363
-50.173	35.190	1344.548	1167.978
-49.159	54.701	1392.613	1331.263
-48.144	58.754	1410.473	1373.438
-47.130	38.711	1365.330	1207.629
-46.115	35.094	1348.287	1170.452
-45.100	34.866	1343.415	1164.786
-44.086	34.851	1340.774	1162.358
-43.071	34.768	1338.426	1159.773
-42.057	34.889	1335.950	1158.317
-41.042	34.823	1334.564	1156.667
-40.027	34.984	1332.526	1155.830
-39.013	35.069	1330.418	1154.467
-37.998	34.943	1328.902	1152.348
-36.984	34.866	1327.266	1150.421
-35.969	35.088	1325.170	1149.893
-34.954	35.063	1323.279	1148.052
-33.940	35.090	1322.015	1147.073
-32.925	35.082	1320.740	1145.876
-31.911	35.135	1319.556	1145.121
-30.896	35.007	1318.401	1143.304
-29.881	35.202	1316.308	1142.609
-28.867	35.175	1314.971	1141.241
-27.852	35.221	1313.284	1140.007
-26.838	35.173	1312.098	1138.644
-25.823	35.071	1310.695	1136.779
-24.809	35.098	1309.059	1135.473
-23.794	35.094	1307.728	1134.250
-22.779	34.998	1307.137	1133.126
-21.765	35.088	1304.984	1131.745
-20.750	35.039	1303.807	1130.392
-19.736	34.950	1302.240	1128.464
-18.721	34.962	1300.960	1127.377
-17.706	34.975	1299.779	1126.387
-16.692	34.985	1298.754	1125.513
-15.677	34.935	1297.668	1124.231
-14.663	34.850	1296.242	1122.457
-13.648	34.933	1295.008	1121.830
-12.633	34.812	1294.080	1120.269
-11.619	34.902	1293.454	1120.210
-10.604	34.879	1292.911	1119.562
-9.590	34.984	1291.508	1118.916
-8.575	34.981	1290.480	1117.963
-7.560	34.922	1289.936	1117.102
-6.546	34.764	1289.347	1115.626
-5.531	34.900	1287.934	1115.154
-4.517	34.823	1287.142	1113.972
-3.502	34.929	1286.375	1113.884
-2.487	34.946	1285.263	1112.973
-1.473	34.889	1281.598	1109.428
-0.458	33.884	1266.477	1090.529
0.556	29.072	1247.900	1053.259
1.571	25.746	1252.805	1038.158
2.586	24.825	1268.186	1045.434
3.600	23.821	1256.282	1029.719
4.615	16.385	1179.494	926.085
5.629	5.181	1097.983	804.542
6.644	0.422	1076.041	764.320
7.659	0.125	1073.483	760.933
8.673	0.036	1072.024	759.384
9.688	-0.101	1070.710	757.694
10.702	0.443	1069.555	759.551
11.717	7.446	1079.727	802.208
12.731	17.527	1094.390	864.456
13.746	21.688	1099.000	889.187
14.761	22.027	1099.289	891.066
15.775	22.053	1099.356	891.171
16.790	21.795	1098.349	888.968
17.804	21.673	1097.873	887.885
18.819	21.829	1096.948	887.849
19.834	21.992	1096.736	888.424
20.848	21.938	1096.454	887.844
21.863	21.934	1095.371	886.867
22.877	21.897	1094.987	886.294
23.892	21.843	1093.909	885.070
24.907	21.779	1093.920	884.677
25.921	21.897	1092.422	883.980
26.936	21.816	1091.109	882.433
27.950	21.781	1089.379	880.781
28.965	21.681	1087.723	878.863
29.980	21.866	1085.743	878.111
30.994	21.933	1084.902	877.686
32.009	21.952	1083.890	876.887
33.023	21.753	1082.705	874.855
34.038	21.847	1081.735	874.463
35.053	21.859	1081.525	874.278
36.067	21.913	1080.552	873.679
37.082	22.052	1079.727	873.629
38.096	22.154	1079.272	873.691
39.111	22.231	1078.094	873.041
40.126	21.988	1076.700	870.631
41.140	21.642	1075.067	867.518
42.155	21.532	1073.400	865.556
43.169	21.548	1072.455	864.796
44.184	21.618	1071.231	864.076
45.199	21.582	1069.892	862.741
46.213	21.603	1069.518	862.466
47.228	21.628	1068.821	861.954
48.242	21.773	1068.172	862.066
49.257	21.886	1066.838	861.470
50.271	21.919	1066.263	861.090
51.286	21.917	1065.476	860.368
52.301	21.893	1064.912	859.717
53.315	21.982	1063.275	858.758
54.330	21.806	1062.597	857.272
55.344	22.013	1061.632	857.429
56.359	21.799	1060.955	855.760
57.374	21.648	1059.592	853.853
58.388	21.612	1059.285	853.353
59.403	21.652	1058.045	852.472
60.417	21.536	1057.004	850.994
61.432	21.674	1056.303	851.025
62.447	21.689	1055.709	850.543
63.461	21.779	1054.794	850.167
64.476	21.618	1053.959	848.638
65.490	21.493	1053.035	847.216
66.505	21.622	1052.449	847.291
67.520	21.631	1052.250	847.103
68.534	21.439	1050.508	844.698
69.549	21.157	1049.467	842.423
70.563	21.178	1048.929	842.020
71.578	21.222	1047.278	840.832
72.593	21.010	1046.966	839.488
73.607	21.101	1046.323	839.334
74.622	21.432	1045.845	840.466
75.636	21.516	1045.125	840.218
76.651	21.451	1043.729	838.708
77.666	21.315	1042.986	837.387
78.680	21.420	1042.397	837.344
79.695	21.505	1042.043	837.391
80.709	21.537	1041.239	836.823
81.724	21.552	1040.554	836.269
82.739	21.599	1039.498	835.574
83.753	21.890	1039.407	836.815
84.768	22.213	1038.348	837.426
85.782	22.274	1037.364	836.849
86.797	22.165	1036.244	835.352
87.812	21.979	1035.273	833.611
88.826	22.070	1034.301	833.190
89.841	22.102	1033.902	832.947
90.855	22.229	1032.439	832.293
91.870	22.138	1031.375	830.931
92.884	22.033	1030.075	829.313
93.899	22.020	1029.320	828.573
94.914	22.160	1028.653	828.622
95.928	22.124	1027.279	827.273
96.943	21.672	1026.273	824.265
97.957	21.472	1025.383	822.534
98.972	21.455	1023.951	821.235
99.987	21.651	1023.350	821.599
101.001	21.830	1022.551	821.726
102.016	21.951	1021.584	821.439
103.030	21.685	1020.666	819.387
104.045	21.585	1019.328	817.770
105.060	21.516	1018.044	816.350
106.074	21.618	1017.831	816.580
107.089	21.863	1017.463	817.354
108.103	21.811	1016.142	815.978
109.118	21.506	1015.673	814.112
110.133	21.672	1014.376	813.772
111.147	21.441	1012.800	811.361
112.162	21.448	1011.711	810.454
113.176	21.562	1011.569	810.792
114.191	21.470	1010.439	809.393
115.206	21.146	1009.121	806.764
116.220	21.207	1008.086	806.151
117.235	21.387	1007.902	806.760
118.249	21.343	1006.730	805.549
119.264	21.182	1006.173	804.289
120.279	21.411	1005.109	804.424
121.293	21.391	1004.322	803.628
122.308	21.325	1003.056	802.244
123.322	21.272	1001.783	800.912
124.337	21.171	1000.414	799.282
125.352	20.663	998.674	795.501
126.366	20.639	997.966	794.754
127.381	21.396	997.492	797.765
128.395	21.851	997.058	799.419
129.410	21.767	996.896	798.838
130.424	21.797	995.401	797.705
131.439	21.867	994.340	797.104
132.454	21.812	993.642	796.220
133.468	21.827	992.782	795.532
134.483	21.858	991.929	794.917
135.497	22.158	990.860	795.349
136.512	22.023	989.970	793.952
137.527	22.102	989.029	793.483
138.541	22.210	988.263	793.289
139.556	22.124	987.836	792.486
140.570	22.146	986.468	791.420
141.585	22.130	985.478	790.480
142.600	22.118	984.432	789.520
143.614	22.383	983.815	790.145
144.629	22.406	983.230	789.706
145.643	22.192	981.784	787.519
146.658	22.064	980.350	785.724
147.673	22.148	978.841	784.821
148.687	21.954	978.474	783.594
149.702	21.887	977.138	782.155
150.716	22.021	976.043	781.805
151.731	22.101	975.844	781.933
152.746	22.131	975.560	781.767
153.760	22.344	974.606	781.884
154.775	22.298	973.820	780.977
155.789	22.296	973.000	780.241
156.804	22.220	972.120	779.131
157.819	22.304	971.312	778.787
158.833	22.416	970.587	778.633
159.848	22.433	969.699	777.925
160.862	22.183	968.225	775.570
161.877	22.290	967.120	775.091
162.892	22.364	966.109	774.534
163.906	22.236	965.345	773.292
164.921	22.381	964.250	772.984
165.935	22.392	963.363	772.253
166.950	22.394	962.295	771.335
167.964	22.259	961.410	769.969
168.979	22.155	959.953	768.277
169.994	22.094	959.166	767.314
171.008	22.318	959.238	768.280
172.023	22.288	958.389	767.403
173.037	21.977	957.386	765.175
174.052	21.827	956.568	763.802
175.067	22.016	955.923	764.042
176.081	22.041	955.363	763.633
177.096	22.007	954.692	762.884
178.110	21.793	952.965	760.508
179.125	21.672	952.418	759.479
180.140	21.743	952.237	759.575
181.154	21.736	951.926	759.230
182.169	22.078	951.972	760.683
183.183	22.226	951.250	760.679
184.198	22.184	950.228	759.613
185.213	22.139	949.530	758.793
186.227	22.225	948.730	758.456
187.242	22.164	947.974	757.524
188.256	22.401	947.223	757.877
189.271	22.291	946.661	756.886
190.286	22.119	945.313	755.003
191.300	21.417	943.912	750.801
192.315	20.708	942.516	746.585
193.329	20.607	942.234	745.864
194.344	21.548	942.509	750.048
195.359	22.100	942.270	752.158
196.373	22.154	941.693	751.860
197.388	22.150	940.899	751.141
198.402	22.178	940.542	750.913
199.417	22.196	939.909	750.415
200.432	21.847	938.724	747.915
201.446	21.706	938.048	746.711
202.461	21.794	937.631	746.687
203.475	20.806	935.827	740.984
204.490	20.036	934.602	736.672
205.504	21.103	934.615	741.152
206.519	21.781	934.642	743.988
207.534	21.776	934.319	743.646
208.548	22.264	933.839	745.264
209.563	22.032	932.700	743.307
210.577	22.006	931.936	742.522
211.592	22.427	931.770	744.103
212.607	22.384	930.705	743.008
213.621	22.324	930.321	742.380
214.636	22.316	929.266	741.442
215.650	22.195	929.078	740.716
216.665	22.387	928.120	740.693
217.680	22.443	926.938	739.922
218.694	21.905	926.005	736.849
219.709	21.789	925.525	735.915
220.723	22.124	924.857	736.724
221.738	22.129	924.438	736.348
222.753	22.092	923.754	735.582
223.767	22.233	923.334	735.773
224.782	22.278	923.691	736.178
225.796	22.451	922.381	735.794
226.811	21.706	921.148	731.634
227.826	21.239	919.459	728.284
228.840	21.474	918.844	728.709
229.855	21.394	918.524	728.060
230.869	21.044	917.417	725.660
231.884	21.143	918.085	726.536
232.899	22.122	917.562	730.128
233.913	22.096	916.772	729.330
234.928	22.071	915.995	728.541
235.942	21.946	915.731	727.748
236.957	21.791	914.403	725.988
237.972	21.618	914.331	725.151
238.986	21.813	913.654	725.354
240.001	21.759	913.101	724.631
241.015	21.883	912.448	724.559
242.030	22.202	911.553	725.101
243.045	22.160	911.425	724.760
244.059	22.367	910.608	724.900
245.074	22.181	909.169	722.924
246.088	21.941	908.487	721.335
247.103	22.037	908.329	721.538
248.117	22.589	908.433	723.824
249.132	22.762	907.975	724.107
250.147	22.781	907.500	723.741
251.161	23.077	906.818	724.343
252.176	23.085	906.165	723.790
253.190	23.005	905.704	723.031
254.205	23.176	905.375	723.404
255.220	23.197	904.560	722.774
256.234	22.950	903.725	721.038
257.249	22.796	903.011	719.773
258.263	22.965	901.895	719.509
259.278	23.045	901.433	719.403
260.293	23.104	900.905	719.159
261.307	22.841	900.687	717.852
262.322	22.785	899.330	716.478
263.336	22.083	897.237	711.907
264.351	20.988	895.213	705.806
265.366	21.000	895.386	705.929
266.380	22.311	895.491	711.252
267.395	22.737	895.381	712.825
268.409	22.602	894.983	711.896
269.424	22.670	894.386	711.636
270.439	22.900	893.308	711.640
271.453	23.007	892.947	711.722
272.468	22.949	893.027	711.487
273.482	23.163	891.997	711.465
274.497	22.684	890.868	708.580
275.512	22.378	890.190	706.747
276.526	22.604	890.324	707.698
277.541	22.953	889.723	708.559
278.555	22.660	888.913	706.675
279.570	22.410	887.992	704.883
280.585	22.774	887.027	705.506
281.599	22.641	886.830	704.757
282.614	22.114	885.146	701.256
283.628	22.099	884.851	700.898
284.643	22.454	884.663	702.102
285.657	22.169	882.802	699.431
286.672	21.758	882.748	697.690
287.687	22.412	882.589	700.103
288.701	22.318	881.770	699.019
289.716	22.157	880.797	697.546
290.730	22.068	880.182	696.647
291.745	21.824	879.297	694.916
292.760	22.121	879.035	695.825
293.774	23.048	880.088	700.268
294.789	23.392	879.399	701.020
295.803	23.484	878.500	700.606
296.818	23.454	878.091	700.097
297.833	22.951	877.298	697.419
298.847	22.760	876.294	695.807
299.862	23.186	875.771	697.008
300.876	23.266	875.895	697.361
301.891	23.247	875.014	696.522
302.906	22.922	873.694	694.132
303.920	22.906	873.656	693.979
304.935	23.356	873.487	695.549
305.949	23.242	872.570	694.311
306.964	23.036	871.876	692.891
307.979	23.150	871.702	693.135
308.993	23.558	871.239	694.303
310.008	23.414	870.993	693.483
311.022	23.036	870.353	691.434
312.037	23.054	869.292	690.603
313.052	22.868	867.992	688.783
314.066	21.915	866.707	683.986
315.081	21.659	866.015	682.383
316.095	22.569	866.378	686.154
317.110	23.065	865.882	687.630
318.125	22.303	864.278	683.338
319.139	21.282	862.598	677.989
320.154	21.251	862.566	677.785
321.168	22.132	862.888	681.392
322.183	22.734	863.297	683.991
323.197	22.918	862.560	684.059
324.212	23.172	862.363	684.826
325.227	23.205	862.005	684.608
326.241	23.023	861.292	683.278
327.256	22.861	860.697	682.120
328.270	22.899	859.946	681.609
329.285	22.639	859.095	679.873
330.300	22.401	858.524	678.447
331.314	22.632	857.813	678.713
332.329	22.994	857.930	680.138
333.343	23.225	857.129	680.332
334.358	23.167	857.254	680.148
335.373	23.248	856.493	679.792
336.387	23.657	856.316	681.162
337.402	23.706	856.496	681.435
338.416	23.568	856.202	680.612
339.431	23.475	856.049	680.072
340.446	23.716	855.512	680.509
341.460	23.632	854.553	679.365
342.475	23.374	854.330	678.137
343.489	23.595	853.620	678.362
344.504	23.781	853.590	678.986
345.519	23.956	853.298	679.362
346.533	24.075	852.651	679.243
347.548	24.038	852.227	678.703
348.562	23.984	851.731	678.044
349.577	23.843	850.988	676.855
350.592	24.123	849.964	677.046
351.606	23.796	849.495	675.369
352.621	23.822	848.363	674.508
353.635	23.686	848.009	673.649
354.650	23.103	846.640	670.294
355.665	22.142	844.866	665.195
356.679	22.536	844.724	666.514
357.694	23.066	844.237	668.074
358.708	22.879	843.631	666.830
359.723	23.292	843.599	668.303
360.738	23.627	843.579	669.495
361.752	23.717	843.045	669.348
362.767	24.020	842.631	670.104
363.781	24.258	841.958	670.406
364.796	24.260	842.125	670.485
365.810	24.395	841.405	670.359
366.825	24.310	840.829	669.522
367.840	23.981	839.814	667.419
368.854	23.764	839.050	665.941
369.869	23.732	838.739	665.515
370.883	23.786	838.317	665.325
371.898	23.456	838.264	663.986
372.913	23.756	837.377	664.349
373.927	23.870	836.941	664.371
374.942	23.979	836.753	664.568
375.956	23.919	836.704	664.245
376.971	24.112	836.115	664.439
377.986	24.193	835.879	664.498
379.000	24.177	835.352	663.960
380.015	24.095	834.520	662.934
381.029	24.083	833.867	662.312
382.044	24.241	833.295	662.386
383.059	24.195	832.895	661.838
384.073	24.297	832.112	661.537
385.088	24.281	831.196	660.691
386.102	24.056	830.883	659.551
387.117	24.053	830.211	658.947
388.132	23.598	829.146	656.361
389.146	23.249	828.032	654.131
390.161	23.638	827.743	655.283
391.175	24.017	827.747	656.626
392.190	23.651	826.545	654.265
393.205	22.383	824.421	647.862
394.219	20.883	823.159	641.296
395.234	20.980	822.611	641.168
396.248	22.641	824.254	648.507
397.263	23.985	825.056	654.024
398.278	23.865	824.634	653.193
399.292	23.592	824.300	651.867
400.307	23.582	823.735	651.325
401.321	23.704	823.068	651.188
402.336	23.991	823.219	652.302
403.350	24.598	822.787	654.126
404.365	24.735	822.223	654.120
405.380	24.984	822.196	654.953
406.394	25.031	821.566	654.564
407.409	24.984	821.214	654.053
408.423	24.860	820.846	653.249
409.438	24.873	820.677	653.104
410.453	25.081	820.081	653.330
411.467	24.960	819.562	652.420
412.482	24.985	818.948	651.964
413.496	24.997	818.551	651.635
414.511	24.863	818.602	651.129
415.526	24.868	818.007	650.617
416.540	24.776	817.331	649.687
417.555	24.482	816.876	648.198
418.569	24.665	816.354	648.393
419.584	24.545	815.613	647.312
420.599	24.336	815.039	646.043
421.613	152.911	1365.935	1790.967
422.628	133.041	1446.212	1791.050
