DTS Sentinel unit serial number:	SN413079Multiplexer serial number:	ORYXHardware model number:	OX4-SRSoftware version number:	ORYX F/W v4.00 Oryx Data Collector v3.7.2.0data status	okinstallation	princeton_trtdifferential loss correction	single-endedforward channel	channel 1reverse channel	N/Adate	2019/09/16time	23:22:35forward acquisition time	60.00reverse acquisition time	0.00gamma	496.2192k internal	0.2326k external	0.2326temperature offset calibration	0.9961default loss term (dB/km)	0.3790temperature slope calibration	1.0000multiplexer offset coefficient	1.0000multiplexer slope coefficient	1.0000fibre end	0.00T internal ref (°C)	30.00T ext. ref 1 (°C)	0.09T ext. ref 2 (°C)	23.65length (m)	temperature (°C)	Stokes	anti-Stokes-747.200	-200.000	-0.034	0.222
-746.185	-159.282	-0.124	-0.007
-745.171	338.117	-0.070	0.137
-744.156	190.082	0.124	-0.188
-743.142	225.111	-0.145	0.237
-742.127	-93.314	-0.368	-0.103
-741.112	-200.000	0.013	0.296
-740.098	146.163	-0.031	-0.042
-739.083	345.730	0.066	0.130
-738.069	-3.294	-0.239	0.168
-737.054	-200.000	-0.000	0.120
-736.039	420.667	-0.101	-0.218
-735.025	800.000	-0.083	0.296
-734.010	-8.042	-0.300	-0.204
-732.996	800.000	-0.080	-0.261
-731.981	800.000	-0.023	-0.091
-730.966	-157.035	-0.309	-0.019
-729.952	-48.082	-0.311	-0.151
-728.937	187.739	0.133	-0.200
-727.923	-88.351	-0.185	-0.056
-726.908	46.723	-0.349	0.327
-725.894	145.786	-0.246	-0.332
-724.879	3.062	-0.116	-0.085
-723.864	332.935	-0.187	-0.363
-722.850	-200.000	0.005	0.027
-721.835	-57.106	0.509	-0.226
-720.821	-13.996	-0.327	-0.213
-719.806	-45.808	-0.403	-0.200
-718.791	-200.000	-0.005	0.070
-717.777	-74.331	0.558	0.203
-716.762	-200.000	0.017	0.134
-715.748	-58.723	-0.183	-0.080
-714.733	-56.842	0.210	0.094
-713.718	-200.000	-0.125	0.586
-712.704	-31.653	0.278	-0.157
-711.689	33.362	-0.072	-0.063
-710.675	269.820	0.201	-0.356
-709.660	196.059	-0.091	-0.139
-708.645	-76.888	-0.141	0.050
-707.631	800.000	0.125	-0.427
-706.616	53.858	-0.108	-0.105
-705.602	-200.000	-0.091	-0.420
-704.587	52.542	0.362	-0.348
-703.572	143.706	0.130	-0.175
-702.558	396.933	-0.067	-0.140
-701.543	-62.295	-0.128	-0.054
-700.529	11.230	-0.296	-0.228
-699.514	-200.000	0.001	-0.184
-698.499	-200.000	-0.011	0.080
-697.485	418.287	-0.050	-0.107
-696.470	-49.010	0.361	-0.174
-695.456	81.158	-0.140	-0.152
-694.441	-200.000	-0.002	0.305
-693.426	226.996	-0.083	-0.136
-692.412	474.780	-0.138	-0.314
-691.397	-49.447	0.166	-0.080
-690.383	127.308	-0.110	-0.140
-689.368	519.018	0.049	0.116
-688.354	-54.077	0.379	-0.174
-687.339	176.675	0.181	-0.265
-686.324	657.045	0.054	0.139
-685.310	-141.911	-0.219	-0.022
-684.295	-124.539	0.145	-0.023
-683.281	-44.381	0.171	-0.086
-682.266	145.962	0.259	0.350
-681.251	-156.947	0.038	0.002
-680.237	-77.884	-0.276	-0.096
-679.222	201.069	-0.129	-0.200
-678.208	-18.010	-0.042	-0.026
-677.193	267.057	-0.150	-0.264
-676.178	-200.000	0.005	0.099
-675.164	60.076	0.263	-0.261
-674.149	-0.889	0.091	0.065
-673.135	201.089	-0.073	-0.113
-672.120	-76.921	-0.326	0.114
-671.105	-200.000	0.004	0.307
-670.091	-26.008	-0.108	0.064
-669.076	74.002	-0.191	-0.202
-668.062	26.415	-0.147	-0.124
-667.047	60.272	-0.228	-0.227
-666.032	-40.655	-0.180	0.094
-665.018	-29.342	0.136	-0.079
-664.003	570.050	-0.031	0.076
-662.989	113.183	0.097	-0.118
-661.974	-94.942	-0.171	-0.047
-660.959	241.751	-0.159	0.268
-659.945	325.706	0.183	0.352
-658.930	800.000	0.029	-0.112
-657.916	-200.000	-0.001	0.148
-656.901	145.840	0.041	-0.055
-655.886	225.621	-0.031	-0.050
-654.872	155.839	-0.211	-0.292
-653.857	-21.216	0.129	0.079
-652.843	-187.018	0.224	0.003
-651.828	-94.136	0.209	-0.058
-650.814	341.012	-0.084	-0.164
-649.799	800.000	-0.075	-0.301
-648.784	314.350	-0.049	-0.093
-647.770	-28.775	0.145	-0.084
-646.755	-200.000	0.029	0.370
-645.741	-117.992	0.140	0.025
-644.726	800.000	-0.092	0.281
-643.711	-120.991	-0.256	0.043
-642.697	29.437	-0.077	0.066
-641.682	-200.000	-0.009	0.053
-640.668	184.684	-0.013	0.020
-639.653	104.000	0.296	-0.350
-638.638	479.331	-0.191	-0.436
-637.624	-200.000	-0.007	0.039
-636.609	-200.000	0.173	-0.000
-635.595	-200.000	0.026	-0.154
-634.580	-200.000	0.027	0.141
-633.565	-133.897	-0.150	0.019
-632.551	800.000	-0.113	0.431
-631.536	279.194	-0.077	0.139
-630.522	-3.724	0.200	-0.139
-629.507	45.522	0.127	-0.118
-628.492	-200.000	0.049	0.232
-627.478	307.691	0.143	-0.267
-626.463	-200.000	0.030	-0.247
-625.449	305.661	0.242	0.451
-624.434	800.000	-0.046	-0.169
-623.419	294.852	0.105	-0.193
-622.405	-200.000	0.040	-0.329
-621.390	-200.000	-0.043	-0.446
-620.376	122.906	-0.118	0.148
-619.361	-165.788	0.051	0.002
-618.346	800.000	0.091	-0.261
-617.332	-36.804	0.088	-0.047
-616.317	-62.593	0.145	-0.060
-615.303	89.596	-0.069	-0.077
-614.288	36.361	0.207	0.183
-613.273	-38.144	-0.089	0.048
-612.259	-100.487	-0.170	-0.042
-611.244	768.171	-0.074	-0.203
-610.230	124.783	0.090	-0.114
-609.215	-179.018	-0.163	0.004
-608.201	-200.000	0.025	-0.142
-607.186	323.416	-0.298	-0.570
-606.171	-151.982	-0.268	0.020
-605.157	-3.792	0.214	-0.149
-604.142	-122.819	-0.024	0.004
-603.128	-41.300	0.110	0.057
-602.113	60.306	-0.255	-0.253
-601.098	-124.268	-0.274	-0.043
-600.084	-200.000	-0.005	-0.176
-599.069	-200.000	-0.022	0.350
-598.055	187.351	-0.153	0.228
-597.040	800.000	0.039	-0.111
-596.025	756.806	-0.037	-0.101
-595.011	-200.000	0.002	0.047
-593.996	494.158	-0.085	0.196
-592.982	-77.554	-0.392	-0.136
-591.967	494.942	0.127	-0.293
-590.952	-49.238	-0.086	-0.041
-589.938	123.379	0.415	0.521
-588.923	-200.000	0.042	-0.240
-587.909	800.000	-0.032	0.118
-586.894	-22.589	-0.228	0.138
-585.879	-200.000	-0.025	-0.117
-584.865	-164.743	0.237	-0.011
-583.850	-143.202	0.243	-0.023
-582.836	-200.000	0.001	0.225
-581.821	-66.517	0.176	0.070
-580.806	-200.000	-0.067	-0.302
-579.792	-200.000	-0.015	-0.228
-578.777	-21.691	-0.074	-0.045
-577.763	-124.418	0.266	0.042
-576.748	412.741	0.096	-0.205
-575.733	-99.028	0.088	0.022
-574.719	-66.475	-0.076	0.030
-573.704	-200.000	0.007	-0.035
-572.690	-77.499	-0.094	-0.033
-571.675	-200.000	-0.017	0.268
-570.661	202.461	0.130	-0.200
-569.646	-200.000	0.006	0.319
-568.631	236.684	0.132	0.219
-567.617	195.833	0.134	-0.204
-566.602	-85.395	-0.283	-0.088
-565.588	-200.000	-0.028	-0.155
-564.573	-129.950	0.117	-0.016
-563.558	204.103	0.096	-0.149
-562.544	306.233	-0.160	-0.299
-561.529	800.000	0.098	0.401
-560.515	-200.000	-0.041	0.233
-559.500	42.975	-0.149	0.136
-558.485	-64.646	0.257	0.104
-557.471	-19.754	0.275	-0.170
-556.456	218.979	-0.178	-0.285
-555.442	-58.539	-0.364	-0.158
-554.427	-200.000	0.026	-0.140
-553.412	-81.834	0.250	0.082
-552.398	53.603	-0.142	-0.136
-551.383	323.795	0.088	0.169
-550.369	123.137	0.280	-0.352
-549.354	67.390	-0.159	-0.163
-548.339	800.000	-0.137	-0.427
-547.325	-200.000	0.037	-0.164
-546.310	80.211	0.113	0.121
-545.296	800.000	0.065	0.236
-544.281	76.033	-0.267	0.283
-543.266	11.160	-0.146	-0.112
-542.252	800.000	-0.032	-0.104
-541.237	99.186	0.217	-0.251
-540.223	4.249	0.256	-0.188
-539.208	-130.536	-0.161	0.022
-538.193	-63.284	-0.151	-0.062
-537.179	8.059	0.101	0.076
-536.164	-111.822	-0.195	-0.039
-535.150	-42.577	-0.234	-0.119
-534.135	-142.458	0.140	0.014
-533.121	800.000	0.114	0.411
-532.106	477.315	0.077	0.175
-531.091	-200.000	-0.022	0.155
-530.077	-45.658	-0.221	-0.109
-529.062	373.766	-0.098	-0.199
-528.048	800.000	-0.096	-0.318
-527.033	-111.751	-0.345	-0.070
-526.018	800.000	0.081	-0.292
-525.004	-4.552	-0.062	-0.043
-523.989	-54.827	-0.219	0.099
-522.975	-16.246	-0.244	-0.155
-521.960	585.062	0.062	0.152
-520.945	-58.397	0.179	-0.078
-519.931	499.420	0.028	-0.064
-518.916	-200.000	-0.010	-0.138
-517.902	111.596	0.112	0.135
-516.887	-200.000	-0.000	-0.215
-515.872	-1.802	-0.202	0.142
-514.858	7.728	0.162	-0.122
-513.843	73.152	0.101	-0.106
-512.829	-55.447	0.151	-0.068
-511.814	-8.986	-0.331	-0.222
-510.799	78.382	-0.222	-0.237
-509.785	-200.000	0.048	0.521
-508.770	533.573	0.130	0.309
-507.756	11.402	0.342	-0.262
-506.741	-146.047	-0.215	-0.019
-505.726	-96.570	0.350	-0.092
-504.712	109.827	-0.183	0.220
-503.697	-200.000	-0.044	0.315
-502.683	260.741	0.078	0.134
-501.668	374.205	-0.158	0.322
-500.653	800.000	0.043	0.140
-499.639	-35.708	0.168	-0.091
-498.624	77.483	-0.228	0.242
-497.610	-56.936	0.377	-0.166
-496.595	-180.495	-0.387	0.008
-495.581	68.561	-0.146	0.150
-494.566	-78.996	0.104	0.035
-493.551	50.297	-0.140	0.132
-492.537	-50.949	-0.052	-0.025
-491.522	142.550	0.167	-0.222
-490.508	535.230	-0.058	0.136
-489.493	176.460	-0.130	0.189
-488.478	127.983	0.131	-0.166
-487.464	31.242	-0.175	-0.150
-486.449	111.715	0.145	-0.174
-485.435	-136.693	0.381	-0.044
-484.420	38.852	0.089	-0.080
-483.405	-30.615	0.039	0.022
-482.391	46.889	-0.212	-0.197
-481.376	-41.136	0.164	-0.085
-480.362	301.052	-0.103	0.190
-479.347	-148.939	0.203	-0.016
-478.332	-22.560	-0.230	0.139
-477.318	-20.375	0.416	-0.256
-476.303	-98.680	0.060	-0.015
-475.289	-200.000	0.019	-0.340
-474.274	257.626	-0.019	-0.033
-473.259	-52.061	-0.118	0.055
-472.245	-62.917	0.168	0.069
-471.230	-70.159	-0.216	-0.082
-470.216	-132.339	0.138	0.018
-469.201	55.201	0.112	0.108
-468.186	77.817	0.070	0.074
-467.172	-154.213	-0.308	0.021
-466.157	-75.797	-0.199	-0.071
-465.143	40.544	-0.143	-0.129
-464.128	130.314	-0.077	0.098
-463.113	-115.457	-0.312	-0.059
-462.099	732.056	0.159	-0.424
-461.084	-42.680	-0.192	-0.097
-460.070	251.718	-0.093	-0.159
-459.055	-23.528	0.416	-0.249
-458.040	-4.364	0.213	-0.147
-457.026	-67.409	-0.110	0.043
-456.011	-200.000	-0.007	-0.102
-454.997	51.172	0.107	0.101
-453.982	-124.440	0.242	-0.038
-452.968	-83.442	0.258	0.082
-451.953	749.270	0.109	-0.294
-450.938	228.320	0.074	-0.120
-449.924	-97.203	-0.163	-0.042
-448.909	-200.000	0.090	-0.402
-447.895	-140.646	-0.341	0.035
-446.880	110.909	-0.174	0.209
-445.865	474.293	0.109	0.246
-444.851	-21.259	0.086	0.053
-443.836	132.612	-0.138	-0.178
-442.822	415.826	-0.110	-0.233
-441.807	-92.764	0.208	0.058
-440.792	-42.588	-0.039	0.020
-439.778	-96.589	0.250	0.066
-438.763	-27.373	0.156	-0.090
-437.749	-200.000	-0.003	-0.118
-436.734	382.276	-0.101	-0.207
-435.719	-170.919	0.069	0.002
-434.705	800.000	0.015	-0.061
-433.690	-25.274	0.169	0.100
-432.676	150.625	-0.161	-0.218
-431.661	164.384	0.044	0.062
-430.646	253.119	-0.078	0.132
-429.632	-200.000	0.037	-0.215
-428.617	800.000	0.093	0.280
-427.603	-74.636	0.383	0.137
-426.588	-152.820	-0.284	-0.020
-425.573	-71.178	0.074	-0.028
-424.559	-55.408	-0.312	0.140
-423.544	-113.348	-0.341	0.067
-422.530	188.675	0.107	-0.160
-421.515	-76.592	0.045	0.016
-420.500	531.788	-0.017	0.041
-419.486	800.000	0.116	-0.350
-418.471	-33.077	0.037	-0.020
-417.457	-66.913	0.459	0.181
-416.442	59.174	0.352	0.345
-415.428	-200.000	0.025	-0.235
-414.413	-200.000	-0.002	-0.080
-413.398	-200.000	-0.031	-0.161
-412.384	162.735	0.193	0.270
-411.369	11.879	0.183	-0.140
-410.355	800.000	0.128	-0.462
-409.340	-178.948	0.349	0.008
-408.325	311.490	-0.160	0.299
-407.311	-42.183	0.089	0.045
-406.296	-200.000	0.004	0.047
-405.282	341.612	0.105	-0.203
-404.267	-35.490	-0.155	-0.084
-403.252	115.389	0.075	0.092
-402.238	779.911	0.089	0.242
-401.223	-96.027	-0.080	0.021
-400.209	-200.000	-0.028	-0.194
-399.194	-17.679	0.276	0.173
-398.179	-47.983	-0.132	-0.064
-397.165	111.501	0.108	-0.130
-396.150	-78.759	-0.167	-0.057
-395.136	-200.000	-0.018	-0.182
-394.121	800.000	-0.046	0.135
-393.106	-189.077	0.113	-0.001
-392.092	-86.777	-0.235	0.071
-391.077	800.000	0.041	0.171
-390.063	800.000	-0.047	0.177
-389.048	233.932	-0.051	-0.084
-388.033	-200.000	0.013	0.200
-387.019	-200.000	-0.025	0.313
-386.004	800.000	-0.053	0.199
-384.990	695.105	-0.035	0.091
-383.975	-200.000	-0.017	0.257
-382.960	-96.780	0.102	0.027
-381.946	-200.000	-0.053	0.240
-380.931	-200.000	0.019	0.432
-379.917	-1.406	-0.179	-0.126
-378.902	-82.399	-0.299	0.096
-377.888	-200.000	0.004	-0.138
-376.873	61.832	0.078	-0.077
-375.858	48.214	0.108	0.100
-374.844	800.000	-0.072	0.306
-373.829	63.149	-0.032	0.032
-372.815	-200.000	-0.002	0.081
-371.800	56.725	-0.082	0.080
-370.785	-54.950	-0.264	0.118
-369.771	-25.471	0.322	0.189
-368.756	214.307	-0.103	-0.162
-367.742	108.030	0.046	-0.054
-366.727	-39.602	-0.325	0.169
-365.712	-120.456	0.230	-0.039
-364.698	74.109	0.068	0.071
-363.683	654.304	-0.028	-0.072
-362.669	-176.954	-0.250	-0.006
-361.654	-7.643	-0.051	-0.034
-360.639	-156.770	0.102	0.006
-359.625	49.921	-0.260	0.243
-358.610	58.734	-0.100	0.098
-357.596	800.000	0.097	-0.287
-356.581	-200.000	0.072	0.396
-355.566	-174.719	0.296	-0.008
-354.552	800.000	-0.052	-0.209
-353.537	-200.000	-0.063	0.298
-352.523	-200.000	-0.034	-0.164
-351.508	800.000	-0.058	0.212
-350.493	-119.862	0.275	-0.047
-349.479	158.988	-0.096	0.133
-348.464	119.383	0.144	-0.177
-347.450	394.723	0.035	-0.072
-346.435	-70.617	-0.108	-0.041
-345.420	13.176	0.245	0.188
-344.406	-125.045	0.159	0.024
-343.391	-3.391	-0.118	0.082
-342.377	531.502	0.222	-0.520
-341.362	-200.000	-0.006	0.164
-340.348	515.099	0.080	-0.186
-339.333	800.000	0.059	0.202
-338.318	103.086	-0.092	0.107
-337.304	-143.525	-0.186	0.018
-336.289	-200.000	-0.044	0.211
-335.275	800.000	0.053	-0.200
-334.260	351.557	-0.008	0.016
-333.245	800.000	0.106	0.332
-332.231	-50.543	-0.140	0.065
-331.216	-41.415	-0.316	0.161
-330.202	800.000	-0.019	0.066
-329.187	-200.000	-0.012	-0.250
-328.172	-117.152	-0.199	-0.036
-327.158	-121.754	0.086	-0.014
-326.143	-200.000	0.020	-0.134
-325.129	800.000	0.060	-0.249
-324.114	-80.549	0.273	-0.090
-323.099	-139.060	-0.315	0.034
-322.085	-200.000	0.014	0.459
-321.070	-109.483	-0.263	0.055
-320.056	-61.351	-0.128	0.053
-319.041	800.000	-0.063	-0.221
-318.026	-27.677	-0.073	-0.042
-317.012	-200.000	0.023	0.281
-315.997	106.320	-0.172	0.203
-314.983	616.185	-0.041	-0.103
-313.968	93.139	-0.242	-0.272
-312.953	252.412	-0.073	-0.123
-311.939	-131.854	-0.083	-0.011
-310.924	272.446	-0.070	-0.123
-309.910	-192.256	-0.172	0.002
-308.895	-73.411	-0.087	-0.032
-307.880	224.058	0.185	-0.297
-306.866	-193.336	0.157	-0.001
-305.851	800.000	-0.132	0.444
-304.837	-200.000	0.005	-0.075
-303.822	-123.074	-0.350	-0.056
-302.807	800.000	-0.057	0.193
-301.793	800.000	-0.076	-0.227
-300.778	-82.854	-0.256	-0.082
-299.764	187.137	0.001	0.002
-298.749	-200.000	0.032	-0.211
-297.735	92.992	-0.103	0.115
-296.720	-6.658	0.090	0.061
-295.705	-200.000	0.059	-0.258
-294.691	226.300	-0.245	-0.395
-293.676	-200.000	-0.025	-0.143
-292.662	-48.984	-0.179	0.085
-291.647	93.755	0.247	0.278
-290.632	-200.000	0.010	-0.168
-289.618	466.412	0.119	0.265
-288.603	-200.000	-0.006	0.221
-287.589	52.118	-0.229	-0.216
-286.574	-200.000	-0.018	0.388
-285.559	-44.083	-0.083	-0.041
-284.545	-183.274	0.289	0.005
-283.530	232.543	-0.137	0.222
-282.516	800.000	0.054	0.180
-281.501	-72.857	0.230	0.084
-280.486	414.007	-0.031	-0.066
-279.472	267.548	-0.081	0.141
-278.457	-99.715	-0.246	0.061
-277.443	800.000	0.088	-0.368
-276.428	57.020	0.048	-0.046
-275.413	260.855	0.020	0.035
-274.399	-31.219	-0.231	0.129
-273.384	160.953	-0.039	0.055
-272.370	150.900	0.229	0.308
-271.355	198.888	-0.081	0.123
-270.340	-130.452	0.150	0.020
-269.326	87.589	0.185	0.202
-268.311	-106.658	0.257	0.057
-267.297	151.226	0.094	-0.127
-266.282	399.930	0.087	0.180
-265.267	79.777	-0.176	-0.187
-264.253	-200.000	0.012	0.130
-263.238	-200.000	0.019	0.092
-262.224	401.526	0.128	0.266
-261.209	-56.115	-0.301	-0.133
-260.195	13.518	0.300	-0.230
-259.180	246.127	-0.221	-0.369
-258.165	104.761	0.143	-0.167
-257.151	-54.574	-0.111	0.050
-256.136	-160.120	0.193	0.010
-255.122	517.449	-0.041	-0.094
-254.107	-144.157	-0.077	-0.007
-253.092	-35.098	0.117	0.063
-252.078	45.542	0.109	0.100
-251.063	299.840	0.178	-0.324
-250.049	-200.000	-0.015	0.229
-249.034	-200.000	0.014	-0.113
-248.019	-200.000	-0.039	0.000
-247.005	-7.009	-0.081	-0.055
-245.990	125.410	-0.098	0.122
-244.976	800.000	-0.018	0.077
-243.961	181.362	0.207	0.302
-242.946	-165.260	-0.269	0.012
-241.932	-84.609	0.211	-0.066
-240.917	800.000	0.014	0.053
-239.903	10.973	0.072	0.054
-238.888	110.866	0.046	0.055
-237.873	-50.161	-0.270	0.127
-236.859	516.844	-0.065	0.150
-235.844	747.239	0.094	-0.251
-234.830	214.286	0.167	0.262
-233.815	511.308	-0.031	0.072
-232.800	-183.813	0.203	0.003
-231.786	277.247	0.119	0.209
-230.771	-200.000	0.010	-0.138
-229.757	387.534	0.094	0.193
-228.742	-5.181	-0.088	-0.060
-227.727	741.853	-0.077	0.206
-226.713	800.000	0.064	0.228
-225.698	11.289	0.124	-0.094
-224.684	-153.799	-0.342	0.023
-223.669	800.000	0.050	0.148
-222.655	-131.416	0.267	0.035
-221.640	-200.000	-0.020	0.303
-220.625	31.263	-0.085	0.072
-219.611	116.307	0.117	-0.142
-218.596	102.702	0.262	0.303
-217.582	69.198	0.141	0.144
-216.567	169.924	-0.081	-0.115
-215.552	-200.000	-0.012	0.082
-214.538	66.080	0.213	0.213
-213.523	-168.486	0.361	0.014
-212.509	800.000	0.038	-0.163
-211.494	120.155	-0.137	0.168
-210.479	63.698	-0.133	0.132
-209.465	36.318	-0.099	-0.087
-208.450	800.000	-0.052	0.183
-207.436	-192.743	0.063	0.001
-206.421	-42.757	0.103	-0.052
-205.406	-81.482	-0.216	0.070
-204.392	-173.658	0.388	-0.011
-203.377	-92.732	0.049	-0.014
-202.363	-45.756	-0.244	0.119
-201.348	3.087	-0.161	0.116
-200.333	800.000	-0.074	-0.303
-199.319	-112.994	-0.122	0.024
-198.304	-19.981	0.218	-0.133
-197.290	-69.101	0.184	0.070
-196.275	154.433	0.139	0.188
-195.260	-200.000	-0.019	0.327
-194.246	538.262	0.117	0.275
-193.231	-154.823	0.282	-0.018
-192.217	-44.823	-0.164	0.081
-191.202	800.000	0.016	-0.063
-190.187	-200.000	-0.003	0.275
-189.173	-167.843	-0.572	0.022
-188.158	237.266	-0.274	-0.449
-187.144	2.898	-0.192	-0.138
-186.129	665.223	0.130	-0.330
-185.114	-200.000	0.014	-0.203
-184.100	-200.000	0.007	-0.083
-183.085	-141.629	-0.304	0.030
-182.071	800.000	-0.131	-0.462
-181.056	-94.996	0.294	-0.079
-180.042	430.598	-0.126	-0.269
-179.027	800.000	-0.068	0.227
-178.012	125.756	-0.173	0.216
-176.998	411.859	-0.141	0.296
-175.983	363.570	-0.139	0.275
-174.969	11.097	0.162	0.122
-173.954	40.500	-0.425	0.377
-172.939	70.215	0.101	-0.103
-171.925	304.684	0.173	-0.318
-170.910	290.241	0.117	0.210
-169.896	30.372	-0.085	-0.071
-168.881	23.132	-0.134	0.108
-167.866	18.264	0.105	-0.082
-166.852	296.255	-0.070	-0.126
-165.837	187.490	-0.099	0.145
-164.823	-109.220	0.248	-0.052
-163.808	-96.967	-0.156	-0.040
-162.793	-200.000	0.006	0.059
-161.779	800.000	-0.066	0.258
-160.764	-200.000	-0.072	-0.410
-159.750	-27.732	-0.152	-0.087
-158.735	-120.008	0.367	-0.062
-157.720	-128.031	0.457	-0.065
-156.706	-113.291	-0.194	0.038
-155.691	1.292	0.393	0.279
-154.677	-63.657	0.119	-0.048
-153.662	-108.520	-0.360	0.076
-152.647	647.282	-0.047	-0.120
-151.633	10.726	0.063	0.047
-150.618	-136.797	0.063	0.007
-149.604	-122.574	0.243	-0.039
-148.589	-35.001	0.315	0.169
-147.574	-200.000	-0.011	-0.089
-146.560	-49.139	0.336	-0.158
-145.545	800.000	-0.049	0.172
-144.531	-150.385	0.394	-0.030
-143.516	-49.838	0.092	-0.043
-142.502	-132.169	-0.183	0.023
-141.487	166.254	0.107	0.149
-140.472	-200.000	0.014	0.135
-139.458	186.020	0.185	0.271
-138.443	701.796	-0.103	0.267
-137.429	-200.000	0.009	0.217
-136.414	529.033	0.055	-0.127
-135.399	-200.000	-0.010	0.062
-134.385	-49.264	-0.227	-0.107
-133.370	138.902	0.060	0.078
-132.356	-95.902	0.233	0.061
-131.341	800.000	-0.078	0.268
-130.326	66.157	0.271	0.271
-129.312	-64.712	0.350	0.140
-128.297	-200.000	0.054	-0.294
-127.283	4.896	-0.130	-0.094
-126.268	242.867	-0.033	-0.055
-125.253	-200.000	0.024	0.153
-124.239	63.098	0.233	0.229
-123.224	-97.035	0.232	0.060
-122.210	-7.589	0.125	-0.083
-121.195	307.668	-0.077	-0.142
-120.180	-200.000	-0.029	-0.183
-119.166	266.230	0.048	-0.083
-118.151	264.466	0.040	-0.068
-117.137	-200.000	-0.049	0.237
-116.122	-8.932	0.293	-0.193
-115.107	-200.000	-0.029	0.171
-114.093	-69.206	0.402	0.152
-113.078	108.851	-0.137	0.161
-112.064	-113.584	-0.084	-0.016
-111.049	184.823	0.133	-0.194
-110.034	-200.000	0.048	0.236
-109.020	91.437	0.017	0.018
-108.005	-95.624	-0.308	0.081
-106.991	-91.504	-0.291	-0.082
-105.976	-47.903	-0.195	-0.093
-104.962	124.046	0.219	0.270
-103.947	106.631	0.132	0.154
-102.932	-108.504	0.238	-0.050
-101.918	-200.000	-0.000	0.268
-100.903	800.000	-0.065	0.220
-99.889	355.011	-0.134	0.262
-98.874	638.622	0.135	-0.338
-97.859	217.392	0.059	-0.092
-96.845	60.703	0.225	0.219
-95.830	56.066	0.295	-0.281
-94.816	369.305	-0.014	0.029
-93.801	9.390	0.087	0.065
-92.786	800.000	-0.019	0.057
-91.772	800.000	0.039	0.116
-90.757	429.048	0.099	0.211
-89.743	-44.395	-0.282	-0.139
-88.728	-42.510	-0.198	0.099
-87.713	460.018	0.090	-0.198
-86.699	137.920	-0.137	-0.176
-85.684	87.312	0.170	-0.184
-84.670	-81.803	-0.245	-0.079
-83.655	-14.820	0.118	-0.074
-82.640	-200.000	0.017	0.221
-81.626	46.210	0.190	-0.173
-80.611	-200.000	-0.013	0.222
-79.597	800.000	0.046	-0.163
-78.582	800.000	-0.043	0.151
-77.567	314.124	0.048	-0.089
-76.553	590.002	-0.060	-0.146
-75.538	193.148	0.214	0.318
-74.524	-112.180	-0.286	0.056
-73.509	195.468	0.041	-0.062
-72.494	-17.145	-0.072	0.045
-71.480	67.871	0.088	-0.089
-70.465	-200.000	-0.065	0.295
-69.451	147.385	0.122	-0.162
-68.436	-4.748	-0.354	0.240
-67.422	501.926	-0.066	-0.149
-66.407	-71.629	-0.168	0.062
-65.392	-24.020	-0.236	-0.139
-64.378	-14.068	0.185	-0.117
-63.363	-185.955	-0.084	-0.001
-62.349	-121.361	0.306	-0.050
-61.334	105.416	-1.089	-1.263
-60.319	-43.130	0.417	0.207
-59.305	409.025	-0.536	-1.115
-58.290	204.408	0.676	1.030
-57.276	268.355	0.757	1.303
-56.261	-200.000	107.980	591.498
-55.246	455.005	1470.957	3201.579
-54.232	149.098	2647.347	3516.759
-53.217	107.250	2149.910	2509.505
-52.203	41.347	1601.772	1422.443
-51.188	33.530	1342.364	1145.045
-50.173	30.322	1301.980	1091.719
-49.159	54.074	1354.315	1278.658
-48.144	54.894	1370.453	1298.761
-47.130	33.592	1325.920	1131.209
-46.115	30.077	1308.245	1095.347
-45.100	29.986	1303.142	1090.500
-44.086	29.819	1300.908	1087.603
-43.071	29.784	1298.833	1085.617
-42.057	29.842	1296.701	1084.137
-41.042	29.808	1295.156	1082.601
-40.027	29.930	1293.563	1081.937
-39.013	29.943	1291.413	1080.173
-37.998	30.031	1289.085	1078.695
-36.984	30.067	1287.364	1077.421
-35.969	29.918	1286.161	1075.507
-34.954	29.942	1284.680	1074.365
-33.940	29.994	1283.702	1073.806
-32.925	30.054	1281.722	1072.458
-31.911	29.991	1280.329	1070.884
-30.896	30.044	1279.046	1070.075
-29.881	30.055	1277.747	1069.006
-28.867	30.120	1276.215	1068.056
-27.852	30.100	1274.850	1066.762
-26.838	30.066	1273.541	1065.426
-25.823	30.016	1272.550	1064.266
-24.809	30.137	1270.741	1063.408
-23.794	30.175	1269.093	1062.203
-22.779	30.254	1267.844	1061.570
-21.765	30.130	1267.269	1060.335
-20.750	30.056	1265.793	1058.634
-19.736	30.065	1264.482	1057.546
-18.721	29.952	1263.278	1055.852
-17.706	30.007	1261.960	1055.025
-16.692	29.978	1260.900	1053.931
-15.677	30.033	1260.175	1053.593
-14.663	29.957	1258.839	1052.007
-13.648	30.027	1257.746	1051.447
-12.633	29.866	1257.289	1050.110
-11.619	29.835	1256.279	1049.046
-10.604	29.871	1255.578	1048.626
-9.590	29.829	1254.201	1047.196
-8.575	29.957	1253.419	1047.224
-7.560	30.027	1251.934	1046.339
-6.546	29.926	1251.525	1045.385
-5.531	29.814	1251.175	1044.418
-4.517	29.950	1250.098	1044.245
-3.502	30.032	1249.007	1043.753
-2.487	29.902	1248.443	1042.509
-1.473	29.909	1243.756	1038.595
-0.458	28.266	1228.598	1016.782
0.556	22.756	1211.939	978.030
1.571	19.012	1218.057	961.979
2.586	18.174	1232.703	968.718
3.600	17.812	1221.012	957.413
4.615	13.075	1148.597	875.491
5.629	4.661	1073.328	776.200
6.644	0.443	1053.126	740.840
7.659	0.178	1051.007	737.986
8.673	-0.192	1050.435	735.704
9.688	-0.087	1049.203	735.288
10.702	0.229	1046.910	735.163
11.717	5.322	1053.438	764.649
12.731	13.773	1064.417	814.177
13.746	17.309	1068.858	834.897
14.761	17.166	1067.182	832.814
15.775	15.938	1065.474	825.394
16.790	14.987	1063.018	818.766
17.804	14.216	1062.046	814.174
18.819	13.911	1060.846	811.691
19.834	13.742	1059.935	810.094
20.848	13.450	1059.270	808.091
21.863	13.218	1057.765	805.741
22.877	13.045	1057.565	804.672
23.892	13.008	1056.480	803.598
24.907	13.143	1055.963	803.789
25.921	13.266	1054.787	803.421
26.936	13.117	1054.295	802.250
27.950	13.125	1053.710	801.773
28.965	13.241	1052.191	801.111
29.980	13.303	1051.168	800.560
30.994	13.289	1050.194	799.678
32.009	13.394	1049.089	799.272
33.023	13.353	1048.102	798.253
34.038	13.268	1046.961	796.903
35.053	13.253	1046.320	796.276
36.067	13.185	1045.442	795.209
37.082	13.227	1044.808	794.857
38.096	13.240	1044.429	794.561
39.111	13.235	1043.192	793.526
40.126	13.184	1041.985	792.292
41.140	13.216	1040.645	791.357
42.155	13.133	1039.780	790.234
43.169	13.039	1038.755	788.936
44.184	13.111	1037.516	788.267
45.199	13.059	1036.856	787.448
46.213	13.084	1036.123	786.941
47.228	13.224	1034.927	786.630
48.242	13.152	1033.566	785.184
49.257	13.156	1032.660	784.443
50.271	13.159	1032.066	783.940
51.286	13.299	1030.916	783.657
52.301	13.121	1030.021	782.065
53.315	13.122	1028.871	781.128
54.330	13.195	1027.887	780.657
55.344	13.208	1026.935	779.926
56.359	13.053	1026.755	778.990
57.374	12.971	1025.524	777.599
58.388	13.070	1024.675	777.351
59.403	13.004	1023.755	776.278
60.417	13.101	1022.805	775.943
61.432	12.983	1022.408	775.017
62.447	13.001	1021.356	774.236
63.461	13.133	1020.295	773.984
64.476	13.028	1019.543	772.851
65.490	12.962	1018.743	771.868
66.505	13.081	1018.156	771.912
67.520	13.002	1017.782	771.190
68.534	13.117	1016.716	770.851
69.549	13.066	1016.191	770.148
70.563	13.061	1015.311	769.391
71.578	12.870	1014.768	768.020
72.593	12.933	1013.719	767.454
73.607	12.986	1013.329	767.333
74.622	12.908	1012.687	766.419
75.636	12.986	1012.015	766.205
76.651	12.842	1011.506	765.081
77.666	12.930	1010.487	764.654
78.680	12.930	1010.174	764.347
79.695	12.926	1009.672	763.880
80.709	13.001	1008.583	763.337
81.724	13.003	1008.237	763.018
82.739	13.057	1007.291	762.483
83.753	13.227	1006.710	762.761
84.768	13.129	1005.687	761.466
85.782	13.296	1004.488	761.258
86.797	13.235	1003.973	760.524
87.812	13.173	1003.043	759.463
88.826	13.090	1002.140	758.335
89.841	13.083	1001.264	757.572
90.855	13.262	1000.700	757.899
91.870	13.313	999.576	757.211
92.884	13.311	998.508	756.327
93.899	13.311	997.717	755.661
94.914	13.363	996.913	755.225
95.928	13.305	996.104	754.278
96.943	13.317	995.238	753.610
97.957	13.249	994.695	752.824
98.972	13.070	994.226	751.587
99.987	13.276	992.649	751.266
101.001	13.249	991.609	750.291
102.016	13.279	991.317	750.137
103.030	13.261	990.216	749.155
104.045	13.287	989.738	748.847
105.060	13.162	989.016	747.669
106.074	13.131	987.994	746.689
107.089	13.104	986.850	745.636
108.103	13.143	985.631	744.826
109.118	13.202	984.589	744.237
110.133	13.072	983.921	743.081
111.147	13.077	983.272	742.548
112.162	13.157	982.431	742.208
113.176	13.232	981.682	741.912
114.191	13.162	981.051	741.058
115.206	13.176	980.460	740.605
116.220	13.238	979.368	739.994
117.235	13.300	978.112	739.259
118.249	13.317	977.475	738.784
119.264	13.162	977.121	737.760
120.279	13.089	976.486	736.890
121.293	13.083	975.234	735.852
122.308	12.963	974.376	734.607
123.322	13.109	973.430	734.478
124.337	13.196	972.308	733.953
125.352	13.041	971.206	732.367
126.366	13.092	969.731	731.416
127.381	13.075	969.227	730.899
128.395	13.172	968.145	730.444
129.410	13.212	967.402	729.995
130.424	13.108	966.496	728.791
131.439	13.206	965.808	728.640
132.454	13.302	964.844	728.269
133.468	13.208	964.469	727.510
134.483	13.318	963.131	726.919
135.497	13.151	962.750	725.835
136.512	13.272	961.666	725.482
137.527	13.266	960.741	724.693
138.541	13.300	960.016	724.234
139.556	13.135	959.352	722.945
140.570	13.245	958.881	723.007
141.585	13.479	957.578	722.982
142.600	13.411	956.808	722.042
143.614	13.534	955.723	721.695
144.629	13.537	955.345	721.357
145.643	13.411	954.305	719.961
146.658	13.361	953.403	718.998
147.673	13.315	952.405	717.982
148.687	13.314	951.708	717.389
149.702	13.198	951.247	716.476
150.716	13.231	950.057	715.658
151.731	13.244	949.309	715.089
152.746	13.272	948.738	714.715
153.760	13.337	948.244	714.562
154.775	13.473	947.419	714.462
155.789	13.386	946.930	713.656
156.804	13.546	945.843	713.462
157.819	13.498	945.574	712.991
158.833	13.582	945.029	712.878
159.848	13.575	943.993	712.004
160.862	13.620	942.890	711.302
161.877	13.393	942.486	709.959
162.892	13.394	941.269	708.984
163.906	13.377	940.547	708.304
164.921	13.447	939.509	707.760
165.935	13.538	938.749	707.515
166.950	13.314	938.199	706.081
167.964	13.466	937.062	705.808
168.979	13.481	936.175	705.145
169.994	13.559	935.235	704.706
171.008	13.485	934.778	703.982
172.023	13.490	934.114	703.442
173.037	13.607	933.452	703.378
174.052	13.626	932.625	702.772
175.067	13.529	931.718	701.616
176.081	13.505	931.427	701.236
177.096	13.482	930.505	700.382
178.110	13.425	930.450	700.035
179.125	13.528	929.423	699.639
180.140	13.737	928.604	699.843
181.154	13.633	928.436	699.212
182.169	13.585	928.159	698.743
183.183	13.548	927.804	698.257
184.198	13.847	926.426	698.413
185.213	13.822	925.908	697.859
186.227	13.707	925.192	696.775
187.242	13.840	924.503	696.751
188.256	13.864	924.002	696.414
189.271	13.941	922.782	695.752
190.286	13.588	922.786	694.216
191.300	13.494	922.009	693.175
192.315	13.487	921.300	692.554
193.329	13.524	920.744	692.228
194.344	13.760	920.006	692.598
195.359	13.809	919.116	692.069
196.373	13.791	918.614	691.557
197.388	13.670	918.672	691.036
198.402	13.841	918.166	691.307
199.417	13.953	917.019	690.845
200.432	13.874	916.716	690.229
201.446	14.057	916.301	690.616
202.461	14.128	915.361	690.141
203.475	13.951	915.251	689.261
204.490	14.053	914.444	689.017
205.504	14.039	913.547	688.223
206.519	13.993	912.852	687.446
207.534	13.976	911.992	686.670
208.548	13.891	911.739	686.064
209.563	14.006	910.755	685.738
210.577	14.178	910.099	685.895
211.592	14.012	909.726	684.867
212.607	14.064	908.700	684.248
213.621	14.099	907.783	683.641
214.636	14.151	907.207	683.361
215.650	14.049	906.470	682.325
216.665	14.114	905.877	682.088
217.680	14.344	904.525	681.952
218.694	14.198	904.599	681.349
219.709	14.096	903.942	680.375
220.723	14.211	903.099	680.150
221.738	14.310	902.057	679.709
222.753	14.293	901.818	679.400
223.767	14.311	901.582	679.234
224.782	14.326	900.805	678.652
225.796	14.476	900.096	678.669
226.811	14.399	899.679	677.980
227.826	14.364	898.915	677.204
228.840	14.352	898.205	676.557
229.855	14.362	897.357	675.901
230.869	14.328	896.528	675.077
231.884	14.410	895.891	674.869
232.899	14.218	895.406	673.668
233.913	14.241	894.403	672.947
234.928	14.357	893.751	672.865
235.942	14.370	893.138	672.397
236.957	14.348	892.751	671.960
237.972	14.288	892.313	671.326
238.986	14.357	891.686	671.073
240.001	14.355	890.619	670.202
241.015	14.460	890.405	670.405
242.030	14.384	889.914	669.670
243.045	14.371	889.230	669.045
244.059	14.451	888.315	668.617
245.074	14.431	887.968	668.216
246.088	14.568	887.029	668.002
247.103	14.535	886.171	667.163
248.117	14.661	885.596	667.173
249.132	14.777	885.414	667.442
250.147	14.746	884.761	666.769
251.161	14.913	883.747	666.609
252.176	14.739	883.663	665.795
253.190	14.704	882.993	665.089
254.205	14.826	882.508	665.153
255.220	14.756	881.950	664.393
256.234	14.828	881.173	664.035
257.249	14.894	880.184	663.492
258.263	14.781	879.289	662.314
259.278	14.971	878.855	662.680
260.293	14.883	878.476	661.986
261.307	15.046	877.511	661.845
262.322	15.041	877.123	661.477
263.336	15.131	876.184	661.063
264.351	15.094	875.653	660.457
265.366	15.132	874.768	659.880
266.380	15.134	874.484	659.619
267.395	14.996	873.629	658.370
268.409	14.974	872.873	657.659
269.424	15.065	872.336	657.553
270.439	15.138	871.237	656.950
271.453	15.110	870.697	656.378
272.468	15.114	870.151	655.923
273.482	15.003	869.978	655.298
274.497	15.126	869.348	655.249
275.512	15.118	868.666	654.644
276.526	15.217	868.149	654.583
277.541	15.179	867.652	654.005
278.555	15.124	867.105	653.317
279.570	15.284	866.432	653.376
280.585	15.396	865.548	653.089
281.599	15.254	864.900	651.989
282.614	15.158	864.553	651.296
283.628	15.259	863.893	651.135
284.643	15.314	863.122	650.708
285.657	15.294	862.500	650.105
286.672	15.175	862.410	649.519
287.687	15.292	861.482	649.216
288.701	15.181	860.741	648.169
289.716	15.317	860.682	648.594
290.730	15.490	859.673	648.444
291.745	15.460	859.090	647.831
292.760	15.475	858.422	647.328
293.774	15.324	857.912	646.304
294.789	15.456	857.319	646.308
295.803	15.401	856.568	645.473
296.818	15.336	856.221	644.905
297.833	15.455	855.420	644.701
298.847	15.426	854.611	643.924
299.862	15.519	854.158	643.883
300.876	15.671	853.389	643.827
301.891	15.646	852.991	643.373
302.906	15.614	852.433	642.776
303.920	15.635	852.042	642.504
304.935	15.744	851.527	642.475
305.949	15.689	850.828	641.679
306.964	15.536	850.371	640.694
307.979	15.662	849.830	640.710
308.993	15.706	849.208	640.353
310.008	15.718	848.671	639.938
311.022	15.761	848.107	639.619
312.037	15.751	847.285	638.906
313.052	15.629	846.874	638.074
314.066	15.630	846.676	637.872
315.081	15.690	845.949	637.495
316.095	15.562	845.228	636.412
317.110	15.508	845.006	635.984
318.125	15.586	844.504	635.845
319.139	15.635	843.818	635.458
320.154	15.563	843.666	635.013
321.168	15.670	842.991	634.856
322.183	15.768	842.385	634.712
323.197	15.955	841.370	634.597
324.212	15.862	840.963	633.882
325.227	15.855	840.550	633.489
326.241	15.884	839.791	632.968
327.256	15.828	839.264	632.308
328.270	15.772	839.042	631.874
329.285	15.718	838.329	631.078
330.300	15.796	837.243	630.494
331.314	15.899	836.825	630.511
332.329	15.790	837.102	630.257
333.343	15.993	836.600	630.582
334.358	15.902	836.174	629.866
335.373	16.036	835.481	629.788
336.387	16.089	835.102	629.642
337.402	16.122	834.930	629.582
338.416	15.948	834.653	628.667
339.431	16.050	834.412	628.811
340.446	16.023	833.918	628.283
341.460	16.076	833.308	627.965
342.475	16.182	832.452	627.659
343.489	16.113	832.546	627.417
344.504	16.246	831.809	627.300
345.519	16.249	831.290	626.863
346.533	16.194	830.789	626.228
347.548	16.149	830.388	625.701
348.562	16.069	830.354	625.324
349.577	16.234	829.016	624.872
350.592	16.110	828.582	624.032
351.606	16.260	827.758	623.910
352.621	16.134	827.584	623.259
353.635	16.294	826.620	623.069
354.650	16.223	826.286	622.497
355.665	16.234	825.351	621.780
356.679	16.203	824.891	621.265
357.694	16.443	823.853	621.309
358.708	16.375	823.671	620.869
359.723	16.301	823.110	620.117
360.738	16.334	822.647	619.834
361.752	16.469	821.914	619.724
362.767	16.469	821.308	619.212
363.781	16.496	820.824	618.892
364.796	16.424	820.657	618.445
365.810	16.656	819.635	618.471
366.825	16.530	820.050	618.267
367.840	16.788	818.697	618.134
368.854	16.554	818.558	617.122
369.869	16.588	818.072	616.824
370.883	16.669	817.858	616.902
371.898	16.668	817.346	616.458
372.913	16.753	817.305	616.683
373.927	16.647	816.489	615.625
374.942	16.721	815.778	615.304
375.956	16.809	815.703	615.513
376.971	16.730	815.395	614.941
377.986	16.724	814.741	614.372
379.000	16.810	814.510	614.455
380.015	16.866	813.662	613.964
381.029	16.860	813.275	613.596
382.044	16.804	812.598	612.828
383.059	16.990	811.565	612.664
384.073	16.802	811.490	611.875
385.088	16.793	810.685	611.181
386.102	16.829	810.385	611.031
387.117	16.605	809.968	609.854
388.132	16.986	808.810	610.300
389.146	16.743	808.698	609.288
390.161	16.832	808.091	609.096
391.175	16.948	807.714	609.177
392.190	16.936	807.089	608.609
393.205	17.025	806.444	608.386
394.219	16.928	806.375	607.932
395.234	16.719	806.380	607.133
396.248	16.778	805.817	606.867
397.263	17.014	804.887	606.957
398.278	16.999	804.499	606.556
399.292	16.954	804.202	606.117
400.307	16.795	804.246	605.530
401.321	16.781	803.488	604.857
402.336	16.971	803.057	605.156
403.350	17.150	802.116	605.029
404.365	17.080	801.950	604.602
405.380	17.049	801.753	604.289
406.394	17.235	800.783	604.166
407.409	17.253	800.513	603.973
408.423	17.202	800.306	603.585
409.438	17.359	799.756	603.674
410.453	17.175	799.671	602.904
411.467	17.200	798.780	602.263
412.482	17.311	798.501	602.396
413.496	17.520	797.978	602.687
414.511	17.381	797.959	602.128
415.526	17.280	797.604	601.449
416.540	17.401	796.776	601.197
417.555	17.229	796.643	600.437
418.569	17.319	796.102	600.296
419.584	17.526	795.639	600.624
420.599	17.295	795.450	599.611
421.613	109.336	1291.877	1468.893
422.628	93.973	1364.158	1468.986
