DTS Sentinel unit serial number:	SN413079Multiplexer serial number:	ORYXHardware model number:	OX4-SRSoftware version number:	ORYX F/W v4.00 Oryx Data Collector v3.7.2.0data status	okinstallation	princeton_trtdifferential loss correction	single-endedforward channel	channel 1reverse channel	N/Adate	2019/09/12time	10:52:11forward acquisition time	60.00reverse acquisition time	0.00gamma	496.2192k internal	0.2295k external	0.2295temperature offset calibration	1.0050default loss term (dB/km)	0.3790temperature slope calibration	1.0000multiplexer offset coefficient	1.0000multiplexer slope coefficient	1.0000fibre end	0.00T internal ref (°C)	38.02T ext. ref 1 (°C)	1.94T ext. ref 2 (°C)	36.64length (m)	temperature (°C)	Stokes	anti-Stokes-747.200	-115.098	-0.105	-0.020
-746.185	80.077	0.129	0.142
-745.171	-200.000	0.020	-0.119
-744.156	-77.839	-0.240	0.085
-743.142	-200.000	0.043	0.216
-742.127	150.045	-0.259	0.359
-741.112	322.158	0.137	0.266
-740.098	312.487	-0.232	0.445
-739.083	-3.264	-0.125	-0.089
-738.069	-200.000	0.008	0.144
-737.054	-63.023	0.118	0.050
-736.039	800.000	0.107	-0.339
-735.025	-33.468	-0.243	0.137
-734.010	-92.614	-0.154	-0.044
-732.996	-66.505	-0.010	-0.004
-731.981	635.963	-0.074	0.193
-730.966	800.000	0.010	-0.028
-729.952	61.330	0.233	0.237
-728.937	-200.000	0.066	-0.347
-727.923	800.000	0.114	-0.342
-726.908	48.771	-0.183	-0.176
-725.894	-43.848	-0.141	-0.072
-724.879	93.168	-0.200	-0.231
-723.864	-2.146	-0.091	0.065
-722.850	-200.000	-0.024	0.177
-721.835	527.842	-0.044	-0.105
-720.821	48.996	-0.270	-0.259
-719.806	-200.000	0.031	0.304
-718.791	-78.876	-0.425	0.148
-717.777	800.000	-0.115	0.356
-716.762	-200.000	-0.020	-0.281
-715.748	176.178	0.047	-0.069
-714.733	98.859	-0.076	0.090
-713.718	-200.000	0.020	0.099
-712.704	229.929	0.067	0.112
-711.689	322.970	-0.084	-0.164
-710.675	18.834	-0.136	-0.112
-709.660	405.318	0.056	-0.121
-708.645	-200.000	-0.012	0.094
-707.631	29.481	0.055	-0.047
-706.616	-62.040	-0.080	-0.034
-705.602	102.648	0.068	0.081
-704.587	-200.000	-0.014	-0.129
-703.572	-173.382	-0.245	0.008
-702.558	183.221	-0.057	0.086
-701.543	258.440	0.071	-0.126
-700.529	-58.445	-0.295	-0.131
-699.514	-200.000	-0.093	0.420
-698.499	220.531	0.111	-0.182
-697.485	-125.687	0.298	-0.046
-696.470	-169.265	-0.092	-0.003
-695.456	-94.222	0.274	-0.077
-694.441	96.502	-0.220	0.257
-693.426	175.735	-0.119	-0.176
-692.412	800.000	-0.051	-0.207
-691.397	-82.310	0.208	0.069
-690.383	85.461	-0.340	-0.381
-689.368	-64.559	0.225	-0.093
-688.354	433.900	-0.140	-0.311
-687.339	205.870	-0.154	-0.245
-686.324	-200.000	0.004	0.023
-685.310	28.955	0.176	-0.152
-684.295	-12.440	-0.362	0.241
-683.281	-23.237	0.076	-0.046
-682.266	102.322	-0.226	-0.270
-681.251	357.429	-0.097	-0.197
-680.237	800.000	-0.027	0.118
-679.222	695.608	-0.138	0.368
-678.208	-77.765	0.194	-0.068
-677.193	597.724	0.080	-0.201
-676.178	-56.084	0.168	-0.076
-675.164	-58.244	-0.252	-0.112
-674.149	52.203	-0.215	-0.209
-673.135	800.000	-0.023	-0.068
-672.120	-81.225	-0.260	0.088
-671.105	66.990	-0.137	0.143
-670.091	-39.806	0.101	-0.054
-669.076	-115.416	-0.268	0.052
-668.062	525.467	0.085	0.204
-667.047	800.000	0.043	0.162
-666.032	492.251	-0.082	0.190
-665.018	75.128	-0.393	0.423
-664.003	-41.311	-0.432	0.227
-662.989	-200.000	-0.031	-0.187
-661.974	-20.545	-0.260	-0.163
-660.959	-21.041	0.211	0.132
-659.945	91.780	-0.311	-0.357
-658.930	25.810	0.157	0.133
-657.916	-47.446	0.249	-0.123
-656.901	-60.106	0.242	-0.105
-655.886	-69.739	0.163	-0.063
-654.872	-200.000	0.005	0.071
-653.857	-191.873	0.145	0.001
-652.843	-26.014	0.266	0.159
-651.828	-0.288	0.370	-0.268
-650.814	218.234	-0.163	-0.265
-649.799	-150.134	-0.398	0.031
-648.784	-146.867	0.080	-0.007
-647.770	800.000	-0.059	0.260
-646.755	243.149	-0.109	0.186
-645.741	-105.753	0.092	-0.021
-644.726	382.157	0.056	-0.117
-643.711	12.311	-0.107	0.084
-642.697	-42.258	0.207	0.108
-641.682	139.602	0.090	0.121
-640.668	-92.433	-0.118	-0.034
-639.653	-18.377	-0.476	0.303
-638.638	253.254	-0.193	0.336
-637.624	-65.453	0.037	0.015
-636.609	-83.751	0.085	0.028
-635.595	426.203	0.068	-0.150
-634.580	-22.697	0.126	-0.077
-633.565	554.700	0.078	0.191
-632.551	-200.000	0.017	-0.088
-631.536	-200.000	0.044	0.206
-630.522	-190.224	-0.160	-0.002
-629.507	91.543	0.063	0.072
-628.492	-200.000	0.017	0.181
-627.478	317.028	0.048	0.092
-626.463	-200.000	0.006	-0.207
-625.449	484.216	0.095	-0.219
-624.434	-63.835	0.201	0.084
-623.419	-104.582	-0.281	0.066
-622.405	50.878	0.159	-0.153
-621.390	65.063	-0.210	-0.216
-620.376	-38.353	-0.257	-0.139
-619.361	235.281	0.096	-0.161
-618.346	261.905	-0.118	0.209
-617.332	-147.297	-0.433	0.037
-616.317	68.290	-0.161	0.168
-615.303	133.797	-0.120	-0.158
-614.288	-200.000	0.023	-0.427
-613.273	-200.000	-0.203	0.001
-612.259	800.000	-0.077	0.332
-611.244	-200.000	-0.002	0.024
-610.230	214.983	-0.329	-0.531
-609.215	-120.215	-0.158	-0.028
-608.201	800.000	-0.023	-0.082
-607.186	800.000	-0.107	-0.398
-606.171	-93.987	0.062	-0.017
-605.157	-200.000	0.019	0.194
-604.142	800.000	0.095	0.359
-603.128	417.665	-0.036	-0.078
-602.113	-108.201	0.019	-0.004
-601.098	49.780	-0.254	-0.243
-600.084	277.245	0.054	-0.098
-599.069	244.212	-0.066	-0.113
-598.055	-2.555	-0.144	-0.103
-597.040	-93.417	-0.393	-0.111
-596.025	448.534	0.105	0.236
-595.011	34.637	-0.153	0.136
-593.996	9.784	0.167	0.129
-592.982	54.077	0.213	0.208
-591.967	576.508	0.144	-0.359
-590.952	-2.574	-0.138	0.098
-589.938	-17.530	0.301	-0.192
-588.923	-85.859	0.197	-0.062
-587.909	55.834	-0.104	0.103
-586.894	-200.000	0.003	-0.124
-585.879	-156.204	-0.335	-0.021
-584.865	-100.176	0.104	0.026
-583.850	-200.000	0.040	0.416
-582.836	-81.606	0.363	-0.121
-581.821	-57.723	-0.112	0.050
-580.806	41.367	0.266	0.245
-579.792	-200.000	-0.021	0.099
-578.777	-104.616	0.058	0.013
-577.763	-32.290	-0.171	0.097
-576.748	-137.559	-0.297	-0.034
-575.733	-200.000	-0.066	-0.377
-574.719	-136.333	0.178	0.021
-573.704	74.223	0.193	-0.206
-572.690	12.043	0.063	0.049
-571.675	-200.000	-0.009	0.076
-570.661	-111.145	0.005	-0.001
-569.646	-86.330	-0.087	0.027
-568.631	-200.000	-0.011	-0.350
-567.617	800.000	-0.086	-0.320
-566.602	-200.000	-0.145	0.000
-565.588	-200.000	0.022	0.291
-564.573	-111.889	-0.294	-0.060
-563.558	-23.424	0.242	0.148
-562.544	800.000	-0.080	0.228
-561.529	-100.519	0.201	-0.051
-560.515	-194.002	-0.147	-0.001
-559.500	800.000	0.063	-0.240
-558.485	180.464	0.132	0.196
-557.471	-136.322	-0.211	0.025
-556.456	238.899	0.049	-0.082
-555.442	800.000	0.122	-0.476
-554.427	618.641	-0.148	-0.378
-553.412	800.000	0.076	-0.217
-552.398	4.594	-0.231	-0.172
-551.383	-200.000	-0.001	-0.024
-550.369	800.000	-0.076	-0.321
-549.354	800.000	0.041	-0.154
-548.339	55.155	0.187	0.183
-547.325	-200.000	-0.003	0.264
-546.310	-96.629	0.231	0.062
-545.296	-24.771	0.132	-0.079
-544.281	-15.250	0.129	-0.084
-543.266	323.018	-0.037	-0.072
-542.252	78.849	0.142	0.154
-541.237	-100.695	0.382	0.096
-540.223	-81.504	-0.188	-0.063
-539.208	258.237	0.193	-0.337
-538.193	-200.000	-0.011	0.078
-537.179	-56.680	-0.108	-0.048
-536.164	284.625	0.172	-0.315
-535.150	-93.027	-0.119	0.034
-534.135	111.450	0.254	0.310
-533.121	162.920	0.091	0.129
-532.106	-55.368	0.179	-0.082
-531.091	-97.107	-0.448	0.119
-530.077	-200.000	-0.047	0.298
-529.062	-200.000	0.008	-0.179
-528.048	-103.043	-0.398	-0.096
-527.033	108.365	-0.099	-0.120
-526.018	80.048	0.187	-0.204
-525.004	-42.699	-0.260	-0.134
-523.989	66.265	-0.089	-0.091
-522.975	100.870	0.098	-0.115
-521.960	22.620	-0.157	-0.130
-520.945	-92.541	0.313	-0.089
-519.931	-44.910	-0.148	-0.075
-518.916	-119.826	-0.152	-0.026
-517.902	5.957	0.161	0.121
-516.887	-200.000	0.094	0.430
-515.872	800.000	-0.028	-0.083
-514.858	-69.659	-0.222	-0.086
-513.843	-200.000	0.036	-0.175
-512.829	2.033	-0.173	-0.127
-511.814	222.228	0.190	-0.309
-510.799	-33.940	0.100	-0.056
-509.785	-22.371	-0.050	-0.031
-508.770	-200.000	0.055	0.346
-507.756	-0.971	-0.071	0.051
-506.741	-55.275	-0.417	0.190
-505.726	-200.000	0.042	-0.222
-504.712	111.366	0.153	-0.187
-503.697	-73.855	-0.150	-0.055
-502.683	231.513	-0.049	-0.081
-501.668	-200.000	0.036	-0.334
-500.653	113.086	-0.205	-0.251
-499.639	78.485	0.307	0.333
-498.624	53.277	0.053	-0.051
-497.610	800.000	-0.024	0.079
-496.595	662.082	-0.079	-0.206
-495.581	-93.156	0.162	-0.046
-494.566	-200.000	-0.016	0.104
-493.551	-99.670	-0.165	-0.042
-492.537	207.401	0.117	0.185
-491.522	-104.856	0.138	-0.032
-490.508	-200.000	0.010	0.148
-489.493	241.271	-0.194	-0.329
-488.478	-101.641	-0.087	-0.021
-487.464	-141.288	0.279	-0.029
-486.449	-200.000	0.002	-0.124
-485.435	229.406	-0.095	-0.157
-484.420	-153.511	0.176	-0.012
-483.405	800.000	-0.057	0.187
-482.391	-105.053	-0.190	-0.044
-481.376	45.346	-0.169	-0.157
-480.362	-137.112	0.248	-0.029
-479.347	-159.163	0.041	0.002
-478.332	69.563	-0.200	0.208
-477.318	7.792	0.117	-0.089
-476.303	-200.000	0.007	-0.266
-475.289	800.000	0.059	-0.230
-474.274	800.000	0.015	-0.058
-473.259	-200.000	0.022	-0.169
-472.245	165.496	0.153	-0.219
-471.230	113.656	0.202	0.248
-470.216	-200.000	0.002	0.265
-469.201	98.773	-0.229	-0.267
-468.186	389.148	0.123	0.258
-467.172	635.186	0.092	0.236
-466.157	143.925	-0.140	0.189
-465.143	201.636	0.170	0.265
-464.128	63.973	0.136	0.138
-463.113	-52.717	-0.112	0.052
-462.099	-200.000	-0.015	-0.219
-461.084	-91.284	-0.090	-0.026
-460.070	-27.388	0.235	-0.138
-459.055	254.262	0.170	-0.294
-458.040	219.592	-0.044	0.071
-457.026	167.245	-0.057	-0.082
-456.011	759.884	0.051	0.139
-454.997	108.232	0.093	-0.112
-453.982	57.131	-0.045	-0.044
-452.968	-72.722	-0.116	0.043
-451.953	245.957	-0.181	0.308
-450.938	-13.662	0.117	-0.076
-449.924	-147.893	-0.229	-0.019
-448.909	462.616	-0.055	-0.124
-447.895	-25.857	-0.250	-0.149
-446.880	132.568	0.144	-0.187
-445.865	-191.267	0.042	0.000
-444.851	169.653	0.096	-0.138
-443.836	-49.187	-0.223	-0.108
-442.822	-200.000	0.010	0.056
-441.807	-73.629	0.087	0.032
-440.792	103.379	0.105	-0.125
-439.778	30.159	-0.179	0.154
-438.763	-47.946	-0.094	-0.046
-437.749	79.802	0.216	-0.234
-436.734	-23.686	0.351	0.213
-435.719	107.683	-0.131	-0.158
-434.705	-8.107	-0.122	-0.083
-433.690	-80.191	0.243	-0.082
-432.676	50.783	-0.349	-0.334
-431.661	-40.108	0.194	-0.102
-430.646	-200.000	-0.016	0.191
-429.632	-18.025	0.307	-0.194
-428.617	-200.000	-0.030	-0.240
-427.603	53.566	-0.287	0.278
-426.588	-25.002	0.351	0.210
-425.573	800.000	-0.046	-0.137
-424.559	-87.152	0.207	0.064
-423.544	-13.445	0.284	0.186
-422.530	-200.000	0.037	0.233
-421.515	4.019	0.154	-0.113
-420.500	-50.152	0.123	-0.059
-419.486	-2.149	-0.264	-0.187
-418.471	160.715	-0.141	0.198
-417.457	-200.000	0.018	-0.241
-416.442	80.735	-0.139	-0.151
-415.428	207.866	-0.118	-0.186
-414.413	-63.126	-0.183	0.076
-413.398	53.885	-0.104	-0.101
-412.384	-200.000	-0.011	-0.049
-411.369	-71.390	0.396	-0.150
-410.355	800.000	0.017	0.047
-409.340	-27.108	-0.112	-0.066
-408.325	800.000	-0.094	-0.348
-407.311	70.867	-0.230	0.241
-406.296	-150.377	0.249	-0.019
-405.282	37.142	-0.245	0.219
-404.267	-156.945	-0.115	0.007
-403.252	-200.000	0.007	-0.093
-402.238	-126.923	-0.413	-0.061
-401.223	2.186	-0.178	-0.130
-400.209	-76.340	-0.157	-0.056
-399.194	37.227	0.229	-0.205
-398.179	-116.432	-0.174	0.032
-397.165	4.966	-0.245	0.182
-396.150	-200.000	0.042	0.219
-395.136	20.728	-0.037	-0.031
-394.121	800.000	0.035	0.108
-393.106	-77.440	0.090	0.031
-392.092	91.928	0.106	0.121
-391.077	-200.000	0.053	-0.243
-390.063	-97.580	0.109	-0.028
-389.048	-83.205	0.386	-0.125
-388.033	33.130	-0.186	-0.162
-387.019	-200.000	0.029	-0.267
-386.004	-53.969	0.256	0.117
-384.990	64.697	-0.217	0.221
-383.975	800.000	0.058	0.227
-382.960	-139.852	-0.203	-0.022
-381.946	233.166	-0.114	-0.189
-380.931	-98.817	0.225	-0.058
-379.917	280.465	-0.116	0.210
-378.902	387.056	0.083	-0.172
-377.888	30.600	-0.222	0.191
-376.873	412.693	0.085	-0.182
-375.858	169.339	-0.191	-0.275
-374.844	-200.000	-0.029	-0.222
-373.829	337.671	0.254	0.498
-372.815	87.673	0.127	0.142
-371.800	-170.503	0.392	0.014
-370.785	-200.000	0.035	-0.232
-369.771	-85.397	0.378	-0.119
-368.756	86.015	-0.069	-0.077
-367.742	16.820	0.417	0.332
-366.727	94.046	-0.219	0.251
-365.712	180.689	0.175	-0.259
-364.698	-67.313	-0.322	-0.127
-363.683	-200.000	-0.010	0.051
-362.669	64.679	0.228	0.232
-361.654	140.000	-0.162	-0.215
-360.639	-11.652	0.340	-0.225
-359.625	37.193	0.169	-0.150
-358.610	384.911	-0.030	0.062
-357.596	-200.000	-0.023	0.368
-356.581	-200.000	-0.020	0.223
-355.566	-200.000	0.029	-0.434
-354.552	23.944	0.150	-0.125
-353.537	-200.000	0.009	0.057
-352.523	-200.000	0.054	0.522
-351.508	-92.627	-0.160	-0.045
-350.493	18.730	0.063	0.051
-349.479	-80.334	0.080	0.027
-348.464	-36.535	0.115	0.062
-347.450	165.784	-0.068	0.096
-346.435	-60.453	-0.100	0.043
-345.420	-29.486	0.231	-0.133
-344.406	800.000	-0.022	-0.083
-343.391	-126.337	-0.166	0.025
-342.377	-36.566	-0.128	0.070
-341.362	-200.000	0.023	-0.222
-340.348	-200.000	-0.000	0.073
-339.333	-200.000	-0.036	0.180
-338.318	98.050	-0.127	0.147
-337.304	55.564	0.086	-0.084
-336.289	-46.303	-0.293	-0.145
-335.275	-47.214	-0.154	-0.076
-334.260	-74.386	-0.316	-0.115
-333.245	-141.994	0.405	-0.041
-332.231	-9.902	0.185	0.124
-331.216	-200.000	-0.022	-0.148
-330.202	736.036	-0.062	0.166
-329.187	-70.766	-0.117	-0.044
-328.172	64.389	-0.087	-0.088
-327.158	24.511	-0.120	-0.100
-326.143	-200.000	-0.029	-0.200
-325.129	-40.554	-0.135	-0.070
-324.114	489.616	0.113	-0.259
-323.099	-200.000	-0.027	0.152
-322.085	800.000	0.041	0.180
-321.070	105.403	-0.130	0.155
-320.056	292.279	0.022	-0.041
-319.041	-14.778	0.181	-0.117
-318.026	-34.538	0.127	-0.070
-317.012	112.091	0.055	0.067
-315.997	-63.852	0.355	0.146
-314.983	-99.407	-0.148	0.037
-313.968	0.238	-0.196	0.141
-312.953	-104.385	0.449	0.105
-311.939	778.883	0.132	0.363
-310.924	-71.168	-0.359	0.136
-309.910	-200.000	0.065	0.432
-308.895	-14.102	0.219	-0.142
-307.880	-149.861	-0.264	-0.021
-306.866	800.000	0.114	0.409
-305.851	427.457	-0.063	0.136
-304.837	66.193	0.056	0.057
-303.822	-14.182	-0.275	0.178
-302.807	-39.748	0.087	-0.045
-301.793	-30.806	0.134	0.076
-300.778	123.861	-0.073	0.092
-299.764	-44.687	0.195	0.098
-298.749	-110.298	-0.375	0.078
-297.735	71.589	0.332	0.347
-296.720	-89.454	0.349	0.103
-295.705	-80.960	0.044	-0.015
-294.691	-190.100	-0.248	0.003
-293.676	-40.082	-0.148	-0.077
-292.662	-200.000	-0.034	0.208
-291.647	-45.948	0.302	-0.149
-290.632	101.862	-0.252	-0.295
-289.618	-200.000	0.044	0.217
-288.603	-91.247	0.205	-0.059
-287.589	-200.000	0.016	-0.263
-286.574	-91.534	0.210	-0.060
-285.559	46.162	-0.122	-0.113
-284.545	800.000	0.058	0.165
-283.530	134.923	-0.162	0.211
-282.516	141.245	-0.123	0.163
-281.501	234.106	0.129	0.213
-280.486	63.149	-0.047	0.047
-279.472	208.012	0.097	0.152
-278.457	-200.000	-0.032	0.149
-277.443	-79.259	-0.364	-0.124
-276.428	-24.484	-0.155	-0.092
-275.413	561.909	0.148	0.359
-274.399	-85.844	0.153	-0.048
-273.384	-200.000	0.107	0.476
-272.370	-200.000	-0.006	-0.297
-271.355	800.000	-0.016	-0.063
-270.340	368.232	0.157	-0.319
-269.326	-69.140	0.268	-0.104
-268.311	-200.000	-0.019	0.125
-267.297	243.302	0.177	0.297
-266.282	13.843	-0.141	0.110
-265.267	800.000	-0.059	-0.258
-264.253	-140.664	0.246	-0.026
-263.238	-171.583	0.183	0.006
-262.224	-85.495	-0.117	0.037
-261.209	127.157	0.161	-0.204
-260.195	28.108	0.239	0.203
-259.180	-14.195	0.342	0.221
-258.165	-200.000	-0.071	0.325
-257.151	-71.360	0.108	-0.041
-256.136	800.000	-0.037	0.147
-255.122	800.000	-0.027	0.118
-254.107	124.598	-0.079	0.099
-253.092	-133.265	0.428	0.054
-252.078	-11.921	0.147	-0.097
-251.063	222.352	0.109	-0.176
-250.049	510.731	0.113	-0.264
-249.034	34.413	0.297	-0.260
-248.019	291.922	0.190	0.346
-247.005	438.224	0.125	0.272
-245.990	-81.790	-0.358	0.118
-244.976	-162.513	-0.123	0.006
-243.961	-45.914	-0.328	0.162
-242.946	80.044	0.203	-0.219
-241.932	508.311	0.102	0.238
-240.917	-40.115	0.179	-0.093
-239.903	-104.234	-0.226	0.053
-238.888	672.398	-0.060	0.157
-237.873	-200.000	0.022	0.270
-236.859	70.313	0.173	0.179
-235.844	238.107	-0.036	0.060
-234.830	-86.824	0.175	0.053
-233.815	800.000	-0.020	-0.078
-232.800	-165.363	-0.263	0.012
-231.786	-200.000	0.005	0.388
-230.771	529.540	0.062	-0.147
-229.757	319.943	-0.123	-0.234
-228.742	-152.716	-0.104	0.007
-227.727	-114.035	-0.556	0.108
-226.713	800.000	-0.111	0.403
-225.698	800.000	0.066	0.252
-224.684	-102.787	-0.288	0.069
-223.669	-77.293	0.174	0.061
-222.655	-45.816	0.152	0.075
-221.640	-200.000	-0.015	-0.288
-220.625	666.728	-0.050	-0.129
-219.611	33.356	-0.176	-0.153
-218.596	265.530	-0.082	-0.144
-217.582	-57.284	0.162	-0.071
-216.567	800.000	-0.081	-0.335
-215.552	-29.685	-0.270	-0.154
-214.538	264.077	0.173	-0.302
-213.523	-92.448	0.171	0.048
-212.509	153.536	0.203	0.278
-211.494	393.518	0.058	-0.122
-210.479	800.000	0.060	0.167
-209.465	-200.000	0.022	0.238
-208.450	800.000	0.071	0.271
-207.436	-85.316	0.434	-0.136
-206.421	-90.461	-0.279	-0.081
-205.406	-200.000	-0.036	0.159
-204.392	-47.366	0.119	0.058
-203.377	-54.844	0.092	-0.041
-202.363	-105.400	-0.395	0.090
-201.348	543.917	0.156	0.372
-200.333	-29.032	0.269	-0.155
-199.319	-51.576	-0.046	-0.021
-198.304	-88.227	-0.183	0.055
-197.290	-32.957	-0.029	0.016
-196.275	800.000	0.057	-0.192
-195.260	74.784	0.197	0.208
-194.246	294.849	-0.049	0.089
-193.231	-111.560	-0.042	-0.009
-192.217	206.213	-0.124	0.192
-191.202	4.454	-0.121	-0.089
-190.187	-200.000	0.009	-0.298
-189.173	224.560	0.073	0.118
-188.158	-200.000	-0.053	0.489
-187.144	800.000	0.017	0.056
-186.129	800.000	-0.092	-0.339
-185.114	-49.862	0.164	-0.078
-184.100	-200.000	-0.031	-0.265
-183.085	158.639	0.165	-0.229
-182.071	92.667	-0.180	0.203
-181.056	181.809	0.051	0.075
-180.042	-53.657	-0.133	-0.061
-179.027	-200.000	-0.013	0.082
-178.012	-158.554	-0.149	0.009
-176.998	-50.793	-0.159	0.075
-175.983	-21.374	-0.247	0.151
-174.969	617.544	0.052	0.131
-173.954	194.540	0.097	0.147
-172.939	-116.894	-0.272	-0.050
-171.925	-84.160	-0.558	-0.177
-170.910	-12.043	0.164	-0.108
-169.896	-42.183	-0.351	-0.179
-168.881	-130.727	0.195	-0.026
-167.866	284.461	0.090	-0.162
-166.852	-110.436	0.375	-0.078
-165.837	626.219	-0.101	0.254
-164.823	-65.636	0.133	-0.053
-163.808	-127.741	0.145	0.021
-162.793	-145.316	-0.177	-0.016
-161.779	150.453	-0.237	0.322
-160.764	-101.102	-0.421	-0.103
-159.750	-47.352	-0.072	-0.035
-158.735	-200.000	0.052	0.407
-157.720	129.835	0.097	0.124
-156.706	195.844	0.050	-0.076
-155.691	-64.988	0.134	-0.054
-154.677	111.069	0.141	-0.170
-153.662	250.685	0.157	-0.266
-152.647	255.728	-0.086	0.147
-151.633	342.944	-0.097	-0.189
-150.618	-24.072	0.085	-0.051
-149.604	24.196	-0.073	0.060
-148.589	-76.867	0.220	-0.077
-147.574	-53.670	0.271	-0.123
-146.560	-10.523	0.135	-0.090
-145.545	800.000	0.112	-0.358
-144.531	-81.713	-0.154	-0.050
-143.516	-200.000	0.009	0.085
-142.502	734.726	-0.049	0.130
-141.487	800.000	-0.099	-0.335
-140.472	-110.685	0.361	0.074
-139.458	-200.000	-0.079	-0.358
-138.443	-114.719	-0.118	0.023
-137.429	-146.537	-0.091	0.008
-136.414	-73.330	-0.131	-0.048
-135.399	-85.547	0.286	0.089
-134.385	-99.299	-0.377	-0.095
-133.370	-36.825	0.129	0.069
-132.356	-110.449	0.301	0.062
-131.341	800.000	-0.025	0.085
-130.326	416.353	-0.232	0.494
-129.312	78.747	-0.226	0.241
-128.297	-86.817	-0.092	-0.028
-127.283	-185.192	0.143	0.002
-126.268	-68.510	0.186	-0.072
-125.253	127.809	-0.134	0.170
-124.239	-200.000	0.023	0.138
-123.224	-200.000	0.003	-0.201
-122.210	-200.000	-0.002	0.070
-121.195	-118.392	-0.177	0.031
-120.180	-30.372	0.070	-0.040
-119.166	293.415	-0.021	0.037
-118.151	-180.513	0.272	0.006
-117.137	-200.000	-0.119	-0.000
-116.122	800.000	0.055	-0.168
-115.107	213.729	-0.111	0.176
-114.093	-6.213	0.147	0.100
-113.078	41.254	-0.065	-0.059
-112.064	-104.995	-0.209	0.048
-111.049	217.236	-0.086	0.137
-110.034	157.544	0.089	-0.123
-109.020	242.867	0.209	-0.348
-108.005	272.721	0.128	0.225
-106.991	-200.000	-0.027	-0.154
-105.976	-19.458	-0.181	0.112
-104.962	-17.598	-0.151	-0.094
-103.947	-200.000	0.015	-0.225
-102.932	-104.242	0.035	-0.008
-101.918	-73.004	0.301	0.110
-100.903	22.044	-0.061	0.049
-99.889	800.000	-0.045	0.155
-98.874	219.635	-0.090	0.143
-97.859	800.000	-0.033	-0.099
-96.845	-150.552	-0.146	0.011
-95.830	458.551	-0.033	-0.072
-94.816	111.304	0.144	0.173
-93.801	270.567	0.021	0.038
-92.786	-79.934	0.277	0.093
-91.772	90.174	0.089	0.099
-90.757	-7.004	-0.243	0.164
-89.743	301.149	0.089	-0.164
-88.728	-177.138	-0.137	0.003
-87.713	-200.000	-0.005	-0.258
-86.699	-48.118	-0.160	0.077
-85.684	110.611	0.154	0.185
-84.670	-6.745	0.163	0.111
-83.655	800.000	-0.078	0.236
-82.640	100.339	0.174	0.201
-81.626	-173.929	-0.401	-0.012
-80.611	-62.504	-0.098	-0.040
-79.597	-4.699	-0.111	-0.076
-78.582	-85.851	0.101	-0.031
-77.567	-62.892	-0.378	-0.156
-76.553	78.989	-0.156	0.166
-75.538	-33.413	-0.134	-0.074
-74.524	-87.882	-0.249	0.075
-73.509	-200.000	-0.011	-0.440
-72.494	800.000	-0.098	0.360
-71.480	59.855	-0.084	-0.083
-70.465	-46.567	-0.090	-0.044
-69.451	190.540	-0.096	-0.144
-68.436	-200.000	0.007	-0.110
-67.422	-200.000	0.047	-0.349
-66.407	49.869	-0.033	0.031
-65.392	-80.614	-0.046	0.015
-64.378	-200.000	-0.008	-0.155
-63.363	800.000	-0.047	0.131
-62.349	111.959	-0.107	0.128
-61.334	233.294	-0.583	-0.955
-60.319	800.000	0.204	0.742
-59.305	-200.000	-0.131	-0.696
-58.290	800.000	0.181	0.736
-57.276	187.028	0.982	1.457
-56.261	-200.000	82.848	494.474
-55.246	462.866	1383.187	3073.125
-54.232	143.603	2608.059	3456.953
-53.217	110.122	2241.259	2677.185
-52.203	48.758	1686.988	1574.333
-51.188	41.439	1417.169	1275.894
-50.173	38.020	1373.562	1215.340
-49.159	56.276	1413.142	1365.829
-48.144	61.135	1432.019	1414.661
-47.130	41.840	1392.202	1255.738
-46.115	38.124	1375.280	1217.311
-45.100	37.951	1370.660	1212.099
-44.086	37.715	1368.439	1208.625
-43.071	37.831	1365.984	1207.127
-42.057	37.776	1363.855	1204.855
-41.042	37.823	1362.121	1203.566
-40.027	37.801	1360.785	1202.204
-39.013	37.877	1358.326	1200.453
-37.998	37.816	1357.075	1198.921
-36.984	38.025	1354.943	1198.276
-35.969	38.066	1352.953	1196.718
-34.954	38.095	1351.137	1195.245
-33.940	38.050	1349.669	1193.618
-32.925	38.121	1348.358	1192.846
-31.911	38.114	1346.947	1191.508
-30.896	38.135	1345.596	1190.393
-29.881	38.067	1344.110	1188.621
-28.867	38.156	1342.603	1187.782
-27.852	38.175	1340.996	1186.425
-26.838	38.128	1339.554	1184.818
-25.823	38.166	1338.469	1184.041
-24.809	38.097	1337.092	1182.359
-23.794	38.110	1335.626	1181.096
-22.779	38.151	1334.545	1180.341
-21.765	38.113	1333.020	1178.715
-20.750	38.066	1331.704	1177.222
-19.736	38.089	1330.081	1175.878
-18.721	37.845	1329.447	1173.799
-17.706	38.003	1327.724	1173.186
-16.692	37.935	1326.420	1171.577
-15.677	37.915	1325.495	1170.595
-14.663	38.060	1324.085	1170.172
-13.648	37.992	1322.734	1168.523
-12.633	38.009	1322.248	1168.151
-11.619	37.906	1321.521	1166.843
-10.604	37.930	1320.488	1166.030
-9.590	37.906	1319.558	1165.018
-8.575	37.973	1318.226	1164.198
-7.560	37.950	1317.070	1162.990
-6.546	37.835	1316.667	1161.905
-5.531	37.901	1315.816	1161.500
-4.517	38.006	1314.923	1161.290
-3.502	37.976	1313.765	1160.045
-2.487	38.148	1312.530	1159.932
-1.473	38.100	1309.314	1156.754
-0.458	37.443	1294.054	1139.380
0.556	34.439	1275.228	1101.612
1.571	30.630	1279.466	1083.043
2.586	29.528	1294.174	1088.904
3.600	27.917	1281.879	1069.044
4.615	19.836	1202.145	957.905
5.629	7.683	1117.411	827.387
6.644	2.395	1094.022	782.991
7.659	1.887	1091.242	778.339
8.673	1.753	1089.787	776.550
9.688	1.718	1087.746	774.850
10.702	2.105	1086.840	776.103
11.717	8.753	1097.487	817.672
12.731	19.947	1113.493	887.205
13.746	24.941	1119.396	917.489
14.761	25.254	1120.269	919.730
15.775	25.352	1119.110	919.197
16.790	24.977	1118.747	916.896
17.804	24.921	1117.788	915.744
18.819	25.063	1117.800	916.400
19.834	25.241	1116.950	916.532
20.848	25.212	1116.742	916.128
21.863	25.158	1116.186	915.318
22.877	25.165	1115.380	914.611
23.892	25.136	1114.354	913.542
24.907	25.159	1113.699	913.042
25.921	25.148	1112.548	911.962
26.936	25.167	1111.268	910.928
27.950	25.099	1109.871	909.358
28.965	24.995	1107.676	906.953
29.980	24.989	1106.546	905.914
30.994	25.113	1105.446	905.559
32.009	25.212	1104.253	905.002
33.023	25.009	1103.095	902.949
34.038	25.122	1102.055	902.588
35.053	25.205	1101.802	902.719
36.067	25.160	1100.865	901.647
37.082	25.212	1100.123	901.222
38.096	25.381	1099.548	901.517
39.111	25.389	1098.711	900.793
40.126	25.139	1097.827	898.733
41.140	24.897	1095.419	895.471
42.155	24.757	1093.771	893.344
43.169	24.891	1092.730	893.084
44.184	24.682	1092.222	891.551
45.199	24.752	1091.007	890.827
46.213	24.766	1090.138	890.111
47.228	24.921	1089.459	890.249
48.242	25.065	1088.635	890.211
49.257	25.180	1088.053	890.228
50.271	25.249	1087.434	889.982
51.286	25.259	1086.587	889.260
52.301	25.337	1085.500	888.681
53.315	25.180	1084.285	886.827
54.330	25.121	1083.388	885.723
55.344	25.005	1082.971	884.734
56.359	25.090	1081.626	883.976
57.374	24.835	1080.884	882.034
58.388	24.997	1079.955	881.997
59.403	24.739	1079.396	880.193
60.417	24.719	1078.209	879.049
61.432	24.849	1077.393	878.942
62.447	24.932	1077.117	879.046
63.461	24.964	1076.164	878.349
64.476	24.871	1075.388	877.182
65.490	24.697	1074.560	875.578
66.505	24.803	1073.880	875.463
67.520	24.817	1073.366	875.038
68.534	24.583	1072.234	872.891
69.549	24.382	1070.849	870.709
70.563	24.388	1069.853	869.849
71.578	24.311	1069.192	868.860
72.593	24.238	1068.357	867.749
73.607	24.215	1068.176	867.414
74.622	24.573	1067.809	868.778
75.636	24.572	1066.901	867.959
76.651	24.569	1065.648	866.849
77.666	24.509	1064.390	865.459
78.680	24.528	1064.272	865.377
79.695	24.627	1063.751	865.358
80.709	24.753	1063.202	865.441
81.724	24.771	1062.039	864.507
82.739	24.854	1061.331	864.255
83.753	25.189	1061.072	865.582
84.768	25.459	1060.251	866.139
85.782	25.583	1059.080	865.701
86.797	25.283	1058.445	863.665
87.812	25.206	1057.467	862.420
88.826	25.364	1056.034	861.934
89.841	25.443	1054.911	861.319
90.855	25.367	1054.282	860.365
91.870	25.357	1053.536	859.634
92.884	25.266	1051.948	857.828
93.899	25.202	1051.271	856.893
94.914	25.352	1050.810	857.155
95.928	25.161	1049.172	854.832
96.943	24.970	1048.357	853.185
97.957	24.709	1046.842	850.636
98.972	24.664	1045.471	849.234
99.987	24.951	1044.769	849.947
101.001	25.087	1044.409	850.225
102.016	25.233	1043.103	849.780
103.030	24.963	1042.721	848.115
104.045	24.825	1041.487	846.384
105.060	24.755	1040.479	845.157
106.074	24.820	1040.055	845.043
107.089	25.232	1039.117	846.151
108.103	25.002	1038.317	844.343
109.118	24.816	1036.991	842.315
110.133	24.905	1035.536	841.478
111.147	24.604	1034.735	839.336
112.162	24.434	1033.928	837.808
113.176	24.744	1033.565	838.894
114.191	24.621	1032.602	837.462
115.206	24.449	1030.563	834.929
116.220	24.449	1030.100	834.484
117.235	24.560	1029.377	834.340
118.249	24.520	1028.473	833.349
119.264	24.422	1027.602	832.112
120.279	24.396	1026.934	831.377
121.293	24.656	1026.109	831.845
122.308	24.533	1025.374	830.602
123.322	24.463	1024.214	829.265
124.337	24.316	1023.142	827.642
125.352	23.812	1021.295	823.740
126.366	23.707	1020.410	822.465
127.381	24.466	1020.675	826.121
128.395	24.969	1019.659	827.551
129.410	25.052	1019.329	827.593
130.424	25.151	1018.164	827.031
131.439	24.998	1016.993	825.303
132.454	25.035	1016.243	824.788
133.468	25.019	1015.618	824.134
134.483	25.117	1014.709	823.777
135.497	25.078	1014.325	823.214
136.512	25.455	1012.536	823.416
137.527	25.296	1012.386	822.491
138.541	25.361	1011.388	821.905
139.556	25.323	1010.742	821.136
140.570	25.411	1009.777	820.680
141.585	25.510	1008.744	820.218
142.600	25.315	1007.486	818.237
143.614	25.595	1006.786	818.867
144.629	25.609	1006.011	818.229
145.643	25.555	1004.866	816.982
146.658	25.399	1003.541	815.123
147.673	25.330	1002.293	813.727
148.687	25.154	1001.585	812.281
149.702	25.107	1000.290	810.946
150.716	25.039	999.312	809.775
151.731	25.256	998.891	810.343
152.746	25.322	998.811	810.506
153.760	25.482	997.651	810.211
154.775	25.548	997.259	810.118
155.789	25.465	996.146	808.768
156.804	25.325	995.397	807.461
157.819	25.481	994.239	807.150
158.833	25.495	993.837	806.818
159.848	25.527	993.056	806.255
160.862	25.505	990.930	804.359
161.877	25.460	990.377	803.636
162.892	25.543	989.312	803.071
163.906	25.442	988.184	801.635
164.921	25.334	987.611	800.618
165.935	25.474	986.516	800.283
166.950	25.416	985.843	799.409
167.964	25.370	984.756	798.250
168.979	25.314	983.433	796.861
169.994	25.223	982.454	795.593
171.008	25.462	982.414	796.548
172.023	25.472	981.456	795.747
173.037	25.480	979.996	794.529
174.052	25.226	979.055	792.572
175.067	25.179	978.494	791.841
176.081	25.390	977.861	792.188
177.096	25.217	977.443	791.017
178.110	24.985	976.337	789.033
179.125	24.768	975.597	787.410
180.140	24.827	975.275	787.338
181.154	24.927	975.412	787.819
182.169	25.240	975.169	788.929
183.183	25.443	974.533	789.235
184.198	25.278	973.726	787.787
185.213	25.285	972.578	786.823
186.227	25.453	971.907	786.945
187.242	25.385	971.570	786.304
188.256	25.531	970.679	786.151
189.271	25.643	969.991	786.014
190.286	25.228	968.951	783.291
191.300	24.642	967.049	779.129
192.315	23.826	965.709	774.429
193.329	23.744	965.031	773.459
194.344	24.759	965.467	778.158
195.359	25.225	965.903	780.470
196.373	25.439	964.983	780.584
197.388	25.350	964.231	779.524
198.402	25.313	963.924	779.046
199.417	25.273	963.078	778.119
200.432	25.254	961.823	776.956
201.446	25.009	961.048	775.200
202.461	24.990	961.056	775.054
203.475	24.156	958.961	769.696
204.490	23.398	957.507	765.187
205.504	24.267	957.896	769.183
206.519	24.831	958.121	771.729
207.534	24.980	957.335	771.668
208.548	25.398	957.368	773.427
209.563	25.123	956.131	771.179
210.577	25.113	955.853	770.843
211.592	25.522	955.296	772.083
212.607	25.557	954.628	771.622
213.621	25.387	954.068	770.374
214.636	25.479	953.331	770.106
215.650	25.482	952.172	769.111
216.665	25.724	951.704	769.702
217.680	25.515	950.789	768.002
218.694	25.095	949.439	765.050
219.709	24.972	949.236	764.295
220.723	25.160	949.065	764.889
221.738	25.263	947.914	764.334
222.753	25.231	947.497	763.795
223.767	25.401	947.405	764.374
224.782	25.709	946.271	764.701
225.796	25.569	946.275	764.044
226.811	24.971	944.689	760.155
227.826	24.323	943.238	756.174
228.840	24.477	943.109	756.658
229.855	24.598	942.091	756.286
230.869	24.195	940.959	753.609
231.884	24.537	941.088	755.092
232.899	25.379	941.154	758.635
233.913	25.232	940.507	757.426
234.928	25.243	940.030	757.020
235.942	25.316	939.342	756.708
236.957	24.878	938.052	753.757
237.972	24.875	937.748	753.433
238.986	24.906	937.018	752.910
240.001	24.960	936.495	752.649
241.015	25.192	935.821	753.018
242.030	25.263	935.568	753.044
243.045	25.339	935.074	752.900
244.059	25.539	934.217	752.978
245.074	25.286	933.611	751.365
246.088	25.011	932.560	749.304
247.103	25.390	931.825	750.230
248.117	25.870	932.081	752.372
249.132	26.013	931.806	752.684
250.147	26.046	931.222	752.282
251.161	26.188	931.479	753.014
252.176	26.185	930.265	751.957
253.190	26.443	929.494	752.337
254.205	26.373	929.154	751.705
255.220	26.390	928.770	751.397
256.234	26.146	927.932	749.640
257.249	26.081	927.088	748.622
258.263	26.095	926.403	748.063
259.278	26.149	925.715	747.666
260.293	26.377	924.938	747.915
261.307	26.261	924.309	746.860
262.322	25.983	923.340	744.862
263.336	25.208	921.530	740.139
264.351	24.295	919.462	734.652
265.366	24.412	919.257	734.908
266.380	25.513	919.932	739.914
267.395	25.902	919.532	741.127
268.409	25.716	919.266	740.085
269.424	25.873	918.537	740.075
270.439	25.994	917.806	739.920
271.453	26.044	917.381	739.716
272.468	26.311	916.975	740.417
273.482	26.258	916.621	739.849
274.497	25.908	915.032	737.068
275.512	25.430	914.671	734.761
276.526	25.773	914.713	736.132
277.541	26.110	914.135	736.976
278.555	25.676	913.482	734.613
279.570	25.769	912.333	734.003
280.585	25.801	911.931	733.744
281.599	25.890	910.804	733.136
282.614	25.235	909.452	729.322
283.628	25.347	909.160	729.479
284.643	25.654	908.927	730.471
285.657	25.226	908.133	728.034
286.672	24.935	906.860	725.770
287.687	25.558	906.817	728.195
288.701	25.627	906.043	727.789
289.716	25.304	905.461	725.949
290.730	25.281	904.744	725.218
291.745	24.954	903.452	722.800
292.760	25.267	903.737	724.225
293.774	26.223	904.292	728.466
294.789	26.575	903.606	729.267
295.803	26.600	902.971	728.787
296.818	26.655	902.369	728.462
297.833	26.267	901.093	725.806
298.847	26.001	900.649	724.316
299.862	26.393	900.119	725.398
300.876	26.527	900.251	725.979
301.891	26.583	899.044	725.166
302.906	25.965	898.290	722.020
303.920	26.032	898.213	722.164
304.935	26.513	897.916	723.786
305.949	26.583	896.977	723.242
306.964	26.220	896.209	721.112
307.979	26.522	895.488	721.671
308.993	26.710	895.342	722.240
310.008	26.642	895.089	721.701
311.022	26.360	894.398	719.957
312.037	26.201	893.736	718.725
313.052	25.996	892.483	716.842
314.066	24.997	891.103	711.700
315.081	24.797	890.075	710.025
316.095	25.592	890.599	713.534
317.110	26.142	890.417	715.507
318.125	25.310	888.659	710.740
319.139	24.377	886.747	705.461
320.154	24.239	886.855	704.938
321.168	25.275	887.009	709.093
322.183	25.898	887.167	711.615
323.197	26.149	886.987	712.399
324.212	26.291	886.810	712.755
325.227	26.287	886.245	712.221
326.241	26.153	884.986	710.619
327.256	26.038	884.563	709.764
328.270	26.076	883.914	709.331
329.285	25.794	882.883	707.331
330.300	25.524	882.467	705.875
331.314	25.860	882.130	706.866
332.329	26.104	881.956	707.617
333.343	26.455	881.155	708.288
334.358	26.514	880.650	708.051
335.373	26.532	880.668	708.074
336.387	26.813	880.777	709.197
337.402	26.848	880.866	709.343
338.416	26.758	880.356	708.518
339.431	26.943	879.717	708.661
340.446	27.060	879.392	708.797
341.460	26.977	878.595	707.765
342.475	26.665	878.550	706.449
343.489	26.719	878.323	706.415
344.504	27.073	877.982	707.459
345.519	27.266	877.093	707.429
346.533	27.241	876.998	707.193
347.548	27.345	876.008	706.738
348.562	27.294	875.895	706.385
349.577	27.186	875.048	705.222
350.592	27.084	874.356	704.206
351.606	27.196	873.410	703.815
352.621	26.997	872.526	702.269
353.635	26.994	871.959	701.740
354.650	26.333	870.236	697.741
355.665	25.413	868.584	692.807
356.679	25.802	868.487	694.171
357.694	26.250	868.135	695.553
358.708	26.190	867.135	694.459
359.723	26.546	867.184	695.806
360.738	26.879	866.982	696.861
361.752	26.914	866.603	696.629
362.767	27.316	866.153	697.746
363.781	27.548	865.939	698.405
364.796	27.557	865.533	698.048
365.810	27.675	864.992	698.002
366.825	27.571	864.713	697.315
367.840	27.295	863.962	695.594
368.854	26.954	863.015	693.467
369.869	26.901	862.528	692.812
370.883	26.844	861.977	692.091
371.898	26.715	861.930	691.499
372.913	26.842	861.565	691.630
373.927	27.042	860.961	691.847
374.942	27.145	860.606	691.893
375.956	27.338	859.993	692.071
376.971	27.522	859.218	692.085
377.986	27.563	859.430	692.350
379.000	27.522	858.665	691.518
380.015	27.386	857.735	690.190
381.029	27.531	857.143	690.203
382.044	27.512	857.003	689.958
383.059	27.671	856.026	689.711
384.073	27.767	855.804	689.834
385.088	27.548	854.887	688.209
386.102	27.249	854.127	686.406
387.117	27.273	853.727	686.116
388.132	26.868	852.670	683.679
389.146	26.333	851.663	680.797
390.161	26.851	851.570	682.610
391.175	27.277	851.325	683.957
392.190	26.923	850.402	681.825
393.205	25.519	848.317	674.827
394.219	24.056	846.063	667.492
395.234	24.056	846.043	667.417
396.248	25.547	847.544	674.139
397.263	26.917	848.511	679.986
398.278	26.995	847.946	679.765
399.292	26.706	847.100	677.945
400.307	26.804	846.812	678.021
401.321	26.806	846.325	677.578
402.336	27.365	846.178	679.489
403.350	27.641	846.281	680.542
404.365	27.880	846.088	681.217
405.380	28.211	845.793	682.154
406.394	28.323	845.140	681.986
407.409	28.290	844.083	680.948
408.423	28.155	844.086	680.390
409.438	28.186	844.171	680.512
410.453	28.254	843.226	679.944
411.467	28.288	842.505	679.426
412.482	28.128	842.455	678.733
413.496	28.267	841.945	678.776
414.511	28.277	841.714	678.569
415.526	28.248	841.292	678.061
416.540	28.095	840.126	676.494
417.555	27.878	839.722	675.307
418.569	27.875	839.522	675.076
419.584	27.828	839.079	674.486
420.599	27.623	838.303	673.044
421.613	99.570	1276.369	1408.934
422.628	86.435	1340.225	1409.069
