DTS Sentinel unit serial number:	SN413079Multiplexer serial number:	ORYXHardware model number:	OX4-SRSoftware version number:	ORYX F/W v4.00 Oryx Data Collector v3.7.2.0data status	okinstallation	princeton_trtdifferential loss correction	single-endedforward channel	channel 1reverse channel	N/Adate	2019/09/15time	03:10:35forward acquisition time	60.00reverse acquisition time	0.00gamma	496.2192k internal	0.2324k external	0.2324temperature offset calibration	0.9992default loss term (dB/km)	0.3790temperature slope calibration	1.0000multiplexer offset coefficient	1.0000multiplexer slope coefficient	1.0000fibre end	0.00T internal ref (°C)	31.14T ext. ref 1 (°C)	4.59T ext. ref 2 (°C)	25.76length (m)	temperature (°C)	Stokes	anti-Stokes-747.200	-88.240	-0.153	-0.046
-746.185	-53.405	-0.193	-0.089
-745.171	200.643	-0.157	-0.243
-744.156	-200.000	0.072	-0.000
-743.142	33.090	0.242	-0.212
-742.127	800.000	-0.100	0.294
-741.112	159.880	-0.232	0.327
-740.098	431.289	-0.111	0.243
-739.083	-43.363	-0.180	-0.092
-738.069	15.642	0.215	0.170
-737.054	800.000	-0.109	0.325
-736.039	80.931	-0.288	0.314
-735.025	-200.000	0.026	0.173
-734.010	800.000	0.074	-0.217
-732.996	-91.474	-0.112	-0.032
-731.981	-64.775	0.341	-0.140
-730.966	-76.384	0.096	-0.034
-729.952	-73.641	-0.382	-0.141
-728.937	-144.514	-0.313	-0.029
-727.923	224.428	0.070	-0.114
-726.908	-200.000	0.011	-0.184
-725.894	-129.547	0.093	-0.013
-724.879	-40.386	-0.254	-0.133
-723.864	666.039	0.029	-0.076
-722.850	-136.174	-0.192	-0.023
-721.835	800.000	-0.053	-0.227
-720.821	-87.542	-0.244	-0.074
-719.806	210.688	-0.201	-0.319
-718.791	341.165	-0.139	-0.275
-717.777	527.984	-0.056	0.133
-716.762	-200.000	0.023	0.171
-715.748	-110.470	-0.077	0.016
-714.733	-18.879	-0.198	0.124
-713.718	334.882	0.079	-0.154
-712.704	3.339	0.028	0.020
-711.689	-174.883	0.261	0.007
-710.675	138.751	-0.066	-0.087
-709.660	-64.103	0.313	0.129
-708.645	-144.047	0.387	-0.037
-707.631	-35.270	-0.314	-0.172
-706.616	-200.000	-0.028	-0.229
-705.602	109.246	0.042	0.051
-704.587	-81.287	-0.189	-0.063
-703.572	80.144	-0.048	-0.052
-702.558	743.481	-0.132	-0.357
-701.543	34.782	0.280	0.247
-700.529	800.000	0.096	0.371
-699.514	-121.648	0.170	0.028
-698.499	-88.417	0.152	-0.046
-697.485	74.662	0.153	0.162
-696.470	-31.921	0.045	-0.025
-695.456	7.415	0.028	0.021
-694.441	-111.608	-0.474	-0.097
-693.426	-88.051	-0.343	-0.104
-692.412	800.000	0.071	0.203
-691.397	-66.552	-0.015	0.006
-690.383	-132.309	-0.277	0.036
-689.368	800.000	-0.072	-0.292
-688.354	-120.700	-0.116	-0.020
-687.339	-90.075	-0.213	-0.063
-686.324	800.000	-0.096	-0.322
-685.310	-54.440	-0.173	0.079
-684.295	-23.019	-0.256	0.155
-683.281	-66.838	0.200	-0.080
-682.266	-200.000	0.005	0.071
-681.251	517.475	0.145	-0.340
-680.237	8.989	0.104	0.079
-679.222	509.123	-0.104	-0.243
-678.208	-42.382	-0.162	0.083
-677.193	28.624	0.214	0.182
-676.178	163.566	-0.084	-0.119
-675.164	37.329	-0.212	-0.189
-674.149	-52.999	-0.185	0.086
-673.135	800.000	0.111	0.330
-672.120	800.000	-0.058	-0.188
-671.105	75.483	0.307	-0.326
-670.091	32.698	0.030	-0.026
-669.076	45.320	-0.075	0.070
-668.062	-200.000	-0.030	-0.303
-667.047	-142.499	-0.551	-0.054
-666.032	-200.000	-0.008	-0.195
-665.018	268.807	0.055	-0.097
-664.003	-90.122	0.179	-0.053
-662.989	110.488	-0.049	0.059
-661.974	-61.852	-0.152	-0.064
-660.959	334.871	0.141	0.275
-659.945	-135.578	-0.176	-0.021
-658.930	353.887	0.160	0.320
-657.916	-160.745	-0.342	0.018
-656.901	-160.365	-0.228	-0.012
-655.886	800.000	-0.039	-0.126
-654.872	129.243	0.076	-0.097
-653.857	-36.606	0.286	0.155
-652.843	-200.000	-0.006	0.249
-651.828	-200.000	-0.035	-0.221
-650.814	800.000	0.055	-0.227
-649.799	-200.000	0.008	-0.246
-648.784	-172.134	0.168	0.005
-647.770	78.150	0.132	-0.142
-646.755	-200.000	-0.054	-0.263
-645.741	121.808	0.272	-0.341
-644.726	-105.428	-0.184	-0.042
-643.711	243.727	-0.119	0.202
-642.697	-122.989	-0.210	-0.034
-641.682	99.121	-0.071	0.082
-640.668	-103.450	-0.191	0.045
-639.653	-64.624	-0.238	0.097
-638.638	-67.680	0.191	-0.075
-637.624	-154.124	0.054	0.004
-636.609	-200.000	0.002	0.286
-635.595	-200.000	0.007	0.073
-634.580	21.179	-0.103	0.084
-633.565	14.605	0.395	0.310
-632.551	-200.000	0.033	0.180
-631.536	-44.038	-0.257	0.130
-630.522	50.398	-0.167	0.159
-629.507	64.949	0.220	-0.224
-628.492	800.000	0.049	0.198
-627.478	-51.807	-0.261	0.122
-626.463	-200.000	0.007	0.083
-625.449	19.749	0.148	0.120
-624.434	800.000	-0.049	0.160
-623.419	-104.298	0.142	-0.033
-622.405	-200.000	-0.011	-0.051
-621.390	236.702	-0.281	-0.468
-620.376	444.991	-0.117	-0.258
-619.361	800.000	0.098	-0.324
-618.346	100.827	-0.055	0.064
-617.332	225.796	0.026	-0.042
-616.317	14.051	-0.050	0.039
-615.303	-48.693	0.076	-0.037
-614.288	800.000	-0.037	0.139
-613.273	-60.402	-0.104	-0.044
-612.259	800.000	-0.069	-0.244
-611.244	-162.684	0.286	-0.014
-610.230	-136.855	-0.203	0.023
-609.215	35.841	-0.287	0.253
-608.201	-166.478	-0.057	-0.002
-607.186	-200.000	-0.005	-0.024
-606.171	-111.235	0.096	-0.020
-605.157	-45.660	0.177	0.088
-604.142	800.000	0.082	-0.334
-603.128	-24.206	-0.046	0.027
-602.113	-200.000	0.067	-0.314
-601.098	-133.134	0.124	0.016
-600.084	-200.000	-0.023	0.171
-599.069	454.967	-0.061	-0.135
-598.055	-3.850	-0.086	0.060
-597.040	-200.000	0.054	0.256
-596.025	74.628	-0.080	-0.085
-595.011	116.538	-0.334	0.411
-593.996	645.589	-0.137	-0.352
-592.982	-111.126	0.227	-0.047
-591.967	800.000	0.064	-0.200
-590.952	231.443	-0.085	0.140
-589.938	-65.178	-0.225	-0.091
-588.923	-200.000	-0.077	-0.475
-587.909	-200.000	0.016	0.189
-586.894	54.055	-0.257	0.248
-585.879	800.000	0.042	-0.128
-584.865	594.165	0.069	0.170
-583.850	800.000	0.005	0.016
-582.836	142.778	-0.012	0.016
-581.821	-145.930	-0.386	-0.034
-580.806	-200.000	0.062	0.340
-579.792	-72.918	-0.244	0.090
-578.777	-128.383	0.208	0.030
-577.763	-200.000	-0.001	-0.068
-576.748	180.815	0.066	0.097
-575.733	61.749	-0.027	0.027
-574.719	39.169	-0.339	0.304
-573.704	-20.446	-0.066	-0.041
-572.690	-118.949	0.337	-0.059
-571.675	-200.000	-0.023	0.179
-570.661	-200.000	-0.054	0.265
-569.646	51.581	0.094	-0.090
-568.631	-200.000	0.007	-0.114
-567.617	352.943	0.100	-0.198
-566.602	800.000	-0.114	-0.352
-565.588	47.214	-0.118	-0.110
-564.573	-20.541	-0.265	0.164
-563.558	-200.000	0.011	0.202
-562.544	351.462	-0.172	-0.341
-561.529	-168.791	0.188	0.007
-560.515	-97.294	-0.115	-0.030
-559.500	-182.676	0.283	0.005
-558.485	-113.862	0.425	-0.083
-557.471	800.000	-0.045	-0.125
-556.456	-11.547	0.094	-0.062
-555.442	-89.351	0.118	-0.035
-554.427	-81.873	-0.389	-0.127
-553.412	-107.236	-0.134	-0.030
-552.398	73.623	-0.060	0.063
-551.383	800.000	0.050	-0.178
-550.369	-132.588	0.283	0.036
-549.354	800.000	-0.051	-0.141
-548.339	42.512	-0.157	-0.143
-547.325	153.756	-0.220	-0.302
-546.310	-132.868	0.145	0.019
-545.296	-200.000	0.059	-0.428
-544.281	-113.419	-0.149	0.029
-543.266	39.722	0.115	-0.103
-542.252	-200.000	0.004	0.142
-541.237	384.829	-0.146	-0.301
-540.223	93.875	0.092	-0.105
-539.208	372.669	-0.139	0.282
-538.193	-112.110	0.107	-0.022
-537.179	-37.465	-0.074	-0.040
-536.164	46.686	0.019	0.018
-535.150	-200.000	-0.037	0.183
-534.135	-35.854	0.261	-0.142
-533.121	184.812	0.097	0.144
-532.106	-64.228	0.298	0.122
-531.091	-35.445	-0.129	-0.070
-530.077	-56.315	-0.306	-0.136
-529.062	195.052	-0.170	0.258
-528.048	-70.151	0.349	0.133
-527.033	336.700	-0.146	0.284
-526.018	233.329	0.073	0.120
-525.004	229.232	-0.238	0.389
-523.989	-150.911	0.037	-0.003
-522.975	-58.983	-0.250	0.108
-521.960	-188.089	0.289	0.004
-520.945	-71.307	0.231	0.087
-519.931	206.966	-0.170	-0.265
-518.916	288.893	0.086	-0.155
-517.902	286.446	-0.146	-0.263
-516.887	-64.222	-0.115	-0.047
-515.872	-14.942	-0.059	-0.038
-514.858	239.614	-0.129	0.215
-513.843	145.972	-0.077	0.103
-512.829	-175.667	-0.175	0.005
-511.814	761.139	-0.140	0.380
-510.799	512.079	0.114	-0.264
-509.785	800.000	0.011	0.040
-508.770	181.591	-0.062	0.091
-507.756	14.142	0.176	0.137
-506.741	229.170	0.067	0.110
-505.726	-61.607	0.239	-0.100
-504.712	-93.050	0.233	-0.065
-503.697	14.153	-0.326	-0.254
-502.683	-155.072	0.148	-0.010
-501.668	-101.497	-0.271	0.066
-500.653	-110.358	-0.109	-0.023
-499.639	-200.000	-0.033	-0.307
-498.624	-200.000	-0.021	-0.218
-497.610	-91.176	0.214	-0.061
-496.595	110.867	-0.164	-0.197
-495.581	97.526	-0.255	-0.293
-494.566	800.000	0.026	0.086
-493.551	800.000	0.029	0.121
-492.537	535.367	-0.161	-0.381
-491.522	215.975	0.024	-0.039
-490.508	-200.000	0.006	0.469
-489.493	-114.787	-0.258	-0.049
-488.478	800.000	0.119	-0.370
-487.464	690.272	0.104	-0.272
-486.449	-60.905	-0.056	0.024
-485.435	512.843	-0.114	0.266
-484.420	-15.900	0.085	0.054
-483.405	-21.871	0.139	-0.085
-482.391	9.150	0.304	0.230
-481.376	-200.000	-0.020	0.178
-480.362	55.452	0.145	0.140
-479.347	-125.501	0.077	0.012
-478.332	-105.304	0.401	0.091
-477.318	68.413	0.186	0.191
-476.303	83.709	-0.166	-0.181
-475.289	-200.000	-0.007	0.253
-474.274	306.155	0.167	0.310
-473.259	329.583	0.041	0.080
-472.245	87.577	0.106	-0.117
-471.230	-200.000	0.003	0.355
-470.216	-15.248	0.146	0.093
-469.201	-122.292	-0.203	0.033
-468.186	219.045	0.084	-0.134
-467.172	680.510	-0.049	0.127
-466.157	284.258	0.159	-0.286
-465.143	-96.600	-0.174	-0.046
-464.128	-200.000	0.039	0.177
-463.113	-31.053	0.253	-0.142
-462.099	-57.971	0.131	0.057
-461.084	-200.000	0.371	-0.000
-460.070	-200.000	-0.002	-0.578
-459.055	-33.883	0.072	-0.039
-458.040	140.098	0.080	0.105
-457.026	50.694	-0.234	0.222
-456.011	8.545	0.228	-0.172
-454.997	-200.000	-0.005	-0.058
-453.982	101.038	-0.125	-0.146
-452.968	-100.291	0.084	-0.021
-451.953	81.913	-0.244	-0.264
-450.938	366.940	-0.031	0.063
-449.924	-116.902	0.303	-0.055
-448.909	283.917	-0.159	0.285
-447.895	-200.000	0.009	-0.059
-446.880	215.988	-0.137	-0.218
-445.865	45.542	0.117	0.108
-444.851	148.972	0.167	-0.225
-443.836	-199.481	0.206	-0.001
-442.822	-119.425	-0.112	-0.019
-441.807	-107.087	-0.025	0.005
-440.792	-2.063	0.303	-0.212
-439.778	119.176	-0.065	0.080
-438.763	197.098	-0.200	-0.304
-437.749	54.240	-0.037	-0.035
-436.734	-178.250	0.120	-0.003
-435.719	800.000	-0.110	0.432
-434.705	-64.296	0.214	-0.087
-433.690	-113.673	0.286	0.056
-432.676	26.433	-0.320	-0.267
-431.661	-122.312	-0.188	0.031
-430.646	-72.285	-0.116	0.043
-429.632	-119.185	-0.223	0.039
-428.617	281.118	0.132	0.235
-427.603	187.236	-0.128	-0.190
-426.588	120.650	0.132	-0.164
-425.573	-200.000	0.029	0.158
-424.559	-26.254	-0.053	-0.031
-423.544	626.754	0.053	0.133
-422.530	-200.000	0.000	0.040
-421.515	288.050	-0.188	-0.339
-420.500	-31.489	-0.431	-0.242
-419.486	-96.035	-0.177	0.047
-418.471	70.338	-0.005	0.005
-417.457	-145.166	-0.135	-0.012
-416.442	-200.000	-0.012	-0.071
-415.428	-62.135	0.074	-0.031
-414.413	-29.968	0.209	-0.119
-413.398	800.000	0.031	-0.094
-412.384	-23.130	-0.220	0.132
-411.369	-140.111	0.187	0.020
-410.355	244.754	0.177	0.297
-409.340	-200.000	0.000	-0.045
-408.325	-108.822	0.242	0.052
-407.311	21.624	-0.079	-0.064
-406.296	-65.297	0.174	0.070
-405.282	-190.303	0.269	0.003
-404.267	185.346	-0.208	-0.307
-403.252	-86.427	0.133	-0.041
-402.238	800.000	0.058	-0.166
-401.223	-70.873	-0.246	-0.092
-400.209	-8.309	-0.113	0.076
-399.194	19.566	-0.050	0.040
-398.179	-67.119	-0.358	0.140
-397.165	65.502	-0.161	0.162
-396.150	119.502	-0.094	0.116
-395.136	-200.000	-0.016	0.116
-394.121	-10.491	-0.191	0.126
-393.106	50.040	0.255	-0.240
-392.092	-95.085	-0.264	0.071
-391.077	-200.000	-0.005	0.052
-390.063	-138.486	0.214	0.023
-389.048	77.647	0.249	0.264
-388.033	-200.000	-0.053	-0.379
-387.019	57.907	0.155	-0.151
-386.004	800.000	-0.077	-0.227
-384.990	87.279	-0.113	0.124
-383.975	-12.022	-0.194	-0.127
-382.960	526.706	0.054	-0.127
-381.946	-30.325	-0.123	0.070
-380.931	254.126	0.138	0.235
-379.917	-138.615	0.322	0.035
-378.902	602.800	-0.023	-0.057
-377.888	95.735	-0.178	-0.202
-376.873	800.000	0.107	-0.326
-375.858	313.671	0.117	0.219
-374.844	-200.000	0.031	0.174
-373.829	-80.010	-0.165	-0.055
-372.815	86.364	0.274	-0.301
-371.800	-64.737	0.106	-0.043
-370.785	800.000	0.034	-0.110
-369.771	-4.639	-0.133	0.091
-368.756	-45.320	0.159	-0.079
-367.742	800.000	0.133	0.402
-366.727	-28.775	-0.234	-0.134
-365.712	-52.694	0.251	-0.115
-364.698	276.711	0.081	-0.143
-363.683	-69.827	-0.096	0.037
-362.669	103.242	0.035	0.040
-361.654	116.660	-0.272	0.332
-360.639	291.967	0.182	0.330
-359.625	-200.000	-0.047	-0.218
-358.610	73.192	0.063	0.065
-357.596	436.587	0.091	-0.196
-356.581	-132.710	-0.187	-0.024
-355.566	146.818	-0.152	-0.203
-354.552	-84.732	-0.233	-0.073
-353.537	10.429	0.120	-0.091
-352.523	-27.819	0.129	-0.074
-351.508	-39.471	-0.283	-0.147
-350.493	16.070	-0.038	-0.029
-349.479	-18.312	0.428	-0.266
-348.464	-200.000	-0.005	0.055
-347.450	77.421	0.323	-0.341
-346.435	118.469	0.181	0.222
-345.420	-200.000	-0.026	0.162
-344.406	-200.000	-0.030	0.203
-343.391	28.569	-0.106	-0.089
-342.377	59.998	0.071	-0.070
-341.362	-152.483	-0.075	-0.005
-340.348	800.000	0.058	0.235
-339.333	-57.957	0.282	0.122
-338.318	767.511	-0.058	0.157
-337.304	224.707	-0.117	-0.189
-336.289	368.338	-0.030	0.060
-335.275	653.322	-0.031	0.079
-334.260	-69.685	0.121	0.046
-333.245	-200.000	-0.011	0.070
-332.231	-58.196	-0.094	-0.041
-331.216	98.312	0.184	0.211
-330.202	48.828	0.103	0.096
-329.187	482.568	0.118	0.267
-328.172	-200.000	-0.007	-0.281
-327.158	800.000	0.060	0.200
-326.143	-113.602	-0.135	0.026
-325.129	-37.300	-0.367	-0.195
-324.114	-65.891	-0.240	-0.095
-323.099	-193.398	-0.034	0.000
-322.085	139.499	-0.326	-0.426
-321.070	800.000	0.021	0.079
-320.056	800.000	0.042	0.142
-319.041	750.698	0.098	0.263
-318.026	800.000	-0.077	0.217
-317.012	-191.381	0.118	0.001
-315.997	-43.929	0.132	0.066
-314.983	369.224	-0.033	0.066
-313.968	76.784	-0.305	0.321
-312.953	-62.400	0.331	0.137
-311.939	184.724	0.248	-0.364
-310.924	-37.245	-0.027	0.014
-309.910	-140.471	0.346	0.036
-308.895	563.097	0.128	-0.308
-307.880	-51.086	-0.218	-0.102
-306.866	72.081	0.180	-0.186
-305.851	143.766	0.065	-0.085
-304.837	-51.665	-0.151	0.070
-303.822	514.937	-0.140	0.323
-302.807	369.890	-0.123	-0.248
-301.793	-200.000	-0.027	-0.247
-300.778	4.056	0.141	-0.102
-299.764	152.898	-0.205	0.278
-298.749	-21.777	-0.079	-0.047
-297.735	-118.341	-0.130	-0.023
-296.720	-200.000	-0.011	0.184
-295.705	64.985	0.069	0.069
-294.691	534.276	0.094	0.222
-293.676	66.510	0.228	0.230
-292.662	800.000	0.062	-0.199
-291.647	-17.175	0.122	0.076
-290.632	-76.991	-0.256	0.089
-289.618	-200.000	-0.012	-0.159
-288.603	-200.000	0.039	0.411
-287.589	159.975	-0.093	0.129
-286.574	169.055	0.133	0.188
-285.559	800.000	0.063	-0.197
-284.545	-17.674	0.233	-0.145
-283.530	8.422	-0.097	-0.072
-282.516	-200.000	0.008	0.177
-281.501	-200.000	-0.018	0.109
-280.486	-114.836	0.374	0.071
-279.472	306.486	-0.121	0.223
-278.457	-119.475	0.107	-0.018
-277.443	738.675	-0.120	0.318
-276.428	-109.496	-0.104	-0.022
-275.413	-53.881	0.139	-0.063
-274.399	213.486	0.063	0.098
-273.384	-200.000	-0.059	0.396
-272.370	-83.543	-0.073	-0.023
-271.355	-79.810	-0.208	-0.069
-270.340	-200.000	-0.003	0.467
-269.326	-6.133	-0.175	-0.118
-268.311	29.631	-0.194	-0.164
-267.297	-52.156	-0.152	-0.070
-266.282	-130.229	0.200	0.027
-265.267	-63.680	0.228	0.093
-264.253	124.883	-0.087	-0.109
-263.238	76.469	-0.166	0.174
-262.224	-200.000	0.001	-0.153
-261.209	360.933	-0.070	0.139
-260.195	-200.000	-0.016	-0.155
-259.180	591.950	0.056	-0.138
-258.165	147.795	-0.218	-0.291
-257.151	-27.371	-0.154	0.089
-256.136	44.932	0.234	-0.213
-255.122	-117.660	-0.190	-0.034
-254.107	800.000	-0.059	-0.214
-253.092	800.000	0.031	0.105
-252.078	46.151	0.102	-0.094
-251.063	-200.000	-0.050	-0.322
-250.049	-200.000	0.008	0.303
-249.034	-90.189	0.096	-0.028
-248.019	-12.671	-0.031	0.020
-247.005	-27.629	-0.151	-0.087
-245.990	-21.975	-0.075	0.045
-244.976	82.415	-0.223	0.239
-243.961	-91.769	0.214	0.060
-242.946	304.238	-0.085	-0.156
-241.932	69.406	0.253	0.257
-240.917	-200.000	0.036	0.317
-239.903	134.016	0.222	0.284
-238.888	-200.000	0.012	0.084
-237.873	437.116	0.148	0.319
-236.859	-140.723	0.047	-0.005
-235.844	-200.000	-0.008	0.064
-234.830	-147.953	0.300	0.025
-233.815	-156.729	0.131	0.008
-232.800	-61.283	0.393	0.164
-231.786	-78.603	-0.289	-0.098
-230.771	-58.281	-0.141	-0.061
-229.757	-132.458	-0.038	0.005
-228.742	-83.439	-0.144	0.046
-227.727	138.982	-0.161	-0.209
-226.713	-12.695	-0.150	0.097
-225.698	41.778	-0.165	-0.148
-224.684	-142.618	0.075	0.007
-223.669	43.926	-0.038	0.034
-222.655	800.000	0.045	0.126
-221.640	800.000	-0.112	-0.335
-220.625	91.533	0.062	-0.068
-219.611	800.000	-0.091	-0.357
-218.596	-173.034	0.164	0.005
-217.582	81.802	0.120	0.128
-216.567	-170.871	0.249	0.008
-215.552	-5.864	0.243	-0.165
-214.538	-77.170	-0.113	0.039
-213.523	9.521	-0.384	0.288
-212.509	-91.176	-0.172	0.049
-211.494	-200.000	0.010	-0.280
-210.479	800.000	0.043	0.141
-209.465	-200.000	0.016	-0.085
-208.450	-107.735	0.206	0.044
-207.436	224.433	-0.134	0.215
-206.421	773.189	0.088	-0.236
-205.406	484.376	-0.178	0.401
-204.392	212.316	0.047	0.073
-203.377	-57.624	-0.148	-0.064
-202.363	-77.044	0.372	0.128
-201.348	106.850	0.143	0.168
-200.333	-156.197	0.113	-0.007
-199.319	214.937	0.117	-0.183
-198.304	-12.107	-0.150	-0.097
-197.290	734.274	-0.047	-0.125
-196.275	-200.000	-0.004	0.162
-195.260	-32.598	-0.371	-0.204
-194.246	-63.801	0.124	0.050
-193.231	-200.000	0.060	0.263
-192.217	-200.000	0.014	0.073
-191.202	-9.125	-0.358	-0.237
-190.187	-98.801	0.088	0.022
-189.173	379.601	-0.218	-0.442
-188.158	-54.389	0.126	0.056
-187.144	-76.836	0.255	-0.088
-186.129	-134.254	-0.318	-0.039
-185.114	-29.049	0.090	0.051
-184.100	800.000	-0.080	-0.328
-183.085	276.041	-0.059	-0.103
-182.071	-51.149	-0.095	0.044
-181.056	13.507	-0.189	0.145
-180.042	183.897	0.141	-0.207
-179.027	271.902	-0.186	-0.324
-178.012	-12.397	0.455	-0.294
-176.998	59.594	-0.136	0.132
-175.983	-117.102	0.103	-0.019
-174.969	-110.348	0.382	-0.078
-173.954	800.000	-0.009	0.035
-172.939	-200.000	0.028	0.460
-171.925	-53.296	0.153	0.069
-170.910	-200.000	0.049	0.399
-169.896	37.310	0.122	0.107
-168.881	162.583	0.093	0.129
-167.866	-22.331	0.044	0.027
-166.852	-41.869	-0.347	-0.176
-165.837	173.180	0.229	-0.326
-164.823	4.984	-0.206	0.150
-163.808	-36.708	-0.068	0.036
-162.793	711.387	-0.032	0.083
-161.779	-39.892	-0.036	-0.019
-160.764	-200.000	-0.021	-0.213
-159.750	52.938	-0.146	0.138
-158.735	-64.466	0.187	0.075
-157.720	114.077	0.067	-0.080
-156.706	-200.000	0.054	0.249
-155.691	16.808	-0.110	0.086
-154.677	-200.000	-0.053	0.312
-153.662	-200.000	-0.062	0.349
-152.647	-84.214	0.366	-0.114
-151.633	734.164	-0.095	-0.251
-150.618	-116.331	-0.090	0.016
-149.604	-35.109	-0.164	0.088
-148.589	-139.896	0.100	-0.010
-147.574	597.973	0.201	0.492
-146.560	81.421	-0.056	-0.060
-145.545	713.336	-0.070	-0.184
-144.531	-200.000	0.025	0.110
-143.516	76.960	0.133	-0.139
-142.502	604.095	-0.188	0.462
-141.487	-168.079	-0.285	0.011
-140.472	238.610	0.082	-0.134
-139.458	1.394	0.112	-0.080
-138.443	-200.000	-0.002	-0.042
-137.429	33.112	-0.257	-0.220
-136.414	800.000	0.035	0.120
-135.399	31.963	0.155	-0.132
-134.385	-200.000	-0.013	-0.252
-133.370	724.746	0.077	-0.201
-132.356	-115.252	-0.061	-0.011
-131.341	96.567	0.239	0.270
-130.326	59.359	0.184	-0.178
-129.312	-55.491	-0.266	-0.117
-128.297	392.575	-0.094	-0.192
-127.283	-45.502	-0.155	-0.076
-126.268	-190.060	-0.135	0.001
-125.253	-93.785	0.254	-0.069
-124.239	-90.813	0.134	0.038
-123.224	465.748	0.071	0.157
-122.210	-96.459	0.032	0.008
-121.195	800.000	0.094	0.269
-120.180	-200.000	-0.019	-0.243
-119.166	142.301	0.163	0.213
-118.151	800.000	-0.051	-0.172
-117.137	34.492	-0.241	0.207
-116.122	-19.271	-0.293	-0.179
-115.107	-98.439	0.229	-0.058
-114.093	595.101	-0.118	0.286
-113.078	70.488	0.120	0.122
-112.064	275.957	-0.220	0.384
-111.049	57.881	0.295	0.285
-110.034	662.515	-0.044	0.111
-109.020	-191.284	-0.180	-0.002
-108.005	-6.644	0.108	-0.072
-106.991	-78.239	0.416	0.141
-105.976	-200.000	-0.039	-0.261
-104.962	-129.077	0.072	-0.010
-103.947	-11.750	0.216	-0.140
-102.932	800.000	-0.053	0.225
-101.918	-116.144	-0.285	0.052
-100.903	-133.010	0.203	0.025
-99.889	800.000	-0.072	-0.303
-98.874	28.082	0.172	-0.143
-97.859	-167.505	-0.064	-0.003
-96.845	160.060	0.144	0.197
-95.830	205.243	0.084	0.128
-94.816	134.301	-0.135	0.172
-93.801	-51.764	0.112	0.051
-92.786	629.576	-0.044	-0.110
-91.772	57.383	-0.144	0.138
-90.757	-22.253	-0.387	-0.231
-89.743	800.000	-0.054	0.173
-88.728	-7.817	0.112	-0.075
-87.713	227.710	0.175	0.280
-86.699	-169.006	-0.199	-0.007
-85.684	22.432	-0.142	-0.114
-84.670	448.139	0.078	0.170
-83.655	-19.824	-0.034	-0.020
-82.640	-2.061	0.214	-0.148
-81.626	-200.000	-0.049	-0.230
-80.611	306.926	-0.076	0.140
-79.597	-101.551	0.276	0.066
-78.582	-37.843	0.169	-0.088
-77.567	92.829	0.227	0.252
-76.553	-190.139	0.356	-0.004
-75.538	156.801	0.035	0.048
-74.524	-137.478	0.346	-0.038
-73.509	-97.278	0.127	-0.032
-72.494	-17.277	-0.365	0.226
-71.480	415.065	-0.133	-0.278
-70.465	178.738	-0.163	-0.234
-69.451	558.787	-0.143	0.340
-68.436	69.989	0.215	0.218
-67.422	-34.868	0.083	-0.044
-66.407	-54.973	-0.242	-0.107
-65.392	211.122	-0.129	-0.200
-64.378	-57.865	0.239	0.103
-63.363	4.302	0.213	-0.153
-62.349	19.774	0.107	-0.085
-61.334	-8.721	-1.021	-0.673
-60.319	-22.007	0.695	0.415
-59.305	527.665	-0.397	-0.919
-58.290	385.292	0.517	1.047
-57.276	351.864	0.797	1.551
-56.261	-200.000	100.813	601.459
-55.246	582.786	1409.656	3399.114
-54.232	192.748	2590.426	3844.368
-53.217	118.441	2140.881	2595.702
-52.203	43.252	1593.929	1429.998
-51.188	34.810	1329.387	1142.431
-50.173	31.511	1287.635	1087.368
-49.159	54.106	1337.471	1263.832
-48.144	56.431	1354.034	1293.193
-47.130	34.825	1311.259	1126.760
-46.115	31.343	1293.398	1091.076
-45.100	31.179	1288.571	1086.011
-44.086	30.941	1286.506	1082.844
-43.071	31.065	1284.072	1081.467
-42.057	31.000	1281.743	1079.088
-41.042	31.061	1280.106	1078.023
-40.027	31.060	1279.127	1077.149
-39.013	31.105	1277.081	1075.642
-37.998	31.051	1275.485	1073.945
-36.984	31.040	1273.736	1072.363
-35.969	31.067	1271.492	1070.587
-34.954	31.254	1269.628	1070.047
-33.940	31.102	1269.002	1068.607
-32.925	31.245	1267.282	1067.935
-31.911	31.111	1266.368	1066.357
-30.896	31.260	1264.524	1065.612
-29.881	31.319	1263.240	1064.823
-28.867	31.351	1261.993	1063.914
-27.852	31.404	1260.106	1062.578
-26.838	31.207	1259.235	1060.685
-25.823	31.245	1257.515	1059.409
-24.809	31.151	1256.431	1057.922
-23.794	31.230	1255.062	1057.176
-22.779	31.339	1253.580	1056.499
-21.765	31.209	1252.414	1054.743
-20.750	31.227	1250.946	1053.563
-19.736	31.201	1249.701	1052.329
-18.721	31.102	1248.704	1050.886
-17.706	31.114	1247.737	1050.100
-16.692	31.035	1246.451	1048.535
-15.677	31.025	1245.160	1047.351
-14.663	31.083	1243.828	1046.511
-13.648	31.105	1242.795	1045.726
-12.633	31.123	1241.804	1044.951
-11.619	30.997	1241.178	1043.679
-10.604	31.027	1240.371	1043.124
-9.590	31.105	1239.488	1042.778
-8.575	30.980	1238.751	1041.419
-7.560	31.078	1237.559	1040.919
-6.546	31.115	1236.702	1040.367
-5.531	31.006	1236.187	1039.281
-4.517	31.030	1235.353	1038.674
-3.502	31.157	1234.172	1038.347
-2.487	30.973	1233.560	1036.766
-1.473	31.052	1229.688	1033.907
-0.458	29.531	1214.828	1013.035
0.556	24.900	1197.250	975.471
1.571	21.201	1202.704	959.540
2.586	20.429	1216.601	966.249
3.600	19.945	1205.881	954.982
4.615	15.238	1136.052	875.083
5.629	7.985	1064.039	783.959
6.644	4.777	1045.356	754.593
7.659	4.581	1042.902	751.805
8.673	4.478	1041.937	750.548
9.688	4.534	1040.479	749.701
10.702	4.672	1038.538	748.899
11.717	8.818	1044.302	773.026
12.731	15.719	1053.619	813.342
13.746	18.550	1056.646	829.318
14.761	18.008	1055.659	825.849
15.775	17.032	1053.027	819.008
16.790	15.921	1051.073	812.062
17.804	15.245	1049.502	807.521
18.819	14.790	1048.889	804.787
19.834	14.518	1047.820	802.586
20.848	14.435	1046.641	801.211
21.863	14.146	1045.979	799.246
22.877	14.051	1045.372	798.256
23.892	14.080	1044.786	797.879
24.907	13.986	1044.098	796.831
25.921	14.136	1042.961	796.609
26.936	14.091	1041.475	795.187
27.950	14.136	1040.269	794.412
28.965	14.194	1039.010	793.658
29.980	14.310	1036.896	792.527
30.994	14.317	1036.396	792.106
32.009	14.349	1035.180	791.260
33.023	14.266	1034.096	789.966
34.038	14.258	1033.427	789.349
35.053	14.094	1032.171	787.542
36.067	14.228	1031.235	787.392
37.082	14.323	1029.951	786.792
38.096	14.377	1029.149	786.363
39.111	14.268	1029.155	785.787
40.126	14.144	1027.938	784.200
41.140	13.996	1026.460	782.308
42.155	13.985	1025.341	781.335
43.169	13.860	1024.519	780.050
44.184	13.954	1023.460	779.617
45.199	13.846	1022.442	778.264
46.213	14.049	1021.059	778.092
47.228	14.208	1020.450	778.304
48.242	14.043	1019.587	776.809
49.257	14.024	1018.752	776.015
50.271	14.125	1017.677	775.596
51.286	14.295	1016.944	775.760
52.301	14.235	1015.682	774.450
53.315	14.103	1014.964	773.222
54.330	14.128	1013.459	772.121
55.344	14.082	1012.874	771.396
56.359	14.096	1011.908	770.655
57.374	13.974	1011.138	769.438
58.388	14.044	1010.187	768.971
59.403	13.950	1009.368	767.843
60.417	13.988	1008.470	767.269
61.432	13.877	1007.439	765.903
62.447	13.896	1006.951	765.553
63.461	13.707	1006.565	764.320
64.476	13.932	1004.887	764.014
65.490	13.808	1004.616	763.169
66.505	13.883	1003.979	762.964
67.520	13.895	1002.985	762.196
68.534	13.879	1002.603	761.764
69.549	13.820	1001.899	760.893
70.563	13.942	1001.578	761.139
71.578	13.868	1000.302	759.761
72.593	13.645	999.979	758.431
73.607	13.648	999.364	757.912
74.622	13.797	998.751	758.058
75.636	13.748	997.989	757.190
76.651	13.881	997.097	757.054
77.666	13.770	996.581	756.086
78.680	13.866	995.826	755.886
79.695	13.883	995.305	755.501
80.709	14.012	994.868	755.690
81.724	14.000	994.050	754.948
82.739	14.109	992.965	754.551
83.753	14.231	992.416	754.618
84.768	14.329	991.541	754.332
85.782	14.338	990.632	753.613
86.797	14.313	989.754	752.765
87.812	14.103	989.181	751.313
88.826	14.095	988.142	750.421
89.841	14.278	987.037	750.341
90.855	14.338	986.057	749.800
91.870	14.337	985.578	749.364
92.884	14.227	985.004	748.368
93.899	14.416	983.637	748.110
94.914	14.348	983.092	747.328
95.928	14.449	982.340	747.142
96.943	14.362	981.619	746.135
97.957	14.193	981.063	744.893
98.972	14.282	979.702	744.191
99.987	14.352	979.029	743.925
101.001	14.228	978.376	742.810
102.016	14.195	977.595	742.003
103.030	14.302	976.136	741.309
104.045	14.221	975.832	740.651
105.060	14.317	974.698	740.152
106.074	14.112	973.993	738.641
107.089	13.984	972.885	737.165
108.103	13.992	971.854	736.354
109.118	13.985	971.272	735.818
110.133	13.983	970.209	734.941
111.147	13.990	969.446	734.327
112.162	14.056	968.416	733.775
113.176	14.068	967.729	733.242
114.191	14.172	967.284	733.297
115.206	14.109	966.182	732.122
116.220	14.084	965.377	731.335
117.235	14.089	964.628	730.726
118.249	14.115	963.645	730.032
119.264	14.132	963.292	729.775
120.279	14.036	962.346	728.573
121.293	13.981	961.808	727.857
122.308	14.022	960.612	727.070
123.322	13.989	959.647	726.129
124.337	14.005	958.463	725.237
125.352	13.879	957.984	724.262
126.366	13.874	956.788	723.271
127.381	13.949	955.712	722.723
128.395	13.936	954.849	721.950
129.410	14.007	953.932	721.501
130.424	14.137	953.297	721.520
131.439	14.187	952.190	720.833
132.454	14.204	951.499	720.320
133.468	14.175	950.925	719.698
134.483	14.277	949.863	719.272
135.497	14.112	949.402	718.144
136.512	14.025	948.807	717.257
137.527	14.074	947.961	716.765
138.541	14.105	947.199	716.259
139.556	14.186	946.522	716.029
140.570	14.262	946.078	715.958
141.585	14.341	945.279	715.632
142.600	14.404	944.065	714.919
143.614	14.503	943.196	714.623
144.629	14.363	942.497	713.430
145.643	14.371	941.678	712.780
146.658	14.318	940.284	711.437
147.673	14.166	939.473	710.113
148.687	14.323	938.581	710.043
149.702	14.121	938.041	708.711
150.716	14.149	937.223	708.149
151.731	14.201	936.625	707.854
152.746	14.326	935.997	707.848
153.760	14.177	935.361	706.672
154.775	14.368	934.537	706.798
155.789	14.379	934.104	706.455
156.804	14.504	933.181	706.225
157.819	14.339	933.062	705.375
158.833	14.482	932.274	705.320
159.848	14.646	931.049	705.025
160.862	14.431	930.386	703.551
161.877	14.441	929.565	702.910
162.892	14.307	928.587	701.545
163.906	14.187	927.582	700.219
164.921	14.268	926.925	700.001
165.935	14.392	925.975	699.742
166.950	14.391	925.188	699.082
167.964	14.456	924.936	699.104
168.979	14.410	923.750	697.951
169.994	14.486	922.569	697.316
171.008	14.575	922.182	697.331
172.023	14.523	921.581	696.598
173.037	14.615	920.617	696.193
174.052	14.499	920.381	695.470
175.067	14.395	919.508	694.315
176.081	14.243	919.222	693.402
177.096	14.407	918.526	693.499
178.110	14.483	917.506	692.983
179.125	14.394	917.270	692.375
180.140	14.472	916.647	692.167
181.154	14.445	916.544	691.915
182.169	14.424	916.032	691.382
183.183	14.590	915.028	691.253
184.198	14.634	914.088	690.663
185.213	14.622	913.504	690.109
186.227	14.680	912.713	689.690
187.242	14.762	912.602	689.886
188.256	14.791	911.532	689.132
189.271	14.768	910.811	688.433
190.286	14.604	909.741	686.890
191.300	14.294	909.711	685.530
192.315	14.412	908.958	685.385
193.329	14.356	908.134	684.475
194.344	14.359	908.198	684.473
195.359	14.499	907.046	684.121
196.373	14.712	906.338	684.399
197.388	14.818	905.807	684.370
198.402	14.922	905.777	684.715
199.417	14.886	904.950	683.882
200.432	14.827	904.823	683.484
201.446	14.938	904.037	683.282
202.461	15.118	903.625	683.646
203.475	14.952	903.011	682.443
204.490	14.967	902.139	681.783
205.504	14.790	901.421	680.459
206.519	14.841	900.717	680.076
207.534	14.781	900.118	679.322
208.548	14.998	898.856	679.188
209.563	14.899	898.729	678.631
210.577	14.956	897.995	678.247
211.592	15.028	897.253	677.920
212.607	15.154	896.492	677.795
213.621	14.970	895.919	676.558
214.636	14.945	895.353	675.970
215.650	15.014	894.611	675.625
216.665	15.246	893.410	675.594
217.680	15.207	892.993	675.064
218.694	15.234	892.647	674.851
219.709	15.262	891.831	674.288
220.723	15.160	891.284	673.402
221.738	15.101	890.768	672.716
222.753	15.121	890.236	672.335
223.767	15.195	889.547	672.054
224.782	15.411	888.420	672.008
225.796	15.281	888.460	671.456
226.811	15.272	887.539	670.664
227.826	15.232	887.001	670.042
228.840	15.164	886.128	669.051
229.855	15.216	885.072	668.401
230.869	15.078	884.955	667.701
231.884	15.110	884.173	667.179
232.899	15.243	883.402	667.068
233.913	15.149	882.267	665.781
234.928	15.080	881.845	665.128
235.942	15.137	881.493	665.030
236.957	15.276	880.526	664.793
237.972	15.070	880.731	664.073
238.986	15.172	879.478	663.472
240.001	15.237	879.052	663.350
241.015	15.237	878.431	662.824
242.030	15.186	878.159	662.356
243.045	15.385	876.990	662.202
244.059	15.287	876.706	661.545
245.074	15.355	876.109	661.301
246.088	15.452	875.622	661.257
247.103	15.366	874.940	660.345
248.117	15.600	874.357	660.767
249.132	15.632	873.994	660.558
250.147	15.745	873.376	660.480
251.161	15.654	872.815	659.637
252.176	15.705	871.901	659.088
253.190	15.903	871.176	659.259
254.205	15.697	871.021	658.277
255.220	15.913	870.082	658.352
256.234	15.809	869.435	657.400
257.249	15.895	868.867	657.248
258.263	15.790	868.604	656.579
259.278	15.939	867.411	656.202
260.293	15.962	866.941	655.879
261.307	15.970	866.616	655.605
262.322	15.957	865.667	654.776
263.336	16.167	864.805	654.882
264.351	15.967	864.401	653.742
265.366	16.126	863.757	653.817
266.380	16.001	863.023	652.717
267.395	15.946	862.580	652.111
268.409	16.058	861.773	651.877
269.424	16.157	860.634	651.341
270.439	16.022	859.951	650.244
271.453	15.830	859.953	649.449
272.468	15.915	859.112	649.081
273.482	16.058	858.728	649.285
274.497	15.917	858.340	648.393
275.512	16.086	857.763	648.548
276.526	15.985	857.290	647.744
277.541	16.108	856.648	647.677
278.555	16.047	855.987	646.884
279.570	16.251	855.425	647.185
280.585	16.268	854.804	646.724
281.599	16.111	853.646	645.188
282.614	15.977	853.608	644.592
283.628	15.995	852.976	644.124
284.643	16.051	852.217	643.709
285.657	16.170	851.461	643.535
286.672	16.205	850.790	643.105
287.687	16.117	850.503	642.495
288.701	16.110	850.010	642.039
289.716	16.236	849.041	641.732
290.730	16.273	848.528	641.427
291.745	16.320	848.369	641.427
292.760	16.314	847.906	640.999
293.774	16.293	847.091	640.247
294.789	16.254	846.232	639.391
295.803	16.458	845.465	639.528
296.818	16.108	845.307	638.029
297.833	16.300	843.918	637.648
298.847	16.299	843.556	637.316
299.862	16.199	843.544	636.871
300.876	16.467	842.850	637.300
301.891	16.451	841.974	636.524
302.906	16.582	841.379	636.508
303.920	16.649	840.955	636.383
304.935	16.707	840.130	635.922
305.949	16.602	839.958	635.342
306.964	16.581	839.654	634.975
307.979	16.689	838.605	634.531
308.993	16.721	838.180	634.274
310.008	16.586	837.536	633.225
311.022	16.636	836.909	632.881
312.037	16.619	836.208	632.231
313.052	16.558	835.580	631.473
314.066	16.345	835.698	630.710
315.081	16.484	834.774	630.475
316.095	16.519	834.163	630.088
317.110	16.566	833.562	629.754
318.125	16.558	832.958	629.212
319.139	16.531	832.775	628.919
320.154	16.651	832.183	628.863
321.168	16.693	831.591	628.514
322.183	16.617	831.159	627.852
323.197	16.629	830.504	627.344
324.212	16.578	830.687	627.237
325.227	16.589	829.641	626.435
326.241	16.612	828.881	625.888
327.256	16.605	828.469	625.496
328.270	16.652	827.955	625.227
329.285	16.565	827.262	624.327
330.300	16.677	826.594	624.183
331.314	16.610	826.266	623.631
332.329	16.784	825.686	623.780
333.343	16.737	825.688	623.552
334.358	16.814	824.736	623.063
335.373	16.785	824.721	622.889
336.387	16.748	824.868	622.808
337.402	16.807	824.145	622.423
338.416	17.048	823.466	622.740
339.431	16.887	823.422	622.060
340.446	16.953	822.942	621.885
341.460	16.957	822.771	621.716
342.475	16.958	822.327	621.330
343.489	17.062	821.856	621.300
344.504	17.182	821.377	621.320
345.519	17.158	820.673	620.647
346.533	17.179	820.393	620.455
347.548	16.989	819.922	619.351
348.562	16.952	819.412	618.777
349.577	16.913	818.556	617.935
350.592	16.958	817.849	617.508
351.606	16.996	817.091	617.020
352.621	16.920	816.317	616.106
353.635	17.006	815.884	616.036
354.650	17.020	815.131	615.465
355.665	17.159	814.831	615.687
356.679	17.254	814.128	615.443
357.694	17.137	813.440	614.446
358.708	17.069	813.187	613.956
359.723	17.018	812.545	613.232
360.738	17.161	811.682	613.042
361.752	17.124	811.556	612.761
362.767	17.417	810.605	613.044
363.781	17.532	809.853	612.834
364.796	17.451	809.795	612.445
365.810	17.536	809.375	612.377
366.825	17.403	809.353	611.829
367.840	17.447	808.672	611.419
368.854	17.359	808.460	610.886
369.869	17.493	807.933	610.915
370.883	17.702	807.230	611.080
371.898	17.595	806.697	610.239
372.913	17.420	806.894	609.707
373.927	17.493	806.072	609.293
374.942	17.510	805.667	608.994
375.956	17.566	805.210	608.793
376.971	17.675	804.936	608.923
377.986	17.773	804.209	608.670
379.000	17.839	803.400	608.237
380.015	17.811	803.217	607.947
381.029	17.804	802.577	607.384
382.044	17.700	802.340	606.778
383.059	17.739	801.966	606.583
384.073	17.583	801.104	605.323
385.088	17.726	800.378	605.229
386.102	17.680	799.720	604.513
387.117	17.619	799.183	603.837
388.132	17.581	799.064	603.559
389.146	17.729	798.561	603.650
390.161	17.754	797.918	603.201
391.175	17.815	797.502	603.047
392.190	17.717	796.706	602.044
393.205	17.601	796.730	601.602
394.219	17.618	796.249	601.245
395.234	17.601	795.979	600.927
396.248	17.633	795.243	600.430
397.263	17.580	794.878	599.917
398.278	17.491	794.488	599.255
399.292	17.723	793.592	599.344
400.307	17.760	793.025	598.992
401.321	17.654	793.287	598.764
402.336	17.667	792.615	598.248
403.350	17.697	792.370	598.117
404.365	17.887	792.029	598.472
405.380	18.013	791.072	598.138
406.394	17.996	790.766	597.795
407.409	18.026	790.522	597.659
408.423	17.980	790.444	597.389
409.438	18.110	789.760	597.274
410.453	18.111	789.327	596.895
411.467	18.173	788.657	596.551
412.482	18.286	788.287	596.613
413.496	18.247	788.117	596.297
414.511	18.156	787.628	595.558
415.526	18.295	786.979	595.497
416.540	18.251	786.817	595.169
417.555	18.222	785.974	594.379
418.569	18.195	785.594	593.945
419.584	18.235	785.655	594.075
420.599	18.266	785.223	593.804
421.613	157.438	1370.771	1797.205
422.628	136.047	1456.084	1797.285
