DTS Sentinel unit serial number:	SN413079Multiplexer serial number:	ORYXHardware model number:	OX4-SRSoftware version number:	ORYX F/W v4.00 Oryx Data Collector v3.7.2.0data status	okinstallation	princeton_trtdifferential loss correction	single-endedforward channel	channel 1reverse channel	N/Adate	2019/09/13time	16:26:35forward acquisition time	60.00reverse acquisition time	0.00gamma	496.2192k internal	0.2303k external	0.2303temperature offset calibration	1.0161default loss term (dB/km)	0.3790temperature slope calibration	1.0000multiplexer offset coefficient	1.0000multiplexer slope coefficient	1.0000fibre end	0.00T internal ref (°C)	35.02T ext. ref 1 (°C)	4.87T ext. ref 2 (°C)	30.97length (m)	temperature (°C)	Stokes	anti-Stokes-747.200	800.000	0.131	0.457
-746.185	-67.098	0.194	0.078
-745.171	753.918	-0.151	0.417
-744.156	-42.318	-0.610	0.317
-743.142	588.205	0.060	-0.150
-742.127	29.963	-0.226	0.197
-741.112	-46.692	-0.342	0.171
-740.098	118.289	0.089	0.112
-739.083	-115.970	0.037	0.007
-738.069	-200.000	-0.052	0.292
-737.054	10.293	0.073	-0.056
-736.039	15.678	-0.218	-0.175
-735.025	-200.000	-0.005	0.344
-734.010	55.863	-0.148	-0.146
-732.996	-135.418	-0.238	-0.029
-731.981	12.084	0.251	0.197
-730.966	-74.405	0.305	-0.112
-729.952	-125.332	-0.112	-0.017
-728.937	229.829	0.095	0.158
-727.923	-65.458	-0.275	0.112
-726.908	223.407	-0.108	0.177
-725.894	-73.433	0.158	0.059
-724.879	222.721	0.113	-0.186
-723.864	-46.179	-0.296	-0.148
-722.850	-108.619	-0.352	0.077
-721.835	-84.245	-0.453	0.146
-720.821	-69.532	-0.062	0.024
-719.806	171.153	-0.059	-0.086
-718.791	153.199	-0.060	-0.084
-717.777	129.852	0.049	-0.063
-716.762	800.000	-0.014	-0.053
-715.748	228.482	0.082	0.135
-714.733	-200.000	-0.004	0.021
-713.718	121.401	-0.194	0.246
-712.704	-200.000	-0.026	-0.255
-711.689	-35.387	-0.487	-0.269
-710.675	-81.819	-0.091	0.030
-709.660	499.426	-0.024	-0.056
-708.645	-148.287	-0.259	-0.022
-707.631	-19.896	0.195	0.123
-706.616	3.104	0.303	-0.224
-705.602	218.470	0.122	-0.198
-704.587	8.641	0.196	0.150
-703.572	-128.768	-0.115	-0.016
-702.558	-167.806	-0.029	0.001
-701.543	154.961	0.089	-0.124
-700.529	310.645	-0.221	0.420
-699.514	-17.956	-0.063	-0.040
-698.499	-53.753	0.111	0.051
-697.485	120.009	0.119	-0.150
-696.470	-18.769	-0.105	-0.066
-695.456	44.332	0.028	0.026
-694.441	-200.000	-0.072	-0.342
-693.426	-104.309	0.335	0.079
-692.412	262.018	-0.097	0.171
-691.397	-11.497	-0.189	0.127
-690.383	-132.455	-0.129	0.017
-689.368	-4.389	-0.384	-0.270
-688.354	-62.846	0.197	-0.083
-687.339	-47.913	-0.209	0.103
-686.324	207.633	-0.022	-0.035
-685.310	100.114	0.171	0.201
-684.295	800.000	0.029	0.090
-683.281	-200.000	0.005	0.144
-682.266	427.106	-0.098	0.215
-681.251	14.593	0.103	0.082
-680.237	800.000	0.016	0.069
-679.222	-200.000	-0.006	0.046
-678.208	598.895	0.050	0.127
-677.193	-3.417	0.240	0.170
-676.178	461.495	0.129	0.293
-675.164	-22.205	-0.056	0.035
-674.149	3.708	0.211	-0.156
-673.135	-161.925	0.187	-0.010
-672.120	80.111	0.193	0.211
-671.105	-51.947	-0.211	0.099
-670.091	16.362	-0.053	0.043
-669.076	19.334	-0.018	-0.015
-668.062	-102.670	-0.088	-0.021
-667.047	800.000	0.013	0.054
-666.032	-41.947	-0.111	-0.058
-665.018	-175.349	-0.222	-0.006
-664.003	-49.716	-0.392	-0.189
-662.989	-44.902	-0.202	0.102
-661.974	800.000	0.036	-0.120
-660.959	34.682	-0.166	0.148
-659.945	6.471	0.179	0.135
-658.930	800.000	-0.081	-0.286
-657.916	14.618	0.057	-0.046
-656.901	-33.176	0.427	-0.240
-655.886	-109.062	-0.144	-0.031
-654.872	-200.000	0.009	0.146
-653.857	152.214	0.100	-0.139
-652.843	-115.709	0.162	0.031
-651.828	154.681	-0.066	0.092
-650.814	-60.120	0.161	0.070
-649.799	58.246	0.268	-0.267
-648.784	-99.268	-0.207	0.053
-647.770	-200.000	0.017	-0.112
-646.755	800.000	0.035	0.104
-645.741	-4.564	-0.314	-0.220
-644.726	55.015	-0.127	0.124
-643.711	161.747	-0.305	0.433
-642.697	-42.150	0.337	0.175
-641.682	423.054	0.113	-0.246
-640.668	-141.252	0.204	-0.021
-639.653	788.892	0.018	-0.049
-638.638	-200.000	-0.049	0.310
-637.624	-123.305	-0.179	-0.029
-636.609	-200.000	-0.032	-0.262
-635.595	-99.975	-0.147	-0.037
-634.580	210.955	0.050	-0.080
-633.565	-76.346	-0.191	0.068
-632.551	-200.000	0.001	-0.241
-631.536	-200.000	0.018	0.125
-630.522	-26.866	-0.277	-0.164
-629.507	245.226	-0.068	-0.116
-628.492	206.722	0.095	0.150
-627.478	-149.413	0.249	-0.020
-626.463	-20.478	0.137	-0.085
-625.449	-40.900	-0.151	0.079
-624.434	18.303	0.236	0.191
-623.419	-101.594	0.219	-0.054
-622.405	800.000	0.062	-0.177
-621.390	734.050	0.037	-0.101
-620.376	-60.101	-0.170	-0.074
-619.361	-70.439	-0.290	0.111
-618.346	-200.000	0.027	0.572
-617.332	-96.574	-0.206	-0.055
-616.317	400.713	0.049	0.104
-615.303	517.859	0.165	0.391
-614.288	141.974	-0.207	-0.279
-613.273	-200.000	-0.007	-0.138
-612.259	318.772	-0.089	-0.171
-611.244	205.509	-0.062	-0.098
-610.230	100.627	-0.109	-0.129
-609.215	184.614	0.064	-0.096
-608.201	-77.941	-0.149	0.052
-607.186	-135.377	-0.075	0.009
-606.171	-67.840	-0.237	-0.094
-605.157	-167.874	-0.309	0.012
-604.142	-14.457	0.401	0.262
-603.128	-200.000	-0.031	-0.219
-602.113	-61.812	0.419	0.178
-601.098	65.575	-0.294	0.302
-600.084	227.852	0.181	0.298
-599.069	-91.975	0.200	-0.057
-598.055	-200.000	-0.018	-0.547
-597.040	-200.000	-0.057	-0.305
-596.025	155.715	-0.140	0.196
-595.011	0.962	0.222	0.161
-593.996	-200.000	-0.005	0.157
-592.982	-200.000	0.003	0.225
-591.967	-75.874	-0.273	-0.098
-590.952	52.508	-0.102	0.099
-589.938	245.123	-0.108	-0.185
-588.923	-200.000	-0.039	0.196
-587.909	438.360	0.143	-0.316
-586.894	62.372	-0.126	-0.127
-585.879	-32.458	-0.042	0.024
-584.865	90.691	0.079	0.090
-583.850	-58.473	-0.066	0.029
-582.836	77.757	0.211	-0.228
-581.821	78.945	0.200	-0.217
-580.806	8.343	-0.163	0.124
-579.792	17.550	0.131	-0.105
-578.777	5.187	-0.302	-0.225
-577.763	244.876	0.157	0.267
-576.748	-34.601	0.143	-0.079
-575.733	800.000	-0.059	-0.212
-574.719	299.659	0.030	0.056
-573.704	-130.207	-0.138	0.019
-572.690	800.000	0.033	-0.127
-571.675	698.126	0.093	-0.247
-570.661	-127.410	-0.193	-0.028
-569.646	15.410	-0.358	-0.284
-568.631	-138.175	0.144	-0.016
-567.617	87.495	-0.112	-0.125
-566.602	358.594	0.138	0.279
-565.588	85.932	0.158	0.176
-564.573	121.889	-0.166	0.209
-563.558	-200.000	0.055	0.274
-562.544	800.000	0.076	-0.278
-561.529	-20.388	0.196	-0.122
-560.515	-200.000	-0.007	0.263
-559.500	700.478	0.027	0.073
-558.485	-172.100	0.232	-0.008
-557.471	-173.278	0.319	0.010
-556.456	651.364	-0.073	0.190
-555.442	-200.000	0.058	0.270
-554.427	-32.796	0.229	-0.129
-553.412	-92.728	-0.326	-0.092
-552.398	-200.000	-0.025	-0.248
-551.383	-200.000	-0.010	0.086
-550.369	28.631	-0.303	-0.259
-549.354	52.252	-0.086	0.083
-548.339	-85.709	-0.208	0.065
-547.325	554.981	0.045	-0.109
-546.310	-122.573	0.141	-0.023
-545.296	103.539	0.103	0.122
-544.281	638.534	0.077	0.198
-543.266	800.000	-0.034	0.112
-542.252	169.352	-0.378	0.546
-541.237	701.628	0.056	0.150
-540.223	-14.204	-0.317	-0.206
-539.208	215.596	0.159	-0.254
-538.193	799.698	0.029	0.080
-537.179	-200.000	-0.048	0.279
-536.164	800.000	-0.024	-0.091
-535.150	-200.000	0.057	0.372
-534.135	-96.446	0.077	-0.020
-533.121	156.639	0.162	0.226
-532.106	800.000	0.070	0.267
-531.091	-200.000	0.060	-0.268
-530.077	-200.000	0.001	-0.463
-529.062	116.719	0.069	-0.085
-528.048	36.374	0.098	0.088
-527.033	173.895	-0.273	0.398
-526.018	92.373	-0.137	-0.156
-525.004	21.877	0.003	0.002
-523.989	128.013	-0.218	-0.280
-522.975	-41.002	-0.163	-0.085
-521.960	-200.000	0.048	-0.217
-520.945	466.936	0.036	0.083
-519.931	240.874	0.054	-0.092
-518.916	-120.332	0.227	-0.039
-517.902	297.121	-0.097	0.179
-516.887	-200.000	-0.014	-0.111
-515.872	8.532	-0.254	-0.193
-514.858	77.947	0.106	-0.115
-513.843	-200.000	-0.041	-0.259
-512.829	7.803	-0.077	-0.058
-511.814	497.314	-0.052	0.122
-510.799	800.000	0.080	-0.232
-509.785	-200.000	-0.063	0.384
-508.770	800.000	-0.056	0.168
-507.756	-80.643	0.086	0.029
-506.741	22.017	0.091	-0.075
-505.726	-43.932	-0.092	-0.047
-504.712	650.915	-0.078	-0.202
-503.697	-200.000	0.019	-0.250
-502.683	-200.000	0.049	-0.368
-501.668	569.270	0.049	-0.120
-500.653	59.874	-0.121	0.121
-499.639	-65.190	0.196	-0.080
-498.624	359.312	-0.105	-0.211
-497.610	-109.773	0.267	-0.057
-496.595	-151.878	-0.061	0.004
-495.581	199.338	-0.041	-0.064
-494.566	-200.000	0.028	0.263
-493.551	672.096	-0.147	0.384
-492.537	-70.692	-0.186	0.071
-491.522	78.526	-0.149	-0.161
-490.508	335.701	0.034	-0.066
-489.493	-200.000	0.014	-0.085
-488.478	-200.000	0.009	0.385
-487.464	488.056	0.058	0.133
-486.449	-200.000	-0.061	0.346
-485.435	11.325	-0.199	0.153
-484.420	800.000	-0.020	0.087
-483.405	-102.580	0.047	0.011
-482.391	-200.000	-0.018	0.218
-481.376	151.761	-0.141	0.193
-480.362	91.204	-0.087	-0.099
-479.347	-79.914	-0.059	-0.020
-478.332	-180.623	-0.112	-0.002
-477.318	13.223	-0.043	0.034
-476.303	132.090	0.157	-0.203
-475.289	-110.765	0.165	0.034
-474.274	23.428	-0.156	0.129
-473.259	-200.000	0.055	0.321
-472.245	-174.941	-0.233	0.007
-471.230	-132.648	0.203	0.026
-470.216	119.743	0.113	-0.141
-469.201	-161.839	0.235	-0.012
-468.186	-131.445	-0.439	0.058
-467.172	-22.326	-0.186	0.114
-466.157	-14.673	-0.439	-0.284
-465.143	169.804	-0.097	-0.140
-464.128	388.441	-0.105	-0.218
-463.113	91.284	0.261	-0.295
-462.099	-75.863	0.277	0.099
-461.084	-78.708	-0.188	-0.065
-460.070	-9.796	-0.139	0.093
-459.055	-29.232	-0.318	0.184
-458.040	8.681	0.139	-0.106
-457.026	-81.301	0.262	0.087
-456.011	-36.218	-0.391	0.212
-454.997	-74.809	-0.257	0.093
-453.982	16.972	-0.392	0.313
-452.968	-200.000	-0.021	0.250
-451.953	800.000	-0.075	0.257
-450.938	-200.000	-0.002	-0.043
-449.924	-200.000	0.024	-0.177
-448.909	-110.077	0.089	-0.019
-447.895	104.964	-0.074	0.088
-446.880	-76.515	-0.348	-0.123
-445.865	-112.480	-0.147	0.030
-444.851	-115.573	0.134	-0.025
-443.836	-200.000	-0.002	0.211
-442.822	61.123	0.052	-0.052
-441.807	-57.595	0.072	0.032
-440.792	800.000	0.045	-0.135
-439.778	-36.862	-0.183	-0.099
-438.763	196.461	0.152	0.233
-437.749	44.017	-0.144	0.133
-436.734	338.065	-0.070	0.138
-435.719	-44.453	-0.226	-0.114
-434.705	-49.837	0.200	0.096
-433.690	-200.000	-0.068	-0.383
-432.676	535.809	-0.081	-0.194
-431.661	-108.356	-0.249	-0.054
-430.646	-20.882	-0.016	-0.010
-429.632	-164.342	-0.199	-0.009
-428.617	-200.000	0.003	-0.171
-427.603	-200.000	-0.008	-0.096
-426.588	-200.000	0.014	-0.082
-425.573	-119.643	0.343	0.060
-424.559	-200.000	-0.011	-0.098
-423.544	17.182	0.098	0.078
-422.530	67.654	-0.429	-0.441
-421.515	-200.000	0.053	0.313
-420.500	-21.877	-0.274	0.167
-419.486	92.311	0.047	0.053
-418.471	-200.000	-0.034	0.181
-417.457	191.060	0.145	-0.220
-416.442	-84.008	0.039	-0.013
-415.428	-190.861	0.318	-0.003
-414.413	-126.256	0.266	-0.040
-413.398	72.461	0.216	0.226
-412.384	182.364	0.223	0.330
-411.369	800.000	-0.063	-0.214
-410.355	-125.224	0.307	-0.047
-409.340	345.910	0.141	0.279
-408.325	41.948	-0.105	0.095
-407.311	198.829	-0.131	-0.202
-406.296	-173.737	-0.090	-0.003
-405.282	71.989	0.080	-0.084
-404.267	-85.469	0.114	0.036
-403.252	-97.264	-0.118	0.031
-402.238	431.169	0.130	-0.284
-401.223	-200.000	0.030	-0.212
-400.209	430.708	0.141	-0.307
-399.194	206.187	-0.096	-0.150
-398.179	120.164	0.250	0.311
-397.165	21.965	0.140	0.115
-396.150	309.321	-0.128	0.240
-395.136	84.745	-0.167	-0.184
-394.121	159.395	-0.235	0.328
-393.106	11.259	-0.154	0.119
-392.092	-61.962	0.142	0.060
-391.077	-40.930	0.154	0.080
-390.063	800.000	0.016	-0.063
-389.048	800.000	-0.049	-0.197
-388.033	521.728	-0.114	-0.268
-387.019	89.097	-0.234	-0.262
-386.004	161.287	-0.056	0.079
-384.990	18.681	0.081	0.065
-383.975	126.567	-0.148	0.189
-382.960	-200.000	-0.002	0.220
-381.946	139.810	-0.033	0.043
-380.931	800.000	0.042	-0.126
-379.917	-200.000	0.076	0.389
-378.902	-10.671	0.150	0.099
-377.888	23.400	-0.229	-0.189
-376.873	-126.673	0.347	-0.052
-375.858	-200.000	-0.063	-0.316
-374.844	48.433	-0.088	-0.083
-373.829	-96.560	0.068	0.018
-372.815	-109.208	0.093	0.020
-371.800	71.878	-0.065	-0.068
-370.785	372.886	-0.078	-0.158
-369.771	198.184	-0.092	0.141
-368.756	-43.380	-0.300	-0.152
-367.742	-143.653	0.137	0.013
-366.727	5.830	-0.248	-0.184
-365.712	-82.901	-0.431	-0.140
-364.698	-91.373	-0.371	-0.106
-363.683	-200.000	0.069	-0.334
-362.669	118.563	-0.004	-0.005
-361.654	-200.000	-0.014	-0.102
-360.639	87.322	0.090	-0.100
-359.625	223.992	0.116	0.189
-358.610	-7.647	0.125	-0.085
-357.596	328.841	0.077	0.149
-356.581	800.000	0.032	0.096
-355.566	800.000	0.079	0.266
-354.552	505.320	-0.072	0.168
-353.537	-200.000	0.035	0.223
-352.523	-200.000	-0.012	0.100
-351.508	-140.279	0.262	-0.027
-350.493	-137.726	0.092	-0.010
-349.479	-72.560	-0.117	0.043
-348.464	-3.641	-0.124	-0.087
-347.450	-113.466	-0.215	-0.042
-346.435	58.003	-0.087	-0.086
-345.420	-54.384	0.159	-0.072
-344.406	-200.000	0.037	0.277
-343.391	100.590	-0.169	0.197
-342.377	-47.077	0.224	0.110
-341.362	-21.169	0.143	-0.088
-340.348	120.383	0.171	-0.212
-339.333	85.755	0.344	-0.380
-338.318	-144.822	-0.225	0.021
-337.304	-200.000	0.016	0.275
-336.289	-200.000	-0.021	0.231
-335.275	-200.000	0.014	-0.181
-334.260	-200.000	-0.008	-0.071
-333.245	-200.000	0.037	-0.328
-332.231	-57.318	0.287	-0.127
-331.216	115.361	0.040	-0.049
-330.202	-100.905	-0.172	0.042
-329.187	-137.735	-0.038	0.004
-328.172	-0.764	0.102	-0.073
-327.158	-9.449	0.064	-0.043
-326.143	331.871	-0.167	-0.324
-325.129	-69.676	0.184	0.070
-324.114	7.806	0.268	0.201
-323.099	149.951	-0.159	0.216
-322.085	32.947	-0.131	-0.114
-321.070	-200.000	-0.016	0.281
-320.056	5.617	-0.211	-0.156
-319.041	19.895	0.111	0.090
-318.026	39.342	-0.126	-0.113
-317.012	-53.533	-0.196	0.090
-315.997	800.000	0.040	0.173
-314.983	437.010	0.069	-0.150
-313.968	800.000	0.072	0.223
-312.953	-200.000	-0.060	-0.286
-311.939	34.599	0.199	-0.174
-310.924	209.905	-0.157	-0.247
-309.910	142.790	-0.197	0.262
-308.895	797.862	0.025	0.068
-307.880	-43.917	0.332	-0.167
-306.866	124.726	0.015	-0.019
-305.851	156.394	-0.104	0.144
-304.837	-25.386	0.106	-0.063
-303.822	800.000	0.030	-0.103
-302.807	23.982	-0.318	0.262
-301.793	85.052	-0.212	0.233
-300.778	800.000	0.010	0.030
-299.764	-200.000	0.009	-0.232
-298.749	-140.543	0.107	0.011
-297.735	800.000	-0.030	0.118
-296.720	484.373	0.120	0.274
-295.705	15.809	0.202	0.159
-294.691	-25.322	0.184	0.109
-293.676	-200.000	0.020	0.129
-292.662	94.556	0.174	-0.197
-291.647	800.000	-0.021	0.077
-290.632	514.824	0.224	-0.524
-289.618	588.897	0.103	0.255
-288.603	-53.978	0.160	0.073
-287.589	-83.268	-0.199	-0.064
-286.574	25.746	-0.193	-0.161
-285.559	-11.220	0.032	0.021
-284.545	-200.000	0.039	0.551
-283.530	-200.000	-0.040	-0.295
-282.516	-200.000	0.021	0.275
-281.501	-2.905	-0.204	-0.142
-280.486	-200.000	-0.014	-0.187
-279.472	113.455	0.229	0.279
-278.457	7.332	-0.334	-0.250
-277.443	-200.000	0.048	0.290
-276.428	800.000	-0.048	0.148
-275.413	339.107	-0.124	-0.241
-274.399	800.000	0.129	-0.458
-273.384	28.358	-0.144	0.121
-272.370	-37.858	0.174	0.092
-271.355	-94.494	0.277	0.076
-270.340	-161.807	0.470	0.024
-269.326	795.120	0.041	-0.112
-268.311	800.000	0.105	0.421
-267.297	-61.743	0.178	0.075
-266.282	219.373	-0.177	-0.283
-265.267	-133.970	-0.222	0.027
-264.253	104.791	0.208	0.246
-263.238	156.011	0.118	-0.163
-262.224	247.694	0.238	0.402
-261.209	128.597	0.135	0.172
-260.195	-103.929	0.195	-0.046
-259.180	41.684	0.107	-0.097
-258.165	451.594	0.089	-0.196
-257.151	360.071	-0.140	-0.280
-256.136	-88.856	0.369	-0.110
-255.122	-150.041	0.217	-0.017
-254.107	800.000	-0.055	0.235
-253.092	-114.366	0.262	0.050
-252.078	-117.169	-0.406	0.074
-251.063	668.982	-0.063	-0.162
-250.049	-107.802	0.186	-0.041
-249.034	-113.428	0.285	-0.056
-248.019	-47.000	-0.184	0.090
-247.005	235.203	0.043	0.071
-245.990	239.835	0.096	0.161
-244.976	800.000	0.124	0.372
-243.961	530.128	-0.076	0.179
-242.946	319.384	-0.056	-0.106
-241.932	-200.000	0.001	-0.206
-240.917	800.000	0.019	-0.059
-239.903	-68.138	0.334	0.130
-238.888	-200.000	0.009	-0.110
-237.873	800.000	0.131	0.418
-236.859	-97.436	0.179	0.047
-235.844	-200.000	0.031	-0.153
-234.830	-200.000	0.046	-0.279
-233.815	71.214	0.111	0.115
-232.800	-200.000	0.020	0.278
-231.786	-200.000	-0.064	0.527
-230.771	-132.048	0.255	-0.033
-229.757	214.717	-0.333	-0.527
-228.742	-200.000	-0.004	0.332
-227.727	449.395	0.125	0.275
-226.713	-200.000	-0.014	-0.153
-225.698	-24.243	-0.182	-0.109
-224.684	-160.053	0.358	0.019
-223.669	91.398	0.029	-0.033
-222.655	602.935	-0.195	0.483
-221.640	15.561	0.051	0.040
-220.625	-23.468	0.183	-0.109
-219.611	-200.000	-0.016	-0.137
-218.596	355.069	-0.154	-0.306
-217.582	160.515	-0.196	-0.273
-216.567	692.745	-0.048	-0.126
-215.552	98.718	0.153	-0.176
-214.538	108.638	-0.263	0.313
-213.523	-21.152	0.107	-0.065
-212.509	-69.192	0.294	0.113
-211.494	-70.574	0.310	0.117
-210.479	350.657	-0.115	-0.226
-209.465	800.000	0.062	-0.179
-208.450	192.840	-0.187	-0.281
-207.436	58.871	0.108	-0.106
-206.421	-187.580	-0.131	-0.002
-205.406	-92.392	-0.332	-0.093
-204.392	18.150	-0.255	-0.203
-203.377	-200.000	-0.028	-0.125
-202.363	5.997	0.172	0.127
-201.348	800.000	0.051	0.181
-200.333	-200.000	-0.029	0.138
-199.319	-81.908	-0.066	-0.022
-198.304	-97.885	0.155	0.040
-197.290	38.310	0.331	0.294
-196.275	-125.607	-0.130	-0.020
-195.260	34.069	0.258	-0.224
-194.246	100.045	-0.182	0.210
-193.231	65.266	0.089	-0.090
-192.217	-36.524	-0.149	-0.080
-191.202	87.582	-0.113	-0.125
-190.187	46.718	0.333	0.309
-189.173	408.443	0.218	0.460
-188.158	-200.000	0.005	-0.039
-187.144	-200.000	0.048	-0.258
-186.129	-200.000	-0.032	0.143
-185.114	61.561	0.076	0.076
-184.100	-124.701	-0.062	-0.010
-183.085	-22.743	-0.261	0.157
-182.071	-44.301	-0.076	0.038
-181.056	-20.896	0.141	-0.086
-180.042	134.000	-0.090	-0.116
-179.027	206.021	0.153	0.237
-178.012	54.416	0.119	-0.114
-176.998	-78.796	0.016	-0.006
-175.983	-10.475	0.330	0.218
-174.969	14.704	0.028	-0.022
-173.954	55.808	-0.099	0.096
-172.939	-125.886	-0.153	-0.023
-171.925	-96.670	0.244	-0.064
-170.910	69.975	-0.108	-0.111
-169.896	-83.374	0.237	-0.076
-168.881	18.055	-0.175	-0.139
-167.866	-25.512	-0.103	-0.060
-166.852	2.148	-0.105	0.075
-165.837	165.003	0.106	0.149
-164.823	-61.128	0.094	0.040
-163.808	67.234	-0.243	-0.246
-162.793	800.000	-0.080	-0.268
-161.779	-106.295	0.325	-0.073
-160.764	-200.000	-0.028	-0.414
-159.750	42.785	0.213	-0.193
-158.735	800.000	0.072	-0.232
-157.720	457.499	0.073	0.162
-156.706	262.306	0.121	0.210
-155.691	-73.279	0.160	0.058
-154.677	-200.000	-0.026	0.288
-153.662	480.719	-0.233	-0.527
-152.647	80.227	-0.351	-0.376
-151.633	151.229	-0.186	-0.252
-150.618	-14.234	-0.213	0.137
-149.604	-78.064	0.218	-0.075
-148.589	45.921	0.242	-0.223
-147.574	214.157	0.052	0.083
-146.560	-79.555	-0.163	0.055
-145.545	800.000	-0.044	-0.142
-144.531	-71.733	0.249	0.092
-143.516	-169.313	-0.104	-0.004
-142.502	23.156	-0.143	0.116
-141.487	172.891	-0.205	-0.293
-140.472	0.553	0.545	0.388
-139.458	-200.000	0.019	0.156
-138.443	-200.000	-0.013	0.212
-137.429	-143.998	0.271	-0.025
-136.414	-142.094	-0.165	-0.016
-135.399	785.832	-0.045	-0.122
-134.385	-200.000	0.027	0.136
-133.370	114.143	0.152	0.184
-132.356	800.000	0.053	0.161
-131.341	48.481	0.398	0.371
-130.326	67.692	0.098	0.099
-129.312	27.052	0.108	0.090
-128.297	800.000	0.060	-0.187
-127.283	171.804	0.075	-0.107
-126.268	-158.237	0.386	0.022
-125.253	800.000	-0.091	0.302
-124.239	83.100	0.050	-0.055
-123.224	-200.000	-0.014	-0.312
-122.210	-92.222	-0.166	0.047
-121.195	-200.000	-0.050	0.326
-120.180	78.074	-0.240	0.255
-119.166	120.871	-0.057	0.070
-118.151	21.645	-0.114	0.092
-117.137	463.700	0.121	-0.270
-116.122	-200.000	-0.046	-0.251
-115.107	74.937	-0.234	0.245
-114.093	-108.598	0.027	0.006
-113.078	-182.481	0.119	-0.002
-112.064	54.189	-0.278	0.266
-111.049	800.000	-0.062	0.207
-110.034	800.000	-0.085	0.259
-109.020	2.127	-0.190	0.136
-108.005	-87.803	0.312	0.093
-106.991	-83.973	-0.158	0.050
-105.976	316.061	0.077	-0.144
-104.962	49.737	-0.106	-0.099
-103.947	-82.057	0.193	-0.063
-102.932	105.398	0.133	0.156
-101.918	-200.000	-0.025	-0.127
-100.903	-56.663	0.179	-0.079
-99.889	800.000	-0.083	-0.277
-98.874	-200.000	0.007	0.102
-97.859	-200.000	0.001	-0.022
-96.845	-14.824	-0.252	0.160
-95.830	73.666	-0.205	-0.214
-94.816	404.639	0.090	-0.188
-93.801	800.000	0.066	0.182
-92.786	-4.785	0.154	-0.105
-91.772	-200.000	-0.037	0.291
-90.757	96.697	-0.153	0.175
-89.743	23.530	0.215	-0.176
-88.728	17.485	-0.219	-0.173
-87.713	-83.590	0.102	-0.033
-86.699	-4.915	0.203	-0.139
-85.684	800.000	0.014	-0.040
-84.670	-79.401	-0.249	-0.083
-83.655	118.326	0.145	-0.178
-82.640	280.692	-0.045	-0.081
-81.626	800.000	0.060	-0.188
-80.611	-200.000	0.005	-0.083
-79.597	246.961	-0.178	0.297
-78.582	-111.760	-0.290	0.058
-77.567	-200.000	0.019	0.105
-76.553	-86.323	-0.301	-0.092
-75.538	-110.471	-0.094	-0.019
-74.524	22.902	0.055	0.045
-73.509	-100.502	-0.160	-0.039
-72.494	-38.263	0.399	0.210
-71.480	85.260	-0.229	0.249
-70.465	-71.015	0.267	-0.100
-69.451	-67.615	0.217	0.084
-68.436	787.181	0.078	-0.214
-67.422	-200.000	0.019	-0.136
-66.407	-115.326	0.240	-0.045
-65.392	-72.308	0.096	0.035
-64.378	355.568	0.189	-0.373
-63.363	23.732	-0.169	0.138
-62.349	-200.000	0.043	0.514
-61.334	47.783	-0.841	-0.779
-60.319	21.444	0.673	0.543
-59.305	-200.000	-0.148	-0.729
-58.290	-200.000	0.025	0.867
-57.276	690.194	0.546	1.418
-56.261	-200.000	94.962	562.646
-55.246	641.344	1377.666	3479.266
-54.232	187.272	2594.563	3836.947
-53.217	123.594	2186.395	2719.624
-52.203	46.882	1639.466	1510.994
-51.188	38.692	1373.547	1215.352
-50.173	35.179	1331.259	1156.725
-49.159	55.995	1379.700	1327.205
-48.144	60.446	1398.092	1372.169
-47.130	38.763	1352.513	1196.982
-46.115	35.190	1334.180	1159.145
-45.100	34.916	1329.979	1153.797
-44.086	34.968	1327.090	1151.557
-43.071	34.781	1325.325	1148.856
-42.057	34.766	1322.873	1146.593
-41.042	34.949	1320.810	1145.855
-40.027	34.969	1319.680	1144.953
-39.013	34.940	1317.440	1142.785
-37.998	34.963	1315.579	1141.263
-36.984	35.065	1313.936	1140.406
-35.969	35.031	1312.271	1138.708
-34.954	35.079	1310.691	1137.579
-33.940	35.076	1309.180	1136.204
-32.925	35.041	1308.020	1134.945
-31.911	35.066	1306.484	1133.715
-30.896	35.162	1304.764	1132.746
-29.881	35.071	1303.287	1130.882
-28.867	35.202	1302.333	1130.784
-27.852	35.235	1300.404	1129.257
-26.838	35.151	1299.118	1127.601
-25.823	35.080	1298.204	1126.348
-24.809	35.098	1296.397	1124.836
-23.794	35.052	1295.221	1123.504
-22.779	35.115	1293.713	1122.518
-21.765	35.060	1292.401	1121.013
-20.750	35.000	1291.738	1120.043
-19.736	35.103	1289.767	1118.890
-18.721	35.063	1288.240	1117.290
-17.706	34.911	1287.552	1115.763
-16.692	34.927	1286.378	1114.793
-15.677	34.972	1285.352	1114.120
-14.663	34.938	1283.947	1112.660
-13.648	34.989	1282.562	1111.713
-12.633	34.942	1281.930	1110.852
-11.619	34.915	1281.075	1109.908
-10.604	34.869	1280.299	1108.927
-9.590	34.896	1279.700	1108.520
-8.575	34.995	1278.189	1107.740
-7.560	34.891	1277.601	1106.585
-6.546	35.009	1276.959	1106.667
-5.531	34.860	1275.817	1104.768
-4.517	34.885	1275.114	1104.262
-3.502	34.977	1273.863	1103.664
-2.487	34.904	1272.972	1102.429
-1.473	34.835	1269.537	1099.012
-0.458	33.677	1254.159	1079.079
0.556	31.883	1234.562	1036.992
1.571	27.189	1237.920	1013.619
2.586	25.564	1251.714	1015.655
3.600	23.906	1239.374	996.275
4.615	18.123	1166.847	907.295
5.629	9.479	1090.429	804.758
6.644	5.249	1068.819	767.977
7.659	4.855	1066.317	764.175
8.673	4.692	1064.650	762.118
9.688	4.675	1063.526	761.161
10.702	5.245	1062.924	763.447
11.717	10.908	1070.075	796.316
12.731	18.839	1081.084	843.530
13.746	21.994	1084.924	861.970
14.761	21.651	1084.321	859.728
15.775	20.804	1081.790	853.496
16.790	19.859	1079.558	847.034
17.804	19.054	1078.914	842.514
18.819	18.814	1077.090	839.842
19.834	18.671	1076.818	838.857
20.848	18.514	1075.756	837.192
21.863	18.256	1075.115	835.360
22.877	18.167	1074.391	834.286
23.892	18.067	1073.856	833.309
24.907	18.057	1072.785	832.355
25.921	18.074	1072.131	831.856
26.936	18.157	1070.327	830.790
27.950	18.216	1069.227	830.146
28.965	18.301	1067.826	829.397
29.980	18.504	1065.940	828.844
30.994	18.540	1064.904	828.138
32.009	18.487	1064.353	827.379
33.023	18.503	1062.948	826.293
34.038	18.386	1062.090	824.987
35.053	18.238	1061.760	823.944
36.067	18.378	1059.775	823.005
37.082	18.320	1059.521	822.456
38.096	18.415	1058.875	822.340
39.111	18.373	1058.179	821.522
40.126	18.272	1056.651	819.783
41.140	17.909	1055.629	817.179
42.155	17.837	1054.151	815.618
43.169	17.744	1053.207	814.370
44.184	17.651	1052.200	813.078
45.199	17.729	1051.271	812.661
46.213	18.112	1049.607	813.124
47.228	18.206	1049.394	813.332
48.242	18.427	1048.164	813.356
49.257	18.185	1047.630	811.722
50.271	18.336	1046.075	811.161
51.286	18.343	1046.016	811.077
52.301	18.245	1044.825	809.615
53.315	18.187	1043.607	808.329
54.330	18.025	1042.342	806.511
55.344	18.096	1041.763	806.328
56.359	18.053	1040.802	805.309
57.374	17.954	1040.102	804.232
58.388	17.991	1038.923	803.422
59.403	17.762	1038.513	801.955
60.417	17.873	1037.576	801.683
61.432	17.885	1036.456	800.804
62.447	17.645	1035.913	799.189
63.461	17.683	1034.846	798.472
64.476	17.582	1034.466	797.636
65.490	17.557	1033.441	796.658
66.505	17.789	1032.330	796.816
67.520	17.812	1031.935	796.544
68.534	17.749	1031.075	795.518
69.549	17.730	1030.416	794.853
70.563	17.647	1029.406	793.617
71.578	17.541	1028.699	792.506
72.593	17.481	1027.859	791.511
73.607	17.435	1027.185	790.706
74.622	17.487	1026.806	790.586
75.636	17.641	1025.915	790.546
76.651	17.501	1025.758	789.703
77.666	17.670	1024.450	789.412
78.680	17.608	1023.914	788.642
79.695	17.693	1023.136	788.365
80.709	17.818	1022.721	788.552
81.724	17.865	1022.102	788.222
82.739	17.885	1021.784	788.002
83.753	18.078	1021.118	788.307
84.768	18.399	1020.432	789.189
85.782	18.525	1019.459	788.947
86.797	18.388	1018.494	787.501
87.812	18.143	1017.394	785.454
88.826	18.367	1016.253	785.529
89.841	18.385	1015.402	784.886
90.855	18.605	1014.366	785.023
91.870	18.371	1014.082	783.662
92.884	18.495	1013.071	783.378
93.899	18.472	1012.072	782.433
94.914	18.533	1011.574	782.256
95.928	18.536	1010.512	781.377
96.943	18.519	1009.278	780.280
97.957	18.349	1009.020	779.235
98.972	18.458	1007.570	778.545
99.987	18.452	1007.129	778.105
101.001	18.463	1006.114	777.302
102.016	18.375	1005.489	776.353
103.030	18.434	1004.440	775.742
104.045	18.365	1003.945	774.977
105.060	18.190	1002.806	773.240
106.074	17.985	1002.102	771.703
107.089	17.852	1000.708	769.960
108.103	17.874	999.337	768.937
109.118	17.909	998.463	768.354
110.133	17.800	997.625	767.148
111.147	17.779	996.661	766.246
112.162	17.771	995.962	765.607
113.176	17.970	995.656	766.194
114.191	18.116	994.479	765.878
115.206	18.022	993.774	764.843
116.220	17.889	992.939	763.540
117.235	17.826	992.441	762.806
118.249	17.874	991.190	761.991
119.264	17.800	990.408	760.995
120.279	17.695	989.756	759.956
121.293	17.767	988.650	759.360
122.308	17.695	987.709	758.253
123.322	17.650	986.603	757.134
124.337	17.574	985.770	756.090
125.352	17.595	984.808	755.382
126.366	17.607	983.608	754.445
127.381	17.578	982.453	753.363
128.395	17.673	981.917	753.307
129.410	17.678	981.310	752.797
130.424	17.797	980.510	752.640
131.439	17.864	979.920	752.417
132.454	18.063	978.573	752.195
133.468	17.988	977.857	751.246
134.483	18.016	977.243	750.829
135.497	17.973	976.076	749.680
136.512	18.011	975.522	749.354
137.527	17.909	974.841	748.320
138.541	18.104	974.051	748.497
139.556	18.147	973.303	748.045
140.570	18.286	973.069	748.410
141.585	18.475	972.009	748.352
142.600	18.515	970.790	747.520
143.614	18.473	970.179	746.801
144.629	18.676	969.261	746.911
145.643	18.536	968.309	745.506
146.658	18.283	967.147	743.447
147.673	18.242	966.101	742.398
148.687	18.152	965.173	741.229
149.702	18.039	964.472	740.134
150.716	17.928	963.906	739.155
151.731	18.087	963.229	739.257
152.746	18.067	962.437	738.499
153.760	18.005	962.007	737.836
154.775	18.154	961.568	738.078
155.789	18.348	960.446	737.984
156.804	18.285	960.323	737.555
157.819	18.320	959.771	737.217
158.833	18.501	958.673	737.085
159.848	18.575	958.197	736.973
160.862	18.400	956.900	735.159
161.877	18.223	956.036	733.671
162.892	17.984	954.824	731.652
163.906	18.131	953.563	731.249
164.921	17.994	953.332	730.422
165.935	18.169	952.173	730.217
166.950	18.223	951.236	729.665
167.964	18.251	950.132	728.874
168.979	18.123	949.407	727.706
169.994	18.143	948.519	727.045
171.008	18.205	948.360	727.125
172.023	18.383	947.597	727.232
173.037	18.556	946.850	727.328
174.052	18.342	946.189	725.849
175.067	18.131	945.527	724.382
176.081	18.073	944.568	723.336
177.096	18.060	944.521	723.184
178.110	18.059	943.955	722.682
179.125	18.057	943.035	721.904
180.140	18.209	942.747	722.264
181.154	18.296	942.303	722.225
182.169	18.488	941.623	722.448
183.183	18.543	941.081	722.202
184.198	18.685	940.202	722.058
185.213	18.462	939.557	720.563
186.227	18.750	938.432	720.845
187.242	18.616	938.290	720.109
188.256	18.841	937.736	720.564
189.271	18.758	936.833	719.459
190.286	18.382	935.701	716.952
191.300	18.017	935.058	714.871
192.315	17.945	934.352	713.964
193.329	18.052	933.672	713.833
194.344	18.252	933.203	714.245
195.359	18.261	932.699	713.834
196.373	18.466	931.902	714.014
197.388	18.624	931.546	714.336
198.402	18.845	931.088	714.842
199.417	18.744	930.707	714.065
200.432	18.950	930.452	714.664
201.446	19.102	929.609	714.584
202.461	19.100	929.401	714.353
203.475	19.079	928.402	713.435
204.490	18.791	927.514	711.494
205.504	18.703	926.404	710.219
206.519	18.699	925.996	709.823
207.534	18.613	925.102	708.720
208.548	18.641	924.638	708.420
209.563	18.675	924.058	708.053
210.577	18.854	922.991	707.910
211.592	19.094	922.629	708.557
212.607	19.096	921.890	707.934
213.621	18.931	921.157	706.633
214.636	18.807	920.732	705.735
215.650	18.766	920.140	705.047
216.665	19.126	918.876	705.495
217.680	19.121	918.338	704.998
218.694	19.233	917.664	704.874
219.709	19.053	917.268	703.773
220.723	19.002	916.627	703.008
221.738	19.038	915.817	702.475
222.753	19.026	915.234	701.916
223.767	19.168	914.740	702.052
224.782	19.265	914.473	702.181
225.796	19.270	914.046	701.811
226.811	19.219	912.842	700.619
227.826	19.113	911.711	699.256
228.840	18.923	911.624	698.359
229.855	19.064	910.432	697.956
230.869	19.061	909.862	697.444
231.884	18.914	909.021	696.142
232.899	18.763	908.702	695.224
233.913	18.784	907.585	694.393
234.928	18.841	906.820	693.975
235.942	18.768	906.299	693.222
236.957	18.746	905.669	692.591
237.972	18.834	905.225	692.543
238.986	18.832	904.901	692.228
240.001	18.710	904.203	691.142
241.015	18.851	903.568	691.160
242.030	18.912	903.276	691.123
243.045	19.047	902.201	690.778
244.059	19.026	901.638	690.203
245.074	19.115	900.838	689.886
246.088	19.230	900.273	689.856
247.103	19.388	899.786	690.054
248.117	19.515	899.375	690.182
249.132	19.484	899.381	690.004
250.147	19.791	898.902	690.800
251.161	19.710	898.284	689.943
252.176	19.792	897.355	689.496
253.190	19.803	896.963	689.177
254.205	19.922	895.985	688.837
255.220	19.864	895.298	688.019
256.234	19.887	894.841	687.698
257.249	19.711	894.056	686.335
258.263	19.766	893.243	685.865
259.278	19.818	892.617	685.531
260.293	19.989	891.956	685.640
261.307	20.002	891.642	685.392
262.322	20.031	891.058	684.993
263.336	20.146	889.924	684.518
264.351	20.029	889.754	683.864
265.366	20.119	888.717	683.362
266.380	20.084	887.966	682.585
267.395	19.905	887.334	681.336
268.409	19.987	886.427	680.900
269.424	19.908	885.675	679.953
270.439	19.814	885.196	679.155
271.453	19.825	884.263	678.424
272.468	19.812	884.070	678.163
273.482	19.848	883.262	677.625
274.497	19.919	882.621	677.350
275.512	19.787	882.129	676.396
276.526	19.678	882.301	676.044
277.541	19.844	881.403	675.943
278.555	20.080	880.953	676.461
279.570	20.316	879.675	676.340
280.585	20.168	879.419	675.506
281.599	19.954	878.621	674.001
282.614	19.983	877.873	673.480
283.628	19.871	877.083	672.378
284.643	19.897	876.816	672.215
285.657	20.020	875.942	671.963
286.672	20.024	875.095	671.269
287.687	19.845	875.267	670.649
288.701	19.966	874.509	670.476
289.716	20.046	873.455	669.917
290.730	20.146	873.073	669.952
291.745	20.126	872.444	669.333
292.760	20.218	871.762	669.106
293.774	20.253	871.437	668.932
294.789	20.296	870.737	668.502
295.803	19.911	870.333	666.650
296.818	20.042	869.286	666.291
297.833	19.990	868.704	665.586
298.847	20.068	867.880	665.197
299.862	20.147	867.229	664.943
300.876	20.203	866.989	664.914
301.891	20.325	866.298	664.791
302.906	20.370	866.043	664.709
303.920	20.533	865.781	665.071
304.935	20.735	864.784	665.020
305.949	20.573	863.980	663.727
306.964	20.435	863.485	662.758
307.979	20.439	863.117	662.435
308.993	20.620	862.390	662.508
310.008	20.647	861.817	662.111
311.022	20.302	861.584	660.561
312.037	20.380	860.405	659.895
313.052	20.286	859.618	658.873
314.066	20.229	859.157	658.248
315.081	20.257	858.670	657.920
316.095	20.190	858.132	657.197
317.110	20.081	857.643	656.351
318.125	20.171	857.417	656.463
319.139	20.186	856.498	655.759
320.154	20.123	856.208	655.237
321.168	20.303	855.430	655.267
322.183	20.201	855.339	654.754
323.197	20.357	854.726	654.815
324.212	20.375	854.174	654.401
325.227	20.087	854.036	653.154
326.241	20.276	852.857	652.905
327.256	20.259	852.150	652.241
328.270	20.305	851.682	651.999
329.285	20.145	851.422	651.140
330.300	20.205	850.494	650.597
331.314	20.283	849.943	650.410
332.329	20.465	849.769	650.902
333.343	20.467	849.395	650.566
334.358	20.416	848.800	649.863
335.373	20.446	848.788	649.907
336.387	20.538	848.523	649.991
337.402	20.630	848.384	650.171
338.416	20.773	848.032	650.378
339.431	20.870	847.311	650.131
340.446	20.894	847.158	650.044
341.460	20.907	846.642	649.637
342.475	21.010	846.296	649.698
343.489	21.120	845.822	649.688
344.504	21.089	845.389	649.182
345.519	21.326	844.690	649.471
346.533	21.067	844.185	648.061
347.548	20.984	843.040	646.816
348.562	20.805	842.980	646.050
349.577	20.592	842.423	644.776
350.592	20.730	841.225	644.311
351.606	20.620	841.075	643.734
352.621	20.594	840.385	643.052
353.635	20.735	839.408	642.768
354.650	20.798	838.976	642.613
355.665	20.795	838.739	642.364
356.679	20.937	837.838	642.141
357.694	20.817	837.359	641.276
358.708	20.911	836.331	640.776
359.723	21.104	835.686	640.934
360.738	20.989	835.546	640.349
361.752	20.961	834.947	639.729
362.767	21.178	834.352	640.013
363.781	21.307	833.793	640.000
364.796	21.422	833.398	640.061
365.810	21.432	833.476	640.101
366.825	21.573	832.437	639.763
367.840	21.340	832.407	638.830
368.854	21.376	831.532	638.234
369.869	21.187	831.205	637.236
370.883	21.340	830.457	637.164
371.898	21.354	830.567	637.242
372.913	21.523	830.198	637.519
373.927	21.353	829.276	636.135
374.942	21.411	829.159	636.203
375.956	21.450	828.767	635.988
376.971	21.518	828.311	635.826
377.986	21.713	827.934	636.192
379.000	21.704	827.447	635.728
380.015	21.573	826.749	634.659
381.029	21.641	825.791	634.115
382.044	21.670	825.603	634.017
383.059	21.670	825.194	633.647
384.073	21.461	824.425	632.245
385.088	21.413	823.593	631.379
386.102	21.266	823.032	630.363
387.117	21.406	822.319	630.266
388.132	21.405	821.367	629.478
389.146	21.543	821.072	629.692
390.161	21.526	820.639	629.243
391.175	21.586	820.290	629.135
392.190	21.541	819.981	628.679
393.205	21.422	819.560	627.875
394.219	21.216	819.156	626.769
395.234	21.400	818.503	626.876
396.248	21.308	818.085	626.170
397.263	21.150	817.452	625.063
398.278	21.242	817.227	625.166
399.292	21.295	816.468	624.719
400.307	21.290	815.936	624.238
401.321	21.242	815.813	623.919
402.336	21.398	815.352	624.068
403.350	21.479	814.887	623.946
404.365	21.516	814.727	623.899
405.380	21.773	813.861	624.097
406.394	21.694	813.900	623.789
407.409	21.825	813.524	623.913
408.423	21.943	812.982	623.859
409.438	21.944	812.462	623.412
410.453	22.006	812.325	623.469
411.467	21.937	812.046	622.957
412.482	22.062	811.575	622.983
413.496	22.241	810.950	623.083
414.511	22.188	810.130	622.211
415.526	22.088	809.998	621.700
416.540	22.111	809.441	621.300
417.555	22.092	808.839	620.713
418.569	22.099	809.100	620.885
419.584	22.186	808.240	620.477
420.599	22.058	808.021	619.803
421.613	158.925	1369.763	1789.290
422.628	138.190	1451.614	1789.393
