DTS Sentinel unit serial number:	SN413079Multiplexer serial number:	ORYXHardware model number:	OX4-SRSoftware version number:	ORYX F/W v4.00 Oryx Data Collector v3.7.2.0data status	okinstallation	princeton_trtdifferential loss correction	single-endedforward channel	channel 1reverse channel	N/Adate	2019/09/12time	00:44:11forward acquisition time	60.00reverse acquisition time	0.00gamma	496.2192k internal	0.2319k external	0.2319temperature offset calibration	1.0075default loss term (dB/km)	0.3790temperature slope calibration	1.0000multiplexer offset coefficient	1.0000multiplexer slope coefficient	1.0000fibre end	0.00T internal ref (°C)	33.31T ext. ref 1 (°C)	2.07T ext. ref 2 (°C)	28.10length (m)	temperature (°C)	Stokes	anti-Stokes-747.200	-95.376	0.224	-0.061
-746.185	-200.000	0.013	0.089
-745.171	800.000	0.132	-0.390
-744.156	800.000	0.095	0.313
-743.142	745.841	-0.064	0.175
-742.127	59.062	0.139	-0.138
-741.112	-200.000	0.015	-0.185
-740.098	26.042	0.234	0.197
-739.083	-200.000	0.028	0.318
-738.069	178.416	-0.131	-0.194
-737.054	-155.619	-0.298	0.019
-736.039	800.000	-0.032	-0.116
-735.025	-200.000	0.012	0.223
-734.010	-12.435	0.113	-0.075
-732.996	270.363	0.118	-0.209
-731.981	-69.136	0.090	0.035
-730.966	-200.000	0.029	0.168
-729.952	347.419	-0.024	-0.048
-728.937	-161.945	-0.268	-0.014
-727.923	200.633	0.027	-0.042
-726.908	2.436	-0.091	-0.067
-725.894	83.183	-0.096	-0.106
-724.879	126.613	-0.086	0.110
-723.864	63.767	0.226	-0.229
-722.850	221.194	0.179	0.291
-721.835	-131.930	-0.291	-0.038
-720.821	369.659	0.214	-0.439
-719.806	1.944	-0.163	0.119
-718.791	800.000	-0.078	0.249
-717.777	-200.000	0.029	-0.193
-716.762	151.655	-0.132	0.182
-715.748	-62.905	0.120	-0.050
-714.733	-78.040	0.365	-0.127
-713.718	-24.606	-0.081	-0.048
-712.704	181.950	-0.110	0.163
-711.689	800.000	-0.060	0.230
-710.675	-47.289	-0.274	-0.135
-709.660	14.686	-0.230	-0.181
-708.645	-67.115	-0.068	-0.027
-707.631	-200.000	-0.001	-0.160
-706.616	66.371	0.265	0.272
-705.602	-140.053	-0.360	0.038
-704.587	-200.000	0.015	-0.083
-703.572	-200.000	-0.029	-0.319
-702.558	-112.238	-0.229	-0.046
-701.543	1.349	-0.242	0.175
-700.529	123.004	0.157	-0.198
-699.514	-21.697	-0.348	-0.214
-698.499	-6.090	-0.241	-0.166
-697.485	125.407	0.141	0.179
-696.470	-32.949	-0.281	0.158
-695.456	461.560	0.051	-0.114
-694.441	-34.396	0.191	0.106
-693.426	-135.786	-0.378	0.045
-692.412	68.454	-0.238	-0.246
-691.397	-16.960	-0.205	-0.131
-690.383	15.051	0.276	0.218
-689.368	254.108	0.075	-0.130
-688.354	-23.936	0.157	0.095
-687.339	109.068	0.057	-0.069
-686.324	-74.003	-0.297	-0.109
-685.310	349.697	0.130	0.260
-684.295	-105.056	-0.211	-0.049
-683.281	-84.718	0.183	0.058
-682.266	155.231	0.125	0.174
-681.251	-200.000	-0.010	-0.327
-680.237	-200.000	-0.052	-0.307
-679.222	424.632	-0.026	-0.058
-678.208	-117.702	0.189	-0.034
-677.193	-123.105	-0.116	-0.019
-676.178	-37.176	0.184	0.099
-675.164	800.000	0.056	0.241
-674.149	-89.326	-0.255	0.076
-673.135	-76.926	0.253	-0.089
-672.120	33.621	-0.296	0.260
-671.105	-67.078	0.524	-0.208
-670.091	397.230	-0.050	-0.106
-669.076	-146.820	0.051	-0.004
-668.062	-72.105	-0.205	0.077
-667.047	-41.301	0.084	-0.044
-666.032	800.000	0.070	-0.206
-665.018	129.025	-0.146	-0.188
-664.003	62.014	-0.137	-0.138
-662.989	-200.000	-0.038	0.247
-661.974	761.929	0.045	-0.122
-660.959	-99.482	-0.058	-0.015
-659.945	-9.396	-0.319	0.215
-658.930	-40.312	0.254	-0.133
-657.916	87.673	0.195	-0.218
-656.901	-80.016	-0.010	-0.003
-655.886	-4.586	0.427	0.297
-654.872	-100.385	0.285	-0.071
-653.857	-200.000	-0.003	-0.105
-652.843	-200.000	-0.079	0.386
-651.828	36.107	0.260	-0.231
-650.814	24.434	0.092	-0.077
-649.799	-200.000	-0.007	0.105
-648.784	108.249	-0.312	-0.375
-647.770	70.902	0.087	-0.091
-646.755	-139.832	-0.109	0.012
-645.741	-200.000	0.010	0.301
-644.726	-177.056	0.189	0.005
-643.711	-160.525	-0.277	0.015
-642.697	569.111	-0.062	-0.152
-641.682	-94.163	-0.196	0.054
-640.668	-1.720	-0.089	0.063
-639.653	-103.045	-0.465	0.111
-638.638	330.766	0.070	-0.136
-637.624	-141.871	-0.095	-0.010
-636.609	-200.000	-0.010	-0.145
-635.595	20.251	-0.217	0.176
-634.580	-111.665	-0.110	0.023
-633.565	-200.000	0.001	-0.075
-632.551	7.637	-0.114	0.086
-631.536	325.317	-0.165	-0.318
-630.522	642.317	0.139	-0.356
-629.507	-93.172	-0.145	-0.041
-628.492	212.819	-0.125	-0.199
-627.478	-200.000	-0.038	-0.256
-626.463	-128.936	-0.222	0.031
-625.449	-86.368	-0.136	0.042
-624.434	-200.000	-0.021	-0.162
-623.419	277.806	-0.119	0.213
-622.405	242.800	-0.077	0.129
-621.390	-27.936	-0.212	0.123
-620.376	303.067	0.053	0.099
-619.361	-13.468	0.082	-0.053
-618.346	-200.000	0.015	0.073
-617.332	-119.893	-0.145	0.025
-616.317	-55.452	-0.422	0.190
-615.303	-11.314	0.287	-0.190
-614.288	98.714	0.194	0.225
-613.273	-200.000	0.029	0.164
-612.259	412.081	0.160	0.342
-611.244	263.126	0.053	-0.094
-610.230	-200.000	-0.015	-0.112
-609.215	244.429	0.113	-0.190
-608.201	800.000	-0.123	-0.446
-607.186	-5.185	-0.289	-0.200
-606.171	90.286	0.071	0.080
-605.157	170.147	0.120	0.173
-604.142	-28.658	0.234	-0.135
-603.128	-200.000	-0.007	0.124
-602.113	-118.476	0.166	0.030
-601.098	111.872	0.158	0.192
-600.084	-57.318	-0.218	0.096
-599.069	-26.762	-0.122	-0.072
-598.055	-92.459	-0.090	0.026
-597.040	7.313	0.275	0.206
-596.025	800.000	0.059	0.164
-595.011	158.372	0.211	-0.295
-593.996	800.000	0.045	0.143
-592.982	173.391	0.109	-0.158
-591.967	-24.036	-0.194	-0.116
-590.952	-60.457	0.109	0.046
-589.938	-200.000	0.015	-0.090
-588.923	-6.674	-0.288	0.197
-587.909	-200.000	-0.042	0.319
-586.894	-40.295	-0.332	0.174
-585.879	-20.830	-0.287	0.177
-584.865	800.000	-0.083	0.232
-583.850	188.035	0.047	0.070
-582.836	26.718	0.180	0.152
-581.821	160.221	0.135	0.190
-580.806	39.147	0.200	-0.180
-579.792	12.645	0.247	0.192
-578.777	-200.000	-0.011	0.131
-577.763	66.788	-0.106	0.109
-576.748	-128.097	0.294	-0.042
-575.733	14.822	-0.249	-0.195
-574.719	-26.093	-0.029	0.017
-573.704	439.775	0.235	0.516
-572.690	22.766	0.041	0.034
-571.675	-200.000	0.053	-0.245
-570.661	148.350	-0.197	-0.268
-569.646	235.220	-0.153	-0.253
-568.631	17.012	-0.114	-0.090
-567.617	-2.341	-0.238	0.168
-566.602	537.313	-0.107	-0.254
-565.588	79.699	0.050	-0.054
-564.573	-200.000	-0.015	-0.317
-563.558	-200.000	0.041	0.387
-562.544	291.325	0.079	0.144
-561.529	289.382	0.240	0.437
-560.515	40.492	-0.191	0.172
-559.500	800.000	-0.049	-0.157
-558.485	233.236	0.129	-0.212
-557.471	-130.698	-0.379	0.051
-556.456	-86.689	-0.029	0.009
-555.442	-20.333	0.021	0.013
-554.427	242.969	-0.169	0.284
-553.412	-61.489	0.307	0.130
-552.398	27.410	0.325	-0.274
-551.383	-175.602	-0.179	-0.005
-550.369	170.425	-0.103	0.147
-549.354	87.581	-0.221	0.246
-548.339	800.000	0.089	0.311
-547.325	-63.901	-0.136	0.056
-546.310	19.737	0.215	0.174
-545.296	-162.898	-0.447	0.022
-544.281	10.601	-0.099	0.076
-543.266	-31.888	-0.101	-0.057
-542.252	34.656	0.088	-0.078
-541.237	-200.000	-0.079	-0.396
-540.223	-200.000	0.005	0.156
-539.208	26.042	-0.013	-0.011
-538.193	168.703	-0.122	0.175
-537.179	161.360	-0.055	0.077
-536.164	526.080	0.050	0.117
-535.150	-200.000	0.040	-0.231
-534.135	-101.752	0.178	-0.043
-533.121	800.000	-0.028	0.097
-532.106	-200.000	-0.023	0.141
-531.091	3.454	-0.178	0.130
-530.077	-193.947	-0.361	-0.003
-529.062	-2.838	0.116	-0.082
-528.048	800.000	-0.168	-0.470
-527.033	800.000	-0.054	-0.211
-526.018	800.000	-0.062	-0.227
-525.004	102.847	-0.214	-0.251
-523.989	800.000	-0.067	-0.274
-522.975	800.000	0.044	0.161
-521.960	179.137	-0.116	0.170
-520.945	140.429	-0.174	-0.230
-519.931	354.061	-0.189	-0.377
-518.916	754.430	-0.068	-0.184
-517.902	-38.900	-0.326	-0.172
-516.887	-1.711	-0.367	-0.259
-515.872	-142.185	-0.179	0.018
-514.858	-200.000	-0.014	-0.079
-513.843	33.039	-0.126	-0.109
-512.829	-49.471	-0.102	0.049
-511.814	800.000	0.109	0.430
-510.799	-38.874	0.123	0.065
-509.785	800.000	-0.110	-0.348
-508.770	-200.000	0.071	-0.355
-507.756	-94.356	0.186	0.051
-506.741	-200.000	0.001	-0.124
-505.726	205.687	0.139	0.217
-504.712	144.214	-0.060	0.080
-503.697	-200.000	0.026	-0.169
-502.683	-95.082	0.393	-0.106
-501.668	-141.523	0.153	-0.015
-500.653	5.783	0.141	0.104
-499.639	58.053	0.161	-0.158
-498.624	182.598	0.071	-0.105
-497.610	189.051	-0.089	-0.134
-496.595	800.000	-0.066	0.203
-495.581	440.024	-0.024	0.053
-494.566	722.072	-0.120	-0.320
-493.551	800.000	0.074	-0.271
-492.537	-12.584	0.121	-0.079
-491.522	-13.349	0.033	-0.022
-490.508	-46.815	0.064	-0.031
-489.493	-135.915	0.192	0.023
-488.478	-168.320	0.096	-0.004
-487.464	166.635	0.056	-0.079
-486.449	800.000	-0.074	0.248
-485.435	477.130	0.109	0.247
-484.420	-37.803	0.173	-0.092
-483.405	-200.000	-0.003	0.497
-482.391	-200.000	-0.039	0.390
-481.376	-114.231	0.168	0.032
-480.362	800.000	0.080	0.266
-479.347	-14.338	0.289	-0.186
-478.332	800.000	0.074	-0.217
-477.318	800.000	0.068	-0.226
-476.303	-71.053	0.235	-0.089
-475.289	147.758	-0.123	0.166
-474.274	28.269	0.037	0.031
-473.259	-102.749	-0.220	0.052
-472.245	91.580	-0.113	-0.127
-471.230	-46.976	-0.227	0.111
-470.216	-200.000	0.017	-0.084
-469.201	-143.404	-0.264	-0.025
-468.186	518.895	-0.049	-0.115
-467.172	-77.850	-0.112	-0.039
-466.157	-159.217	0.214	0.012
-465.143	324.801	-0.246	0.471
-464.128	-7.752	-0.140	0.095
-463.113	-200.000	-0.022	0.123
-462.099	-200.000	-0.002	0.114
-461.084	-135.151	0.492	0.059
-460.070	252.792	-0.122	0.209
-459.055	-200.000	-0.001	0.024
-458.040	58.826	-0.190	0.186
-457.026	203.678	0.177	-0.274
-456.011	662.576	0.078	-0.201
-454.997	-15.045	0.096	-0.062
-453.982	-39.146	-0.296	0.155
-452.968	140.864	0.118	-0.156
-451.953	97.728	0.227	-0.261
-450.938	-200.000	0.057	0.300
-449.924	-22.783	-0.162	0.098
-448.909	800.000	0.038	0.124
-447.895	-200.000	-0.046	-0.234
-446.880	26.048	0.126	-0.106
-445.865	398.336	-0.136	-0.284
-444.851	-168.359	0.311	0.012
-443.836	-113.567	0.256	-0.050
-442.822	540.156	0.057	0.136
-441.807	123.762	0.099	-0.125
-440.792	-118.247	0.117	-0.021
-439.778	-46.880	-0.072	-0.035
-438.763	-175.320	-0.023	-0.001
-437.749	800.000	-0.106	0.431
-436.734	-200.000	-0.327	-0.000
-435.719	-200.000	0.007	0.077
-434.705	800.000	-0.080	-0.310
-433.690	-72.144	-0.162	0.060
-432.676	-92.553	-0.318	0.089
-431.661	59.163	0.204	-0.201
-430.646	106.471	-0.125	0.148
-429.632	-200.000	0.080	0.374
-428.617	-200.000	-0.060	0.364
-427.603	-187.911	0.173	0.002
-426.588	402.201	-0.095	-0.199
-425.573	49.888	-0.169	-0.159
-424.559	800.000	0.082	0.245
-423.544	175.931	0.078	0.113
-422.530	119.011	-0.348	0.430
-421.515	199.156	-0.133	-0.203
-420.500	28.668	0.008	-0.007
-419.486	-76.242	0.179	0.063
-418.471	800.000	-0.143	0.518
-417.457	245.150	0.063	-0.105
-416.442	-89.442	-0.350	0.103
-415.428	-200.000	0.002	-0.048
-414.413	800.000	0.032	0.125
-413.398	169.947	-0.362	-0.516
-412.384	800.000	-0.112	-0.438
-411.369	-96.975	-0.066	-0.017
-410.355	-77.336	0.131	-0.045
-409.340	46.389	-0.145	0.134
-408.325	-94.015	-0.425	0.117
-407.311	800.000	0.044	0.130
-406.296	-200.000	-0.023	-0.150
-405.282	800.000	0.047	0.194
-404.267	-177.355	-0.382	-0.009
-403.252	393.921	-0.201	0.419
-402.238	400.178	-0.103	0.217
-401.223	82.877	-0.166	0.180
-400.209	-48.232	0.102	0.049
-399.194	9.858	0.319	-0.242
-398.179	12.636	-0.039	0.030
-397.165	-41.050	0.100	0.051
-396.150	358.510	-0.090	0.180
-395.136	-32.916	-0.017	-0.009
-394.121	-135.961	-0.230	-0.027
-393.106	-134.707	-0.100	-0.012
-392.092	-200.000	-0.007	0.275
-391.077	-112.747	-0.220	-0.044
-390.063	-63.604	-0.065	0.027
-389.048	-136.229	-0.125	0.015
-388.033	85.717	0.223	0.244
-387.019	-200.000	0.030	0.165
-386.004	88.412	-0.141	-0.157
-384.990	176.967	-0.100	0.145
-383.975	-44.742	0.065	-0.032
-382.960	-200.000	0.021	-0.123
-381.946	40.863	0.193	-0.174
-380.931	233.581	0.085	0.139
-379.917	-200.000	-0.003	0.215
-378.902	-49.072	0.054	-0.026
-377.888	-87.188	-0.326	0.099
-376.873	148.869	-0.037	-0.050
-375.858	5.056	-0.328	0.241
-374.844	-86.629	0.083	-0.025
-373.829	-200.000	0.021	-0.533
-372.815	800.000	-0.040	-0.132
-371.800	-139.220	0.309	0.033
-370.785	352.937	0.150	-0.296
-369.771	-145.707	0.078	0.007
-368.756	14.068	-0.128	-0.100
-367.742	-62.756	0.178	0.074
-366.727	-200.000	0.033	0.621
-365.712	298.659	-0.035	-0.065
-364.698	100.549	-0.263	0.305
-363.683	-122.288	0.305	0.050
-362.669	-189.987	0.280	0.003
-361.654	417.335	0.108	-0.229
-360.639	779.058	-0.010	0.026
-359.625	113.063	0.117	-0.141
-358.610	357.350	-0.111	-0.221
-357.596	-29.643	0.176	0.100
-356.581	-126.783	-0.140	0.021
-355.566	-200.000	-0.041	0.223
-354.552	800.000	-0.087	0.332
-353.537	800.000	-0.048	-0.186
-352.523	-129.239	-0.224	-0.031
-351.508	-121.837	-0.057	0.009
-350.493	-200.000	0.009	0.165
-349.479	-135.499	0.352	-0.042
-348.464	-200.000	-0.032	0.216
-347.450	137.144	0.104	0.135
-346.435	-46.379	0.240	-0.117
-345.420	-170.323	0.116	-0.004
-344.406	-27.934	-0.085	-0.049
-343.391	-82.213	-0.476	0.154
-342.377	617.035	-0.029	-0.072
-341.362	219.385	0.183	-0.292
-340.348	-108.326	0.380	-0.082
-339.333	39.146	-0.198	0.176
-338.318	-200.000	0.007	-0.227
-337.304	30.653	-0.047	0.040
-336.289	-147.136	0.169	0.014
-335.275	149.412	0.177	-0.238
-334.260	247.379	0.144	-0.242
-333.245	7.066	-0.169	-0.125
-332.231	-88.074	0.077	0.023
-331.216	-200.000	-0.004	-0.139
-330.202	-28.355	-0.107	0.062
-329.187	113.008	0.237	0.286
-328.172	441.264	0.036	-0.079
-327.158	136.921	-0.094	0.122
-326.143	103.484	0.096	0.112
-325.129	-93.535	0.601	-0.165
-324.114	302.247	0.114	0.210
-323.099	800.000	-0.066	0.258
-322.085	246.566	0.111	0.186
-321.070	-41.937	0.258	-0.131
-320.056	-40.547	-0.016	0.008
-319.041	237.982	-0.096	0.158
-318.026	150.128	-0.105	0.141
-317.012	-146.063	-0.197	0.017
-315.997	-113.527	0.128	-0.025
-314.983	800.000	-0.046	-0.192
-313.968	-100.115	0.046	-0.011
-312.953	51.230	-0.191	-0.180
-311.939	538.966	-0.103	-0.243
-310.924	-200.000	-0.002	0.287
-309.910	128.477	0.174	-0.221
-308.895	-9.161	-0.185	0.123
-307.880	-60.078	0.251	-0.106
-306.866	21.894	-0.320	-0.259
-305.851	96.683	-0.082	0.093
-304.837	24.768	-0.173	-0.143
-303.822	-73.313	-0.151	0.055
-302.807	-200.000	0.044	0.338
-301.793	-200.000	-0.004	0.302
-300.778	-11.557	-0.169	0.110
-299.764	492.110	0.172	-0.392
-298.749	24.701	0.202	-0.166
-297.735	-200.000	0.008	0.178
-296.720	-113.110	-0.418	0.082
-295.705	22.524	-0.127	0.103
-294.691	-11.426	0.302	-0.198
-293.676	30.991	0.111	-0.094
-292.662	82.858	0.167	-0.181
-291.647	-58.053	0.136	-0.059
-290.632	-146.579	0.234	-0.020
-289.618	67.942	-0.299	-0.303
-288.603	-94.651	-0.056	0.015
-287.589	-59.855	-0.234	0.100
-286.574	-163.108	-0.103	-0.005
-285.559	191.343	0.176	0.264
-284.545	-89.326	0.035	0.010
-283.530	-200.000	-0.022	0.282
-282.516	318.834	-0.023	-0.044
-281.501	-155.156	-0.151	-0.010
-280.486	-57.120	0.249	-0.109
-279.472	-111.420	-0.233	0.047
-278.457	-88.587	0.193	0.057
-277.443	51.657	0.169	0.160
-276.428	-32.019	0.219	0.122
-275.413	443.248	-0.238	-0.519
-274.399	-105.841	0.345	0.077
-273.384	-200.000	0.006	-0.143
-272.370	178.630	0.225	-0.326
-271.355	-200.000	0.075	0.586
-270.340	285.969	0.173	0.310
-269.326	32.471	0.161	0.138
-268.311	-36.447	-0.310	0.166
-267.297	76.450	0.187	0.197
-266.282	-88.772	0.257	0.076
-265.267	27.070	0.151	-0.125
-264.253	-84.907	-0.238	-0.074
-263.238	-198.390	-0.107	0.001
-262.224	-71.374	0.247	0.092
-261.209	-150.513	-0.244	-0.019
-260.195	188.112	-0.149	-0.220
-259.180	55.913	-0.294	-0.283
-258.165	538.910	0.018	-0.042
-257.151	-168.712	-0.142	-0.005
-256.136	211.142	-0.219	-0.341
-255.122	-76.277	-0.144	0.050
-254.107	800.000	-0.045	-0.160
-253.092	44.165	0.154	-0.141
-252.078	-111.247	0.174	0.035
-251.063	-18.605	-0.062	-0.038
-250.049	-200.000	-0.269	-0.001
-249.034	150.916	-0.228	0.308
-248.019	800.000	0.029	-0.123
-247.005	-82.675	0.159	0.051
-245.990	126.647	0.217	0.273
-244.976	420.413	0.087	-0.184
-243.961	1.293	0.023	-0.017
-242.946	94.772	0.079	-0.089
-241.932	146.654	-0.242	-0.323
-240.917	-66.878	0.358	0.140
-239.903	-9.645	-0.377	0.249
-238.888	382.648	-0.166	0.339
-237.873	800.000	-0.076	0.274
-236.859	-76.005	0.280	0.098
-235.844	-144.962	0.078	0.007
-234.830	-3.302	-0.217	0.150
-233.815	38.685	0.201	-0.178
-232.800	17.613	0.038	0.030
-231.786	78.910	0.216	0.229
-230.771	295.016	-0.131	-0.238
-229.757	-76.615	-0.210	0.073
-228.742	-87.231	0.258	-0.078
-227.727	800.000	0.103	-0.363
-226.713	-50.094	0.250	-0.117
-225.698	469.385	-0.145	-0.323
-224.684	-200.000	-0.005	-0.073
-223.669	-200.000	-0.025	0.205
-222.655	78.790	0.108	0.114
-221.640	-31.366	-0.201	-0.112
-220.625	307.606	-0.099	-0.183
-219.611	232.641	-0.045	0.073
-218.596	-200.000	0.037	-0.327
-217.582	-110.336	0.364	0.075
-216.567	426.340	-0.005	0.011
-215.552	76.333	0.152	-0.159
-214.538	69.389	-0.279	-0.285
-213.523	-200.000	0.028	-0.262
-212.509	-200.000	0.070	-0.316
-211.494	163.155	0.111	-0.154
-210.479	-132.649	0.052	-0.007
-209.465	312.057	-0.163	-0.302
-208.450	23.564	0.194	-0.158
-207.436	38.474	-0.112	0.099
-206.421	86.805	0.259	-0.284
-205.406	39.975	0.086	0.076
-204.392	-95.989	-0.130	0.034
-203.377	160.104	0.053	0.073
-202.363	-12.327	0.055	0.035
-201.348	-141.487	-0.289	-0.029
-200.333	128.800	0.173	0.219
-199.319	208.601	-0.125	-0.193
-198.304	-99.111	-0.101	-0.025
-197.290	332.923	-0.139	-0.267
-196.275	187.156	0.170	-0.250
-195.260	70.475	0.011	-0.011
-194.246	-107.290	0.161	0.035
-193.231	23.171	0.190	-0.154
-192.217	-93.838	-0.301	-0.082
-191.202	-154.047	0.281	-0.019
-190.187	-150.286	0.526	-0.040
-189.173	164.293	0.064	0.089
-188.158	-139.803	0.273	-0.029
-187.144	281.002	-0.287	0.509
-186.129	-200.000	0.014	0.101
-185.114	-200.000	0.006	0.032
-184.100	182.245	-0.069	0.101
-183.085	126.878	-0.094	0.117
-182.071	101.297	-0.186	-0.215
-181.056	373.081	0.089	-0.179
-180.042	212.725	-0.104	-0.162
-179.027	-32.906	0.138	-0.076
-178.012	-200.000	-0.008	0.090
-176.998	78.352	-0.120	-0.127
-175.983	-200.000	0.034	0.238
-174.969	-200.000	-0.010	-0.170
-173.954	-51.550	0.066	0.031
-172.939	-45.438	0.303	0.149
-171.925	-186.621	0.179	-0.003
-170.910	24.000	0.162	-0.132
-169.896	800.000	-0.023	-0.095
-168.881	512.973	0.115	-0.266
-167.866	455.686	-0.059	-0.130
-166.852	-76.173	-0.024	-0.008
-165.837	-53.945	0.095	0.043
-164.823	-200.000	0.020	0.263
-163.808	-3.890	0.297	-0.204
-162.793	75.885	-0.088	-0.092
-161.779	-200.000	0.039	-0.217
-160.764	104.099	0.165	-0.192
-159.750	800.000	-0.025	0.092
-158.735	-187.763	0.317	0.004
-157.720	-80.536	0.192	0.063
-156.706	-165.609	0.268	0.012
-155.691	83.694	0.176	0.190
-154.677	-80.257	0.495	-0.164
-153.662	-163.639	0.267	-0.012
-152.647	-145.511	0.546	0.048
-151.633	743.575	0.170	0.451
-150.618	-115.941	-0.260	0.048
-149.604	162.538	-0.035	-0.049
-148.589	-145.603	0.174	0.015
-147.574	-100.678	-0.150	0.037
-146.560	17.247	-0.192	-0.151
-145.545	25.117	-0.096	-0.079
-144.531	-200.000	0.021	-0.196
-143.516	-150.283	-0.204	-0.016
-142.502	-92.814	0.044	0.012
-141.487	-63.743	0.200	-0.081
-140.472	4.676	-0.144	0.104
-139.458	-200.000	0.024	0.143
-138.443	-171.923	-0.181	-0.006
-137.429	500.358	-0.119	-0.271
-136.414	-200.000	-0.011	0.190
-135.399	-137.083	0.271	-0.031
-134.385	-103.321	-0.389	0.091
-133.370	-31.059	-0.196	-0.109
-132.356	167.768	0.037	-0.051
-131.341	73.428	-0.217	0.225
-130.326	551.459	-0.021	-0.051
-129.312	-43.753	0.149	0.074
-128.297	-45.256	0.218	0.107
-127.283	-15.388	-0.118	-0.074
-126.268	-200.000	0.020	0.367
-125.253	-179.902	-0.287	-0.006
-124.239	132.583	-0.244	0.310
-123.224	72.994	-0.096	0.099
-122.210	-200.000	-0.051	-0.339
-121.195	-3.100	-0.153	0.105
-120.180	-86.645	0.271	-0.082
-119.166	-127.620	-0.276	0.039
-118.151	800.000	-0.049	0.176
-117.137	-140.704	0.232	-0.024
-116.122	14.482	-0.360	0.278
-115.107	95.368	-0.099	-0.111
-114.093	58.059	0.173	0.167
-113.078	-4.828	-0.065	0.044
-112.064	201.048	0.050	0.076
-111.049	-200.000	0.022	-0.119
-110.034	-200.000	-0.005	0.050
-109.020	-200.000	-0.004	-0.137
-108.005	-116.194	-0.109	-0.020
-106.991	-38.920	-0.183	0.095
-105.976	476.557	-0.091	-0.202
-104.962	269.811	0.122	0.212
-103.947	14.585	0.164	0.126
-102.932	68.426	0.169	0.171
-101.918	-200.000	-0.068	0.320
-100.903	-200.000	-0.027	0.128
-99.889	-200.000	-0.044	0.236
-98.874	-58.625	0.192	0.082
-97.859	-54.878	-0.287	-0.128
-96.845	7.433	-0.100	0.073
-95.830	-12.558	0.217	-0.140
-94.816	-200.000	-0.008	0.297
-93.801	-200.000	-0.099	0.436
-92.786	800.000	-0.067	-0.286
-91.772	69.638	0.314	-0.319
-90.757	-105.261	0.221	0.050
-89.743	9.362	-0.215	0.160
-88.728	159.001	-0.179	0.245
-87.713	-4.622	-0.339	-0.231
-86.699	-1.965	-0.240	-0.166
-85.684	-13.980	0.335	-0.214
-84.670	800.000	-0.104	0.346
-83.655	67.850	-0.136	0.137
-82.640	800.000	0.059	0.167
-81.626	-200.000	0.007	-0.129
-80.611	-75.917	0.248	-0.087
-79.597	-200.000	0.165	-0.001
-78.582	-30.612	-0.265	-0.148
-77.567	-200.000	0.041	0.191
-76.553	74.778	-0.201	0.208
-75.538	-5.918	0.180	-0.121
-74.524	-53.298	0.221	0.100
-73.509	-120.488	-0.240	-0.040
-72.494	222.307	-0.035	-0.056
-71.480	164.690	-0.066	-0.091
-70.465	386.102	0.046	0.093
-69.451	-114.096	-0.330	0.063
-68.436	-128.796	0.292	0.041
-67.422	-200.000	-0.039	-0.199
-66.407	-139.603	-0.217	-0.023
-65.392	14.999	-0.251	-0.194
-64.378	-119.468	-0.189	-0.032
-63.363	405.280	-0.077	0.160
-62.349	800.000	-0.116	-0.372
-61.334	58.429	-0.801	-0.774
-60.319	152.016	0.385	0.517
-59.305	800.000	-0.252	-0.935
-58.290	158.467	0.670	0.916
-57.276	564.875	0.579	1.382
-56.261	-200.000	95.776	576.978
-55.246	547.359	1386.068	3266.432
-54.232	157.872	2567.460	3502.975
-53.217	112.650	2146.574	2558.911
-52.203	44.668	1607.998	1455.776
-51.188	36.728	1345.711	1170.489
-50.173	33.638	1303.311	1115.429
-49.159	55.648	1350.023	1287.485
-48.144	58.037	1367.303	1318.182
-47.130	36.956	1325.074	1153.716
-46.115	33.404	1308.177	1118.033
-45.100	33.209	1303.443	1112.801
-44.086	33.197	1300.702	1110.346
-43.071	33.151	1298.299	1107.979
-42.057	32.988	1296.943	1105.823
-41.042	33.155	1294.818	1104.944
-40.027	33.191	1293.839	1104.276
-39.013	33.147	1291.653	1102.112
-37.998	33.188	1289.660	1100.602
-36.984	33.340	1287.990	1100.021
-35.969	33.314	1286.247	1098.332
-34.954	33.371	1284.727	1097.326
-33.940	33.424	1283.677	1096.688
-32.925	33.479	1282.127	1095.642
-31.911	33.477	1280.537	1094.226
-30.896	33.473	1278.969	1092.820
-29.881	33.345	1277.794	1091.034
-28.867	33.491	1276.352	1090.601
-27.852	33.351	1275.034	1088.630
-26.838	33.466	1273.280	1087.746
-25.823	33.406	1272.206	1086.444
-24.809	33.492	1270.546	1085.476
-23.794	33.292	1269.722	1083.580
-22.779	33.394	1268.237	1082.853
-21.765	33.412	1267.058	1081.907
-20.750	33.330	1265.518	1080.084
-19.736	33.358	1264.426	1079.269
-18.721	33.314	1263.323	1078.030
-17.706	33.260	1262.372	1076.870
-16.692	33.354	1260.834	1076.048
-15.677	33.289	1259.953	1074.885
-14.663	33.211	1258.482	1073.148
-13.648	33.275	1258.030	1073.079
-12.633	33.414	1256.592	1072.598
-11.619	33.260	1256.173	1071.329
-10.604	33.204	1255.402	1070.310
-9.590	33.101	1254.278	1068.726
-8.575	33.124	1253.693	1068.316
-7.560	33.072	1252.655	1067.094
-6.546	33.219	1251.677	1067.049
-5.531	33.200	1250.740	1066.101
-4.517	33.323	1249.978	1066.100
-3.502	33.297	1248.898	1064.995
-2.487	33.207	1248.102	1063.764
-1.473	33.215	1243.927	1060.210
-0.458	31.893	1229.401	1040.458
0.556	28.898	1212.382	1003.610
1.571	25.278	1219.228	989.271
2.586	24.546	1235.010	997.899
3.600	24.168	1224.507	987.235
4.615	17.872	1150.977	894.964
5.629	7.163	1073.206	781.796
6.644	2.335	1052.071	742.920
7.659	2.069	1048.993	739.393
8.673	1.980	1048.185	738.328
9.688	1.908	1046.680	736.855
10.702	2.529	1045.191	738.738
11.717	9.267	1055.082	778.382
12.731	19.472	1069.673	838.941
13.746	24.478	1075.122	867.535
14.761	25.144	1076.513	871.818
15.775	25.197	1076.091	871.658
16.790	24.930	1075.415	869.734
17.804	24.981	1074.556	869.212
18.819	24.970	1074.217	868.806
19.834	25.217	1073.619	869.446
20.848	25.194	1073.380	869.062
21.863	25.278	1072.503	868.680
22.877	24.987	1071.876	866.692
23.892	25.106	1071.244	866.680
24.907	25.080	1070.720	866.050
25.921	25.154	1069.228	865.123
26.936	25.198	1067.831	864.127
27.950	25.010	1066.441	862.023
28.965	24.959	1065.033	860.563
29.980	24.973	1063.590	859.391
30.994	25.301	1062.250	859.803
32.009	25.315	1060.910	858.710
33.023	24.892	1060.662	856.407
34.038	25.135	1059.700	856.715
35.053	25.175	1059.032	856.291
36.067	25.162	1058.348	855.600
37.082	25.237	1057.229	854.977
38.096	25.557	1057.000	856.244
39.111	25.492	1056.268	855.264
40.126	25.405	1054.615	853.435
41.140	24.991	1052.845	849.963
42.155	24.739	1051.924	847.950
43.169	24.776	1051.108	847.396
44.184	24.782	1050.302	846.699
45.199	24.681	1048.942	845.048
46.213	24.761	1048.275	844.814
47.228	24.880	1047.734	844.865
48.242	25.102	1046.428	844.784
49.257	25.067	1046.130	844.303
50.271	25.344	1045.234	844.809
51.286	25.283	1044.211	843.619
52.301	25.264	1043.637	842.992
53.315	25.235	1042.051	841.504
54.330	25.109	1041.541	840.425
55.344	25.178	1040.829	840.099
56.359	25.063	1039.988	838.809
57.374	24.875	1038.945	837.015
58.388	24.802	1038.400	836.162
59.403	24.808	1037.426	835.328
60.417	24.773	1036.570	834.403
61.432	24.876	1035.870	834.243
62.447	25.055	1035.251	834.509
63.461	25.082	1034.187	833.702
64.476	24.917	1033.751	832.506
65.490	24.789	1032.454	830.797
66.505	24.805	1032.230	830.618
67.520	24.954	1031.585	830.714
68.534	24.711	1030.114	828.330
69.549	24.378	1028.983	825.806
70.563	24.394	1028.378	825.323
71.578	24.291	1027.923	824.408
72.593	24.295	1026.460	823.182
73.607	24.411	1025.876	823.176
74.622	24.614	1026.104	824.220
75.636	24.753	1024.779	823.724
76.651	24.658	1024.058	822.633
77.666	24.549	1023.458	821.580
78.680	24.646	1022.462	821.150
79.695	24.695	1022.270	821.151
80.709	24.786	1021.465	820.847
81.724	24.756	1020.527	819.885
82.739	24.914	1019.883	820.017
83.753	25.153	1019.714	820.904
84.768	25.428	1018.971	821.491
85.782	25.510	1018.038	821.040
86.797	25.358	1016.838	819.306
87.812	25.251	1015.824	817.929
88.826	25.487	1014.638	817.979
89.841	25.581	1013.748	817.612
90.855	25.470	1013.039	816.465
91.870	25.347	1011.947	814.954
92.884	25.235	1011.459	813.982
93.899	25.097	1010.553	812.553
94.914	25.400	1009.538	813.041
95.928	25.336	1007.745	811.234
96.943	25.041	1006.970	809.208
97.957	24.760	1005.714	806.859
98.972	24.633	1005.009	805.651
99.987	24.921	1004.218	806.242
101.001	25.059	1003.370	806.109
102.016	25.186	1002.638	806.021
103.030	25.053	1001.520	804.452
104.045	24.809	1000.535	802.495
105.060	24.734	999.533	801.288
106.074	24.962	999.104	801.894
107.089	25.257	998.250	802.453
108.103	25.162	997.316	801.209
109.118	24.850	996.150	798.811
110.133	24.896	995.226	798.204
111.147	24.702	993.908	796.213
112.162	24.540	992.906	794.616
113.176	24.803	992.566	795.444
114.191	24.765	991.338	794.222
115.206	24.364	990.622	791.797
116.220	24.361	989.869	791.114
117.235	24.595	988.954	791.348
118.249	24.600	987.940	790.488
119.264	24.419	987.414	789.198
120.279	24.483	986.908	789.007
121.293	24.683	985.689	788.845
122.308	24.489	985.462	787.736
123.322	24.573	983.964	786.838
124.337	24.492	982.395	785.160
125.352	23.872	980.951	781.213
126.366	23.887	980.108	780.539
127.381	24.459	980.674	783.429
128.395	25.098	980.081	785.688
129.410	25.118	979.292	785.075
130.424	25.174	978.074	784.275
131.439	25.102	976.749	782.829
132.454	25.184	975.981	782.500
133.468	24.971	974.979	780.702
134.483	25.336	974.147	781.553
135.497	25.379	973.667	781.286
136.512	25.387	973.088	780.788
137.527	25.345	972.128	779.766
138.541	25.307	971.612	779.117
139.556	25.307	970.898	778.477
140.570	25.440	969.823	778.121
141.585	25.324	969.137	777.001
142.600	25.470	967.826	776.510
143.614	25.668	967.080	776.701
144.629	25.736	966.528	776.481
145.643	25.492	965.149	774.253
146.658	25.245	963.879	772.105
147.673	25.210	962.981	771.164
148.687	25.123	962.196	770.095
149.702	25.152	960.779	769.017
150.716	25.143	960.147	768.405
151.731	25.177	959.562	768.014
152.746	25.448	959.026	768.676
153.760	25.544	958.151	768.316
154.775	25.585	957.772	768.119
155.789	25.411	956.787	766.519
156.804	25.474	956.096	766.167
157.819	25.479	955.353	765.527
158.833	25.658	954.562	765.586
159.848	25.621	953.805	764.752
160.862	25.496	952.245	762.905
161.877	25.467	951.555	762.162
162.892	25.542	950.448	761.526
163.906	25.536	949.055	760.316
164.921	25.542	948.229	759.612
165.935	25.518	947.665	758.992
166.950	25.540	946.446	758.039
167.964	25.531	945.478	757.160
168.979	25.392	944.540	755.756
169.994	25.333	943.979	754.995
171.008	25.715	942.861	755.636
172.023	25.599	942.176	754.533
173.037	25.485	940.839	752.920
174.052	25.247	940.512	751.595
175.067	25.295	939.636	751.030
176.081	25.252	939.331	750.540
177.096	25.240	938.525	749.778
178.110	25.066	937.455	748.132
179.125	24.900	936.902	746.930
180.140	24.998	936.414	746.884
181.154	25.116	936.608	747.463
182.169	25.332	936.305	748.057
183.183	25.488	935.853	748.277
184.198	25.478	934.526	747.109
185.213	25.469	933.934	746.535
186.227	25.473	933.533	746.165
187.242	25.547	932.230	745.363
188.256	25.703	931.742	745.551
189.271	25.677	931.065	744.838
190.286	25.273	930.229	742.434
191.300	24.615	928.872	738.563
192.315	23.846	927.127	733.937
193.329	23.941	926.713	733.938
194.344	24.807	927.363	737.961
195.359	25.358	926.652	739.600
196.373	25.412	926.821	739.891
197.388	25.240	926.348	738.742
198.402	25.490	925.324	738.887
199.417	25.438	924.823	738.210
200.432	25.101	923.731	735.887
201.446	24.952	923.657	735.150
202.461	25.121	922.668	734.995
203.475	24.133	920.813	729.405
204.490	23.492	919.402	725.600
205.504	24.381	919.693	729.405
206.519	25.010	919.812	732.004
207.534	25.091	918.899	731.545
208.548	25.501	918.932	733.177
209.563	25.244	918.172	731.460
210.577	25.206	917.390	730.618
211.592	25.594	917.158	731.947
212.607	25.552	916.278	731.010
213.621	25.681	915.444	730.805
214.636	25.642	914.695	729.982
215.650	25.626	914.352	729.577
216.665	25.750	913.528	729.357
217.680	25.597	912.984	728.241
218.694	25.305	911.328	725.674
219.709	25.001	911.322	724.378
220.723	25.306	910.650	725.010
221.738	25.438	910.095	725.038
222.753	25.463	909.385	724.510
223.767	25.421	909.454	724.332
224.782	25.857	908.492	725.256
225.796	25.724	908.083	724.330
226.811	25.002	906.943	720.454
227.826	24.397	905.533	716.842
228.840	24.592	904.933	717.085
229.855	24.567	904.579	716.642
230.869	24.259	903.521	714.505
231.884	24.651	903.033	715.625
232.899	25.503	903.265	719.157
233.913	25.301	902.748	717.875
234.928	25.252	902.359	717.306
235.942	25.159	901.786	716.416
236.957	24.957	900.461	714.491
237.972	25.020	900.011	714.324
238.986	25.117	899.424	714.179
240.001	25.030	898.985	713.423
241.015	25.263	898.423	713.839
242.030	25.306	897.858	713.498
243.045	25.346	897.718	713.482
244.059	25.576	897.228	713.945
245.074	25.306	896.106	711.917
246.088	25.015	894.957	709.788
247.103	25.335	894.895	710.946
248.117	25.883	895.023	713.154
249.132	26.192	894.386	713.804
250.147	26.226	893.849	713.447
251.161	26.268	893.569	713.325
252.176	26.242	893.142	712.820
253.190	26.261	892.492	712.310
254.205	26.548	891.678	712.729
255.220	26.482	891.706	712.431
256.234	26.187	890.948	710.599
257.249	26.102	889.941	709.398
258.263	26.298	888.979	709.340
259.278	26.230	888.272	708.446
260.293	26.394	888.275	709.027
261.307	26.203	887.543	707.634
262.322	26.053	886.374	706.051
263.336	25.319	884.530	701.654
264.351	24.297	882.691	696.143
265.366	24.491	882.375	696.589
266.380	25.416	883.083	700.696
267.395	26.040	882.602	702.684
268.409	25.837	881.822	701.213
269.424	26.126	881.286	701.846
270.439	26.050	881.012	701.270
271.453	26.255	880.227	701.381
272.468	26.417	879.979	701.749
273.482	26.421	879.901	701.643
274.497	25.960	878.638	698.784
275.512	25.438	877.583	695.864
276.526	25.947	877.745	697.901
277.541	26.252	876.951	698.388
278.555	25.893	876.597	696.658
279.570	25.775	875.363	695.157
280.585	25.968	875.236	695.740
281.599	25.836	874.114	694.281
282.614	25.208	872.850	690.796
283.628	25.474	872.010	691.092
284.643	25.744	872.362	692.349
285.657	25.357	870.682	689.471
286.672	25.009	869.964	687.506
287.687	25.576	870.387	689.953
288.701	25.690	869.974	690.004
289.716	25.369	868.744	687.736
290.730	25.147	868.380	686.539
291.745	25.000	867.094	684.898
292.760	25.336	867.141	686.161
293.774	26.401	867.717	690.624
294.789	26.720	867.305	691.454
295.803	26.705	866.922	691.031
296.818	26.652	866.137	690.141
297.833	26.205	865.036	687.502
298.847	26.084	864.351	686.434
299.862	26.409	864.271	687.549
300.876	26.607	863.601	687.704
301.891	26.732	862.631	687.347
302.906	26.203	861.779	684.604
303.920	26.297	861.824	684.932
304.935	26.605	861.557	685.829
305.949	26.631	860.767	685.235
306.964	26.400	859.976	683.673
307.979	26.351	859.868	683.343
308.993	26.561	860.357	684.461
310.008	26.606	859.180	683.634
311.022	26.464	858.242	682.294
312.037	26.289	857.833	681.249
313.052	26.064	856.513	679.294
314.066	25.225	854.940	674.830
315.081	24.878	854.172	672.862
316.095	25.881	854.670	676.963
317.110	26.235	854.384	678.006
318.125	25.424	853.022	673.824
319.139	24.349	851.372	668.435
320.154	24.277	851.057	667.861
321.168	25.331	851.654	672.219
322.183	26.057	851.658	674.879
323.197	26.127	851.283	674.782
324.212	26.387	851.028	675.491
325.227	26.443	850.414	675.155
326.241	26.284	849.725	673.957
327.256	26.130	848.882	672.653
328.270	26.227	847.998	672.253
329.285	25.953	847.455	670.744
330.300	25.648	846.833	669.058
331.314	25.949	846.580	669.918
332.329	26.344	846.605	671.345
333.343	26.694	845.697	671.865
334.358	26.604	845.126	671.021
335.373	26.609	845.234	671.063
336.387	26.813	845.022	671.593
337.402	26.945	844.992	671.999
338.416	26.911	844.307	671.266
339.431	27.017	843.989	671.347
340.446	27.085	843.862	671.437
341.460	26.905	843.303	670.270
342.475	26.801	842.536	669.216
343.489	27.017	842.146	669.645
344.504	27.276	842.190	670.575
345.519	27.254	841.947	670.240
346.533	27.414	841.206	670.180
347.548	27.369	840.812	669.643
348.562	27.198	840.291	668.541
349.577	27.187	839.693	667.965
350.592	27.289	838.615	667.419
351.606	27.217	838.275	666.828
352.621	26.970	837.455	665.212
353.635	27.202	836.574	665.301
354.650	26.348	835.117	660.964
355.665	25.387	833.423	656.054
356.679	25.953	833.588	658.194
357.694	26.329	833.210	659.209
358.708	26.305	832.359	658.392
359.723	26.622	832.380	659.505
360.738	26.973	831.922	660.359
361.752	27.178	831.292	660.545
362.767	27.448	831.433	661.579
363.781	27.671	831.098	662.065
364.796	27.787	830.362	661.840
365.810	27.726	830.199	661.429
366.825	27.777	829.911	661.327
367.840	27.300	829.336	659.083
368.854	27.012	828.140	657.031
369.869	26.918	827.903	656.448
370.883	27.124	827.430	656.759
371.898	26.950	826.900	655.650
372.913	27.047	826.886	655.931
373.927	27.159	826.345	655.848
374.942	27.403	825.673	656.138
375.956	27.351	825.541	655.788
376.971	27.422	825.259	655.759
377.986	27.688	824.743	656.250
379.000	27.568	824.626	655.669
380.015	27.393	823.439	654.035
381.029	27.615	822.624	654.127
382.044	27.702	822.386	654.193
383.059	27.632	821.835	653.447
384.073	27.769	821.201	653.373
385.088	27.648	820.472	652.303
386.102	27.335	820.131	650.856
387.117	27.402	819.226	650.318
388.132	27.053	818.367	648.335
389.146	26.546	817.231	645.568
390.161	26.984	817.110	646.979
391.175	27.429	817.047	648.454
392.190	27.014	816.087	646.160
393.205	25.653	813.946	639.574
394.219	24.178	812.139	632.862
395.234	24.115	812.035	632.501
396.248	25.783	813.620	639.611
397.263	27.126	814.437	644.965
398.278	27.043	813.818	644.124
399.292	26.848	813.496	643.121
400.307	26.922	812.678	642.680
401.321	27.085	812.139	642.775
402.336	27.395	812.151	643.823
403.350	27.632	812.473	644.860
404.365	28.083	811.773	645.838
405.380	28.495	811.449	646.978
406.394	28.565	810.858	646.697
407.409	28.394	810.493	645.746
408.423	28.337	810.105	645.180
409.438	28.413	809.936	645.253
410.453	28.454	809.238	644.787
411.467	28.336	808.654	643.849
412.482	28.355	808.455	643.699
413.496	28.468	808.290	643.907
414.511	28.395	808.030	643.387
415.526	28.433	807.228	642.828
416.540	28.286	806.682	641.821
417.555	27.955	805.848	639.940
418.569	28.147	805.314	640.131
419.584	27.995	805.196	639.448
420.599	27.765	804.737	638.224
421.613	110.945	1283.848	1455.083
422.628	95.865	1353.649	1455.167
