DTS Sentinel unit serial number:	SN413079Multiplexer serial number:	ORYXHardware model number:	OX4-SRSoftware version number:	ORYX F/W v4.00 Oryx Data Collector v3.7.2.0data status	okinstallation	princeton_trtdifferential loss correction	single-endedforward channel	channel 1reverse channel	N/Adate	2019/09/15time	23:18:35forward acquisition time	60.00reverse acquisition time	0.00gamma	496.2192k internal	0.2331k external	0.2331temperature offset calibration	0.9971default loss term (dB/km)	0.3790temperature slope calibration	1.0000multiplexer offset coefficient	1.0000multiplexer slope coefficient	1.0000fibre end	0.00T internal ref (°C)	28.31T ext. ref 1 (°C)	9.09T ext. ref 2 (°C)	22.06length (m)	temperature (°C)	Stokes	anti-Stokes-747.200	-39.194	-0.224	0.118
-746.185	-127.126	-0.080	-0.012
-745.171	31.201	0.269	0.232
-744.156	-88.472	-0.518	0.156
-743.142	800.000	0.072	-0.258
-742.127	-200.000	0.009	0.300
-741.112	328.420	0.081	0.157
-740.098	-200.000	-0.009	0.423
-739.083	-179.699	-0.279	0.006
-738.069	-21.999	-0.403	0.246
-737.054	-50.725	0.045	-0.021
-736.039	-26.958	-0.235	0.138
-735.025	480.927	0.075	-0.170
-734.010	-200.000	-0.009	-0.334
-732.996	6.569	-0.250	-0.187
-731.981	577.449	0.022	-0.054
-730.966	-183.518	0.136	0.002
-729.952	112.447	-0.245	-0.298
-728.937	800.000	0.121	-0.388
-727.923	-46.585	-0.130	-0.064
-726.908	144.999	-0.173	-0.233
-725.894	132.826	0.110	-0.143
-724.879	-5.457	-0.191	-0.132
-723.864	-68.831	-0.303	0.118
-722.850	-48.209	0.014	-0.007
-721.835	-200.000	0.007	0.068
-720.821	295.674	-0.128	-0.236
-719.806	-107.713	-0.159	-0.035
-718.791	-166.187	-0.265	0.011
-717.777	-200.000	0.059	0.441
-716.762	135.095	0.109	-0.143
-715.748	-4.248	0.098	0.068
-714.733	60.131	0.141	0.141
-713.718	800.000	-0.081	0.260
-712.704	-30.161	-0.194	-0.111
-711.689	175.224	0.083	0.121
-710.675	67.737	-0.071	0.072
-709.660	120.449	-0.058	0.072
-708.645	-200.000	0.016	0.163
-707.631	-200.000	-0.010	-0.058
-706.616	288.092	0.019	-0.034
-705.602	165.474	-0.350	-0.497
-704.587	-136.188	-0.370	0.043
-703.572	28.534	0.361	-0.307
-702.558	-200.000	0.014	0.260
-701.543	-200.000	-0.043	0.266
-700.529	234.472	-0.134	0.223
-699.514	-24.198	-0.208	-0.124
-698.499	-35.514	0.124	-0.068
-697.485	-84.106	-0.183	0.058
-696.470	146.479	-0.179	0.241
-695.456	-45.893	-0.211	-0.105
-694.441	-90.596	-0.198	-0.058
-693.426	-18.125	-0.297	0.187
-692.412	2.675	0.308	0.225
-691.397	-200.000	-0.022	-0.244
-690.383	-83.336	0.293	-0.094
-689.368	-3.238	0.099	0.069
-688.354	800.000	-0.071	-0.211
-687.339	-113.027	-0.143	-0.028
-686.324	15.850	0.122	-0.097
-685.310	-147.185	-0.155	-0.013
-684.295	338.505	-0.046	-0.090
-683.281	-200.000	-0.000	-0.291
-682.266	176.847	-0.053	-0.077
-681.251	-59.911	-0.009	-0.004
-680.237	-95.363	-0.257	0.069
-679.222	-200.000	0.061	0.271
-678.208	31.848	0.058	-0.050
-677.193	800.000	-0.062	-0.230
-676.178	-17.718	0.076	-0.048
-675.164	-200.000	-0.014	0.200
-674.149	49.742	-0.022	-0.021
-673.135	-184.834	-0.042	0.001
-672.120	49.005	-0.217	0.204
-671.105	-200.000	-0.007	-0.144
-670.091	-50.138	-0.319	-0.152
-669.076	-25.351	0.043	0.025
-668.062	235.380	0.157	0.260
-667.047	99.511	-0.157	0.183
-666.032	-125.353	0.202	-0.031
-665.018	-142.239	0.089	-0.009
-664.003	-65.628	0.133	-0.053
-662.989	433.840	0.087	0.189
-661.974	800.000	0.092	-0.306
-660.959	-189.775	-0.189	0.002
-659.945	-123.952	0.118	-0.019
-658.930	70.310	-0.129	-0.133
-657.916	288.593	-0.138	-0.250
-656.901	1.749	0.310	-0.224
-655.886	149.759	0.197	-0.268
-654.872	800.000	0.159	0.488
-653.857	16.149	0.125	0.099
-652.843	22.315	0.115	0.094
-651.828	544.043	0.039	-0.093
-650.814	-39.318	-0.288	-0.152
-649.799	496.780	0.010	0.024
-648.784	-200.000	0.029	-0.219
-647.770	-200.000	0.012	-0.076
-646.755	-113.405	-0.289	-0.057
-645.741	-200.000	-0.054	0.251
-644.726	117.945	0.218	-0.270
-643.711	-200.000	-0.070	0.357
-642.697	79.163	0.302	-0.324
-641.682	75.843	0.142	0.151
-640.668	800.000	-0.006	-0.020
-639.653	-101.151	-0.157	-0.038
-638.638	800.000	0.045	-0.146
-637.624	-71.205	-0.201	-0.076
-636.609	800.000	0.034	0.135
-635.595	38.868	-0.229	0.205
-634.580	-80.160	0.400	0.134
-633.565	-95.256	0.187	0.050
-632.551	335.245	-0.163	0.316
-631.536	-153.323	-0.262	-0.018
-630.522	308.859	-0.058	-0.109
-629.507	-20.776	-0.118	0.072
-628.492	400.112	0.113	0.237
-627.478	800.000	0.098	0.315
-626.463	800.000	-0.099	-0.335
-625.449	-8.390	-0.271	-0.182
-624.434	9.482	-0.308	0.234
-623.419	800.000	0.046	0.159
-622.405	75.500	0.170	-0.179
-621.390	-162.243	-0.199	-0.010
-620.376	-32.596	-0.113	0.063
-619.361	-200.000	0.013	-0.110
-618.346	237.555	0.135	0.224
-617.332	313.451	0.034	0.064
-616.317	318.712	-0.043	-0.081
-615.303	-31.627	0.252	0.141
-614.288	-115.180	-0.291	0.055
-613.273	362.583	0.077	-0.156
-612.259	-200.000	-0.002	-0.024
-611.244	-189.538	0.141	-0.002
-610.230	-19.191	0.057	-0.035
-609.215	-122.175	-0.157	0.026
-608.201	800.000	-0.029	0.108
-607.186	-138.193	0.151	0.017
-606.171	-143.516	-0.267	-0.025
-605.157	-200.000	-0.006	-0.180
-604.142	64.761	0.158	-0.159
-603.128	721.044	-0.048	-0.129
-602.113	123.273	0.177	-0.222
-601.098	115.443	-0.245	-0.300
-600.084	135.780	0.095	0.124
-599.069	-200.000	-0.017	0.185
-598.055	63.015	-0.037	-0.037
-597.040	-3.616	0.137	0.095
-596.025	488.729	-0.053	0.122
-595.011	-85.259	-0.086	-0.027
-593.996	-64.466	0.278	0.113
-592.982	118.538	-0.059	-0.073
-591.967	-123.334	0.138	0.022
-590.952	163.842	-0.100	0.141
-589.938	-128.880	-0.332	0.047
-588.923	123.791	-0.097	0.122
-587.909	-141.145	-0.197	0.020
-586.894	-110.192	0.160	-0.033
-585.879	800.000	-0.084	0.335
-584.865	350.018	-0.196	0.386
-583.850	-41.161	-0.037	-0.019
-582.836	-123.918	0.267	-0.042
-581.821	-200.000	-0.008	0.128
-580.806	-56.561	-0.308	-0.137
-579.792	276.660	0.032	-0.056
-578.777	44.075	0.084	0.077
-577.763	37.821	0.270	-0.240
-576.748	81.106	-0.132	0.143
-575.733	-14.557	0.078	0.050
-574.719	30.676	0.150	0.128
-573.704	-62.980	0.101	0.042
-572.690	-166.201	-0.460	-0.019
-571.675	127.515	-0.140	-0.177
-570.661	59.264	-0.086	-0.084
-569.646	181.856	0.042	0.061
-568.631	202.920	-0.102	-0.158
-567.617	-148.547	-0.155	-0.013
-566.602	414.803	0.077	-0.165
-565.588	-63.978	-0.383	-0.157
-564.573	540.343	-0.125	-0.297
-563.558	59.765	-0.114	-0.112
-562.544	-200.000	0.007	-0.228
-561.529	-30.690	0.157	-0.089
-560.515	-47.232	-0.174	-0.085
-559.500	-121.371	0.252	0.042
-558.485	-98.361	-0.091	0.023
-557.471	800.000	0.063	-0.188
-556.456	-200.000	0.011	0.099
-555.442	-80.785	0.409	-0.136
-554.427	672.183	-0.132	0.341
-553.412	800.000	-0.060	-0.232
-552.398	629.619	-0.157	-0.396
-551.383	54.593	0.098	-0.094
-550.369	800.000	0.085	-0.301
-549.354	-11.324	0.046	0.030
-548.339	98.882	0.127	0.147
-547.325	136.742	-0.214	-0.279
-546.310	321.072	-0.042	-0.081
-545.296	-41.304	0.132	0.068
-544.281	321.688	-0.122	-0.231
-543.266	-27.792	-0.230	0.133
-542.252	-37.244	0.149	-0.080
-541.237	-78.172	0.072	-0.025
-540.223	800.000	-0.042	-0.120
-539.208	418.580	0.092	-0.196
-538.193	419.972	0.114	0.244
-537.179	97.827	0.313	0.360
-536.164	132.908	0.163	0.209
-535.150	-41.317	0.134	-0.069
-534.135	392.278	-0.044	-0.090
-533.121	145.817	0.092	0.124
-532.106	203.294	-0.056	-0.087
-531.091	573.912	0.125	-0.305
-530.077	-200.000	-0.042	0.190
-529.062	-158.387	-0.165	0.010
-528.048	82.175	0.223	-0.241
-527.033	220.754	-0.024	0.038
-526.018	-28.092	0.249	0.144
-525.004	96.716	0.122	-0.139
-523.989	114.676	0.190	0.231
-522.975	-111.745	-0.111	0.022
-521.960	90.041	0.212	-0.236
-520.945	-50.082	0.173	0.082
-519.931	-103.093	0.334	0.079
-518.916	-200.000	0.018	-0.171
-517.902	-200.000	0.022	-0.112
-516.887	-200.000	-0.034	0.205
-515.872	-119.243	0.171	0.030
-514.858	-150.255	-0.378	-0.029
-513.843	-60.891	-0.112	0.047
-512.829	-24.933	-0.334	0.198
-511.814	-7.154	-0.201	-0.136
-510.799	-200.000	0.032	0.202
-509.785	48.625	-0.296	0.276
-508.770	800.000	-0.016	-0.047
-507.756	496.761	0.093	-0.214
-506.741	800.000	-0.057	0.169
-505.726	800.000	0.007	-0.019
-504.712	98.766	-0.206	0.237
-503.697	50.714	0.119	-0.112
-502.683	149.146	0.103	-0.139
-501.668	-54.248	-0.245	-0.111
-500.653	20.670	0.211	0.170
-499.639	12.563	-0.148	-0.114
-498.624	-55.962	0.129	-0.057
-497.610	-24.311	0.038	0.022
-496.595	47.398	0.105	0.098
-495.581	323.608	-0.124	0.235
-494.566	68.581	0.177	-0.181
-493.551	-200.000	0.007	0.061
-492.537	121.617	0.149	-0.185
-491.522	23.430	0.155	0.127
-490.508	-142.963	0.261	0.025
-489.493	38.092	0.312	-0.277
-488.478	304.682	0.124	-0.229
-487.464	278.080	0.126	0.224
-486.449	513.258	-0.241	0.560
-485.435	-88.050	0.145	-0.044
-484.420	83.506	-0.141	-0.153
-483.405	800.000	-0.010	-0.033
-482.391	47.092	-0.323	0.300
-481.376	-94.998	0.111	0.030
-480.362	-200.000	0.016	-0.080
-479.347	-123.933	0.170	0.027
-478.332	-132.122	0.097	-0.013
-477.318	218.254	-0.213	-0.339
-476.303	-129.590	-0.042	0.006
-475.289	88.708	-0.127	-0.141
-474.274	22.378	-0.056	-0.046
-473.259	-111.159	-0.138	-0.028
-472.245	97.127	-0.212	0.243
-471.230	353.434	-0.063	0.125
-470.216	270.337	0.044	-0.077
-469.201	-51.236	-0.359	0.167
-468.186	800.000	0.109	0.341
-467.172	314.736	0.156	0.293
-466.157	695.537	0.067	-0.176
-465.143	210.814	-0.206	0.322
-464.128	41.214	-0.132	0.119
-463.113	-164.398	0.457	-0.021
-462.099	-103.753	0.162	0.038
-461.084	52.120	0.066	0.063
-460.070	-200.000	-0.007	0.039
-459.055	668.508	-0.025	0.063
-458.040	-200.000	-0.014	-0.081
-457.026	72.458	-0.131	0.135
-456.011	139.492	0.077	0.101
-454.997	43.046	0.289	-0.262
-453.982	-200.000	0.006	0.105
-452.968	32.367	-0.270	0.232
-451.953	22.562	-0.039	0.032
-450.938	64.838	-0.106	-0.107
-449.924	800.000	-0.061	0.202
-448.909	-22.692	-0.138	-0.083
-447.895	28.131	-0.182	-0.153
-446.880	800.000	0.024	0.100
-445.865	-85.061	0.185	0.058
-444.851	-120.123	-0.262	0.045
-443.836	-115.373	-0.351	-0.066
-442.822	214.390	-0.124	0.195
-441.807	-30.001	0.265	-0.150
-440.792	800.000	0.059	-0.213
-439.778	9.163	-0.166	0.124
-438.763	41.224	0.153	0.137
-437.749	466.080	0.101	-0.224
-436.734	800.000	-0.016	0.045
-435.719	-13.131	0.078	0.051
-434.705	-108.079	0.113	-0.024
-433.690	238.146	-0.149	-0.246
-432.676	-10.510	0.205	-0.135
-431.661	-177.430	0.417	0.010
-430.646	-189.446	0.371	0.004
-429.632	800.000	0.088	0.261
-428.617	179.853	-0.074	0.107
-427.603	-63.926	0.151	0.061
-426.588	-106.472	-0.428	-0.095
-425.573	800.000	-0.103	-0.304
-424.559	76.770	0.155	-0.164
-423.544	209.495	0.124	0.193
-422.530	79.368	-0.172	0.183
-421.515	651.860	-0.104	-0.265
-420.500	-93.847	-0.328	-0.090
-419.486	-137.916	0.255	-0.028
-418.471	-155.984	0.377	0.024
-417.457	6.636	-0.448	-0.331
-416.442	800.000	0.018	0.048
-415.428	-8.768	0.195	0.130
-414.413	96.338	-0.091	0.104
-413.398	11.200	-0.201	-0.153
-412.384	550.384	-0.075	-0.178
-411.369	-35.035	0.094	-0.051
-410.355	254.314	0.065	0.110
-409.340	-20.466	0.132	0.081
-408.325	-105.203	-0.324	0.073
-407.311	149.819	-0.063	0.085
-406.296	45.958	0.119	0.109
-405.282	273.694	-0.024	-0.042
-404.267	47.796	0.204	-0.189
-403.252	184.044	-0.265	-0.389
-402.238	676.643	0.106	-0.273
-401.223	-200.000	-0.023	0.313
-400.209	189.375	-0.250	0.372
-399.194	-76.451	0.244	0.085
-398.179	137.426	-0.039	-0.051
-397.165	-200.000	0.062	-0.293
-396.150	174.627	0.101	-0.145
-395.136	-200.000	-0.030	0.171
-394.121	94.552	0.304	-0.343
-393.106	113.030	-0.159	0.191
-392.092	-150.135	0.341	0.026
-391.077	178.225	-0.159	0.230
-390.063	115.030	0.072	0.088
-389.048	53.627	0.120	0.115
-388.033	-200.000	-0.024	0.242
-387.019	-3.510	-0.083	0.057
-386.004	800.000	-0.065	-0.229
-384.990	-74.745	-0.078	0.028
-383.975	-29.456	0.112	0.064
-382.960	-95.427	-0.155	-0.041
-381.946	-200.000	-0.009	-0.140
-380.931	-131.132	0.124	0.016
-379.917	683.157	0.015	0.038
-378.902	2.420	0.086	-0.062
-377.888	-97.934	-0.255	-0.065
-376.873	-200.000	-0.025	0.262
-375.858	-200.000	-0.008	0.375
-374.844	-200.000	-0.009	0.066
-373.829	-80.208	-0.447	-0.148
-372.815	-127.859	0.199	0.028
-371.800	-45.718	0.338	0.166
-370.785	-47.575	-0.310	0.149
-369.771	-174.892	0.144	-0.004
-368.756	45.686	0.177	-0.162
-367.742	-200.000	0.035	0.276
-366.727	91.956	-0.167	0.186
-365.712	-100.163	-0.089	-0.022
-364.698	65.392	0.069	-0.069
-363.683	-14.036	0.019	0.012
-362.669	397.473	-0.060	0.125
-361.654	91.138	-0.160	-0.178
-360.639	-18.273	0.160	0.099
-359.625	-117.449	0.194	0.035
-358.610	-15.899	-0.102	-0.065
-357.596	-130.184	-0.189	-0.026
-356.581	9.541	-0.167	0.125
-355.566	461.756	0.040	0.089
-354.552	-166.257	0.162	0.007
-353.537	800.000	-0.041	0.163
-352.523	-5.092	-0.240	-0.164
-351.508	179.000	-0.059	-0.085
-350.493	-101.653	0.163	0.039
-349.479	-75.120	-0.266	0.094
-348.464	95.678	0.073	-0.083
-347.450	143.172	-0.090	0.119
-346.435	128.367	-0.096	-0.121
-345.420	195.563	0.102	-0.154
-344.406	-73.513	-0.247	0.089
-343.391	-150.633	0.186	0.014
-342.377	-29.692	0.020	-0.012
-341.362	-47.871	-0.204	-0.098
-340.348	-105.976	-0.340	-0.076
-339.333	-93.044	0.170	-0.047
-338.318	-62.545	-0.234	0.096
-337.304	274.075	0.158	-0.276
-336.289	-109.459	0.435	-0.091
-335.275	18.406	0.167	-0.132
-334.260	-59.629	-0.220	-0.093
-333.245	43.262	-0.116	-0.105
-332.231	498.869	-0.122	-0.278
-331.216	-200.000	-0.063	-0.289
-330.202	94.206	0.234	-0.263
-329.187	126.376	0.078	0.098
-328.172	-40.457	-0.083	-0.043
-327.158	63.208	-0.135	0.134
-326.143	14.630	0.274	-0.212
-325.129	13.953	0.123	0.095
-324.114	17.222	-0.326	-0.256
-323.099	636.036	-0.078	-0.196
-322.085	-109.674	-0.156	-0.033
-321.070	-1.521	0.165	0.115
-320.056	800.000	-0.052	-0.210
-319.041	180.085	0.183	-0.266
-318.026	-66.916	-0.345	0.135
-317.012	-200.000	-0.100	0.580
-315.997	-45.700	0.147	-0.072
-314.983	-43.925	-0.223	-0.111
-313.968	22.997	0.108	-0.087
-312.953	800.000	0.030	0.114
-311.939	-46.887	0.469	0.227
-310.924	209.576	-0.097	0.151
-309.910	800.000	0.026	-0.090
-308.895	-200.000	-0.064	-0.330
-307.880	205.143	-0.136	0.209
-306.866	800.000	0.088	-0.374
-305.851	-200.000	0.010	-0.117
-304.837	800.000	0.087	-0.280
-303.822	-109.682	-0.603	-0.126
-302.807	-200.000	-0.028	-0.165
-301.793	-200.000	0.007	0.275
-300.778	-29.203	-0.122	0.069
-299.764	257.751	0.026	0.044
-298.749	217.503	0.074	0.117
-297.735	-59.044	-0.174	0.074
-296.720	-200.000	-0.004	0.115
-295.705	109.056	0.251	0.297
-294.691	400.102	0.102	0.211
-293.676	-136.064	0.209	0.024
-292.662	-53.089	0.085	0.038
-291.647	800.000	-0.049	-0.168
-290.632	64.360	0.140	0.139
-289.618	-15.852	0.117	0.074
-288.603	231.441	0.151	0.244
-287.589	-151.722	0.211	0.015
-286.574	800.000	-0.029	-0.081
-285.559	112.735	-0.176	0.211
-284.545	412.291	-0.053	0.112
-283.530	-82.918	-0.342	-0.109
-282.516	316.403	0.128	0.238
-281.501	-137.569	0.263	-0.029
-280.486	-61.125	-0.266	0.111
-279.472	-51.680	0.123	-0.057
-278.457	-200.000	0.063	-0.348
-277.443	800.000	-0.046	0.179
-276.428	-175.724	-0.402	0.011
-275.413	79.435	-0.339	0.359
-274.399	106.394	-0.148	-0.174
-273.384	-149.811	-0.229	0.018
-272.370	94.940	-0.294	-0.330
-271.355	800.000	-0.044	-0.121
-270.340	-65.250	-0.140	-0.056
-269.326	24.069	-0.169	-0.138
-268.311	-1.606	-0.054	-0.037
-267.297	-200.000	0.017	-0.229
-266.282	-200.000	0.021	0.400
-265.267	800.000	0.081	0.271
-264.253	-200.000	0.068	-0.317
-263.238	-200.000	-0.016	-0.076
-262.224	-30.558	0.414	-0.232
-261.209	-194.443	-0.347	-0.003
-260.195	800.000	0.069	-0.191
-259.180	49.963	-0.220	-0.205
-258.165	542.791	0.017	0.039
-257.151	98.930	0.228	0.260
-256.136	15.538	-0.038	-0.029
-255.122	214.294	-0.013	0.020
-254.107	-174.999	-0.291	-0.008
-253.092	-55.111	0.128	0.057
-252.078	239.110	-0.198	0.325
-251.063	-130.389	0.488	0.065
-250.049	33.649	-0.156	0.134
-249.034	800.000	-0.011	-0.031
-248.019	296.756	0.060	0.109
-247.005	676.486	0.056	0.145
-245.990	401.942	-0.044	0.091
-244.976	171.243	-0.188	-0.267
-243.961	-159.374	0.159	-0.009
-242.946	30.810	0.154	-0.130
-241.932	305.660	0.102	-0.187
-240.917	-39.066	-0.152	0.079
-239.903	225.464	0.146	-0.234
-238.888	417.597	0.145	-0.306
-237.873	-168.248	0.144	-0.005
-236.859	-135.449	0.392	-0.046
-235.844	-72.339	-0.254	-0.093
-234.830	-200.000	-0.031	0.164
-233.815	-200.000	0.033	0.244
-232.800	-200.000	-0.019	0.090
-231.786	-9.321	0.121	0.080
-230.771	-120.543	0.226	-0.038
-229.757	29.361	0.203	-0.170
-228.742	51.788	-0.262	0.245
-227.727	450.197	-0.048	-0.104
-226.713	-76.230	-0.198	0.069
-225.698	20.192	-0.242	0.192
-224.684	628.105	0.052	0.128
-223.669	-200.000	0.006	-0.065
-222.655	3.500	0.261	-0.188
-221.640	800.000	-0.017	0.058
-220.625	-97.655	0.354	0.090
-219.611	463.388	-0.133	-0.294
-218.596	25.586	-0.143	-0.117
-217.582	49.489	-0.144	-0.134
-216.567	429.535	0.131	-0.280
-215.552	365.750	-0.167	0.332
-214.538	280.570	-0.093	-0.164
-213.523	663.289	0.246	0.625
-212.509	-55.663	0.264	-0.117
-211.494	800.000	-0.082	-0.271
-210.479	800.000	-0.057	0.222
-209.465	-200.000	-0.012	-0.339
-208.450	-200.000	-0.008	-0.145
-207.436	-200.000	-0.019	0.091
-206.421	-200.000	0.019	0.108
-205.406	-11.928	-0.070	0.045
-204.392	-200.000	-0.012	0.569
-203.377	800.000	-0.010	0.028
-202.363	10.913	-0.145	-0.109
-201.348	-41.654	0.231	0.117
-200.333	800.000	-0.044	0.161
-199.319	-104.407	0.169	-0.038
-198.304	-150.658	-0.070	0.005
-197.290	800.000	-0.083	0.308
-196.275	8.908	0.162	-0.120
-195.260	-21.644	0.174	-0.104
-194.246	-72.722	-0.262	-0.095
-193.231	-151.827	0.773	0.056
-192.217	-200.000	0.001	0.021
-191.202	-58.266	-0.156	0.067
-190.187	-156.176	-0.209	-0.013
-189.173	-200.000	-0.010	-0.220
-188.158	-29.204	-0.069	0.039
-187.144	-51.726	0.194	-0.089
-186.129	-200.000	0.129	0.590
-185.114	214.749	0.158	0.246
-184.100	22.173	-0.168	-0.135
-183.085	-200.000	-0.025	-0.217
-182.071	252.598	-0.089	-0.150
-181.056	-200.000	-0.211	-0.000
-180.042	-42.511	-0.087	-0.043
-179.027	13.024	-0.147	-0.112
-178.012	39.748	-0.181	0.160
-176.998	-54.007	0.327	0.147
-175.983	327.814	-0.054	0.102
-174.969	-200.000	-0.003	-0.299
-173.954	-12.591	0.291	-0.187
-172.939	24.016	0.279	-0.227
-171.925	-25.904	0.114	-0.066
-170.910	53.357	0.149	-0.140
-169.896	800.000	0.068	-0.243
-168.881	161.621	0.023	0.031
-167.866	-159.472	0.137	0.008
-166.852	388.532	-0.048	0.098
-165.837	176.004	-0.072	-0.103
-164.823	-200.000	-0.012	0.128
-163.808	-37.951	0.102	0.053
-162.793	80.849	0.054	0.057
-161.779	-142.127	0.220	0.021
-160.764	73.679	0.059	-0.060
-159.750	77.954	-0.053	0.056
-158.735	-70.253	-0.255	0.095
-157.720	-200.000	-0.014	-0.108
-156.706	800.000	0.009	-0.036
-155.691	-48.411	0.085	-0.040
-154.677	328.356	-0.028	-0.053
-153.662	69.808	-0.134	-0.135
-152.647	-138.081	0.287	-0.031
-151.633	197.165	0.081	0.121
-150.618	-164.475	0.249	-0.011
-149.604	-125.166	0.219	0.033
-148.589	-122.684	0.228	-0.036
-147.574	800.000	0.118	-0.326
-146.560	-76.000	-0.163	-0.057
-145.545	-200.000	-0.047	0.406
-144.531	-90.422	0.076	-0.022
-143.516	-78.483	-0.069	0.023
-142.502	-72.374	-0.262	-0.095
-141.487	-0.062	0.166	0.116
-140.472	31.364	-0.225	0.190
-139.458	-97.259	0.181	0.046
-138.443	651.889	0.014	-0.035
-137.429	-43.876	0.135	-0.067
-136.414	154.313	0.207	0.279
-135.399	4.660	-0.339	-0.245
-134.385	-20.654	-0.105	0.063
-133.370	-23.431	-0.202	-0.119
-132.356	800.000	0.044	0.176
-131.341	-5.362	0.100	0.068
-130.326	-9.678	0.235	0.154
-129.312	71.979	-0.030	-0.031
-128.297	233.559	-0.072	-0.117
-127.283	-36.341	0.090	-0.048
-126.268	-92.292	0.161	0.045
-125.253	-153.804	0.136	0.009
-124.239	138.839	0.282	-0.363
-123.224	-169.352	0.228	-0.008
-122.210	82.493	0.032	-0.034
-121.195	-200.000	0.014	0.133
-120.180	18.833	-0.049	0.039
-119.166	364.796	-0.131	0.258
-118.151	34.894	0.123	-0.106
-117.137	-200.000	0.025	-0.170
-116.122	-167.870	-0.300	0.012
-115.107	-60.115	0.048	-0.020
-114.093	42.699	-0.371	-0.332
-113.078	565.358	-0.122	0.289
-112.064	-200.000	-0.048	0.258
-111.049	-0.500	0.179	-0.124
-110.034	171.185	-0.170	-0.239
-109.020	65.340	0.159	-0.158
-108.005	-150.932	0.214	0.016
-106.991	238.228	0.099	-0.161
-105.976	205.413	-0.083	0.126
-104.962	98.073	0.103	-0.117
-103.947	54.830	-0.200	-0.189
-102.932	-26.616	0.193	0.111
-101.918	-200.000	-0.019	0.124
-100.903	800.000	0.094	-0.260
-99.889	-42.320	0.300	0.151
-98.874	317.499	-0.149	-0.276
-97.859	206.709	0.109	0.167
-96.845	-8.716	0.020	0.013
-95.830	475.986	-0.046	0.103
-94.816	438.175	-0.132	-0.283
-93.801	300.771	0.074	0.133
-92.786	800.000	-0.044	0.123
-91.772	-116.464	0.213	-0.039
-90.757	-200.000	-0.030	-0.152
-89.743	516.057	0.066	-0.152
-88.728	-62.922	0.391	-0.159
-87.713	-82.430	-0.097	-0.031
-86.699	-161.199	0.513	-0.026
-85.684	-76.832	-0.192	-0.066
-84.670	-200.000	0.033	-0.310
-83.655	800.000	0.088	-0.249
-82.640	-111.335	0.273	-0.055
-81.626	-95.441	0.291	-0.077
-80.611	-124.656	0.415	0.063
-79.597	574.028	-0.031	-0.074
-78.582	172.377	-0.080	-0.113
-77.567	71.342	-0.033	0.034
-76.553	176.335	-0.188	0.268
-75.538	-200.000	-0.045	-0.340
-74.524	-200.000	-0.019	-0.124
-73.509	137.788	0.261	-0.336
-72.494	20.615	-0.236	0.188
-71.480	437.792	-0.221	-0.472
-70.465	-200.000	0.012	0.395
-69.451	-111.290	0.177	-0.035
-68.436	65.110	-0.269	0.267
-67.422	-148.236	-0.231	0.019
-66.407	-200.000	0.022	0.122
-65.392	38.412	0.078	-0.068
-64.378	-200.000	0.019	0.184
-63.363	-140.027	-0.266	0.027
-62.349	666.300	0.108	-0.272
-61.334	62.703	-1.159	-1.135
-60.319	79.660	0.469	0.493
-59.305	-200.000	-0.197	-1.011
-58.290	250.970	0.634	1.055
-57.276	800.000	0.480	1.988
-56.261	-200.000	111.308	644.600
-55.246	488.469	1486.022	3324.655
-54.232	151.229	2643.701	3524.197
-53.217	107.105	2135.653	2485.621
-52.203	39.601	1594.987	1400.617
-51.188	31.542	1344.443	1132.040
-50.173	28.752	1306.483	1083.602
-49.159	56.207	1361.564	1295.068
-48.144	55.817	1376.035	1306.440
-47.130	31.900	1332.450	1123.913
-46.115	28.473	1314.680	1088.571
-45.100	28.270	1310.031	1083.478
-44.086	28.181	1307.815	1081.076
-43.071	28.192	1305.779	1079.419
-42.057	28.065	1303.967	1077.127
-41.042	28.086	1302.548	1076.038
-40.027	28.293	1300.385	1075.425
-39.013	28.255	1298.595	1073.676
-37.998	28.187	1296.990	1071.909
-36.984	28.294	1294.894	1070.762
-35.969	28.269	1293.114	1069.102
-34.954	28.332	1291.245	1067.879
-33.940	28.301	1289.832	1066.489
-32.925	28.253	1289.133	1065.585
-31.911	28.405	1287.378	1064.976
-30.896	28.325	1286.803	1063.995
-29.881	28.363	1285.246	1062.888
-28.867	28.454	1283.117	1061.610
-27.852	28.419	1281.654	1060.153
-26.838	28.370	1280.783	1059.109
-25.823	28.334	1279.645	1057.917
-24.809	28.396	1277.731	1056.652
-23.794	28.394	1276.694	1055.745
-22.779	28.423	1275.199	1054.629
-21.765	28.499	1273.576	1053.680
-20.750	28.346	1272.811	1052.129
-19.736	28.306	1271.213	1050.536
-18.721	28.333	1270.054	1049.694
-17.706	28.419	1268.420	1048.795
-16.692	28.399	1267.938	1048.240
-15.677	28.229	1267.215	1046.626
-14.663	28.372	1265.755	1046.195
-13.648	28.260	1264.754	1044.686
-12.633	28.109	1264.526	1043.599
-11.619	28.249	1263.059	1043.143
-10.604	28.297	1261.936	1042.445
-9.590	28.266	1261.009	1041.465
-8.575	28.223	1259.930	1040.286
-7.560	28.323	1259.213	1040.218
-6.546	28.195	1258.601	1038.951
-5.531	28.249	1257.867	1038.606
-4.517	28.197	1256.921	1037.489
-3.502	28.252	1256.038	1037.032
-2.487	28.226	1254.976	1035.967
-1.473	28.237	1250.491	1032.282
-0.458	26.552	1235.853	1010.763
0.556	21.423	1218.994	972.909
1.571	17.661	1224.866	956.436
2.586	16.888	1239.681	963.528
3.600	16.853	1228.756	954.753
4.615	14.963	1162.305	892.962
5.629	11.175	1094.493	821.717
6.644	9.268	1077.456	799.379
7.659	9.053	1075.457	796.759
8.673	9.026	1073.807	795.330
9.688	9.003	1072.591	794.243
10.702	9.223	1070.835	793.963
11.717	11.613	1073.098	807.391
12.731	15.319	1078.363	829.647
13.746	17.458	1080.755	842.010
14.761	17.420	1080.077	841.215
15.775	16.437	1077.548	834.320
16.790	15.420	1075.949	827.993
17.804	14.610	1074.297	822.657
18.819	14.163	1073.046	819.426
19.834	14.052	1071.739	817.810
20.848	13.726	1071.554	815.992
21.863	13.478	1070.558	813.942
22.877	13.416	1069.498	812.759
23.892	13.470	1068.827	812.441
24.907	13.425	1068.107	811.604
25.921	13.504	1066.876	810.985
26.936	13.411	1066.084	809.856
27.950	13.477	1064.287	808.742
28.965	13.494	1062.949	807.733
29.980	13.713	1061.060	807.296
30.994	13.675	1059.788	806.071
32.009	13.726	1059.163	805.771
33.023	13.760	1057.725	804.774
34.038	13.534	1056.850	802.937
35.053	13.648	1055.764	802.594
36.067	13.528	1055.259	801.560
37.082	13.578	1054.553	801.194
38.096	13.614	1053.934	800.828
39.111	13.456	1053.048	799.318
40.126	13.471	1051.567	798.196
41.140	13.352	1050.482	796.731
42.155	13.326	1049.011	795.420
43.169	13.470	1048.036	795.299
44.184	13.226	1047.242	793.455
45.199	13.321	1046.361	793.174
46.213	13.412	1045.080	792.569
47.228	13.400	1043.939	791.577
48.242	13.481	1042.742	790.987
49.257	13.379	1042.256	790.059
50.271	13.518	1041.358	789.974
51.286	13.563	1040.213	789.249
52.301	13.414	1039.624	788.023
53.315	13.457	1037.789	786.764
54.330	13.396	1036.813	785.665
55.344	13.399	1036.480	785.361
56.359	13.400	1035.201	784.328
57.374	13.448	1034.608	784.033
58.388	13.471	1033.529	783.256
59.403	13.356	1032.628	781.960
60.417	13.394	1031.684	781.353
61.432	13.264	1031.594	780.602
62.447	13.320	1030.396	779.895
63.461	13.281	1029.549	779.000
64.476	13.297	1028.494	778.208
65.490	13.244	1027.481	777.121
66.505	13.308	1027.427	777.315
67.520	13.295	1026.436	776.433
68.534	13.328	1025.845	776.075
69.549	13.318	1024.983	775.305
70.563	13.204	1024.277	774.170
71.578	13.205	1023.537	773.544
72.593	13.176	1022.865	772.833
73.607	13.145	1022.395	772.267
74.622	13.183	1021.536	771.726
75.636	13.131	1021.224	771.179
76.651	13.318	1019.804	770.909
77.666	13.316	1019.060	770.272
78.680	13.199	1018.570	769.289
79.695	13.331	1018.384	769.691
80.709	13.242	1018.076	768.980
81.724	13.291	1017.076	768.383
82.739	13.507	1016.066	768.555
83.753	13.546	1015.419	768.177
84.768	13.615	1014.143	767.466
85.782	13.593	1013.840	767.063
86.797	13.563	1012.940	766.177
87.812	13.435	1011.969	764.783
88.826	13.519	1010.987	764.363
89.841	13.483	1009.744	763.189
90.855	13.540	1008.796	762.667
91.870	13.600	1007.968	762.249
92.884	13.556	1007.251	761.439
93.899	13.630	1006.185	760.904
94.914	13.635	1005.560	760.387
95.928	13.678	1004.766	759.917
96.943	13.475	1004.313	758.577
97.957	13.585	1002.989	758.012
98.972	13.600	1002.310	757.501
99.987	13.645	1001.762	757.225
101.001	13.539	1000.459	755.691
102.016	13.711	999.121	755.396
103.030	13.552	998.890	754.429
104.045	13.607	998.006	753.946
105.060	13.548	997.398	753.154
106.074	13.478	996.097	751.785
107.089	13.319	995.802	750.774
108.103	13.359	994.225	749.701
109.118	13.309	993.269	748.685
110.133	13.360	992.878	748.558
111.147	13.340	991.789	747.579
112.162	13.450	990.653	747.152
113.176	13.502	990.273	747.033
114.191	13.622	989.511	746.933
115.206	13.443	988.823	745.541
116.220	13.443	987.718	744.644
117.235	13.486	986.425	743.799
118.249	13.497	985.970	743.437
119.264	13.407	985.608	742.696
120.279	13.474	984.527	742.116
121.293	13.370	983.720	740.976
122.308	13.402	982.968	740.487
123.322	13.398	981.788	739.513
124.337	13.327	981.039	738.568
125.352	13.453	979.656	738.023
126.366	13.317	978.697	736.629
127.381	13.389	977.483	735.971
128.395	13.323	977.013	735.259
129.410	13.554	975.898	735.381
130.424	13.408	974.959	733.957
131.439	13.383	974.706	733.592
132.454	13.357	973.830	732.753
133.468	13.458	972.673	732.263
134.483	13.567	971.817	732.039
135.497	13.604	970.463	731.118
136.512	13.486	970.013	730.190
137.527	13.505	968.936	729.401
138.541	13.551	968.613	729.296
139.556	13.534	967.807	728.549
140.570	13.567	967.508	728.404
141.585	13.723	966.215	728.053
142.600	13.734	965.028	727.139
143.614	13.804	964.590	727.053
144.629	13.714	964.068	726.203
145.643	13.589	963.156	724.904
146.658	13.646	962.222	724.384
147.673	13.699	960.865	723.529
148.687	13.699	960.116	722.902
149.702	13.477	959.619	721.499
150.716	13.484	958.987	720.990
151.731	13.682	957.762	720.864
152.746	13.771	956.832	720.489
153.760	13.704	956.545	719.919
154.775	13.487	956.573	718.930
155.789	13.682	955.390	718.824
156.804	13.787	954.435	718.498
157.819	13.725	954.412	718.149
158.833	13.908	953.440	718.143
159.848	13.880	952.742	717.433
160.862	13.811	951.550	716.175
161.877	13.674	950.229	714.528
162.892	13.575	949.595	713.561
163.906	13.568	949.043	713.051
164.921	13.740	947.714	712.731
165.935	13.738	946.825	711.990
166.950	13.910	946.099	712.121
167.964	13.866	944.889	710.956
168.979	13.765	944.434	710.119
169.994	13.860	942.970	709.361
171.008	13.763	943.263	709.106
172.023	13.907	942.225	708.879
173.037	13.997	941.332	708.526
174.052	13.913	940.861	707.753
175.067	13.739	940.279	706.509
176.081	13.793	939.533	706.116
177.096	13.795	938.871	705.565
178.110	13.869	938.255	705.355
179.125	13.862	937.367	704.592
180.140	13.863	936.976	704.240
181.154	13.979	936.636	704.414
182.169	14.084	935.861	704.216
183.183	13.923	935.533	703.224
184.198	14.033	934.693	702.995
185.213	14.001	933.868	702.178
186.227	14.101	933.378	702.171
187.242	14.021	933.010	701.492
188.256	14.125	932.076	701.169
189.271	14.188	931.289	700.778
190.286	13.877	930.870	699.093
191.300	13.712	930.203	697.834
192.315	13.863	929.104	697.583
193.329	14.026	928.554	697.793
194.344	13.924	927.835	696.763
195.359	14.080	927.059	696.774
196.373	14.064	926.913	696.535
197.388	14.195	926.181	696.471
198.402	14.210	925.822	696.203
199.417	14.267	925.611	696.221
200.432	14.248	924.610	695.328
201.446	14.355	924.255	695.444
202.461	14.325	923.734	694.865
203.475	14.468	922.563	694.520
204.490	14.233	922.363	693.327
205.504	14.306	921.316	692.785
206.519	14.135	921.163	691.896
207.534	14.264	920.328	691.743
208.548	14.310	919.342	691.132
209.563	14.396	918.621	690.887
210.577	14.309	917.976	689.981
211.592	14.369	917.739	689.987
212.607	14.398	917.081	689.554
213.621	14.486	915.999	689.042
214.636	14.387	915.348	688.083
215.650	14.576	914.633	688.264
216.665	14.530	913.518	687.175
217.680	14.498	913.608	687.051
218.694	14.658	912.588	686.881
219.709	14.634	911.865	686.175
220.723	14.592	911.181	685.431
221.738	14.438	910.538	684.254
222.753	14.483	910.157	684.090
223.767	14.496	909.941	683.919
224.782	14.728	909.063	684.149
225.796	14.639	908.378	683.210
226.811	14.673	907.933	682.953
227.826	14.534	907.075	681.679
228.840	14.590	906.390	681.334
229.855	14.662	905.276	680.729
230.869	14.724	904.532	680.362
231.884	14.525	904.242	679.272
232.899	14.588	903.097	678.611
233.913	14.476	902.785	677.860
234.928	14.636	901.907	677.791
235.942	14.654	901.230	677.293
236.957	14.530	900.773	676.388
237.972	14.708	900.240	676.650
238.986	14.674	899.386	675.811
240.001	14.550	899.050	674.995
241.015	14.670	898.136	674.735
242.030	14.623	897.751	674.198
243.045	14.640	897.200	673.791
244.059	14.764	896.437	673.658
245.074	14.708	896.111	673.128
246.088	14.780	895.188	672.665
247.103	14.809	894.528	672.227
248.117	14.845	894.116	672.004
249.132	15.056	893.496	672.327
250.147	15.089	892.949	671.988
251.161	15.105	892.052	671.315
252.176	15.071	891.838	670.958
253.190	15.102	891.006	670.398
254.205	15.139	890.331	669.979
255.220	15.174	889.683	669.571
256.234	15.094	889.078	668.737
257.249	15.261	888.231	668.709
258.263	15.191	887.622	667.912
259.278	15.133	887.195	667.302
260.293	15.189	886.564	666.991
261.307	15.207	885.932	666.526
262.322	15.380	884.731	666.251
263.336	15.308	884.498	665.730
264.351	15.190	883.816	664.689
265.366	15.505	882.815	665.126
266.380	15.373	882.474	664.289
267.395	15.399	881.578	663.658
268.409	15.354	881.307	663.217
269.424	15.514	879.857	662.699
270.439	15.541	879.220	662.267
271.453	15.312	878.535	660.789
272.468	15.356	878.271	660.706
273.482	15.266	877.845	659.972
274.497	15.312	877.208	659.616
275.512	15.340	876.803	659.362
276.526	15.293	876.388	658.810
277.541	15.390	875.618	658.552
278.555	15.504	875.172	658.605
279.570	15.547	874.388	658.125
280.585	15.631	873.312	657.589
281.599	15.512	872.949	656.789
282.614	15.580	872.035	656.311
283.628	15.516	871.504	655.601
284.643	15.650	871.072	655.742
285.657	15.579	870.685	655.116
286.672	15.623	870.004	654.718
287.687	15.540	869.213	653.739
288.701	15.694	868.356	653.638
289.716	15.712	867.868	653.281
290.730	15.600	867.636	652.615
291.745	15.678	866.737	652.182
292.760	15.728	866.646	652.250
293.774	15.668	865.882	651.384
294.789	15.637	865.508	650.928
295.803	15.775	864.556	650.685
296.818	15.667	863.927	649.737
297.833	15.794	863.080	649.533
298.847	15.798	862.386	648.970
299.862	15.787	861.973	648.558
300.876	15.815	861.336	648.130
301.891	15.818	861.155	647.947
302.906	15.751	860.711	647.298
303.920	15.858	859.878	647.029
304.935	15.968	859.364	647.004
305.949	15.994	858.595	646.468
306.964	16.082	857.918	646.240
307.979	15.919	857.838	645.495
308.993	15.932	857.195	645.007
310.008	16.170	856.304	645.190
311.022	15.937	856.168	644.139
312.037	16.090	854.945	643.744
313.052	15.905	854.264	642.469
314.066	15.952	853.778	642.225
315.081	15.953	853.547	641.999
316.095	15.879	852.905	641.178
317.110	15.809	852.545	640.586
318.125	16.045	851.741	640.821
319.139	16.072	851.224	640.476
320.154	16.046	850.586	639.842
321.168	16.015	850.152	639.341
322.183	16.129	849.549	639.265
323.197	15.986	849.631	638.728
324.212	15.980	849.052	638.213
325.227	16.011	848.603	637.936
326.241	16.156	847.466	637.572
327.256	16.020	846.893	636.570
328.270	16.223	846.282	636.821
329.285	16.160	845.634	636.041
330.300	16.039	845.438	635.379
331.314	16.053	844.888	634.964
332.329	16.070	844.570	634.731
333.343	16.066	844.328	634.480
334.358	15.999	843.790	633.767
335.373	16.193	842.988	633.836
336.387	16.313	842.936	634.193
337.402	16.317	842.533	633.847
338.416	16.395	842.009	633.691
339.431	16.371	841.956	633.506
340.446	16.317	841.258	632.720
341.460	16.448	840.983	632.950
342.475	16.362	840.946	632.545
343.489	16.562	840.111	632.609
344.504	16.487	839.608	631.894
345.519	16.676	838.886	631.999
346.533	16.552	838.597	631.261
347.548	16.592	838.081	630.969
348.562	16.356	837.541	629.625
349.577	16.444	836.637	629.218
350.592	16.452	836.050	628.751
351.606	16.368	835.629	628.064
352.621	16.547	834.617	627.912
353.635	16.534	833.913	627.282
354.650	16.502	833.463	626.770
355.665	16.642	833.035	626.909
356.679	16.630	832.235	626.206
357.694	16.612	831.631	625.631
358.708	16.646	830.774	625.056
359.723	16.724	830.373	624.988
360.738	16.588	829.908	624.080
361.752	16.644	829.155	623.665
362.767	16.781	828.742	623.803
363.781	16.778	827.998	623.180
364.796	16.705	827.736	622.658
365.810	16.861	827.897	623.298
366.825	16.779	827.766	622.843
367.840	16.948	826.855	622.720
368.854	16.949	826.301	622.255
369.869	16.743	826.190	621.360
370.883	16.849	825.355	621.066
371.898	16.861	825.312	621.021
372.913	17.007	824.488	620.881
373.927	17.097	824.088	620.853
374.942	16.925	823.905	620.033
375.956	17.003	823.337	619.836
376.971	17.109	822.711	619.693
377.986	17.079	822.529	619.395
379.000	17.161	821.600	618.938
380.015	16.956	821.346	617.944
381.029	17.172	820.646	618.150
382.044	17.187	819.912	617.597
383.059	17.157	819.636	617.224
384.073	17.228	818.635	616.675
385.088	17.043	818.577	615.904
386.102	17.132	817.221	615.152
387.117	17.207	816.699	614.978
388.132	17.121	816.388	614.378
389.146	17.082	816.372	614.171
390.161	17.227	815.465	613.956
391.175	17.189	814.637	613.142
392.190	17.307	814.584	613.473
393.205	17.311	814.036	613.020
394.219	17.069	813.605	611.771
395.234	17.242	813.361	612.156
396.248	17.034	812.842	610.963
397.263	17.145	812.249	610.863
398.278	17.158	812.094	610.738
399.292	17.060	811.755	610.075
400.307	17.113	811.175	609.777
401.321	17.147	810.857	609.604
402.336	17.243	810.250	609.438
403.350	17.227	809.878	609.049
404.365	17.495	809.133	609.394
405.380	17.483	808.754	609.011
406.394	17.473	808.133	608.453
407.409	17.513	807.741	608.247
408.423	17.470	807.704	608.014
409.438	17.622	807.129	608.068
410.453	17.464	806.555	607.019
411.467	17.552	806.409	607.168
412.482	17.553	805.994	606.807
413.496	17.694	805.576	606.940
414.511	17.675	805.293	606.607
415.526	17.585	804.798	605.861
416.540	17.622	804.175	605.469
417.555	17.578	803.784	604.964
418.569	17.624	803.312	604.718
419.584	17.868	802.725	605.089
420.599	17.689	802.484	604.219
421.613	111.169	1294.934	1476.380
422.628	95.806	1366.652	1476.460
