DTS Sentinel unit serial number:	SN413079Multiplexer serial number:	ORYXHardware model number:	OX4-SRSoftware version number:	ORYX F/W v4.00 Oryx Data Collector v3.7.2.0data status	okinstallation	princeton_trtdifferential loss correction	single-endedforward channel	channel 1reverse channel	N/Adate	2019/09/15time	21:30:35forward acquisition time	60.00reverse acquisition time	0.00gamma	496.2192k internal	0.2329k external	0.2329temperature offset calibration	0.9964default loss term (dB/km)	0.3790temperature slope calibration	1.0000multiplexer offset coefficient	1.0000multiplexer slope coefficient	1.0000fibre end	0.00T internal ref (°C)	30.72T ext. ref 1 (°C)	8.30T ext. ref 2 (°C)	23.68length (m)	temperature (°C)	Stokes	anti-Stokes-747.200	-200.000	-0.010	-0.083
-746.185	376.019	-0.121	0.249
-745.171	-186.421	-0.142	-0.002
-744.156	471.519	-0.014	-0.033
-743.142	-33.501	-0.172	0.096
-742.127	-167.602	-0.013	-0.001
-741.112	800.000	-0.055	0.201
-740.098	166.938	-0.232	0.332
-739.083	8.093	-0.071	0.054
-738.069	613.652	0.050	0.125
-737.054	-121.518	-0.160	-0.027
-736.039	641.874	0.083	0.214
-735.025	-200.000	0.076	0.366
-734.010	-180.753	-0.278	-0.006
-732.996	-45.079	-0.189	0.095
-731.981	214.079	0.119	0.189
-730.966	144.558	0.090	0.120
-729.952	13.524	-0.343	0.268
-728.937	-122.321	0.138	0.023
-727.923	-154.588	-0.220	0.015
-726.908	-197.534	-0.194	0.001
-725.894	-66.713	-0.517	0.206
-724.879	-200.000	-0.004	0.193
-723.864	-48.576	-0.402	-0.195
-722.850	653.298	-0.132	-0.340
-721.835	-131.137	0.182	0.024
-720.821	-143.730	-0.291	0.028
-719.806	-16.290	-0.256	-0.164
-718.791	-125.503	0.096	0.015
-717.777	40.018	-0.101	0.091
-716.762	-126.095	-0.151	0.023
-715.748	44.546	0.236	0.218
-714.733	-47.536	0.196	0.096
-713.718	433.189	-0.088	-0.192
-712.704	108.373	-0.162	-0.195
-711.689	-61.804	0.319	-0.134
-710.675	417.958	0.077	0.165
-709.660	-162.004	0.042	0.002
-708.645	-84.928	0.195	0.061
-707.631	297.124	0.067	0.123
-706.616	76.267	-0.170	-0.181
-705.602	26.608	0.255	0.215
-704.587	-200.000	-0.064	0.416
-703.572	-91.314	-0.363	0.105
-702.558	93.829	-0.228	-0.260
-701.543	-116.595	-0.145	-0.027
-700.529	800.000	-0.022	-0.073
-699.514	-92.039	-0.248	0.071
-698.499	-200.000	0.023	-0.173
-697.485	13.498	0.038	0.030
-696.470	-200.000	0.040	0.279
-695.456	-64.312	-0.328	-0.134
-694.441	-200.000	0.009	-0.108
-693.426	425.084	-0.092	0.200
-692.412	-84.779	-0.160	0.051
-691.397	-104.524	-0.306	-0.071
-690.383	337.040	0.119	0.233
-689.368	109.507	-0.043	-0.052
-688.354	-137.848	0.354	0.040
-687.339	-16.618	-0.234	0.149
-686.324	-200.000	-0.027	-0.263
-685.310	-143.861	0.220	-0.021
-684.295	176.093	0.029	-0.042
-683.281	393.429	0.008	-0.017
-682.266	-5.481	0.070	0.048
-681.251	-117.363	-0.117	-0.021
-680.237	-25.659	-0.106	0.063
-679.222	20.218	-0.281	0.228
-678.208	192.424	-0.041	0.062
-677.193	-103.430	0.152	0.036
-676.178	-200.000	-0.110	0.561
-675.164	-97.848	0.146	0.038
-674.149	-200.000	0.014	-0.342
-673.135	138.060	-0.175	0.230
-672.120	-200.000	0.037	0.227
-671.105	-128.743	-0.106	0.015
-670.091	-104.546	0.217	-0.050
-669.076	544.705	-0.033	-0.079
-668.062	-193.298	-0.149	-0.001
-667.047	-200.000	0.004	-0.154
-666.032	-70.462	0.316	-0.120
-665.018	15.324	-0.091	-0.072
-664.003	130.226	0.105	-0.135
-662.989	79.748	0.061	0.066
-661.974	-102.268	-0.045	-0.011
-660.959	-43.997	0.253	0.128
-659.945	-1.370	0.262	0.186
-658.930	-155.746	0.177	0.011
-657.916	-135.860	-0.193	0.023
-656.901	135.053	0.194	-0.253
-655.886	-119.303	-0.103	0.018
-654.872	800.000	0.087	-0.246
-653.857	-189.248	-0.164	0.002
-652.843	-6.009	0.146	0.100
-651.828	13.183	0.100	-0.078
-650.814	449.834	0.137	-0.304
-649.799	195.522	-0.179	-0.273
-648.784	-200.000	0.004	0.236
-647.770	32.518	-0.068	0.059
-646.755	-71.634	-0.243	-0.091
-645.741	-200.000	0.051	-0.367
-644.726	-36.996	0.206	0.111
-643.711	-200.000	-0.014	-0.089
-642.697	22.731	0.265	0.218
-641.682	570.560	0.195	0.477
-640.668	43.563	-0.169	0.155
-639.653	-77.593	-0.005	-0.002
-638.638	-200.000	-0.004	-0.270
-637.624	-47.910	-0.212	-0.103
-636.609	-140.210	-0.121	-0.013
-635.595	523.746	0.141	-0.332
-634.580	34.969	0.125	-0.110
-633.565	-122.942	-0.193	0.031
-632.551	169.075	0.164	0.235
-631.536	800.000	-0.107	0.305
-630.522	-200.000	-0.007	-0.099
-629.507	-64.970	0.373	-0.151
-628.492	-131.215	-0.095	-0.013
-627.478	381.410	0.094	-0.193
-626.463	800.000	-0.107	0.324
-625.449	135.376	0.181	0.236
-624.434	240.251	-0.045	0.075
-623.419	81.211	-0.143	0.155
-622.405	-141.485	-0.124	0.013
-621.390	800.000	-0.027	0.080
-620.376	138.209	0.031	-0.041
-619.361	-62.530	-0.235	-0.098
-618.346	-18.471	-0.069	-0.043
-617.332	-200.000	0.000	0.070
-616.317	-89.198	0.360	-0.107
-615.303	-152.954	-0.482	-0.034
-614.288	-28.765	-0.163	0.094
-613.273	800.000	-0.004	-0.013
-612.259	574.809	0.050	0.122
-611.244	84.880	-0.097	0.106
-610.230	-200.000	0.010	0.135
-609.215	-77.469	-0.225	0.078
-608.201	-73.764	0.358	-0.130
-607.186	-65.406	-0.053	-0.021
-606.171	337.512	0.046	-0.089
-605.157	-43.634	0.260	0.132
-604.142	-48.889	-0.130	0.063
-603.128	607.229	0.010	0.024
-602.113	589.566	0.081	0.200
-601.098	-53.503	0.277	0.127
-600.084	-118.359	-0.025	-0.004
-599.069	-200.000	0.001	0.102
-598.055	-77.075	-0.525	-0.183
-597.040	7.441	-0.106	-0.079
-596.025	-14.885	0.436	0.280
-595.011	-200.000	0.033	0.245
-593.996	800.000	0.048	-0.202
-592.982	-60.093	0.081	-0.035
-591.967	6.384	0.177	-0.131
-590.952	-122.262	0.312	-0.051
-589.938	109.834	-0.117	0.141
-588.923	151.472	-0.166	0.226
-587.909	44.897	-0.171	-0.157
-586.894	-95.902	0.201	-0.054
-585.879	136.020	0.061	0.080
-584.865	-200.000	-0.017	0.113
-583.850	10.546	-0.369	0.281
-582.836	-200.000	-0.030	-0.330
-581.821	-85.887	0.111	0.034
-580.806	-200.000	-0.026	-0.220
-579.792	-106.857	0.106	-0.024
-578.777	-200.000	0.014	0.180
-577.763	-163.841	0.021	-0.001
-576.748	-114.531	0.168	0.032
-575.733	800.000	-0.055	-0.179
-574.719	-47.223	-0.100	0.049
-573.704	524.604	-0.134	0.316
-572.690	65.273	0.216	0.219
-571.675	-90.210	-0.277	-0.081
-570.661	186.256	0.113	0.168
-569.646	-32.634	-0.334	-0.186
-568.631	13.417	0.123	0.095
-567.617	800.000	-0.066	-0.205
-566.602	-41.589	-0.494	-0.254
-565.588	-73.677	0.188	0.068
-564.573	153.148	0.232	0.317
-563.558	336.401	-0.028	-0.054
-562.544	-200.000	-0.364	0.000
-561.529	-200.000	0.017	0.257
-560.515	800.000	0.035	0.105
-559.500	205.979	0.139	-0.216
-558.485	800.000	-0.072	0.217
-557.471	-200.000	0.081	-0.437
-556.456	16.023	-0.195	0.154
-555.442	46.013	0.221	0.204
-554.427	-43.556	-0.100	0.050
-553.412	-200.000	-0.074	-0.329
-552.398	199.697	-0.020	0.030
-551.383	-115.616	-0.208	0.039
-550.369	305.465	0.092	-0.171
-549.354	-111.819	-0.187	-0.038
-548.339	20.611	0.189	-0.153
-547.325	800.000	0.057	0.218
-546.310	130.859	0.175	0.224
-545.296	346.961	-0.123	-0.242
-544.281	47.291	0.251	0.233
-543.266	-200.000	-0.009	0.112
-542.252	-32.076	0.034	-0.019
-541.237	800.000	0.062	-0.246
-540.223	800.000	-0.037	0.149
-539.208	-200.000	-0.028	0.147
-538.193	800.000	-0.089	-0.309
-537.179	-103.394	-0.357	0.084
-536.164	800.000	-0.140	-0.397
-535.150	294.139	0.058	-0.106
-534.135	601.956	-0.162	0.403
-533.121	-34.140	-0.105	0.058
-532.106	-117.677	0.285	0.051
-531.091	32.956	-0.182	-0.157
-530.077	800.000	-0.062	0.229
-529.062	259.566	0.068	0.117
-528.048	71.615	0.186	0.193
-527.033	-121.721	0.091	-0.015
-526.018	-200.000	-0.012	-0.082
-525.004	133.539	-0.159	0.205
-523.989	-200.000	-0.001	-0.030
-522.975	22.499	0.198	0.162
-521.960	18.716	0.148	0.118
-520.945	104.917	-0.321	0.378
-519.931	506.150	-0.077	0.178
-518.916	46.808	0.215	-0.200
-517.902	-156.766	0.241	0.015
-516.887	-200.000	0.011	-0.312
-515.872	414.994	0.078	-0.167
-514.858	-200.000	-0.054	-0.311
-513.843	-200.000	0.007	0.128
-512.829	-113.958	0.155	-0.030
-511.814	-86.189	0.074	0.023
-510.799	122.247	0.089	-0.111
-509.785	-53.921	0.168	0.077
-508.770	-30.556	-0.262	-0.148
-507.756	-200.000	0.076	-0.352
-506.741	-200.000	-0.006	0.116
-505.726	-89.415	-0.058	-0.017
-504.712	-31.822	0.095	0.053
-503.697	-109.329	0.160	0.034
-502.683	41.778	-0.171	0.155
-501.668	184.887	-0.070	0.103
-500.653	-137.089	0.320	0.036
-499.639	169.696	0.359	0.511
-498.624	-70.810	0.129	0.049
-497.610	800.000	-0.037	0.125
-496.595	420.763	0.062	0.133
-495.581	250.591	0.133	0.226
-494.566	449.607	-0.030	0.065
-493.551	71.969	0.161	-0.167
-492.537	529.233	-0.089	-0.209
-491.522	454.183	0.080	0.178
-490.508	-78.828	0.069	0.023
-489.493	-157.139	-0.178	-0.011
-488.478	-116.084	-0.232	-0.043
-487.464	243.776	-0.061	-0.102
-486.449	-112.306	0.248	0.050
-485.435	81.904	0.154	-0.166
-484.420	-200.000	-0.038	-0.302
-483.405	653.171	-0.058	0.149
-482.391	800.000	0.061	0.225
-481.376	88.431	-0.215	-0.238
-480.362	-200.000	-0.004	-0.243
-479.347	-200.000	-0.026	0.385
-478.332	-125.919	-0.151	0.023
-477.318	-72.289	0.321	-0.119
-476.303	-20.810	-0.043	-0.026
-475.289	-200.000	-0.010	-0.131
-474.274	-129.755	0.070	0.010
-473.259	800.000	-0.081	-0.255
-472.245	-200.000	-0.011	0.232
-471.230	201.411	-0.222	-0.341
-470.216	125.752	0.207	-0.261
-469.201	-179.949	-0.099	0.002
-468.186	-20.149	0.143	0.088
-467.172	235.826	0.166	-0.273
-466.157	-200.000	-0.016	-0.223
-465.143	-134.863	-0.133	0.016
-464.128	-46.022	-0.157	0.077
-463.113	-69.157	-0.095	0.037
-462.099	-101.338	0.109	-0.026
-461.084	-94.551	-0.233	0.063
-460.070	-200.000	-0.015	0.267
-459.055	800.000	0.119	0.482
-458.040	-200.000	-0.067	-0.293
-457.026	-123.172	-0.252	-0.040
-456.011	-200.000	0.007	0.193
-454.997	43.903	-0.235	0.215
-453.982	-200.000	0.014	0.248
-452.968	-167.519	-0.160	-0.006
-451.953	57.751	-0.087	-0.085
-450.938	38.566	0.210	-0.186
-449.924	470.094	0.070	0.156
-448.909	-200.000	-0.001	0.154
-447.895	-104.377	0.123	-0.028
-446.880	96.792	-0.206	0.236
-445.865	151.857	-0.080	-0.108
-444.851	404.130	0.199	-0.418
-443.836	64.441	-0.135	0.135
-442.822	26.582	0.154	-0.128
-441.807	-34.440	0.125	-0.068
-440.792	-102.582	-0.077	0.018
-439.778	-156.856	-0.210	-0.013
-438.763	223.512	-0.207	0.332
-437.749	-192.357	-0.056	0.001
-436.734	800.000	0.072	-0.207
-435.719	418.849	-0.059	0.125
-434.705	149.497	0.203	-0.274
-433.690	-19.195	0.531	0.328
-432.676	-200.000	-0.029	-0.178
-431.661	-200.000	0.044	-0.422
-430.646	280.040	-0.016	-0.028
-429.632	448.665	0.089	-0.194
-428.617	128.251	-0.161	0.204
-427.603	-94.134	0.271	-0.074
-426.588	14.395	-0.074	0.058
-425.573	-94.084	0.232	0.063
-424.559	14.986	-0.309	-0.240
-423.544	-200.000	0.046	-0.367
-422.530	-79.525	0.067	-0.023
-421.515	-200.000	-0.017	0.127
-420.500	-79.449	-0.273	-0.092
-419.486	-45.577	0.150	-0.074
-418.471	394.309	-0.173	0.358
-417.457	-71.164	-0.080	-0.030
-416.442	-12.669	-0.154	-0.100
-415.428	-131.170	0.079	0.010
-414.413	-134.421	-0.213	-0.026
-413.398	364.859	0.074	-0.148
-412.384	-196.143	0.232	-0.002
-411.369	-117.965	0.294	0.052
-410.355	-31.440	0.032	-0.018
-409.340	-17.625	-0.248	-0.155
-408.325	-200.000	-0.269	0.000
-407.311	-200.000	0.023	-0.200
-406.296	357.639	-0.120	-0.237
-405.282	-87.094	0.192	-0.058
-404.267	2.866	0.287	-0.207
-403.252	-9.873	-0.075	-0.050
-402.238	331.635	0.137	0.263
-401.223	319.564	-0.068	-0.129
-400.209	-79.026	0.189	0.064
-399.194	-200.000	-0.064	-0.441
-398.179	753.231	-0.096	-0.257
-397.165	-200.000	-0.023	-0.263
-396.150	-69.699	-0.131	-0.050
-395.136	209.032	-0.069	0.107
-394.121	31.170	-0.361	-0.308
-393.106	0.979	-0.240	0.171
-392.092	-76.585	0.320	-0.112
-391.077	88.921	0.121	0.134
-390.063	102.674	0.120	0.139
-389.048	-200.000	-0.044	-0.218
-388.033	186.433	-0.168	-0.249
-387.019	197.097	-0.029	0.044
-386.004	-81.278	-0.103	0.034
-384.990	184.991	0.245	-0.361
-383.975	-165.294	-0.067	-0.003
-382.960	19.244	-0.049	-0.039
-381.946	79.015	0.309	-0.328
-380.931	800.000	-0.028	0.112
-379.917	-42.708	-0.161	0.081
-378.902	126.660	0.075	0.094
-377.888	800.000	0.051	-0.156
-376.873	103.537	0.056	0.065
-375.858	-121.249	0.058	-0.010
-374.844	-175.502	-0.091	0.002
-373.829	189.919	-0.182	0.271
-372.815	-116.877	-0.431	-0.078
-371.800	359.735	-0.064	0.127
-370.785	800.000	0.083	0.257
-369.771	74.008	-0.089	0.093
-368.756	17.815	0.133	0.105
-367.742	6.278	0.113	0.083
-366.727	-200.000	0.105	-0.469
-365.712	-123.173	-0.052	0.008
-364.698	196.555	-0.079	-0.120
-363.683	-105.374	-0.124	-0.028
-362.669	-15.575	-0.176	0.112
-361.654	-129.434	-0.107	-0.015
-360.639	244.384	0.030	0.051
-359.625	-200.000	-0.011	-0.107
-358.610	-136.065	-0.166	0.019
-357.596	40.072	-0.135	-0.120
-356.581	800.000	0.023	-0.086
-355.566	-126.718	0.187	0.027
-354.552	-143.615	-0.364	-0.034
-353.537	159.264	0.148	-0.204
-352.523	-114.928	-0.216	-0.041
-351.508	800.000	-0.042	-0.133
-350.493	100.843	0.231	0.266
-349.479	156.602	-0.128	-0.175
-348.464	-155.474	-0.256	0.016
-347.450	-200.000	0.017	-0.098
-346.435	800.000	-0.207	0.578
-345.420	190.430	-0.019	-0.028
-344.406	-200.000	0.013	-0.102
-343.391	-1.796	0.214	0.150
-342.377	53.681	0.299	0.284
-341.362	-189.288	-0.188	-0.002
-340.348	800.000	0.050	0.159
-339.333	136.306	-0.029	-0.038
-338.318	-200.000	0.015	-0.082
-337.304	379.131	0.109	-0.221
-336.289	138.751	-0.121	0.158
-335.275	-31.914	-0.134	0.075
-334.260	-33.739	-0.217	-0.118
-333.245	-25.528	0.350	0.205
-332.231	17.668	0.259	0.204
-331.216	148.341	-0.052	0.070
-330.202	518.992	-0.043	-0.100
-329.187	250.475	-0.039	-0.065
-328.172	-131.892	0.012	0.002
-327.158	619.006	0.094	-0.233
-326.143	800.000	-0.074	-0.208
-325.129	48.456	0.154	0.143
-324.114	33.105	0.154	-0.133
-323.099	260.799	-0.028	-0.048
-322.085	-82.027	0.265	-0.086
-321.070	310.425	0.056	0.104
-320.056	37.498	0.079	0.070
-319.041	19.543	0.012	-0.010
-318.026	89.770	0.195	0.215
-317.012	573.111	-0.094	-0.227
-315.997	-192.051	0.256	-0.002
-314.983	57.388	-0.273	-0.264
-313.968	-49.751	-0.312	-0.147
-312.953	-200.000	-0.018	-0.225
-311.939	-128.037	-0.292	-0.041
-310.924	-115.149	0.375	0.070
-309.910	39.483	-0.195	0.173
-308.895	322.996	-0.055	0.105
-307.880	475.595	-0.100	0.223
-306.866	50.824	-0.044	-0.041
-305.851	800.000	0.047	0.176
-304.837	-75.154	-0.450	-0.159
-303.822	-40.380	-0.154	0.079
-302.807	-37.570	0.196	-0.104
-301.793	19.613	0.295	-0.235
-300.778	230.155	-0.120	-0.194
-299.764	-152.895	0.147	-0.010
-298.749	-200.000	0.017	-0.209
-297.735	183.569	-0.126	-0.184
-296.720	-200.000	0.033	-0.191
-295.705	-108.940	-0.184	-0.039
-294.691	800.000	0.025	-0.076
-293.676	-25.336	0.297	0.174
-292.662	-14.407	-0.336	-0.214
-291.647	-175.348	0.353	0.010
-290.632	157.434	0.110	0.151
-289.618	353.499	-0.149	-0.292
-288.603	53.589	-0.106	0.100
-287.589	108.738	0.116	-0.138
-286.574	-29.342	-0.094	0.053
-285.559	634.866	0.099	-0.250
-284.545	800.000	0.079	-0.315
-283.530	52.995	-0.103	0.098
-282.516	-106.099	0.213	-0.047
-281.501	-140.971	-0.274	-0.028
-280.486	-188.451	0.238	-0.003
-279.472	800.000	-0.097	0.357
-278.457	337.465	0.052	-0.100
-277.443	38.315	0.273	0.240
-276.428	68.740	0.205	-0.208
-275.413	320.690	0.076	0.143
-274.399	-50.645	-0.268	-0.125
-273.384	-64.320	-0.221	0.089
-272.370	355.338	-0.097	-0.191
-271.355	80.564	0.171	0.182
-270.340	56.990	0.192	0.185
-269.326	-110.056	0.046	0.009
-268.311	800.000	0.073	0.224
-267.297	68.096	0.064	-0.065
-266.282	59.305	-0.226	0.220
-265.267	-200.000	-0.016	0.086
-264.253	-200.000	-0.027	0.154
-263.238	147.320	-0.046	-0.061
-262.224	-122.367	-0.159	0.026
-261.209	-95.949	-0.199	0.052
-260.195	87.886	-0.214	0.235
-259.180	-87.698	0.071	0.021
-258.165	65.290	-0.076	-0.076
-257.151	-96.361	0.051	0.013
-256.136	-200.000	0.023	-0.108
-255.122	279.772	-0.030	-0.052
-254.107	102.816	0.066	-0.077
-253.092	9.660	0.099	0.074
-252.078	569.900	0.034	0.082
-251.063	-113.411	-0.163	0.032
-250.049	45.543	0.058	-0.053
-249.034	213.010	0.092	0.143
-248.019	78.596	-0.113	-0.119
-247.005	222.432	0.120	0.191
-245.990	-200.000	-0.008	0.095
-244.976	800.000	-0.102	0.337
-243.961	-82.983	0.211	0.067
-242.946	-200.000	-0.076	-0.334
-241.932	-30.610	0.201	-0.112
-240.917	-10.859	-0.070	-0.046
-239.903	13.200	-0.300	-0.229
-238.888	-200.000	0.020	0.227
-237.873	-104.419	0.308	0.070
-236.859	-143.893	-0.222	0.021
-235.844	-90.083	0.265	-0.076
-234.830	39.869	-0.155	-0.137
-233.815	59.948	0.079	-0.077
-232.800	4.979	0.283	0.206
-231.786	572.241	0.079	-0.190
-230.771	-136.501	0.284	0.033
-229.757	-200.000	0.012	0.204
-228.742	70.775	0.130	0.133
-227.727	-200.000	-0.016	0.248
-226.713	-170.707	0.137	0.005
-225.698	800.000	0.043	0.154
-224.684	561.115	0.156	0.373
-223.669	95.793	-0.163	-0.184
-222.655	-74.385	0.210	0.075
-221.640	800.000	-0.097	0.389
-220.625	304.212	0.141	0.259
-219.611	33.378	-0.238	-0.204
-218.596	84.014	-0.078	-0.084
-217.582	265.043	0.079	-0.136
-216.567	-89.563	-0.021	-0.006
-215.552	-6.615	0.177	0.119
-214.538	195.184	-0.206	-0.309
-213.523	-31.866	0.303	0.168
-212.509	-43.154	-0.253	-0.127
-211.494	-41.551	-0.124	0.063
-210.479	247.699	-0.086	-0.144
-209.465	-200.000	0.029	-0.203
-208.450	279.457	0.130	0.228
-207.436	38.174	-0.224	0.196
-206.421	800.000	0.065	0.263
-205.406	-176.863	0.278	-0.007
-204.392	379.273	-0.187	-0.378
-203.377	-62.522	0.134	0.055
-202.363	118.765	0.214	-0.261
-201.348	47.368	-0.120	0.111
-200.333	-40.999	0.075	0.038
-199.319	-79.009	0.162	-0.054
-198.304	-62.706	-0.233	-0.095
-197.290	382.698	-0.070	0.143
-196.275	3.982	-0.233	-0.168
-195.260	731.633	-0.071	0.186
-194.246	-119.881	-0.342	0.058
-193.231	322.272	-0.133	0.250
-192.217	-41.135	-0.262	-0.133
-191.202	240.478	-0.090	-0.149
-190.187	-200.000	-0.020	-0.450
-189.173	-167.459	-0.123	-0.005
-188.158	-200.000	-0.030	-0.162
-187.144	-129.877	0.279	0.038
-186.129	-109.802	-0.341	-0.071
-185.114	-17.487	-0.095	-0.059
-184.100	-164.158	-0.119	0.005
-183.085	-53.890	-0.175	0.078
-182.071	-32.859	0.188	0.103
-181.056	-110.972	0.330	0.067
-180.042	-1.810	0.005	-0.004
-179.027	404.853	0.055	0.114
-178.012	-45.609	-0.112	-0.055
-176.998	71.484	-0.166	-0.170
-175.983	44.894	0.140	-0.127
-174.969	800.000	0.065	0.248
-173.954	800.000	-0.056	-0.166
-172.939	12.463	0.186	0.141
-171.925	800.000	-0.099	-0.290
-170.910	800.000	0.058	0.207
-169.896	3.916	0.213	-0.153
-168.881	59.599	-0.129	0.126
-167.866	-34.028	0.248	-0.134
-166.852	-1.630	0.163	0.113
-165.837	-131.955	0.409	0.053
-164.823	800.000	-0.044	-0.125
-163.808	800.000	0.043	0.154
-162.793	-132.314	0.235	-0.030
-161.779	90.633	-0.180	0.199
-160.764	-200.000	-0.012	-0.074
-159.750	-200.000	0.035	0.369
-158.735	800.000	0.020	-0.058
-157.720	-100.694	0.141	-0.034
-156.706	34.214	-0.127	0.109
-155.691	32.827	0.160	0.137
-154.677	0.228	0.166	-0.117
-153.662	-82.837	-0.184	0.059
-152.647	151.525	-0.144	-0.193
-151.633	117.745	0.173	0.210
-150.618	19.561	-0.141	-0.112
-149.604	800.000	-0.065	0.244
-148.589	102.199	0.232	0.267
-147.574	71.059	-0.080	-0.082
-146.560	70.211	0.163	-0.166
-145.545	800.000	-0.128	-0.360
-144.531	798.836	0.063	-0.171
-143.516	-63.342	0.410	0.166
-142.502	-200.000	0.037	-0.342
-141.487	163.257	0.102	0.142
-140.472	-176.475	0.147	0.004
-139.458	-146.903	0.229	0.019
-138.443	-115.295	-0.366	-0.068
-137.429	-109.554	0.330	0.068
-136.414	800.000	-0.116	-0.333
-135.399	156.267	-0.155	-0.211
-134.385	-77.914	-0.094	-0.032
-133.370	172.865	-0.056	-0.080
-132.356	-200.000	0.023	0.270
-131.341	157.274	0.130	0.176
-130.326	-200.000	0.241	-0.001
-129.312	-200.000	0.058	0.267
-128.297	48.172	0.157	0.144
-127.283	290.263	0.148	0.265
-126.268	-64.627	0.249	-0.100
-125.253	-51.194	-0.333	0.153
-124.239	17.493	0.162	-0.127
-123.224	-21.932	0.165	0.098
-122.210	-85.810	-0.309	0.094
-121.195	123.121	-0.055	-0.068
-120.180	97.309	0.240	-0.271
-119.166	126.057	-0.174	0.216
-118.151	1.868	0.229	-0.163
-117.137	-51.327	0.315	0.145
-116.122	544.418	0.054	0.127
-115.107	-20.085	0.100	-0.060
-114.093	124.750	-0.150	-0.185
-113.078	9.330	0.233	-0.173
-112.064	6.942	-0.267	-0.196
-111.049	64.007	0.288	0.284
-110.034	-28.321	-0.237	0.135
-109.020	800.000	0.019	-0.067
-108.005	-200.000	0.053	0.386
-106.991	800.000	-0.061	-0.185
-105.976	-1.466	0.159	-0.110
-104.962	161.181	0.093	-0.128
-103.947	-50.559	0.197	0.091
-102.932	181.366	-0.252	0.364
-101.918	-46.369	0.125	-0.060
-100.903	314.198	-0.115	0.212
-99.889	-200.000	0.011	0.225
-98.874	407.218	0.053	0.110
-97.859	-43.127	0.038	-0.019
-96.845	-105.326	0.233	0.052
-95.830	-76.131	0.195	-0.067
-94.816	178.744	0.148	0.213
-93.801	-126.026	-0.342	-0.050
-92.786	-158.158	-0.182	-0.010
-91.772	212.805	0.168	0.260
-90.757	-200.000	-0.015	-0.069
-89.743	800.000	0.083	-0.301
-88.728	-22.251	-0.129	0.077
-87.713	206.970	-0.110	0.168
-86.699	75.019	0.148	0.153
-85.684	-19.312	0.234	0.142
-84.670	-200.000	-0.082	0.394
-83.655	-200.000	-0.025	0.160
-82.640	111.225	0.097	0.114
-81.626	-0.024	0.045	-0.032
-80.611	-2.711	0.162	0.111
-79.597	-77.683	-0.239	-0.081
-78.582	412.248	-0.082	-0.172
-77.567	-115.291	0.392	-0.073
-76.553	-70.946	0.109	-0.040
-75.538	117.165	0.127	0.153
-74.524	-160.367	0.170	0.009
-73.509	800.000	-0.087	-0.239
-72.494	114.533	0.317	0.380
-71.480	-114.455	-0.234	0.044
-70.465	-200.000	0.011	0.052
-69.451	-181.702	0.195	-0.004
-68.436	9.783	-0.051	0.038
-67.422	-132.054	0.359	-0.046
-66.407	-134.693	0.253	0.030
-65.392	58.308	0.198	-0.191
-64.378	-161.158	0.167	0.009
-63.363	-20.010	0.262	0.158
-62.349	48.606	-0.280	-0.257
-61.334	122.252	-0.926	-1.134
-60.319	164.217	0.540	0.746
-59.305	800.000	-0.357	-1.002
-58.290	499.586	0.594	1.342
-57.276	800.000	0.529	1.581
-56.261	-200.000	104.461	572.078
-55.246	469.869	1440.499	3173.771
-54.232	153.936	2614.120	3514.122
-53.217	108.521	2136.490	2501.109
-52.203	42.190	1593.152	1418.739
-51.188	34.370	1333.514	1140.898
-50.173	31.087	1292.765	1086.898
-49.159	53.515	1344.389	1264.187
-48.144	55.062	1361.044	1288.994
-47.130	34.259	1316.899	1125.846
-46.115	30.893	1299.120	1090.932
-45.100	30.597	1294.319	1085.133
-44.086	30.493	1292.277	1082.769
-43.071	30.550	1289.899	1081.064
-42.057	30.577	1287.882	1079.487
-41.042	30.614	1286.090	1078.158
-40.027	30.702	1284.609	1077.388
-39.013	30.626	1282.814	1075.396
-37.998	30.646	1281.352	1074.241
-36.984	30.712	1279.580	1073.098
-35.969	30.747	1277.636	1071.624
-34.954	30.677	1275.892	1069.720
-33.940	30.804	1274.604	1069.323
-32.925	30.735	1273.785	1068.200
-31.911	30.823	1271.946	1067.122
-30.896	30.825	1270.503	1065.876
-29.881	30.810	1269.342	1064.773
-28.867	30.928	1267.583	1063.932
-27.852	30.877	1266.176	1062.416
-26.838	30.813	1265.446	1061.397
-25.823	30.861	1263.505	1060.002
-24.809	30.752	1262.280	1058.309
-23.794	30.720	1261.763	1057.654
-22.779	30.746	1260.018	1056.298
-21.765	30.852	1258.632	1055.695
-20.750	30.760	1257.395	1054.094
-19.736	30.723	1256.030	1052.701
-18.721	30.673	1255.248	1051.719
-17.706	30.629	1253.855	1050.258
-16.692	30.647	1253.024	1049.624
-15.677	30.610	1251.850	1048.390
-14.663	30.661	1250.519	1047.524
-13.648	30.658	1249.343	1046.479
-12.633	30.703	1248.061	1045.617
-11.619	30.633	1247.750	1044.923
-10.604	30.669	1246.431	1043.975
-9.590	30.697	1245.275	1043.123
-8.575	30.628	1244.870	1042.356
-7.560	30.672	1243.616	1041.512
-6.546	30.733	1242.652	1041.002
-5.531	30.618	1242.199	1039.940
-4.517	30.576	1241.616	1039.176
-3.502	30.805	1240.450	1039.437
-2.487	30.676	1239.668	1038.022
-1.473	30.654	1235.131	1034.060
-0.458	28.837	1220.120	1011.460
0.556	23.062	1202.049	970.001
1.571	19.013	1206.600	951.243
2.586	17.926	1221.060	956.472
3.600	17.815	1210.402	947.423
4.615	15.366	1144.484	882.876
5.629	10.782	1076.042	807.271
6.644	8.481	1058.723	782.952
7.659	8.237	1056.114	779.758
8.673	8.243	1055.045	778.929
9.688	8.240	1053.381	777.616
10.702	8.488	1051.661	777.488
11.717	11.362	1054.678	793.649
12.731	15.709	1060.496	819.174
13.746	17.599	1062.733	830.051
14.761	17.328	1062.086	828.149
15.775	16.322	1059.966	821.531
16.790	15.425	1057.684	815.334
17.804	14.654	1056.344	810.490
18.819	14.245	1054.821	807.264
19.834	14.066	1053.776	805.528
20.848	13.729	1053.088	803.299
21.863	13.443	1052.719	801.559
22.877	13.390	1051.503	800.304
23.892	13.327	1051.033	799.575
24.907	13.246	1050.667	798.834
25.921	13.270	1049.351	797.879
26.936	13.384	1047.879	797.238
27.950	13.326	1046.669	795.967
28.965	13.516	1044.952	795.503
29.980	13.514	1043.699	794.470
30.994	13.635	1042.122	793.781
32.009	13.667	1041.246	793.193
33.023	13.748	1040.167	792.690
34.038	13.647	1039.377	791.535
35.053	13.576	1038.412	790.392
36.067	13.486	1038.126	789.674
37.082	13.665	1036.860	789.495
38.096	13.507	1036.357	788.288
39.111	13.577	1035.231	787.694
40.126	13.336	1034.305	785.777
41.140	13.353	1032.887	784.710
42.155	13.287	1031.627	783.371
43.169	13.209	1031.146	782.569
44.184	13.279	1029.177	781.333
45.199	13.198	1028.908	780.679
46.213	13.377	1027.315	780.245
47.228	13.391	1026.385	779.535
48.242	13.550	1025.288	779.383
49.257	13.380	1024.441	777.868
50.271	13.513	1023.600	777.786
51.286	13.529	1022.786	777.175
52.301	13.327	1022.483	775.928
53.315	13.403	1020.763	774.911
54.330	13.247	1020.182	773.670
55.344	13.378	1018.983	773.307
56.359	13.340	1018.111	772.399
57.374	13.197	1017.370	771.098
58.388	13.247	1016.604	770.682
59.403	13.432	1015.409	770.571
60.417	13.274	1015.020	769.473
61.432	13.317	1013.990	768.825
62.447	13.234	1013.407	767.928
63.461	13.082	1012.770	766.673
64.476	13.235	1011.406	766.279
65.490	13.236	1010.860	765.805
66.505	13.228	1009.757	764.861
67.520	13.414	1009.269	765.285
68.534	13.188	1009.045	764.002
69.549	13.275	1007.987	763.535
70.563	13.152	1007.230	762.329
71.578	13.247	1006.319	762.009
72.593	13.130	1005.676	760.916
73.607	13.109	1004.883	760.151
74.622	13.153	1004.353	759.884
75.636	13.102	1003.664	759.065
76.651	13.047	1003.500	758.618
77.666	13.113	1002.718	758.266
78.680	13.237	1001.701	757.996
79.695	13.086	1001.106	756.787
80.709	13.247	1000.508	757.003
81.724	13.256	1000.057	756.637
82.739	13.243	999.056	755.756
83.753	13.439	998.270	755.990
84.768	13.441	997.520	755.363
85.782	13.468	996.753	754.838
86.797	13.519	995.716	754.218
87.812	13.448	994.563	752.954
88.826	13.477	993.388	752.133
89.841	13.456	992.947	751.634
90.855	13.583	992.010	751.437
91.870	13.528	991.240	750.535
92.884	13.621	990.265	750.154
93.899	13.638	989.470	749.563
94.914	13.615	988.387	748.572
95.928	13.563	988.234	748.155
96.943	13.530	986.884	746.917
97.957	13.475	986.495	746.310
98.972	13.543	985.357	745.688
99.987	13.491	984.532	744.763
101.001	13.445	983.783	743.922
102.016	13.497	982.941	743.454
103.030	13.561	981.873	742.869
104.045	13.510	981.274	742.121
105.060	13.623	979.994	741.592
106.074	13.461	978.972	740.028
107.089	13.341	978.309	738.926
108.103	13.251	977.053	737.512
109.118	13.281	976.215	736.946
110.133	13.300	975.848	736.688
111.147	13.315	974.668	735.800
112.162	13.287	974.204	735.261
113.176	13.263	973.429	734.503
114.191	13.493	972.158	734.501
115.206	13.391	972.072	733.917
116.220	13.404	970.895	733.023
117.235	13.508	969.747	732.552
118.249	13.427	969.536	731.969
119.264	13.391	968.331	730.834
120.279	13.206	967.965	729.679
121.293	13.312	966.939	729.308
122.308	13.402	965.822	728.798
123.322	13.296	964.801	727.497
124.337	13.342	963.769	726.856
125.352	13.309	963.300	726.294
126.366	13.325	961.876	725.225
127.381	13.380	960.738	724.543
128.395	13.212	960.415	723.498
129.410	13.227	959.473	722.792
130.424	13.296	958.691	722.439
131.439	13.308	957.947	721.866
132.454	13.365	957.209	721.497
133.468	13.382	956.206	720.750
134.483	13.581	954.819	720.505
135.497	13.442	954.583	719.659
136.512	13.519	953.494	719.109
137.527	13.492	952.554	718.220
138.541	13.415	952.266	717.606
139.556	13.569	951.428	717.576
140.570	13.574	950.738	717.016
141.585	13.609	949.760	716.364
142.600	13.621	948.764	715.605
143.614	13.592	948.567	715.268
144.629	13.649	947.728	714.815
145.643	13.573	946.992	713.869
146.658	13.624	945.259	712.722
147.673	13.465	944.530	711.425
148.687	13.520	943.895	711.118
149.702	13.440	943.284	710.252
150.716	13.577	941.899	709.732
151.731	13.414	942.143	709.155
152.746	13.441	941.087	708.413
153.760	13.589	939.895	708.089
154.775	13.687	939.620	708.236
155.789	13.729	939.071	707.940
156.804	13.648	938.587	707.167
157.819	13.588	938.258	706.599
158.833	13.752	937.361	706.560
159.848	13.709	936.342	705.547
160.862	13.874	935.039	705.205
161.877	13.664	934.192	703.611
162.892	13.589	933.169	702.460
163.906	13.481	932.410	701.371
164.921	13.699	931.496	701.541
165.935	13.657	930.696	700.699
166.950	13.719	929.666	700.126
167.964	13.697	929.086	699.532
168.979	13.606	928.436	698.597
169.994	13.753	926.857	697.965
171.008	13.744	926.887	697.888
172.023	13.715	926.324	697.280
173.037	13.890	925.222	697.124
174.052	13.824	925.027	696.641
175.067	13.755	924.157	695.635
176.081	13.708	923.475	694.861
177.096	13.812	922.847	694.763
178.110	13.845	922.150	694.314
179.125	13.856	921.476	693.791
180.140	13.804	921.193	693.299
181.154	13.815	920.228	692.559
182.169	13.816	920.443	692.661
183.183	13.925	919.484	692.333
184.198	13.923	918.945	691.859
185.213	13.954	918.521	691.607
186.227	13.990	917.589	690.993
187.242	13.964	916.703	690.157
188.256	14.028	916.307	690.066
189.271	14.039	915.445	689.401
190.286	13.878	915.109	688.419
191.300	13.693	914.090	686.823
192.315	13.839	913.098	686.623
193.329	13.675	913.246	685.995
194.344	13.955	911.841	686.034
195.359	13.795	911.340	684.937
196.373	14.043	910.802	685.495
197.388	14.129	910.645	685.672
198.402	14.269	909.770	685.527
199.417	14.204	909.412	684.929
200.432	14.243	908.611	684.427
201.446	14.352	908.377	684.638
202.461	14.388	907.842	684.323
203.475	14.217	907.271	683.130
204.490	14.244	906.181	682.361
205.504	14.090	906.106	681.609
206.519	14.343	904.675	681.510
207.534	14.258	904.160	680.714
208.548	14.149	903.724	679.879
209.563	14.159	903.392	679.610
210.577	14.319	901.840	679.035
211.592	14.440	901.697	679.360
212.607	14.345	901.097	678.462
213.621	14.358	900.186	677.768
214.636	14.463	899.197	677.391
215.650	14.369	898.996	676.797
216.665	14.464	898.232	676.548
217.680	14.564	897.620	676.433
218.694	14.519	896.943	675.679
219.709	14.481	896.599	675.209
220.723	14.442	896.026	674.559
221.738	14.379	895.136	673.574
222.753	14.506	894.611	673.630
223.767	14.520	894.057	673.210
224.782	14.453	893.844	672.720
225.796	14.526	893.483	672.686
226.811	14.564	892.119	671.751
227.826	14.678	891.319	671.549
228.840	14.530	890.781	670.488
229.855	14.698	889.949	670.476
230.869	14.642	889.032	669.502
231.884	14.600	888.610	668.956
232.899	14.536	887.704	667.960
233.913	14.490	887.377	667.471
234.928	14.509	886.668	666.954
235.942	14.529	886.147	666.584
236.957	14.403	885.511	665.542
237.972	14.613	884.726	665.730
238.986	14.442	884.322	664.686
240.001	14.524	883.627	664.432
241.015	14.608	883.045	664.268
242.030	14.669	882.257	663.863
243.045	14.615	882.338	663.650
244.059	14.499	881.745	662.683
245.074	14.610	880.952	662.471
246.088	14.714	880.213	662.265
247.103	14.819	879.367	661.987
248.117	14.860	879.353	662.080
249.132	14.849	878.739	661.517
250.147	15.117	877.929	661.908
251.161	15.097	877.324	661.316
252.176	15.086	876.791	660.810
253.190	15.175	876.025	660.527
254.205	15.191	875.718	660.297
255.220	15.099	874.622	659.051
256.234	15.056	874.069	658.409
257.249	15.108	873.714	658.286
258.263	15.153	872.637	657.594
259.278	15.108	872.378	657.164
260.293	15.230	871.551	656.961
261.307	15.146	871.358	656.427
262.322	15.332	870.475	656.435
263.336	15.208	869.900	655.455
264.351	15.222	869.342	655.033
265.366	15.304	868.869	654.939
266.380	15.339	868.239	654.543
267.395	15.261	867.245	653.432
268.409	15.314	866.272	652.845
269.424	15.454	865.639	652.855
270.439	15.281	865.164	651.768
271.453	15.138	864.673	650.785
272.468	15.211	863.844	650.385
273.482	15.237	863.416	650.106
274.497	15.291	862.573	649.625
275.512	15.278	862.194	649.233
276.526	15.262	861.808	648.821
277.541	15.419	861.340	649.017
278.555	15.495	860.921	648.939
279.570	15.377	860.585	648.171
280.585	15.435	859.685	647.659
281.599	15.498	858.148	646.688
282.614	15.423	857.789	646.071
283.628	15.445	857.125	645.601
284.643	15.455	856.976	645.467
285.657	15.365	856.238	644.507
286.672	15.338	856.004	644.174
287.687	15.572	854.861	644.152
288.701	15.584	854.351	643.758
289.716	15.431	854.159	642.970
290.730	15.530	853.640	642.902
291.745	15.653	852.637	642.558
292.760	15.527	852.345	641.801
293.774	15.624	851.598	641.551
294.789	15.667	851.354	641.473
295.803	15.513	850.668	640.316
296.818	15.462	849.764	639.384
297.833	15.662	848.944	639.471
298.847	15.629	848.691	639.098
299.862	15.679	847.797	638.556
300.876	15.693	847.271	638.159
301.891	15.709	846.773	637.786
302.906	15.731	846.539	637.639
303.920	15.828	845.953	637.508
304.935	16.080	845.051	637.727
305.949	15.849	844.564	636.428
306.964	15.756	844.183	635.734
307.979	15.929	843.404	635.745
308.993	15.884	842.911	635.146
310.008	15.921	842.410	634.852
311.022	15.885	842.245	634.534
312.037	15.834	841.194	633.494
313.052	15.744	840.404	632.505
314.066	15.875	839.904	632.565
315.081	15.679	839.455	631.435
316.095	15.833	838.712	631.400
317.110	16.018	838.116	631.587
318.125	15.823	837.756	630.529
319.139	15.839	837.088	630.032
320.154	16.050	836.900	630.623
321.168	15.888	836.406	629.590
322.183	15.940	835.754	629.239
323.197	15.975	835.356	629.013
324.212	15.960	834.675	628.390
325.227	15.894	834.215	627.742
326.241	16.027	833.735	627.820
327.256	15.937	832.830	626.747
328.270	16.042	832.142	626.565
329.285	15.989	832.121	626.297
330.300	15.946	831.556	625.656
331.314	15.962	830.854	625.131
332.329	16.148	830.368	625.400
333.343	16.086	830.163	624.960
334.358	16.052	829.434	624.230
335.373	16.217	828.983	624.447
336.387	16.211	828.707	624.161
337.402	16.137	828.757	623.871
338.416	16.257	827.979	623.672
339.431	16.209	827.871	623.360
340.446	16.420	827.593	623.874
341.460	16.492	827.161	623.759
342.475	16.378	826.742	622.965
343.489	16.575	825.907	623.008
344.504	16.394	825.733	622.155
345.519	16.472	825.083	621.898
346.533	16.464	824.755	621.566
347.548	16.398	824.274	620.906
348.562	16.384	823.438	620.170
349.577	16.427	823.068	619.993
350.592	16.369	822.356	619.192
351.606	16.489	821.329	618.801
352.621	16.469	821.109	618.508
353.635	16.408	820.615	617.859
354.650	16.282	820.293	617.100
355.665	16.509	819.050	616.940
356.679	16.601	818.285	616.642
357.694	16.556	817.862	616.107
358.708	16.357	817.514	615.065
359.723	16.453	817.174	615.105
360.738	16.609	816.014	614.743
361.752	16.548	815.747	614.267
362.767	16.635	815.219	614.130
363.781	16.637	814.839	613.798
364.796	16.624	814.650	613.552
365.810	16.665	814.081	613.220
366.825	16.856	813.458	613.387
367.840	16.960	813.075	613.419
368.854	16.808	812.711	612.539
369.869	16.785	812.217	612.030
370.883	16.808	811.741	611.701
371.898	17.012	811.176	611.957
372.913	16.819	811.241	611.254
373.927	16.793	810.502	610.551
374.942	16.783	810.099	610.158
375.956	16.845	809.924	610.195
376.971	16.947	809.160	609.933
377.986	17.157	808.387	610.049
379.000	16.968	808.577	609.459
380.015	16.980	807.883	608.926
381.029	17.131	806.885	608.661
382.044	17.083	806.668	608.272
383.059	17.050	805.949	607.557
384.073	17.086	805.515	607.307
385.088	17.015	804.881	606.522
386.102	17.053	804.113	606.022
387.117	17.003	803.680	605.465
388.132	17.059	803.205	605.254
389.146	17.021	802.680	604.671
390.161	17.186	802.486	605.056
391.175	17.186	801.936	604.590
392.190	17.134	801.040	603.677
393.205	16.961	800.755	602.792
394.219	17.001	800.747	602.874
395.234	17.107	800.096	602.709
396.248	17.063	799.628	602.146
397.263	17.102	799.032	601.781
398.278	16.898	798.996	600.980
399.292	16.907	798.427	600.531
400.307	17.114	797.573	600.567
401.321	17.116	797.430	600.413
402.336	17.166	797.066	600.262
403.350	17.261	796.502	600.120
404.365	17.291	796.253	599.986
405.380	17.210	795.975	599.437
406.394	17.209	795.557	599.065
407.409	17.404	794.844	599.163
408.423	17.421	794.518	598.924
409.438	17.349	794.347	598.489
410.453	17.521	793.685	598.542
411.467	17.577	793.418	598.483
412.482	17.590	792.894	598.080
413.496	17.488	792.859	597.642
414.511	17.391	792.534	597.004
415.526	17.598	791.554	596.940
416.540	17.461	791.101	596.064
417.555	17.596	790.900	596.335
418.569	17.670	790.370	596.139
419.584	17.658	790.051	595.804
420.599	17.526	789.649	594.988
421.613	109.531	1290.982	1466.232
422.628	93.998	1364.002	1466.337
