DTS Sentinel unit serial number:	SN413079Multiplexer serial number:	ORYXHardware model number:	OX4-SRSoftware version number:	ORYX F/W v4.00 Oryx Data Collector v3.7.2.0data status	okinstallation	princeton_trtdifferential loss correction	single-endedforward channel	channel 1reverse channel	N/Adate	2019/09/11time	10:16:11forward acquisition time	60.00reverse acquisition time	0.00gamma	496.2192k internal	0.2299k external	0.2299temperature offset calibration	0.9952default loss term (dB/km)	0.3790temperature slope calibration	1.0000multiplexer offset coefficient	1.0000multiplexer slope coefficient	1.0000fibre end	0.00T internal ref (°C)	35.94T ext. ref 1 (°C)	0.13T ext. ref 2 (°C)	33.99length (m)	temperature (°C)	Stokes	anti-Stokes-747.200	-3.496	0.202	0.144
-746.185	23.629	-0.081	-0.068
-745.171	140.896	-0.063	-0.085
-744.156	-121.453	0.253	0.043
-743.142	-72.170	-0.299	-0.113
-742.127	-34.041	0.094	0.053
-741.112	-200.000	-0.000	0.445
-740.098	188.760	-0.130	0.198
-739.083	130.294	0.099	0.130
-738.069	-106.610	0.138	-0.031
-737.054	800.000	-0.072	0.205
-736.039	-98.050	-0.303	0.080
-735.025	144.694	0.236	0.322
-734.010	-19.237	-0.144	0.091
-732.996	-134.580	0.312	0.039
-731.981	72.463	0.182	0.194
-730.966	-83.351	-0.305	-0.100
-729.952	800.000	-0.077	0.222
-728.937	120.045	-0.119	0.150
-727.923	-101.551	0.194	-0.048
-726.908	-100.511	-0.122	0.031
-725.894	140.235	-0.010	-0.014
-724.879	-115.848	-0.268	-0.051
-723.864	800.000	-0.099	-0.316
-722.850	-114.340	0.128	0.025
-721.835	500.624	-0.014	-0.032
-720.821	738.656	0.071	0.195
-719.806	-200.000	0.026	-0.122
-718.791	14.291	-0.177	-0.140
-717.777	-142.259	0.221	0.022
-716.762	-0.404	0.076	0.055
-715.748	-109.999	-0.088	-0.019
-714.733	-44.746	0.222	-0.113
-713.718	800.000	0.029	-0.122
-712.704	411.920	-0.029	0.063
-711.689	5.674	0.078	0.059
-710.675	-200.000	-0.009	0.102
-709.660	-200.000	-0.017	-0.131
-708.645	-200.000	-0.016	0.132
-707.631	800.000	0.062	-0.235
-706.616	-154.964	-0.072	-0.005
-705.602	268.741	0.085	0.151
-704.587	-89.958	-0.285	-0.085
-703.572	151.181	-0.087	-0.121
-702.558	-40.552	0.108	-0.057
-701.543	-126.674	0.014	-0.002
-700.529	172.894	0.306	-0.449
-699.514	451.530	0.063	-0.141
-698.499	451.531	-0.106	0.239
-697.485	517.059	-0.054	-0.128
-696.470	800.000	0.028	0.114
-695.456	427.761	-0.074	0.162
-694.441	-200.000	-0.023	-0.110
-693.426	187.242	-0.096	-0.146
-692.412	35.727	0.176	-0.158
-691.397	-94.294	-0.112	-0.031
-690.383	-62.996	0.269	0.113
-689.368	-1.953	-0.192	0.137
-688.354	49.298	-0.238	-0.228
-687.339	238.511	-0.017	0.028
-686.324	800.000	-0.098	0.318
-685.310	403.715	0.029	0.063
-684.295	28.496	0.038	0.033
-683.281	476.919	-0.081	0.188
-682.266	247.750	-0.088	-0.151
-681.251	96.144	0.184	-0.214
-680.237	163.061	-0.099	0.142
-679.222	12.447	-0.240	-0.188
-678.208	-200.000	0.004	-0.111
-677.193	-191.414	-0.333	-0.003
-676.178	418.048	-0.012	0.026
-675.164	153.086	-0.082	0.114
-674.149	-143.190	-0.272	-0.027
-673.135	-116.062	-0.282	0.053
-672.120	-43.106	-0.229	0.118
-671.105	-176.452	0.017	0.000
-670.091	-158.227	-0.201	-0.012
-669.076	174.562	0.119	-0.176
-668.062	401.816	0.018	0.039
-667.047	-200.000	0.012	0.429
-666.032	72.090	0.333	-0.353
-665.018	136.150	-0.212	-0.280
-664.003	-42.599	-0.150	-0.078
-662.989	442.100	-0.103	-0.230
-661.974	-72.396	-0.318	0.120
-660.959	232.616	0.034	-0.057
-659.945	-122.546	-0.163	0.027
-658.930	-18.900	0.030	0.019
-657.916	-56.021	0.166	-0.075
-656.901	-95.805	0.098	-0.027
-655.886	-57.194	-0.334	0.150
-654.872	38.347	-0.143	0.130
-653.857	-37.574	0.172	0.093
-652.843	800.000	-0.036	0.136
-651.828	294.382	-0.089	0.165
-650.814	800.000	-0.048	-0.179
-649.799	-200.000	-0.043	0.277
-648.784	800.000	-0.063	0.206
-647.770	-13.606	0.380	-0.250
-646.755	314.219	-0.138	0.264
-645.741	-52.616	0.202	-0.095
-644.726	-31.738	0.097	-0.055
-643.711	145.891	-0.099	0.135
-642.697	18.373	-0.201	-0.163
-641.682	-116.955	0.260	-0.048
-640.668	-9.605	0.437	-0.296
-639.653	99.735	-0.121	-0.142
-638.638	75.100	0.169	-0.181
-637.624	-90.466	-0.225	-0.066
-636.609	57.939	-0.215	0.214
-635.595	55.963	-0.044	-0.043
-634.580	-108.069	-0.061	0.014
-633.565	-102.656	0.401	0.097
-632.551	54.454	-0.166	0.163
-631.536	-116.493	-0.267	-0.050
-630.522	800.000	-0.077	-0.275
-629.507	283.026	-0.113	-0.206
-628.492	42.744	0.348	-0.322
-627.478	104.395	-0.134	-0.160
-626.463	197.289	-0.201	-0.312
-625.449	-89.976	0.185	0.055
-624.434	-200.000	-0.031	0.196
-623.419	-165.010	0.139	-0.006
-622.405	-26.198	-0.073	0.044
-621.390	146.717	-0.295	-0.402
-620.376	-200.000	-0.026	-0.324
-619.361	800.000	-0.059	0.203
-618.346	-60.683	-0.104	-0.045
-617.332	-200.000	-0.037	0.227
-616.317	800.000	0.058	-0.218
-615.303	312.146	0.215	0.410
-614.288	-55.609	-0.437	0.199
-613.273	800.000	0.147	-0.453
-612.259	-187.274	-0.269	0.004
-611.244	-200.000	0.047	-0.240
-610.230	800.000	0.043	-0.131
-609.215	136.119	0.080	-0.105
-608.201	-103.565	0.496	-0.118
-607.186	-200.000	0.041	0.246
-606.171	800.000	0.062	0.206
-605.157	25.584	-0.074	-0.062
-604.142	800.000	0.111	0.341
-603.128	-96.169	0.222	-0.060
-602.113	-200.000	-0.014	-0.271
-601.098	95.007	0.037	-0.042
-600.084	-200.000	-0.038	-0.306
-599.069	-88.558	0.033	0.010
-598.055	135.575	0.109	-0.144
-597.040	346.693	-0.154	-0.307
-596.025	524.369	-0.072	-0.171
-595.011	-92.586	0.123	0.035
-593.996	65.325	-0.133	0.136
-592.982	-65.444	-0.172	0.070
-591.967	-194.716	-0.410	0.003
-590.952	-193.510	-0.433	0.004
-589.938	-109.008	0.184	0.040
-588.923	-63.750	0.277	-0.115
-587.909	114.047	-0.208	-0.257
-586.894	-23.349	-0.163	-0.099
-585.879	465.916	0.016	-0.035
-584.865	295.966	-0.186	-0.345
-583.850	-72.225	0.071	0.027
-582.836	-200.000	0.042	-0.304
-581.821	800.000	0.077	-0.277
-580.806	50.233	0.262	-0.251
-579.792	225.053	0.172	-0.282
-578.777	-147.071	0.126	0.011
-577.763	60.487	0.222	0.223
-576.748	49.295	-0.178	-0.170
-575.733	-146.721	0.261	0.023
-574.719	65.450	0.076	0.078
-573.704	0.370	-0.038	-0.027
-572.690	-159.952	0.524	-0.029
-571.675	273.528	-0.117	-0.210
-570.661	-200.000	0.041	0.206
-569.646	-19.999	-0.353	0.221
-568.631	42.840	0.062	0.057
-567.617	53.447	0.153	-0.149
-566.602	-92.385	-0.253	0.072
-565.588	-117.042	-0.216	0.040
-564.573	-200.000	0.045	0.211
-563.558	-200.000	-0.051	-0.306
-562.544	-36.810	0.335	-0.182
-561.529	-136.223	-0.031	-0.004
-560.515	614.134	-0.144	-0.365
-559.500	-69.413	0.269	-0.104
-558.485	800.000	0.032	0.097
-557.471	-159.664	-0.393	-0.022
-556.456	-81.529	-0.235	0.078
-555.442	800.000	-0.131	-0.383
-554.427	800.000	-0.057	0.159
-553.412	-200.000	-0.113	0.520
-552.398	636.954	-0.086	-0.220
-551.383	13.083	0.141	-0.110
-550.369	153.286	0.088	-0.122
-549.354	-27.418	0.264	0.156
-548.339	-170.759	-0.211	-0.007
-547.325	-200.000	0.002	0.091
-546.310	15.923	0.151	0.121
-545.296	-9.879	-0.166	0.111
-544.281	800.000	-0.024	-0.074
-543.266	-29.578	-0.033	-0.019
-542.252	-4.201	-0.116	0.081
-541.237	173.963	0.105	-0.154
-540.223	-7.981	0.136	-0.093
-539.208	-200.000	-0.001	0.252
-538.193	112.745	-0.122	-0.150
-537.179	-19.080	-0.134	-0.084
-536.164	800.000	-0.036	0.127
-535.150	302.634	0.135	0.253
-534.135	756.701	0.091	0.248
-533.121	118.471	-0.220	0.275
-532.106	-89.914	-0.114	0.034
-531.091	-12.453	-0.236	0.156
-530.077	-200.000	-0.008	0.127
-529.062	502.435	0.048	0.113
-528.048	526.655	0.138	0.328
-527.033	319.611	-0.152	0.291
-526.018	295.884	0.211	-0.391
-525.004	416.333	0.045	-0.098
-523.989	-187.851	0.152	0.002
-522.975	249.217	0.054	-0.092
-521.960	-200.000	0.027	-0.231
-520.945	131.395	-0.126	-0.164
-519.931	-200.000	0.004	0.212
-518.916	16.525	0.318	0.254
-517.902	570.055	0.135	0.333
-516.887	-200.000	0.022	-0.167
-515.872	418.284	0.129	-0.279
-514.858	-49.288	-0.155	0.075
-513.843	-104.707	0.185	0.043
-512.829	323.582	-0.181	0.348
-511.814	96.005	0.149	-0.173
-510.799	-90.390	-0.197	-0.058
-509.785	66.874	0.127	0.131
-508.770	-200.000	0.024	0.121
-507.756	143.982	-0.260	-0.350
-506.741	698.002	0.059	-0.158
-505.726	679.720	-0.122	0.321
-504.712	74.118	-0.169	-0.179
-503.697	-82.022	-0.239	-0.079
-502.683	609.345	-0.137	0.347
-501.668	208.291	-0.147	0.232
-500.653	-97.961	0.189	0.049
-499.639	7.542	-0.219	-0.166
-498.624	-102.571	0.259	0.062
-497.610	67.418	0.025	-0.025
-496.595	-8.009	-0.046	-0.032
-495.581	114.806	0.222	-0.274
-494.566	-31.848	-0.304	-0.172
-493.551	189.250	0.162	-0.245
-492.537	37.560	0.180	-0.161
-491.522	63.990	0.085	-0.087
-490.508	96.989	-0.175	-0.202
-489.493	25.805	-0.084	0.070
-488.478	107.536	-0.184	-0.221
-487.464	-102.984	0.259	0.062
-486.449	318.107	-0.033	0.063
-485.435	-9.180	0.185	-0.125
-484.420	-185.787	0.196	0.003
-483.405	86.569	0.084	-0.093
-482.391	78.617	0.115	0.124
-481.376	800.000	0.073	0.252
-480.362	-16.292	-0.209	-0.134
-479.347	-99.048	0.174	0.045
-478.332	-200.000	0.322	0.001
-477.318	-15.064	-0.290	0.188
-476.303	255.963	0.078	-0.135
-475.289	-200.000	-0.018	-0.172
-474.274	-200.000	0.007	0.192
-473.259	150.735	0.046	0.064
-472.245	800.000	-0.040	-0.157
-471.230	800.000	0.035	0.130
-470.216	-104.240	-0.136	-0.032
-469.201	350.921	0.057	-0.113
-468.186	29.030	-0.097	0.083
-467.172	-60.175	0.091	-0.039
-466.157	60.170	0.174	0.174
-465.143	196.855	-0.036	-0.056
-464.128	-168.929	0.177	-0.007
-463.113	-4.344	-0.199	0.139
-462.099	-11.964	-0.186	0.123
-461.084	-151.586	0.216	0.016
-460.070	-97.245	0.130	0.034
-459.055	-101.323	-0.085	0.021
-458.040	30.820	0.103	-0.089
-457.026	-200.000	0.001	-0.217
-456.011	-78.302	-0.154	-0.053
-454.997	68.736	-0.183	0.190
-453.982	-200.000	0.009	0.253
-452.968	-94.402	-0.297	0.082
-451.953	-200.000	0.007	0.127
-450.938	5.401	0.182	-0.135
-449.924	39.629	0.073	-0.066
-448.909	800.000	-0.114	-0.484
-447.895	-200.000	-0.042	0.265
-446.880	185.641	0.087	-0.130
-445.865	324.678	0.121	-0.233
-444.851	135.091	-0.161	-0.210
-443.836	0.605	-0.474	-0.342
-442.822	143.769	-0.130	0.175
-441.807	-28.375	0.236	0.137
-440.792	496.990	0.074	-0.172
-439.778	124.907	-0.066	-0.084
-438.763	475.682	0.104	-0.236
-437.749	47.438	-0.213	0.201
-436.734	-200.000	-0.070	0.336
-435.719	800.000	-0.087	-0.274
-434.705	10.979	0.112	-0.086
-433.690	297.956	0.057	-0.105
-432.676	-118.445	-0.507	0.091
-431.661	-200.000	0.020	-0.205
-430.646	-76.237	-0.278	0.099
-429.632	800.000	-0.108	0.391
-428.617	-52.411	-0.178	0.083
-427.603	-82.886	0.193	-0.063
-426.588	-114.974	0.024	-0.005
-425.573	-169.751	0.192	0.007
-424.559	501.088	0.045	-0.105
-423.544	-115.782	-0.109	0.021
-422.530	-17.123	-0.419	0.266
-421.515	-83.957	0.391	0.125
-420.500	8.780	-0.059	0.045
-419.486	-200.000	-0.019	-0.124
-418.471	122.789	0.237	0.299
-417.457	-200.000	0.009	0.084
-416.442	479.355	0.086	-0.195
-415.428	-56.307	-0.208	-0.093
-414.413	354.655	-0.074	0.148
-413.398	-200.000	-0.031	0.154
-412.384	-134.923	-0.143	0.017
-411.369	31.789	-0.177	-0.154
-410.355	22.447	-0.130	-0.107
-409.340	494.988	0.060	-0.139
-408.325	137.749	-0.073	-0.096
-407.311	800.000	-0.088	0.300
-406.296	-200.000	0.010	-0.061
-405.282	-27.864	-0.093	0.054
-404.267	39.187	0.094	-0.085
-403.252	-94.671	-0.223	-0.061
-402.238	-23.134	0.089	0.054
-401.223	-41.390	0.019	-0.010
-400.209	-115.745	0.088	-0.017
-399.194	-200.000	-0.010	-0.112
-398.179	375.294	-0.055	-0.112
-397.165	-100.036	0.153	-0.038
-396.150	-200.000	0.003	-0.021
-395.136	-200.000	-0.003	-0.111
-394.121	-76.890	-0.037	0.013
-393.106	800.000	0.028	0.086
-392.092	-163.235	0.118	-0.006
-391.077	-200.000	0.059	-0.338
-390.063	-69.989	-0.466	-0.179
-389.048	-102.650	-0.240	0.058
-388.033	-108.557	0.336	0.073
-387.019	-128.686	0.215	0.031
-386.004	219.019	-0.132	0.212
-384.990	-32.814	-0.260	-0.145
-383.975	-148.221	0.173	0.014
-382.960	-132.203	-0.288	0.038
-381.946	345.332	0.137	-0.271
-380.931	800.000	0.034	-0.138
-379.917	-23.305	0.341	0.206
-378.902	-200.000	-0.000	-0.231
-377.888	164.617	0.123	0.175
-376.873	363.904	0.023	-0.047
-375.858	-19.608	0.221	-0.138
-374.844	800.000	0.049	0.207
-373.829	47.293	-0.089	0.084
-372.815	800.000	0.070	0.296
-371.800	-142.041	-0.041	-0.004
-370.785	-100.817	0.287	0.071
-369.771	-10.560	-0.218	0.145
-368.756	-56.044	0.209	-0.094
-367.742	-200.000	-0.021	-0.102
-366.727	800.000	-0.046	-0.152
-365.712	586.176	0.078	0.192
-364.698	66.077	-0.171	0.175
-363.683	579.094	0.005	-0.012
-362.669	-117.242	0.115	-0.021
-361.654	112.030	-0.372	0.451
-360.639	-32.082	-0.151	0.085
-359.625	89.986	0.160	-0.179
-358.610	-200.000	0.058	0.270
-357.596	-200.000	-0.083	0.491
-356.581	-5.799	-0.157	0.108
-355.566	-200.000	0.002	0.123
-354.552	3.294	0.387	0.283
-353.537	-200.000	-0.009	0.142
-352.523	750.071	-0.031	-0.084
-351.508	800.000	-0.050	-0.199
-350.493	800.000	0.073	-0.294
-349.479	-10.325	0.189	0.126
-348.464	59.103	0.108	-0.106
-347.450	382.437	0.162	0.334
-346.435	4.153	-0.220	-0.162
-345.420	-113.524	-0.376	-0.074
-344.406	340.824	0.156	-0.307
-343.391	-111.845	0.315	-0.064
-342.377	-102.212	-0.274	0.066
-341.362	-119.481	-0.397	0.069
-340.348	800.000	-0.078	0.245
-339.333	-97.341	-0.278	0.073
-338.318	46.028	0.368	0.342
-337.304	-26.280	-0.203	0.120
-336.289	-101.242	0.161	-0.040
-335.275	-200.000	0.021	-0.135
-334.260	-200.000	0.007	0.157
-333.245	409.614	0.118	-0.251
-332.231	-200.000	0.017	0.392
-331.216	218.120	-0.069	0.111
-330.202	-43.347	0.161	0.082
-329.187	-137.274	-0.175	-0.020
-328.172	387.178	-0.099	-0.205
-327.158	-79.283	-0.383	-0.130
-326.143	-101.856	0.487	-0.118
-325.129	-6.940	0.168	0.115
-324.114	375.588	-0.101	-0.206
-323.099	70.482	0.060	-0.062
-322.085	-21.061	-0.095	0.058
-321.070	125.849	-0.076	0.096
-320.056	12.622	0.100	-0.078
-319.041	95.063	-0.080	0.091
-318.026	453.359	-0.041	-0.091
-317.012	-152.921	0.085	0.006
-315.997	57.552	0.140	0.137
-314.983	87.655	-0.220	0.244
-313.968	-76.981	0.235	-0.082
-312.953	502.938	-0.108	0.250
-311.939	184.109	0.203	-0.301
-310.924	800.000	-0.098	-0.331
-309.910	-200.000	-0.045	0.254
-308.895	63.486	0.210	-0.211
-307.880	-184.153	0.027	-0.000
-306.866	-165.269	0.045	-0.002
-305.851	800.000	-0.042	-0.163
-304.837	-131.911	0.018	-0.002
-303.822	-143.992	0.161	0.015
-302.807	143.265	0.164	0.219
-301.793	222.434	-0.034	-0.056
-300.778	-151.303	0.114	0.009
-299.764	-87.329	-0.306	-0.093
-298.749	-1.311	-0.020	-0.014
-297.735	-82.508	0.252	0.082
-296.720	118.431	-0.074	0.091
-295.705	-29.756	0.221	0.127
-294.691	-200.000	0.000	0.254
-293.676	282.195	0.040	-0.072
-292.662	-105.173	-0.206	0.047
-291.647	59.057	-0.028	-0.028
-290.632	230.183	0.100	-0.163
-289.618	-103.735	0.129	-0.030
-288.603	800.000	0.063	-0.233
-287.589	-44.616	0.150	0.075
-286.574	800.000	0.095	0.332
-285.559	329.615	0.127	0.245
-284.545	-36.587	-0.452	-0.243
-283.530	793.346	-0.025	0.069
-282.516	4.350	-0.181	0.133
-281.501	-169.757	-0.291	0.011
-280.486	-200.000	0.057	0.450
-279.472	530.359	0.097	0.229
-278.457	-200.000	-0.080	0.401
-277.443	-96.546	0.176	-0.046
-276.428	61.145	0.286	-0.285
-275.413	-21.902	-0.353	-0.215
-274.399	134.063	0.084	0.110
-273.384	-120.402	0.364	0.062
-272.370	-200.000	-0.010	-0.256
-271.355	202.628	-0.257	0.398
-270.340	117.903	-0.042	-0.052
-269.326	-200.000	-0.022	0.192
-268.311	760.643	-0.190	0.515
-267.297	-182.598	0.186	0.003
-266.282	-124.245	0.145	-0.023
-265.267	51.816	0.159	0.152
-264.253	-128.219	-0.465	-0.066
-263.238	81.843	-0.022	-0.024
-262.224	307.590	-0.154	-0.287
-261.209	-200.000	-0.016	0.091
-260.195	-200.000	-0.004	0.264
-259.180	-7.860	-0.227	-0.153
-258.165	-133.297	-0.093	-0.012
-257.151	4.306	-0.142	0.105
-256.136	-200.000	0.094	-0.498
-255.122	6.290	-0.054	0.040
-254.107	45.192	0.157	0.145
-253.092	-87.478	-0.300	-0.091
-252.078	-30.731	-0.332	0.188
-251.063	-126.403	0.314	0.047
-250.049	93.384	0.078	0.088
-249.034	359.679	-0.042	0.084
-248.019	800.000	-0.124	-0.358
-247.005	-200.000	-0.021	0.106
-245.990	-123.824	-0.363	-0.057
-244.976	-200.000	0.010	0.112
-243.961	-200.000	-0.020	-0.129
-242.946	257.204	0.104	-0.178
-241.932	279.911	0.157	-0.281
-240.917	-72.091	0.071	-0.026
-239.903	-200.000	0.014	0.160
-238.888	800.000	-0.079	-0.244
-237.873	-43.202	-0.083	0.042
-236.859	211.740	0.172	0.271
-235.844	95.230	-0.104	-0.119
-234.830	201.878	-0.135	-0.208
-233.815	-103.183	-0.071	-0.017
-232.800	-8.404	0.350	0.235
-231.786	-110.802	0.154	-0.032
-230.771	-200.000	-0.013	-0.207
-229.757	-200.000	0.033	-0.299
-228.742	13.453	0.123	-0.096
-227.727	-89.894	0.095	-0.028
-226.713	547.850	0.058	0.138
-225.698	0.890	0.208	0.149
-224.684	197.105	-0.119	-0.181
-223.669	800.000	0.024	-0.103
-222.655	686.977	-0.122	0.318
-221.640	-191.852	-0.144	-0.001
-220.625	487.914	-0.034	-0.076
-219.611	-128.541	-0.055	0.008
-218.596	394.269	0.060	-0.126
-217.582	-162.644	0.038	-0.002
-216.567	800.000	-0.147	0.454
-215.552	-26.534	0.122	-0.071
-214.538	737.445	-0.023	0.061
-213.523	-13.271	0.169	-0.110
-212.509	69.363	0.213	-0.219
-211.494	-96.521	0.417	-0.110
-210.479	-30.126	0.098	0.056
-209.465	77.711	-0.272	-0.289
-208.450	-12.708	-0.246	-0.161
-207.436	85.021	-0.126	-0.138
-206.421	-109.562	-0.277	0.058
-205.406	-15.546	0.218	0.139
-204.392	314.584	0.136	0.257
-203.377	-7.696	-0.065	0.044
-202.363	-69.473	-0.252	0.096
-201.348	-158.022	0.165	0.010
-200.333	57.616	-0.324	-0.317
-199.319	-12.470	0.413	-0.269
-198.304	-88.285	0.326	0.097
-197.290	397.131	-0.191	0.398
-196.275	48.200	-0.157	-0.147
-195.260	360.349	0.025	-0.050
-194.246	-200.000	0.003	-0.221
-193.231	246.309	-0.176	0.296
-192.217	113.294	0.316	0.382
-191.202	-200.000	0.039	0.191
-190.187	-200.000	-0.042	0.367
-189.173	147.030	0.068	-0.091
-188.158	321.939	0.124	0.237
-187.144	-107.784	0.140	0.031
-186.129	-171.779	-0.055	-0.002
-185.114	800.000	0.128	0.470
-184.100	345.934	0.191	-0.375
-183.085	182.898	0.133	0.197
-182.071	800.000	0.124	-0.452
-181.056	72.493	0.223	-0.232
-180.042	-56.638	-0.303	0.134
-179.027	800.000	-0.098	0.283
-178.012	-87.529	-0.199	-0.060
-176.998	219.867	-0.116	0.186
-175.983	-9.678	0.069	-0.046
-174.969	43.622	0.056	0.051
-173.954	161.707	-0.076	0.106
-172.939	208.466	-0.082	0.129
-171.925	800.000	0.022	0.090
-170.910	-200.000	0.008	0.126
-169.896	98.735	-0.168	-0.194
-168.881	800.000	0.097	-0.269
-167.866	-101.517	-0.073	-0.018
-166.852	-136.391	0.190	0.022
-165.837	800.000	0.028	0.107
-164.823	13.026	0.276	0.213
-163.808	-200.000	0.054	0.246
-162.793	-22.207	0.201	0.122
-161.779	44.727	-0.109	-0.100
-160.764	143.717	-0.195	-0.260
-159.750	95.369	0.156	-0.177
-158.735	-200.000	0.001	0.052
-157.720	-184.994	-0.152	-0.002
-156.706	-107.934	-0.276	-0.060
-155.691	-169.179	0.418	-0.015
-154.677	51.215	-0.081	-0.076
-153.662	141.433	0.145	0.192
-152.647	-73.202	0.358	0.131
-151.633	93.815	-0.178	-0.201
-150.618	277.002	-0.089	-0.158
-149.604	-79.693	-0.207	0.070
-148.589	31.746	0.182	0.156
-147.574	-51.663	0.233	0.108
-146.560	-46.640	0.176	-0.086
-145.545	-81.669	0.145	-0.047
-144.531	36.559	0.101	0.089
-143.516	-200.000	-0.025	-0.308
-142.502	284.536	0.085	0.152
-141.487	316.896	0.151	-0.284
-140.472	-61.599	0.245	-0.103
-139.458	164.160	-0.112	-0.157
-138.443	-54.806	0.298	-0.134
-137.429	-150.732	0.004	-0.000
-136.414	-200.000	-0.026	0.206
-135.399	-31.243	0.012	-0.007
-134.385	800.000	0.022	0.090
-133.370	-200.000	-0.010	0.133
-132.356	-200.000	-0.027	0.221
-131.341	116.051	0.349	0.426
-130.326	800.000	-0.073	0.224
-129.312	95.814	-0.243	-0.276
-128.297	128.664	0.108	-0.137
-127.283	430.383	0.104	0.225
-126.268	16.922	-0.056	-0.044
-125.253	-200.000	-0.011	0.075
-124.239	-171.088	-0.270	-0.009
-123.224	-173.412	0.152	0.005
-122.210	-38.758	-0.171	-0.090
-121.195	281.831	0.139	-0.249
-120.180	72.859	0.281	0.292
-119.166	-49.007	0.180	0.086
-118.151	308.610	-0.091	0.168
-117.137	256.541	0.032	0.054
-116.122	-14.632	0.174	-0.111
-115.107	-164.872	-0.336	0.015
-114.093	-78.777	-0.148	-0.050
-113.078	800.000	-0.057	-0.169
-112.064	-200.000	-0.005	-0.061
-111.049	-101.266	-0.070	0.017
-110.034	136.157	0.082	-0.107
-109.020	-108.259	0.445	0.096
-108.005	-14.037	-0.329	0.212
-106.991	-200.000	0.011	0.196
-105.976	800.000	0.117	0.391
-104.962	800.000	0.029	0.109
-103.947	-40.546	0.215	0.111
-102.932	-200.000	-0.024	0.360
-101.918	281.417	-0.144	0.256
-100.903	542.931	0.063	0.148
-99.889	265.102	-0.018	-0.032
-98.874	-138.534	0.159	-0.017
-97.859	251.310	-0.252	0.427
-96.845	-9.572	0.112	-0.074
-95.830	57.218	-0.102	-0.099
-94.816	-200.000	-0.039	-0.197
-93.801	331.916	0.109	0.209
-92.786	134.735	0.113	0.146
-91.772	27.618	0.101	-0.085
-90.757	77.085	-0.111	-0.117
-89.743	800.000	-0.060	0.206
-88.728	800.000	0.062	0.186
-87.713	-108.650	0.045	0.010
-86.699	-96.113	-0.368	-0.097
-85.684	-115.103	0.350	0.066
-84.670	131.418	-0.068	-0.086
-83.655	343.939	0.147	-0.288
-82.640	-163.115	0.390	0.019
-81.626	-33.465	-0.291	0.160
-80.611	552.570	0.118	0.282
-79.597	81.208	0.117	0.126
-78.582	-200.000	0.018	-0.266
-77.567	-54.668	0.080	-0.036
-76.553	35.653	-0.191	-0.166
-75.538	13.711	-0.208	-0.161
-74.524	-183.155	-0.092	0.002
-73.509	-97.646	0.124	-0.032
-72.494	-200.000	-0.013	-0.136
-71.480	-200.000	-0.008	0.363
-70.465	-200.000	0.070	0.410
-69.451	-163.367	0.230	0.011
-68.436	800.000	0.044	-0.136
-67.422	125.199	-0.086	0.108
-66.407	800.000	-0.065	-0.182
-65.392	-115.720	-0.306	-0.057
-64.378	-95.752	-0.205	-0.055
-63.363	10.928	-0.137	0.104
-62.349	791.356	0.187	0.510
-61.334	30.416	-0.947	-0.804
-60.319	220.092	0.316	0.503
-59.305	800.000	-0.312	-0.887
-58.290	55.176	0.359	0.345
-57.276	800.000	0.425	1.448
-56.261	-200.000	88.454	500.416
-55.246	542.933	1367.869	3240.792
-54.232	184.386	2606.747	3834.851
-53.217	115.310	2222.927	2696.511
-52.203	46.692	1669.373	1539.555
-51.188	39.284	1399.081	1243.627
-50.173	36.004	1355.465	1184.682
-49.159	55.626	1399.519	1346.100
-48.144	59.676	1418.023	1389.125
-47.130	39.792	1375.741	1225.842
-46.115	36.080	1358.051	1187.219
-45.100	35.885	1353.561	1182.048
-44.086	35.775	1350.646	1178.782
-43.071	35.715	1348.347	1176.361
-42.057	35.682	1346.664	1174.644
-41.042	35.849	1344.474	1173.707
-40.027	35.846	1343.052	1172.403
-39.013	35.860	1341.255	1170.873
-37.998	35.938	1338.819	1169.171
-36.984	35.942	1336.998	1167.556
-35.969	35.990	1334.917	1165.988
-34.954	36.006	1333.377	1164.693
-33.940	36.068	1331.729	1163.581
-32.925	35.894	1331.154	1161.982
-31.911	36.019	1329.299	1161.070
-30.896	36.100	1327.317	1159.783
-29.881	36.046	1325.951	1158.216
-28.867	36.102	1324.918	1157.604
-27.852	36.119	1323.085	1156.059
-26.838	35.976	1322.227	1154.407
-25.823	35.988	1320.241	1152.699
-24.809	36.053	1318.608	1151.617
-23.794	35.884	1318.244	1150.238
-22.779	36.058	1316.090	1149.356
-21.765	36.070	1314.772	1148.227
-20.750	36.070	1313.844	1147.372
-19.736	35.904	1312.472	1145.144
-18.721	35.968	1310.658	1143.891
-17.706	35.925	1309.244	1142.362
-16.692	35.831	1308.671	1141.255
-15.677	35.947	1307.547	1140.918
-14.663	35.791	1306.561	1139.089
-13.648	35.859	1305.190	1138.254
-12.633	35.900	1303.878	1137.305
-11.619	35.919	1302.953	1136.567
-10.604	35.745	1302.501	1135.097
-9.590	35.870	1300.944	1134.433
-8.575	35.821	1300.583	1133.784
-7.560	35.827	1299.202	1132.571
-6.546	35.784	1298.509	1131.667
-5.531	35.823	1297.684	1131.135
-4.517	35.912	1296.398	1130.489
-3.502	35.839	1296.041	1129.705
-2.487	36.024	1294.424	1129.333
-1.473	35.966	1290.956	1125.925
-0.458	35.115	1276.682	1108.513
0.556	30.338	1258.789	1072.346
1.571	27.004	1263.553	1056.940
2.586	26.243	1278.524	1064.883
3.600	25.041	1266.699	1047.916
4.615	17.247	1188.090	939.867
5.629	5.423	1105.541	813.312
6.644	0.390	1082.466	770.590
7.659	0.162	1079.616	767.330
8.673	-0.008	1078.673	765.724
9.688	-0.023	1076.680	764.169
10.702	0.482	1075.547	765.857
11.717	7.564	1086.982	810.162
12.731	17.927	1102.095	874.707
13.746	21.883	1106.541	898.464
14.761	22.011	1106.138	898.711
15.775	22.001	1105.825	898.326
16.790	21.738	1104.967	896.206
17.804	21.704	1104.046	895.207
18.819	21.849	1103.829	895.693
19.834	21.840	1103.264	895.108
20.848	21.823	1102.867	894.622
21.863	21.925	1102.038	894.390
22.877	21.862	1101.816	893.807
23.892	21.762	1100.703	892.317
24.907	21.792	1100.571	892.284
25.921	21.844	1099.043	891.231
26.936	21.757	1097.780	889.684
27.950	21.730	1096.034	888.052
28.965	21.626	1094.482	886.192
29.980	21.759	1092.228	884.963
30.994	21.979	1091.330	885.266
32.009	21.920	1090.439	884.165
33.023	21.734	1089.087	882.058
34.038	21.647	1088.671	881.205
35.053	21.862	1087.900	881.584
36.067	21.987	1086.685	881.145
37.082	21.917	1086.477	880.547
38.096	22.069	1085.494	880.438
39.111	22.198	1084.491	880.190
40.126	21.935	1083.368	877.885
41.140	21.635	1081.144	874.506
42.155	21.474	1079.593	872.373
43.169	21.517	1078.954	871.996
44.184	21.561	1077.720	871.140
45.199	21.387	1076.673	869.351
46.213	21.505	1076.110	869.407
47.228	21.583	1074.859	868.703
48.242	21.599	1074.197	868.174
49.257	21.789	1073.714	868.644
50.271	21.787	1072.940	867.933
51.286	21.819	1072.375	867.560
52.301	21.802	1071.071	866.344
53.315	21.828	1069.926	865.466
54.330	21.829	1068.909	864.573
55.344	21.811	1068.158	863.799
56.359	21.940	1066.714	863.190
57.374	21.566	1066.389	861.012
58.388	21.618	1065.558	860.521
59.403	21.605	1064.588	859.598
60.417	21.409	1063.709	857.851
61.432	21.527	1063.279	858.008
62.447	21.603	1062.581	857.740
63.461	21.677	1061.668	857.287
64.476	21.613	1060.347	855.832
65.490	21.548	1059.828	855.020
66.505	21.528	1059.218	854.357
67.520	21.665	1058.369	854.265
68.534	21.334	1057.530	851.898
69.549	21.094	1055.999	849.423
70.563	21.132	1055.173	848.865
71.578	21.229	1054.271	848.537
72.593	21.126	1053.215	847.112
73.607	21.200	1052.754	847.024
74.622	21.374	1052.484	847.576
75.636	21.499	1051.613	847.405
76.651	21.312	1050.899	845.850
77.666	21.276	1049.672	844.616
78.680	21.231	1049.862	844.477
79.695	21.396	1048.715	844.273
80.709	21.521	1047.948	844.187
81.724	21.429	1047.341	843.180
82.739	21.440	1046.511	842.486
83.753	21.763	1045.900	843.476
84.768	22.159	1044.786	844.405
85.782	22.182	1044.137	843.920
86.797	22.165	1042.497	842.435
87.812	21.870	1041.944	840.501
88.826	22.098	1040.692	840.510
89.841	22.139	1040.421	840.411
90.855	22.133	1039.063	839.210
91.870	22.075	1038.371	838.301
92.884	21.887	1037.136	836.336
93.899	21.828	1035.949	835.022
94.914	21.972	1035.430	835.213
95.928	21.949	1034.011	833.888
96.943	21.743	1032.793	831.853
97.957	21.508	1031.519	829.640
98.972	21.355	1030.483	828.010
99.987	21.556	1029.837	828.368
101.001	21.722	1029.200	828.567
102.016	21.686	1028.291	827.590
103.030	21.813	1027.138	827.190
104.045	21.530	1026.232	825.050
105.060	21.453	1024.928	823.568
106.074	21.531	1024.509	823.524
107.089	21.830	1023.791	824.282
108.103	21.873	1022.690	823.527
109.118	21.643	1021.221	821.190
110.133	21.490	1020.639	819.931
111.147	21.444	1018.877	818.230
112.162	21.200	1018.162	816.442
113.176	21.442	1017.742	817.163
114.191	21.504	1016.179	816.125
115.206	21.051	1015.739	813.589
116.220	21.055	1015.055	812.985
117.235	21.457	1013.751	813.741
118.249	21.283	1013.050	812.298
119.264	21.182	1011.857	810.800
120.279	21.183	1011.264	810.259
121.293	21.313	1010.404	810.100
122.308	21.349	1009.483	809.457
123.322	21.236	1008.092	807.745
124.337	21.126	1006.868	806.189
125.352	20.732	1005.381	803.106
126.366	20.607	1004.641	801.869
127.381	21.360	1004.324	805.013
128.395	21.766	1003.851	806.433
129.410	21.923	1002.757	806.201
130.424	21.723	1001.799	804.444
131.439	21.818	1000.913	804.096
132.454	21.790	1000.067	803.216
133.468	21.610	999.210	801.633
134.483	21.832	998.187	801.757
135.497	21.902	997.526	801.474
136.512	21.945	996.953	801.140
137.527	22.096	995.948	800.950
138.541	22.124	994.915	800.177
139.556	22.182	993.998	799.630
140.570	22.051	993.675	798.706
141.585	22.123	992.214	797.788
142.600	22.052	991.184	796.568
143.614	22.298	990.600	797.143
144.629	22.323	989.737	796.492
145.643	22.148	988.295	794.467
146.658	22.076	986.862	792.920
147.673	21.997	985.676	791.540
148.687	21.894	984.677	790.206
149.702	21.829	983.718	789.073
150.716	21.726	982.858	787.851
151.731	21.972	981.934	788.147
152.746	22.077	981.781	788.425
153.760	22.156	980.990	788.071
154.775	22.269	980.378	788.019
155.789	22.177	979.441	786.785
156.804	22.165	978.493	785.901
157.819	22.095	978.075	785.182
158.833	22.203	977.257	784.937
159.848	22.225	976.004	783.959
160.862	22.117	974.710	782.370
161.877	22.117	973.735	781.516
162.892	22.122	972.880	780.785
163.906	22.205	971.609	780.064
164.921	22.020	971.295	778.921
165.935	22.198	970.003	778.606
166.950	22.147	968.947	777.463
167.964	22.160	968.373	776.991
168.979	21.905	967.230	774.879
169.994	21.965	966.201	774.250
171.008	22.175	965.473	774.526
172.023	22.172	964.502	773.663
173.037	21.887	963.582	771.603
174.052	21.919	962.277	770.630
175.067	21.851	961.968	770.019
176.081	22.092	960.746	770.026
177.096	21.914	960.331	768.845
178.110	21.645	959.496	766.933
179.125	21.565	958.632	765.825
180.140	21.492	958.473	765.310
181.154	21.671	958.229	765.828
182.169	22.039	957.635	766.896
183.183	22.201	957.272	767.243
184.198	22.093	956.058	765.731
185.213	22.049	955.811	765.277
186.227	22.178	955.371	765.419
187.242	22.153	954.675	764.683
188.256	22.240	953.803	764.295
189.271	22.159	952.998	763.229
190.286	21.967	951.879	761.432
191.300	21.352	950.136	757.308
192.315	20.681	948.669	753.166
193.329	20.643	948.373	752.703
194.344	21.299	949.078	756.033
195.359	21.986	949.132	758.982
196.373	22.082	948.180	758.567
197.388	21.942	947.868	757.649
198.402	21.864	946.970	756.526
199.417	22.033	946.094	756.486
200.432	21.830	944.864	754.564
201.446	21.608	944.260	753.061
202.461	21.671	943.471	752.633
203.475	20.868	941.716	747.725
204.490	20.046	940.451	743.127
205.504	20.941	940.871	747.232
206.519	21.605	940.583	749.784
207.534	21.728	940.515	750.190
208.548	22.090	940.081	751.327
209.563	21.835	939.249	749.504
210.577	21.844	938.629	748.980
211.592	22.214	938.418	750.325
212.607	22.106	937.360	748.951
213.621	22.154	936.429	748.346
214.636	22.178	935.865	747.932
215.650	22.018	935.553	746.936
216.665	22.359	934.371	747.375
217.680	22.251	933.415	746.086
218.694	21.723	932.550	743.089
219.709	21.608	931.721	741.878
220.723	22.056	930.895	743.049
221.738	22.012	930.793	742.714
222.753	22.076	929.964	742.257
223.767	22.090	929.668	742.016
224.782	22.280	929.536	742.649
225.796	22.405	928.695	742.439
226.811	21.594	927.401	737.919
227.826	21.063	925.789	734.340
228.840	21.306	925.539	735.099
229.855	21.313	924.797	734.471
230.869	21.046	923.748	732.452
231.884	21.484	923.509	734.037
232.899	21.994	923.778	736.324
233.913	21.882	923.105	735.255
234.928	22.097	922.167	735.340
235.942	21.905	921.359	733.829
236.957	21.683	920.525	732.172
237.972	21.510	920.265	731.178
238.986	21.811	919.452	731.723
240.001	21.747	918.840	730.904
241.015	21.932	918.323	731.200
242.030	21.997	917.664	730.881
243.045	21.993	917.287	730.502
244.059	22.180	916.974	730.963
245.074	21.916	916.247	729.221
246.088	21.680	914.942	727.139
247.103	22.020	914.348	728.014
248.117	22.415	915.084	730.172
249.132	22.801	913.609	730.529
250.147	22.721	913.539	730.079
251.161	22.820	913.229	730.174
252.176	22.762	912.598	729.367
253.190	22.829	912.073	729.158
254.205	23.059	911.195	729.340
255.220	23.074	910.979	729.165
256.234	22.908	909.791	727.467
257.249	22.719	909.062	726.041
258.263	22.824	908.327	725.824
259.278	22.942	907.557	725.627
260.293	23.014	907.177	725.555
261.307	22.847	906.434	724.212
262.322	22.719	905.763	723.088
263.336	21.899	903.559	717.911
264.351	20.943	901.572	712.363
265.366	20.889	901.332	711.891
266.380	22.006	901.960	716.886
267.395	22.619	901.628	719.061
268.409	22.366	901.180	717.608
269.424	22.657	900.393	718.102
270.439	22.729	899.619	717.713
271.453	22.814	898.756	717.309
272.468	22.970	898.802	717.913
273.482	23.039	898.092	717.563
274.497	22.620	897.019	714.945
275.512	22.125	896.080	712.126
276.526	22.555	896.294	713.977
277.541	22.698	895.622	713.956
278.555	22.616	894.539	712.698
279.570	22.287	894.116	710.970
280.585	22.618	893.724	711.931
281.599	22.615	892.423	710.819
282.614	22.108	890.829	707.446
283.628	22.062	890.517	706.953
284.643	22.487	890.419	708.520
285.657	21.972	889.347	705.535
286.672	21.679	888.629	703.726
287.687	22.214	888.683	705.856
288.701	22.317	887.733	705.454
289.716	21.912	887.061	703.234
290.730	21.922	886.324	702.626
291.745	21.645	885.223	700.586
292.760	22.051	885.128	702.070
293.774	23.031	885.498	706.220
294.789	23.376	884.957	707.100
295.803	23.269	884.764	706.457
296.818	23.165	884.289	705.603
297.833	22.851	883.029	703.284
298.847	22.642	882.294	701.805
299.862	23.003	882.036	702.971
300.876	23.171	882.053	703.590
301.891	23.174	880.886	702.611
302.906	22.643	879.584	699.404
303.920	22.693	880.015	699.883
304.935	23.212	879.482	701.454
305.949	23.182	878.603	700.574
306.964	23.002	877.670	699.054
307.979	22.978	877.503	698.765
308.993	23.241	877.651	699.863
310.008	23.320	876.401	699.113
311.022	23.106	875.633	697.596
312.037	22.931	875.309	696.587
313.052	22.600	874.196	694.336
314.066	21.929	872.363	690.178
315.081	21.532	871.555	687.918
316.095	22.465	872.171	692.014
317.110	22.889	872.337	693.750
318.125	22.075	870.925	689.372
319.139	20.968	869.057	683.492
320.154	21.056	868.207	683.109
321.168	22.037	868.970	687.492
322.183	22.609	869.401	690.011
323.197	22.687	869.110	690.026
324.212	22.990	868.695	690.817
325.227	22.923	867.716	689.717
326.241	22.828	867.129	688.821
327.256	22.904	866.093	688.230
328.270	22.714	865.814	687.207
329.285	22.552	864.896	685.789
330.300	22.293	864.099	684.091
331.314	22.538	863.714	684.676
332.329	22.973	863.399	686.056
333.343	23.127	863.434	686.620
334.358	23.112	862.917	686.089
335.373	23.169	862.706	686.083
336.387	23.634	862.146	687.378
337.402	23.487	862.291	686.862
338.416	23.332	862.147	686.087
339.431	23.551	861.323	686.220
340.446	23.775	861.017	686.779
341.460	23.510	860.645	685.398
342.475	23.290	860.051	684.016
343.489	23.503	859.530	684.364
344.504	24.030	859.024	685.932
345.519	23.893	859.038	685.352
346.533	23.814	858.575	684.617
347.548	23.799	858.098	684.121
348.562	23.853	857.348	683.668
349.577	23.781	856.787	682.886
350.592	23.761	856.151	682.240
351.606	23.736	855.372	681.462
352.621	23.826	854.188	680.804
353.635	23.478	853.679	679.007
354.650	22.933	852.066	675.579
355.665	21.955	850.437	670.496
356.679	22.517	850.616	672.722
357.694	22.840	850.182	673.554
358.708	22.727	849.794	672.756
359.723	23.127	849.675	674.126
360.738	23.540	849.070	675.159
361.752	23.595	848.889	675.165
362.767	23.974	847.978	675.818
363.781	24.079	848.007	676.180
364.796	24.271	847.587	676.517
365.810	24.277	847.031	676.034
366.825	24.173	846.367	675.050
367.840	23.950	845.698	673.613
368.854	23.541	844.776	671.273
369.869	23.541	844.565	671.043
370.883	23.765	843.959	671.349
371.898	23.617	843.372	670.264
372.913	23.553	843.273	669.886
373.927	23.806	842.702	670.328
374.942	23.806	842.259	669.915
375.956	23.873	842.273	670.118
376.971	24.065	841.396	670.086
377.986	24.218	841.003	670.289
379.000	24.333	839.895	669.777
380.015	23.989	839.595	668.189
381.029	24.167	838.922	668.262
382.044	24.267	838.356	668.126
383.059	24.229	838.427	667.982
384.073	24.213	838.117	667.613
385.088	24.196	837.056	666.648
386.102	23.944	836.769	665.416
387.117	24.002	836.063	665.012
388.132	23.607	834.555	662.282
389.146	23.122	833.560	659.626
390.161	23.623	833.667	661.520
391.175	24.007	833.590	662.829
392.190	23.623	832.410	660.406
393.205	22.321	830.267	653.811
394.219	20.923	828.563	647.224
395.234	20.674	828.410	646.124
396.248	22.285	829.508	652.907
397.263	23.872	830.429	659.467
398.278	23.745	830.340	658.864
399.292	23.523	829.138	657.032
400.307	23.520	828.781	656.680
401.321	23.601	828.460	656.666
402.336	23.961	828.402	657.895
403.350	24.309	828.491	659.193
404.365	24.688	828.231	660.328
405.380	24.965	827.814	660.960
406.394	24.971	827.190	660.425
407.409	24.879	826.422	659.413
408.423	24.780	826.244	658.849
409.438	24.890	825.922	658.939
410.453	25.010	825.306	658.831
411.467	24.921	824.907	658.127
412.482	24.767	824.368	657.072
413.496	25.048	824.151	657.872
414.511	24.908	823.711	656.948
415.526	24.837	823.520	656.478
416.540	24.722	822.413	655.119
417.555	24.557	821.693	653.882
418.569	24.524	821.206	653.315
419.584	24.652	820.584	653.230
420.599	24.478	819.937	652.024
421.613	150.990	1367.839	1788.364
422.628	131.422	1447.687	1788.467
