DTS Sentinel unit serial number:	SN413079Multiplexer serial number:	ORYXHardware model number:	OX4-SRSoftware version number:	ORYX F/W v4.00 Oryx Data Collector v3.7.2.0data status	okinstallation	princeton_trtdifferential loss correction	single-endedforward channel	channel 1reverse channel	N/Adate	2019/09/18time	11:06:35forward acquisition time	60.00reverse acquisition time	0.00gamma	496.2192k internal	0.2326k external	0.2326temperature offset calibration	0.9974default loss term (dB/km)	0.3790temperature slope calibration	1.0000multiplexer offset coefficient	1.0000multiplexer slope coefficient	1.0000fibre end	0.00T internal ref (°C)	29.50T ext. ref 1 (°C)	0.41T ext. ref 2 (°C)	26.27length (m)	temperature (°C)	Stokes	anti-Stokes-747.200	3.470	0.159	0.117
-746.185	-55.507	-0.221	0.100
-745.171	800.000	-0.077	-0.243
-744.156	800.000	-0.009	-0.032
-743.142	800.000	0.050	0.207
-742.127	58.932	-0.128	0.127
-741.112	70.984	0.201	0.210
-740.098	25.578	0.114	0.096
-739.083	800.000	0.044	-0.139
-738.069	260.311	-0.192	0.334
-737.054	12.302	0.090	-0.070
-736.039	-179.041	-0.114	-0.003
-735.025	177.861	0.336	0.494
-734.010	13.477	-0.300	-0.235
-732.996	87.139	0.034	0.038
-731.981	-200.000	-0.015	-0.223
-730.966	11.581	-0.144	0.112
-729.952	106.032	-0.202	0.241
-728.937	722.805	0.111	0.297
-727.923	98.165	-0.143	-0.166
-726.908	800.000	0.020	0.062
-725.894	-13.534	-0.155	-0.101
-724.879	800.000	-0.021	-0.080
-723.864	-116.478	-0.352	-0.066
-722.850	152.775	0.167	-0.230
-721.835	-200.000	0.010	-0.174
-720.821	131.888	-0.122	0.159
-719.806	-200.000	0.044	-0.245
-718.791	363.372	0.066	-0.133
-717.777	-200.000	0.053	0.355
-716.762	7.395	-0.041	0.031
-715.748	-200.000	0.044	-0.298
-714.733	-2.849	0.044	0.031
-713.718	106.869	0.189	0.226
-712.704	-37.904	-0.372	0.199
-711.689	355.707	-0.110	-0.221
-710.675	800.000	-0.104	0.314
-709.660	800.000	0.069	0.255
-708.645	26.603	0.233	0.196
-707.631	-200.000	0.036	0.184
-706.616	-15.334	0.080	-0.051
-705.602	78.822	-0.133	-0.143
-704.587	-200.000	-0.038	-0.175
-703.572	-85.176	-0.317	-0.100
-702.558	93.325	-0.065	-0.074
-701.543	278.861	-0.068	0.123
-700.529	-34.208	-0.068	-0.038
-699.514	-124.471	0.285	-0.045
-698.499	-200.000	-0.035	-0.237
-697.485	-127.913	-0.160	-0.023
-696.470	228.737	-0.128	0.210
-695.456	-99.897	-0.183	0.046
-694.441	151.790	0.203	0.279
-693.426	-60.569	-0.152	-0.065
-692.412	111.700	-0.225	-0.274
-691.397	276.899	-0.087	-0.155
-690.383	87.195	0.103	-0.115
-689.368	-109.935	-0.362	-0.076
-688.354	102.711	-0.253	0.298
-687.339	-87.365	0.020	-0.006
-686.324	132.811	-0.087	0.113
-685.310	62.887	-0.075	-0.076
-684.295	-97.105	-0.163	-0.043
-683.281	-200.000	0.039	-0.295
-682.266	800.000	0.049	-0.150
-681.251	184.984	-0.145	-0.217
-680.237	67.093	0.212	-0.217
-679.222	-200.000	0.049	-0.262
-678.208	800.000	-0.032	0.124
-677.193	99.635	0.212	0.247
-676.178	-19.315	0.168	-0.105
-675.164	733.519	0.042	-0.114
-674.149	383.187	-0.086	-0.178
-673.135	104.687	0.197	0.233
-672.120	248.939	0.095	0.163
-671.105	-188.596	0.302	-0.004
-670.091	-122.071	-0.214	-0.035
-669.076	-29.421	-0.128	0.073
-668.062	-13.235	-0.158	0.103
-667.047	-114.656	-0.203	0.039
-666.032	-79.794	-0.263	-0.089
-665.018	-68.287	-0.050	0.020
-664.003	-100.091	-0.465	-0.116
-662.989	578.693	0.043	-0.105
-661.974	-119.952	-0.247	-0.043
-660.959	-200.000	-0.007	-0.035
-659.945	-200.000	-0.015	-0.199
-658.930	-156.132	-0.188	-0.012
-657.916	-141.884	-0.146	-0.015
-656.901	-200.000	-0.037	0.198
-655.886	-59.597	-0.166	0.072
-654.872	45.501	0.154	0.143
-653.857	681.357	-0.085	0.223
-652.843	223.735	0.135	-0.220
-651.828	-200.000	0.065	0.428
-650.814	-87.382	-0.098	-0.030
-649.799	-59.074	-0.334	-0.145
-648.784	130.728	0.090	-0.116
-647.770	179.312	0.178	-0.261
-646.755	-30.629	0.271	-0.154
-645.741	-200.000	-0.028	-0.258
-644.726	-200.000	-0.042	-0.187
-643.711	266.740	0.137	0.240
-642.697	-64.734	-0.314	0.128
-641.682	-92.176	-0.186	-0.053
-640.668	329.725	-0.075	-0.146
-639.653	384.444	0.011	-0.022
-638.638	-200.000	0.005	-0.137
-637.624	-194.685	-0.144	-0.001
-636.609	-67.823	-0.516	-0.203
-635.595	-95.976	0.126	-0.034
-634.580	-47.132	0.150	-0.074
-633.565	-96.269	-0.255	-0.068
-632.551	696.576	0.156	0.410
-631.536	563.002	-0.113	-0.274
-630.522	135.861	-0.261	-0.341
-629.507	-200.000	0.002	-0.258
-628.492	383.954	0.116	-0.240
-627.478	16.353	-0.275	0.218
-626.463	393.044	0.140	-0.293
-625.449	-200.000	0.037	-0.242
-624.434	-180.528	0.191	0.004
-623.419	-138.833	-0.073	-0.008
-622.405	-163.614	-0.281	0.013
-621.390	-200.000	0.025	-0.191
-620.376	412.376	0.202	0.430
-619.361	22.904	-0.274	-0.226
-618.346	-23.837	-0.196	-0.118
-617.332	-200.000	0.006	0.340
-616.317	-200.000	0.024	-0.186
-615.303	80.030	0.029	-0.031
-614.288	-120.502	0.106	-0.018
-613.273	800.000	-0.125	-0.357
-612.259	-19.743	-0.250	-0.155
-611.244	-200.000	-0.006	0.201
-610.230	90.654	0.082	-0.092
-609.215	800.000	-0.108	-0.332
-608.201	-112.644	0.111	0.022
-607.186	-200.000	0.000	0.386
-606.171	484.664	-0.252	0.575
-605.157	74.059	0.233	0.246
-604.142	167.947	-0.158	0.225
-603.128	-3.479	0.146	-0.102
-602.113	-67.363	0.318	-0.126
-601.098	118.719	0.170	-0.211
-600.084	56.539	0.028	0.027
-599.069	612.461	-0.056	0.141
-598.055	-200.000	-0.069	0.307
-597.040	444.120	-0.024	0.052
-596.025	-200.000	-0.030	0.391
-595.011	-112.291	-0.333	0.067
-593.996	162.179	0.115	-0.161
-592.982	152.958	-0.062	0.085
-591.967	460.671	-0.029	0.064
-590.952	800.000	0.046	-0.155
-589.938	566.817	-0.074	-0.179
-588.923	-71.578	-0.186	0.070
-587.909	58.050	-0.116	0.114
-586.894	799.198	-0.060	-0.167
-585.879	-39.518	0.237	-0.125
-584.865	165.339	-0.057	0.081
-583.850	629.844	-0.100	0.254
-582.836	-65.713	-0.282	-0.113
-581.821	800.000	0.053	0.215
-580.806	-130.115	-0.146	-0.020
-579.792	-23.332	0.112	0.068
-578.777	539.102	-0.085	0.204
-577.763	800.000	0.013	-0.039
-576.748	157.683	0.186	-0.258
-575.733	-200.000	0.022	0.168
-574.719	-43.590	-0.080	0.041
-573.704	-14.593	-0.265	0.171
-572.690	18.468	0.044	-0.035
-571.675	800.000	-0.041	-0.137
-570.661	59.045	0.103	0.102
-569.646	800.000	0.065	-0.216
-568.631	698.831	-0.112	0.294
-567.617	-200.000	-0.251	-0.001
-566.602	-1.580	-0.077	0.055
-565.588	-200.000	-0.050	0.233
-564.573	-114.300	-0.223	0.043
-563.558	257.361	-0.155	0.267
-562.544	7.316	0.126	0.094
-561.529	800.000	0.098	-0.277
-560.515	89.443	0.227	-0.253
-559.500	800.000	0.075	0.256
-558.485	-70.562	-0.198	-0.075
-557.471	-74.157	0.195	-0.071
-556.456	141.298	0.222	0.295
-555.442	115.618	0.109	-0.134
-554.427	22.026	0.237	0.193
-553.412	-73.009	0.228	0.084
-552.398	-40.452	-0.081	0.042
-551.383	50.620	-0.062	0.059
-550.369	33.644	-0.150	0.131
-549.354	85.842	-0.244	0.269
-548.339	-153.255	-0.214	-0.015
-547.325	194.774	-0.235	-0.357
-546.310	800.000	0.023	-0.073
-545.296	253.420	0.076	-0.129
-544.281	800.000	0.043	-0.131
-543.266	210.800	0.070	-0.111
-542.252	513.242	-0.151	-0.352
-541.237	-172.341	-0.389	0.012
-540.223	7.426	-0.031	0.023
-539.208	157.994	0.090	0.125
-538.193	-139.020	0.231	-0.025
-537.179	-78.583	-0.125	-0.043
-536.164	112.200	-0.297	0.360
-535.150	259.011	-0.015	0.025
-534.135	113.517	-0.015	-0.018
-533.121	-139.328	-0.112	-0.012
-532.106	-48.006	0.036	-0.018
-531.091	153.824	-0.226	0.309
-530.077	47.195	0.098	-0.092
-529.062	194.953	0.056	-0.086
-528.048	256.385	0.015	-0.026
-527.033	10.573	-0.043	0.033
-526.018	800.000	-0.030	0.083
-525.004	-43.978	-0.109	-0.055
-523.989	115.369	0.150	-0.183
-522.975	-200.000	-0.020	-0.270
-521.960	-27.367	-0.166	0.097
-520.945	-11.394	0.228	-0.150
-519.931	19.608	-0.249	0.201
-518.916	315.164	0.167	0.315
-517.902	-112.850	-0.257	-0.051
-516.887	405.424	-0.109	-0.231
-515.872	-200.000	0.035	0.153
-514.858	113.659	0.048	-0.058
-513.843	44.946	0.119	0.110
-512.829	76.464	0.066	0.070
-511.814	425.843	0.047	0.101
-510.799	-40.955	-0.254	0.132
-509.785	-116.879	-0.212	-0.039
-508.770	230.129	-0.182	-0.297
-507.756	-70.300	-0.265	0.101
-506.741	800.000	0.058	-0.251
-505.726	94.933	0.077	0.087
-504.712	800.000	-0.130	-0.401
-503.697	152.737	-0.031	0.043
-502.683	30.171	-0.284	-0.242
-501.668	326.370	-0.192	-0.367
-500.653	-47.901	0.120	-0.058
-499.639	-45.803	-0.231	0.114
-498.624	5.352	0.231	0.170
-497.610	-154.947	0.202	-0.013
-496.595	-90.712	0.400	-0.115
-495.581	-57.695	-0.129	0.057
-494.566	-4.506	-0.125	0.086
-493.551	157.350	0.167	0.231
-492.537	-200.000	0.039	-0.198
-491.522	-200.000	-0.036	-0.365
-490.508	-119.421	0.282	0.049
-489.493	-42.112	-0.196	-0.100
-488.478	358.201	-0.028	-0.056
-487.464	421.337	-0.158	-0.338
-486.449	123.326	0.095	-0.119
-485.435	343.633	0.076	-0.149
-484.420	-21.783	-0.078	0.047
-483.405	251.322	-0.121	-0.205
-482.391	-200.000	-0.009	0.127
-481.376	53.811	0.090	0.087
-480.362	-57.694	0.142	0.062
-479.347	241.915	-0.011	0.019
-478.332	416.548	-0.036	-0.077
-477.318	-200.000	-0.008	-0.103
-476.303	84.580	0.260	-0.284
-475.289	-200.000	-0.032	0.206
-474.274	544.964	-0.046	-0.110
-473.259	-16.336	-0.186	-0.118
-472.245	146.551	-0.075	-0.101
-471.230	800.000	0.040	0.133
-470.216	-136.139	0.395	-0.046
-469.201	-115.212	0.316	-0.060
-468.186	672.933	-0.143	-0.370
-467.172	-61.565	0.197	-0.083
-466.157	-128.085	-0.253	0.036
-465.143	239.895	-0.098	-0.163
-464.128	-200.000	0.030	0.310
-463.113	287.302	-0.150	0.271
-462.099	800.000	-0.044	-0.156
-461.084	-146.853	-0.172	0.015
-460.070	377.587	-0.034	-0.069
-459.055	-29.097	0.211	-0.121
-458.040	-153.104	-0.342	-0.024
-457.026	-200.000	-0.029	-0.314
-456.011	-42.565	-0.393	0.200
-454.997	53.498	0.181	0.173
-453.982	800.000	-0.056	-0.179
-452.968	-200.000	-0.001	0.006
-451.953	-107.755	-0.375	-0.082
-450.938	-72.271	0.277	0.103
-449.924	1.444	0.054	0.039
-448.909	404.451	0.119	0.250
-447.895	-200.000	-0.017	-0.185
-446.880	-123.957	0.193	-0.030
-445.865	-200.000	-0.043	-0.206
-444.851	-143.926	0.350	0.033
-443.836	128.259	0.062	0.078
-442.822	23.070	-0.204	0.167
-441.807	16.213	-0.216	0.170
-440.792	-40.534	0.184	-0.095
-439.778	21.185	-0.261	-0.211
-438.763	800.000	0.039	-0.132
-437.749	133.631	-0.129	-0.166
-436.734	800.000	0.111	0.384
-435.719	-200.000	-0.286	-0.001
-434.705	-200.000	0.033	0.253
-433.690	46.728	-0.258	0.238
-432.676	-87.506	-0.385	0.116
-431.661	-136.410	0.202	0.023
-430.646	800.000	0.015	-0.042
-429.632	101.787	0.110	0.128
-428.617	-66.103	0.146	0.058
-427.603	118.015	0.326	0.400
-426.588	-200.000	0.010	0.143
-425.573	-1.686	0.114	0.080
-424.559	-200.000	0.043	0.255
-423.544	716.247	0.070	0.185
-422.530	-142.408	0.401	-0.039
-421.515	-200.000	0.018	-0.168
-420.500	176.234	-0.132	-0.190
-419.486	24.017	0.253	0.208
-418.471	-200.000	0.008	-0.223
-417.457	50.389	0.086	-0.081
-416.442	-61.186	-0.426	-0.179
-415.428	-200.000	-0.014	-0.233
-414.413	35.381	0.262	-0.228
-413.398	-162.546	-0.219	-0.011
-412.384	11.746	-0.274	0.209
-411.369	325.433	0.076	0.144
-410.355	-83.018	-0.351	-0.113
-409.340	-200.000	0.073	0.337
-408.325	-49.775	-0.260	-0.123
-407.311	-200.000	-0.014	-0.134
-406.296	-60.124	-0.252	0.107
-405.282	161.491	0.208	-0.290
-404.267	567.563	-0.065	-0.156
-403.252	775.694	0.047	0.127
-402.238	-98.852	-0.208	-0.053
-401.223	22.583	0.221	0.180
-400.209	-108.224	0.145	0.031
-399.194	800.000	0.009	0.029
-398.179	-37.692	-0.232	-0.123
-397.165	-200.000	0.018	0.167
-396.150	-161.712	-0.160	-0.008
-395.136	-141.362	0.171	-0.017
-394.121	-104.845	0.095	-0.022
-393.106	67.128	-0.208	0.211
-392.092	-200.000	-0.032	-0.165
-391.077	-161.921	0.300	0.015
-390.063	-117.028	0.154	0.028
-389.048	-98.912	-0.289	-0.073
-388.033	326.366	0.056	-0.107
-387.019	-35.776	-0.193	-0.104
-386.004	-134.820	0.206	0.025
-384.990	119.184	-0.102	-0.126
-383.975	800.000	-0.079	-0.235
-382.960	-81.655	-0.244	-0.080
-381.946	-178.497	-0.191	-0.004
-380.931	303.340	0.068	0.125
-379.917	22.735	-0.234	0.191
-378.902	-84.665	-0.113	0.035
-377.888	-200.000	-0.014	-0.281
-376.873	-58.265	0.079	-0.034
-375.858	-70.622	-0.282	0.106
-374.844	800.000	0.017	-0.064
-373.829	110.530	0.089	-0.107
-372.815	-200.000	-0.022	0.166
-371.800	-199.902	0.308	0.002
-370.785	45.845	0.143	0.131
-369.771	636.064	-0.070	0.177
-368.756	-26.424	0.209	0.122
-367.742	66.280	0.079	0.079
-366.727	-114.870	-0.198	0.038
-365.712	800.000	0.054	0.176
-364.698	258.752	0.085	-0.146
-363.683	-154.912	-0.040	-0.003
-362.669	40.337	0.103	0.092
-361.654	-200.000	0.051	-0.248
-360.639	32.508	-0.180	-0.155
-359.625	88.107	0.270	0.297
-358.610	-200.000	0.033	-0.433
-357.596	184.780	-0.037	0.054
-356.581	155.310	0.107	0.146
-355.566	562.880	0.116	-0.279
-354.552	30.424	0.138	-0.117
-353.537	-157.556	-0.074	-0.004
-352.523	-105.388	-0.392	0.089
-351.508	-104.217	0.250	0.058
-350.493	230.833	-0.108	0.175
-349.479	-113.299	0.137	-0.027
-348.464	-200.000	-0.028	0.202
-347.450	46.713	-0.126	-0.117
-346.435	12.450	0.264	-0.202
-345.420	217.228	0.188	0.297
-344.406	-81.057	0.267	0.088
-343.391	-200.000	0.011	-0.090
-342.377	30.930	0.419	-0.357
-341.362	-87.888	-0.294	0.088
-340.348	800.000	-0.095	0.342
-339.333	-200.000	0.025	-0.299
-338.318	-200.000	-0.009	0.221
-337.304	37.895	-0.145	-0.128
-336.289	-116.994	-0.121	-0.022
-335.275	-2.230	-0.163	-0.114
-334.260	-134.038	0.308	0.038
-333.245	-51.561	0.183	0.085
-332.231	238.645	-0.117	0.193
-331.216	-200.000	0.018	0.303
-330.202	-200.000	-0.021	0.124
-329.187	65.842	0.033	-0.033
-328.172	-123.209	0.445	-0.071
-327.158	-82.533	0.344	-0.111
-326.143	283.378	-0.234	0.416
-325.129	-200.000	0.051	-0.315
-324.114	-200.000	-0.024	0.111
-323.099	107.242	-0.120	0.141
-322.085	10.550	0.047	0.036
-321.070	800.000	-0.112	0.419
-320.056	-42.842	-0.084	0.042
-319.041	56.854	0.194	0.188
-318.026	-136.418	0.193	0.022
-317.012	119.289	-0.074	0.091
-315.997	297.805	0.061	-0.112
-314.983	-200.000	0.000	-0.110
-313.968	-72.778	0.101	-0.037
-312.953	-200.000	0.039	-0.354
-311.939	-200.000	-0.010	-0.085
-310.924	219.192	0.271	-0.430
-309.910	-31.849	-0.492	-0.274
-308.895	-31.035	-0.119	0.067
-307.880	-200.000	0.002	0.496
-306.866	-60.449	0.219	-0.092
-305.851	441.377	-0.058	-0.125
-304.837	-200.000	0.043	-0.194
-303.822	213.620	-0.100	-0.156
-302.807	163.240	-0.269	0.375
-301.793	-54.425	0.298	0.134
-300.778	-200.000	-0.053	-0.251
-299.764	432.472	0.067	0.145
-298.749	501.578	0.080	-0.182
-297.735	692.773	0.066	-0.171
-296.720	-178.405	0.311	0.007
-295.705	298.022	0.057	-0.103
-294.691	622.933	0.138	-0.345
-293.676	800.000	0.017	-0.047
-292.662	-37.423	-0.115	0.061
-291.647	409.555	-0.019	-0.040
-290.632	-200.000	0.028	0.155
-289.618	-39.844	0.053	-0.027
-288.603	-125.909	-0.227	-0.034
-287.589	800.000	-0.062	-0.264
-286.574	-181.270	-0.141	-0.003
-285.559	-141.986	-0.267	0.026
-284.545	-129.774	-0.195	0.027
-283.530	-23.493	-0.171	0.102
-282.516	113.895	-0.001	-0.002
-281.501	87.989	0.212	0.232
-280.486	-200.000	-0.030	-0.326
-279.472	5.745	-0.086	0.063
-278.457	104.141	0.102	0.119
-277.443	-78.679	-0.181	0.061
-276.428	-149.524	0.211	0.017
-275.413	-133.151	0.158	0.020
-274.399	-155.468	-0.062	-0.004
-273.384	-200.000	-0.014	0.271
-272.370	-200.000	-0.001	-0.061
-271.355	-127.838	-0.140	-0.020
-270.340	23.418	0.382	0.311
-269.326	-32.707	-0.204	0.112
-268.311	-11.206	0.342	-0.223
-267.297	-86.890	0.066	0.020
-266.282	-121.632	0.069	0.011
-265.267	92.646	0.071	0.080
-264.253	1.013	0.228	0.162
-263.238	-44.837	-0.132	0.065
-262.224	428.592	0.107	-0.229
-261.209	800.000	0.023	0.079
-260.195	800.000	0.040	-0.155
-259.180	-190.863	0.109	0.001
-258.165	479.160	0.079	0.177
-257.151	800.000	0.057	-0.232
-256.136	11.532	-0.319	0.242
-255.122	-135.010	0.240	-0.029
-254.107	395.343	-0.077	-0.160
-253.092	800.000	-0.054	-0.207
-252.078	215.801	0.092	0.145
-251.063	255.520	0.146	-0.247
-250.049	799.021	0.057	0.155
-249.034	-200.000	-0.060	0.271
-248.019	151.752	-0.057	-0.077
-247.005	-159.879	0.302	-0.016
-245.990	119.789	0.138	0.169
-244.976	172.525	0.232	-0.330
-243.961	-145.618	0.085	-0.008
-242.946	-64.309	-0.163	0.066
-241.932	-124.959	0.169	0.026
-240.917	239.347	0.026	-0.044
-239.903	-78.009	0.131	0.045
-238.888	123.393	-0.088	0.109
-237.873	-93.480	0.169	0.046
-236.859	-200.000	0.026	-0.176
-235.844	-135.894	-0.155	0.018
-234.830	800.000	0.104	0.337
-233.815	55.839	-0.181	0.173
-232.800	-153.139	0.363	-0.025
-231.786	705.421	0.037	-0.097
-230.771	-153.843	0.113	0.008
-229.757	261.228	0.034	0.058
-228.742	800.000	-0.061	0.186
-227.727	293.578	-0.126	-0.227
-226.713	800.000	0.076	0.221
-225.698	-200.000	-0.008	-0.192
-224.684	-200.000	-0.009	-0.194
-223.669	460.973	0.114	0.251
-222.655	-200.000	-0.004	0.270
-221.640	-64.853	-0.157	0.063
-220.625	-7.458	0.164	-0.109
-219.611	800.000	0.048	-0.139
-218.596	38.184	-0.185	-0.163
-217.582	109.778	-0.221	0.261
-216.567	-155.671	0.418	0.027
-215.552	-104.071	-0.102	-0.024
-214.538	90.599	-0.097	-0.107
-213.523	25.211	0.074	0.061
-212.509	800.000	0.073	-0.220
-211.494	800.000	-0.124	-0.401
-210.479	-43.509	-0.241	-0.120
-209.465	25.180	0.097	0.080
-208.450	294.365	-0.150	-0.271
-207.436	76.115	0.206	0.216
-206.421	-151.884	0.192	0.014
-205.406	-200.000	0.020	-0.125
-204.392	415.597	-0.033	0.069
-203.377	383.766	0.097	0.198
-202.363	-77.054	0.162	0.056
-201.348	-200.000	-0.028	0.237
-200.333	800.000	-0.059	-0.188
-199.319	61.500	-0.211	0.207
-198.304	-200.000	-0.057	0.298
-197.290	196.903	0.135	0.203
-196.275	36.156	0.308	0.268
-195.260	-183.748	-0.386	-0.006
-194.246	-63.449	-0.343	0.139
-193.231	-110.526	0.190	0.039
-192.217	-119.890	0.047	-0.008
-191.202	-105.821	-0.089	0.020
-190.187	-3.180	0.371	-0.255
-189.173	-34.951	0.160	-0.086
-188.158	56.034	-0.068	-0.065
-187.144	-66.964	0.089	0.035
-186.129	439.832	0.075	-0.162
-185.114	-200.000	-0.026	-0.248
-184.100	-200.000	0.036	-0.415
-183.085	-87.452	0.271	-0.081
-182.071	-200.000	-0.021	0.335
-181.056	-145.323	0.282	0.025
-180.042	-122.505	-0.186	0.030
-179.027	-200.000	0.021	0.293
-178.012	80.850	0.141	-0.150
-176.998	-200.000	0.045	0.432
-175.983	-115.236	-0.160	-0.030
-174.969	-76.266	0.334	0.116
-173.954	-88.002	-0.208	0.062
-172.939	-94.363	-0.230	0.062
-171.925	-200.000	-0.039	0.175
-170.910	45.489	-0.040	-0.036
-169.896	65.100	-0.192	-0.191
-168.881	390.243	-0.042	0.087
-167.866	-200.000	-0.023	0.120
-166.852	-149.743	-0.158	-0.012
-165.837	26.767	-0.221	0.183
-164.823	-121.479	0.239	-0.039
-163.808	-52.587	0.458	-0.209
-162.793	-62.120	-0.224	0.092
-161.779	-200.000	0.037	0.372
-160.764	-200.000	-0.038	0.234
-159.750	-3.918	-0.537	-0.367
-158.735	-112.365	0.373	-0.074
-157.720	-200.000	0.012	-0.255
-156.706	176.877	0.073	-0.104
-155.691	189.249	0.207	0.306
-154.677	10.185	0.173	-0.130
-153.662	800.000	-0.055	0.166
-152.647	5.970	0.511	0.373
-151.633	-149.547	0.337	0.026
-150.618	-158.381	-0.224	0.013
-149.604	-200.000	0.014	-0.080
-148.589	800.000	-0.037	0.121
-147.574	181.869	0.093	0.135
-146.560	-184.229	-0.152	-0.002
-145.545	-200.000	0.039	-0.248
-144.531	-108.410	0.210	0.045
-143.516	139.938	-0.068	-0.089
-142.502	-47.774	-0.331	-0.158
-141.487	-51.264	-0.112	0.052
-140.472	-56.212	-0.130	-0.057
-139.458	77.375	0.124	-0.130
-138.443	-200.000	0.067	0.449
-137.429	-200.000	0.011	0.103
-136.414	399.148	-0.087	0.179
-135.399	-135.918	-0.030	0.004
-134.385	238.727	0.122	0.200
-133.370	-200.000	-0.034	-0.237
-132.356	800.000	-0.053	-0.201
-131.341	800.000	0.026	-0.092
-130.326	73.538	-0.236	0.243
-129.312	-146.112	0.379	0.033
-128.297	-49.100	-0.222	-0.104
-127.283	70.775	-0.038	0.038
-126.268	-22.544	-0.140	-0.084
-125.253	39.844	0.152	-0.134
-124.239	-19.644	-0.228	0.139
-123.224	-200.000	-0.074	-0.376
-122.210	11.934	0.125	0.095
-121.195	58.883	0.138	-0.133
-120.180	-200.000	-0.013	0.226
-119.166	-200.000	0.030	0.327
-118.151	-38.281	-0.238	-0.124
-117.137	-200.000	-0.017	-0.545
-116.122	327.780	0.126	-0.239
-115.107	-41.238	0.340	-0.173
-114.093	-30.092	-0.242	0.135
-113.078	800.000	0.123	-0.361
-112.064	-200.000	0.026	-0.161
-111.049	-200.000	0.011	-0.391
-110.034	800.000	0.013	0.044
-109.020	-85.253	0.132	0.041
-108.005	518.835	0.053	0.121
-106.991	525.493	0.091	0.210
-105.976	41.143	0.167	-0.148
-104.962	800.000	-0.050	0.154
-103.947	105.846	-0.104	0.121
-102.932	-96.970	-0.165	-0.043
-101.918	-200.000	-0.014	0.090
-100.903	131.136	-0.037	0.046
-99.889	-81.556	0.289	0.093
-98.874	-149.091	0.392	-0.031
-97.859	61.060	-0.226	-0.221
-96.845	-172.327	-0.295	-0.009
-95.830	-77.308	0.262	-0.090
-94.816	546.075	0.122	-0.287
-93.801	-117.946	-0.160	0.028
-92.786	800.000	0.097	0.350
-91.772	-123.440	-0.076	-0.012
-90.757	-200.000	-0.007	-0.055
-89.743	800.000	-0.068	0.265
-88.728	113.879	-0.361	0.431
-87.713	-149.971	0.127	-0.010
-86.699	-96.677	0.378	-0.098
-85.684	521.873	-0.074	0.172
-84.670	-182.810	0.363	-0.006
-83.655	73.643	-0.163	0.168
-82.640	33.365	-0.092	-0.079
-81.626	-39.987	-0.395	-0.203
-80.611	800.000	-0.065	-0.230
-79.597	-121.383	-0.377	0.062
-78.582	-146.174	-0.288	0.025
-77.567	36.517	-0.120	0.104
-76.553	19.328	-0.271	0.214
-75.538	80.446	0.168	0.178
-74.524	800.000	0.066	0.187
-73.509	403.618	0.135	0.278
-72.494	36.348	0.259	-0.224
-71.480	160.090	-0.096	0.132
-70.465	298.920	-0.015	-0.027
-69.451	-11.725	-0.079	-0.051
-68.436	34.953	-0.238	0.204
-67.422	-129.656	0.361	-0.049
-66.407	-45.721	-0.171	-0.083
-65.392	-61.852	-0.279	0.115
-64.378	-169.717	0.157	0.006
-63.363	227.018	-0.208	0.332
-62.349	-37.220	-0.210	0.110
-61.334	87.025	-0.817	-0.886
-60.319	105.751	0.391	0.454
-59.305	-200.000	0.010	-0.781
-58.290	295.630	0.752	1.353
-57.276	-200.000	0.126	1.322
-56.261	-200.000	105.292	571.859
-55.246	430.534	1486.894	3160.229
-54.232	143.118	2693.788	3518.274
-53.217	105.385	2195.249	2545.817
-52.203	41.120	1631.519	1447.102
-51.188	32.896	1365.736	1160.994
-50.173	29.844	1324.174	1107.381
-49.159	53.447	1377.131	1296.320
-48.144	53.637	1393.167	1312.526
-47.130	33.031	1348.648	1147.103
-46.115	29.756	1330.866	1112.271
-45.100	29.491	1325.843	1106.444
-44.086	29.414	1323.696	1104.146
-43.071	29.413	1320.689	1101.588
-42.057	29.437	1318.595	1099.941
-41.042	29.426	1316.893	1098.415
-40.027	29.397	1315.320	1096.884
-39.013	29.487	1313.334	1095.717
-37.998	29.389	1311.776	1093.794
-36.984	29.506	1309.609	1092.638
-35.969	29.407	1308.295	1090.912
-34.954	29.513	1306.258	1089.793
-33.940	29.566	1304.866	1088.905
-32.925	29.446	1304.366	1087.736
-31.911	29.612	1302.128	1086.803
-30.896	29.663	1300.544	1085.739
-29.881	29.569	1299.475	1084.252
-28.867	29.732	1297.965	1083.900
-27.852	29.569	1296.671	1081.827
-26.838	29.626	1295.231	1080.910
-25.823	29.612	1293.764	1079.567
-24.809	29.592	1292.937	1078.717
-23.794	29.484	1291.511	1076.855
-22.779	29.605	1289.819	1076.103
-21.765	29.570	1289.293	1075.417
-20.750	29.575	1287.693	1074.073
-19.736	29.540	1285.832	1072.270
-18.721	29.492	1284.895	1071.168
-17.706	29.474	1283.837	1070.142
-16.692	29.501	1282.035	1068.753
-15.677	29.423	1281.779	1068.043
-14.663	29.465	1280.442	1067.131
-13.648	29.458	1279.431	1066.204
-12.633	29.455	1278.097	1065.036
-11.619	29.530	1276.713	1064.273
-10.604	29.396	1276.494	1063.272
-9.590	29.396	1275.389	1062.312
-8.575	29.412	1274.467	1061.593
-7.560	29.450	1273.270	1060.771
-6.546	29.398	1272.279	1059.609
-5.531	29.321	1272.199	1059.057
-4.517	29.504	1270.627	1058.753
-3.502	29.579	1269.415	1058.130
-2.487	29.428	1269.131	1056.987
-1.473	29.561	1265.031	1054.293
-0.458	28.407	1250.740	1035.825
0.556	23.818	1234.304	1000.618
1.571	20.202	1240.569	985.108
2.586	19.278	1255.322	991.422
3.600	18.649	1243.272	978.232
4.615	13.732	1168.689	893.055
5.629	4.921	1091.592	789.585
6.644	0.708	1071.968	754.325
7.659	0.339	1069.644	750.785
8.673	0.319	1068.489	749.808
9.688	0.255	1067.054	748.419
10.702	0.569	1065.440	748.779
11.717	5.528	1072.154	778.128
12.731	13.536	1082.542	825.664
13.746	17.015	1085.951	845.556
14.761	16.954	1085.417	844.761
15.775	16.196	1083.283	839.256
16.790	15.062	1081.878	832.459
17.804	14.470	1079.890	827.916
18.819	14.231	1078.883	825.884
19.834	13.873	1077.936	823.310
20.848	13.516	1077.404	821.063
21.863	13.461	1075.978	819.631
22.877	13.123	1075.295	817.365
23.892	13.118	1074.837	816.922
24.907	13.199	1073.726	816.402
25.921	13.183	1073.180	815.835
26.936	13.191	1072.465	815.263
27.950	13.191	1071.754	814.647
28.965	13.282	1070.100	813.765
29.980	13.490	1068.592	813.569
30.994	13.335	1067.853	812.174
32.009	13.368	1067.085	811.679
33.023	13.482	1065.589	811.028
34.038	13.436	1064.779	810.117
35.053	13.343	1064.113	809.085
36.067	13.342	1063.162	808.284
37.082	13.405	1062.104	807.715
38.096	13.361	1061.610	807.054
39.111	13.359	1060.916	806.444
40.126	13.258	1059.786	805.024
41.140	13.295	1058.531	804.178
42.155	13.109	1057.904	802.728
43.169	13.231	1056.167	801.929
44.184	13.187	1055.284	800.974
45.199	13.167	1054.080	799.890
46.213	13.111	1052.961	798.701
47.228	13.162	1052.509	798.533
48.242	13.325	1050.867	798.008
49.257	13.203	1049.790	796.531
50.271	13.265	1048.656	795.899
51.286	13.295	1048.137	795.575
52.301	13.286	1047.432	794.926
53.315	13.208	1046.227	793.569
54.330	13.240	1045.245	792.908
55.344	13.185	1044.520	792.023
56.359	13.091	1043.898	791.029
57.374	13.046	1042.821	789.928
58.388	13.085	1042.074	789.479
59.403	13.079	1041.268	788.772
60.417	13.107	1039.955	787.840
61.432	13.101	1039.493	787.394
62.447	13.062	1038.587	786.448
63.461	13.129	1037.971	786.234
64.476	13.193	1036.553	785.393
65.490	13.088	1036.231	784.581
66.505	13.128	1035.638	784.253
67.520	13.114	1034.804	783.487
68.534	13.142	1033.974	782.919
69.549	13.119	1033.320	782.245
70.563	13.147	1032.414	781.627
71.578	13.143	1031.284	780.683
72.593	13.143	1030.565	780.066
73.607	12.986	1030.462	779.180
74.622	13.088	1029.466	778.838
75.636	13.137	1028.589	778.336
76.651	13.119	1027.958	777.705
77.666	13.052	1027.554	777.015
78.680	12.998	1026.931	776.221
79.695	13.053	1026.388	776.002
80.709	13.148	1025.449	775.669
81.724	13.133	1024.734	774.989
82.739	13.178	1023.764	774.400
83.753	13.387	1022.992	774.725
84.768	13.422	1022.176	774.200
85.782	13.320	1021.583	773.208
86.797	13.382	1020.342	772.488
87.812	13.264	1019.267	771.056
88.826	13.251	1018.656	770.465
89.841	13.339	1016.973	769.534
90.855	13.314	1016.842	769.251
91.870	13.454	1015.681	768.954
92.884	13.333	1015.090	767.876
93.899	13.301	1014.359	767.108
94.914	13.314	1013.493	766.444
95.928	13.453	1012.399	766.195
96.943	13.348	1011.815	765.199
97.957	13.376	1010.779	764.477
98.972	13.438	1010.165	764.229
99.987	13.280	1009.113	762.639
101.001	13.325	1008.009	761.943
102.016	13.384	1007.354	761.652
103.030	13.311	1006.894	760.901
104.045	13.380	1006.031	760.499
105.060	13.327	1004.761	759.227
106.074	13.234	1004.167	758.287
107.089	13.247	1002.777	757.229
108.103	13.206	1001.899	756.310
109.118	13.239	1001.052	755.755
110.133	13.255	1000.210	755.125
111.147	13.181	999.406	754.116
112.162	13.267	998.695	753.903
113.176	13.392	997.704	753.660
114.191	13.313	997.280	752.913
115.206	13.351	996.734	752.606
116.220	13.417	995.473	751.889
117.235	13.342	994.467	750.720
118.249	13.331	993.866	750.149
119.264	13.289	992.916	749.177
120.279	13.251	992.060	748.291
121.293	13.215	991.335	747.515
122.308	13.161	990.881	746.862
123.322	13.250	989.389	746.074
124.337	13.206	988.533	745.166
125.352	13.312	987.419	744.737
126.366	13.316	986.017	743.631
127.381	13.387	984.895	743.038
128.395	13.275	984.138	741.900
129.410	13.327	982.982	741.195
130.424	13.260	983.023	740.862
131.439	13.302	981.922	740.152
132.454	13.367	981.037	739.709
133.468	13.466	979.821	739.171
134.483	13.411	979.140	738.346
135.497	13.466	978.316	737.907
136.512	13.346	977.369	736.591
137.527	13.419	976.343	736.079
138.541	13.426	975.862	735.682
139.556	13.463	975.059	735.174
140.570	13.555	974.616	735.182
141.585	13.614	973.014	734.173
142.600	13.458	973.115	733.493
143.614	13.518	972.227	733.024
144.629	13.483	971.159	731.999
145.643	13.386	970.242	730.812
146.658	13.567	968.839	730.490
147.673	13.550	968.164	729.841
148.687	13.420	967.734	728.880
149.702	13.311	966.848	727.671
150.716	13.321	966.804	727.614
151.731	13.341	965.349	726.544
152.746	13.459	964.523	726.374
153.760	13.465	963.649	725.679
154.775	13.492	963.405	725.550
155.789	13.589	962.766	725.428
156.804	13.524	962.036	724.529
157.819	13.510	961.608	724.085
158.833	13.465	961.131	723.465
159.848	13.681	959.854	723.383
160.862	13.613	958.960	722.346
161.877	13.575	957.564	721.065
162.892	13.619	956.800	720.616
163.906	13.546	956.278	719.842
164.921	13.548	955.291	719.046
165.935	13.673	954.199	718.704
166.950	13.688	953.477	718.162
167.964	13.672	952.383	717.204
168.979	13.553	951.774	716.168
169.994	13.623	951.116	715.910
171.008	13.657	950.468	715.506
172.023	13.681	949.601	714.895
173.037	13.614	948.990	714.083
174.052	13.747	948.076	713.904
175.067	13.660	947.507	713.038
176.081	13.716	947.160	712.953
177.096	13.694	946.404	712.228
178.110	13.775	945.748	712.017
179.125	13.696	945.382	711.342
180.140	13.730	945.051	711.173
181.154	13.844	944.465	711.160
182.169	13.977	943.339	710.819
183.183	13.783	943.361	709.940
184.198	13.855	942.234	709.336
185.213	13.838	941.670	708.777
186.227	13.871	940.967	708.325
187.242	13.937	940.535	708.220
188.256	13.995	939.814	707.862
189.271	13.970	938.888	706.998
190.286	13.902	937.953	705.940
191.300	13.921	937.160	705.360
192.315	13.796	936.732	704.447
193.329	13.819	936.334	704.182
194.344	13.884	936.062	704.192
195.359	13.846	935.371	703.447
196.373	13.935	934.410	703.038
197.388	14.009	934.121	703.073
198.402	14.070	933.686	702.941
199.417	14.047	932.834	702.142
200.432	14.131	932.229	701.978
201.446	14.153	931.938	701.789
202.461	14.209	931.290	701.476
203.475	14.264	930.641	701.155
204.490	14.074	930.139	699.915
205.504	14.114	928.872	699.066
206.519	14.170	928.169	698.711
207.534	14.116	927.850	698.184
208.548	14.120	927.308	697.729
209.563	13.978	926.994	696.838
210.577	14.133	925.827	696.548
211.592	14.347	924.924	696.703
212.607	14.190	924.262	695.486
213.621	14.233	923.331	694.905
214.636	14.266	922.979	694.713
215.650	14.290	922.377	694.301
216.665	14.323	921.147	693.448
217.680	14.356	920.607	693.119
218.694	14.340	920.416	692.850
219.709	14.359	919.336	692.052
220.723	14.436	918.972	692.039
221.738	14.314	918.493	691.107
222.753	14.454	917.045	690.539
223.767	14.330	916.973	689.911
224.782	14.604	916.009	690.255
225.796	14.539	915.819	689.783
226.811	14.641	914.540	689.179
227.826	14.479	914.197	688.192
228.840	14.420	913.524	687.380
229.855	14.455	912.849	686.957
230.869	14.544	911.840	686.503
231.884	14.489	911.543	685.995
232.899	14.544	910.820	685.613
233.913	14.574	909.747	684.869
234.928	14.484	909.084	683.939
235.942	14.434	908.671	683.362
236.957	14.433	908.103	682.870
237.972	14.330	907.714	682.096
238.986	14.494	906.822	682.039
240.001	14.487	906.027	681.350
241.015	14.500	905.293	680.793
242.030	14.571	905.199	680.950
243.045	14.565	904.691	680.484
244.059	14.604	904.026	680.082
245.074	14.641	903.182	679.537
246.088	14.603	902.425	678.752
247.103	14.673	901.599	678.355
248.117	14.499	902.005	677.895
249.132	14.733	900.695	677.798
250.147	14.838	899.989	677.635
251.161	14.817	899.576	677.180
252.176	14.769	898.880	676.400
253.190	14.799	897.876	675.705
254.205	14.872	897.561	675.704
255.220	14.863	896.785	675.026
256.234	15.002	896.146	675.043
257.249	15.001	895.525	674.511
258.263	14.975	894.757	673.768
259.278	14.936	894.221	673.149
260.293	15.162	893.103	673.156
261.307	15.095	892.670	672.502
262.322	14.991	892.680	672.031
263.336	15.106	891.433	671.496
264.351	15.167	890.698	671.125
265.366	15.137	889.991	670.414
266.380	15.291	889.440	670.557
267.395	15.207	888.568	669.503
268.409	15.252	888.022	669.213
269.424	15.239	887.508	668.715
270.439	15.185	886.766	667.880
271.453	15.221	885.994	667.385
272.468	15.060	885.467	666.285
273.482	15.238	885.077	666.640
274.497	15.293	884.287	666.204
275.512	15.265	884.002	665.823
276.526	15.230	883.560	665.291
277.541	15.340	882.967	665.224
278.555	15.315	882.418	664.650
279.570	15.345	881.596	664.089
280.585	15.374	880.510	663.328
281.599	15.347	879.973	662.757
282.614	15.403	879.195	662.337
283.628	15.382	878.795	661.891
284.643	15.456	878.170	661.654
285.657	15.510	877.282	661.139
286.672	15.457	876.694	660.430
287.687	15.451	875.907	659.754
288.701	15.450	876.032	659.787
289.716	15.406	875.216	658.942
290.730	15.432	874.407	658.376
291.745	15.655	873.477	658.491
292.760	15.430	873.267	657.393
293.774	15.645	872.802	657.828
294.789	15.636	871.847	657.015
295.803	15.483	871.326	655.966
296.818	15.661	870.365	655.877
297.833	15.628	869.954	655.382
298.847	15.502	869.848	654.753
299.862	15.634	869.076	654.626
300.876	15.747	868.148	654.311
301.891	15.732	867.447	653.665
302.906	15.758	867.264	653.569
303.920	15.716	866.433	652.722
304.935	15.779	866.065	652.633
305.949	15.768	865.505	652.110
306.964	15.550	864.869	650.730
307.979	15.893	864.025	651.362
308.993	15.766	863.724	650.589
310.008	15.893	862.913	650.409
311.022	15.833	862.438	649.762
312.037	15.809	862.018	649.298
313.052	15.904	861.081	648.899
314.066	15.753	860.508	647.829
315.081	15.767	860.302	647.672
316.095	15.827	859.452	647.205
317.110	15.960	858.810	647.175
318.125	15.800	858.244	646.075
319.139	15.933	857.810	646.203
320.154	15.942	857.483	645.935
321.168	15.969	856.884	645.530
322.183	15.923	856.431	644.956
323.197	15.839	856.254	644.441
324.212	15.903	855.453	644.026
325.227	15.967	855.180	644.009
326.241	15.776	854.590	642.779
327.256	16.000	853.604	642.834
328.270	15.816	853.711	642.157
329.285	15.912	852.432	641.504
330.300	15.956	851.747	641.097
331.314	16.034	851.348	641.038
332.329	16.043	850.562	640.422
333.343	16.122	850.517	640.632
334.358	16.190	849.712	640.229
335.373	16.176	849.558	640.002
336.387	16.091	849.315	639.440
337.402	16.082	848.892	639.030
338.416	16.166	848.508	639.003
339.431	16.249	848.080	638.940
340.446	16.257	847.779	638.684
341.460	16.239	847.112	638.057
342.475	16.268	846.676	637.785
343.489	16.331	845.946	637.415
344.504	16.490	845.522	637.639
345.519	16.273	845.635	636.849
346.533	16.328	845.038	636.551
347.548	16.489	843.914	636.252
348.562	16.483	843.150	635.600
349.577	16.392	842.801	634.939
350.592	16.300	842.180	634.069
351.606	16.357	841.781	633.925
352.621	16.382	841.162	633.495
353.635	16.328	840.638	632.842
354.650	16.613	839.642	633.104
355.665	16.374	839.314	631.908
356.679	16.578	838.722	632.169
357.694	16.420	838.183	631.118
358.708	16.614	837.239	631.072
359.723	16.458	836.915	630.191
360.738	16.446	836.206	629.557
361.752	16.544	835.575	629.389
362.767	16.627	834.921	629.153
363.781	16.568	834.618	628.649
364.796	16.615	833.909	628.233
365.810	16.788	833.609	628.594
366.825	16.594	833.557	627.778
367.840	16.733	833.063	627.868
368.854	16.796	832.132	627.342
369.869	16.599	832.098	626.532
370.883	16.819	831.567	626.892
371.898	16.748	831.153	626.260
372.913	16.772	830.852	626.066
373.927	16.827	830.343	625.832
374.942	16.931	829.560	625.571
375.956	16.768	829.727	625.039
376.971	16.987	828.916	625.178
377.986	16.868	828.944	624.706
379.000	16.787	828.406	623.949
380.015	16.900	827.865	623.901
381.029	17.014	827.000	623.614
382.044	17.001	826.299	622.982
383.059	16.897	825.541	621.974
384.073	17.114	825.144	622.413
385.088	17.009	824.453	621.455
386.102	16.827	824.384	620.682
387.117	16.821	823.712	620.098
388.132	16.935	823.200	620.074
389.146	17.039	822.314	619.733
390.161	16.998	821.930	619.238
391.175	17.101	821.690	619.376
392.190	17.084	821.137	618.843
393.205	17.043	820.652	618.276
394.219	17.080	820.028	617.883
395.234	17.025	819.886	617.524
396.248	16.989	819.422	616.986
397.263	16.943	819.057	616.492
398.278	16.996	818.789	616.427
399.292	17.161	818.406	616.682
400.307	17.032	818.101	615.931
401.321	17.107	817.066	615.368
402.336	17.125	816.498	614.951
403.350	17.154	816.156	614.746
404.365	17.209	815.713	614.557
405.380	17.425	815.236	614.923
406.394	17.237	814.746	613.818
407.409	17.255	814.133	613.368
408.423	17.340	813.888	613.437
409.438	17.369	813.628	613.289
410.453	17.458	813.105	613.163
411.467	17.523	812.611	612.970
412.482	17.573	812.118	612.722
413.496	17.501	811.933	612.271
414.511	17.533	811.681	612.140
415.526	17.485	810.913	611.337
416.540	17.510	810.724	611.230
417.555	17.565	810.255	611.020
418.569	17.376	809.774	609.924
419.584	17.728	809.072	610.604
420.599	17.549	808.977	609.835
421.613	109.636	1293.752	1470.387
422.628	94.599	1364.374	1470.469
