DTS Sentinel unit serial number:	SN413079Multiplexer serial number:	ORYXHardware model number:	OX4-SRSoftware version number:	ORYX F/W v4.00 Oryx Data Collector v3.7.2.0data status	okinstallation	princeton_trtdifferential loss correction	single-endedforward channel	channel 1reverse channel	N/Adate	2019/09/18time	07:10:35forward acquisition time	60.00reverse acquisition time	0.00gamma	496.2192k internal	0.2340k external	0.2340temperature offset calibration	0.9978default loss term (dB/km)	0.3790temperature slope calibration	1.0000multiplexer offset coefficient	1.0000multiplexer slope coefficient	1.0000fibre end	0.00T internal ref (°C)	23.19T ext. ref 1 (°C)	0.19T ext. ref 2 (°C)	17.30length (m)	temperature (°C)	Stokes	anti-Stokes-747.200	280.358	0.101	-0.181
-746.185	-58.749	-0.184	0.080
-745.171	321.687	-0.114	0.217
-744.156	124.123	-0.260	0.327
-743.142	-156.328	0.040	0.003
-742.127	-200.000	-0.028	0.174
-741.112	6.650	-0.174	-0.130
-740.098	29.935	-0.115	0.098
-739.083	19.130	-0.097	-0.078
-738.069	-40.247	-0.232	-0.121
-737.054	84.702	0.121	-0.133
-736.039	-16.824	-0.305	-0.193
-735.025	-27.035	0.312	0.182
-734.010	29.406	0.197	0.168
-732.996	-71.802	0.104	-0.039
-731.981	35.223	0.148	-0.130
-730.966	-97.830	0.132	-0.034
-729.952	800.000	0.063	-0.185
-728.937	-74.123	0.231	0.084
-727.923	-200.000	0.050	-0.243
-726.908	800.000	0.096	-0.312
-725.894	-200.000	0.034	0.233
-724.879	-58.610	0.281	-0.122
-723.864	89.506	-0.084	0.093
-722.850	-200.000	-0.014	-0.072
-721.835	-200.000	-0.010	-0.100
-720.821	-106.574	0.244	-0.054
-719.806	-95.292	-0.203	-0.055
-718.791	-31.367	0.343	-0.193
-717.777	-200.000	-0.007	-0.131
-716.762	437.202	-0.093	-0.203
-715.748	35.576	-0.070	0.062
-714.733	-93.215	-0.039	-0.011
-713.718	179.660	0.066	0.097
-712.704	206.247	-0.080	0.125
-711.689	-74.252	0.089	-0.032
-710.675	211.182	0.215	-0.338
-709.660	272.221	0.137	-0.242
-708.645	-200.000	0.071	-0.343
-707.631	800.000	-0.059	-0.190
-706.616	517.752	-0.053	-0.124
-705.602	434.691	0.058	-0.126
-704.587	83.560	0.141	0.154
-703.572	-77.712	-0.076	-0.026
-702.558	60.847	0.135	-0.134
-701.543	-200.000	0.025	-0.418
-700.529	-138.984	-0.107	0.012
-699.514	-144.164	0.347	0.032
-698.499	-17.533	0.129	-0.081
-697.485	83.347	0.224	-0.244
-696.470	51.569	0.129	0.123
-695.456	160.724	-0.029	-0.040
-694.441	-200.000	-0.009	0.294
-693.426	-200.000	-0.060	0.376
-692.412	-28.606	0.130	0.075
-691.397	45.577	0.143	0.133
-690.383	295.958	-0.090	0.164
-689.368	-73.466	-0.116	0.042
-688.354	-80.335	-0.322	-0.108
-687.339	-43.879	-0.215	-0.108
-686.324	-80.703	0.063	-0.021
-685.310	-200.000	0.015	0.487
-684.295	245.730	-0.139	-0.234
-683.281	170.608	-0.097	0.138
-682.266	-49.410	0.098	0.047
-681.251	131.276	0.213	0.274
-680.237	800.000	-0.050	0.206
-679.222	-43.463	-0.080	-0.041
-678.208	-81.784	0.239	0.078
-677.193	590.425	-0.298	-0.734
-676.178	152.288	0.112	0.153
-675.164	-83.933	-0.151	0.048
-674.149	-200.000	-0.023	-0.215
-673.135	-200.000	0.009	0.172
-672.120	167.758	-0.064	-0.091
-671.105	800.000	-0.042	-0.126
-670.091	800.000	-0.043	-0.172
-669.076	174.166	-0.078	-0.112
-668.062	-17.378	-0.084	0.053
-667.047	185.390	-0.162	0.241
-666.032	-200.000	-0.008	-0.455
-665.018	54.147	0.140	0.135
-664.003	16.427	0.178	-0.140
-662.989	26.502	0.066	0.056
-661.974	-48.681	-0.204	-0.098
-660.959	-2.287	0.052	-0.037
-659.945	19.202	0.080	0.064
-658.930	-62.627	0.383	-0.159
-657.916	-200.000	0.028	-0.228
-656.901	-112.721	-0.351	0.070
-655.886	-200.000	0.008	-0.353
-654.872	267.724	-0.166	0.290
-653.857	64.324	-0.133	-0.134
-652.843	-200.000	0.015	0.073
-651.828	-46.761	-0.169	0.083
-650.814	800.000	-0.065	-0.220
-649.799	169.732	0.104	0.148
-648.784	-7.943	0.139	0.094
-647.770	-200.000	0.007	-0.039
-646.755	800.000	0.104	-0.369
-645.741	341.086	-0.115	-0.224
-644.726	-200.000	0.006	0.251
-643.711	-126.254	-0.293	-0.044
-642.697	-24.894	0.284	0.169
-641.682	-45.160	0.198	-0.098
-640.668	800.000	0.037	-0.129
-639.653	-46.785	-0.167	-0.082
-638.638	-64.287	0.152	0.062
-637.624	-200.000	0.010	0.073
-636.609	244.085	0.332	-0.557
-635.595	-121.661	-0.234	0.039
-634.580	32.968	-0.167	0.144
-633.565	633.618	-0.135	-0.342
-632.551	278.623	-0.174	-0.310
-631.536	-63.247	-0.312	-0.128
-630.522	800.000	-0.107	-0.377
-629.507	42.212	-0.198	-0.180
-628.492	800.000	-0.044	0.174
-627.478	328.294	0.098	0.187
-626.463	179.762	-0.210	0.307
-625.449	-55.242	-0.160	-0.072
-624.434	800.000	0.075	0.213
-623.419	-130.424	-0.224	0.030
-622.405	-115.914	0.203	0.038
-621.390	-135.662	0.231	-0.027
-620.376	463.661	0.061	-0.135
-619.361	-61.114	0.251	0.106
-618.346	-200.000	0.044	0.218
-617.332	-151.449	-0.202	-0.015
-616.317	-107.991	0.396	-0.086
-615.303	150.227	-0.029	-0.039
-614.288	800.000	0.020	-0.057
-613.273	800.000	0.032	0.128
-612.259	-200.000	0.018	0.098
-611.244	29.866	-0.094	0.080
-610.230	-13.826	0.192	-0.124
-609.215	-79.172	0.466	-0.158
-608.201	-200.000	-0.076	0.343
-607.186	34.661	-0.243	-0.212
-606.171	-200.000	-0.018	-0.200
-605.157	-111.915	-0.073	0.015
-604.142	800.000	-0.062	-0.219
-603.128	79.511	-0.223	0.239
-602.113	-48.865	0.094	-0.045
-601.098	134.111	0.166	0.215
-600.084	-200.000	0.025	-0.218
-599.069	24.301	-0.082	-0.068
-598.055	-200.000	0.029	-0.387
-597.040	251.848	-0.109	-0.185
-596.025	800.000	-0.132	-0.564
-595.011	800.000	-0.021	-0.082
-593.996	368.811	-0.122	0.246
-592.982	-200.000	-0.023	-0.142
-591.967	324.775	0.096	0.182
-590.952	270.289	-0.107	0.187
-589.938	-55.917	-0.390	-0.173
-588.923	-125.044	-0.353	-0.054
-587.909	-115.559	0.178	0.033
-586.894	17.163	-0.135	-0.107
-585.879	45.889	0.190	0.175
-584.865	-14.212	0.225	-0.144
-583.850	-200.000	0.047	-0.235
-582.836	-57.305	0.173	-0.076
-581.821	454.291	0.041	0.090
-580.806	-11.748	-0.127	0.083
-579.792	179.919	-0.128	-0.186
-578.777	-123.626	-0.065	0.010
-577.763	-72.256	-0.377	-0.139
-576.748	80.997	-0.091	0.097
-575.733	59.752	-0.043	0.043
-574.719	-74.484	0.096	0.034
-573.704	-200.000	0.033	-0.182
-572.690	80.428	-0.331	-0.355
-571.675	800.000	0.113	-0.384
-570.661	-50.253	0.343	0.162
-569.646	309.417	0.146	-0.272
-568.631	163.520	-0.179	-0.251
-567.617	-41.466	0.007	-0.004
-566.602	58.982	-0.181	0.177
-565.588	-2.740	0.302	-0.210
-564.573	107.552	0.183	-0.217
-563.558	800.000	-0.055	0.173
-562.544	59.011	-0.061	-0.060
-561.529	-88.453	-0.107	0.032
-560.515	-200.000	-0.093	-0.452
-559.500	182.681	-0.143	-0.211
-558.485	-200.000	-0.024	-0.107
-557.471	80.908	-0.143	0.154
-556.456	-200.000	-0.011	0.428
-555.442	-200.000	-0.042	0.295
-554.427	-63.294	-0.168	-0.069
-553.412	-64.317	0.364	-0.148
-552.398	-144.757	-0.248	-0.023
-551.383	-38.902	-0.051	-0.027
-550.369	-62.405	-0.207	-0.086
-549.354	8.211	-0.016	0.012
-548.339	-200.000	0.007	0.102
-547.325	-174.437	0.352	0.010
-546.310	390.719	-0.081	-0.167
-545.296	134.065	0.338	-0.436
-544.281	-87.670	-0.030	-0.009
-543.266	397.929	-0.080	-0.167
-542.252	800.000	-0.093	0.354
-541.237	-200.000	-0.002	0.030
-540.223	-42.917	-0.177	0.089
-539.208	-138.612	-0.072	-0.008
-538.193	-200.000	-0.004	-0.143
-537.179	57.589	0.122	-0.118
-536.164	615.863	-0.080	0.198
-535.150	217.305	-0.081	0.129
-534.135	4.783	-0.119	-0.087
-533.121	793.496	0.011	-0.031
-532.106	176.350	-0.129	0.186
-531.091	152.068	-0.087	0.118
-530.077	321.421	-0.038	0.071
-529.062	-140.131	0.138	-0.014
-528.048	278.473	-0.170	0.301
-527.033	163.336	-0.215	0.300
-526.018	800.000	0.077	-0.260
-525.004	24.578	-0.344	0.283
-523.989	84.856	-0.142	-0.155
-522.975	-200.000	0.021	0.233
-521.960	-200.000	-0.041	-0.436
-520.945	-200.000	0.028	0.253
-519.931	-21.711	-0.054	0.032
-518.916	-48.445	0.269	-0.128
-517.902	-61.396	0.209	0.087
-516.887	25.085	0.286	0.236
-515.872	72.299	0.133	0.138
-514.858	108.214	-0.182	-0.215
-513.843	9.764	0.145	0.110
-512.829	297.709	0.076	-0.138
-511.814	349.814	0.227	0.446
-510.799	450.237	-0.144	-0.316
-509.785	285.750	0.128	0.229
-508.770	800.000	0.080	0.259
-507.756	131.393	0.221	0.282
-506.741	-135.330	0.256	-0.030
-505.726	97.296	-0.184	0.210
-504.712	565.171	0.088	0.212
-503.697	120.090	0.059	0.072
-502.683	207.625	-0.099	0.154
-501.668	375.956	0.120	0.244
-500.653	800.000	0.054	0.157
-499.639	732.818	0.046	0.121
-498.624	234.823	0.077	-0.126
-497.610	-143.882	0.524	0.049
-496.595	800.000	-0.060	0.228
-495.581	505.766	0.057	0.131
-494.566	800.000	-0.050	0.149
-493.551	-168.804	-0.278	0.010
-492.537	-99.666	-0.081	-0.020
-491.522	-200.000	-0.002	-0.100
-490.508	-164.247	-0.269	0.012
-489.493	-55.326	-0.171	0.076
-488.478	55.027	0.238	-0.228
-487.464	74.217	0.103	-0.107
-486.449	36.467	-0.111	0.097
-485.435	42.928	-0.021	-0.019
-484.420	46.627	-0.179	-0.165
-483.405	123.153	0.099	0.123
-482.391	112.517	-0.064	-0.077
-481.376	-200.000	0.029	0.170
-480.362	-143.243	0.200	-0.019
-479.347	149.797	0.176	-0.237
-478.332	591.747	0.068	-0.167
-477.318	-47.782	-0.312	-0.150
-476.303	-67.144	0.161	0.063
-475.289	-25.930	0.043	0.025
-474.274	-141.820	0.242	-0.024
-473.259	-200.000	-0.008	-0.321
-472.245	5.128	0.387	-0.283
-471.230	-63.112	0.154	0.063
-470.216	800.000	-0.042	0.144
-469.201	146.665	-0.198	0.265
-468.186	76.546	-0.007	-0.007
-467.172	800.000	0.034	0.107
-466.157	800.000	0.022	-0.090
-465.143	170.940	0.026	0.037
-464.128	4.244	0.128	-0.093
-463.113	-69.739	0.336	-0.127
-462.099	157.232	0.057	0.078
-461.084	800.000	-0.104	0.302
-460.070	-35.300	0.175	0.094
-459.055	643.228	-0.131	0.332
-458.040	-139.666	0.055	-0.006
-457.026	-200.000	-0.085	-0.604
-456.011	-80.769	0.219	-0.072
-454.997	-59.386	-0.032	0.014
-453.982	41.218	-0.163	0.146
-452.968	-143.741	-0.223	0.021
-451.953	283.226	0.060	0.108
-450.938	800.000	-0.031	0.092
-449.924	34.761	0.059	0.052
-448.909	-127.979	0.248	-0.035
-447.895	37.755	-0.299	0.263
-446.880	139.918	0.222	0.289
-445.865	124.136	0.110	-0.137
-444.851	-200.000	0.049	-0.286
-443.836	-56.436	0.092	-0.041
-442.822	-200.000	-0.012	-0.199
-441.807	800.000	-0.051	0.146
-440.792	800.000	-0.053	0.210
-439.778	-200.000	-0.029	-0.431
-438.763	-9.396	0.146	-0.097
-437.749	159.210	0.216	-0.298
-436.734	800.000	0.020	0.071
-435.719	306.686	-0.146	-0.270
-434.705	-200.000	-0.033	0.187
-433.690	24.122	-0.050	0.041
-432.676	226.217	-0.058	-0.093
-431.661	800.000	-0.061	0.194
-430.646	259.574	0.188	0.321
-429.632	-200.000	-0.034	0.321
-428.617	413.562	-0.213	-0.449
-427.603	47.422	-0.067	-0.062
-426.588	39.050	0.279	0.247
-425.573	-14.683	-0.287	-0.183
-424.559	365.612	-0.111	0.222
-423.544	800.000	-0.013	-0.044
-422.530	433.630	0.025	-0.053
-421.515	47.776	-0.203	-0.188
-420.500	-200.000	0.018	0.095
-419.486	-104.331	-0.205	0.047
-418.471	-127.359	-0.084	0.012
-417.457	241.162	-0.069	-0.114
-416.442	-78.007	-0.320	0.109
-415.428	21.969	0.081	0.065
-414.413	-91.982	0.103	0.029
-413.398	211.813	0.122	0.190
-412.384	-200.000	-0.032	-0.213
-411.369	-37.495	-0.122	0.064
-410.355	256.644	0.015	-0.025
-409.340	-173.441	-0.501	0.015
-408.325	111.882	-0.095	-0.113
-407.311	82.502	-0.201	-0.216
-406.296	800.000	-0.030	0.089
-405.282	800.000	0.034	0.112
-404.267	-159.037	-0.214	-0.012
-403.252	800.000	-0.043	-0.131
-402.238	-200.000	0.005	0.091
-401.223	-170.279	0.158	-0.006
-400.209	-200.000	0.026	-0.210
-399.194	-200.000	-0.012	-0.249
-398.179	48.947	-0.134	-0.125
-397.165	-34.145	-0.338	0.184
-396.150	-200.000	-0.001	0.130
-395.136	270.773	-0.101	0.175
-394.121	494.770	-0.091	-0.206
-393.106	-142.936	0.086	0.008
-392.092	-200.000	0.039	-0.359
-391.077	-46.843	0.206	0.100
-390.063	-116.694	-0.117	-0.021
-389.048	2.934	-0.078	0.056
-388.033	-84.898	0.229	-0.071
-387.019	81.200	0.098	-0.105
-386.004	122.587	0.127	0.157
-384.990	-200.000	0.102	0.463
-383.975	800.000	-0.087	-0.284
-382.960	106.060	0.268	0.314
-381.946	334.252	-0.044	0.085
-380.931	8.620	0.080	0.059
-379.917	583.224	0.048	0.116
-378.902	800.000	-0.064	-0.183
-377.888	-200.000	0.002	-0.020
-376.873	-143.562	-0.226	-0.021
-375.858	-74.404	-0.169	-0.060
-374.844	714.866	0.037	-0.098
-373.829	524.405	-0.031	0.072
-372.815	210.780	-0.078	0.121
-371.800	170.344	0.043	-0.061
-370.785	49.356	0.179	0.167
-369.771	169.333	0.261	-0.368
-368.756	-168.638	-0.100	-0.004
-367.742	468.028	0.194	-0.431
-366.727	59.685	0.108	0.105
-365.712	800.000	-0.028	-0.096
-364.698	-75.316	-0.249	0.088
-363.683	-200.000	0.010	-0.125
-362.669	-200.000	-0.038	0.220
-361.654	27.858	-0.322	-0.268
-360.639	-137.397	0.113	0.013
-359.625	-52.783	0.381	0.173
-358.610	-32.026	-0.212	-0.117
-357.596	-200.000	0.067	-0.295
-356.581	-8.315	-0.286	-0.190
-355.566	344.284	-0.141	0.273
-354.552	-93.221	-0.390	0.107
-353.537	77.531	-0.095	0.100
-352.523	31.479	0.123	-0.104
-351.508	289.096	-0.209	0.374
-350.493	800.000	0.067	0.192
-349.479	-74.751	-0.336	0.119
-348.464	64.887	-0.071	-0.071
-347.450	205.859	-0.232	-0.356
-346.435	66.413	-0.242	0.243
-345.420	201.572	0.143	0.217
-344.406	-91.885	0.257	-0.072
-343.391	-82.552	-0.264	-0.085
-342.377	-35.070	-0.232	-0.125
-341.362	391.362	-0.079	0.162
-340.348	800.000	0.040	0.145
-339.333	208.610	0.345	0.532
-338.318	-103.156	0.092	0.021
-337.304	348.871	0.028	0.055
-336.289	-200.000	0.039	0.279
-335.275	-200.000	0.017	-0.104
-334.260	-200.000	0.029	0.244
-333.245	215.113	-0.111	0.174
-332.231	2.201	0.226	-0.161
-331.216	-74.771	0.118	-0.042
-330.202	450.048	0.155	0.338
-329.187	800.000	-0.100	0.304
-328.172	-200.000	-0.049	0.253
-327.158	-81.261	-0.151	-0.049
-326.143	46.293	-0.304	0.278
-325.129	-200.000	0.027	-0.161
-324.114	53.285	0.076	-0.071
-323.099	-16.876	-0.281	0.175
-322.085	-81.182	0.044	0.014
-321.070	-197.408	0.147	0.001
-320.056	273.257	0.100	-0.174
-319.041	-50.990	0.264	-0.122
-318.026	281.759	-0.158	0.279
-317.012	-140.141	-0.533	-0.055
-315.997	127.914	0.166	-0.208
-314.983	-142.190	0.234	0.023
-313.968	193.431	0.112	-0.167
-312.953	-14.592	0.138	0.087
-311.939	35.427	0.339	0.293
-310.924	-45.803	-0.220	-0.107
-309.910	-200.000	0.029	-0.232
-308.895	415.771	-0.121	-0.255
-307.880	437.122	-0.120	-0.259
-306.866	-186.638	-0.204	0.003
-305.851	-100.729	0.415	-0.101
-304.837	-23.885	-0.119	0.070
-303.822	-79.272	-0.286	-0.096
-302.807	-130.688	0.226	-0.030
-301.793	-165.699	0.114	0.005
-300.778	-121.731	0.134	-0.022
-299.764	-200.000	-0.027	-0.174
-298.749	-178.902	0.274	0.006
-297.735	-88.736	-0.324	0.095
-296.720	28.355	-0.045	0.037
-295.705	-200.000	0.033	-0.360
-294.691	-36.758	-0.088	-0.046
-293.676	-51.104	-0.185	0.086
-292.662	-16.745	0.028	0.018
-291.647	144.818	-0.224	0.295
-290.632	-146.254	-0.155	0.013
-289.618	-112.770	0.108	0.021
-288.603	-100.634	0.405	0.098
-287.589	-134.334	-0.390	-0.047
-286.574	214.362	0.037	0.058
-285.559	40.686	0.071	0.063
-284.545	-200.000	0.016	-0.169
-283.530	-200.000	0.024	0.159
-282.516	-149.601	-0.212	0.017
-281.501	-35.250	-0.147	0.079
-280.486	8.155	0.228	0.169
-279.472	-46.566	0.163	-0.079
-278.457	18.578	0.258	-0.203
-277.443	-200.000	-0.017	0.230
-276.428	-164.668	0.244	0.011
-275.413	-200.000	-0.022	-0.276
-274.399	122.969	0.116	0.143
-273.384	-90.306	-0.102	-0.029
-272.370	219.153	-0.088	-0.138
-271.355	235.213	-0.241	0.391
-270.340	10.487	-0.110	-0.083
-269.326	-166.660	-0.207	0.008
-268.311	-139.954	0.343	0.036
-267.297	-86.686	0.239	0.072
-266.282	113.569	0.194	-0.232
-265.267	-88.606	-0.222	0.065
-264.253	215.069	0.133	0.207
-263.238	-62.483	-0.051	-0.021
-262.224	-54.292	0.428	0.191
-261.209	-148.079	-0.160	0.013
-260.195	800.000	-0.077	-0.281
-259.180	59.330	-0.094	-0.091
-258.165	-195.836	-0.171	0.001
-257.151	-74.122	0.204	0.073
-256.136	186.629	-0.084	0.123
-255.122	-83.932	-0.159	0.050
-254.107	-92.784	0.565	-0.155
-253.092	-55.788	-0.096	0.042
-252.078	672.729	0.029	0.074
-251.063	475.822	-0.119	-0.265
-250.049	132.677	-0.104	0.132
-249.034	533.383	-0.057	-0.132
-248.019	454.572	-0.080	-0.174
-247.005	0.255	-0.180	-0.126
-245.990	800.000	-0.074	0.241
-244.976	598.799	0.081	0.198
-243.961	-193.673	0.317	-0.003
-242.946	-32.178	-0.201	0.110
-241.932	-155.126	0.264	0.017
-240.917	-200.000	-0.012	0.125
-239.903	-85.890	-0.262	-0.080
-238.888	-46.716	-0.390	0.188
-237.873	34.618	0.134	-0.115
-236.859	800.000	-0.046	-0.178
-235.844	-200.000	-0.023	-0.183
-234.830	-200.000	0.035	-0.307
-233.815	78.269	0.077	-0.080
-232.800	-74.619	0.125	0.044
-231.786	436.190	-0.039	0.083
-230.771	112.196	-0.331	-0.393
-229.757	800.000	0.074	0.229
-228.742	-153.919	0.085	-0.006
-227.727	-107.855	-0.156	0.033
-226.713	-148.257	-0.178	-0.014
-225.698	-93.318	0.305	0.083
-224.684	-124.712	0.238	0.036
-223.669	-200.000	0.027	0.290
-222.655	-33.836	-0.120	0.065
-221.640	-60.361	0.340	0.142
-220.625	-76.786	-0.074	-0.025
-219.611	-67.405	-0.116	0.045
-218.596	-200.000	0.009	0.182
-217.582	6.404	-0.091	0.067
-216.567	-26.649	0.217	-0.124
-215.552	25.757	-0.147	-0.121
-214.538	-119.861	-0.237	-0.040
-213.523	-59.643	-0.301	-0.127
-212.509	-200.000	0.020	-0.420
-211.494	-65.364	0.203	0.080
-210.479	103.084	0.173	0.199
-209.465	-160.732	0.308	-0.016
-208.450	-74.111	0.197	0.070
-207.436	-200.000	-0.038	-0.000
-206.421	-72.054	0.079	0.029
-205.406	361.245	0.027	0.054
-204.392	103.959	0.255	-0.294
-203.377	350.621	-0.184	-0.358
-202.363	149.932	-0.099	-0.132
-201.348	-98.924	0.052	0.013
-200.333	800.000	0.077	0.252
-199.319	77.033	-0.169	-0.176
-198.304	800.000	0.099	-0.312
-197.290	800.000	-0.019	-0.051
-196.275	-96.877	0.074	0.019
-195.260	296.562	0.136	0.245
-194.246	800.000	-0.056	-0.175
-193.231	-200.000	-0.024	-0.412
-192.217	-25.414	0.144	-0.083
-191.202	115.863	0.244	0.293
-190.187	-200.000	-0.053	0.248
-189.173	-20.346	0.299	-0.181
-188.158	560.671	0.103	0.244
-187.144	-110.263	0.208	0.042
-186.129	-40.398	-0.141	-0.072
-185.114	-25.833	-0.235	0.136
-184.100	-136.905	0.139	-0.016
-183.085	188.027	-0.205	0.301
-182.071	-200.000	0.032	-0.167
-181.056	-200.000	0.013	0.187
-180.042	-22.397	0.003	-0.002
-179.027	-78.080	0.335	0.113
-178.012	74.322	-0.189	-0.194
-176.998	81.609	0.282	-0.299
-175.983	-200.000	-0.008	-0.182
-174.969	128.090	0.156	0.194
-173.954	-115.989	0.333	-0.061
-172.939	800.000	-0.065	-0.231
-171.925	134.851	0.019	-0.024
-170.910	-44.479	-0.219	0.107
-169.896	-171.362	-0.285	0.009
-168.881	233.163	-0.120	0.194
-167.866	113.316	0.221	0.263
-166.852	800.000	0.091	-0.341
-165.837	-200.000	-0.022	0.253
-164.823	-200.000	0.027	-0.189
-163.808	12.435	0.345	0.261
-162.793	19.720	0.125	0.098
-161.779	-60.201	-0.218	0.091
-160.764	35.780	-0.066	-0.057
-159.750	14.056	-0.239	0.182
-158.735	83.113	0.106	-0.113
-157.720	-149.637	0.337	-0.026
-156.706	563.940	0.053	-0.126
-155.691	678.123	0.074	0.188
-154.677	554.019	-0.042	0.098
-153.662	-200.000	0.000	0.301
-152.647	544.393	-0.060	0.139
-151.633	-200.000	0.014	0.094
-150.618	-200.000	0.054	-0.356
-149.604	191.924	0.098	0.145
-148.589	800.000	-0.014	0.052
-147.574	-200.000	-0.017	-0.151
-146.560	196.645	0.072	0.107
-145.545	-20.025	0.208	0.126
-144.531	684.263	0.085	0.217
-143.516	-72.044	0.249	-0.090
-142.502	-50.591	0.297	-0.137
-141.487	215.386	-0.090	-0.139
-140.472	-88.998	0.448	-0.130
-139.458	-200.000	-0.092	0.529
-138.443	-200.000	0.023	-0.137
-137.429	-78.809	0.326	0.109
-136.414	-40.863	0.233	0.118
-135.399	-200.000	-0.017	-0.197
-134.385	-7.469	-0.249	0.165
-133.370	-200.000	-0.058	0.288
-132.356	-141.757	0.036	0.004
-131.341	337.963	0.105	0.199
-130.326	-115.031	0.349	-0.065
-129.312	161.737	0.207	-0.284
-128.297	111.995	0.121	-0.143
-127.283	-200.000	0.007	0.193
-126.268	-109.391	-0.296	0.061
-125.253	214.492	0.119	0.185
-124.239	28.131	-0.156	-0.129
-123.224	-19.343	0.165	-0.100
-122.210	234.851	0.153	0.247
-121.195	-47.700	-0.220	-0.104
-120.180	547.960	-0.062	-0.145
-119.166	-127.490	-0.130	-0.018
-118.151	800.000	0.053	-0.160
-117.137	309.112	-0.023	-0.042
-116.122	-8.595	-0.078	0.052
-115.107	-158.056	0.093	-0.005
-114.093	79.532	-0.181	-0.190
-113.078	-79.549	0.271	0.089
-112.064	320.180	0.121	0.225
-111.049	-162.144	0.340	-0.017
-110.034	-123.793	-0.058	-0.009
-109.020	121.846	-0.190	0.232
-108.005	-166.259	-0.173	0.007
-106.991	-200.000	-0.019	-0.110
-105.976	211.841	0.072	-0.112
-104.962	138.583	-0.230	0.296
-103.947	-6.991	-0.122	0.081
-102.932	156.212	0.109	-0.146
-101.918	-86.694	0.155	-0.046
-100.903	372.768	0.165	0.327
-99.889	19.260	0.308	0.241
-98.874	800.000	0.130	0.393
-97.859	-147.836	-0.325	-0.027
-96.845	313.199	0.188	-0.346
-95.830	-34.565	0.400	-0.214
-94.816	32.106	0.131	0.110
-93.801	800.000	0.038	0.127
-92.786	-42.755	-0.077	0.038
-91.772	-1.248	0.354	0.244
-90.757	-200.000	0.010	0.087
-89.743	-200.000	-0.052	-0.316
-88.728	141.040	0.214	-0.277
-87.713	46.379	-0.195	0.177
-86.699	-200.000	0.051	0.261
-85.684	-199.103	0.116	0.001
-84.670	-56.911	-0.312	0.135
-83.655	144.821	-0.046	0.060
-82.640	-200.000	-0.006	0.296
-81.626	16.568	0.244	0.188
-80.611	242.711	-0.143	-0.234
-79.597	239.349	-0.107	0.173
-78.582	734.300	0.069	0.181
-77.567	292.128	-0.039	0.069
-76.553	-33.980	0.086	0.046
-75.538	202.301	0.107	-0.161
-74.524	-118.913	-0.286	-0.049
-73.509	800.000	0.139	-0.404
-72.494	-49.789	0.272	-0.126
-71.480	64.367	0.151	-0.148
-70.465	-81.193	0.173	-0.056
-69.451	-139.036	0.268	-0.028
-68.436	-158.566	0.122	-0.007
-67.422	-147.140	0.278	0.023
-66.407	800.000	-0.023	-0.086
-65.392	113.058	-0.256	-0.303
-64.378	-53.213	-0.210	0.094
-63.363	1.405	0.327	-0.230
-62.349	75.705	0.114	-0.117
-61.334	59.987	-1.094	-1.055
-60.319	-18.631	0.974	0.593
-59.305	462.756	-0.552	-1.202
-58.290	178.259	0.996	1.419
-57.276	800.000	0.595	1.678
-56.261	-200.000	125.643	653.291
-55.246	401.007	1586.296	3249.039
-54.232	140.134	2746.013	3534.079
-53.217	94.605	2168.895	2405.688
-52.203	34.881	1597.258	1363.758
-51.188	26.251	1340.921	1092.908
-50.173	23.870	1302.957	1047.906
-49.159	52.202	1372.595	1276.732
-48.144	48.699	1383.828	1265.942
-47.130	26.513	1331.759	1086.844
-46.115	23.365	1312.694	1052.572
-45.100	23.118	1307.494	1046.901
-44.086	23.080	1305.565	1045.089
-43.071	23.047	1302.803	1042.639
-42.057	23.102	1300.469	1041.054
-41.042	23.079	1299.249	1039.904
-40.027	23.128	1297.748	1038.945
-39.013	23.085	1296.096	1037.330
-37.998	23.084	1294.224	1035.784
-36.984	23.144	1292.159	1034.443
-35.969	23.202	1290.445	1033.370
-34.954	23.150	1288.754	1031.673
-33.940	23.239	1287.734	1031.332
-32.925	23.271	1286.116	1030.179
-31.911	23.326	1284.591	1029.236
-30.896	23.236	1283.568	1027.854
-29.881	23.230	1282.710	1027.093
-28.867	23.283	1281.075	1026.050
-27.852	23.374	1279.341	1025.148
-26.838	23.369	1277.785	1023.833
-25.823	23.381	1276.350	1022.706
-24.809	23.199	1275.614	1021.032
-23.794	23.267	1274.508	1020.496
-22.779	23.339	1272.340	1019.133
-21.765	23.251	1271.487	1017.904
-20.750	23.255	1270.066	1016.749
-19.736	23.058	1268.788	1014.555
-18.721	23.100	1267.648	1013.845
-17.706	23.097	1266.935	1013.214
-16.692	23.093	1265.535	1012.034
-15.677	23.105	1264.513	1011.245
-14.663	23.153	1263.041	1010.301
-13.648	23.149	1261.967	1009.381
-12.633	23.096	1261.402	1008.585
-11.619	23.112	1260.822	1008.170
-10.604	23.258	1259.254	1007.712
-9.590	23.169	1258.891	1006.872
-8.575	23.154	1257.340	1005.506
-7.560	23.054	1256.999	1004.625
-6.546	23.099	1255.890	1003.958
-5.531	23.202	1255.166	1003.918
-4.517	23.152	1254.552	1003.105
-3.502	23.110	1253.950	1002.345
-2.487	23.078	1252.810	1001.216
-1.473	23.121	1248.695	998.128
-0.458	21.640	1232.918	977.222
0.556	16.541	1217.967	940.635
1.571	13.034	1225.744	926.899
2.586	12.408	1241.274	934.996
3.600	12.573	1228.793	926.442
4.615	9.245	1157.228	854.738
5.629	3.102	1087.238	772.198
6.644	0.415	1069.989	746.591
7.659	0.090	1068.643	743.978
8.673	0.059	1067.813	743.184
9.688	0.187	1065.992	742.481
10.702	0.261	1064.286	741.593
11.717	3.977	1068.065	762.492
12.731	10.870	1076.932	802.899
13.746	15.570	1082.556	830.303
14.761	16.724	1083.800	836.887
15.775	16.023	1082.398	832.272
16.790	14.994	1080.523	825.679
17.804	14.403	1078.872	821.431
18.819	14.029	1077.482	818.458
19.834	13.886	1076.631	817.036
20.848	13.562	1076.015	814.905
21.863	13.432	1074.852	813.311
22.877	13.151	1074.527	811.612
23.892	13.088	1073.860	810.730
24.907	13.146	1073.074	810.346
25.921	13.158	1072.387	809.817
26.936	13.204	1071.945	809.636
27.950	13.206	1070.904	808.790
28.965	13.355	1069.190	808.152
29.980	13.406	1067.675	807.182
30.994	13.437	1066.253	806.185
32.009	13.414	1065.890	805.731
33.023	13.326	1065.175	804.691
34.038	13.453	1063.876	804.255
35.053	13.381	1062.844	803.053
36.067	13.286	1062.269	802.086
37.082	13.285	1061.165	801.179
38.096	13.306	1060.530	800.731
39.111	13.337	1060.022	800.427
40.126	13.160	1058.845	798.609
41.140	13.213	1057.458	797.747
42.155	13.221	1055.902	796.542
43.169	13.102	1055.219	795.385
44.184	13.233	1054.032	795.049
45.199	13.280	1053.018	794.442
46.213	13.189	1052.185	793.303
47.228	13.308	1050.964	792.882
48.242	13.376	1049.620	792.126
49.257	13.268	1048.961	791.042
50.271	13.205	1048.261	790.141
51.286	13.374	1047.234	790.106
52.301	13.405	1046.095	789.323
53.315	13.328	1045.188	788.205
54.330	13.271	1044.085	787.028
55.344	13.215	1043.571	786.308
56.359	13.185	1042.597	785.361
57.374	13.265	1041.224	784.635
58.388	13.185	1040.991	784.014
59.403	13.080	1040.296	782.922
60.417	13.138	1039.245	782.335
61.432	13.112	1038.788	781.800
62.447	13.155	1037.776	781.174
63.461	13.103	1036.833	780.146
64.476	13.058	1035.856	779.129
65.490	13.109	1035.266	778.861
66.505	13.028	1034.263	777.654
67.520	13.059	1033.916	777.470
68.534	13.125	1033.142	777.131
69.549	13.188	1032.150	776.612
70.563	13.200	1031.256	775.928
71.578	13.072	1030.828	774.936
72.593	13.038	1030.164	774.208
73.607	13.117	1029.325	773.876
74.622	13.082	1028.682	773.161
75.636	13.056	1028.043	772.492
76.651	13.064	1027.459	772.022
77.666	13.011	1026.931	771.308
78.680	13.132	1025.908	771.036
79.695	13.105	1025.452	770.499
80.709	13.090	1024.873	769.929
81.724	13.215	1024.058	769.830
82.739	13.130	1023.127	768.665
83.753	13.276	1022.579	768.867
84.768	13.378	1021.384	768.371
85.782	13.389	1020.817	767.928
86.797	13.386	1019.714	767.019
87.812	13.248	1018.974	765.755
88.826	13.291	1018.210	765.313
89.841	13.284	1016.870	764.203
90.855	13.366	1016.102	763.936
91.870	13.352	1015.810	763.585
92.884	13.313	1014.598	762.426
93.899	13.322	1013.778	761.787
94.914	13.357	1013.113	761.380
95.928	13.349	1012.215	760.599
96.943	13.415	1011.283	760.135
97.957	13.383	1010.618	759.423
98.972	13.377	1009.712	758.648
99.987	13.503	1008.341	758.128
101.001	13.297	1007.611	756.570
102.016	13.266	1007.022	755.916
103.030	13.387	1006.222	755.802
104.045	13.334	1005.466	754.927
105.060	13.303	1004.720	754.159
106.074	13.308	1003.527	753.219
107.089	13.241	1002.474	752.055
108.103	13.291	1001.428	751.434
109.118	13.270	1000.534	750.599
110.133	13.277	999.693	749.935
111.147	13.302	998.845	749.345
112.162	13.407	997.631	748.842
113.176	13.296	997.147	747.912
114.191	13.344	996.547	747.612
115.206	13.259	996.132	746.849
116.220	13.297	994.663	745.856
117.235	13.384	994.035	745.712
118.249	13.256	993.275	744.497
119.264	13.311	992.369	743.999
120.279	13.295	992.022	743.603
121.293	13.226	990.927	742.407
122.308	13.324	990.066	742.137
123.322	13.276	989.118	741.144
124.337	13.209	988.332	740.188
125.352	13.268	986.884	739.302
126.366	13.314	985.427	738.351
127.381	13.306	984.645	737.665
128.395	13.243	984.073	736.891
129.410	13.269	982.786	735.975
130.424	13.355	981.820	735.572
131.439	13.372	981.608	735.421
132.454	13.387	980.435	734.545
133.468	13.438	979.291	733.847
134.483	13.383	978.608	733.026
135.497	13.308	977.813	732.036
136.512	13.342	977.126	731.609
137.527	13.311	976.368	730.835
138.541	13.374	975.413	730.338
139.556	13.285	975.023	729.589
140.570	13.402	973.898	729.195
141.585	13.462	973.397	729.019
142.600	13.476	972.392	728.263
143.614	13.380	971.903	727.414
144.629	13.640	970.671	727.567
145.643	13.514	970.089	726.516
146.658	13.511	968.566	725.294
147.673	13.435	967.774	724.309
148.687	13.432	967.016	723.661
149.702	13.417	966.081	722.833
150.716	13.382	965.465	722.156
151.731	13.428	964.911	721.876
152.746	13.438	964.005	721.179
153.760	13.394	963.921	720.862
154.775	13.480	963.234	720.658
155.789	13.614	962.360	720.525
156.804	13.492	961.999	719.658
157.819	13.642	960.798	719.348
158.833	13.735	960.269	719.293
159.848	13.540	959.355	717.698
160.862	13.740	958.461	717.831
161.877	13.620	957.802	716.756
162.892	13.643	956.550	715.857
163.906	13.529	955.975	714.869
164.921	13.628	954.819	714.369
165.935	13.730	953.988	714.124
166.950	13.640	953.298	713.157
167.964	13.677	952.058	712.322
168.979	13.553	951.616	711.398
169.994	13.525	950.811	710.614
171.008	13.670	950.004	710.570
172.023	13.706	949.503	710.285
173.037	13.767	948.570	709.783
174.052	13.719	947.854	708.980
175.067	13.739	947.148	708.473
176.081	13.691	946.720	707.887
177.096	13.661	946.316	707.396
178.110	13.720	945.516	706.987
179.125	13.757	944.678	706.456
180.140	13.790	943.976	706.009
181.154	13.844	943.866	706.092
182.169	13.802	943.550	705.617
183.183	13.829	942.896	705.180
184.198	14.074	941.756	705.302
185.213	14.021	940.876	704.356
186.227	13.822	940.417	703.108
187.242	13.920	939.586	702.839
188.256	14.149	939.065	703.354
189.271	14.025	938.120	702.059
190.286	13.914	937.607	701.145
191.300	13.888	936.544	700.179
192.315	13.840	936.418	699.821
193.329	13.934	935.455	699.436
194.344	13.845	935.140	698.765
195.359	13.863	934.802	698.524
196.373	13.931	933.844	698.035
197.388	13.921	933.751	697.861
198.402	14.289	932.386	698.322
199.417	14.072	932.237	697.237
200.432	14.165	931.471	696.994
201.446	14.024	931.653	696.476
202.461	14.282	930.715	696.795
203.475	14.135	930.013	695.591
204.490	14.163	929.320	695.128
205.504	14.194	928.257	694.404
206.519	14.199	927.679	693.931
207.534	14.312	926.900	693.754
208.548	14.328	926.069	693.139
209.563	14.155	925.843	692.188
210.577	14.192	925.312	691.886
211.592	14.311	924.415	691.649
212.607	14.364	923.392	691.042
213.621	14.329	923.090	690.609
214.636	14.437	922.510	690.561
215.650	14.279	921.395	689.010
216.665	14.450	920.604	689.066
217.680	14.457	920.109	688.664
218.694	14.508	919.485	688.346
219.709	14.436	918.662	687.371
220.723	14.456	918.287	687.111
221.738	14.336	917.621	686.060
222.753	14.390	916.767	685.583
223.767	14.454	916.399	685.511
224.782	14.474	915.647	684.968
225.796	14.472	915.504	684.792
226.811	14.466	914.532	683.979
227.826	14.530	913.828	683.654
228.840	14.411	913.138	682.590
229.855	14.629	911.796	682.419
230.869	14.440	911.078	681.049
231.884	14.547	910.717	681.157
232.899	14.604	909.719	680.584
233.913	14.466	909.437	679.749
234.928	14.487	908.783	679.283
235.942	14.529	908.044	678.843
236.957	14.529	907.403	678.304
237.972	14.482	906.864	677.650
238.986	14.540	906.366	677.452
240.001	14.557	905.883	677.102
241.015	14.749	904.846	677.046
242.030	14.597	904.176	675.866
243.045	14.702	903.864	676.001
244.059	14.736	903.354	675.695
245.074	14.681	902.556	674.818
246.088	14.744	902.006	674.601
247.103	14.789	901.263	674.167
248.117	14.796	900.584	673.627
249.132	14.825	900.375	673.528
250.147	14.988	899.082	673.157
251.161	14.878	899.018	672.608
252.176	14.876	898.527	672.174
253.190	14.947	897.880	671.915
254.205	14.939	896.908	671.094
255.220	15.085	896.222	671.109
256.234	15.009	895.599	670.279
257.249	14.896	895.028	669.339
258.263	15.029	893.964	669.018
259.278	15.031	893.674	668.748
260.293	14.990	893.142	668.125
261.307	15.133	892.395	668.079
262.322	15.167	891.762	667.683
263.336	15.217	890.708	667.032
264.351	15.152	889.819	666.051
265.366	15.319	889.289	666.258
266.380	15.405	888.678	666.080
267.395	15.300	888.163	665.221
268.409	15.301	887.439	664.621
269.424	15.209	886.450	663.459
270.439	15.116	885.871	662.598
271.453	15.207	885.243	662.431
272.468	15.088	885.307	661.949
273.482	15.239	884.503	661.886
274.497	15.287	883.643	661.373
275.512	15.240	882.960	660.619
276.526	15.410	882.484	660.874
277.541	15.286	881.835	659.843
278.555	15.286	881.705	659.684
279.570	15.433	880.770	659.504
280.585	15.444	879.782	658.752
281.599	15.351	879.376	658.024
282.614	15.429	878.871	657.894
283.628	15.437	877.972	657.194
284.643	15.499	877.516	657.036
285.657	15.447	876.798	656.236
286.672	15.510	875.928	655.773
287.687	15.524	875.880	655.734
288.701	15.465	875.268	654.990
289.716	15.581	874.241	654.614
290.730	15.480	873.999	653.980
291.745	15.637	872.972	653.764
292.760	15.629	872.794	653.542
293.774	15.681	871.884	653.006
294.789	15.657	871.315	652.429
295.803	15.571	870.653	651.543
296.818	15.576	870.044	651.050
297.833	15.634	869.494	650.802
298.847	15.616	868.813	650.168
299.862	15.624	867.998	649.529
300.876	15.662	867.647	649.358
301.891	15.756	867.147	649.286
302.906	15.662	866.319	648.249
303.920	15.667	866.168	648.096
304.935	15.867	865.187	648.077
305.949	15.948	864.350	647.704
306.964	15.784	864.241	646.933
307.979	15.813	863.579	646.494
308.993	15.993	862.680	646.453
310.008	16.025	861.936	645.960
311.022	15.800	862.115	645.177
312.037	15.850	861.278	644.685
313.052	15.845	860.363	643.921
314.066	15.926	859.733	643.703
315.081	15.868	859.489	643.244
316.095	16.057	858.263	642.988
317.110	15.982	858.112	642.534
318.125	15.872	857.815	641.832
319.139	16.007	857.091	641.748
320.154	15.973	856.651	641.233
321.168	16.016	855.776	640.687
322.183	15.872	855.776	640.080
323.197	15.900	855.108	639.630
324.212	16.070	854.327	639.636
325.227	15.896	854.484	639.036
326.241	16.049	853.303	638.675
327.256	15.955	853.248	638.223
328.270	15.924	852.435	637.440
329.285	15.973	851.749	637.056
330.300	16.082	850.895	636.773
331.314	15.966	850.619	636.071
332.329	16.024	850.403	636.072
333.343	16.180	849.734	636.104
334.358	16.107	849.406	635.530
335.373	16.080	848.956	635.034
336.387	16.186	848.251	634.850
337.402	16.209	848.441	635.022
338.416	16.302	847.634	634.711
339.431	16.245	847.419	634.278
340.446	16.218	847.281	634.019
341.460	16.224	846.998	633.773
342.475	16.309	846.255	633.480
343.489	16.530	845.140	633.416
344.504	16.453	844.954	632.933
345.519	16.382	844.765	632.469
346.533	16.501	843.837	632.166
347.548	16.415	843.359	631.429
348.562	16.340	843.121	630.915
349.577	16.433	842.261	630.563
350.592	16.430	841.753	630.115
351.606	16.563	841.262	630.187
352.621	16.609	840.299	629.582
353.635	16.486	839.970	628.822
354.650	16.444	839.393	628.179
355.665	16.510	838.509	627.706
356.679	16.565	838.051	627.510
357.694	16.569	837.323	626.925
358.708	16.461	836.827	626.097
359.723	16.451	836.163	625.508
360.738	16.570	835.642	625.505
361.752	16.666	835.044	625.356
362.767	16.711	834.308	624.915
363.781	16.608	834.008	624.255
364.796	16.870	833.393	624.704
365.810	16.934	832.740	624.397
366.825	16.761	832.554	623.566
367.840	16.931	832.289	623.936
368.854	16.771	832.009	623.084
369.869	16.797	831.034	622.394
370.883	16.814	830.807	622.231
371.898	16.961	830.182	622.246
372.913	16.986	829.988	622.140
373.927	16.779	829.366	620.859
374.942	16.999	828.761	621.155
375.956	16.939	828.718	620.849
376.971	17.073	828.247	620.930
377.986	16.996	827.778	620.243
379.000	17.070	827.231	620.049
380.015	17.024	826.723	619.445
381.029	17.076	825.938	618.991
382.044	17.155	825.393	618.816
383.059	17.051	824.886	618.005
384.073	17.089	824.269	617.625
385.088	17.150	823.582	617.277
386.102	17.164	823.263	617.036
387.117	17.090	822.854	616.405
388.132	17.014	822.210	615.592
389.146	17.118	821.594	615.452
390.161	17.166	821.316	615.363
391.175	17.071	820.865	614.627
392.190	17.224	819.856	614.372
393.205	17.070	819.945	613.827
394.219	17.015	819.303	613.092
395.234	17.085	819.193	613.209
396.248	17.055	818.765	612.725
397.263	17.072	818.187	612.303
398.278	17.304	817.642	612.675
399.292	17.169	817.375	611.934
400.307	17.128	816.886	611.367
401.321	17.189	816.249	611.057
402.336	17.067	815.990	610.369
403.350	17.218	815.968	610.842
404.365	17.224	815.187	610.223
405.380	17.278	814.428	609.797
406.394	17.329	814.256	609.796
407.409	17.417	813.614	609.575
408.423	17.385	813.480	609.306
409.438	17.445	812.840	608.988
410.453	17.423	812.755	608.793
411.467	17.514	811.913	608.434
412.482	17.561	811.606	608.316
413.496	17.621	811.406	608.326
414.511	17.771	810.597	608.201
415.526	17.615	810.110	607.227
416.540	17.637	809.874	607.076
417.555	17.618	809.252	606.489
418.569	17.548	809.091	606.062
419.584	17.461	808.826	605.503
420.599	17.737	808.090	605.879
421.613	113.713	1299.053	1487.001
422.628	98.240	1370.562	1487.088
