DTS Sentinel unit serial number:	SN413079Multiplexer serial number:	ORYXHardware model number:	OX4-SRSoftware version number:	ORYX F/W v4.00 Oryx Data Collector v3.7.2.0data status	okinstallation	princeton_trtdifferential loss correction	single-endedforward channel	channel 1reverse channel	N/Adate	2019/09/15time	10:58:35forward acquisition time	60.00reverse acquisition time	0.00gamma	496.2192k internal	0.2308k external	0.2308temperature offset calibration	0.9989default loss term (dB/km)	0.3790temperature slope calibration	1.0000multiplexer offset coefficient	1.0000multiplexer slope coefficient	1.0000fibre end	0.00T internal ref (°C)	34.25T ext. ref 1 (°C)	5.04T ext. ref 2 (°C)	29.84length (m)	temperature (°C)	Stokes	anti-Stokes-747.200	-200.000	-0.001	0.076
-746.185	-29.734	-0.282	0.164
-745.171	201.626	0.054	0.084
-744.156	-24.264	-0.183	-0.111
-743.142	-91.070	0.147	-0.043
-742.127	296.906	0.127	-0.237
-741.112	-67.447	0.193	-0.077
-740.098	-200.000	0.013	0.174
-739.083	287.436	-0.184	0.339
-738.069	-174.107	-0.089	0.003
-737.054	35.537	0.247	0.221
-736.039	43.813	-0.303	-0.282
-735.025	311.845	0.181	0.345
-734.010	44.341	-0.211	0.197
-732.996	-95.530	-0.357	-0.097
-731.981	135.269	-0.072	-0.095
-730.966	800.000	0.089	-0.320
-729.952	-42.767	-0.086	-0.044
-728.937	-133.259	-0.311	-0.040
-727.923	-200.000	-0.008	0.180
-726.908	-75.683	-0.112	-0.040
-725.894	-87.589	-0.107	0.033
-724.879	-92.582	-0.158	-0.045
-723.864	-58.409	-0.349	-0.154
-722.850	352.335	0.118	-0.238
-721.835	481.195	-0.214	-0.493
-720.821	-200.000	-0.004	-0.112
-719.806	-200.000	0.020	-0.364
-718.791	-36.029	-0.165	-0.091
-717.777	-23.158	-0.160	0.098
-716.762	4.023	0.160	-0.119
-715.748	-200.000	-0.023	-0.137
-714.733	17.175	0.211	-0.170
-713.718	201.996	-0.111	-0.174
-712.704	-65.088	0.148	0.061
-711.689	-200.000	0.049	0.306
-710.675	-80.960	0.158	-0.053
-709.660	-81.312	0.256	-0.086
-708.645	429.231	-0.017	0.037
-707.631	-124.731	-0.165	-0.026
-706.616	800.000	0.119	-0.354
-705.602	-121.954	-0.226	0.038
-704.587	-74.879	-0.312	-0.114
-703.572	-200.000	-0.028	0.133
-702.558	-135.768	-0.158	-0.019
-701.543	-48.377	0.139	-0.068
-700.529	-3.269	0.338	-0.239
-699.514	800.000	-0.082	0.272
-698.499	705.767	-0.071	-0.190
-697.485	800.000	-0.052	-0.219
-696.470	-124.124	-0.300	0.048
-695.456	280.983	-0.055	-0.100
-694.441	289.772	0.047	-0.087
-693.426	83.767	0.142	-0.157
-692.412	-200.000	0.008	-0.102
-691.397	800.000	-0.118	0.400
-690.383	-29.126	-0.149	0.087
-689.368	-170.242	-0.055	-0.002
-688.354	82.936	-0.127	0.140
-687.339	-200.000	-0.051	0.302
-686.324	-200.000	-0.050	0.329
-685.310	-6.834	0.240	0.166
-684.295	85.828	-0.282	-0.315
-683.281	72.050	-0.097	0.103
-682.266	-50.843	-0.176	-0.084
-681.251	39.333	0.213	-0.193
-680.237	214.941	-0.114	-0.183
-679.222	-186.375	-0.532	-0.008
-678.208	210.731	-0.092	0.146
-677.193	800.000	-0.092	0.302
-676.178	800.000	-0.089	0.285
-675.164	270.763	0.083	-0.148
-674.149	207.147	-0.077	-0.122
-673.135	39.728	0.110	-0.100
-672.120	-135.064	0.284	-0.035
-671.105	93.910	-0.223	-0.256
-670.091	-104.217	0.255	-0.060
-669.076	-139.651	0.071	0.008
-668.062	45.517	-0.204	-0.190
-667.047	-158.470	0.287	-0.017
-666.032	722.769	-0.083	-0.224
-665.018	-7.285	-0.309	-0.212
-664.003	-127.960	-0.378	0.055
-662.989	-118.852	-0.299	0.053
-661.974	-200.000	-0.047	0.220
-660.959	31.943	-0.156	-0.136
-659.945	116.827	0.233	-0.290
-658.930	172.949	-0.279	0.407
-657.916	-7.665	-0.216	-0.148
-656.901	800.000	-0.092	-0.279
-655.886	-200.000	-0.022	0.305
-654.872	-5.902	0.187	-0.130
-653.857	-200.000	0.030	-0.209
-652.843	0.818	-0.361	0.262
-651.828	-11.153	-0.218	-0.145
-650.814	-169.626	0.130	-0.005
-649.799	-200.000	0.017	-0.403
-648.784	346.801	0.034	-0.067
-647.770	89.699	-0.091	-0.103
-646.755	-127.278	0.261	0.039
-645.741	800.000	-0.053	-0.216
-644.726	-4.722	-0.185	-0.129
-643.711	-200.000	-0.019	-0.355
-642.697	-179.440	-0.142	-0.003
-641.682	800.000	0.119	-0.469
-640.668	263.239	-0.040	0.071
-639.653	-200.000	-0.318	0.001
-638.638	-75.137	-0.220	0.080
-637.624	-200.000	0.008	-0.184
-636.609	800.000	-0.069	-0.251
-635.595	315.779	-0.066	0.125
-634.580	136.273	0.224	-0.295
-633.565	800.000	0.053	-0.229
-632.551	-104.069	0.022	0.005
-631.536	395.157	-0.117	0.248
-630.522	-98.821	-0.375	0.097
-629.507	-200.000	-0.073	0.384
-628.492	142.608	0.192	-0.258
-627.478	-104.625	0.123	-0.029
-626.463	25.240	0.033	-0.028
-625.449	-50.576	-0.171	-0.082
-624.434	-40.232	0.188	-0.099
-623.419	-200.000	-0.037	0.190
-622.405	51.296	0.066	0.064
-621.390	-44.736	-0.087	-0.044
-620.376	-107.571	-0.181	-0.040
-619.361	295.459	0.102	0.188
-618.346	441.494	-0.164	0.364
-617.332	800.000	-0.074	0.232
-616.317	800.000	0.088	-0.282
-615.303	-23.217	0.055	-0.033
-614.288	-131.432	0.109	-0.015
-613.273	79.789	-0.190	0.206
-612.259	745.540	-0.116	0.317
-611.244	-200.000	0.017	-0.247
-610.230	-72.462	0.180	-0.067
-609.215	-200.000	-0.000	-0.051
-608.201	-71.439	-0.295	0.112
-607.186	-78.496	-0.122	-0.042
-606.171	44.429	-0.101	0.094
-605.157	-200.000	0.018	-0.137
-604.142	-82.825	0.012	-0.004
-603.128	-57.901	0.159	-0.070
-602.113	577.149	0.179	-0.442
-601.098	-200.000	-0.018	-0.228
-600.084	-55.107	0.299	-0.136
-599.069	-66.966	-0.135	0.054
-598.055	-110.839	-0.151	-0.032
-597.040	-200.000	-0.037	0.256
-596.025	-175.547	0.120	-0.003
-595.011	-118.608	-0.146	-0.026
-593.996	-200.000	0.018	-0.299
-592.982	47.274	-0.096	-0.090
-591.967	113.478	-0.209	0.256
-590.952	800.000	0.083	-0.240
-589.938	-39.224	-0.305	0.162
-588.923	34.968	-0.276	0.244
-587.909	224.938	-0.234	0.382
-586.894	-200.000	0.039	0.438
-585.879	-200.000	-0.011	0.118
-584.865	800.000	0.057	-0.248
-583.850	-55.738	-0.144	-0.065
-582.836	-73.788	0.083	0.030
-581.821	-21.571	0.192	-0.118
-580.806	243.113	0.112	-0.190
-579.792	-83.988	0.066	0.021
-578.777	68.360	0.223	0.231
-577.763	800.000	-0.067	-0.262
-576.748	-200.000	-0.051	0.234
-575.733	176.890	0.228	0.335
-574.719	388.513	0.057	0.119
-573.704	-30.437	0.148	0.085
-572.690	-71.338	-0.165	0.063
-571.675	29.539	0.127	0.109
-570.661	33.394	0.223	0.196
-569.646	1.856	0.362	0.263
-568.631	23.435	-0.137	0.114
-567.617	-200.000	-0.012	0.142
-566.602	-127.800	0.286	0.042
-565.588	-200.000	-0.006	0.161
-564.573	-122.640	0.379	0.062
-563.558	36.411	-0.320	0.285
-562.544	-132.662	0.138	-0.018
-561.529	-143.152	0.290	0.028
-560.515	24.329	0.160	-0.133
-559.500	-200.000	0.037	0.315
-558.485	800.000	0.068	0.196
-557.471	-92.353	-0.039	0.011
-556.456	-161.897	0.284	-0.015
-555.442	189.825	0.089	-0.134
-554.427	39.754	0.241	0.218
-553.412	42.822	-0.155	-0.142
-552.398	-76.618	-0.119	0.042
-551.383	-51.728	0.201	0.094
-550.369	-128.976	-0.214	-0.030
-549.354	132.660	0.103	-0.134
-548.339	-95.918	-0.133	-0.036
-547.325	-42.279	-0.256	-0.132
-546.310	24.054	-0.262	0.218
-545.296	18.845	-0.326	0.264
-544.281	191.668	-0.042	0.064
-543.266	-125.593	-0.220	-0.034
-542.252	1.307	-0.138	-0.100
-541.237	800.000	-0.071	0.210
-540.223	-200.000	0.016	0.269
-539.208	-102.632	-0.216	-0.052
-538.193	242.937	-0.170	-0.286
-537.179	17.112	-0.328	-0.262
-536.164	29.070	0.124	-0.106
-535.150	-200.000	-0.017	-0.202
-534.135	-200.000	-0.055	-0.430
-533.121	800.000	0.066	-0.246
-532.106	127.943	0.084	-0.108
-531.091	183.486	0.093	-0.139
-530.077	-148.781	-0.215	0.018
-529.062	-94.534	0.301	0.083
-528.048	21.078	0.132	0.108
-527.033	-143.344	-0.164	0.016
-526.018	163.171	-0.044	-0.062
-525.004	-145.112	-0.154	0.014
-523.989	-91.872	0.202	-0.058
-522.975	800.000	0.064	0.198
-521.960	40.368	0.051	-0.046
-520.945	45.271	-0.084	-0.078
-519.931	-91.270	0.493	-0.142
-518.916	101.036	-0.111	-0.130
-517.902	800.000	-0.045	0.188
-516.887	-73.778	0.219	-0.080
-515.872	800.000	0.030	-0.111
-514.858	-82.216	-0.242	0.079
-513.843	37.145	0.298	-0.265
-512.829	-24.956	0.223	0.133
-511.814	-46.711	-0.335	0.165
-510.799	-126.145	-0.280	-0.042
-509.785	124.126	-0.229	-0.289
-508.770	-156.367	-0.435	0.027
-507.756	-46.969	-0.132	-0.065
-506.741	-200.000	-0.008	-0.231
-505.726	68.661	0.266	0.275
-504.712	208.450	0.076	-0.120
-503.697	104.293	-0.186	0.221
-502.683	-199.850	0.315	0.002
-501.668	-82.640	0.228	-0.074
-500.653	-121.672	0.096	0.016
-499.639	-64.773	-0.291	-0.118
-498.624	531.943	0.083	-0.198
-497.610	-34.701	-0.206	0.114
-496.595	-200.000	-0.001	-0.031
-495.581	157.203	0.061	-0.084
-494.566	-106.312	0.148	-0.033
-493.551	-200.000	0.020	0.296
-492.537	220.145	-0.216	0.348
-491.522	317.143	-0.054	-0.102
-490.508	455.735	-0.074	0.165
-489.493	117.238	-0.155	0.192
-488.478	66.930	0.220	-0.226
-487.464	421.246	-0.115	0.248
-486.449	95.420	0.132	-0.151
-485.435	800.000	0.046	-0.136
-484.420	-159.142	-0.295	0.017
-483.405	753.601	-0.035	0.095
-482.391	215.167	0.112	0.179
-481.376	-200.000	-0.012	0.113
-480.362	-77.084	-0.039	0.014
-479.347	-101.107	0.064	0.016
-478.332	207.704	0.172	-0.271
-477.318	-52.564	-0.168	0.078
-476.303	164.570	-0.079	0.112
-475.289	-139.902	0.179	0.019
-474.274	-125.435	-0.163	-0.025
-473.259	-200.000	-0.034	-0.152
-472.245	-164.043	-0.219	0.010
-471.230	-116.553	0.287	0.053
-470.216	-27.063	-0.249	0.146
-469.201	170.620	0.154	-0.221
-468.186	464.254	0.129	0.291
-467.172	-152.926	-0.159	0.011
-466.157	41.805	-0.208	-0.190
-465.143	-200.000	0.025	0.158
-464.128	-200.000	-0.005	-0.076
-463.113	-174.362	0.117	-0.003
-462.099	-121.890	0.430	0.071
-461.084	-187.343	-0.031	-0.000
-460.070	16.925	0.175	-0.139
-459.055	196.348	-0.068	0.105
-458.040	26.208	-0.286	-0.240
-457.026	43.976	-0.066	0.060
-456.011	-200.000	0.025	0.146
-454.997	136.770	0.057	-0.074
-453.982	-47.351	-0.190	0.093
-452.968	-4.352	-0.081	0.056
-451.953	7.539	0.113	0.085
-450.938	800.000	-0.102	-0.393
-449.924	-37.462	-0.222	-0.119
-448.909	65.403	0.137	0.140
-447.895	-91.109	-0.255	-0.073
-446.880	539.820	-0.001	0.004
-445.865	-50.568	-0.357	0.169
-444.851	-108.960	-0.253	-0.054
-443.836	-200.000	0.017	-0.198
-442.822	800.000	-0.079	0.292
-441.807	141.016	-0.096	-0.128
-440.792	88.885	0.107	-0.120
-439.778	-132.929	-0.273	0.035
-438.763	-113.984	0.259	-0.050
-437.749	-94.736	0.208	-0.057
-436.734	800.000	-0.175	-0.579
-435.719	30.017	0.273	-0.234
-434.705	168.602	0.174	-0.249
-433.690	129.795	0.111	0.142
-432.676	-200.000	-0.015	-0.345
-431.661	694.353	0.191	-0.502
-430.646	-200.000	0.012	-0.163
-429.632	-119.856	-0.291	0.050
-428.617	12.403	-0.043	0.033
-427.603	336.876	0.098	0.192
-426.588	511.547	-0.066	0.154
-425.573	-200.000	-0.014	-0.133
-424.559	-62.203	0.075	-0.031
-423.544	-108.071	-0.208	-0.045
-422.530	304.296	-0.059	-0.109
-421.515	753.252	0.106	0.288
-420.500	-57.879	0.168	0.074
-419.486	37.267	-0.134	-0.119
-418.471	-200.000	0.008	0.080
-417.457	-82.873	0.443	-0.144
-416.442	-15.188	0.250	0.160
-415.428	-44.457	0.110	-0.055
-414.413	-58.217	-0.197	0.086
-413.398	-86.213	0.251	0.077
-412.384	-200.000	0.022	-0.137
-411.369	-200.000	-0.010	0.144
-410.355	-49.338	0.259	-0.124
-409.340	45.067	-0.274	0.253
-408.325	-31.001	-0.308	-0.174
-407.311	800.000	-0.077	0.238
-406.296	-103.636	-0.327	-0.077
-405.282	-118.090	0.197	0.035
-404.267	800.000	-0.044	-0.142
-403.252	351.640	0.123	-0.243
-402.238	-200.000	-0.029	0.248
-401.223	57.068	-0.032	0.031
-400.209	-51.830	-0.256	0.120
-399.194	-18.068	0.097	-0.061
-398.179	-193.472	0.117	-0.001
-397.165	-54.292	-0.263	0.120
-396.150	511.103	-0.118	-0.276
-395.136	61.250	0.083	-0.083
-394.121	362.690	-0.101	-0.203
-393.106	-69.949	-0.153	0.058
-392.092	1.545	0.363	-0.262
-391.077	-36.592	-0.270	0.145
-390.063	-59.748	0.149	0.064
-389.048	-175.052	-0.113	-0.003
-388.033	252.660	-0.086	0.147
-387.019	418.112	0.163	0.349
-386.004	712.971	-0.111	0.294
-384.990	800.000	-0.135	-0.430
-383.975	138.592	0.160	-0.210
-382.960	2.592	-0.262	0.190
-381.946	33.511	0.352	-0.306
-380.931	126.621	0.198	0.251
-379.917	-200.000	0.056	0.293
-378.902	800.000	-0.017	0.054
-377.888	313.733	-0.210	0.396
-376.873	161.366	-0.097	-0.136
-375.858	30.785	-0.328	-0.281
-374.844	305.580	-0.071	-0.132
-373.829	800.000	-0.061	-0.179
-372.815	110.944	-0.184	-0.222
-371.800	800.000	0.052	0.189
-370.785	800.000	-0.109	-0.431
-369.771	-68.880	0.246	-0.095
-368.756	781.263	0.045	-0.124
-367.742	-200.000	0.094	0.485
-366.727	-150.692	0.109	-0.008
-365.712	-70.305	0.118	-0.045
-364.698	27.177	0.041	0.034
-363.683	-69.774	-0.187	0.071
-362.669	800.000	0.026	-0.077
-361.654	-37.238	-0.185	0.099
-360.639	-16.789	0.061	-0.038
-359.625	182.128	-0.002	-0.003
-358.610	-56.453	0.359	-0.160
-357.596	-81.298	0.055	0.018
-356.581	206.280	-0.078	-0.121
-355.566	-87.440	-0.044	0.013
-354.552	13.270	-0.201	-0.156
-353.537	296.899	0.286	-0.525
-352.523	-75.947	0.299	0.106
-351.508	-57.829	0.120	0.052
-350.493	210.181	-0.066	-0.104
-349.479	26.032	-0.258	-0.216
-348.464	1.007	0.096	0.069
-347.450	-200.000	-0.007	-0.485
-346.435	735.479	-0.146	-0.392
-345.420	149.351	-0.084	0.113
-344.406	-200.000	0.081	-0.364
-343.391	-99.197	0.149	0.038
-342.377	-200.000	0.028	-0.278
-341.362	89.352	-0.141	0.157
-340.348	-103.392	0.406	0.096
-339.333	432.053	-0.069	0.149
-338.318	441.253	0.031	0.069
-337.304	800.000	-0.066	0.256
-336.289	188.004	-0.066	0.099
-335.275	394.855	-0.031	0.065
-334.260	-119.230	-0.061	-0.011
-333.245	33.687	-0.120	0.104
-332.231	57.992	-0.066	-0.065
-331.216	-200.000	0.096	-0.480
-330.202	-140.373	0.289	-0.030
-329.187	81.244	-0.074	0.080
-328.172	647.452	0.094	-0.239
-327.158	-200.000	-0.027	0.165
-326.143	5.953	-0.241	0.178
-325.129	800.000	-0.041	-0.174
-324.114	-165.424	-0.199	0.009
-323.099	-200.000	-0.057	-0.380
-322.085	42.285	0.050	0.045
-321.070	-56.653	0.147	-0.065
-320.056	659.211	-0.123	-0.316
-319.041	-200.000	-0.034	0.000
-318.026	197.288	0.115	0.176
-317.012	-200.000	-0.007	0.261
-315.997	800.000	-0.057	0.222
-314.983	-200.000	-0.022	0.189
-313.968	6.531	0.170	-0.126
-312.953	674.049	0.086	0.223
-311.939	-68.514	0.284	0.110
-310.924	55.976	-0.078	0.075
-309.910	-107.548	0.046	-0.010
-308.895	800.000	-0.067	0.244
-307.880	-200.000	-0.001	-0.092
-306.866	-200.000	0.283	0.000
-305.851	-162.359	0.342	-0.017
-304.837	-0.491	-0.193	-0.137
-303.822	-173.979	-0.039	0.001
-302.807	94.842	0.024	-0.027
-301.793	230.331	0.052	0.085
-300.778	-161.597	-0.234	-0.012
-299.764	-200.000	-0.008	-0.232
-298.749	-66.090	0.140	-0.056
-297.735	-36.002	-0.216	0.116
-296.720	4.391	0.341	0.249
-295.705	-63.695	0.178	-0.073
-294.691	20.562	-0.158	0.127
-293.676	-53.614	0.133	-0.061
-292.662	205.644	-0.143	-0.222
-291.647	662.585	0.054	-0.139
-290.632	-95.897	-0.222	0.059
-289.618	209.752	-0.158	0.248
-288.603	-191.043	-0.159	0.002
-287.589	-200.000	0.032	-0.229
-286.574	260.584	0.163	0.281
-285.559	-125.623	-0.185	-0.028
-284.545	-46.009	-0.140	0.069
-283.530	-31.777	-0.108	-0.060
-282.516	-200.000	-0.021	-0.232
-281.501	144.974	0.244	-0.326
-280.486	-200.000	-0.010	0.129
-279.472	-112.290	-0.353	0.071
-278.457	-137.822	-0.090	-0.010
-277.443	-77.563	-0.159	-0.055
-276.428	195.466	-0.186	-0.282
-275.413	-106.782	0.409	0.091
-274.399	800.000	-0.066	-0.214
-273.384	-18.016	0.314	-0.196
-272.370	-99.950	0.346	0.086
-271.355	72.456	0.207	-0.215
-270.340	59.181	-0.375	-0.368
-269.326	244.783	0.236	0.396
-268.311	44.145	-0.234	-0.214
-267.297	11.548	0.211	0.161
-266.282	5.141	0.115	-0.085
-265.267	-21.592	-0.338	0.205
-264.253	54.605	0.159	-0.153
-263.238	163.135	-0.123	-0.172
-262.224	-10.413	0.294	-0.194
-261.209	800.000	0.094	-0.296
-260.195	145.957	0.258	0.344
-259.180	303.369	0.063	-0.116
-258.165	241.507	0.224	0.373
-257.151	-35.914	-0.248	-0.134
-256.136	-177.750	0.198	0.005
-255.122	-50.759	-0.133	0.062
-254.107	-1.173	-0.303	0.213
-253.092	126.370	-0.020	-0.026
-252.078	-200.000	0.002	0.157
-251.063	800.000	0.038	-0.152
-250.049	22.418	-0.121	-0.098
-249.034	-200.000	-0.021	-0.272
-248.019	175.074	-0.170	0.245
-247.005	-1.217	0.204	-0.144
-245.990	-100.397	-0.469	-0.116
-244.976	-73.332	0.228	0.083
-243.961	160.827	-0.140	-0.194
-242.946	109.482	0.115	0.137
-241.932	-177.233	-0.185	-0.005
-240.917	579.372	-0.042	0.103
-239.903	742.625	0.066	0.178
-238.888	19.578	0.050	-0.040
-237.873	-144.142	0.113	-0.011
-236.859	373.054	0.103	0.209
-235.844	-200.000	0.013	0.180
-234.830	361.223	-0.103	0.206
-233.815	-127.438	0.264	0.038
-232.800	-2.022	0.093	-0.065
-231.786	-200.000	-0.001	-0.102
-230.771	303.301	-0.036	0.066
-229.757	-200.000	0.031	0.230
-228.742	162.050	0.259	0.362
-227.727	44.560	0.066	0.061
-226.713	-200.000	0.045	-0.219
-225.698	317.881	0.140	0.264
-224.684	232.698	-0.135	0.221
-223.669	136.229	0.213	0.276
-222.655	81.701	-0.121	0.130
-221.640	-8.565	0.134	-0.090
-220.625	79.481	-0.021	-0.023
-219.611	-196.225	0.471	-0.003
-218.596	66.024	-0.150	0.152
-217.582	71.412	0.173	-0.179
-216.567	234.939	-0.051	-0.085
-215.552	85.029	0.163	0.178
-214.538	-34.656	0.107	-0.058
-213.523	12.575	-0.199	-0.153
-212.509	-41.508	0.136	-0.070
-211.494	218.344	-0.173	-0.275
-210.479	-61.301	0.266	-0.112
-209.465	-200.000	-0.007	0.081
-208.450	-200.000	-0.085	0.453
-207.436	48.523	-0.227	-0.211
-206.421	-123.646	0.159	0.025
-205.406	-127.986	0.209	0.030
-204.392	297.088	-0.065	-0.118
-203.377	-88.408	0.385	0.114
-202.363	175.971	-0.172	-0.248
-201.348	800.000	0.046	0.155
-200.333	111.652	-0.290	0.349
-199.319	57.471	0.167	0.163
-198.304	-103.374	-0.211	0.050
-197.290	-200.000	0.052	0.226
-196.275	18.890	-0.203	-0.162
-195.260	132.999	0.055	-0.070
-194.246	-200.000	0.034	0.209
-193.231	-200.000	0.012	-0.134
-192.217	800.000	-0.070	0.230
-191.202	1.370	-0.296	0.211
-190.187	800.000	0.130	0.383
-189.173	130.141	0.381	0.485
-188.158	447.408	0.086	0.188
-187.144	-200.000	-0.045	-0.382
-186.129	-90.775	-0.265	0.076
-185.114	800.000	-0.085	-0.310
-184.100	-200.000	-0.032	-0.196
-183.085	-81.742	-0.464	-0.151
-182.071	-200.000	-0.035	0.158
-181.056	-200.000	0.046	0.246
-180.042	114.521	0.098	-0.118
-179.027	204.257	0.170	0.262
-178.012	18.879	0.154	0.123
-176.998	-102.509	0.189	0.045
-175.983	-161.091	-0.222	0.012
-174.969	-141.598	-0.348	-0.035
-173.954	161.439	0.108	0.150
-172.939	16.200	-0.119	-0.093
-171.925	-57.938	0.218	0.095
-170.910	-0.473	-0.026	0.018
-169.896	-159.622	0.300	-0.017
-168.881	-32.967	0.377	0.208
-167.866	800.000	0.057	0.198
-166.852	800.000	0.051	-0.171
-165.837	-56.732	0.291	-0.128
-164.823	-51.708	-0.162	-0.075
-163.808	-97.240	0.191	-0.049
-162.793	216.559	-0.019	-0.030
-161.779	-62.069	0.225	0.093
-160.764	370.120	0.075	0.152
-159.750	543.178	-0.034	0.081
-158.735	800.000	0.023	-0.082
-157.720	369.341	-0.152	0.306
-156.706	-114.807	-0.174	0.033
-155.691	-23.484	-0.133	-0.079
-154.677	99.923	-0.043	-0.050
-153.662	193.370	-0.210	0.316
-152.647	196.155	0.062	0.094
-151.633	-200.000	0.018	0.260
-150.618	800.000	-0.040	0.120
-149.604	-6.361	0.167	-0.113
-148.589	800.000	-0.094	-0.329
-147.574	83.425	-0.196	0.212
-146.560	88.583	-0.122	0.135
-145.545	29.762	-0.092	0.078
-144.531	-25.827	0.220	-0.129
-143.516	800.000	0.065	0.206
-142.502	65.738	0.202	-0.204
-141.487	88.212	-0.182	-0.201
-140.472	800.000	-0.053	-0.225
-139.458	50.721	0.245	0.231
-138.443	-200.000	0.021	0.108
-137.429	-160.090	0.413	-0.022
-136.414	-114.466	-0.171	-0.033
-135.399	-45.928	0.244	0.119
-134.385	580.706	-0.230	-0.560
-133.370	9.259	-0.066	-0.050
-132.356	-200.000	-0.011	-0.167
-131.341	35.539	-0.263	-0.229
-130.326	713.297	0.121	0.319
-129.312	-126.587	0.117	0.017
-128.297	-182.074	0.380	-0.007
-127.283	277.778	0.085	-0.150
-126.268	12.343	-0.130	0.099
-125.253	800.000	0.053	0.200
-124.239	-200.000	0.020	0.248
-123.224	96.587	0.165	-0.187
-122.210	254.879	-0.182	0.310
-121.195	-71.560	0.223	-0.083
-120.180	-28.624	-0.181	-0.103
-119.166	-200.000	0.042	0.395
-118.151	-113.496	0.154	0.030
-117.137	-69.304	0.345	-0.131
-116.122	146.341	0.171	0.227
-115.107	-83.343	-0.147	0.047
-114.093	-139.155	-0.104	-0.011
-113.078	-15.873	-0.186	0.118
-112.064	27.741	0.210	0.176
-111.049	134.206	-0.070	0.091
-110.034	-155.947	0.382	0.024
-109.020	261.985	0.033	0.057
-108.005	-120.073	0.094	0.016
-106.991	59.463	-0.089	0.087
-105.976	-55.767	0.368	-0.163
-104.962	-200.000	0.012	-0.137
-103.947	-200.000	0.032	-0.229
-102.932	-101.593	0.191	-0.046
-101.918	-31.921	0.235	0.130
-100.903	-48.816	-0.094	-0.045
-99.889	46.215	-0.285	0.261
-98.874	-61.533	-0.133	0.055
-97.859	-51.124	-0.201	0.093
-96.845	-102.790	0.104	0.024
-95.830	-200.000	0.001	0.137
-94.816	-39.555	0.291	-0.151
-93.801	-200.000	0.081	-0.352
-92.786	-159.287	-0.343	-0.019
-91.772	-30.016	0.200	-0.113
-90.757	111.986	-0.256	-0.307
-89.743	-129.626	0.049	-0.007
-88.728	-136.064	0.307	0.036
-87.713	170.539	0.192	-0.272
-86.699	-69.445	-0.252	0.096
-85.684	-72.640	0.284	-0.104
-84.670	800.000	0.037	0.104
-83.655	-163.541	0.228	0.011
-82.640	-45.005	0.200	-0.099
-81.626	116.117	0.244	0.296
-80.611	67.969	0.174	0.176
-79.597	-49.313	0.240	-0.113
-78.582	266.715	-0.165	-0.286
-77.567	133.562	0.141	0.181
-76.553	47.308	-0.315	0.290
-75.538	-22.046	-0.349	-0.210
-74.524	-32.714	0.037	0.020
-73.509	-200.000	0.017	0.099
-72.494	247.216	-0.113	-0.189
-71.480	-181.188	0.175	0.003
-70.465	-200.000	0.012	0.297
-69.451	9.560	-0.135	-0.101
-68.436	148.169	-0.066	0.089
-67.422	188.825	-0.188	0.278
-66.407	800.000	-0.020	0.068
-65.392	800.000	0.115	0.429
-64.378	203.259	0.214	-0.327
-63.363	-93.046	-0.267	-0.074
-62.349	-96.674	-0.223	-0.058
-61.334	800.000	-0.476	-1.315
-60.319	92.660	0.388	0.434
-59.305	-200.000	-0.101	-0.939
-58.290	800.000	0.413	1.283
-57.276	549.140	0.702	1.665
-56.261	-200.000	97.497	574.496
-55.246	628.209	1401.892	3504.165
-54.232	186.080	2608.738	3837.935
-53.217	120.958	2183.348	2686.768
-52.203	46.005	1632.580	1494.670
-51.188	37.633	1367.598	1200.664
-50.173	34.379	1324.289	1143.118
-49.159	56.116	1373.493	1318.803
-48.144	60.081	1391.059	1359.785
-47.130	38.070	1345.416	1183.656
-46.115	34.433	1327.797	1146.289
-45.100	34.219	1322.999	1140.821
-44.086	34.075	1321.071	1138.253
-43.071	34.086	1318.217	1135.813
-42.057	34.017	1316.510	1133.887
-41.042	34.078	1314.878	1132.796
-40.027	34.179	1313.316	1132.011
-39.013	34.123	1311.408	1129.989
-37.998	34.135	1309.394	1128.278
-36.984	34.290	1307.735	1127.721
-35.969	34.304	1305.891	1126.166
-34.954	34.240	1304.394	1124.453
-33.940	34.261	1303.103	1123.422
-32.925	34.290	1301.927	1122.534
-31.911	34.341	1300.085	1121.201
-30.896	34.475	1298.074	1120.210
-29.881	34.446	1296.859	1118.946
-28.867	34.436	1295.722	1117.865
-27.852	34.324	1294.631	1116.224
-26.838	34.362	1293.119	1115.096
-25.823	34.289	1291.686	1113.391
-24.809	34.318	1290.239	1112.268
-23.794	34.395	1288.624	1111.280
-22.779	34.283	1287.970	1110.018
-21.765	34.190	1286.651	1108.296
-20.750	34.310	1285.146	1107.654
-19.736	34.233	1283.761	1105.970
-18.721	34.250	1282.540	1104.971
-17.706	34.181	1281.518	1103.648
-16.692	34.223	1280.369	1102.855
-15.677	34.213	1279.279	1101.815
-14.663	34.217	1278.099	1100.782
-13.648	34.271	1276.485	1099.660
-12.633	34.270	1275.689	1098.923
-11.619	34.109	1275.327	1097.637
-10.604	34.162	1274.286	1097.007
-9.590	34.201	1273.385	1096.410
-8.575	34.219	1272.104	1095.367
-7.560	34.114	1271.338	1094.061
-6.546	34.199	1270.567	1093.842
-5.531	34.066	1269.678	1092.271
-4.517	34.109	1269.107	1091.982
-3.502	34.227	1267.573	1091.293
-2.487	34.167	1266.975	1090.391
-1.473	34.060	1263.299	1086.575
-0.458	32.863	1248.290	1066.860
0.556	28.105	1230.446	1027.692
1.571	24.179	1235.453	1009.586
2.586	23.160	1250.917	1016.281
3.600	22.485	1240.047	1003.520
4.615	17.475	1168.115	918.265
5.629	9.176	1092.166	816.460
6.644	5.223	1071.510	781.205
7.659	5.042	1068.366	777.943
8.673	4.946	1067.512	776.773
9.688	4.939	1066.137	775.669
10.702	5.130	1064.678	775.486
11.717	10.333	1072.102	806.804
12.731	17.741	1082.294	851.526
13.746	19.535	1083.584	861.427
14.761	18.085	1081.144	852.189
15.775	17.068	1078.915	845.293
16.790	15.897	1076.847	837.773
17.804	15.115	1075.562	832.813
18.819	14.912	1074.410	830.840
19.834	14.588	1073.153	828.187
20.848	14.486	1072.057	826.759
21.863	14.178	1071.535	824.756
22.877	13.866	1070.904	822.653
23.892	13.904	1069.779	821.905
24.907	13.838	1069.670	821.420
25.921	14.001	1068.179	821.007
26.936	14.017	1066.970	820.088
27.950	14.007	1065.686	818.976
28.965	14.200	1063.654	818.294
29.980	14.310	1062.329	817.743
30.994	14.339	1061.015	816.799
32.009	14.352	1060.394	816.314
33.023	14.270	1059.637	815.256
34.038	14.124	1058.476	813.579
35.053	14.250	1057.099	813.061
36.067	14.260	1055.890	812.107
37.082	14.239	1055.274	811.464
38.096	14.226	1054.904	811.042
39.111	14.289	1053.714	810.364
40.126	14.086	1052.779	808.585
41.140	14.029	1051.402	807.178
42.155	14.023	1049.855	805.892
43.169	13.941	1049.099	804.839
44.184	13.906	1048.087	803.822
45.199	13.925	1046.955	802.977
46.213	13.970	1045.805	802.239
47.228	14.084	1045.056	802.146
48.242	14.179	1043.616	801.426
49.257	14.042	1042.818	800.083
50.271	14.153	1042.096	799.993
51.286	14.200	1041.046	799.342
52.301	14.123	1040.047	798.136
53.315	14.102	1039.165	797.284
54.330	14.061	1038.264	796.329
55.344	13.851	1037.910	794.982
56.359	13.982	1036.712	794.617
57.374	13.967	1035.222	793.335
58.388	13.842	1034.764	792.319
59.403	13.914	1033.816	791.862
60.417	13.957	1033.541	791.788
61.432	13.947	1032.106	790.570
62.447	13.791	1031.746	789.484
63.461	13.869	1030.440	788.784
64.476	13.770	1029.739	787.711
65.490	13.797	1028.889	787.116
66.505	13.974	1027.922	787.145
67.520	13.897	1027.711	786.549
68.534	13.980	1026.898	786.249
69.549	13.973	1025.928	785.406
70.563	13.886	1025.335	784.471
71.578	13.730	1024.594	783.097
72.593	13.790	1023.648	782.590
73.607	13.813	1022.797	781.977
74.622	13.779	1022.216	781.306
75.636	13.714	1021.839	780.639
76.651	13.884	1020.582	780.413
77.666	13.842	1020.241	779.884
78.680	13.880	1019.420	779.365
79.695	13.832	1018.686	778.508
80.709	13.937	1017.835	778.284
81.724	13.977	1017.693	778.294
82.739	14.103	1016.920	778.222
83.753	14.085	1016.087	777.433
84.768	14.191	1015.344	777.290
85.782	14.153	1014.440	776.351
86.797	14.148	1013.488	775.533
87.812	14.138	1012.349	774.545
88.826	14.136	1011.528	773.837
89.841	14.142	1010.542	773.045
90.855	14.261	1009.685	772.872
91.870	14.274	1009.077	772.399
92.884	14.276	1008.142	771.625
93.899	14.338	1007.109	771.053
94.914	14.352	1005.951	770.162
95.928	14.382	1005.119	769.597
96.943	14.242	1004.544	768.441
97.957	14.208	1003.476	767.401
98.972	14.288	1002.769	767.160
99.987	14.292	1001.863	766.419
101.001	14.341	1000.432	765.480
102.016	14.244	999.994	764.633
103.030	14.244	999.796	764.409
104.045	14.293	998.639	763.684
105.060	14.212	997.538	762.404
106.074	14.035	996.744	760.920
107.089	14.086	995.443	760.093
108.103	13.987	994.584	758.919
109.118	13.943	993.705	757.978
110.133	13.844	993.145	757.033
111.147	13.952	992.575	757.021
112.162	13.978	991.668	756.382
113.176	14.135	990.519	756.155
114.191	14.193	989.363	755.467
115.206	14.043	988.671	754.191
116.220	14.040	988.046	753.635
117.235	14.055	987.083	752.899
118.249	14.094	986.175	752.319
119.264	14.027	985.659	751.557
120.279	14.009	984.681	750.663
121.293	13.998	983.742	749.832
122.308	13.900	982.818	748.616
123.322	13.825	981.982	747.575
124.337	13.884	981.240	747.212
125.352	13.930	980.067	746.459
126.366	13.963	978.770	745.552
127.381	13.893	978.238	744.770
128.395	14.125	976.901	744.723
129.410	13.882	976.697	743.411
130.424	14.099	975.436	743.358
131.439	14.142	974.798	743.001
132.454	14.089	974.048	742.123
133.468	14.137	973.327	741.723
134.483	14.165	972.446	741.109
135.497	14.250	971.300	740.552
136.512	14.162	970.649	739.597
137.527	14.150	969.688	738.745
138.541	14.195	968.897	738.278
139.556	14.152	968.538	737.747
140.570	14.151	968.038	737.297
141.585	14.452	966.791	737.616
142.600	14.433	965.624	736.574
143.614	14.274	965.110	735.417
144.629	14.320	964.522	735.107
145.643	14.356	963.461	734.393
146.658	14.315	962.038	733.059
147.673	14.264	961.570	732.413
148.687	14.212	960.377	731.214
149.702	14.160	959.778	730.465
150.716	14.032	959.323	729.490
151.731	14.090	958.323	728.919
152.746	14.183	957.808	728.870
153.760	14.296	956.816	728.548
154.775	14.214	956.818	728.127
155.789	14.233	956.273	727.730
156.804	14.269	955.527	727.253
157.819	14.359	954.636	726.903
158.833	14.544	953.686	726.924
159.848	14.492	952.964	726.081
160.862	14.461	952.189	725.291
161.877	14.362	951.082	723.957
162.892	14.301	949.887	722.719
163.906	14.255	949.063	721.828
164.921	14.250	948.460	721.284
165.935	14.396	947.161	720.861
166.950	14.418	946.229	720.184
167.964	14.339	946.043	719.637
168.979	14.399	944.366	718.557
169.994	14.364	944.035	718.090
171.008	14.371	943.434	717.600
172.023	14.498	942.754	717.566
173.037	14.596	941.849	717.235
174.052	14.425	941.004	715.794
175.067	14.441	940.091	715.104
176.081	14.286	940.090	714.377
177.096	14.384	939.382	714.192
178.110	14.306	938.875	713.412
179.125	14.394	938.645	713.548
180.140	14.428	938.022	713.157
181.154	14.490	937.607	713.046
182.169	14.673	936.636	713.024
183.183	14.556	936.345	712.242
184.198	14.574	935.204	711.389
185.213	14.575	934.816	711.034
186.227	14.677	933.803	710.633
187.242	14.775	933.348	710.642
188.256	14.630	933.127	709.796
189.271	14.638	932.201	709.063
190.286	14.492	931.248	707.654
191.300	14.469	930.541	706.956
192.315	14.326	930.038	705.908
193.329	14.327	929.450	705.400
194.344	14.454	928.692	705.303
195.359	14.549	928.049	705.153
196.373	14.616	927.316	704.817
197.388	14.661	927.059	704.748
198.402	14.783	926.443	704.732
199.417	14.898	925.909	704.749
200.432	14.860	925.223	704.004
201.446	14.930	924.962	704.036
202.461	15.047	923.820	703.597
203.475	14.808	924.187	702.808
204.490	14.815	922.788	701.713
205.504	14.786	922.141	701.037
206.519	14.888	921.279	700.748
207.534	14.808	920.920	700.077
208.548	14.801	920.135	699.389
209.563	14.875	919.223	698.943
210.577	14.822	918.636	698.212
211.592	14.964	917.999	698.262
212.607	15.036	917.228	697.913
213.621	15.101	916.354	697.455
214.636	15.060	915.719	696.739
215.650	14.984	915.347	696.080
216.665	15.261	914.224	696.317
217.680	15.214	913.686	695.649
218.694	15.100	913.275	694.801
219.709	15.141	912.686	694.462
220.723	15.224	911.771	694.046
221.738	15.125	911.036	693.017
222.753	15.353	910.059	693.157
223.767	15.077	910.175	692.041
224.782	15.266	909.509	692.255
225.796	15.199	909.106	691.609
226.811	15.303	908.199	691.288
227.826	15.106	907.582	689.947
228.840	15.101	907.009	689.427
229.855	15.232	905.580	688.821
230.869	15.211	905.260	688.428
231.884	15.188	904.549	687.732
232.899	15.088	903.896	686.765
233.913	15.064	903.252	686.117
234.928	15.078	902.558	685.586
235.942	15.087	901.885	685.051
236.957	15.222	901.238	685.051
237.972	15.186	900.804	684.514
238.986	15.171	900.245	683.967
240.001	15.148	899.565	683.298
241.015	15.228	898.824	682.998
242.030	15.199	898.534	682.601
243.045	15.215	897.757	682.014
244.059	15.231	897.197	681.595
245.074	15.285	896.771	681.431
246.088	15.345	895.896	680.949
247.103	15.373	895.129	680.418
248.117	15.464	894.965	680.602
249.132	15.542	894.276	680.334
250.147	15.733	893.597	680.529
251.161	15.836	892.690	680.195
252.176	15.702	892.125	679.163
253.190	15.801	891.605	679.105
254.205	15.790	890.728	678.336
255.220	15.696	890.146	677.454
256.234	15.717	889.542	677.016
257.249	15.817	888.852	676.833
258.263	15.748	888.300	676.076
259.278	15.878	887.679	676.068
260.293	15.896	886.983	675.548
261.307	15.931	886.627	675.358
262.322	15.818	886.392	674.666
263.336	15.856	885.571	674.135
264.351	16.094	884.149	673.944
265.366	16.003	884.215	673.571
266.380	16.036	883.221	672.887
267.395	16.033	882.727	672.437
268.409	16.061	881.988	671.928
269.424	16.063	881.418	671.441
270.439	15.891	880.309	669.852
271.453	15.898	879.625	669.299
272.468	16.115	878.515	669.257
273.482	15.960	878.510	668.579
274.497	15.979	878.039	668.239
275.512	16.065	877.236	667.908
276.526	15.783	877.458	666.900
277.541	16.038	876.652	667.239
278.555	16.114	875.931	666.930
279.570	16.140	875.434	666.596
280.585	16.238	874.082	665.893
281.599	16.059	873.835	664.940
282.614	16.038	873.107	664.248
283.628	16.010	872.711	663.774
284.643	15.965	872.277	663.208
285.657	16.135	871.462	663.200
286.672	16.175	870.762	662.767
287.687	16.132	870.080	662.019
288.701	16.119	869.918	661.786
289.716	16.159	868.915	661.123
290.730	16.157	868.491	660.733
291.745	16.489	867.336	661.093
292.760	16.285	867.027	660.004
293.774	16.387	866.132	659.662
294.789	16.403	865.810	659.421
295.803	16.274	865.061	658.290
296.818	16.204	864.241	657.335
297.833	16.188	863.889	656.946
298.847	16.268	863.114	656.608
299.862	16.420	862.743	656.857
300.876	16.301	862.256	655.966
301.891	16.467	861.687	656.121
302.906	16.379	861.269	655.403
303.920	16.451	860.679	655.176
304.935	16.598	859.917	655.106
305.949	16.511	859.612	654.479
306.964	16.600	858.564	653.968
307.979	16.517	858.128	653.259
308.993	16.529	857.779	652.980
310.008	16.666	857.296	653.086
311.022	16.572	856.190	651.822
312.037	16.565	855.476	651.193
313.052	16.497	854.930	650.458
314.066	16.526	854.548	650.223
315.081	16.532	854.142	649.878
316.095	16.477	853.425	649.064
317.110	16.467	852.798	648.491
318.125	16.438	852.572	648.153
319.139	16.615	851.854	648.225
320.154	16.459	851.607	647.385
321.168	16.523	851.076	647.167
322.183	16.458	850.813	646.661
323.197	16.617	850.103	646.673
324.212	16.550	849.345	645.784
325.227	16.523	848.759	645.176
326.241	16.669	847.686	644.860
327.256	16.602	847.695	644.555
328.270	16.586	847.249	644.099
329.285	16.581	846.487	643.441
330.300	16.478	845.914	642.559
331.314	16.682	845.101	642.659
332.329	16.584	845.213	642.315
333.343	16.667	844.459	641.998
334.358	16.811	843.888	642.054
335.373	16.697	843.531	641.294
336.387	16.725	843.710	641.479
337.402	16.885	843.140	641.595
338.416	16.993	842.606	641.542
339.431	16.892	842.317	640.884
340.446	16.889	841.827	640.440
341.460	16.984	841.389	640.411
342.475	17.075	841.065	640.451
343.489	16.974	840.877	639.870
344.504	17.161	840.110	639.935
345.519	17.181	839.548	639.524
346.533	17.151	838.955	638.902
347.548	16.992	838.919	638.221
348.562	16.931	838.064	637.286
349.577	16.991	837.440	636.980
350.592	17.083	836.622	636.644
351.606	16.954	836.067	635.685
352.621	17.020	835.595	635.515
353.635	16.960	834.671	634.533
354.650	17.083	834.352	634.693
355.665	17.184	833.275	634.194
356.679	17.129	832.798	633.570
357.694	17.158	832.358	633.289
358.708	17.205	831.674	632.888
359.723	17.107	831.406	632.260
360.738	17.104	831.026	631.904
361.752	17.230	830.040	631.567
362.767	17.321	829.485	631.427
363.781	17.355	829.136	631.231
364.796	17.438	828.355	630.888
365.810	17.430	828.408	630.844
366.825	17.397	827.925	630.299
367.840	17.465	827.304	630.021
368.854	17.528	826.714	629.751
369.869	17.344	826.621	628.942
370.883	17.425	826.254	628.907
371.898	17.463	826.019	628.815
372.913	17.593	824.949	628.424
373.927	17.544	824.495	627.841
374.942	17.596	823.590	627.288
375.956	17.523	824.017	627.287
376.971	17.516	823.354	626.702
377.986	17.566	823.155	626.680
379.000	17.741	822.764	626.971
380.015	17.763	821.777	626.243
381.029	17.650	821.558	625.605
382.044	17.725	820.462	624.993
383.059	17.700	820.289	624.712
384.073	17.726	819.613	624.237
385.088	17.624	818.956	623.307
386.102	17.653	818.335	622.887
387.117	17.649	817.518	622.195
388.132	17.719	817.111	622.086
389.146	17.762	816.537	621.752
390.161	17.786	816.238	621.555
391.175	17.775	815.869	621.178
392.190	17.723	815.187	620.414
393.205	17.800	814.432	620.065
394.219	17.725	814.360	619.683
395.234	17.813	814.016	619.686
396.248	17.605	813.480	618.471
397.263	17.584	813.230	618.150
398.278	17.478	813.005	617.537
399.292	17.595	812.559	617.570
400.307	17.640	811.991	617.247
401.321	17.757	811.232	617.038
402.336	17.760	811.112	616.901
403.350	17.830	810.535	616.663
404.365	17.878	809.958	616.340
405.380	17.943	809.612	616.258
406.394	17.886	809.436	615.865
407.409	18.111	808.504	615.912
408.423	18.083	808.186	615.512
409.438	18.209	807.937	615.724
410.453	18.139	807.672	615.215
411.467	18.163	807.314	614.973
412.482	18.272	807.049	615.108
413.496	18.126	806.608	614.194
414.511	18.212	806.141	614.094
415.526	18.236	805.427	613.582
416.540	18.312	804.829	613.344
417.555	18.248	804.249	612.618
418.569	18.200	803.969	612.179
419.584	18.281	803.409	611.987
420.599	18.279	803.052	611.655
421.613	153.429	1370.758	1790.476
422.628	133.023	1453.476	1790.589
