DTS Sentinel unit serial number:	SN413079Multiplexer serial number:	ORYXHardware model number:	OX4-SRSoftware version number:	ORYX F/W v4.00 Oryx Data Collector v3.7.2.0data status	okinstallation	princeton_trtdifferential loss correction	single-endedforward channel	channel 1reverse channel	N/Adate	2019/09/17time	19:38:35forward acquisition time	60.00reverse acquisition time	0.00gamma	496.2192k internal	0.2314k external	0.2314temperature offset calibration	0.9973default loss term (dB/km)	0.3790temperature slope calibration	1.0000multiplexer offset coefficient	1.0000multiplexer slope coefficient	1.0000fibre end	0.00T internal ref (°C)	35.66T ext. ref 1 (°C)	0.25T ext. ref 2 (°C)	24.53length (m)	temperature (°C)	Stokes	anti-Stokes-747.200	-3.208	0.299	-0.211
-746.185	661.594	-0.187	0.488
-745.171	-84.239	-0.102	-0.033
-744.156	-35.250	0.406	0.224
-743.142	185.598	-0.066	0.099
-742.127	72.970	0.249	0.264
-741.112	-200.000	0.036	-0.187
-740.098	-200.000	0.041	0.358
-739.083	-151.867	-0.125	0.009
-738.069	-120.890	-0.202	0.035
-737.054	800.000	0.045	-0.156
-736.039	180.346	-0.068	-0.101
-735.025	14.864	-0.147	0.116
-734.010	-37.097	-0.286	-0.155
-732.996	-14.578	-0.139	-0.091
-731.981	800.000	0.103	-0.346
-730.966	157.933	-0.103	-0.145
-729.952	266.134	-0.099	-0.174
-728.937	128.799	-0.086	-0.111
-727.923	-186.070	-0.234	0.003
-726.908	128.230	-0.125	-0.161
-725.894	17.514	-0.070	-0.056
-724.879	-42.474	0.159	-0.082
-723.864	800.000	-0.039	-0.162
-722.850	9.610	-0.089	0.068
-721.835	800.000	0.015	-0.059
-720.821	800.000	-0.116	0.338
-719.806	572.652	-0.107	0.264
-718.791	227.726	-0.022	-0.035
-717.777	223.615	-0.051	0.084
-716.762	315.817	-0.130	0.249
-715.748	-35.976	-0.271	-0.148
-714.733	-157.544	-0.163	-0.010
-713.718	110.118	0.134	0.163
-712.704	-200.000	-0.002	0.148
-711.689	-22.962	0.302	0.184
-710.675	85.689	-0.131	-0.146
-709.660	800.000	0.008	-0.028
-708.645	405.548	-0.071	-0.153
-707.631	-15.727	0.155	0.100
-706.616	-200.000	0.022	-0.212
-705.602	-200.000	0.010	0.188
-704.587	155.201	-0.202	-0.282
-703.572	-90.467	-0.313	-0.092
-702.558	-4.140	0.138	-0.097
-701.543	387.875	0.099	-0.208
-700.529	282.244	0.031	0.057
-699.514	32.437	-0.209	-0.182
-698.499	-200.000	0.021	-0.214
-697.485	212.989	-0.059	-0.095
-696.470	-200.000	0.014	0.191
-695.456	-139.226	0.221	-0.024
-694.441	800.000	0.026	-0.093
-693.426	73.950	0.036	0.038
-692.412	-200.000	0.011	0.124
-691.397	-117.366	-0.223	0.041
-690.383	55.123	-0.116	0.113
-689.368	182.093	0.028	-0.041
-688.354	-39.098	-0.318	0.169
-687.339	-61.992	0.065	-0.027
-686.324	379.251	-0.100	-0.207
-685.310	-200.000	0.002	-0.131
-684.295	-108.831	-0.205	-0.044
-683.281	90.718	0.134	-0.152
-682.266	800.000	-0.074	-0.316
-681.251	201.900	-0.045	0.070
-680.237	800.000	0.107	0.398
-679.222	2.154	-0.153	-0.112
-678.208	-141.120	-0.428	0.044
-677.193	-200.000	-0.029	-0.166
-676.178	28.505	-0.035	-0.030
-675.164	800.000	0.082	-0.343
-674.149	543.046	-0.191	-0.460
-673.135	134.526	-0.053	0.069
-672.120	0.120	0.103	-0.075
-671.105	-159.114	-0.329	-0.019
-670.091	-111.492	-0.164	-0.034
-669.076	10.463	-0.106	0.081
-668.062	-65.835	-0.438	0.177
-667.047	800.000	0.058	-0.213
-666.032	40.695	-0.249	-0.227
-665.018	-112.867	-0.017	-0.003
-664.003	-135.159	-0.523	-0.064
-662.989	-200.000	0.008	0.057
-661.974	-154.203	0.595	-0.041
-660.959	604.444	0.133	0.334
-659.945	154.899	0.218	-0.303
-658.930	-200.000	0.001	0.147
-657.916	241.665	0.201	0.340
-656.901	-13.361	-0.235	0.154
-655.886	-200.000	-0.009	-0.080
-654.872	800.000	-0.067	0.220
-653.857	78.670	-0.411	0.444
-652.843	167.745	0.170	0.244
-651.828	-19.849	-0.149	-0.093
-650.814	-200.000	-0.020	-0.094
-649.799	800.000	-0.081	0.300
-648.784	-140.996	0.453	-0.047
-647.770	-16.489	-0.201	0.129
-646.755	800.000	0.018	-0.053
-645.741	-36.186	-0.011	0.006
-644.726	-84.277	0.095	0.031
-643.711	-48.359	-0.191	-0.093
-642.697	-200.000	-0.043	-0.246
-641.682	800.000	-0.124	0.351
-640.668	276.068	0.064	0.115
-639.653	86.000	0.099	0.110
-638.638	800.000	0.018	-0.079
-637.624	-200.000	-0.011	0.259
-636.609	-200.000	0.001	0.212
-635.595	329.518	-0.195	-0.379
-634.580	-125.510	0.268	0.041
-633.565	-121.808	0.513	0.085
-632.551	-200.000	0.001	-0.074
-631.536	-17.563	-0.101	-0.064
-630.522	800.000	0.067	0.244
-629.507	-200.000	-0.005	0.072
-628.492	218.595	-0.093	-0.150
-627.478	174.426	-0.260	-0.379
-626.463	200.886	0.056	0.087
-625.449	-200.000	0.030	0.375
-624.434	-200.000	-0.077	0.349
-623.419	-200.000	-0.018	0.085
-622.405	-68.972	-0.177	-0.069
-621.390	602.658	0.111	-0.279
-620.376	202.542	-0.067	-0.104
-619.361	-66.342	-0.099	0.040
-618.346	-104.862	0.066	-0.015
-617.332	67.906	-0.168	-0.174
-616.317	-200.000	0.010	0.176
-615.303	800.000	-0.061	0.244
-614.288	-86.719	-0.254	-0.078
-613.273	-24.932	-0.225	0.135
-612.259	800.000	0.048	0.142
-611.244	-118.150	0.242	-0.043
-610.230	-200.000	0.032	-0.288
-609.215	-68.598	0.180	-0.070
-608.201	-200.000	-0.004	-0.018
-607.186	5.666	0.131	-0.098
-606.171	-187.530	-0.326	-0.004
-605.157	504.155	0.018	-0.043
-604.142	-200.000	0.024	0.171
-603.128	77.965	0.146	-0.157
-602.113	-17.749	0.095	-0.060
-601.098	-200.000	-0.022	-0.288
-600.084	-48.353	0.165	0.080
-599.069	800.000	-0.042	0.123
-598.055	-62.331	0.251	-0.105
-597.040	29.625	-0.157	0.135
-596.025	390.388	-0.055	0.115
-595.011	26.125	0.317	0.267
-593.996	68.293	-0.312	-0.323
-592.982	30.322	-0.175	0.151
-591.967	-200.000	0.015	-0.204
-590.952	-130.170	-0.235	0.032
-589.938	442.320	-0.156	0.345
-588.923	800.000	0.107	-0.313
-587.909	-43.005	-0.392	-0.200
-586.894	-111.004	0.052	-0.011
-585.879	-112.154	-0.232	0.047
-584.865	-170.336	-0.211	0.007
-583.850	320.350	0.114	-0.218
-582.836	-77.175	-0.263	0.092
-581.821	416.389	-0.211	0.453
-580.806	161.317	-0.271	-0.382
-579.792	75.279	0.090	0.096
-578.777	-29.961	0.238	0.136
-577.763	-200.000	-0.042	0.279
-576.748	443.169	-0.096	0.211
-575.733	149.465	0.101	-0.138
-574.719	-62.410	-0.100	-0.042
-573.704	-146.856	0.289	-0.025
-572.690	-157.488	-0.129	0.008
-571.675	800.000	-0.053	-0.186
-570.661	74.937	-0.081	-0.086
-569.646	-131.582	0.270	0.036
-568.631	-142.738	0.169	-0.017
-567.617	-73.241	0.348	-0.128
-566.602	-136.462	-0.120	0.014
-565.588	-30.078	0.035	0.020
-564.573	800.000	0.063	0.237
-563.558	-14.003	-0.176	0.114
-562.544	-200.000	0.010	0.048
-561.529	-22.339	0.109	-0.066
-560.515	7.191	-0.373	-0.280
-559.500	511.892	0.036	-0.085
-558.485	800.000	0.078	0.267
-557.471	-118.208	-0.109	0.020
-556.456	-93.187	0.384	0.107
-555.442	-107.413	0.128	0.028
-554.427	596.481	0.076	-0.190
-553.412	-85.687	0.014	0.005
-552.398	-19.233	-0.308	0.192
-551.383	-45.598	-0.162	-0.080
-550.369	204.903	0.108	-0.168
-549.354	-200.000	0.056	-0.423
-548.339	-200.000	-0.004	-0.025
-547.325	450.914	0.068	-0.151
-546.310	98.703	-0.048	0.055
-545.296	-200.000	-0.020	0.127
-544.281	-105.389	-0.245	0.056
-543.266	273.013	-0.144	0.257
-542.252	458.579	-0.198	-0.442
-541.237	10.839	-0.164	-0.126
-540.223	349.207	-0.014	0.027
-539.208	-175.742	-0.316	0.009
-538.193	800.000	0.059	-0.226
-537.179	-200.000	0.005	0.181
-536.164	-97.019	-0.172	0.045
-535.150	424.888	-0.092	0.199
-534.135	131.060	-0.046	0.059
-533.121	9.926	0.228	0.174
-532.106	109.614	0.202	0.244
-531.091	800.000	-0.164	0.481
-530.077	-200.000	0.047	0.403
-529.062	-78.923	-0.239	0.082
-528.048	177.775	-0.161	0.236
-527.033	-52.232	0.167	0.078
-526.018	-22.604	0.159	0.097
-525.004	145.860	0.039	0.053
-523.989	40.378	-0.249	-0.226
-522.975	-167.079	0.321	0.013
-521.960	-111.683	-0.126	0.026
-520.945	-150.797	0.468	0.036
-519.931	-45.234	-0.179	0.089
-518.916	621.512	-0.057	-0.145
-517.902	11.648	-0.149	0.115
-516.887	-22.659	0.304	-0.184
-515.872	-15.511	-0.326	-0.209
-514.858	-88.537	0.200	-0.060
-513.843	-79.412	-0.100	0.034
-512.829	800.000	-0.042	0.152
-511.814	11.425	0.255	-0.196
-510.799	586.002	0.109	-0.270
-509.785	10.978	0.246	0.189
-508.770	146.789	-0.053	-0.071
-507.756	-165.423	-0.268	0.012
-506.741	-200.000	-0.022	0.207
-505.726	-81.202	-0.180	-0.060
-504.712	-200.000	0.025	0.156
-503.697	-200.000	0.013	0.110
-502.683	601.273	0.079	-0.196
-501.668	-144.679	0.049	0.005
-500.653	739.938	-0.090	-0.243
-499.639	14.274	0.177	0.138
-498.624	800.000	-0.029	-0.090
-497.610	-141.011	0.205	0.021
-496.595	19.584	-0.299	0.241
-495.581	-130.413	-0.128	0.017
-494.566	-127.350	-0.136	0.020
-493.551	800.000	-0.026	0.082
-492.537	240.475	0.012	-0.020
-491.522	161.316	0.139	0.195
-490.508	-81.441	0.311	0.103
-489.493	-112.312	0.155	0.031
-488.478	800.000	0.042	-0.123
-487.464	-135.770	0.277	-0.033
-486.449	-61.916	0.211	0.089
-485.435	-75.207	-0.016	-0.006
-484.420	242.480	0.122	-0.205
-483.405	165.030	-0.197	-0.280
-482.391	-75.100	-0.283	0.102
-481.376	-200.000	-0.024	-0.175
-480.362	103.457	-0.221	0.261
-479.347	-200.000	-0.008	0.125
-478.332	2.924	-0.147	-0.107
-477.318	800.000	-0.104	-0.316
-476.303	271.330	0.082	-0.145
-475.289	-200.000	-0.006	0.444
-474.274	-164.545	-0.308	0.014
-473.259	800.000	0.030	0.109
-472.245	-200.000	0.010	-0.138
-471.230	-132.243	-0.299	-0.039
-470.216	150.026	0.056	-0.076
-469.201	15.416	-0.055	0.043
-468.186	85.539	-0.139	-0.153
-467.172	-35.289	-0.024	-0.013
-466.157	-27.228	0.122	0.071
-465.143	82.839	0.061	0.067
-464.128	401.192	0.025	0.052
-463.113	-200.000	-0.023	0.101
-462.099	32.044	-0.048	-0.042
-461.084	-133.217	-0.377	0.048
-460.070	-200.000	0.068	-0.498
-459.055	-111.609	0.467	0.095
-458.040	-117.276	0.040	-0.007
-457.026	-28.116	-0.351	-0.203
-456.011	17.454	0.093	-0.074
-454.997	800.000	0.050	0.152
-453.982	-102.666	0.311	-0.074
-452.968	737.959	0.149	-0.401
-451.953	-31.259	-0.114	-0.064
-450.938	-28.999	0.142	0.081
-449.924	-74.471	-0.037	0.013
-448.909	-200.000	0.002	-0.194
-447.895	-51.465	0.139	-0.065
-446.880	-122.837	0.171	-0.028
-445.865	-116.690	0.277	0.051
-444.851	800.000	0.108	0.324
-443.836	-200.000	-0.021	0.139
-442.822	-82.001	-0.247	0.081
-441.807	-14.834	-0.119	-0.077
-440.792	104.355	0.112	0.132
-439.778	-34.541	-0.082	0.045
-438.763	-159.552	0.118	0.007
-437.749	89.165	0.237	0.265
-436.734	-29.373	-0.148	-0.085
-435.719	800.000	-0.032	0.098
-434.705	800.000	-0.065	-0.233
-433.690	-99.117	0.397	0.101
-432.676	-200.000	-0.010	-0.329
-431.661	215.236	-0.242	-0.384
-430.646	-200.000	0.049	-0.403
-429.632	-7.269	0.080	0.054
-428.617	-124.104	-0.312	-0.049
-427.603	-26.602	0.208	0.122
-426.588	245.875	-0.128	-0.216
-425.573	21.364	0.261	0.212
-424.559	-200.000	-0.046	0.268
-423.544	-31.344	-0.171	0.097
-422.530	-200.000	-0.017	-0.314
-421.515	-62.780	-0.221	0.091
-420.500	107.740	-0.110	-0.131
-419.486	112.214	-0.212	0.257
-418.471	110.395	-0.097	0.117
-417.457	5.548	-0.148	-0.109
-416.442	15.346	0.080	0.063
-415.428	-83.223	-0.379	-0.122
-414.413	174.800	0.306	-0.443
-413.398	-17.701	-0.126	0.079
-412.384	359.912	0.165	-0.330
-411.369	-200.000	0.014	-0.323
-410.355	800.000	0.042	0.158
-409.340	157.909	0.080	0.111
-408.325	86.062	0.298	0.328
-407.311	81.928	0.106	-0.115
-406.296	800.000	-0.028	-0.103
-405.282	17.998	-0.490	0.391
-404.267	-200.000	-0.001	0.101
-403.252	-88.171	-0.169	-0.051
-402.238	57.707	0.331	0.324
-401.223	-83.125	-0.193	-0.062
-400.209	-32.509	0.029	-0.016
-399.194	426.029	-0.025	-0.053
-398.179	17.199	0.168	0.133
-397.165	800.000	0.084	0.239
-396.150	-53.379	0.202	-0.093
-395.136	386.351	-0.080	0.164
-394.121	-200.000	0.038	-0.182
-393.106	-200.000	0.018	0.250
-392.092	424.013	0.080	0.173
-391.077	172.380	0.077	-0.110
-390.063	-46.830	-0.139	-0.068
-389.048	800.000	0.057	0.205
-388.033	33.994	-0.324	-0.282
-387.019	-140.261	-0.218	0.023
-386.004	78.150	0.250	0.267
-384.990	-84.208	-0.291	0.092
-383.975	800.000	-0.016	-0.044
-382.960	-173.751	0.237	0.007
-381.946	-200.000	-0.094	0.494
-380.931	800.000	-0.058	-0.245
-379.917	-7.666	0.313	-0.211
-378.902	-69.438	0.070	0.027
-377.888	-200.000	-0.020	-0.176
-376.873	-28.848	-0.144	-0.083
-375.858	-61.809	0.375	-0.157
-374.844	47.915	0.107	0.100
-373.829	188.893	0.167	0.250
-372.815	-9.981	0.242	0.161
-371.800	249.473	0.010	-0.016
-370.785	-22.767	-0.147	0.089
-369.771	-200.000	-0.252	0.001
-368.756	215.655	0.293	-0.465
-367.742	-60.163	0.263	-0.112
-366.727	-51.441	0.247	-0.115
-365.712	38.516	0.229	0.204
-364.698	-88.623	-0.202	0.060
-363.683	-7.435	-0.137	-0.093
-362.669	671.923	0.051	-0.131
-361.654	349.356	-0.054	0.107
-360.639	-125.518	-0.026	0.004
-359.625	-200.000	0.019	-0.113
-358.610	800.000	-0.025	-0.097
-357.596	-200.000	0.003	-0.104
-356.581	355.441	0.107	0.213
-355.566	-136.147	0.308	-0.036
-354.552	599.924	0.023	0.057
-353.537	297.685	-0.114	0.209
-352.523	-102.162	-0.376	0.090
-351.508	-130.293	-0.430	0.058
-350.493	-112.499	0.166	0.033
-349.479	-73.367	0.215	-0.078
-348.464	550.155	0.109	-0.260
-347.450	-36.451	-0.051	0.028
-346.435	-145.280	0.353	0.032
-345.420	-55.041	-0.333	-0.150
-344.406	-69.531	0.093	-0.036
-343.391	36.158	0.188	0.165
-342.377	137.738	0.205	-0.268
-341.362	-200.000	0.053	-0.403
-340.348	353.389	0.140	-0.277
-339.333	170.051	0.052	-0.074
-338.318	-106.284	0.184	-0.041
-337.304	-24.521	0.230	0.137
-336.289	-60.182	0.039	-0.017
-335.275	-200.000	-0.047	0.227
-334.260	22.208	-0.209	0.170
-333.245	35.083	0.172	0.150
-332.231	800.000	-0.085	-0.274
-331.216	-54.615	0.167	0.075
-330.202	-76.573	0.324	-0.114
-329.187	251.933	-0.182	0.308
-328.172	-14.156	-0.202	0.130
-327.158	800.000	0.043	0.148
-326.143	54.305	-0.361	0.347
-325.129	41.613	-0.093	0.084
-324.114	258.795	-0.095	0.163
-323.099	-157.780	-0.222	0.013
-322.085	42.326	0.043	-0.039
-321.070	173.059	-0.088	-0.127
-320.056	-150.185	0.214	0.017
-319.041	-106.072	0.319	-0.072
-318.026	350.747	-0.034	0.067
-317.012	157.723	0.093	0.129
-315.997	268.464	0.084	0.147
-314.983	800.000	-0.011	-0.048
-313.968	165.378	-0.046	0.065
-312.953	217.091	0.010	0.017
-311.939	-62.734	-0.149	0.062
-310.924	-200.000	-0.009	0.048
-309.910	63.177	0.118	0.118
-308.895	-14.542	0.239	-0.153
-307.880	181.008	-0.183	-0.269
-306.866	118.307	0.152	0.187
-305.851	-90.751	-0.368	0.106
-304.837	-80.071	0.357	-0.119
-303.822	-200.000	0.099	0.000
-302.807	76.265	0.139	-0.147
-301.793	-89.026	0.173	0.051
-300.778	800.000	0.058	-0.173
-299.764	70.293	0.274	-0.282
-298.749	-116.194	0.322	0.059
-297.735	-107.902	0.255	-0.055
-296.720	205.372	0.177	-0.274
-295.705	-5.351	-0.151	-0.104
-294.691	-35.840	0.253	0.136
-293.676	65.533	-0.127	-0.128
-292.662	30.241	0.094	0.080
-291.647	-93.502	0.159	0.044
-290.632	-25.493	0.156	-0.092
-289.618	-66.026	-0.314	-0.125
-288.603	240.087	0.159	-0.263
-287.589	-116.324	0.038	0.007
-286.574	800.000	-0.066	-0.268
-285.559	-200.000	-0.043	-0.266
-284.545	-81.939	-0.165	0.054
-283.530	-147.993	0.333	-0.028
-282.516	87.751	-0.025	0.028
-281.501	-200.000	-0.048	0.343
-280.486	24.498	-0.296	-0.244
-279.472	-7.563	-0.095	-0.064
-278.457	-200.000	0.036	-0.362
-277.443	-1.379	0.150	-0.105
-276.428	227.680	0.145	0.234
-275.413	126.129	-0.096	-0.121
-274.399	-172.164	0.226	-0.007
-273.384	-163.665	0.233	-0.011
-272.370	-60.693	-0.064	0.027
-271.355	152.464	0.078	-0.106
-270.340	-118.878	-0.247	0.043
-269.326	-11.046	-0.280	-0.184
-268.311	375.447	-0.145	-0.295
-267.297	104.316	0.195	-0.228
-266.282	146.423	0.102	0.137
-265.267	757.005	-0.055	-0.148
-264.253	-118.389	-0.163	-0.029
-263.238	-2.734	0.202	0.140
-262.224	377.503	0.132	-0.269
-261.209	-72.609	-0.103	-0.038
-260.195	43.472	-0.281	0.255
-259.180	-142.297	0.314	0.031
-258.165	-127.809	-0.140	0.020
-257.151	800.000	-0.010	-0.033
-256.136	-82.727	0.399	-0.128
-255.122	-200.000	0.032	0.540
-254.107	354.181	0.083	-0.164
-253.092	-200.000	-0.017	0.129
-252.078	28.521	0.181	0.152
-251.063	-151.677	-0.090	-0.007
-250.049	185.622	-0.163	-0.240
-249.034	61.015	-0.157	0.155
-248.019	373.972	-0.067	0.136
-247.005	-200.000	0.000	-0.188
-245.990	-111.422	-0.086	-0.017
-244.976	-200.000	0.029	0.279
-243.961	78.879	0.247	0.263
-242.946	800.000	-0.083	0.257
-241.932	-200.000	-0.000	0.432
-240.917	-200.000	-0.050	-0.379
-239.903	317.878	-0.048	0.090
-238.888	-108.728	-0.088	-0.019
-237.873	-148.821	-0.319	-0.026
-236.859	800.000	0.090	0.333
-235.844	24.294	0.492	0.404
-234.830	470.611	-0.090	0.201
-233.815	-200.000	0.054	-0.251
-232.800	61.027	-0.075	0.074
-231.786	439.338	-0.112	0.243
-230.771	285.711	0.051	0.091
-229.757	100.945	-0.123	0.142
-228.742	-114.654	0.242	0.046
-227.727	-111.915	0.176	-0.035
-226.713	-28.878	-0.231	0.132
-225.698	-146.814	-0.084	-0.007
-224.684	800.000	0.045	0.155
-223.669	-62.905	-0.188	-0.077
-222.655	800.000	-0.005	-0.017
-221.640	-21.750	0.311	-0.188
-220.625	155.195	-0.252	-0.345
-219.611	308.177	0.148	0.274
-218.596	157.792	-0.128	0.176
-217.582	800.000	0.033	0.104
-216.567	104.339	0.064	-0.075
-215.552	36.871	-0.196	-0.172
-214.538	-98.887	-0.353	-0.089
-213.523	0.214	0.050	-0.035
-212.509	-32.333	-0.064	-0.035
-211.494	-143.447	0.166	-0.016
-210.479	-200.000	0.031	0.158
-209.465	-49.606	0.086	-0.041
-208.450	445.304	0.139	0.303
-207.436	-200.000	-0.048	0.366
-206.421	-200.000	0.014	-0.201
-205.406	800.000	0.053	-0.179
-204.392	-82.197	-0.054	-0.018
-203.377	351.143	0.161	0.316
-202.363	146.781	0.170	0.227
-201.348	-125.098	-0.343	0.052
-200.333	117.454	0.180	-0.220
-199.319	-200.000	-0.013	0.175
-198.304	488.953	0.036	0.082
-197.290	60.294	-0.374	-0.367
-196.275	800.000	-0.027	0.103
-195.260	-94.520	-0.333	0.090
-194.246	-200.000	-0.009	0.255
-193.231	-98.277	0.150	-0.038
-192.217	-182.208	-0.332	0.006
-191.202	-200.000	0.017	-0.195
-190.187	-200.000	0.002	-0.554
-189.173	-200.000	-0.030	-0.342
-188.158	100.389	-0.205	-0.236
-187.144	-78.257	-0.143	-0.049
-186.129	800.000	-0.075	-0.212
-185.114	315.695	0.090	0.168
-184.100	113.980	-0.147	0.177
-183.085	-23.402	0.300	-0.179
-182.071	15.727	0.235	-0.183
-181.056	6.416	0.172	0.127
-180.042	80.134	0.065	-0.069
-179.027	-105.854	0.233	-0.052
-178.012	-28.520	0.086	0.049
-176.998	37.972	0.005	0.004
-175.983	69.817	0.153	0.157
-174.969	-133.429	-0.387	-0.048
-173.954	313.223	-0.069	0.129
-172.939	-200.000	0.035	-0.294
-171.925	506.198	0.172	0.395
-170.910	800.000	-0.024	-0.069
-169.896	-59.569	0.080	-0.034
-168.881	80.151	-0.148	-0.158
-167.866	800.000	0.097	-0.322
-166.852	800.000	-0.073	0.276
-165.837	-117.998	-0.208	0.037
-164.823	-200.000	-0.044	-0.276
-163.808	-67.718	-0.453	-0.176
-162.793	85.773	-0.192	0.209
-161.779	-200.000	-0.023	-0.344
-160.764	92.051	-0.238	0.266
-159.750	-108.026	-0.170	-0.037
-158.735	99.974	-0.110	-0.126
-157.720	800.000	-0.016	0.051
-156.706	-56.356	-0.239	-0.105
-155.691	-200.000	0.012	0.060
-154.677	-200.000	-0.016	-0.185
-153.662	-200.000	-0.004	-0.155
-152.647	-109.610	-0.131	0.027
-151.633	-200.000	-0.036	-0.226
-150.618	-92.363	-0.246	0.069
-149.604	-200.000	-0.042	0.239
-148.589	-22.575	-0.119	-0.071
-147.574	412.747	-0.195	-0.411
-146.560	110.337	0.148	-0.177
-145.545	-71.405	-0.227	-0.084
-144.531	-200.000	-0.016	0.243
-143.516	18.335	-0.030	0.024
-142.502	-95.338	-0.216	-0.058
-141.487	-129.347	-0.162	0.022
-140.472	27.393	0.103	0.086
-139.458	800.000	-0.030	-0.115
-138.443	-45.487	0.364	0.178
-137.429	-105.719	0.170	-0.038
-136.414	434.923	0.090	0.193
-135.399	-100.615	-0.069	-0.017
-134.385	47.696	-0.189	-0.175
-133.370	91.264	0.007	-0.007
-132.356	-176.925	0.135	-0.003
-131.341	-71.750	-0.194	-0.072
-130.326	-200.000	0.011	-0.287
-129.312	358.529	0.112	-0.222
-128.297	35.146	0.360	-0.312
-127.283	-53.723	-0.132	0.059
-126.268	-200.000	0.025	0.280
-125.253	164.977	-0.061	-0.085
-124.239	180.095	0.326	-0.473
-123.224	-116.416	-0.309	-0.057
-122.210	19.713	-0.137	0.109
-121.195	223.539	-0.038	-0.060
-120.180	-90.378	-0.049	-0.014
-119.166	269.545	0.176	0.305
-118.151	-94.479	0.190	0.051
-117.137	-69.175	0.102	0.039
-116.122	-200.000	0.012	0.153
-115.107	-100.521	0.046	0.011
-114.093	10.630	0.144	0.109
-113.078	84.763	-0.161	0.174
-112.064	92.815	-0.141	0.157
-111.049	-200.000	0.022	-0.151
-110.034	-200.000	0.002	0.092
-109.020	40.264	-0.168	-0.149
-108.005	-57.946	0.318	-0.137
-106.991	32.846	0.101	-0.087
-105.976	-109.922	-0.175	-0.036
-104.962	515.739	0.038	-0.088
-103.947	-101.576	-0.221	-0.053
-102.932	800.000	0.104	0.426
-101.918	-40.570	0.095	0.049
-100.903	7.210	0.304	0.224
-99.889	236.262	0.086	0.140
-98.874	-90.638	-0.129	0.037
-97.859	-80.017	0.064	0.021
-96.845	-110.713	-0.326	0.066
-95.830	-200.000	-0.005	0.051
-94.816	-93.032	-0.144	0.040
-93.801	63.879	-0.210	0.208
-92.786	-111.740	0.221	-0.044
-91.772	-200.000	0.028	0.236
-90.757	42.738	-0.036	0.032
-89.743	447.447	0.193	0.420
-88.728	17.004	0.131	0.103
-87.713	-45.961	-0.218	0.106
-86.699	-23.840	-0.479	0.284
-85.684	-200.000	-0.006	-0.302
-84.670	150.146	-0.047	0.063
-83.655	21.944	0.192	0.155
-82.640	53.828	0.259	-0.246
-81.626	7.099	0.179	0.132
-80.611	-200.000	-0.019	0.283
-79.597	69.692	-0.179	0.182
-78.582	-70.777	0.103	0.038
-77.567	25.963	-0.156	0.129
-76.553	-161.603	-0.222	0.011
-75.538	86.635	-0.227	-0.248
-74.524	73.897	0.188	-0.194
-73.509	800.000	-0.039	-0.134
-72.494	30.552	-0.238	-0.201
-71.480	496.350	-0.023	0.053
-70.465	55.667	-0.290	0.278
-69.451	43.291	-0.158	0.142
-68.436	76.558	-0.080	0.083
-67.422	60.339	-0.085	-0.083
-66.407	800.000	0.045	0.153
-65.392	141.203	-0.107	-0.140
-64.378	800.000	0.054	-0.149
-63.363	-130.939	-0.081	-0.011
-62.349	-136.615	-0.174	-0.020
-61.334	39.363	-1.004	-0.887
-60.319	160.519	0.416	0.573
-59.305	800.000	-0.231	-0.948
-58.290	84.021	0.963	1.038
-57.276	589.906	0.647	1.574
-56.261	-200.000	93.711	559.230
-55.246	551.402	1366.008	3235.408
-54.232	158.239	2552.096	3492.650
-53.217	114.286	2161.220	2595.772
-52.203	47.182	1621.965	1489.604
-51.188	39.350	1358.299	1199.905
-50.173	35.855	1315.944	1141.748
-49.159	57.875	1361.631	1314.524
-48.144	61.556	1378.762	1353.132
-47.130	39.351	1337.617	1181.452
-46.115	35.749	1319.817	1144.295
-45.100	35.616	1315.078	1139.355
-44.086	35.545	1312.956	1137.048
-43.071	35.460	1310.952	1134.768
-42.057	35.317	1308.593	1131.836
-41.042	35.515	1306.814	1131.421
-40.027	35.538	1305.442	1130.322
-39.013	35.509	1303.300	1128.253
-37.998	35.610	1301.751	1127.457
-36.984	35.667	1299.639	1125.917
-35.969	35.653	1298.317	1124.650
-34.954	35.677	1296.154	1122.871
-33.940	35.634	1295.397	1121.920
-32.925	35.628	1294.351	1120.934
-31.911	35.674	1292.678	1119.708
-30.896	35.698	1291.170	1118.499
-29.881	35.877	1289.621	1118.148
-28.867	35.766	1288.759	1116.712
-27.852	35.787	1287.251	1115.481
-26.838	35.836	1285.246	1113.987
-25.823	35.802	1284.671	1113.245
-24.809	35.836	1282.684	1111.675
-23.794	35.694	1281.635	1109.906
-22.779	35.776	1280.592	1109.432
-21.765	35.706	1279.288	1107.850
-20.750	35.761	1277.555	1106.627
-19.736	35.686	1276.888	1105.574
-18.721	35.608	1275.750	1104.092
-17.706	35.632	1274.385	1103.009
-16.692	35.617	1273.481	1102.097
-15.677	35.638	1271.895	1100.799
-14.663	35.631	1271.183	1100.097
-13.648	35.718	1269.992	1099.522
-12.633	35.623	1268.724	1097.840
-11.619	35.427	1268.849	1096.783
-10.604	35.599	1267.219	1096.314
-9.590	35.579	1266.390	1095.436
-8.575	35.589	1265.483	1094.668
-7.560	35.501	1264.856	1093.576
-6.546	35.570	1263.924	1093.120
-5.531	35.540	1262.511	1091.685
-4.517	35.599	1261.628	1091.215
-3.502	35.642	1261.137	1090.991
-2.487	35.480	1260.092	1089.126
-1.473	35.363	1255.594	1084.531
-0.458	32.762	1238.119	1054.870
0.556	25.231	1216.624	999.180
1.571	19.510	1219.207	969.190
2.586	17.765	1232.883	970.054
3.600	17.097	1222.802	958.267
4.615	12.828	1151.924	879.902
5.629	4.679	1076.745	781.593
6.644	0.689	1055.772	746.619
7.659	0.184	1053.308	742.317
8.673	0.122	1052.630	741.472
9.688	0.017	1051.567	740.137
10.702	0.341	1049.794	740.416
11.717	5.007	1055.304	767.237
12.731	12.802	1065.982	813.548
13.746	16.889	1070.207	836.916
14.761	16.929	1070.349	837.151
15.775	16.210	1067.839	831.574
16.790	15.048	1066.340	824.610
17.804	14.475	1064.449	820.255
18.819	14.065	1062.929	816.997
19.834	13.806	1062.302	815.173
20.848	13.517	1061.722	813.234
21.863	13.251	1060.451	810.885
22.877	13.188	1059.811	810.016
23.892	13.134	1059.262	809.261
24.907	13.193	1058.505	808.900
25.921	13.159	1057.665	808.017
26.936	13.111	1057.000	807.203
27.950	13.125	1056.166	806.565
28.965	13.186	1054.907	805.831
29.980	13.361	1053.222	805.321
30.994	13.340	1052.394	804.517
32.009	13.304	1051.449	803.550
33.023	13.329	1050.226	802.665
34.038	13.366	1049.411	802.150
35.053	13.337	1048.531	801.267
36.067	13.350	1047.580	800.531
37.082	13.412	1046.404	799.860
38.096	13.290	1045.937	798.844
39.111	13.438	1045.020	798.789
40.126	13.232	1044.314	797.183
41.140	13.116	1042.960	795.519
42.155	13.127	1042.087	794.836
43.169	13.122	1040.907	793.845
44.184	13.208	1039.573	793.168
45.199	13.131	1038.659	792.031
46.213	13.045	1038.241	791.229
47.228	13.035	1036.946	790.125
48.242	13.130	1035.703	789.561
49.257	13.218	1034.172	788.746
50.271	13.248	1033.831	788.556
51.286	13.330	1033.086	788.311
52.301	13.304	1031.712	787.071
53.315	13.241	1031.051	786.198
54.330	13.186	1030.054	785.107
55.344	13.220	1028.978	784.379
56.359	13.177	1028.472	783.716
57.374	13.111	1027.230	782.389
58.388	13.134	1026.558	781.916
59.403	13.030	1025.806	780.784
60.417	13.137	1024.811	780.461
61.432	13.102	1023.940	779.564
62.447	13.012	1023.500	778.736
63.461	12.893	1022.798	777.570
64.476	13.153	1021.498	777.741
65.490	13.003	1021.054	776.627
66.505	13.095	1019.841	776.069
67.520	13.183	1019.139	775.879
68.534	13.069	1018.980	775.152
69.549	13.164	1017.695	774.551
70.563	13.068	1017.133	773.605
71.578	13.089	1016.550	773.193
72.593	13.097	1015.512	772.371
73.607	13.005	1015.318	771.725
74.622	13.120	1014.165	771.317
75.636	13.150	1013.590	770.954
76.651	13.028	1012.782	769.701
77.666	13.028	1012.442	769.375
78.680	13.146	1011.660	769.261
79.695	13.063	1011.332	768.559
80.709	13.103	1010.697	768.195
81.724	13.179	1009.915	767.882
82.739	13.096	1009.384	767.029
83.753	13.285	1008.198	766.933
84.768	13.407	1007.135	766.625
85.782	13.343	1006.181	765.534
86.797	13.336	1005.687	765.055
87.812	13.119	1005.413	763.777
88.826	13.216	1003.776	762.915
89.841	13.259	1003.192	762.601
90.855	13.362	1002.267	762.305
91.870	13.389	1001.209	761.556
92.884	13.301	1000.969	760.901
93.899	13.477	999.650	760.640
94.914	13.363	999.280	759.770
95.928	13.337	998.122	758.702
96.943	13.236	997.956	758.045
97.957	13.302	996.385	757.088
98.972	13.482	995.679	757.308
99.987	13.313	995.049	755.989
101.001	13.335	993.921	755.165
102.016	13.303	992.822	754.117
103.030	13.319	992.476	753.863
104.045	13.294	991.982	753.305
105.060	13.287	990.827	752.330
106.074	13.140	989.707	750.744
107.089	13.216	988.648	750.218
108.103	13.066	988.212	749.141
109.118	13.219	986.924	748.792
110.133	13.117	986.137	747.669
111.147	13.110	985.375	746.993
112.162	13.239	984.322	746.710
113.176	13.321	983.871	746.673
114.191	13.322	982.875	745.855
115.206	13.237	982.473	745.101
116.220	13.323	981.255	744.499
117.235	13.312	980.070	743.483
118.249	13.269	979.528	742.813
119.264	13.200	979.107	742.120
120.279	13.217	978.671	741.801
121.293	13.188	977.115	740.425
122.308	13.114	976.401	739.489
123.322	13.204	975.301	738.988
124.337	13.166	974.266	737.969
125.352	13.218	973.107	737.260
126.366	13.242	972.137	736.567
127.381	13.217	971.080	735.588
128.395	13.231	970.035	734.794
129.410	13.179	969.691	734.238
130.424	13.362	968.531	734.105
131.439	13.408	967.538	733.494
132.454	13.352	966.786	732.609
133.468	13.393	965.971	732.110
134.483	13.189	965.620	730.876
135.497	13.293	964.612	730.510
136.512	13.362	963.244	729.713
137.527	13.327	962.695	729.076
138.541	13.271	962.253	728.431
139.556	13.461	961.139	728.361
140.570	13.398	960.818	727.774
141.585	13.397	959.912	727.020
142.600	13.552	958.800	726.792
143.614	13.340	957.953	725.159
144.629	13.604	957.188	725.669
145.643	13.459	956.277	724.281
146.658	13.493	955.394	723.697
147.673	13.423	954.530	722.675
148.687	13.389	953.808	721.915
149.702	13.390	952.814	721.103
150.716	13.384	952.144	720.505
151.731	13.311	951.574	719.691
152.746	13.430	950.897	719.633
153.760	13.492	950.229	719.334
154.775	13.471	949.800	718.855
155.789	13.498	949.104	718.381
156.804	13.539	948.074	717.717
157.819	13.448	947.402	716.749
158.833	13.625	947.003	717.149
159.848	13.553	946.107	716.098
160.862	13.675	944.675	715.477
161.877	13.623	943.870	714.582
162.892	13.524	942.998	713.430
163.906	13.517	942.193	712.727
164.921	13.438	941.323	711.666
165.935	13.593	940.415	711.585
166.950	13.557	939.452	710.636
167.964	13.557	938.672	709.986
168.979	13.619	937.724	709.472
169.994	13.537	937.151	708.622
171.008	13.611	936.316	708.243
172.023	13.698	935.402	707.864
173.037	13.721	934.700	707.364
174.052	13.707	934.455	707.060
175.067	13.523	933.987	705.858
176.081	13.694	933.180	705.912
177.096	13.725	932.345	705.353
178.110	13.531	932.091	704.273
179.125	13.709	931.172	704.269
180.140	13.616	930.781	703.521
181.154	13.668	930.368	703.364
182.169	13.791	929.557	703.211
183.183	13.751	929.132	702.658
184.198	13.847	927.999	702.145
185.213	13.870	927.298	701.649
186.227	13.874	926.823	701.242
187.242	13.917	926.382	701.030
188.256	13.781	925.724	699.897
189.271	13.817	924.820	699.305
190.286	13.785	923.941	698.440
191.300	13.751	923.534	697.928
192.315	13.676	922.715	696.936
193.329	13.736	922.320	696.827
194.344	13.830	921.656	696.657
195.359	13.670	921.137	695.533
196.373	13.870	920.153	695.563
197.388	13.951	920.107	695.810
198.402	14.001	919.477	695.481
199.417	14.096	918.684	695.215
200.432	14.117	918.144	694.832
201.446	14.122	917.392	694.223
202.461	14.113	916.884	693.739
203.475	14.058	916.721	693.328
204.490	14.058	915.871	692.622
205.504	14.058	914.876	691.808
206.519	14.147	914.062	691.503
207.534	14.089	913.588	690.841
208.548	14.130	912.724	690.294
209.563	13.995	912.330	689.375
210.577	14.157	911.737	689.539
211.592	14.276	910.605	689.113
212.607	14.250	909.825	688.355
213.621	14.150	909.680	687.771
214.636	14.122	908.872	686.983
215.650	14.247	907.766	686.605
216.665	14.244	907.707	686.487
217.680	14.320	906.684	685.965
218.694	14.236	906.123	685.135
219.709	14.254	905.496	684.671
220.723	14.331	904.581	684.236
221.738	14.223	904.483	683.659
222.753	14.352	903.476	683.367
223.767	14.275	903.553	683.049
224.782	14.447	902.190	682.661
225.796	14.479	901.902	682.513
226.811	14.466	901.483	682.082
227.826	14.480	900.603	681.414
228.840	14.515	899.610	680.745
229.855	14.455	898.741	679.785
230.869	14.509	897.977	679.365
231.884	14.465	897.534	678.789
232.899	14.374	897.037	677.983
233.913	14.396	896.190	677.375
234.928	14.379	895.837	676.977
235.942	14.476	895.270	676.884
236.957	14.405	894.295	675.798
237.972	14.454	893.984	675.704
238.986	14.396	893.668	675.169
240.001	14.453	892.459	674.425
241.015	14.556	891.923	674.378
242.030	14.444	891.594	673.619
243.045	14.563	890.740	673.393
244.059	14.547	890.240	672.889
245.074	14.611	889.463	672.501
246.088	14.524	888.810	671.598
247.103	14.545	888.671	671.519
248.117	14.554	887.831	670.862
249.132	14.812	887.217	671.372
250.147	14.816	886.589	670.855
251.161	14.798	885.867	670.178
252.176	14.765	885.171	669.460
253.190	14.861	884.526	669.297
254.205	14.908	883.983	669.012
255.220	14.780	883.289	667.917
256.234	14.804	882.869	667.636
257.249	14.948	882.096	667.567
258.263	14.879	881.242	666.588
259.278	14.887	880.434	665.951
260.293	15.004	880.335	666.282
261.307	15.001	879.528	665.601
262.322	15.008	878.914	665.104
263.336	15.067	878.253	664.781
264.351	15.194	877.339	664.533
265.366	15.171	876.500	663.749
266.380	15.235	875.678	663.319
267.395	15.027	875.659	662.424
268.409	15.147	875.072	662.394
269.424	15.073	874.049	661.270
270.439	15.227	873.206	661.183
271.453	15.090	872.549	660.084
272.468	15.119	872.239	659.906
273.482	15.085	871.584	659.220
274.497	15.117	871.299	659.072
275.512	15.221	870.569	658.870
276.526	15.189	870.158	658.373
277.541	15.269	869.528	658.152
278.555	15.291	869.188	657.923
279.570	15.403	868.354	657.672
280.585	15.383	867.340	656.769
281.599	15.260	866.763	655.794
282.614	15.381	865.640	655.360
283.628	15.276	865.412	654.719
284.643	15.346	864.783	654.456
285.657	15.329	864.249	653.930
286.672	15.325	863.713	653.449
287.687	15.534	863.079	653.727
288.701	15.392	862.671	652.807
289.716	15.467	861.757	652.348
290.730	15.489	861.199	651.953
291.745	15.556	860.703	651.781
292.760	15.596	859.689	651.108
293.774	15.594	859.126	650.620
294.789	15.567	858.692	650.126
295.803	15.618	857.935	649.693
296.818	15.356	857.627	648.391
297.833	15.494	856.745	648.200
298.847	15.442	856.017	647.391
299.862	15.586	855.720	647.665
300.876	15.687	854.873	647.355
301.891	15.605	854.402	646.626
302.906	15.812	853.993	647.054
303.920	15.784	853.337	646.391
304.935	15.722	853.097	645.917
305.949	15.816	852.274	645.595
306.964	15.905	851.341	645.173
307.979	15.782	851.183	644.523
308.993	15.905	850.698	644.570
310.008	15.815	849.682	643.401
311.022	15.736	849.423	642.845
312.037	15.676	849.091	642.308
313.052	15.893	848.083	642.315
314.066	15.655	847.761	641.110
315.081	15.733	847.161	640.894
316.095	15.852	846.251	640.603
317.110	15.758	845.905	639.929
318.125	15.779	845.020	639.279
319.139	15.780	844.779	639.045
320.154	15.705	844.922	638.814
321.168	15.938	843.824	638.809
322.183	15.943	843.135	638.250
323.197	15.895	842.960	637.880
324.212	15.918	842.314	637.423
325.227	15.918	841.846	637.009
326.241	15.927	841.401	636.651
327.256	15.934	840.902	636.245
328.270	15.861	840.224	635.398
329.285	15.942	839.272	634.927
330.300	15.899	838.819	634.367
331.314	16.002	837.922	634.022
332.329	15.910	837.760	633.494
333.343	16.097	837.338	633.826
334.358	16.143	837.011	633.693
335.373	16.051	836.818	633.144
336.387	16.154	836.250	633.045
337.402	16.098	835.954	632.556
338.416	16.246	835.619	632.802
339.431	16.176	835.537	632.422
340.446	16.188	835.162	632.126
341.460	16.299	834.644	632.093
342.475	16.214	834.299	631.459
343.489	16.247	833.470	630.896
344.504	16.312	833.034	630.756
345.519	16.254	832.721	630.247
346.533	16.311	832.097	629.930
347.548	16.411	831.768	629.999
348.562	16.228	831.003	628.681
349.577	16.424	829.991	628.589
350.592	16.431	829.335	628.064
351.606	16.364	829.064	627.554
352.621	16.245	828.652	626.744
353.635	16.129	828.049	625.801
354.650	16.338	827.486	626.097
355.665	16.304	827.022	625.563
356.679	16.343	826.368	625.157
357.694	16.434	825.795	625.005
358.708	16.347	824.852	623.917
359.723	16.401	824.531	623.818
360.738	16.495	823.632	623.428
361.752	16.539	822.873	622.961
362.767	16.614	822.197	622.671
363.781	16.750	821.818	622.827
364.796	16.752	821.366	622.438
365.810	16.605	821.402	621.870
366.825	16.762	820.488	621.699
367.840	16.624	820.303	620.997
368.854	16.490	820.260	620.417
369.869	16.547	819.821	620.241
370.883	16.664	818.998	619.989
371.898	16.689	818.702	619.803
372.913	16.791	817.930	619.537
373.927	16.756	817.318	618.889
374.942	16.951	816.982	619.292
375.956	16.793	816.791	618.519
376.971	16.810	816.442	618.259
377.986	16.911	816.155	618.358
379.000	16.859	815.514	617.628
380.015	17.003	815.191	617.853
381.029	16.983	814.515	617.214
382.044	16.908	814.026	616.515
383.059	16.961	813.263	616.076
384.073	16.923	812.912	615.615
385.088	16.730	812.498	614.549
386.102	16.986	811.731	614.841
387.117	16.975	810.845	614.076
388.132	17.026	810.079	613.626
389.146	16.827	810.021	612.807
390.161	16.961	809.682	612.982
391.175	17.078	809.014	612.844
392.190	17.040	808.844	612.523
393.205	16.980	808.339	611.873
394.219	16.973	807.660	611.278
395.234	17.032	807.337	611.191
396.248	16.942	807.113	610.644
397.263	16.985	806.911	610.593
398.278	17.007	806.304	610.159
399.292	17.227	805.320	610.149
400.307	17.174	805.073	609.719
401.321	17.167	804.728	609.377
402.336	16.970	804.398	608.367
403.350	17.137	803.840	608.491
404.365	17.150	803.565	608.273
405.380	17.252	802.697	607.930
406.394	17.253	802.686	607.871
407.409	17.348	802.076	607.694
408.423	17.285	801.707	607.134
409.438	17.344	801.324	607.000
410.453	17.452	800.884	607.001
411.467	17.293	800.487	606.080
412.482	17.277	800.329	605.847
413.496	17.431	799.817	605.955
414.511	17.447	799.319	605.583
415.526	17.378	798.858	604.933
416.540	17.433	798.194	604.573
417.555	17.551	797.822	604.656
418.569	17.401	797.721	603.994
419.584	17.656	796.900	604.223
420.599	17.586	796.610	603.703
421.613	105.106	1284.460	1444.659
422.628	90.233	1355.544	1444.776
