DTS Sentinel unit serial number:	SN413079Multiplexer serial number:	ORYXHardware model number:	OX4-SRSoftware version number:	ORYX F/W v4.00 Oryx Data Collector v3.7.2.0data status	okinstallation	princeton_trtdifferential loss correction	single-endedforward channel	channel 1reverse channel	N/Adate	2019/09/19time	00:10:35forward acquisition time	60.00reverse acquisition time	0.00gamma	496.2192k internal	0.2342k external	0.2342temperature offset calibration	1.0019default loss term (dB/km)	0.3790temperature slope calibration	1.0000multiplexer offset coefficient	1.0000multiplexer slope coefficient	1.0000fibre end	0.00T internal ref (°C)	22.87T ext. ref 1 (°C)	0.75T ext. ref 2 (°C)	15.81length (m)	temperature (°C)	Stokes	anti-Stokes-747.200	48.340	0.084	0.078
-746.185	800.000	-0.202	0.579
-745.171	-200.000	-0.068	0.567
-744.156	-63.234	-0.207	-0.085
-743.142	331.049	-0.160	0.308
-742.127	230.280	-0.204	0.335
-741.112	94.720	-0.072	-0.082
-740.098	56.347	0.203	0.198
-739.083	800.000	-0.061	0.170
-738.069	251.189	-0.134	0.228
-737.054	800.000	-0.051	-0.190
-736.039	-99.421	-0.450	-0.114
-735.025	-200.000	-0.026	0.154
-734.010	-23.084	-0.116	-0.070
-732.996	-200.000	-0.041	0.315
-731.981	112.759	0.061	-0.074
-730.966	-81.499	-0.335	0.110
-729.952	103.670	-0.165	0.194
-728.937	-178.099	0.550	0.013
-727.923	-200.000	-0.022	0.105
-726.908	-43.713	-0.221	-0.111
-725.894	-91.483	-0.429	-0.123
-724.879	139.660	-0.255	0.336
-723.864	-35.216	0.048	0.026
-722.850	-163.681	-0.343	0.016
-721.835	409.055	-0.099	-0.210
-720.821	-144.012	0.049	-0.005
-719.806	685.222	-0.038	-0.099
-718.791	800.000	-0.073	0.256
-717.777	-200.000	0.016	-0.091
-716.762	-200.000	-0.071	-0.376
-715.748	-53.243	-0.260	0.119
-714.733	-200.000	-0.023	-0.182
-713.718	-118.878	-0.133	-0.023
-712.704	75.907	-0.167	-0.176
-711.689	800.000	0.013	0.051
-710.675	-40.476	-0.116	0.060
-709.660	6.105	0.086	0.064
-708.645	92.600	-0.166	0.187
-707.631	169.124	0.218	0.311
-706.616	-133.367	-0.440	-0.055
-705.602	-43.706	-0.365	-0.184
-704.587	6.278	0.105	0.078
-703.572	26.450	-0.202	-0.169
-702.558	79.689	0.144	-0.154
-701.543	800.000	0.116	-0.377
-700.529	423.083	-0.037	-0.079
-699.514	-63.771	-0.078	0.032
-698.499	-106.537	-0.150	-0.033
-697.485	-119.065	0.113	0.020
-696.470	-57.018	-0.257	-0.113
-695.456	61.722	-0.182	0.181
-694.441	-18.715	-0.187	-0.117
-693.426	-60.488	-0.144	0.061
-692.412	-200.000	-0.037	-0.381
-691.397	-172.468	-0.349	0.011
-690.383	-61.557	-0.207	-0.087
-689.368	-145.632	0.286	0.026
-688.354	800.000	0.062	-0.219
-687.339	-200.000	-0.019	-0.365
-686.324	73.635	-0.234	-0.245
-685.310	-200.000	-0.036	-0.315
-684.295	-200.000	0.025	0.358
-683.281	50.509	0.039	0.037
-682.266	-39.197	0.346	0.182
-681.251	-14.104	-0.268	0.173
-680.237	-81.679	-0.179	-0.059
-679.222	44.446	-0.238	-0.218
-678.208	-200.000	-0.044	0.255
-677.193	9.393	-0.122	0.092
-676.178	800.000	-0.046	0.177
-675.164	-31.885	-0.225	0.126
-674.149	-154.919	-0.086	-0.006
-673.135	-15.708	-0.168	0.107
-672.120	-132.011	-0.096	-0.013
-671.105	-24.249	-0.219	0.131
-670.091	-39.271	0.081	-0.042
-669.076	-200.000	0.004	-0.164
-668.062	800.000	0.048	-0.160
-667.047	26.633	0.078	0.065
-666.032	-200.000	0.007	0.122
-665.018	800.000	0.069	0.202
-664.003	127.866	-0.230	-0.292
-662.989	-200.000	-0.006	-0.369
-661.974	105.329	-0.229	-0.270
-660.959	-161.738	-0.147	0.007
-659.945	38.535	-0.261	-0.233
-658.930	-85.065	0.198	-0.062
-657.916	-200.000	-0.029	-0.408
-656.901	94.380	0.231	-0.262
-655.886	-10.590	-0.246	0.163
-654.872	-200.000	0.024	-0.235
-653.857	-23.737	0.135	-0.081
-652.843	82.833	-0.112	0.122
-651.828	165.640	0.076	-0.107
-650.814	-200.000	-0.043	0.302
-649.799	248.735	-0.257	0.435
-648.784	597.807	-0.100	0.247
-647.770	-200.000	-0.012	-0.112
-646.755	-100.665	-0.246	0.061
-645.741	22.522	-0.177	0.145
-644.726	-200.000	0.022	0.165
-643.711	-112.150	-0.394	-0.079
-642.697	-200.000	-0.006	0.274
-641.682	21.648	-0.270	-0.220
-640.668	357.409	0.094	-0.187
-639.653	173.904	-0.172	-0.247
-638.638	-4.776	-0.274	0.189
-637.624	172.905	0.181	0.260
-636.609	158.213	-0.171	0.236
-635.595	-158.223	-0.101	0.006
-634.580	-142.045	0.156	-0.016
-633.565	800.000	0.047	-0.149
-632.551	431.939	-0.159	0.344
-631.536	800.000	-0.096	0.348
-630.522	341.949	-0.014	-0.027
-629.507	58.674	-0.111	0.109
-628.492	-135.562	-0.375	0.044
-627.478	-110.380	0.351	-0.073
-626.463	43.013	0.229	0.208
-625.449	500.131	-0.066	0.152
-624.434	-22.890	0.235	0.141
-623.419	-105.061	-0.079	-0.018
-622.405	263.628	0.120	0.208
-621.390	272.195	0.084	-0.147
-620.376	258.646	-0.109	-0.187
-619.361	743.429	-0.053	-0.141
-618.346	-200.000	0.000	-0.073
-617.332	700.177	0.047	0.123
-616.317	-32.284	-0.201	-0.112
-615.303	-200.000	-0.013	0.120
-614.288	800.000	-0.058	0.169
-613.273	-200.000	0.072	0.409
-612.259	18.552	0.346	-0.276
-611.244	46.107	-0.027	-0.025
-610.230	-194.223	0.064	-0.001
-609.215	112.157	0.054	-0.065
-608.201	95.128	-0.076	-0.087
-607.186	800.000	0.020	-0.085
-606.171	-200.000	0.034	0.248
-605.157	-108.832	-0.245	0.052
-604.142	-200.000	-0.002	0.313
-603.128	-27.710	-0.471	-0.272
-602.113	-77.760	-0.213	-0.073
-601.098	800.000	0.079	-0.218
-600.084	-200.000	0.006	-0.330
-599.069	385.041	0.104	-0.214
-598.055	285.580	0.038	0.068
-597.040	122.656	0.158	-0.197
-596.025	-77.350	-0.280	-0.097
-595.011	800.000	0.061	-0.218
-593.996	-200.000	-0.075	-0.333
-592.982	-200.000	0.032	-0.251
-591.967	134.556	-0.088	0.114
-590.952	78.888	0.088	0.094
-589.938	800.000	-0.041	0.157
-588.923	362.388	0.124	-0.248
-587.909	-25.625	-0.050	0.029
-586.894	800.000	0.029	-0.121
-585.879	134.488	-0.120	0.155
-584.865	-46.557	0.077	0.038
-583.850	-200.000	-0.007	-0.384
-582.836	139.700	0.062	-0.081
-581.821	-200.000	-0.074	-0.339
-580.806	-198.349	0.202	0.001
-579.792	120.833	0.176	-0.218
-578.777	717.834	-0.048	-0.127
-577.763	81.013	0.215	0.231
-576.748	-63.294	-0.282	-0.116
-575.733	-102.792	-0.128	0.030
-574.719	9.068	-0.135	-0.101
-573.704	-120.518	-0.122	0.021
-572.690	-144.164	0.166	-0.015
-571.675	-177.514	0.229	-0.006
-570.661	-19.454	-0.322	-0.198
-569.646	10.039	-0.164	-0.124
-568.631	-67.891	-0.128	0.050
-567.617	-133.376	-0.081	0.010
-566.602	357.944	-0.068	0.134
-565.588	-200.000	0.027	-0.185
-564.573	800.000	-0.108	-0.307
-563.558	10.492	0.073	-0.055
-562.544	426.902	0.094	-0.201
-561.529	-200.000	0.022	0.124
-560.515	364.182	-0.145	0.290
-559.500	800.000	0.082	-0.300
-558.485	-200.000	0.028	-0.290
-557.471	-63.084	0.143	-0.059
-556.456	421.946	-0.062	-0.132
-555.442	-200.000	0.028	-0.182
-554.427	143.338	-0.112	-0.148
-553.412	457.632	-0.082	-0.181
-552.398	-29.864	0.265	0.150
-551.383	-65.556	0.132	0.053
-550.369	51.084	0.155	-0.146
-549.354	-112.420	-0.272	-0.054
-548.339	84.142	0.153	0.167
-547.325	-17.907	-0.195	-0.122
-546.310	-168.716	0.149	0.006
-545.296	264.296	-0.060	-0.104
-544.281	800.000	-0.079	0.235
-543.266	-157.270	0.273	0.016
-542.252	800.000	-0.068	0.290
-541.237	800.000	0.044	-0.125
-540.223	-198.096	-0.274	0.002
-539.208	29.813	0.075	-0.063
-538.193	-200.000	0.013	0.139
-537.179	224.715	0.158	0.255
-536.164	-100.169	0.390	0.096
-535.150	40.207	0.154	0.138
-534.135	-176.399	-0.241	0.006
-533.121	-46.526	-0.106	0.052
-532.106	36.289	-0.225	0.197
-531.091	61.613	0.044	0.044
-530.077	179.431	0.052	-0.075
-529.062	-135.486	0.233	0.028
-528.048	-25.876	-0.196	-0.115
-527.033	-112.947	-0.212	-0.042
-526.018	114.690	0.318	0.385
-525.004	296.612	0.117	-0.213
-523.989	-157.696	-0.595	-0.035
-522.975	483.159	-0.082	-0.185
-521.960	196.820	-0.080	-0.121
-520.945	580.822	0.120	0.292
-519.931	800.000	0.022	0.081
-518.916	311.248	-0.069	0.129
-517.902	77.915	-0.074	-0.078
-516.887	-128.758	-0.195	-0.027
-515.872	800.000	-0.042	-0.166
-514.858	153.940	-0.230	-0.313
-513.843	-119.843	-0.138	0.024
-512.829	-158.801	-0.216	0.012
-511.814	-200.000	-0.053	-0.335
-510.799	-135.946	0.448	0.052
-509.785	800.000	0.099	0.392
-508.770	177.402	-0.099	-0.143
-507.756	-98.091	-0.317	-0.081
-506.741	-13.055	-0.064	0.042
-505.726	126.108	-0.064	0.081
-504.712	138.583	0.114	0.149
-503.697	29.300	0.103	0.087
-502.683	-198.079	0.216	-0.001
-501.668	-136.184	0.186	0.022
-500.653	-200.000	-0.040	0.186
-499.639	-138.893	0.091	0.010
-498.624	800.000	0.136	-0.389
-497.610	-106.801	0.027	0.006
-496.595	-100.938	0.198	-0.048
-495.581	-14.948	0.330	-0.210
-494.566	67.632	0.151	-0.153
-493.551	800.000	-0.118	-0.343
-492.537	-30.368	-0.255	0.143
-491.522	-67.825	-0.131	-0.051
-490.508	55.558	0.140	-0.135
-489.493	-118.300	0.187	0.033
-488.478	49.669	-0.238	-0.223
-487.464	100.850	-0.153	-0.177
-486.449	800.000	-0.126	0.371
-485.435	-52.583	0.301	0.138
-484.420	394.581	-0.074	0.154
-483.405	-94.639	0.175	0.047
-482.391	261.578	-0.067	-0.115
-481.376	-200.000	-0.192	0.000
-480.362	95.210	-0.147	-0.166
-479.347	-95.624	0.219	-0.058
-478.332	-200.000	-0.024	-0.123
-477.318	-200.000	0.011	0.123
-476.303	-200.000	0.003	-0.084
-475.289	291.422	-0.089	-0.161
-474.274	-85.951	0.034	0.010
-473.259	-33.242	0.230	0.126
-472.245	346.975	0.022	-0.043
-471.230	-200.000	-0.002	-0.309
-470.216	-41.317	0.195	-0.100
-469.201	-90.265	-0.191	0.055
-468.186	93.606	-0.217	0.243
-467.172	-43.184	0.226	-0.113
-466.157	294.478	0.132	0.239
-465.143	219.378	0.086	0.136
-464.128	69.097	0.125	0.128
-463.113	-98.764	0.397	-0.100
-462.099	191.888	-0.048	-0.072
-461.084	800.000	0.068	0.223
-460.070	453.404	0.030	0.065
-459.055	-200.000	0.030	0.200
-458.040	-123.131	-0.206	-0.033
-457.026	-115.923	0.064	-0.012
-456.011	-63.761	0.236	-0.096
-454.997	800.000	0.072	-0.215
-453.982	213.608	0.084	0.131
-452.968	-68.131	0.147	0.057
-451.953	-73.562	0.168	0.061
-450.938	-131.152	-0.059	-0.008
-449.924	-34.173	0.213	-0.116
-448.909	-59.700	-0.298	-0.127
-447.895	-200.000	-0.003	-0.258
-446.880	-156.435	-0.301	-0.019
-445.865	-200.000	0.022	-0.173
-444.851	270.741	0.192	-0.334
-443.836	-115.086	-0.308	0.058
-442.822	673.719	-0.042	-0.107
-441.807	-200.000	-0.016	0.367
-440.792	-110.938	0.519	0.106
-439.778	-67.884	-0.184	0.071
-438.763	72.059	0.056	-0.058
-437.749	39.077	-0.078	0.069
-436.734	0.383	-0.259	0.183
-435.719	107.414	-0.097	0.114
-434.705	-105.081	0.131	-0.030
-433.690	800.000	-0.032	-0.136
-432.676	50.812	0.147	0.138
-431.661	800.000	-0.071	0.234
-430.646	111.736	-0.095	0.114
-429.632	-20.078	0.421	-0.257
-428.617	-73.090	0.117	-0.042
-427.603	-200.000	0.167	-0.000
-426.588	-103.997	0.290	-0.067
-425.573	-22.440	0.062	-0.037
-424.559	10.907	0.052	0.039
-423.544	-200.000	0.002	0.063
-422.530	28.361	0.217	0.182
-421.515	24.085	-0.207	0.169
-420.500	347.495	0.096	-0.187
-419.486	-200.000	-0.033	-0.241
-418.471	505.124	0.036	-0.083
-417.457	-200.000	-0.009	0.088
-416.442	-45.599	0.236	-0.116
-415.428	-48.884	-0.201	0.095
-414.413	-130.445	-0.162	-0.022
-413.398	-163.381	0.140	-0.007
-412.384	-200.000	-0.019	-0.167
-411.369	33.260	-0.091	-0.078
-410.355	388.171	-0.058	-0.119
-409.340	800.000	-0.125	-0.539
-408.325	-154.513	-0.715	-0.047
-407.311	800.000	-0.098	-0.282
-406.296	-21.428	0.060	0.036
-405.282	-97.980	-0.401	0.102
-404.267	-136.920	-0.083	-0.009
-403.252	109.967	-0.072	-0.086
-402.238	12.703	-0.326	-0.248
-401.223	800.000	0.102	0.300
-400.209	-122.300	-0.242	0.039
-399.194	9.465	0.193	-0.144
-398.179	-61.429	-0.352	-0.146
-397.165	485.848	-0.081	-0.182
-396.150	-200.000	-0.003	0.197
-395.136	-176.540	0.289	-0.007
-394.121	194.629	-0.070	-0.105
-393.106	474.706	-0.034	-0.077
-392.092	-79.466	-0.406	-0.136
-391.077	5.613	0.122	-0.089
-390.063	-159.461	-0.094	0.005
-389.048	401.452	-0.190	-0.395
-388.033	-200.000	-0.063	0.392
-387.019	-23.704	0.083	-0.049
-386.004	-200.000	0.003	0.082
-384.990	37.297	-0.223	0.195
-383.975	-45.211	0.161	0.079
-382.960	176.969	0.124	0.178
-381.946	-8.453	-0.351	0.233
-380.931	-200.000	-0.017	-0.133
-379.917	-200.000	-0.001	-0.095
-378.902	41.107	0.073	-0.066
-377.888	57.862	0.051	-0.049
-376.873	58.147	0.358	0.347
-375.858	-126.285	-0.303	-0.045
-374.844	-38.687	-0.214	-0.111
-373.829	268.033	0.102	-0.177
-372.815	-200.000	-0.027	-0.148
-371.800	27.352	-0.106	-0.088
-370.785	-83.985	0.340	0.107
-369.771	12.511	-0.071	0.054
-368.756	-48.404	-0.055	0.026
-367.742	357.214	0.016	-0.032
-366.727	58.697	-0.281	0.272
-365.712	124.657	0.064	-0.079
-364.698	-38.738	-0.161	0.084
-363.683	-200.000	0.010	0.151
-362.669	-100.065	-0.128	-0.032
-361.654	-148.365	-0.141	-0.011
-360.639	333.368	0.007	0.013
-359.625	-200.000	-0.034	-0.207
-358.610	-138.352	0.055	-0.006
-357.596	-200.000	-0.003	-0.235
-356.581	-143.134	-0.229	0.022
-355.566	-7.023	-0.096	-0.064
-354.552	-38.664	0.424	0.221
-353.537	314.703	0.180	0.335
-352.523	800.000	0.038	0.116
-351.508	-59.271	0.028	-0.012
-350.493	-81.760	-0.008	0.003
-349.479	800.000	0.108	0.462
-348.464	-120.832	0.123	0.020
-347.450	-15.950	-0.142	-0.089
-346.435	-200.000	-0.004	-0.129
-345.420	566.065	-0.016	0.038
-344.406	-124.615	0.156	0.024
-343.391	680.549	0.026	0.066
-342.377	179.091	0.217	0.313
-341.362	-26.024	0.108	-0.063
-340.348	-0.628	0.136	-0.095
-339.333	800.000	-0.032	-0.118
-338.318	34.331	0.097	-0.084
-337.304	-57.776	-0.008	0.004
-336.289	3.902	0.059	-0.042
-335.275	800.000	-0.085	-0.237
-334.260	800.000	-0.108	-0.415
-333.245	227.271	0.057	-0.091
-332.231	-114.085	0.269	-0.051
-331.216	31.946	0.223	0.189
-330.202	-7.820	-0.238	0.158
-329.187	295.185	0.088	0.158
-328.172	343.504	-0.153	-0.295
-327.158	31.945	0.120	-0.102
-326.143	-196.374	0.143	0.001
-325.129	75.611	-0.130	0.135
-324.114	-28.270	0.129	-0.073
-323.099	-3.671	-0.014	0.009
-322.085	-66.781	0.095	0.037
-321.070	-200.000	-0.006	-0.077
-320.056	-200.000	0.001	0.288
-319.041	800.000	-0.015	0.061
-318.026	-135.954	0.049	0.006
-317.012	-44.617	0.411	0.202
-315.997	-69.114	-0.104	0.039
-314.983	-89.617	-0.045	-0.013
-313.968	453.422	-0.066	-0.144
-312.953	176.006	0.277	-0.396
-311.939	-135.692	-0.364	-0.043
-310.924	42.014	0.183	-0.163
-309.910	-131.422	-0.432	0.056
-308.895	711.360	-0.069	0.181
-307.880	70.633	-0.090	0.092
-306.866	-72.400	0.284	-0.104
-305.851	113.846	-0.107	0.129
-304.837	800.000	-0.033	0.105
-303.822	184.348	0.201	0.293
-302.807	64.054	-0.083	0.082
-301.793	-11.631	-0.197	-0.127
-300.778	87.177	-0.195	-0.212
-299.764	-70.351	0.160	0.060
-298.749	98.388	0.083	0.094
-297.735	-148.702	-0.294	0.024
-296.720	-138.056	0.126	-0.014
-295.705	-14.244	0.125	-0.079
-294.691	-59.560	-0.219	-0.093
-293.676	-200.000	-0.014	-0.338
-292.662	-159.649	0.107	-0.006
-291.647	174.803	-0.091	-0.130
-290.632	188.216	-0.023	-0.034
-289.618	-135.693	0.377	0.044
-288.603	-200.000	-0.003	0.047
-287.589	13.749	0.309	0.237
-286.574	-200.000	-0.086	-0.429
-285.559	159.184	-0.127	0.174
-284.545	-200.000	0.004	-0.126
-283.530	275.407	0.133	0.233
-282.516	117.203	0.281	0.340
-281.501	-2.009	-0.235	-0.163
-280.486	-25.501	-0.135	0.078
-279.472	-130.843	-0.113	0.015
-278.457	-89.125	-0.197	-0.057
-277.443	129.323	0.176	-0.220
-276.428	-124.227	-0.141	0.022
-275.413	186.360	0.183	-0.268
-274.399	-94.576	-0.161	-0.043
-273.384	16.986	0.027	-0.021
-272.370	5.295	0.342	0.248
-271.355	154.276	-0.157	0.212
-270.340	-193.737	-0.217	-0.002
-269.326	800.000	-0.043	-0.155
-268.311	68.369	-0.091	0.091
-267.297	-200.000	-0.035	0.156
-266.282	-200.000	-0.021	-0.200
-265.267	-138.952	0.229	0.024
-264.253	-1.696	-0.160	0.111
-263.238	800.000	0.060	0.180
-262.224	-122.195	-0.112	-0.018
-261.209	-24.399	0.148	-0.087
-260.195	-141.122	0.073	-0.007
-259.180	21.190	0.437	-0.349
-258.165	178.013	0.158	-0.226
-257.151	800.000	-0.079	0.229
-256.136	175.129	0.112	-0.159
-255.122	241.605	-0.153	-0.252
-254.107	-200.000	-0.004	-0.136
-253.092	568.067	0.079	-0.187
-252.078	-103.884	0.369	0.085
-251.063	-150.179	0.321	0.024
-250.049	96.670	-0.132	-0.148
-249.034	-200.000	-0.049	-0.218
-248.019	-200.000	0.020	0.241
-247.005	-96.842	0.214	0.055
-245.990	800.000	0.086	0.326
-244.976	44.312	-0.237	0.213
-243.961	91.217	-0.096	-0.105
-242.946	148.320	-0.229	-0.303
-241.932	-93.873	0.314	0.085
-240.917	800.000	-0.029	-0.115
-239.903	-18.910	0.062	-0.038
-238.888	522.112	0.091	-0.210
-237.873	-200.000	-0.014	0.203
-236.859	50.853	-0.310	-0.289
-235.844	-11.475	0.234	0.151
-234.830	-154.830	0.161	0.010
-233.815	17.577	-0.078	-0.061
-232.800	202.935	0.075	-0.114
-231.786	25.830	0.236	-0.193
-230.771	-45.546	-0.162	0.079
-229.757	212.325	0.085	-0.132
-228.742	-200.000	0.009	-0.050
-227.727	-9.229	0.185	-0.121
-226.713	800.000	0.023	-0.087
-225.698	-200.000	0.013	-0.086
-224.684	-112.036	0.145	-0.029
-223.669	800.000	-0.025	0.095
-222.655	273.391	-0.067	0.116
-221.640	-66.524	0.076	-0.029
-220.625	-169.101	-0.332	-0.012
-219.611	-96.055	0.041	-0.011
-218.596	301.579	-0.186	0.337
-217.582	665.266	-0.056	0.143
-216.567	800.000	-0.052	-0.151
-215.552	-133.728	0.272	0.033
-214.538	132.753	-0.154	0.195
-213.523	38.127	0.345	0.301
-212.509	-200.000	0.005	-0.084
-211.494	-200.000	-0.027	0.160
-210.479	-141.363	0.295	-0.029
-209.465	191.072	0.151	0.222
-208.450	496.560	-0.091	0.205
-207.436	-22.627	0.264	0.157
-206.421	-200.000	-0.031	0.138
-205.406	389.725	0.105	0.212
-204.392	284.799	-0.181	0.319
-203.377	-48.108	-0.268	-0.127
-202.363	-149.164	0.275	-0.022
-201.348	-90.196	0.153	-0.044
-200.333	417.352	0.058	0.121
-199.319	-73.401	-0.187	0.067
-198.304	80.631	-0.266	-0.281
-197.290	418.594	0.111	0.232
-196.275	800.000	-0.080	0.336
-195.260	800.000	0.076	0.321
-194.246	-59.527	0.143	0.060
-193.231	145.312	0.086	-0.113
-192.217	350.536	-0.009	0.017
-191.202	-47.778	0.109	-0.052
-190.187	-36.925	0.096	-0.050
-189.173	-133.017	-0.274	0.034
-188.158	800.000	0.032	0.113
-187.144	-200.000	0.026	-0.324
-186.129	-200.000	0.024	0.175
-185.114	-11.796	0.051	-0.033
-184.100	127.135	0.030	0.037
-183.085	-89.403	0.134	0.039
-182.071	42.992	-0.037	0.033
-181.056	-129.519	-0.196	0.027
-180.042	-200.000	-0.046	-0.200
-179.027	-200.000	0.046	-0.246
-178.012	-116.997	-0.214	0.038
-176.998	-74.924	-0.109	0.038
-175.983	-57.833	-0.107	0.046
-174.969	-16.935	-0.207	-0.128
-173.954	-45.761	0.070	0.034
-172.939	693.798	-0.067	-0.172
-171.925	800.000	0.048	0.139
-170.910	-200.000	-0.080	0.362
-169.896	-22.233	-0.328	-0.195
-168.881	-200.000	-0.069	0.565
-167.866	800.000	-0.179	0.489
-166.852	-94.443	0.156	-0.042
-165.837	53.840	0.229	-0.216
-164.823	-23.653	0.054	0.032
-163.808	-4.315	0.315	-0.213
-162.793	-63.491	-0.071	-0.028
-161.779	-131.506	0.324	0.042
-160.764	-200.000	-0.038	0.479
-159.750	-200.000	0.008	0.446
-158.735	800.000	-0.024	0.101
-157.720	800.000	-0.044	-0.181
-156.706	-7.116	0.271	0.180
-155.691	117.183	0.177	0.213
-154.677	-111.091	-0.494	0.099
-153.662	-88.472	0.100	-0.029
-152.647	-59.084	0.195	0.082
-151.633	800.000	0.114	0.314
-150.618	-98.381	-0.030	-0.008
-149.604	-200.000	-0.021	-0.215
-148.589	-200.000	-0.039	0.264
-147.574	-200.000	0.071	0.306
-146.560	562.587	-0.045	0.106
-145.545	-200.000	0.022	-0.266
-144.531	79.604	-0.115	-0.121
-143.516	-148.167	-0.137	-0.011
-142.502	423.123	0.042	0.089
-141.487	-7.114	-0.172	0.114
-140.472	333.643	-0.050	0.095
-139.458	-200.000	-0.019	-0.294
-138.443	47.003	0.362	0.330
-137.429	131.208	0.178	0.223
-136.414	800.000	0.160	0.574
-135.399	-200.000	0.009	-0.070
-134.385	65.559	0.245	0.243
-133.370	319.288	-0.064	0.119
-132.356	-82.726	0.244	-0.077
-131.341	-117.917	0.046	0.008
-130.326	-200.000	0.064	-0.311
-129.312	-144.723	0.197	-0.018
-128.297	-33.936	-0.133	0.071
-127.283	-159.982	0.199	-0.011
-126.268	55.590	-0.077	0.073
-125.253	218.877	-0.130	0.203
-124.239	262.122	-0.044	0.075
-123.224	99.273	-0.106	0.120
-122.210	-200.000	0.006	-0.100
-121.195	-114.187	-0.121	0.023
-120.180	153.530	0.220	0.295
-119.166	52.113	-0.127	0.118
-118.151	179.411	0.074	0.106
-117.137	12.684	0.366	-0.276
-116.122	-82.757	0.047	-0.015
-115.107	-116.522	-0.022	-0.004
-114.093	-52.189	-0.352	0.160
-113.078	800.000	-0.055	-0.220
-112.064	184.092	-0.094	0.136
-111.049	-200.000	0.075	0.373
-110.034	21.926	0.064	0.051
-109.020	-60.817	-0.138	-0.057
-108.005	800.000	-0.053	0.189
-106.991	-200.000	0.030	-0.280
-105.976	-52.503	0.350	-0.158
-104.962	-149.300	0.207	0.016
-103.947	205.576	0.054	0.081
-102.932	800.000	0.033	0.126
-101.918	203.095	0.044	-0.067
-100.903	229.183	-0.203	-0.324
-99.889	-56.567	0.186	0.081
-98.874	19.174	-0.038	-0.030
-97.859	800.000	-0.065	-0.189
-96.845	-6.004	0.276	0.184
-95.830	-200.000	-0.034	0.190
-94.816	-51.440	-0.133	-0.061
-93.801	-200.000	0.016	-0.162
-92.786	-200.000	0.016	0.075
-91.772	800.000	0.110	0.302
-90.757	-86.947	0.287	0.086
-89.743	-32.043	-0.079	-0.043
-88.728	-56.128	-0.269	0.117
-87.713	-63.233	-0.147	-0.059
-86.699	209.299	-0.032	0.049
-85.684	-200.000	0.197	-0.001
-84.670	458.649	-0.049	-0.106
-83.655	154.983	-0.128	-0.172
-82.640	-200.000	-0.012	0.069
-81.626	-21.587	0.318	0.189
-80.611	-166.268	0.132	0.005
-79.597	514.756	0.130	-0.296
-78.582	-35.707	-0.292	0.154
-77.567	172.291	0.166	0.233
-76.553	60.795	-0.081	-0.078
-75.538	-104.984	-0.187	0.042
-74.524	57.701	0.131	-0.125
-73.509	-86.418	-0.345	-0.104
-72.494	230.901	-0.279	-0.446
-71.480	184.127	0.147	-0.212
-70.465	-57.679	0.298	0.127
-69.451	-57.686	0.146	0.062
-68.436	-140.088	0.079	0.008
-67.422	-200.000	-0.020	-0.131
-66.407	46.153	0.062	0.056
-65.392	-106.635	0.268	0.058
-64.378	742.247	0.127	0.332
-63.363	-87.982	-0.306	-0.090
-62.349	26.367	0.224	0.182
-61.334	136.459	-0.921	-1.172
-60.319	71.582	0.690	0.699
-59.305	-200.000	-0.278	-1.201
-58.290	532.063	0.623	1.438
-57.276	538.928	0.617	1.430
-56.261	-200.000	130.095	699.160
-55.246	396.315	1633.217	3325.152
-54.232	136.256	2783.361	3538.685
-53.217	95.462	2161.195	2402.674
-52.203	34.468	1588.832	1352.505
-51.188	26.107	1332.770	1084.489
-50.173	23.687	1295.162	1039.696
-49.159	52.365	1366.715	1271.173
-48.144	48.707	1376.516	1258.247
-47.130	26.264	1323.917	1078.056
-46.115	23.009	1304.910	1043.355
-45.100	22.726	1299.982	1037.711
-44.086	22.790	1296.727	1035.446
-43.071	22.687	1294.827	1033.287
-42.057	22.733	1292.773	1031.871
-41.042	22.746	1290.865	1030.388
-40.027	22.748	1289.463	1029.240
-39.013	22.716	1287.763	1027.651
-37.998	22.783	1286.020	1026.612
-36.984	22.823	1284.059	1025.238
-35.969	22.903	1282.053	1024.058
-34.954	22.767	1281.036	1022.415
-33.940	22.929	1279.445	1022.046
-32.925	23.017	1277.785	1021.187
-31.911	22.889	1276.791	1019.613
-30.896	22.966	1275.432	1018.930
-29.881	23.049	1273.926	1018.167
-28.867	22.998	1272.515	1016.706
-27.852	22.979	1271.009	1015.351
-26.838	23.018	1269.902	1014.652
-25.823	22.882	1268.779	1012.930
-24.809	23.009	1267.477	1012.581
-23.794	22.860	1266.497	1010.907
-22.779	23.032	1264.291	1010.089
-21.765	23.011	1263.849	1009.574
-20.750	22.829	1262.361	1007.309
-19.736	22.892	1260.882	1006.447
-18.721	22.932	1259.481	1005.515
-17.706	22.730	1259.168	1004.077
-16.692	22.716	1257.631	1002.732
-15.677	22.872	1255.932	1002.224
-14.663	22.776	1255.461	1001.261
-13.648	22.938	1253.628	1000.679
-12.633	22.814	1253.050	999.472
-11.619	22.907	1252.645	999.637
-10.604	22.841	1251.671	998.447
-9.590	22.807	1250.737	997.468
-8.575	22.818	1249.492	996.499
-7.560	22.817	1248.479	995.645
-6.546	22.860	1247.744	995.265
-5.531	22.798	1247.399	994.600
-4.517	22.850	1245.849	993.617
-3.502	22.814	1245.687	993.244
-2.487	22.772	1244.856	992.307
-1.473	22.753	1240.321	988.548
-0.458	20.850	1225.627	966.250
0.556	16.213	1209.930	928.084
1.571	12.395	1217.730	912.809
2.586	11.740	1232.360	920.011
3.600	11.648	1220.448	910.527
4.615	8.814	1149.958	842.969
5.629	3.326	1081.228	765.307
6.644	0.895	1064.550	741.537
7.659	0.706	1062.533	739.144
8.673	0.739	1061.692	738.653
9.688	0.660	1060.411	737.308
10.702	0.924	1057.688	736.637
11.717	4.104	1061.662	754.852
12.731	10.658	1070.107	792.891
13.746	15.803	1076.587	822.845
14.761	17.140	1078.783	830.996
15.775	16.613	1076.617	826.681
16.790	15.514	1075.021	820.020
17.804	14.835	1073.064	815.146
18.819	14.584	1072.084	813.101
19.834	14.339	1071.290	811.235
20.848	14.036	1070.368	808.992
21.863	13.788	1069.434	807.009
22.877	13.669	1068.906	805.959
23.892	13.756	1067.741	805.431
24.907	13.590	1067.333	804.249
25.921	13.646	1066.403	803.749
26.936	13.611	1065.904	803.132
27.950	13.878	1064.307	803.150
28.965	13.794	1063.734	802.239
29.980	13.797	1062.106	800.956
30.994	13.920	1060.875	800.548
32.009	13.897	1060.078	799.766
33.023	13.802	1059.060	798.472
34.038	13.907	1057.862	798.001
35.053	13.935	1056.736	797.217
36.067	13.772	1056.574	796.238
37.082	13.942	1055.417	796.113
38.096	13.771	1054.720	794.695
39.111	13.823	1054.133	794.432
40.126	13.732	1053.597	793.523
41.140	13.648	1051.952	791.812
42.155	13.830	1050.528	791.542
43.169	13.602	1050.198	790.132
44.184	13.633	1048.804	789.162
45.199	13.584	1047.604	787.956
46.213	13.586	1047.049	787.481
47.228	13.805	1045.238	787.086
48.242	13.765	1044.550	786.311
49.257	13.758	1043.660	785.536
50.271	13.776	1042.953	785.021
51.286	13.838	1041.954	784.491
52.301	13.881	1040.987	783.896
53.315	13.839	1040.060	782.930
54.330	13.802	1038.799	781.739
55.344	13.875	1038.023	781.429
56.359	13.858	1037.258	780.703
57.374	13.695	1036.639	779.404
58.388	13.692	1035.725	778.634
59.403	13.714	1034.706	777.900
60.417	13.655	1033.792	776.870
61.432	13.666	1033.098	776.329
62.447	13.643	1032.180	775.465
63.461	13.625	1031.633	774.901
64.476	13.578	1030.717	773.926
65.490	13.582	1029.713	773.120
66.505	13.710	1028.576	772.796
67.520	13.632	1028.166	772.054
68.534	13.677	1027.566	771.749
69.549	13.609	1026.840	770.816
70.563	13.738	1025.807	770.570
71.578	13.633	1025.490	769.777
72.593	13.735	1024.123	769.155
73.607	13.714	1023.687	768.663
74.622	13.608	1023.397	767.886
75.636	13.619	1022.755	767.389
76.651	13.516	1021.948	766.239
77.666	13.567	1021.305	765.923
78.680	13.559	1020.714	765.377
79.695	13.681	1019.802	765.187
80.709	13.659	1019.533	764.815
81.724	13.617	1018.573	763.837
82.739	13.863	1017.527	764.114
83.753	13.747	1016.983	763.105
84.768	13.866	1015.728	762.641
85.782	13.882	1014.837	761.979
86.797	13.809	1014.372	761.229
87.812	13.790	1013.126	760.141
88.826	13.790	1011.723	759.020
89.841	13.845	1011.275	758.866
90.855	13.909	1010.095	758.206
91.870	13.873	1009.759	757.726
92.884	13.932	1008.538	757.008
93.899	13.977	1007.649	756.482
94.914	13.916	1006.953	755.611
95.928	13.803	1006.624	754.784
96.943	13.851	1005.528	754.117
97.957	13.851	1004.757	753.472
98.972	13.794	1003.830	752.449
99.987	13.922	1002.463	751.938
101.001	14.045	1001.662	751.827
102.016	13.754	1001.512	750.334
103.030	13.888	1000.071	749.793
104.045	13.880	999.299	749.111
105.060	13.880	998.724	748.615
106.074	13.808	997.534	747.331
107.089	13.639	997.148	746.216
108.103	13.808	995.872	745.952
109.118	13.771	995.122	745.158
110.133	13.641	994.337	743.924
111.147	13.728	993.261	743.440
112.162	13.788	992.325	742.945
113.176	13.754	992.223	742.650
114.191	13.794	991.094	741.916
115.206	13.852	990.311	741.526
116.220	13.867	989.119	740.632
117.235	13.869	988.190	739.880
118.249	13.747	987.639	738.861
119.264	13.802	987.216	738.724
120.279	13.818	986.051	737.857
121.293	13.865	985.074	737.270
122.308	13.781	984.457	736.368
123.322	13.768	983.630	735.629
124.337	13.802	982.601	734.945
125.352	13.818	981.522	734.142
126.366	13.851	980.027	733.106
127.381	13.803	979.415	732.373
128.395	13.879	978.364	731.857
129.410	13.890	977.071	730.871
130.424	13.787	976.747	730.113
131.439	13.920	975.822	729.940
132.454	13.836	975.148	729.002
133.468	13.905	974.103	728.458
134.483	13.826	973.110	727.306
135.497	13.828	972.317	726.656
136.512	13.978	971.355	726.531
137.527	13.960	970.300	725.599
138.541	13.808	970.227	724.816
139.556	13.914	969.146	724.407
140.570	13.893	968.894	724.061
141.585	13.948	967.583	723.257
142.600	14.060	966.624	722.963
143.614	14.075	965.999	722.499
144.629	14.088	964.817	721.608
145.643	13.919	964.375	720.478
146.658	14.008	963.603	720.226
147.673	14.082	962.522	719.673
148.687	13.988	961.672	718.570
149.702	13.999	960.389	717.595
150.716	13.923	960.039	716.939
151.731	13.968	959.228	716.467
152.746	14.096	958.758	716.601
153.760	13.916	958.120	715.286
154.775	14.180	957.172	715.651
155.789	14.031	956.792	714.664
156.804	14.017	956.213	714.109
157.819	14.123	955.465	713.942
158.833	14.071	954.862	713.206
159.848	14.154	953.642	712.586
160.862	14.065	952.967	711.635
161.877	14.086	951.921	710.883
162.892	13.927	951.334	709.701
163.906	13.983	950.273	709.084
164.921	14.014	949.273	708.409
165.935	14.056	948.680	708.085
166.950	14.194	947.540	707.756
167.964	14.058	947.086	706.779
168.979	14.115	945.984	706.134
169.994	14.128	945.132	705.492
171.008	14.129	944.552	704.999
172.023	14.219	943.523	704.551
173.037	14.300	942.439	704.022
174.052	14.356	941.760	703.688
175.067	14.066	941.762	702.402
176.081	14.244	940.562	702.197
177.096	14.300	940.590	702.393
178.110	14.179	939.826	701.250
179.125	14.249	939.496	701.234
180.140	14.260	938.632	700.573
181.154	14.321	938.319	700.537
182.169	14.321	937.607	699.944
183.183	14.323	937.036	699.462
184.198	14.522	935.886	699.374
185.213	14.526	935.336	698.918
186.227	14.471	934.727	698.173
187.242	14.467	934.113	697.636
188.256	14.523	933.056	697.021
189.271	14.517	932.328	696.389
190.286	14.337	931.859	695.225
191.300	14.377	930.984	694.679
192.315	14.332	930.604	694.144
193.329	14.274	930.095	693.464
194.344	14.340	929.278	693.067
195.359	14.411	928.672	692.848
196.373	14.402	928.275	692.452
197.388	14.504	928.036	692.639
198.402	14.604	926.757	692.038
199.417	14.537	926.308	691.363
200.432	14.636	925.874	691.387
201.446	14.739	925.313	691.333
202.461	14.794	924.996	691.262
203.475	14.793	924.006	690.460
204.490	14.590	923.685	689.318
205.504	14.663	922.734	688.849
206.519	14.575	922.500	688.250
207.534	14.703	921.697	688.120
208.548	14.702	920.967	687.509
209.563	14.720	920.339	687.052
210.577	14.723	919.673	686.506
211.592	14.701	919.234	686.029
212.607	14.857	917.804	685.542
213.621	14.827	917.477	685.113
214.636	14.790	916.528	684.192
215.650	14.863	915.960	684.007
216.665	15.012	915.268	684.036
217.680	14.877	915.245	683.406
218.694	14.895	914.461	682.837
219.709	14.893	913.655	682.166
220.723	14.899	912.560	681.309
221.738	14.827	912.013	680.552
222.753	14.919	911.027	680.128
223.767	14.892	910.911	679.871
224.782	14.973	910.619	679.922
225.796	14.952	909.858	679.211
226.811	15.034	908.740	678.649
227.826	15.172	907.844	678.476
228.840	14.988	907.348	677.300
229.855	15.012	906.764	676.902
230.869	15.056	905.826	676.319
231.884	15.001	905.406	675.724
232.899	15.035	904.543	675.158
233.913	15.023	903.826	674.516
234.928	14.980	903.729	674.210
235.942	15.168	902.461	673.960
236.957	15.225	901.619	673.502
237.972	14.991	901.259	672.233
238.986	15.150	900.413	672.180
240.001	15.052	900.001	671.419
241.015	15.172	899.370	671.369
242.030	15.006	899.195	670.516
243.045	15.091	898.246	670.089
244.059	15.169	897.424	669.726
245.074	15.243	897.191	669.789
246.088	15.157	896.459	668.839
247.103	15.197	895.592	668.295
248.117	15.326	895.156	668.424
249.132	15.450	894.566	668.419
250.147	15.324	893.736	667.238
251.161	15.410	893.475	667.326
252.176	15.420	892.800	666.802
253.190	15.516	891.450	666.115
254.205	15.490	891.172	665.747
255.220	15.632	890.254	665.566
256.234	15.536	889.755	664.751
257.249	15.468	889.624	664.327
258.263	15.557	888.359	663.676
259.278	15.652	887.396	663.273
260.293	15.555	887.402	662.834
261.307	15.630	886.792	662.616
262.322	15.757	885.803	662.318
263.336	15.656	885.243	661.443
264.351	15.720	884.749	661.266
265.366	15.751	884.261	660.965
266.380	15.742	883.547	660.338
267.395	15.728	882.672	659.572
268.409	15.707	881.841	658.811
269.424	15.881	881.153	658.918
270.439	15.740	880.333	657.697
271.453	15.684	880.226	657.338
272.468	15.708	879.691	656.975
273.482	15.785	879.011	656.708
274.497	15.753	878.287	655.984
275.512	15.877	877.647	655.931
276.526	15.845	876.893	655.186
277.541	15.859	876.617	654.975
278.555	15.958	875.673	654.599
279.570	16.125	874.915	654.623
280.585	15.891	874.734	653.521
281.599	15.987	873.591	652.980
282.614	16.048	872.874	652.624
283.628	15.947	872.531	651.919
284.643	15.935	872.073	651.471
285.657	15.952	871.315	650.915
286.672	15.915	870.742	650.287
287.687	15.965	870.037	649.892
288.701	16.031	869.647	649.800
289.716	15.992	869.205	649.261
290.730	16.079	868.215	648.800
291.745	16.090	867.930	648.571
292.760	16.050	866.918	647.604
293.774	16.121	866.465	647.479
294.789	16.148	866.051	647.219
295.803	16.260	865.177	646.936
296.818	16.089	864.660	645.836
297.833	16.121	863.652	645.152
298.847	16.164	863.160	644.891
299.862	16.368	862.165	644.871
300.876	16.309	861.988	644.453
301.891	16.170	861.426	643.449
302.906	16.317	861.074	643.688
303.920	16.321	860.648	643.327
304.935	16.525	859.671	643.314
305.949	16.428	859.174	642.517
306.964	16.365	858.636	641.818
307.979	16.377	858.187	641.472
308.993	16.314	857.757	640.855
310.008	16.473	856.648	640.572
311.022	16.451	856.213	640.107
312.037	16.514	855.636	639.859
313.052	16.419	855.031	638.989
314.066	16.519	854.559	638.958
315.081	16.436	854.014	638.183
316.095	16.508	853.250	637.826
317.110	16.378	852.952	637.056
318.125	16.349	852.410	636.487
319.139	16.433	852.050	636.475
320.154	16.439	851.471	636.009
321.168	16.625	850.858	636.198
322.183	16.625	850.002	635.500
323.197	16.491	849.927	634.885
324.212	16.591	849.089	634.575
325.227	16.556	848.773	634.152
326.241	16.630	848.212	633.956
327.256	16.519	847.967	633.301
328.270	16.586	846.978	632.757
329.285	16.606	846.389	632.335
330.300	16.606	845.791	631.833
331.314	16.577	844.945	631.036
332.329	16.576	844.715	630.803
333.343	16.668	844.567	630.982
334.358	16.697	843.834	630.486
335.373	16.669	843.815	630.312
336.387	16.639	843.269	629.735
337.402	16.820	842.910	630.084
338.416	16.822	842.294	629.577
339.431	16.838	842.091	629.429
340.446	16.890	841.591	629.192
341.460	16.989	841.138	629.166
342.475	16.881	840.774	628.436
343.489	16.973	840.188	628.285
344.504	17.038	839.937	628.283
345.519	17.128	839.167	627.985
346.533	17.061	838.786	627.394
347.548	16.861	838.580	626.444
348.562	16.918	838.242	626.348
349.577	16.860	837.766	625.723
350.592	16.985	836.853	625.445
351.606	16.980	836.334	624.986
352.621	17.051	835.398	624.493
353.635	16.833	834.837	623.215
354.650	17.008	834.093	623.247
355.665	17.045	833.514	622.897
356.679	17.132	832.819	622.641
357.694	17.122	832.261	622.133
358.708	17.076	831.627	621.435
359.723	16.963	831.241	620.678
360.738	17.111	830.257	620.427
361.752	17.251	829.971	620.671
362.767	17.094	829.504	619.696
363.781	17.066	829.081	619.220
364.796	17.316	828.274	619.474
365.810	17.419	827.778	619.425
366.825	17.316	827.585	618.850
367.840	17.151	827.503	618.132
368.854	17.239	826.532	617.671
369.869	17.278	826.518	617.750
370.883	17.271	825.724	617.075
371.898	17.457	825.342	617.410
372.913	17.434	824.986	617.008
373.927	17.432	824.579	616.639
374.942	17.442	824.178	616.320
375.956	17.522	823.812	616.284
376.971	17.455	823.261	615.574
377.986	17.718	822.462	615.873
379.000	17.624	822.388	615.423
380.015	17.608	821.756	614.837
381.029	17.562	821.081	614.112
382.044	17.615	820.530	613.839
383.059	17.689	819.762	613.474
384.073	17.520	819.652	612.729
385.088	17.625	819.187	612.705
386.102	17.682	818.469	612.321
387.117	17.748	817.379	611.686
388.132	17.599	817.367	611.088
389.146	17.682	816.996	611.054
390.161	17.616	816.741	610.573
391.175	17.735	815.937	610.343
392.190	17.663	815.415	609.643
393.205	17.525	814.978	608.767
394.219	17.728	814.689	609.225
395.234	17.593	814.270	608.376
396.248	17.615	813.814	608.060
397.263	17.579	813.605	607.721
398.278	17.545	813.187	607.232
399.292	17.579	812.871	607.065
400.307	17.782	811.938	607.036
401.321	17.639	811.459	606.115
402.336	17.777	811.095	606.281
403.350	17.843	810.511	606.024
404.365	17.908	810.040	605.851
405.380	17.931	809.780	605.682
406.394	17.833	808.956	604.668
407.409	18.054	808.453	605.018
408.423	17.877	808.410	604.305
409.438	17.938	808.151	604.276
410.453	17.987	807.529	603.932
411.467	18.065	807.120	603.847
412.482	18.164	806.460	603.648
413.496	18.178	806.158	603.420
414.511	18.101	805.978	602.960
415.526	18.237	805.222	602.820
416.540	18.123	804.980	602.183
417.555	18.097	804.521	601.695
418.569	18.089	804.420	601.538
419.584	18.213	803.348	601.118
420.599	18.064	803.314	600.519
421.613	116.188	1298.681	1491.455
422.628	100.391	1370.788	1491.529
