DTS Sentinel unit serial number:	SN413079Multiplexer serial number:	ORYXHardware model number:	OX4-SRSoftware version number:	ORYX F/W v4.00 Oryx Data Collector v3.7.2.0data status	okinstallation	princeton_trtdifferential loss correction	single-endedforward channel	channel 1reverse channel	N/Adate	2019/09/13time	16:14:35forward acquisition time	60.00reverse acquisition time	0.00gamma	496.2192k internal	0.2304k external	0.2304temperature offset calibration	1.0159default loss term (dB/km)	0.3790temperature slope calibration	1.0000multiplexer offset coefficient	1.0000multiplexer slope coefficient	1.0000fibre end	0.00T internal ref (°C)	34.84T ext. ref 1 (°C)	4.84T ext. ref 2 (°C)	31.66length (m)	temperature (°C)	Stokes	anti-Stokes-747.200	-200.000	-0.028	0.186
-746.185	-42.540	0.368	0.191
-745.171	-200.000	0.002	0.207
-744.156	-200.000	0.003	0.270
-743.142	81.386	0.166	0.183
-742.127	-35.468	-0.135	0.075
-741.112	51.615	-0.297	-0.287
-740.098	83.944	-0.078	0.087
-739.083	395.580	-0.150	0.318
-738.069	-87.573	-0.101	-0.031
-737.054	-15.082	-0.165	0.108
-736.039	800.000	0.087	0.380
-735.025	-53.598	0.215	0.100
-734.010	83.141	0.025	0.028
-732.996	66.945	-0.178	-0.185
-731.981	75.619	0.277	-0.297
-730.966	-200.000	-0.044	-0.365
-729.952	-19.729	-0.189	-0.119
-728.937	-36.270	0.131	-0.072
-727.923	-80.960	-0.203	0.069
-726.908	327.020	-0.037	0.073
-725.894	-52.320	-0.026	-0.012
-724.879	-21.571	0.179	0.111
-723.864	298.780	-0.237	-0.444
-722.850	-46.856	-0.358	0.178
-721.835	-67.002	0.229	-0.092
-720.821	56.407	-0.132	0.130
-719.806	-200.000	0.039	-0.259
-718.791	111.992	-0.221	-0.272
-717.777	610.202	-0.113	-0.286
-716.762	87.276	0.113	-0.128
-715.748	581.157	-0.024	0.061
-714.733	-200.000	-0.017	0.272
-713.718	-200.000	0.005	0.030
-712.704	62.645	0.085	-0.087
-711.689	-27.434	0.234	-0.138
-710.675	-200.000	-0.044	-0.341
-709.660	66.989	0.083	0.086
-708.645	144.798	-0.091	-0.124
-707.631	-103.869	0.173	0.041
-706.616	-117.168	0.195	0.036
-705.602	-62.092	0.338	0.143
-704.587	-148.591	0.245	0.020
-703.572	150.164	0.046	-0.063
-702.558	-152.051	0.293	0.022
-701.543	-30.260	-0.186	0.107
-700.529	-106.789	-0.277	-0.062
-699.514	-115.402	-0.253	-0.049
-698.499	-196.222	0.338	0.002
-697.485	-85.696	0.402	-0.127
-696.470	-78.590	-0.327	0.114
-695.456	-44.437	0.106	-0.054
-694.441	-200.000	0.048	-0.215
-693.426	-200.000	-0.007	-0.563
-692.412	91.416	0.270	0.308
-691.397	-185.227	-0.277	-0.004
-690.383	448.386	-0.059	0.133
-689.368	51.293	0.143	-0.138
-688.354	-69.137	-0.231	0.090
-687.339	-123.292	-0.029	0.005
-686.324	-164.858	-0.134	0.006
-685.310	132.393	-0.050	0.065
-684.295	-159.582	0.024	0.001
-683.281	597.150	0.022	-0.056
-682.266	-103.746	-0.208	-0.049
-681.251	-40.404	0.085	0.045
-680.237	-200.000	0.009	0.125
-679.222	800.000	0.046	0.199
-678.208	-171.466	-0.127	-0.004
-677.193	-97.071	-0.141	-0.037
-676.178	-200.000	-0.007	0.054
-675.164	173.156	-0.078	0.114
-674.149	-139.945	0.082	0.009
-673.135	-102.701	0.323	-0.078
-672.120	92.712	-0.093	-0.106
-671.105	103.638	0.160	0.191
-670.091	-28.780	-0.117	0.068
-669.076	-69.683	-0.087	0.034
-668.062	114.334	-0.117	0.145
-667.047	-183.453	-0.174	0.003
-666.032	599.220	0.298	-0.751
-665.018	263.693	-0.093	-0.164
-664.003	175.357	-0.055	-0.081
-662.989	-162.705	0.067	0.003
-661.974	800.000	0.119	-0.491
-660.959	-75.644	0.237	0.085
-659.945	-35.826	0.336	0.185
-658.930	84.653	-0.109	0.121
-657.916	800.000	0.060	-0.191
-656.901	87.394	0.239	-0.268
-655.886	800.000	0.024	-0.084
-654.872	636.701	0.128	-0.329
-653.857	-200.000	-0.016	0.176
-652.843	115.166	-0.016	-0.020
-651.828	800.000	0.050	-0.223
-650.814	58.803	-0.107	0.107
-649.799	-20.973	0.145	0.090
-648.784	206.448	0.144	0.228
-647.770	283.004	0.102	0.185
-646.755	314.562	-0.153	-0.292
-645.741	256.471	0.126	-0.219
-644.726	-200.000	0.025	-0.118
-643.711	-20.886	0.402	0.250
-642.697	-40.605	-0.095	0.050
-641.682	93.451	-0.034	0.039
-640.668	-0.776	-0.052	0.037
-639.653	99.902	0.152	0.179
-638.638	634.196	0.039	-0.101
-637.624	-131.973	0.114	-0.015
-636.609	-200.000	0.009	0.179
-635.595	409.440	0.048	0.102
-634.580	-158.001	0.167	-0.010
-633.565	-97.712	0.264	-0.069
-632.551	-200.000	-0.035	0.228
-631.536	800.000	-0.026	0.086
-630.522	-27.695	0.153	0.090
-629.507	-200.000	-0.015	0.134
-628.492	-182.308	-0.052	0.001
-627.478	-200.000	-0.001	0.247
-626.463	-200.000	-0.044	0.204
-625.449	456.126	0.063	0.143
-624.434	766.133	0.155	-0.428
-623.419	-98.845	0.057	0.015
-622.405	-19.778	0.223	0.139
-621.390	406.239	-0.062	0.133
-620.376	96.249	0.139	0.161
-619.361	-200.000	0.006	-0.056
-618.346	800.000	-0.088	0.256
-617.332	-200.000	-0.039	-0.288
-616.317	-200.000	0.025	-0.225
-615.303	136.163	-0.174	-0.230
-614.288	259.703	-0.080	-0.141
-613.273	-65.525	-0.117	0.047
-612.259	300.449	0.111	0.207
-611.244	-200.000	-0.025	-0.227
-610.230	-93.945	0.119	-0.033
-609.215	126.208	0.126	-0.162
-608.201	-117.601	0.248	-0.045
-607.186	800.000	-0.052	-0.229
-606.171	718.796	0.080	-0.214
-605.157	-144.477	-0.427	0.040
-604.142	4.671	-0.148	0.110
-603.128	-200.000	-0.010	0.349
-602.113	-200.000	0.028	0.176
-601.098	217.978	-0.077	0.124
-600.084	296.236	-0.087	-0.161
-599.069	-200.000	0.012	-0.068
-598.055	-11.460	-0.047	0.031
-597.040	-200.000	0.014	-0.162
-596.025	71.278	-0.173	-0.182
-595.011	-200.000	0.013	0.149
-593.996	-17.587	0.101	0.064
-592.982	-119.338	0.283	-0.050
-591.967	37.860	0.214	0.192
-590.952	-36.632	0.134	-0.073
-589.938	-135.863	-0.035	-0.004
-588.923	403.320	-0.100	0.213
-587.909	-82.955	0.248	0.081
-586.894	125.159	-0.220	-0.281
-585.879	118.119	0.096	0.120
-584.865	104.410	-0.274	-0.327
-583.850	-3.502	0.302	0.212
-582.836	661.966	-0.199	-0.519
-581.821	-153.733	-0.246	-0.017
-580.806	-36.492	0.255	0.139
-579.792	25.726	0.063	0.053
-578.777	-99.183	-0.325	-0.083
-577.763	100.899	0.111	-0.131
-576.748	15.740	0.157	0.125
-575.733	-83.918	-0.601	0.193
-574.719	-200.000	-0.011	0.074
-573.704	74.493	0.087	-0.092
-572.690	34.249	0.237	0.209
-571.675	-107.998	-0.159	0.035
-570.661	-200.000	0.001	-0.061
-569.646	-109.851	-0.155	-0.033
-568.631	63.549	-0.110	-0.112
-567.617	-200.000	-0.007	0.233
-566.602	-112.487	-0.331	0.067
-565.588	-128.556	0.478	0.068
-564.573	800.000	-0.089	-0.252
-563.558	681.548	-0.115	-0.303
-562.544	12.625	0.292	-0.228
-561.529	-200.000	0.002	-0.243
-560.515	-127.230	0.283	-0.042
-559.500	-178.268	0.423	0.010
-558.485	-53.983	-0.252	0.116
-557.471	-53.673	0.239	0.110
-556.456	-114.187	-0.219	-0.043
-555.442	-200.000	0.001	0.060
-554.427	-32.392	0.242	0.137
-553.412	51.401	-0.350	-0.336
-552.398	800.000	-0.119	-0.469
-551.383	-200.000	0.008	0.171
-550.369	-155.894	0.383	-0.025
-549.354	-33.331	-0.173	0.097
-548.339	53.847	-0.254	-0.246
-547.325	186.938	0.053	0.080
-546.310	-200.000	0.017	0.288
-545.296	16.013	0.275	0.219
-544.281	636.578	0.027	0.068
-543.266	511.439	0.039	-0.092
-542.252	-200.000	-0.075	-0.400
-541.237	348.296	-0.071	0.141
-540.223	63.975	0.194	0.197
-539.208	22.527	-0.363	-0.300
-538.193	-173.711	-0.507	-0.015
-537.179	78.908	0.150	0.162
-536.164	-137.015	-0.299	0.035
-535.150	-113.130	-0.282	-0.056
-534.135	96.567	0.083	0.096
-533.121	51.989	-0.164	0.158
-532.106	240.809	0.071	0.120
-531.091	-200.000	0.011	-0.146
-530.077	-75.128	0.215	-0.078
-529.062	95.559	-0.141	0.162
-528.048	-200.000	0.066	0.303
-527.033	296.472	-0.123	0.227
-526.018	-120.902	-0.195	-0.033
-525.004	526.214	-0.098	-0.232
-523.989	172.878	0.136	-0.198
-522.975	-200.000	-0.010	-0.108
-521.960	278.427	0.082	0.147
-520.945	156.640	0.084	-0.118
-519.931	196.629	0.115	-0.177
-518.916	-53.064	-0.115	-0.053
-517.902	298.787	0.014	-0.026
-516.887	-121.446	-0.307	-0.052
-515.872	410.033	0.092	-0.197
-514.858	-200.000	0.006	-0.266
-513.843	-200.000	-0.028	-0.447
-512.829	-200.000	0.007	-0.125
-511.814	-121.439	-0.226	0.038
-510.799	-91.102	0.107	0.031
-509.785	27.861	-0.144	-0.122
-508.770	45.161	0.023	0.021
-507.756	77.174	0.118	0.127
-506.741	308.424	0.086	-0.161
-505.726	800.000	0.044	0.162
-504.712	-52.430	0.142	-0.066
-503.697	-29.983	-0.212	-0.122
-502.683	800.000	0.027	-0.104
-501.668	-111.819	-0.174	0.035
-500.653	800.000	-0.091	0.290
-499.639	-85.722	-0.309	-0.097
-498.624	-200.000	-0.022	-0.117
-497.610	-67.747	-0.250	0.098
-496.595	8.834	0.213	0.162
-495.581	38.908	-0.206	-0.186
-494.566	-27.291	-0.289	-0.170
-493.551	74.734	0.246	-0.261
-492.537	-117.934	-0.256	-0.046
-491.522	-136.724	-0.241	-0.028
-490.508	-157.062	0.568	0.035
-489.493	-44.871	0.052	0.026
-488.478	-37.689	0.209	-0.112
-487.464	399.009	-0.139	0.294
-486.449	800.000	0.026	-0.076
-485.435	-71.043	0.267	0.101
-484.420	800.000	-0.079	0.249
-483.405	-33.246	-0.240	-0.134
-482.391	14.935	-0.152	0.120
-481.376	222.623	0.190	0.308
-480.362	-200.000	-0.077	0.418
-479.347	-131.942	0.097	0.013
-478.332	125.599	0.128	-0.163
-477.318	393.271	-0.146	-0.306
-476.303	189.085	-0.309	-0.467
-475.289	442.587	0.156	0.345
-474.274	-142.860	-0.169	0.017
-473.259	-5.852	-0.262	0.181
-472.245	-200.000	-0.048	0.256
-471.230	-72.565	-0.230	-0.086
-470.216	-200.000	-0.040	-0.179
-469.201	98.869	0.151	-0.175
-468.186	-200.000	0.015	0.079
-467.172	-72.803	-0.269	-0.100
-466.157	508.789	-0.217	-0.508
-465.143	-182.490	-0.232	-0.004
-464.128	-176.557	-0.175	0.005
-463.113	-200.000	0.030	0.220
-462.099	-200.000	0.021	-0.360
-461.084	178.849	-0.041	-0.060
-460.070	10.884	0.237	0.183
-459.055	800.000	0.041	-0.161
-458.040	233.676	-0.085	0.141
-457.026	-130.998	0.319	0.043
-456.011	107.141	0.070	0.084
-454.997	584.332	0.062	0.155
-453.982	800.000	-0.044	0.145
-452.968	332.486	-0.124	0.240
-451.953	-72.578	-0.115	-0.043
-450.938	-166.705	-0.156	-0.007
-449.924	-200.000	-0.036	0.224
-448.909	76.605	-0.104	0.111
-447.895	699.403	-0.030	-0.079
-446.880	-93.487	0.307	-0.085
-445.865	320.350	-0.144	0.275
-444.851	800.000	-0.022	0.087
-443.836	-91.168	-0.092	-0.027
-442.822	-191.762	0.179	-0.002
-441.807	-200.000	0.001	-0.063
-440.792	800.000	0.053	-0.177
-439.778	-112.270	0.364	-0.073
-438.763	398.888	-0.095	-0.200
-437.749	44.695	-0.084	-0.078
-436.734	-90.758	0.386	0.112
-435.719	-200.000	0.008	0.053
-434.705	-141.456	-0.288	0.029
-433.690	-200.000	-0.067	0.367
-432.676	-30.210	0.191	-0.109
-431.661	-189.970	0.205	0.002
-430.646	-66.823	-0.106	-0.042
-429.632	-178.736	-0.131	-0.003
-428.617	-200.000	-0.013	-0.134
-427.603	153.032	0.065	0.089
-426.588	76.137	0.112	0.119
-425.573	-63.145	0.140	-0.058
-424.559	-131.669	-0.184	0.024
-423.544	666.708	0.096	0.250
-422.530	-93.326	0.183	-0.051
-421.515	-200.000	-0.004	0.174
-420.500	-119.454	0.037	0.007
-419.486	227.887	0.037	-0.060
-418.471	-159.591	-0.112	-0.006
-417.457	188.296	-0.164	-0.246
-416.442	-200.000	-0.007	-0.073
-415.428	-47.025	-0.052	0.026
-414.413	738.869	-0.160	0.430
-413.398	-200.000	0.045	-0.353
-412.384	-200.000	-0.001	0.081
-411.369	800.000	0.023	-0.079
-410.355	-2.464	0.107	-0.075
-409.340	-3.757	0.087	-0.061
-408.325	-200.000	-0.035	-0.257
-407.311	29.946	-0.103	-0.088
-406.296	-200.000	-0.020	-0.089
-405.282	-8.440	-0.215	-0.146
-404.267	-74.095	0.330	-0.120
-403.252	-200.000	-0.034	-0.266
-402.238	-79.707	0.062	-0.021
-401.223	-200.000	-0.021	-0.226
-400.209	45.083	-0.079	-0.074
-399.194	-61.256	-0.150	-0.063
-398.179	577.230	-0.018	-0.044
-397.165	-45.215	-0.202	0.101
-396.150	800.000	0.058	0.200
-395.136	84.389	-0.096	-0.105
-394.121	15.418	-0.209	-0.165
-393.106	221.591	0.065	0.105
-392.092	28.098	0.223	0.189
-391.077	800.000	0.041	0.145
-390.063	119.017	-0.100	0.124
-389.048	170.326	0.100	-0.143
-388.033	48.824	0.193	0.182
-387.019	-63.848	-0.312	0.128
-386.004	455.361	-0.197	0.439
-384.990	141.829	-0.170	-0.226
-383.975	10.538	-0.107	-0.082
-382.960	279.219	-0.097	-0.173
-381.946	-200.000	-0.002	0.181
-380.931	52.480	-0.122	0.117
-379.917	800.000	0.028	0.104
-378.902	-158.167	-0.191	0.011
-377.888	53.804	-0.148	0.143
-376.873	117.491	0.013	0.016
-375.858	800.000	0.054	0.188
-374.844	-7.256	0.371	0.252
-373.829	-111.590	0.135	-0.027
-372.815	-89.715	0.237	-0.070
-371.800	800.000	0.062	0.270
-370.785	800.000	-0.074	0.286
-369.771	156.436	-0.185	0.256
-368.756	800.000	-0.073	-0.219
-367.742	-31.347	-0.076	0.043
-366.727	130.016	0.215	-0.276
-365.712	56.113	-0.171	-0.166
-364.698	-181.696	0.287	-0.006
-363.683	800.000	0.034	-0.133
-362.669	-53.953	-0.096	0.044
-361.654	-158.785	-0.181	0.010
-360.639	68.877	0.172	-0.177
-359.625	518.461	-0.117	-0.275
-358.610	-57.397	-0.142	0.063
-357.596	-166.415	0.116	0.005
-356.581	349.809	0.180	-0.357
-355.566	475.989	-0.036	0.082
-354.552	-177.784	-0.266	-0.006
-353.537	41.929	0.069	0.063
-352.523	-200.000	0.050	0.263
-351.508	376.919	-0.122	0.250
-350.493	-45.527	0.260	-0.129
-349.479	-61.048	0.141	-0.060
-348.464	-200.000	0.006	-0.058
-347.450	-200.000	0.011	0.158
-346.435	108.296	0.064	-0.076
-345.420	118.504	0.172	0.213
-344.406	76.217	-0.224	0.238
-343.391	-200.000	0.037	0.221
-342.377	-80.891	-0.111	0.037
-341.362	34.685	0.056	-0.049
-340.348	163.094	-0.216	-0.304
-339.333	543.025	0.079	0.188
-338.318	800.000	-0.064	0.246
-337.304	-72.476	0.076	0.028
-336.289	108.372	-0.083	0.099
-335.275	-41.949	0.115	0.059
-334.260	-200.000	-0.036	0.209
-333.245	-130.164	0.152	0.021
-332.231	-105.862	0.186	-0.042
-331.216	-20.138	0.125	0.077
-330.202	226.279	0.120	-0.195
-329.187	-141.472	0.417	-0.042
-328.172	-193.371	-0.550	-0.005
-327.158	-42.221	-0.083	0.042
-326.143	-103.183	0.095	-0.023
-325.129	270.440	-0.131	0.231
-324.114	290.909	-0.064	0.117
-323.099	-129.962	0.328	-0.045
-322.085	127.573	0.028	0.036
-321.070	-44.874	-0.258	0.129
-320.056	58.038	0.138	0.135
-319.041	101.751	0.267	-0.312
-318.026	-116.435	0.151	-0.028
-317.012	-81.945	-0.151	-0.049
-315.997	88.345	0.109	0.121
-314.983	-200.000	-0.019	-0.240
-313.968	-32.711	-0.277	0.154
-312.953	-52.955	0.347	0.160
-311.939	-108.379	-0.081	-0.017
-310.924	71.766	0.068	0.071
-309.910	-81.311	0.241	-0.080
-308.895	262.539	-0.189	-0.329
-307.880	-95.846	0.087	0.023
-306.866	4.050	-0.118	-0.086
-305.851	-57.723	-0.134	0.059
-304.837	-200.000	-0.025	-0.129
-303.822	-200.000	0.002	0.267
-302.807	368.418	0.028	-0.056
-301.793	33.177	-0.211	0.183
-300.778	-53.691	-0.093	0.042
-299.764	800.000	0.026	0.112
-298.749	-200.000	0.009	0.049
-297.735	-32.461	0.157	0.088
-296.720	164.483	-0.063	0.088
-295.705	270.381	-0.064	0.113
-294.691	-73.701	-0.053	0.019
-293.676	-176.472	0.232	-0.006
-292.662	101.473	-0.193	0.225
-291.647	65.790	0.075	-0.076
-290.632	800.000	-0.083	-0.266
-289.618	-161.093	-0.205	-0.011
-288.603	-33.482	-0.082	0.045
-287.589	-173.432	0.395	0.012
-286.574	-60.849	0.197	0.083
-285.559	-61.787	0.063	0.026
-284.545	-200.000	-0.015	-0.123
-283.530	-200.000	0.013	0.069
-282.516	16.921	0.106	-0.084
-281.501	383.157	-0.114	0.235
-280.486	-75.167	0.123	0.044
-279.472	20.947	-0.216	0.175
-278.457	-27.151	0.267	-0.156
-277.443	183.900	-0.140	0.207
-276.428	-43.777	-0.212	-0.107
-275.413	239.101	-0.087	0.145
-274.399	-99.653	-0.189	0.047
-273.384	-169.469	-0.222	0.008
-272.370	800.000	0.113	0.322
-271.355	-200.000	-0.003	-0.327
-270.340	639.586	-0.116	0.294
-269.326	-51.161	0.331	-0.155
-268.311	162.016	-0.176	0.246
-267.297	-82.262	0.126	-0.041
-266.282	39.099	-0.118	0.106
-265.267	-5.721	-0.138	-0.095
-264.253	-103.045	-0.126	0.030
-263.238	-48.089	-0.361	0.174
-262.224	90.447	-0.103	-0.115
-261.209	800.000	-0.058	-0.188
-260.195	-200.000	-0.065	0.299
-259.180	19.650	-0.382	0.307
-258.165	-60.994	0.070	-0.030
-257.151	103.250	-0.092	0.108
-256.136	800.000	-0.122	-0.477
-255.122	60.020	-0.140	0.138
-254.107	392.085	0.032	0.067
-253.092	52.710	0.314	-0.300
-252.078	-200.000	0.036	0.193
-251.063	-115.240	0.154	0.029
-250.049	479.748	0.084	-0.191
-249.034	-200.000	0.013	0.119
-248.019	123.878	-0.175	-0.220
-247.005	-199.913	0.190	-0.001
-245.990	-134.226	0.078	-0.010
-244.976	275.417	0.114	-0.201
-243.961	-200.000	0.012	-0.059
-242.946	800.000	-0.071	-0.250
-241.932	-200.000	-0.013	-0.366
-240.917	800.000	-0.069	-0.276
-239.903	181.486	-0.165	-0.242
-238.888	-8.481	0.116	0.078
-237.873	296.795	0.146	-0.267
-236.859	51.075	0.368	-0.348
-235.844	22.788	0.089	-0.073
-234.830	-84.599	0.225	0.071
-233.815	215.466	0.085	-0.135
-232.800	86.417	0.256	-0.282
-231.786	-117.731	-0.102	0.018
-230.771	-115.562	-0.301	-0.057
-229.757	33.084	-0.115	-0.100
-228.742	-126.104	-0.180	-0.027
-227.727	-200.000	0.021	-0.346
-226.713	-200.000	0.010	-0.229
-225.698	39.251	-0.211	-0.188
-224.684	-200.000	0.003	-0.022
-223.669	-103.775	-0.171	-0.040
-222.655	-77.984	0.251	-0.086
-221.640	800.000	0.043	-0.123
-220.625	-66.029	-0.229	-0.091
-219.611	-200.000	-0.002	0.083
-218.596	194.764	0.225	-0.341
-217.582	-71.245	-0.189	0.071
-216.567	143.810	-0.172	0.229
-215.552	-21.051	0.066	0.040
-214.538	-44.815	-0.129	0.064
-213.523	6.170	-0.397	-0.293
-212.509	800.000	0.091	-0.310
-211.494	-200.000	-0.040	0.288
-210.479	800.000	-0.056	-0.155
-209.465	800.000	0.112	-0.351
-208.450	-38.025	0.181	0.096
-207.436	342.247	-0.092	0.179
-206.421	-113.187	0.201	0.040
-205.406	-200.000	0.041	-0.308
-204.392	-72.472	0.132	-0.049
-203.377	-158.494	-0.476	0.027
-202.363	800.000	0.072	0.215
-201.348	-87.771	0.355	0.107
-200.333	-200.000	-0.009	0.408
-199.319	800.000	0.118	0.387
-198.304	-67.846	-0.331	0.129
-197.290	-8.768	0.141	-0.094
-196.275	-23.818	0.153	0.091
-195.260	48.981	0.130	0.122
-194.246	-200.000	0.010	-0.152
-193.231	-61.869	0.359	-0.150
-192.217	-71.817	-0.106	-0.039
-191.202	159.939	-0.101	0.140
-190.187	561.743	-0.092	-0.221
-189.173	-4.405	0.169	-0.116
-188.158	-155.282	-0.180	0.012
-187.144	110.885	0.062	0.075
-186.129	-200.000	0.002	-0.038
-185.114	60.208	0.174	0.172
-184.100	-101.250	0.078	0.019
-183.085	-87.471	-0.194	-0.059
-182.071	-200.000	0.016	0.192
-181.056	-42.061	0.028	-0.014
-180.042	788.713	0.087	0.237
-179.027	-115.290	-0.136	-0.026
-178.012	-200.000	0.012	0.137
-176.998	-121.380	-0.087	0.014
-175.983	477.229	0.187	0.420
-174.969	50.276	0.385	0.362
-173.954	19.521	0.103	0.082
-172.939	111.590	0.065	-0.078
-171.925	-96.929	-0.292	-0.076
-170.910	299.625	0.223	0.409
-169.896	-107.648	0.350	0.076
-168.881	800.000	0.100	-0.409
-167.866	222.266	0.042	-0.067
-166.852	-45.247	-0.185	-0.091
-165.837	-46.004	0.107	0.052
-164.823	-200.000	-0.009	0.206
-163.808	-200.000	-0.021	-0.122
-162.793	24.258	0.033	-0.027
-161.779	12.828	-0.099	-0.076
-160.764	56.306	0.029	-0.028
-159.750	225.473	-0.172	-0.277
-158.735	-136.645	0.218	0.025
-157.720	-127.065	0.238	-0.035
-156.706	10.905	0.067	0.051
-155.691	4.221	-0.057	0.041
-154.677	-200.000	0.018	0.129
-153.662	194.414	0.172	0.260
-152.647	-111.223	0.268	0.055
-151.633	-200.000	0.032	-0.174
-150.618	18.213	-0.307	-0.243
-149.604	-108.367	0.150	-0.032
-148.589	-29.622	-0.280	0.159
-147.574	75.480	-0.088	0.093
-146.560	227.773	-0.137	0.221
-145.545	800.000	0.027	-0.111
-144.531	800.000	0.053	-0.155
-143.516	80.619	-0.070	-0.075
-142.502	180.895	0.047	-0.069
-141.487	800.000	-0.032	-0.116
-140.472	396.944	-0.098	0.203
-139.458	236.553	-0.097	-0.159
-138.443	-112.397	0.066	-0.013
-137.429	-25.536	-0.054	0.032
-136.414	-112.028	-0.335	0.067
-135.399	150.681	0.077	-0.104
-134.385	-53.705	-0.096	0.044
-133.370	172.897	-0.249	0.357
-132.356	313.160	-0.203	0.379
-131.341	-65.707	0.247	-0.098
-130.326	-80.451	0.042	-0.014
-129.312	800.000	-0.086	-0.237
-128.297	254.828	0.168	0.287
-127.283	43.714	-0.068	-0.062
-126.268	-62.845	-0.159	-0.065
-125.253	-106.839	-0.044	-0.010
-124.239	228.723	0.187	-0.304
-123.224	-95.426	-0.271	0.072
-122.210	285.709	-0.100	-0.180
-121.195	-103.194	-0.173	-0.041
-120.180	724.458	-0.161	0.426
-119.166	-131.032	0.119	-0.016
-118.151	-136.084	0.263	-0.031
-117.137	531.990	-0.094	-0.222
-116.122	48.212	-0.151	0.140
-115.107	-112.656	0.255	-0.050
-114.093	230.318	0.173	-0.281
-113.078	464.157	-0.038	0.084
-112.064	-47.623	-0.258	-0.124
-111.049	38.713	-0.044	-0.039
-110.034	398.335	0.099	-0.205
-109.020	102.165	0.172	0.200
-108.005	-48.809	-0.246	-0.117
-106.991	-139.672	0.333	-0.035
-105.976	-200.000	0.028	-0.192
-104.962	366.386	-0.096	-0.193
-103.947	-108.032	-0.216	-0.047
-102.932	-200.000	0.031	-0.195
-101.918	175.470	0.244	-0.352
-100.903	800.000	0.089	0.259
-99.889	-121.945	-0.103	0.017
-98.874	146.402	0.207	-0.276
-97.859	-78.789	-0.133	0.045
-96.845	469.259	-0.139	0.310
-95.830	-200.000	-0.022	-0.329
-94.816	194.007	0.112	-0.168
-93.801	-200.000	-0.054	-0.279
-92.786	-200.000	-0.058	-0.285
-91.772	-200.000	0.037	0.493
-90.757	409.690	0.065	0.136
-89.743	-8.751	-0.148	-0.098
-88.728	426.051	0.093	-0.198
-87.713	-32.115	-0.244	-0.136
-86.699	301.951	-0.071	-0.130
-85.684	-176.280	0.114	-0.003
-84.670	-119.997	0.288	0.049
-83.655	301.882	0.172	0.315
-82.640	-200.000	-0.042	0.199
-81.626	-190.917	0.100	0.001
-80.611	800.000	0.064	0.212
-79.597	115.973	0.165	-0.200
-78.582	-158.418	0.207	-0.012
-77.567	488.886	0.065	0.148
-76.553	-63.375	0.210	-0.086
-75.538	-95.479	-0.230	0.061
-74.524	800.000	-0.051	-0.205
-73.509	-200.000	-0.026	0.275
-72.494	-59.675	0.315	0.134
-71.480	-50.410	0.101	0.047
-70.465	-197.405	-0.248	-0.002
-69.451	-82.974	0.064	-0.020
-68.436	-200.000	-0.057	0.268
-67.422	-73.136	0.410	0.149
-66.407	800.000	-0.030	-0.094
-65.392	-103.653	-0.178	0.041
-64.378	-160.859	0.180	0.009
-63.363	13.968	-0.054	-0.042
-62.349	735.784	0.027	-0.073
-61.334	9.254	-0.889	-0.666
-60.319	800.000	0.231	0.678
-59.305	703.267	-0.345	-0.901
-58.290	246.720	0.710	1.187
-57.276	800.000	0.443	1.735
-56.261	-200.000	95.323	563.596
-55.246	635.576	1380.199	3472.419
-54.232	186.703	2598.109	3835.683
-53.217	122.386	2185.088	2706.655
-52.203	46.737	1637.045	1507.154
-51.188	38.357	1372.776	1212.151
-50.173	34.998	1330.471	1154.530
-49.159	56.062	1378.950	1326.408
-48.144	60.354	1397.041	1370.079
-47.130	38.752	1350.653	1194.834
-46.115	35.049	1333.610	1157.374
-45.100	34.877	1328.504	1151.864
-44.086	34.665	1326.058	1148.421
-43.071	34.714	1323.755	1146.677
-42.057	34.747	1321.839	1145.171
-41.042	34.762	1319.977	1143.600
-40.027	34.784	1318.353	1142.281
-39.013	34.753	1316.651	1140.574
-37.998	34.780	1314.431	1138.764
-36.984	34.883	1313.121	1138.197
-35.969	34.913	1310.863	1136.378
-34.954	34.907	1309.375	1135.008
-33.940	34.836	1308.341	1133.641
-32.925	34.874	1307.057	1132.712
-31.911	35.017	1304.770	1131.531
-30.896	34.941	1303.814	1130.207
-29.881	34.958	1302.412	1129.047
-28.867	34.996	1300.645	1127.691
-27.852	34.908	1299.808	1126.403
-26.838	34.968	1298.139	1125.266
-25.823	34.986	1296.815	1124.181
-24.809	34.938	1295.710	1122.896
-23.794	34.922	1293.936	1121.220
-22.779	34.936	1292.887	1120.351
-21.765	34.912	1291.708	1119.144
-20.750	34.852	1290.052	1117.314
-19.736	34.748	1289.427	1116.118
-18.721	34.806	1287.627	1114.856
-17.706	34.769	1286.431	1113.562
-16.692	34.777	1285.567	1112.811
-15.677	34.805	1284.019	1111.595
-14.663	34.853	1282.793	1110.768
-13.648	34.807	1281.983	1109.753
-12.633	34.751	1281.262	1108.761
-11.619	34.752	1280.341	1107.923
-10.604	34.783	1279.300	1107.163
-9.590	34.772	1278.066	1105.985
-8.575	34.746	1277.653	1105.434
-7.560	34.700	1276.602	1104.215
-6.546	34.729	1275.822	1103.661
-5.531	34.839	1274.641	1103.235
-4.517	34.715	1274.403	1102.267
-3.502	34.722	1273.697	1101.655
-2.487	34.752	1272.390	1100.653
-1.473	34.872	1268.005	1097.501
-0.458	33.834	1253.755	1079.232
0.556	32.140	1234.734	1038.471
1.571	27.703	1238.911	1017.212
2.586	26.044	1251.962	1018.481
3.600	24.249	1239.024	997.830
4.615	18.252	1166.025	907.262
5.629	9.550	1089.129	804.082
6.644	5.175	1068.495	767.315
7.659	4.902	1065.384	763.675
8.673	4.662	1064.117	761.526
9.688	4.642	1062.680	760.328
10.702	5.212	1062.013	762.569
11.717	10.855	1069.441	795.517
12.731	19.016	1081.023	844.280
13.746	21.999	1084.388	861.492
14.761	21.766	1083.520	859.584
15.775	20.774	1081.556	853.094
16.790	19.845	1078.905	846.385
17.804	19.088	1077.974	841.876
18.819	18.757	1076.802	839.269
19.834	18.600	1076.219	837.974
20.848	18.563	1075.121	836.863
21.863	18.337	1074.836	835.466
22.877	18.113	1074.005	833.655
23.892	18.130	1072.975	832.866
24.907	18.158	1072.205	832.331
25.921	18.109	1071.057	831.127
26.936	18.183	1069.864	830.486
27.950	18.170	1068.571	829.347
28.965	18.131	1067.335	828.122
29.980	18.436	1065.266	827.922
30.994	18.541	1064.709	827.918
32.009	18.497	1063.486	826.684
33.023	18.444	1062.564	825.640
34.038	18.296	1061.727	824.201
35.053	18.192	1060.801	822.911
36.067	18.128	1059.774	821.733
37.082	18.254	1058.725	821.453
38.096	18.421	1058.295	821.845
39.111	18.357	1057.553	820.892
40.126	18.261	1056.060	819.203
41.140	18.024	1054.353	816.672
42.155	18.025	1052.896	815.477
43.169	17.858	1052.092	813.986
44.184	17.946	1051.189	813.635
45.199	17.850	1050.086	812.252
46.213	17.918	1049.299	811.891
47.228	18.290	1048.101	812.659
48.242	18.260	1046.978	811.575
49.257	18.215	1046.442	810.876
50.271	18.364	1045.675	810.916
51.286	18.281	1045.225	810.099
52.301	18.206	1043.986	808.716
53.315	18.094	1042.979	807.335
54.330	18.094	1041.940	806.460
55.344	17.964	1040.991	805.040
56.359	17.997	1040.312	804.597
57.374	17.954	1039.762	803.900
58.388	17.776	1038.483	802.005
59.403	17.922	1037.230	801.651
60.417	17.851	1036.916	801.004
61.432	17.832	1035.980	800.122
62.447	17.723	1035.237	798.965
63.461	17.803	1033.972	798.294
64.476	17.721	1033.032	797.112
65.490	17.677	1032.561	796.474
66.505	17.721	1032.093	796.248
67.520	17.708	1031.316	795.518
68.534	17.883	1030.026	795.269
69.549	17.639	1029.537	793.683
70.563	17.612	1028.784	792.904
71.578	17.461	1028.221	791.701
72.593	17.527	1026.631	790.712
73.607	17.534	1026.393	790.489
74.622	17.492	1025.939	789.875
75.636	17.466	1025.620	789.438
76.651	17.624	1024.551	789.278
77.666	17.623	1023.669	788.527
78.680	17.527	1023.755	788.079
79.695	17.629	1022.746	787.705
80.709	17.751	1022.064	787.671
81.724	17.865	1021.230	787.485
82.739	18.052	1020.430	787.662
83.753	18.288	1019.390	787.875
84.768	18.389	1018.977	787.951
85.782	18.651	1018.327	788.580
86.797	18.546	1017.478	787.374
87.812	18.316	1016.681	785.633
88.826	18.338	1015.475	784.732
89.841	18.447	1014.548	784.445
90.855	18.479	1014.301	784.331
91.870	18.566	1013.100	783.732
92.884	18.391	1012.394	782.314
93.899	18.504	1011.243	781.871
94.914	18.626	1009.967	781.373
95.928	18.582	1009.434	780.690
96.943	18.375	1008.702	779.112
97.957	18.332	1008.137	778.414
98.972	18.498	1006.903	778.147
99.987	18.272	1006.236	776.535
101.001	18.459	1005.084	776.423
102.016	18.314	1004.805	775.485
103.030	18.445	1003.841	775.262
104.045	18.412	1003.280	774.611
105.060	18.222	1001.891	772.614
106.074	18.061	1000.970	771.107
107.089	17.864	999.800	769.253
108.103	17.700	998.850	767.713
109.118	17.704	997.772	766.836
110.133	17.706	997.056	766.224
111.147	17.832	995.539	765.559
112.162	17.901	994.901	765.307
113.176	17.919	994.695	765.165
114.191	17.876	994.318	764.612
115.206	18.100	992.883	764.446
116.220	17.954	992.079	763.105
117.235	17.909	991.270	762.213
118.249	17.839	990.681	761.380
119.264	17.752	989.782	760.234
120.279	17.692	989.038	759.329
121.293	17.704	988.054	758.561
122.308	17.691	987.081	757.688
123.322	17.711	985.735	756.677
124.337	17.588	984.973	755.479
125.352	17.571	984.225	754.764
126.366	17.606	983.010	753.921
127.381	17.676	981.973	753.366
128.395	17.799	980.691	752.859
129.410	17.817	979.983	752.331
130.424	17.804	979.572	751.890
131.439	17.933	978.898	751.873
132.454	18.056	977.979	751.644
133.468	18.021	977.601	751.131
134.483	18.049	976.135	750.064
135.497	18.010	975.190	749.099
136.512	18.059	974.763	748.920
137.527	18.027	974.135	748.230
138.541	18.047	973.507	747.770
139.556	18.001	973.243	747.297
140.570	18.135	972.220	747.033
141.585	18.380	971.316	747.340
142.600	18.355	970.630	746.637
143.614	18.482	969.891	746.557
144.629	18.442	969.251	745.823
145.643	18.418	968.217	744.858
146.658	18.353	966.370	743.090
147.673	18.191	965.661	741.774
148.687	18.136	964.858	740.855
149.702	17.938	964.134	739.379
150.716	18.046	962.975	738.887
151.731	18.074	962.183	738.337
152.746	18.133	962.083	738.448
153.760	18.135	961.331	737.816
154.775	18.239	960.921	737.886
155.789	18.208	960.547	737.398
156.804	18.176	959.551	736.431
157.819	18.278	959.298	736.608
158.833	18.440	958.190	736.389
159.848	18.615	957.371	736.448
160.862	18.376	956.450	734.649
161.877	18.274	955.096	733.109
162.892	18.004	954.258	731.244
163.906	18.009	953.005	730.241
164.921	18.100	952.029	729.815
165.935	18.211	951.346	729.700
166.950	18.154	950.462	728.715
167.964	18.281	949.615	728.545
168.979	18.225	948.413	727.319
169.994	18.086	947.783	726.180
171.008	18.271	947.430	726.631
172.023	18.426	946.846	726.778
173.037	18.589	946.003	726.755
174.052	18.451	945.131	725.439
175.067	18.215	944.118	723.597
176.081	18.124	943.220	722.459
177.096	18.108	943.080	722.221
178.110	18.178	942.438	721.962
179.125	18.025	942.319	721.159
180.140	18.304	941.516	721.658
181.154	18.387	941.172	721.684
182.169	18.489	940.983	721.904
183.183	18.672	940.271	722.061
184.198	18.507	939.380	720.619
185.213	18.488	938.610	719.886
186.227	18.553	938.190	719.773
187.242	18.605	937.525	719.417
188.256	18.751	936.918	719.501
189.271	18.818	936.055	719.056
190.286	18.570	934.595	716.834
191.300	18.072	934.160	714.353
192.315	17.965	933.393	713.256
193.329	18.042	932.777	713.046
194.344	18.322	932.518	713.952
195.359	18.364	931.632	713.384
196.373	18.399	931.543	713.400
197.388	18.523	931.464	713.791
198.402	18.730	930.720	714.021
199.417	18.918	929.896	714.104
200.432	18.865	929.639	713.625
201.446	18.840	929.599	713.428
202.461	19.088	928.682	713.689
203.475	18.962	927.913	712.515
204.490	18.670	927.032	710.564
205.504	18.689	926.359	710.066
206.519	18.659	924.820	708.696
207.534	18.636	924.122	708.005
208.548	18.728	923.630	707.945
209.563	18.751	922.976	707.476
210.577	18.749	922.747	707.229
211.592	18.927	922.403	707.639
212.607	19.056	921.250	707.219
213.621	18.961	920.541	706.222
214.636	18.889	919.706	705.226
215.650	18.790	919.667	704.724
216.665	19.015	918.232	704.483
217.680	19.088	917.865	704.439
218.694	19.145	917.486	704.322
219.709	19.055	916.653	703.249
220.723	18.878	916.420	702.287
221.738	18.916	915.455	701.641
222.753	19.022	914.419	701.218
223.767	19.152	914.245	701.549
224.782	19.180	913.589	701.098
225.796	19.287	913.099	701.095
226.811	19.137	912.125	699.678
227.826	18.957	911.372	698.306
228.840	19.101	910.333	698.030
229.855	18.919	909.883	696.888
230.869	18.923	909.120	696.257
231.884	19.076	908.375	696.244
232.899	18.970	907.689	695.227
233.913	18.897	906.501	693.964
234.928	18.707	906.186	692.894
235.942	18.737	905.957	692.777
236.957	18.674	905.279	691.943
237.972	18.833	904.817	692.170
238.986	18.814	903.959	691.375
240.001	18.758	903.539	690.766
241.015	18.820	903.051	690.586
242.030	18.963	902.362	690.568
243.045	19.043	901.568	690.222
244.059	19.082	901.203	690.040
245.074	19.112	900.286	689.395
246.088	19.234	899.839	689.479
247.103	19.321	899.280	689.337
248.117	19.423	899.045	689.506
249.132	19.627	898.831	690.096
250.147	19.812	898.130	690.233
251.161	19.816	897.689	689.852
252.176	19.828	896.933	689.256
253.190	19.928	896.085	688.942
254.205	19.904	895.519	688.351
255.220	19.867	894.826	687.609
256.234	19.880	893.925	686.909
257.249	19.900	893.421	686.538
258.263	19.839	892.611	685.614
259.278	19.844	892.086	685.171
260.293	19.910	891.719	685.087
261.307	19.993	891.251	684.997
262.322	20.190	890.410	685.068
263.336	20.083	889.696	684.034
264.351	19.986	889.206	683.215
265.366	19.926	888.630	682.478
266.380	20.037	887.586	682.052
267.395	19.998	887.144	681.499
268.409	19.878	886.109	680.169
269.424	19.831	885.379	679.365
270.439	19.849	884.869	678.987
271.453	19.788	883.892	677.937
272.468	19.562	883.609	676.773
273.482	19.690	882.941	676.704
274.497	19.775	882.199	676.408
275.512	19.837	881.639	676.158
276.526	19.784	881.552	675.828
277.541	20.042	880.723	676.139
278.555	20.129	880.354	676.135
279.570	20.204	879.710	675.874
280.585	20.257	878.473	675.068
281.599	19.994	877.892	673.539
282.614	20.010	877.168	672.988
283.628	20.001	876.578	672.438
284.643	19.856	875.941	671.329
285.657	19.981	875.323	671.278
286.672	19.965	874.676	670.663
287.687	20.076	874.372	670.800
288.701	19.951	873.873	669.872
289.716	19.928	873.463	669.410
290.730	20.107	872.428	669.251
291.745	20.226	871.602	669.018
292.760	20.062	871.551	668.285
293.774	20.290	870.999	668.683
294.789	20.201	870.210	667.673
295.803	20.067	869.602	666.634
296.818	20.068	868.511	665.742
297.833	20.033	868.096	665.229
298.847	20.221	867.307	665.289
299.862	20.200	866.586	664.595
300.876	20.175	866.631	664.477
301.891	20.301	866.133	664.518
302.906	20.459	865.734	664.756
303.920	20.570	865.355	664.832
304.935	20.625	864.398	664.249
305.949	20.447	863.671	662.950
306.964	20.267	863.266	661.894
307.979	20.425	862.620	661.945
308.993	20.481	861.994	661.618
310.008	20.381	861.353	660.689
311.022	20.389	860.902	660.311
312.037	20.304	860.189	659.385
313.052	20.027	859.415	657.681
314.066	20.131	858.645	657.429
315.081	20.074	857.976	656.641
316.095	20.096	857.667	656.431
317.110	20.234	856.816	656.243
318.125	20.101	856.610	655.524
319.139	20.204	855.991	655.382
320.154	20.254	855.476	655.119
321.168	20.342	854.940	654.981
322.183	20.431	853.860	654.434
323.197	20.328	854.027	654.113
324.212	20.341	853.645	653.812
325.227	20.224	852.695	652.588
326.241	20.252	852.159	652.226
327.256	20.319	851.467	651.888
328.270	20.415	850.835	651.708
329.285	20.194	850.393	650.484
330.300	20.200	849.650	649.880
331.314	20.257	849.497	649.917
332.329	20.391	848.848	649.866
333.343	20.503	848.781	650.175
334.358	20.560	848.358	650.007
335.373	20.562	847.897	649.604
336.387	20.618	847.677	649.586
337.402	20.788	847.345	649.909
338.416	20.852	847.150	649.942
339.431	20.855	846.638	649.503
340.446	21.014	846.241	649.731
341.460	21.058	846.122	649.749
342.475	21.044	845.709	649.321
343.489	21.090	845.364	649.169
344.504	21.182	844.898	649.098
345.519	21.103	844.487	648.428
346.533	21.121	843.312	647.538
347.548	20.883	842.617	646.063
348.562	20.766	842.174	645.234
349.577	20.783	841.259	644.537
350.592	20.669	840.505	643.482
351.606	20.725	839.837	643.122
352.621	20.738	839.199	642.622
353.635	20.777	838.980	642.543
354.650	20.756	838.302	641.888
355.665	20.957	837.302	641.807
356.679	20.902	837.194	641.466
357.694	21.011	836.512	641.286
358.708	20.940	836.036	640.602
359.723	20.811	835.548	639.699
360.738	20.876	834.752	639.270
361.752	20.940	834.114	638.960
362.767	21.207	833.371	639.313
363.781	21.244	833.366	639.387
364.796	21.309	832.745	639.092
365.810	21.300	832.865	639.096
366.825	21.351	832.350	638.830
367.840	21.303	831.726	638.119
368.854	21.166	831.444	637.347
369.869	21.230	830.680	636.938
370.883	21.172	830.451	636.494
371.898	21.427	829.657	636.760
372.913	21.488	829.278	636.634
373.927	21.457	829.051	636.288
374.942	21.497	828.250	635.763
375.956	21.567	827.713	635.548
376.971	21.575	827.435	635.308
377.986	21.621	827.264	635.289
379.000	21.748	826.597	635.182
380.015	21.689	825.796	634.294
381.029	21.670	825.479	633.927
382.044	21.620	825.097	633.397
383.059	21.644	824.588	633.035
384.073	21.558	823.697	631.985
385.088	21.426	822.992	630.913
386.102	21.292	822.589	630.064
387.117	21.354	821.729	629.572
388.132	21.403	821.183	629.276
389.146	21.363	820.699	628.706
390.161	21.604	820.325	629.230
391.175	21.624	819.912	628.927
392.190	21.479	819.628	628.136
393.205	21.420	819.097	627.459
394.219	21.530	818.283	627.175
395.234	21.333	817.848	626.082
396.248	21.127	817.690	625.168
397.263	21.132	817.195	624.752
398.278	21.147	816.637	624.321
399.292	21.233	816.293	624.313
400.307	21.042	816.113	623.435
401.321	21.213	815.451	623.487
402.336	21.345	814.882	623.466
403.350	21.335	814.959	623.436
404.365	21.456	814.357	623.350
405.380	21.677	813.810	623.664
406.394	21.733	812.983	623.173
407.409	21.859	812.472	623.173
408.423	21.865	812.658	623.284
409.438	22.063	811.970	623.403
410.453	22.125	811.514	623.217
411.467	22.060	811.264	622.739
412.482	22.037	811.122	622.496
413.496	22.162	810.709	622.566
414.511	22.086	810.582	622.143
415.526	21.998	809.679	621.086
416.540	21.999	808.830	620.381
417.555	22.065	808.754	620.501
418.569	22.042	808.294	620.010
419.584	22.011	807.625	619.334
420.599	22.109	807.167	619.274
421.613	158.885	1369.125	1788.117
422.628	138.134	1451.031	1788.229
