DTS Sentinel unit serial number:	SN413079Multiplexer serial number:	ORYXHardware model number:	OX4-SRSoftware version number:	ORYX F/W v4.00 Oryx Data Collector v3.7.2.0data status	okinstallation	princeton_trtdifferential loss correction	single-endedforward channel	channel 1reverse channel	N/Adate	2019/09/15time	14:14:35forward acquisition time	60.00reverse acquisition time	0.00gamma	496.2192k internal	0.2291k external	0.2291temperature offset calibration	0.9968default loss term (dB/km)	0.3790temperature slope calibration	1.0000multiplexer offset coefficient	1.0000multiplexer slope coefficient	1.0000fibre end	0.00T internal ref (°C)	38.87T ext. ref 1 (°C)	4.97T ext. ref 2 (°C)	36.15length (m)	temperature (°C)	Stokes	anti-Stokes-747.200	-200.000	0.043	0.244
-746.185	-200.000	0.002	-0.041
-745.171	-120.599	0.134	-0.023
-744.156	-89.420	-0.306	-0.092
-743.142	-187.459	-0.289	0.004
-742.127	48.685	-0.091	0.088
-741.112	161.276	0.090	0.129
-740.098	50.798	-0.291	0.282
-739.083	-75.795	0.080	0.029
-738.069	-89.906	0.244	-0.073
-737.054	-168.111	0.217	-0.009
-736.039	-150.315	-0.061	0.005
-735.025	-73.404	-0.155	0.058
-734.010	-200.000	-0.009	0.096
-732.996	-200.000	-0.029	0.147
-731.981	-96.757	0.129	0.035
-730.966	128.041	-0.179	0.232
-729.952	85.633	-0.092	-0.103
-728.937	-51.706	0.452	-0.216
-727.923	-200.000	-0.066	0.369
-726.908	-163.687	-0.110	0.005
-725.894	-62.793	-0.273	-0.116
-724.879	487.094	-0.116	-0.270
-723.864	800.000	0.116	-0.396
-722.850	595.341	0.058	0.146
-721.835	35.828	0.067	0.060
-720.821	-200.000	-0.056	0.307
-719.806	800.000	-0.038	0.136
-718.791	-76.101	0.114	0.041
-717.777	-200.000	-0.026	0.255
-716.762	800.000	-0.020	-0.078
-715.748	271.858	-0.206	-0.371
-714.733	-200.000	0.018	0.164
-713.718	-200.000	-0.063	0.350
-712.704	-200.000	-0.024	-0.236
-711.689	-112.313	-0.224	-0.046
-710.675	-200.000	0.011	0.233
-709.660	-53.927	-0.279	0.130
-708.645	2.126	-0.179	-0.133
-707.631	-200.000	0.047	-0.284
-706.616	-46.919	0.080	-0.040
-705.602	-200.000	-0.064	-0.401
-704.587	118.483	-0.029	-0.036
-703.572	293.972	0.105	-0.197
-702.558	-27.525	-0.138	-0.082
-701.543	800.000	-0.026	0.109
-700.529	-200.000	-0.024	0.165
-699.514	-83.117	-0.116	0.038
-698.499	-82.575	0.052	-0.017
-697.485	-200.000	-0.010	0.091
-696.470	-28.884	0.113	-0.066
-695.456	-200.000	-0.067	0.330
-694.441	170.888	0.085	0.124
-693.426	12.573	0.186	-0.147
-692.412	-16.809	0.232	-0.150
-691.397	-43.662	-0.267	-0.138
-690.383	-65.744	-0.253	-0.104
-689.368	303.011	-0.099	0.187
-688.354	800.000	0.017	-0.069
-687.339	-71.663	-0.365	-0.139
-686.324	-200.000	-0.024	-0.142
-685.310	105.659	-0.109	-0.131
-684.295	-65.217	-0.168	0.069
-683.281	-64.613	-0.541	0.224
-682.266	800.000	0.068	-0.303
-681.251	56.590	0.122	0.122
-680.237	-143.006	-0.408	0.040
-679.222	221.265	-0.225	-0.369
-678.208	-186.447	-0.291	0.004
-677.193	-200.000	-0.001	-0.207
-676.178	800.000	0.040	0.158
-675.164	-25.092	-0.143	0.087
-674.149	269.803	0.088	-0.159
-673.135	-34.765	-0.227	-0.127
-672.120	-122.252	-0.301	0.050
-671.105	-129.766	-0.050	-0.007
-670.091	72.354	0.089	-0.095
-669.076	-200.000	-0.014	-0.226
-668.062	-81.062	-0.252	-0.085
-667.047	-10.831	-0.073	-0.049
-666.032	-200.000	-0.028	-0.327
-665.018	-200.000	-0.068	0.331
-664.003	344.270	0.095	-0.191
-662.989	-31.508	0.080	-0.046
-661.974	-200.000	0.046	-0.240
-660.959	280.193	0.075	-0.137
-659.945	-200.000	-0.018	0.221
-658.930	654.925	-0.047	-0.123
-657.916	-51.378	-0.279	0.133
-656.901	-116.374	-0.064	-0.012
-655.886	397.973	-0.151	0.322
-654.872	-124.528	0.080	0.013
-653.857	-200.000	-0.029	-0.257
-652.843	-130.830	-0.319	0.044
-651.828	18.485	0.184	0.150
-650.814	-200.000	0.007	-0.070
-649.799	88.414	-0.122	0.139
-648.784	-131.447	-0.099	0.013
-647.770	-57.472	0.276	-0.124
-646.755	-97.018	0.320	-0.086
-645.741	-23.197	-0.179	-0.110
-644.726	800.000	0.016	0.067
-643.711	800.000	0.169	0.569
-642.697	241.028	-0.111	0.188
-641.682	800.000	-0.076	0.315
-640.668	-200.000	-0.027	-0.164
-639.653	-140.202	0.216	0.023
-638.638	-96.893	0.435	-0.116
-637.624	5.734	-0.316	0.238
-636.609	-200.000	0.160	0.000
-635.595	205.156	-0.149	0.235
-634.580	38.891	0.155	-0.142
-633.565	-44.318	-0.202	0.103
-632.551	21.014	-0.092	0.076
-631.536	430.383	-0.071	-0.156
-630.522	39.996	0.149	-0.136
-629.507	-134.657	-0.116	0.014
-628.492	578.124	-0.132	0.328
-627.478	-34.756	-0.037	-0.021
-626.463	-116.234	0.284	-0.054
-625.449	20.142	-0.109	0.090
-624.434	-65.771	0.324	0.132
-623.419	-7.760	-0.143	-0.099
-622.405	-83.296	0.157	-0.051
-621.390	22.042	0.061	-0.051
-620.376	800.000	-0.050	-0.182
-619.361	191.730	0.110	0.169
-618.346	-200.000	-0.016	-0.182
-617.332	-102.019	-0.158	0.039
-616.317	-125.731	-0.103	-0.016
-615.303	-154.617	-0.095	-0.006
-614.288	14.806	-0.216	-0.172
-613.273	411.550	0.096	-0.208
-612.259	-200.000	-0.055	-0.252
-611.244	-200.000	-0.002	-0.119
-610.230	800.000	0.051	0.195
-609.215	-36.823	0.112	0.061
-608.201	34.274	0.181	-0.161
-607.186	-101.260	0.269	-0.067
-606.171	800.000	0.100	-0.327
-605.157	-44.474	-0.239	-0.122
-604.142	-200.000	-0.006	-0.085
-603.128	149.324	0.123	0.170
-602.113	-57.688	-0.345	-0.154
-601.098	-91.874	-0.177	-0.051
-600.084	-38.256	-0.059	-0.032
-599.069	-99.941	0.297	0.075
-598.055	-61.429	-0.089	-0.038
-597.040	-200.000	-0.033	-0.282
-596.025	-50.065	0.261	-0.126
-595.011	-139.733	-0.346	0.037
-593.996	-147.230	0.191	0.017
-592.982	-200.000	0.003	0.044
-591.967	28.137	-0.168	-0.145
-590.952	3.188	0.072	-0.053
-589.938	224.141	0.124	-0.205
-588.923	82.873	0.143	-0.158
-587.909	-76.591	0.358	-0.128
-586.894	-200.000	0.011	-0.168
-585.879	-120.046	-0.134	-0.023
-584.865	800.000	-0.060	0.187
-583.850	252.523	-0.075	-0.130
-582.836	-126.241	0.167	-0.025
-581.821	-140.921	-0.450	0.047
-580.806	-84.538	0.052	0.017
-579.792	66.446	-0.107	0.110
-578.777	257.469	-0.049	0.087
-577.763	-133.826	-0.165	-0.021
-576.748	-36.890	-0.261	0.142
-575.733	80.763	-0.189	0.208
-574.719	-200.000	0.015	0.298
-573.704	-63.160	-0.124	-0.052
-572.690	248.441	0.069	0.119
-571.675	-153.570	-0.335	0.024
-570.661	10.960	-0.127	0.099
-569.646	-134.717	-0.469	-0.058
-568.631	-108.503	-0.141	-0.031
-567.617	331.481	0.103	0.201
-566.602	-200.000	0.000	0.173
-565.588	310.437	-0.100	-0.191
-564.573	131.329	0.152	0.198
-563.558	-180.689	0.153	-0.003
-562.544	-33.964	0.162	-0.090
-561.529	-200.000	-0.072	-0.335
-560.515	2.824	-0.016	0.012
-559.500	38.512	0.175	-0.159
-558.485	2.893	-0.121	0.090
-557.471	114.959	-0.051	0.063
-556.456	52.148	0.127	-0.123
-555.442	-136.166	0.163	-0.019
-554.427	-95.542	-0.372	0.101
-553.412	303.046	-0.088	-0.166
-552.398	-7.082	-0.197	-0.136
-551.383	80.554	-0.202	-0.221
-550.369	-200.000	0.023	-0.175
-549.354	502.624	-0.089	0.209
-548.339	662.234	-0.082	0.214
-547.325	800.000	-0.023	0.078
-546.310	651.828	0.034	-0.089
-545.296	15.549	-0.077	-0.062
-544.281	800.000	-0.058	-0.217
-543.266	65.462	-0.228	-0.234
-542.252	-62.801	-0.084	0.035
-541.237	-104.818	0.266	-0.062
-540.223	-15.570	0.094	-0.061
-539.208	800.000	0.090	-0.258
-538.193	-44.488	-0.251	0.128
-537.179	274.006	0.125	-0.225
-536.164	-68.417	0.259	0.102
-535.150	-50.203	-0.099	0.048
-534.135	-200.000	-0.027	0.138
-533.121	-50.249	0.151	-0.072
-532.106	170.611	0.005	-0.008
-531.091	85.418	0.132	0.147
-530.077	615.637	0.037	-0.095
-529.062	-44.371	0.311	0.158
-528.048	136.755	-0.022	-0.029
-527.033	9.903	0.123	-0.095
-526.018	-114.288	-0.247	-0.048
-525.004	129.203	0.185	-0.240
-523.989	65.307	-0.219	-0.224
-522.975	-22.113	0.417	-0.257
-521.960	50.191	0.228	-0.219
-520.945	83.249	0.062	0.068
-519.931	124.176	-0.218	-0.278
-518.916	146.403	-0.067	0.092
-517.902	-31.304	0.209	0.120
-516.887	-80.861	-0.271	0.091
-515.872	800.000	-0.106	0.304
-514.858	-116.986	0.105	-0.020
-513.843	-200.000	0.036	0.285
-512.829	-79.630	0.133	0.046
-511.814	353.078	0.067	0.134
-510.799	-107.494	-0.138	-0.031
-509.785	36.772	-0.100	-0.090
-508.770	-31.295	0.069	-0.039
-507.756	618.914	-0.058	0.149
-506.741	91.263	0.048	0.055
-505.726	-122.661	-0.218	-0.036
-504.712	-62.383	0.158	-0.067
-503.697	168.146	0.123	-0.178
-502.683	-107.914	0.151	0.033
-501.668	-32.387	-0.365	0.206
-500.653	-9.250	0.259	-0.175
-499.639	-157.265	0.157	0.010
-498.624	-59.118	0.170	-0.074
-497.610	103.115	-0.161	0.191
-496.595	407.172	0.069	-0.147
-495.581	86.456	-0.240	-0.268
-494.566	26.278	-0.190	0.161
-493.551	-200.000	0.012	-0.084
-492.537	-54.967	-0.043	0.020
-491.522	-200.000	0.045	-0.405
-490.508	152.629	-0.063	-0.087
-489.493	-200.000	0.004	0.289
-488.478	800.000	-0.056	-0.177
-487.464	87.440	-0.148	-0.166
-486.449	7.877	-0.159	-0.121
-485.435	-79.102	0.470	0.162
-484.420	51.744	0.138	0.133
-483.405	-200.000	-0.023	-0.218
-482.391	-67.990	0.209	0.083
-481.376	64.871	0.080	-0.081
-480.362	-131.136	0.258	-0.035
-479.347	-45.237	0.212	0.107
-478.332	-5.020	-0.081	-0.056
-477.318	-62.844	0.400	-0.168
-476.303	-200.000	0.007	0.075
-475.289	398.308	0.101	-0.213
-474.274	800.000	0.075	-0.278
-473.259	-200.000	-0.018	-0.132
-472.245	218.076	-0.257	0.415
-471.230	-14.069	-0.266	0.174
-470.216	-58.172	0.239	-0.106
-469.201	-200.000	0.007	0.127
-468.186	279.955	-0.074	-0.134
-467.172	37.602	-0.189	-0.170
-466.157	136.782	0.150	0.199
-465.143	800.000	0.066	0.200
-464.128	98.213	0.098	-0.114
-463.113	115.375	-0.137	-0.169
-462.099	219.517	-0.079	-0.129
-461.084	-16.972	-0.252	-0.161
-460.070	3.287	-0.273	0.201
-459.055	307.043	0.146	-0.275
-458.040	41.043	-0.147	0.134
-457.026	-71.619	-0.160	-0.060
-456.011	-200.000	0.067	0.359
-454.997	29.327	-0.342	0.294
-453.982	84.901	-0.179	-0.199
-452.968	800.000	0.053	-0.223
-451.953	-110.706	0.027	-0.006
-450.938	-59.926	0.210	-0.091
-449.924	33.086	0.161	0.141
-448.909	-149.179	0.050	-0.004
-447.895	18.255	0.052	-0.042
-446.880	28.284	-0.183	0.156
-445.865	-156.831	-0.080	-0.005
-444.851	46.016	0.077	-0.072
-443.836	-159.085	-0.209	0.012
-442.822	-76.691	0.082	0.029
-441.807	-38.136	-0.323	0.174
-440.792	299.201	-0.056	-0.105
-439.778	-200.000	0.040	0.328
-438.763	158.539	0.113	0.159
-437.749	499.889	-0.096	0.225
-436.734	93.416	0.169	-0.194
-435.719	435.521	-0.160	0.352
-434.705	-200.000	-0.009	-0.151
-433.690	-200.000	0.054	0.305
-432.676	17.123	-0.181	-0.145
-431.661	-111.224	-0.068	-0.014
-430.646	232.945	0.255	0.424
-429.632	623.626	0.062	0.158
-428.617	-200.000	0.012	0.179
-427.603	-200.000	0.042	-0.202
-426.588	63.706	-0.168	0.170
-425.573	-128.162	0.093	0.013
-424.559	-60.348	0.111	0.048
-423.544	22.100	-0.348	-0.287
-422.530	-117.508	0.338	0.062
-421.515	96.459	-0.116	-0.135
-420.500	-89.141	-0.105	-0.031
-419.486	99.428	-0.120	0.140
-418.471	44.325	0.063	-0.059
-417.457	800.000	-0.076	0.332
-416.442	47.191	0.071	0.067
-415.428	-30.165	0.234	-0.134
-414.413	-79.577	-0.101	0.035
-413.398	247.405	-0.088	0.150
-412.384	-26.458	0.128	0.076
-411.369	-56.799	0.161	0.072
-410.355	-46.613	-0.282	0.140
-409.340	800.000	0.085	0.318
-408.325	267.209	0.040	0.071
-407.311	-120.762	0.085	-0.014
-406.296	-96.106	0.107	-0.029
-405.282	48.726	-0.127	-0.120
-404.267	-100.271	-0.270	0.068
-403.252	78.038	-0.150	-0.161
-402.238	-148.751	-0.151	-0.012
-401.223	11.278	0.323	-0.250
-400.209	464.179	-0.102	-0.231
-399.194	-200.000	-0.010	0.145
-398.179	37.928	0.163	0.147
-397.165	-200.000	0.020	-0.249
-396.150	49.714	-0.196	-0.187
-395.136	-68.028	-0.142	0.056
-394.121	145.784	0.272	-0.368
-393.106	-78.066	0.118	-0.041
-392.092	-183.708	-0.153	0.003
-391.077	800.000	-0.062	0.232
-390.063	216.740	0.082	0.131
-389.048	-75.745	-0.248	0.089
-388.033	622.789	0.051	0.131
-387.019	11.541	-0.175	0.135
-386.004	-77.205	-0.152	-0.053
-384.990	-11.325	0.065	-0.043
-383.975	-48.107	0.052	0.025
-382.960	-40.657	0.163	0.085
-381.946	-120.592	0.129	-0.022
-380.931	-133.563	-0.127	-0.016
-379.917	98.815	0.196	-0.229
-378.902	-125.792	-0.229	0.035
-377.888	-200.000	-0.029	0.000
-376.873	-87.568	-0.157	0.048
-375.858	-1.768	0.198	-0.141
-374.844	-200.000	-0.014	-0.166
-373.829	-200.000	-0.058	-0.321
-372.815	-200.000	0.001	-0.009
-371.800	63.751	-0.144	-0.146
-370.785	-117.766	0.206	-0.037
-369.771	142.865	0.233	0.312
-368.756	616.958	0.126	-0.320
-367.742	773.338	0.115	-0.315
-366.727	800.000	0.110	0.444
-365.712	-111.014	0.189	0.039
-364.698	-200.000	0.024	0.190
-363.683	36.588	-0.013	-0.012
-362.669	-200.000	-0.359	0.000
-361.654	800.000	-0.083	0.280
-360.639	-200.000	-0.006	0.073
-359.625	387.715	-0.043	0.089
-358.610	331.379	0.065	-0.126
-357.596	-76.328	0.215	-0.077
-356.581	-34.306	-0.384	0.212
-355.566	-95.470	-0.175	-0.047
-354.552	-126.069	0.114	-0.017
-353.537	-200.000	0.027	0.349
-352.523	33.025	0.227	-0.199
-351.508	-150.001	-0.181	0.014
-350.493	278.504	-0.178	0.321
-349.479	687.095	-0.050	0.132
-348.464	177.100	0.090	-0.132
-347.450	-200.000	0.027	0.178
-346.435	800.000	-0.063	-0.264
-345.420	-59.640	0.183	0.079
-344.406	40.416	-0.169	0.154
-343.391	-128.229	-0.370	-0.053
-342.377	15.465	0.300	0.237
-341.362	70.325	-0.227	-0.236
-340.348	-35.989	0.181	0.099
-339.333	-71.577	-0.428	-0.161
-338.318	292.628	0.103	0.189
-337.304	438.424	0.021	-0.047
-336.289	-200.000	-0.003	-0.147
-335.275	211.256	-0.211	0.335
-334.260	111.491	-0.136	0.166
-333.245	-5.929	-0.233	0.161
-332.231	336.760	0.008	-0.015
-331.216	235.431	-0.097	-0.162
-330.202	-200.000	-0.005	-0.024
-329.187	-14.433	0.155	-0.100
-328.172	554.232	0.058	0.140
-327.158	151.155	-0.109	0.149
-326.143	-11.984	0.278	0.184
-325.129	264.528	0.133	-0.233
-324.114	800.000	0.085	-0.294
-323.099	171.097	-0.098	0.142
-322.085	-144.832	0.270	0.025
-321.070	-12.994	-0.073	0.048
-320.056	195.600	-0.088	0.135
-319.041	65.534	0.082	0.084
-318.026	800.000	-0.043	0.160
-317.012	209.563	-0.196	0.309
-315.997	-57.632	0.252	-0.111
-314.983	210.788	-0.208	0.329
-313.968	-77.092	-0.340	-0.119
-312.953	80.660	-0.034	0.037
-311.939	188.028	-0.020	-0.031
-310.924	-137.002	0.138	-0.016
-309.910	240.675	-0.178	-0.299
-308.895	-46.346	0.300	0.149
-307.880	88.776	-0.405	0.454
-306.866	-39.328	0.164	0.087
-305.851	-200.000	-0.024	0.148
-304.837	745.635	-0.102	-0.277
-303.822	123.682	-0.126	-0.159
-302.807	73.463	0.199	0.210
-301.793	-200.000	0.003	0.066
-300.778	179.932	0.042	-0.062
-299.764	1.768	-0.123	0.089
-298.749	800.000	-0.053	0.176
-297.735	-200.000	0.030	0.156
-296.720	-18.000	-0.363	-0.229
-295.705	477.268	0.095	0.216
-294.691	-200.000	-0.028	-0.251
-293.676	100.773	-0.266	-0.311
-292.662	-200.000	0.001	-0.107
-291.647	-115.462	-0.035	-0.007
-290.632	-200.000	0.006	-0.035
-289.618	-175.596	0.357	-0.010
-288.603	180.331	0.173	-0.256
-287.589	31.503	-0.382	-0.331
-286.574	-50.123	-0.080	-0.038
-285.559	-26.332	0.107	-0.063
-284.545	276.178	0.068	-0.122
-283.530	-12.781	0.163	0.107
-282.516	-57.297	0.071	0.032
-281.501	800.000	-0.014	0.053
-280.486	583.627	0.050	-0.125
-279.472	800.000	-0.043	0.172
-278.457	-200.000	-0.004	-0.025
-277.443	45.579	0.225	0.209
-276.428	88.721	0.024	-0.027
-275.413	-4.601	0.143	0.099
-274.399	748.758	0.029	0.078
-273.384	-200.000	0.045	0.282
-272.370	505.867	-0.027	0.064
-271.355	-92.720	0.303	0.085
-270.340	-160.467	0.395	-0.021
-269.326	124.587	-0.271	0.342
-268.311	-200.000	0.034	0.342
-267.297	800.000	-0.040	-0.132
-266.282	-102.563	0.595	0.143
-265.267	-85.936	0.117	0.036
-264.253	52.113	-0.145	0.139
-263.238	185.390	0.079	-0.118
-262.224	-41.992	0.104	0.054
-261.209	168.519	-0.117	-0.167
-260.195	642.183	-0.216	-0.553
-259.180	4.561	0.169	-0.125
-258.165	800.000	-0.054	0.171
-257.151	88.472	0.079	-0.088
-256.136	-113.027	-0.265	0.053
-255.122	-77.355	0.080	-0.028
-254.107	204.409	-0.085	0.132
-253.092	149.451	-0.096	0.130
-252.078	217.027	-0.064	-0.102
-251.063	-101.127	-0.468	0.115
-250.049	-75.613	0.027	-0.010
-249.034	-41.619	-0.222	0.115
-248.019	-97.407	0.272	-0.071
-247.005	368.375	0.078	-0.158
-245.990	-157.399	0.316	0.019
-244.976	125.454	0.025	-0.032
-243.961	437.858	-0.036	0.078
-242.946	-64.205	-0.121	0.050
-241.932	-120.882	0.338	-0.057
-240.917	-200.000	-0.007	-0.127
-239.903	-137.719	0.237	0.027
-238.888	-194.726	-0.328	-0.003
-237.873	-37.826	-0.066	0.035
-236.859	-200.000	-0.051	-0.343
-235.844	-30.031	0.501	-0.286
-234.830	-48.679	-0.322	-0.155
-233.815	116.000	-0.217	0.266
-232.800	-147.962	0.115	0.010
-231.786	-102.230	-0.249	0.060
-230.771	-200.000	0.027	0.238
-229.757	-73.633	0.143	0.052
-228.742	-200.000	-0.024	-0.219
-227.727	-200.000	0.024	-0.208
-226.713	800.000	0.058	-0.231
-225.698	-70.248	-0.151	-0.058
-224.684	-200.000	0.013	-0.262
-223.669	-50.310	0.329	-0.156
-222.655	-200.000	0.043	0.437
-221.640	96.770	0.368	0.423
-220.625	223.224	0.112	0.181
-219.611	-200.000	-0.014	0.102
-218.596	136.941	0.228	-0.299
-217.582	-200.000	0.047	0.292
-216.567	-200.000	0.007	0.532
-215.552	-140.510	-0.330	0.034
-214.538	58.538	-0.234	0.231
-213.523	-59.342	0.163	-0.070
-212.509	-48.903	-0.424	-0.204
-211.494	423.425	0.164	-0.354
-210.479	-178.014	0.253	0.006
-209.465	-12.769	0.257	-0.168
-208.450	94.539	0.134	-0.152
-207.436	800.000	0.060	0.227
-206.421	786.369	-0.025	0.069
-205.406	800.000	0.053	0.161
-204.392	145.822	-0.099	0.133
-203.377	-87.429	-0.082	0.025
-202.363	31.085	0.150	-0.129
-201.348	160.002	0.059	-0.082
-200.333	-200.000	-0.027	-0.212
-199.319	800.000	0.164	0.474
-198.304	756.483	0.177	0.480
-197.290	-200.000	0.016	0.146
-196.275	-200.000	0.056	0.319
-195.260	-200.000	-0.095	-0.580
-194.246	33.250	0.216	0.188
-193.231	-93.311	-0.335	0.093
-192.217	283.191	0.120	0.216
-191.202	-45.512	0.093	0.046
-190.187	-22.535	-0.277	-0.168
-189.173	572.968	0.145	-0.355
-188.158	-88.011	-0.199	-0.060
-187.144	800.000	-0.092	0.263
-186.129	151.707	-0.033	0.045
-185.114	-183.853	0.278	0.005
-184.100	-2.007	0.125	0.088
-183.085	118.296	-0.120	-0.148
-182.071	56.176	0.095	-0.092
-181.056	-84.401	-0.214	-0.068
-180.042	-200.000	-0.042	-0.224
-179.027	-24.745	0.085	0.050
-178.012	5.849	0.182	-0.135
-176.998	-126.346	0.117	0.017
-175.983	-42.700	0.377	-0.192
-174.969	-3.866	0.125	0.087
-173.954	-131.339	-0.244	0.032
-172.939	-200.000	-0.035	-0.311
-171.925	-200.000	0.003	0.043
-170.910	-28.798	0.155	-0.089
-169.896	325.863	-0.087	-0.166
-168.881	118.137	0.083	-0.103
-167.866	-200.000	-0.074	-0.365
-166.852	265.696	-0.140	0.244
-165.837	-85.475	-0.292	0.091
-164.823	800.000	0.090	-0.261
-163.808	27.225	0.153	0.129
-162.793	-82.349	-0.108	-0.035
-161.779	-88.288	0.101	0.030
-160.764	800.000	0.055	-0.179
-159.750	365.738	-0.064	0.129
-158.735	207.713	0.238	-0.371
-157.720	-86.662	-0.190	-0.058
-156.706	48.740	-0.118	-0.110
-155.691	428.160	0.117	-0.253
-154.677	413.524	-0.121	-0.257
-153.662	-41.156	0.197	0.102
-152.647	-110.881	-0.237	-0.049
-151.633	-200.000	0.054	0.238
-150.618	107.342	-0.221	0.262
-149.604	-35.093	-0.113	0.062
-148.589	800.000	-0.059	-0.195
-147.574	213.829	0.237	-0.376
-146.560	-200.000	0.044	-0.196
-145.545	320.303	-0.128	-0.244
-144.531	535.225	-0.058	-0.138
-143.516	-200.000	0.006	-0.112
-142.502	-150.378	-0.023	0.002
-141.487	59.229	-0.173	-0.170
-140.472	800.000	0.031	-0.091
-139.458	-19.035	-0.257	0.160
-138.443	-136.483	0.317	0.037
-137.429	800.000	-0.111	-0.422
-136.414	253.777	-0.167	0.286
-135.399	800.000	-0.093	-0.295
-134.385	-151.551	-0.087	-0.006
-133.370	-200.000	0.008	0.295
-132.356	-10.313	-0.222	0.147
-131.341	-200.000	0.012	-0.137
-130.326	366.577	-0.024	0.048
-129.312	337.574	0.139	0.270
-128.297	-200.000	-0.036	0.220
-127.283	256.495	0.156	0.268
-126.268	800.000	0.053	0.159
-125.253	323.720	0.113	0.216
-124.239	-200.000	-0.002	0.228
-123.224	217.927	0.121	0.192
-122.210	362.823	0.008	-0.017
-121.195	-176.829	0.150	0.004
-120.180	-200.000	-0.002	0.201
-119.166	156.639	-0.078	-0.107
-118.151	-88.798	-0.201	-0.060
-117.137	-69.595	0.352	0.135
-116.122	-105.720	0.117	-0.026
-115.107	-200.000	0.039	0.439
-114.093	-24.526	-0.136	0.081
-113.078	336.424	0.061	0.118
-112.064	-109.095	0.155	-0.033
-111.049	-200.000	-0.004	-0.079
-110.034	-150.990	-0.122	0.009
-109.020	261.548	-0.110	0.190
-108.005	800.000	-0.068	0.275
-106.991	-58.495	0.090	-0.039
-105.976	-200.000	0.016	-0.073
-104.962	-200.000	-0.046	0.239
-103.947	-76.541	0.169	0.059
-102.932	257.418	0.198	-0.340
-101.918	16.811	0.162	0.128
-100.903	573.147	0.129	0.314
-99.889	800.000	0.068	-0.269
-98.874	190.354	-0.080	0.121
-97.859	-200.000	-0.038	-0.207
-96.845	19.958	0.061	-0.049
-95.830	-27.366	0.111	-0.064
-94.816	-200.000	-0.011	0.302
-93.801	398.445	-0.102	-0.213
-92.786	-190.165	0.166	-0.002
-91.772	73.720	0.285	-0.298
-90.757	136.672	0.162	-0.211
-89.743	-90.553	0.390	-0.113
-88.728	800.000	0.096	-0.404
-87.713	-18.497	-0.347	-0.216
-86.699	-48.221	-0.279	-0.134
-85.684	-32.864	0.209	0.116
-84.670	-51.793	-0.242	0.112
-83.655	90.135	-0.099	-0.111
-82.640	-62.438	0.236	-0.098
-81.626	121.414	0.137	0.170
-80.611	-40.305	0.210	0.109
-79.597	800.000	0.039	0.120
-78.582	-20.471	0.091	0.056
-77.567	-78.303	-0.152	-0.052
-76.553	52.228	0.226	-0.215
-75.538	-200.000	0.017	0.095
-74.524	187.507	-0.095	-0.141
-73.509	-62.884	0.229	0.095
-72.494	-159.899	0.360	0.020
-71.480	-6.397	-0.309	0.210
-70.465	784.734	0.043	0.118
-69.451	182.076	0.195	0.287
-68.436	386.219	-0.044	0.090
-67.422	-126.530	-0.158	-0.023
-66.407	65.231	-0.117	0.118
-65.392	-121.156	0.275	-0.046
-64.378	723.876	0.029	0.078
-63.363	1.235	0.199	0.142
-62.349	-200.000	0.007	0.489
-61.334	106.967	-0.799	-0.946
-60.319	-26.431	0.411	0.240
-59.305	-200.000	0.072	-0.808
-58.290	359.805	0.459	0.915
-57.276	-200.000	0.286	1.842
-56.261	-200.000	79.905	508.247
-55.246	549.248	1373.374	3280.447
-54.232	180.833	2602.045	3808.800
-53.217	121.574	2245.631	2789.519
-52.203	49.973	1695.596	1594.097
-51.188	42.291	1426.161	1291.522
-50.173	38.968	1381.779	1230.499
-49.159	57.069	1420.278	1379.897
-48.144	62.613	1438.855	1433.010
-47.130	42.779	1400.561	1271.225
-46.115	39.063	1383.480	1232.410
-45.100	38.842	1378.761	1226.780
-44.086	38.629	1376.674	1223.541
-43.071	38.644	1374.124	1221.321
-42.057	38.645	1372.061	1219.445
-41.042	38.691	1370.252	1218.075
-40.027	38.843	1368.573	1217.479
-39.013	38.787	1366.840	1215.545
-37.998	38.765	1365.205	1213.900
-36.984	38.755	1363.440	1212.226
-35.969	38.870	1361.238	1210.930
-34.954	38.882	1359.584	1209.479
-33.940	38.957	1358.147	1208.614
-32.925	38.987	1356.762	1207.524
-31.911	39.036	1355.203	1206.389
-30.896	39.069	1353.405	1204.939
-29.881	38.993	1352.479	1203.603
-28.867	38.935	1351.237	1202.093
-27.852	38.941	1349.343	1200.395
-26.838	38.985	1347.870	1199.312
-25.823	38.903	1346.592	1197.626
-24.809	38.988	1344.926	1196.614
-23.794	38.860	1343.876	1194.850
-22.779	38.936	1342.436	1193.986
-21.765	39.001	1340.553	1192.662
-20.750	38.939	1339.526	1191.324
-19.736	38.838	1338.035	1189.336
-18.721	38.789	1336.905	1187.986
-17.706	38.823	1335.702	1187.077
-16.692	38.812	1334.616	1186.000
-15.677	38.951	1333.197	1185.529
-14.663	38.845	1332.569	1184.283
-13.648	38.817	1331.355	1182.987
-12.633	38.852	1330.208	1182.136
-11.619	38.802	1329.700	1181.334
-10.604	38.844	1328.343	1180.334
-9.590	38.859	1327.472	1179.605
-8.575	38.789	1326.593	1178.355
-7.560	38.872	1325.157	1177.534
-6.546	38.870	1324.769	1177.129
-5.531	38.651	1324.290	1175.343
-4.517	38.809	1322.528	1174.677
-3.502	38.707	1321.972	1173.527
-2.487	38.838	1321.080	1173.476
-1.473	38.819	1317.342	1169.992
-0.458	38.173	1302.528	1152.980
0.556	33.268	1283.347	1112.583
1.571	29.205	1287.457	1092.019
2.586	27.770	1302.570	1096.128
3.600	26.345	1290.455	1077.352
4.615	20.274	1214.143	979.393
5.629	10.260	1132.190	860.237
6.644	5.306	1108.719	816.494
7.659	4.947	1105.696	812.323
8.673	4.838	1103.873	810.347
9.688	4.781	1102.510	808.977
10.702	5.178	1101.847	810.482
11.717	11.169	1110.929	848.369
12.731	19.006	1121.774	897.630
13.746	19.998	1121.371	902.400
14.761	17.890	1118.071	888.705
15.775	16.708	1115.897	880.752
16.790	15.614	1113.586	873.169
17.804	14.879	1111.826	867.896
18.819	14.579	1110.533	865.258
19.834	14.125	1109.731	862.201
20.848	13.972	1108.950	860.725
21.863	13.759	1107.830	858.676
22.877	13.672	1107.059	857.554
23.892	13.536	1106.544	856.375
24.907	13.555	1105.969	855.953
25.921	13.660	1104.538	855.314
26.936	13.649	1103.149	854.104
27.950	13.654	1101.783	852.995
28.965	13.789	1100.122	852.326
29.980	13.725	1098.974	851.036
30.994	13.857	1097.689	850.640
32.009	13.849	1096.504	849.607
33.023	13.883	1095.429	848.871
34.038	13.806	1094.495	847.679
35.053	13.724	1093.761	846.617
36.067	13.711	1092.725	845.674
37.082	13.828	1091.230	845.039
38.096	13.826	1090.998	844.774
39.111	13.779	1090.292	843.912
40.126	13.735	1088.670	842.361
41.140	13.541	1087.607	840.481
42.155	13.438	1086.373	838.930
43.169	13.434	1085.149	837.889
44.184	13.380	1084.657	837.162
45.199	13.446	1083.582	836.594
46.213	13.494	1082.573	835.983
47.228	13.719	1080.896	835.745
48.242	13.575	1079.662	833.994
49.257	13.707	1078.434	833.635
50.271	13.664	1078.012	833.019
51.286	13.713	1077.225	832.582
52.301	13.770	1076.018	831.865
53.315	13.621	1075.101	830.332
54.330	13.631	1073.738	829.256
55.344	13.553	1073.254	828.420
56.359	13.656	1071.900	827.815
57.374	13.512	1071.503	826.715
58.388	13.360	1070.797	825.341
59.403	13.554	1069.329	825.102
60.417	13.390	1068.809	823.810
61.432	13.454	1067.674	823.185
62.447	13.352	1067.433	822.418
63.461	13.286	1066.149	821.030
64.476	13.342	1065.471	820.710
65.490	13.432	1064.230	820.127
66.505	13.427	1063.755	819.664
67.520	13.487	1062.925	819.251
68.534	13.553	1061.957	818.756
69.549	13.417	1061.767	817.866
70.563	13.462	1060.913	817.360
71.578	13.372	1059.724	815.927
72.593	13.285	1059.142	814.978
73.607	13.426	1057.990	814.711
74.622	13.344	1057.995	814.242
75.636	13.280	1057.099	813.165
76.651	13.331	1056.494	812.877
77.666	13.310	1055.422	811.878
78.680	13.456	1054.396	811.735
79.695	13.384	1054.559	811.434
80.709	13.490	1053.808	811.302
81.724	13.459	1053.021	810.472
82.739	13.614	1052.107	810.456
83.753	13.818	1051.230	810.708
84.768	13.683	1050.839	809.672
85.782	13.808	1049.556	809.223
86.797	13.738	1048.347	807.877
87.812	13.649	1047.768	806.928
88.826	13.713	1046.650	806.307
89.841	13.807	1045.424	805.747
90.855	13.842	1045.084	805.585
91.870	13.771	1044.223	804.504
92.884	13.709	1043.212	803.354
93.899	13.880	1042.220	803.344
94.914	13.867	1041.151	802.388
95.928	13.943	1040.619	802.277
96.943	13.837	1039.453	800.795
97.957	13.698	1038.726	799.491
98.972	13.690	1037.873	798.727
99.987	13.769	1036.688	798.125
101.001	13.787	1035.764	797.428
102.016	13.812	1034.771	796.715
103.030	13.733	1034.694	796.203
104.045	13.763	1033.721	795.528
105.060	13.769	1032.525	794.567
106.074	13.723	1030.880	793.013
107.089	13.554	1030.454	791.803
108.103	13.530	1029.463	790.857
109.118	13.479	1028.903	790.114
110.133	13.473	1027.346	788.822
111.147	13.514	1026.266	788.118
112.162	13.632	1025.747	788.212
113.176	13.616	1024.979	787.476
114.191	13.642	1024.277	786.991
115.206	13.507	1023.861	785.961
116.220	13.576	1022.991	785.551
117.235	13.709	1021.395	784.884
118.249	13.644	1020.669	783.948
119.264	13.612	1019.681	782.971
120.279	13.518	1019.275	782.145
121.293	13.502	1018.194	781.169
122.308	13.530	1017.317	780.561
123.322	13.503	1016.443	779.694
124.337	13.519	1015.276	778.806
125.352	13.433	1014.483	777.721
126.366	13.501	1013.079	776.899
127.381	13.616	1011.914	776.472
128.395	13.524	1011.029	775.294
129.410	13.680	1009.978	775.152
130.424	13.624	1009.485	774.442
131.439	13.708	1008.677	774.144
132.454	13.844	1007.231	773.601
133.468	13.843	1007.170	773.480
134.483	13.849	1005.881	772.452
135.497	13.805	1005.163	771.628
136.512	13.837	1004.146	770.928
137.527	13.670	1003.917	769.907
138.541	13.659	1002.975	769.066
139.556	13.853	1001.996	769.144
140.570	13.952	1001.240	768.957
141.585	13.922	1000.630	768.282
142.600	13.888	999.678	767.322
143.614	14.027	999.161	767.499
144.629	14.067	997.852	766.610
145.643	13.842	997.318	765.098
146.658	13.830	995.743	763.768
147.673	13.844	995.110	763.277
148.687	13.793	994.344	762.389
149.702	13.808	993.005	761.364
150.716	13.835	992.478	761.016
151.731	13.851	992.015	760.664
152.746	13.652	991.330	759.164
153.760	13.840	990.638	759.427
154.775	13.866	989.847	758.868
155.789	13.856	989.691	758.640
156.804	13.975	988.549	758.241
157.819	13.864	987.686	757.005
158.833	14.055	986.906	757.209
159.848	14.023	986.145	756.414
160.862	13.942	985.389	755.398
161.877	13.940	984.303	754.489
162.892	13.742	983.839	753.167
163.906	13.806	982.474	752.346
164.921	13.864	981.326	751.661
165.935	13.829	981.041	751.219
166.950	13.862	980.025	750.523
167.964	13.997	978.964	750.256
168.979	13.825	978.211	748.835
169.994	13.867	977.421	748.356
171.008	13.938	976.619	747.995
172.023	14.065	975.732	747.820
173.037	14.011	975.243	747.137
174.052	14.027	974.037	746.219
175.067	13.871	973.299	744.888
176.081	14.017	973.128	745.345
177.096	13.936	972.491	744.427
178.110	13.943	971.931	743.964
179.125	14.102	970.800	743.744
180.140	14.124	970.373	743.449
181.154	13.943	970.091	742.359
182.169	14.102	969.739	742.733
183.183	14.136	969.174	742.385
184.198	14.179	968.008	741.617
185.213	14.115	967.383	740.788
186.227	14.199	966.927	740.747
187.242	14.298	966.137	740.520
188.256	14.302	965.442	739.938
189.271	14.275	964.482	739.017
190.286	14.084	963.595	737.426
191.300	13.887	963.097	736.108
192.315	14.095	961.973	736.103
193.329	13.904	962.055	735.256
194.344	14.065	961.191	735.242
195.359	14.035	960.805	734.748
196.373	14.120	959.977	734.425
197.388	14.312	959.477	734.825
198.402	14.456	958.957	734.996
199.417	14.334	958.592	734.113
200.432	14.532	957.547	734.121
201.446	14.577	957.035	733.859
202.461	14.490	956.799	733.233
203.475	14.540	956.105	732.857
204.490	14.357	955.405	731.449
205.504	14.334	954.185	730.351
206.519	14.374	953.492	729.931
207.534	14.344	953.057	729.402
208.548	14.446	952.171	729.105
209.563	14.335	951.599	728.117
210.577	14.367	951.189	727.878
211.592	14.625	949.650	727.762
212.607	14.505	949.233	726.855
213.621	14.569	948.464	726.483
214.636	14.535	947.769	725.738
215.650	14.652	946.889	725.510
216.665	14.743	946.054	725.201
217.680	14.701	945.676	724.664
218.694	14.743	945.098	724.339
219.709	14.697	944.508	723.625
220.723	14.608	943.861	722.677
221.738	14.631	943.064	722.103
222.753	14.693	942.133	721.592
223.767	14.721	941.860	721.442
224.782	14.861	941.185	721.463
225.796	14.831	940.559	720.794
226.811	14.770	939.749	719.845
227.826	14.788	938.925	719.228
228.840	14.685	938.196	718.161
229.855	14.753	937.265	717.676
230.869	14.786	936.737	717.351
231.884	14.739	935.965	716.496
232.899	14.706	935.427	715.877
233.913	14.644	934.526	714.861
234.928	14.590	934.275	714.373
235.942	14.748	933.287	714.229
236.957	14.619	932.566	713.066
237.972	14.682	932.334	713.095
238.986	14.670	931.610	712.424
240.001	14.797	930.869	712.336
241.015	14.857	929.717	711.648
242.030	14.922	929.487	711.685
243.045	14.868	928.886	710.934
244.059	14.881	928.064	710.298
245.074	14.985	927.510	710.251
246.088	14.994	926.880	709.746
247.103	14.995	926.479	709.377
248.117	14.920	926.269	708.839
249.132	15.043	925.461	708.678
250.147	15.184	924.817	708.716
251.161	15.274	923.918	708.346
252.176	15.206	923.235	707.472
253.190	15.264	922.432	707.038
254.205	15.348	921.926	706.943
255.220	15.261	921.338	706.065
256.234	15.308	920.250	705.364
257.249	15.357	919.888	705.229
258.263	15.256	919.071	704.119
259.278	15.446	918.548	704.453
260.293	15.482	917.793	703.960
261.307	15.491	917.431	703.661
262.322	15.507	916.620	703.043
263.336	15.511	915.552	702.177
264.351	15.450	915.260	701.637
265.366	15.492	914.621	701.259
266.380	15.467	913.668	700.364
267.395	15.315	913.356	699.428
268.409	15.466	912.150	699.069
269.424	15.467	911.794	698.740
270.439	15.407	911.048	697.858
271.453	15.547	910.079	697.637
272.468	15.409	909.678	696.695
273.482	15.354	909.531	696.290
274.497	15.541	908.094	695.902
275.512	15.501	907.692	695.369
276.526	15.520	907.167	694.981
277.541	15.628	906.799	695.087
278.555	15.421	906.500	693.939
279.570	15.778	905.377	694.495
280.585	15.735	904.548	693.618
281.599	15.730	903.787	692.953
282.614	15.606	902.935	691.728
283.628	15.516	902.877	691.252
284.643	15.662	902.035	691.147
285.657	15.737	900.905	690.526
286.672	15.688	900.687	690.099
287.687	15.644	899.616	689.035
288.701	15.831	899.226	689.444
289.716	15.989	898.801	689.702
290.730	15.720	898.208	688.085
291.745	15.844	897.728	688.163
292.760	15.880	896.790	687.530
293.774	15.882	896.201	687.026
294.789	15.880	895.700	686.573
295.803	15.801	894.752	685.464
296.818	15.744	894.157	684.718
297.833	15.734	893.200	683.883
298.847	15.790	893.074	683.954
299.862	15.998	891.921	683.856
300.876	15.838	891.893	683.124
301.891	15.897	891.461	682.970
302.906	16.054	890.500	682.810
303.920	16.229	889.459	682.661
304.935	16.144	889.348	682.168
305.949	15.993	888.867	681.131
306.964	15.919	888.187	680.249
307.979	16.112	887.285	680.277
308.993	16.246	886.828	680.409
310.008	16.103	886.391	679.434
311.022	16.112	885.878	679.017
312.037	16.031	885.666	678.469
313.052	16.169	884.000	677.689
314.066	15.984	883.854	676.775
315.081	16.150	883.363	677.002
316.095	16.063	882.900	676.238
317.110	15.962	882.393	675.386
318.125	16.112	881.522	675.261
319.139	16.074	881.313	674.890
320.154	16.091	880.573	674.330
321.168	16.110	880.571	674.345
322.183	15.976	879.833	673.187
323.197	16.094	879.142	673.069
324.212	16.232	878.406	672.997
325.227	16.199	877.903	672.420
326.241	16.112	877.363	671.597
327.256	15.995	877.329	671.048
328.270	16.209	875.809	670.675
329.285	16.094	875.457	669.889
330.300	16.161	875.124	669.843
331.314	16.223	874.590	669.620
332.329	16.260	873.909	669.187
333.343	16.314	873.840	669.290
334.358	16.158	873.330	668.223
335.373	16.225	873.199	668.328
336.387	16.259	872.739	668.052
337.402	16.338	872.272	667.947
338.416	16.414	871.641	667.706
339.431	16.538	871.486	668.018
340.446	16.646	870.554	667.669
341.460	16.563	870.691	667.387
342.475	16.560	870.117	666.875
343.489	16.505	869.854	666.399
344.504	16.755	868.867	666.569
345.519	16.706	868.505	666.039
346.533	16.644	867.940	665.304
347.548	16.581	867.407	664.587
348.562	16.700	866.603	664.381
349.577	16.447	866.319	663.113
350.592	16.635	865.451	663.125
351.606	16.546	865.119	662.465
352.621	16.698	864.111	662.229
353.635	16.593	863.497	661.288
354.650	16.601	862.560	660.542
355.665	16.598	862.028	660.067
356.679	16.558	861.735	659.628
357.694	16.637	860.988	659.306
358.708	16.785	860.442	659.404
359.723	16.789	859.856	658.911
360.738	16.852	858.835	658.316
361.752	16.816	858.194	657.628
362.767	16.803	858.248	657.561
363.781	16.966	857.657	657.679
364.796	17.005	856.859	657.161
365.810	16.914	856.818	656.719
366.825	17.036	856.322	656.755
367.840	17.010	855.771	656.174
368.854	16.955	855.234	655.489
369.869	16.942	854.795	655.044
370.883	17.042	854.192	654.912
371.898	17.018	853.835	654.485
372.913	17.190	853.220	654.621
373.927	16.903	852.984	653.276
374.942	17.048	852.517	653.417
375.956	17.166	852.217	653.583
376.971	17.100	851.645	652.835
377.986	17.194	851.298	652.872
379.000	17.187	850.764	652.377
380.015	17.222	850.264	652.069
381.029	17.255	849.181	651.308
382.044	17.225	849.073	651.053
383.059	17.197	848.553	650.490
384.073	17.273	847.823	650.163
385.088	17.161	846.979	649.031
386.102	17.181	846.706	648.840
387.117	17.136	845.749	647.877
388.132	17.126	845.491	647.583
389.146	17.249	844.556	647.281
390.161	17.265	844.395	647.162
391.175	17.388	843.556	646.928
392.190	17.266	843.735	646.543
393.205	17.305	842.498	645.687
394.219	17.103	842.451	644.826
395.234	17.249	842.008	644.984
396.248	17.221	841.213	644.212
397.263	17.270	841.005	644.183
398.278	17.144	840.936	643.593
399.292	17.356	840.009	643.631
400.307	17.246	839.750	642.957
401.321	17.393	838.868	642.784
402.336	17.254	838.556	641.961
403.350	17.292	838.183	641.761
404.365	17.333	837.695	641.488
405.380	17.297	837.746	641.334
406.394	17.481	837.117	641.488
407.409	17.591	836.300	641.220
408.423	17.592	835.910	640.867
409.438	17.786	835.217	641.010
410.453	17.627	835.052	640.227
411.467	17.570	834.988	639.908
412.482	17.661	834.473	639.799
413.496	17.769	834.174	639.918
414.511	17.807	833.643	639.594
415.526	17.747	833.505	639.209
416.540	17.734	832.716	638.497
417.555	17.710	832.540	638.218
418.569	17.710	832.057	637.789
419.584	17.861	831.332	637.744
420.599	17.798	830.864	637.091
421.613	145.193	1366.440	1761.102
422.628	126.530	1444.474	1761.209
