DTS Sentinel unit serial number:	SN413079Multiplexer serial number:	ORYXHardware model number:	OX4-SRSoftware version number:	ORYX F/W v4.00 Oryx Data Collector v3.7.2.0data status	okinstallation	princeton_trtdifferential loss correction	single-endedforward channel	channel 1reverse channel	N/Adate	2019/09/11time	06:28:11forward acquisition time	60.00reverse acquisition time	0.00gamma	496.2192k internal	0.2331k external	0.2331temperature offset calibration	0.9919default loss term (dB/km)	0.3790temperature slope calibration	1.0000multiplexer offset coefficient	1.0000multiplexer slope coefficient	1.0000fibre end	0.00T internal ref (°C)	29.59T ext. ref 1 (°C)	-0.17T ext. ref 2 (°C)	24.17length (m)	temperature (°C)	Stokes	anti-Stokes-747.200	132.633	-0.133	0.173
-746.185	181.703	-0.213	0.316
-745.171	-8.408	0.081	-0.055
-744.156	-111.674	-0.421	0.086
-743.142	23.116	-0.300	0.248
-742.127	-124.500	0.105	0.016
-741.112	-134.126	-0.287	-0.036
-740.098	240.071	-0.084	0.141
-739.083	164.651	0.072	0.102
-738.069	-200.000	0.006	0.336
-737.054	800.000	0.014	-0.041
-736.039	-110.505	-0.505	-0.105
-735.025	-23.501	0.157	-0.095
-734.010	-86.526	-0.278	0.086
-732.996	-38.658	-0.260	-0.138
-731.981	-9.754	0.175	-0.117
-730.966	93.471	-0.122	-0.139
-729.952	800.000	-0.075	0.298
-728.937	-84.292	0.196	-0.062
-727.923	186.448	0.106	0.158
-726.908	-154.004	0.220	0.015
-725.894	-200.000	0.040	-0.178
-724.879	498.349	0.037	-0.087
-723.864	800.000	-0.053	-0.181
-722.850	87.344	-0.123	-0.136
-721.835	800.000	0.052	-0.204
-720.821	403.804	0.147	-0.311
-719.806	21.948	-0.253	-0.207
-718.791	343.693	0.180	-0.354
-717.777	625.356	0.172	-0.437
-716.762	215.411	0.141	-0.225
-715.748	340.251	0.071	-0.140
-714.733	-169.264	0.123	0.005
-713.718	50.208	-0.076	-0.072
-712.704	254.802	-0.103	-0.178
-711.689	462.583	0.082	-0.184
-710.675	187.153	-0.015	-0.023
-709.660	-171.569	0.374	0.012
-708.645	173.250	-0.155	-0.225
-707.631	-200.000	0.093	-0.718
-706.616	-200.000	-0.051	0.247
-705.602	800.000	-0.010	0.037
-704.587	103.382	-0.095	-0.112
-703.572	-200.000	0.014	0.100
-702.558	496.430	-0.102	0.235
-701.543	-109.894	-0.320	0.067
-700.529	114.546	-0.286	-0.351
-699.514	-200.000	0.003	-0.473
-698.499	-200.000	0.007	0.074
-697.485	-110.141	0.107	0.023
-696.470	-129.585	0.383	0.053
-695.456	-19.086	-0.035	-0.022
-694.441	-171.029	-0.237	0.008
-693.426	-200.000	0.006	-0.084
-692.412	-200.000	-0.065	0.381
-691.397	-138.827	-0.317	0.035
-690.383	-67.807	-0.420	-0.165
-689.368	-84.092	0.168	-0.053
-688.354	46.050	0.299	-0.278
-687.339	561.087	0.165	-0.401
-686.324	-200.000	0.047	-0.320
-685.310	197.369	-0.109	0.167
-684.295	169.902	0.058	-0.083
-683.281	-200.000	-0.027	-0.150
-682.266	171.105	-0.090	0.129
-681.251	139.876	-0.207	-0.274
-680.237	-1.772	0.102	0.072
-679.222	5.295	-0.235	-0.174
-678.208	659.312	-0.046	0.118
-677.193	-109.426	-0.476	0.101
-676.178	45.096	0.082	-0.076
-675.164	-152.871	0.338	0.024
-674.149	75.603	-0.187	-0.199
-673.135	-80.640	-0.254	0.085
-672.120	-161.253	-0.167	0.009
-671.105	-200.000	-0.006	-0.232
-670.091	-37.099	-0.324	-0.174
-669.076	-102.306	0.060	-0.014
-668.062	607.294	0.110	-0.276
-667.047	33.545	0.014	-0.012
-666.032	800.000	0.047	-0.152
-665.018	-97.113	-0.223	-0.059
-664.003	121.401	0.081	0.102
-662.989	-179.968	-0.459	-0.010
-661.974	-161.134	0.237	0.012
-660.959	-40.400	0.066	-0.034
-659.945	800.000	-0.022	-0.075
-658.930	-157.868	0.230	-0.014
-657.916	800.000	0.052	-0.184
-656.901	-61.323	-0.208	0.088
-655.886	-200.000	0.084	-0.419
-654.872	40.816	-0.109	-0.098
-653.857	41.108	-0.329	-0.298
-652.843	-49.750	0.035	-0.017
-651.828	-82.731	-0.131	0.042
-650.814	-200.000	-0.074	-0.327
-649.799	-162.898	-0.294	0.014
-648.784	90.286	0.073	-0.082
-647.770	-152.491	-0.168	-0.012
-646.755	-86.062	-0.330	-0.102
-645.741	-114.748	0.172	-0.033
-644.726	24.083	0.036	0.030
-643.711	160.431	0.014	0.019
-642.697	272.995	0.193	0.341
-641.682	210.657	-0.182	0.287
-640.668	-200.000	-0.042	0.397
-639.653	-200.000	-0.037	0.199
-638.638	-138.763	-0.194	0.021
-637.624	-42.222	0.297	-0.152
-636.609	-35.490	0.171	-0.093
-635.595	279.318	-0.138	0.246
-634.580	22.042	-0.170	-0.139
-633.565	800.000	-0.064	0.245
-632.551	-66.284	-0.028	-0.011
-631.536	694.113	-0.105	0.275
-630.522	189.580	-0.135	-0.203
-629.507	-200.000	-0.035	-0.175
-628.492	-29.055	0.096	-0.055
-627.478	46.168	0.209	-0.194
-626.463	-200.000	0.007	-0.209
-625.449	-65.028	-0.111	-0.045
-624.434	-4.846	-0.433	-0.299
-623.419	23.778	-0.249	0.205
-622.405	59.127	0.223	-0.220
-621.390	-200.000	0.002	-0.172
-620.376	-200.000	0.035	-0.323
-619.361	325.300	0.103	0.197
-618.346	-12.669	-0.205	0.134
-617.332	94.041	0.190	-0.216
-616.317	483.274	-0.099	0.226
-615.303	66.949	-0.207	-0.211
-614.288	-200.000	0.011	-0.428
-613.273	184.517	-0.125	-0.186
-612.259	-118.412	0.190	0.034
-611.244	-129.725	0.552	-0.076
-610.230	-106.754	0.384	0.085
-609.215	500.635	0.078	0.179
-608.201	14.794	0.255	-0.200
-607.186	-120.271	0.031	0.005
-606.171	-200.000	-0.007	0.072
-605.157	800.000	-0.076	0.314
-604.142	144.253	-0.042	0.057
-603.128	-53.688	-0.162	-0.074
-602.113	50.097	0.105	-0.099
-601.098	-200.000	-0.016	-0.094
-600.084	-125.169	-0.053	0.008
-599.069	-200.000	-0.011	-0.077
-598.055	255.490	0.112	-0.192
-597.040	-80.951	-0.431	-0.143
-596.025	31.231	0.095	0.082
-595.011	6.902	-0.143	0.107
-593.996	-44.727	0.332	0.166
-592.982	-200.000	-0.010	-0.468
-591.967	332.047	0.061	-0.118
-590.952	202.241	0.170	0.262
-589.938	-23.369	0.245	0.147
-588.923	82.100	-0.232	-0.251
-587.909	16.257	-0.134	-0.106
-586.894	-30.957	0.155	0.088
-585.879	-74.268	-0.084	0.030
-584.865	305.083	0.091	0.169
-583.850	-11.190	-0.183	0.120
-582.836	-8.908	-0.230	-0.154
-581.821	-69.775	0.139	0.053
-580.806	-53.144	-0.274	0.126
-579.792	139.323	0.074	0.097
-578.777	-200.000	-0.043	-0.409
-577.763	-200.000	0.027	-0.227
-576.748	800.000	0.083	-0.350
-575.733	297.304	-0.068	0.124
-574.719	311.588	-0.124	-0.233
-573.704	154.402	0.110	-0.151
-572.690	268.011	-0.120	-0.209
-571.675	-200.000	0.029	0.128
-570.661	776.147	-0.084	-0.229
-569.646	800.000	-0.002	-0.005
-568.631	330.652	0.146	-0.281
-567.617	-27.751	-0.342	0.198
-566.602	-135.235	0.217	0.026
-565.588	-200.000	-0.027	0.258
-564.573	800.000	-0.050	-0.177
-563.558	-166.033	0.213	-0.009
-562.544	-11.721	-0.169	-0.111
-561.529	97.899	-0.189	-0.217
-560.515	13.874	-0.166	0.129
-559.500	-200.000	-0.017	0.215
-558.485	9.733	-0.084	0.064
-557.471	-40.938	-0.102	0.053
-556.456	-200.000	0.032	0.190
-555.442	-200.000	-0.046	-0.260
-554.427	358.584	-0.072	0.145
-553.412	2.919	-0.435	0.315
-552.398	691.282	-0.019	0.051
-551.383	-200.000	0.017	-0.344
-550.369	96.704	0.045	-0.051
-549.354	103.351	0.057	-0.067
-548.339	43.584	-0.242	-0.221
-547.325	-159.129	0.208	0.012
-546.310	-62.519	0.398	-0.165
-545.296	255.440	-0.254	-0.435
-544.281	3.611	-0.124	-0.090
-543.266	-151.380	-0.010	-0.001
-542.252	-49.758	0.033	0.016
-541.237	-200.000	0.023	-0.305
-540.223	-163.480	-0.032	-0.002
-539.208	800.000	0.052	0.216
-538.193	-182.050	0.092	0.002
-537.179	13.643	-0.112	0.087
-536.164	-56.740	-0.315	-0.139
-535.150	91.127	0.174	-0.195
-534.135	-79.286	0.142	0.048
-533.121	-78.844	0.023	-0.008
-532.106	60.095	-0.086	0.085
-531.091	800.000	0.062	-0.180
-530.077	18.480	-0.101	-0.081
-529.062	-96.757	-0.145	0.038
-528.048	-50.525	0.074	-0.035
-527.033	-91.619	-0.097	-0.028
-526.018	313.207	0.015	0.029
-525.004	43.307	0.282	-0.257
-523.989	-200.000	0.014	-0.478
-522.975	-89.307	-0.384	-0.113
-521.960	-61.667	-0.108	0.045
-520.945	61.748	-0.324	0.322
-519.931	162.400	-0.122	0.171
-518.916	158.994	-0.074	-0.103
-517.902	335.847	-0.047	-0.090
-516.887	-200.000	0.017	0.248
-515.872	-19.346	-0.331	0.205
-514.858	16.218	-0.238	0.187
-513.843	-84.034	0.060	0.019
-512.829	-200.000	-0.009	-0.042
-511.814	800.000	0.078	0.234
-510.799	-200.000	-0.025	0.288
-509.785	-5.718	0.091	-0.062
-508.770	101.470	0.051	-0.060
-507.756	-80.584	0.372	0.124
-506.741	-45.761	-0.146	0.072
-505.726	638.791	0.063	-0.159
-504.712	800.000	-0.056	-0.168
-503.697	-200.000	0.022	-0.332
-502.683	-94.464	0.267	-0.073
-501.668	726.741	0.141	0.375
-500.653	655.184	0.111	-0.283
-499.639	-30.038	0.408	-0.232
-498.624	-73.188	0.180	-0.066
-497.610	-85.822	0.160	0.049
-496.595	382.471	-0.074	-0.151
-495.581	-14.771	-0.143	0.091
-494.566	-200.000	0.009	-0.096
-493.551	-4.619	0.038	0.026
-492.537	800.000	0.102	-0.297
-491.522	50.460	-0.155	-0.146
-490.508	30.739	-0.097	-0.083
-489.493	-200.000	-0.034	-0.165
-488.478	36.511	0.053	-0.047
-487.464	82.913	-0.098	0.106
-486.449	-27.597	-0.230	-0.133
-485.435	-106.040	0.479	0.107
-484.420	-69.132	-0.027	-0.010
-483.405	-79.986	-0.283	-0.095
-482.391	800.000	0.019	0.065
-481.376	495.599	-0.097	-0.222
-480.362	62.899	-0.150	0.149
-479.347	800.000	0.004	-0.015
-478.332	-3.029	0.149	-0.103
-477.318	-52.081	0.201	0.093
-476.303	176.112	0.052	-0.075
-475.289	124.152	-0.125	-0.156
-474.274	-15.608	-0.067	0.042
-473.259	74.709	0.176	0.184
-472.245	390.663	0.003	0.007
-471.230	-123.729	-0.118	-0.019
-470.216	54.235	0.051	0.049
-469.201	-62.784	-0.280	0.115
-468.186	184.023	-0.059	0.086
-467.172	302.667	-0.085	0.157
-466.157	722.707	0.106	-0.281
-465.143	-1.663	0.306	-0.214
-464.128	293.688	0.122	-0.221
-463.113	-200.000	0.054	-0.370
-462.099	63.827	-0.102	-0.102
-461.084	-200.000	-0.016	-0.237
-460.070	-200.000	0.067	-0.308
-459.055	79.926	0.187	0.200
-458.040	15.380	-0.129	-0.100
-457.026	123.629	0.121	-0.152
-456.011	-67.669	0.043	0.017
-454.997	126.383	-0.113	-0.142
-453.982	404.167	0.145	0.303
-452.968	-200.000	0.014	0.200
-451.953	2.648	0.193	0.139
-450.938	-85.391	0.207	-0.064
-449.924	39.465	-0.158	-0.141
-448.909	800.000	0.120	0.349
-447.895	-68.962	0.294	0.113
-446.880	738.762	-0.212	-0.567
-445.865	-24.090	0.297	-0.176
-444.851	36.314	-0.077	-0.068
-443.836	-200.000	0.039	-0.426
-442.822	-200.000	0.021	0.178
-441.807	-200.000	0.014	0.117
-440.792	-70.051	-0.239	0.090
-439.778	-121.728	-0.131	0.022
-438.763	121.307	-0.369	0.457
-437.749	-124.299	0.045	-0.007
-436.734	-70.851	-0.072	-0.027
-435.719	-200.000	0.002	0.152
-434.705	-88.494	-0.317	0.094
-433.690	-200.000	0.028	0.131
-432.676	-46.598	0.293	0.143
-431.661	-146.899	0.175	0.015
-430.646	32.144	0.116	0.099
-429.632	800.000	0.035	0.115
-428.617	-31.154	-0.371	0.208
-427.603	800.000	-0.093	0.306
-426.588	-28.237	-0.052	-0.030
-425.573	58.276	-0.373	-0.364
-424.559	374.047	0.076	-0.154
-423.544	20.974	0.068	0.054
-422.530	6.084	0.176	0.130
-421.515	-200.000	-0.021	0.230
-420.500	-118.088	0.373	0.066
-419.486	-142.846	-0.106	0.010
-418.471	4.857	0.102	-0.074
-417.457	-111.914	-0.268	0.054
-416.442	-36.493	0.085	-0.045
-415.428	-21.080	0.249	0.151
-414.413	800.000	0.083	0.227
-413.398	328.031	0.061	-0.117
-412.384	190.909	-0.221	0.331
-411.369	-70.883	0.325	-0.122
-410.355	-10.460	0.109	0.072
-409.340	-200.000	0.060	0.280
-408.325	-62.282	-0.114	-0.047
-407.311	-97.925	0.188	-0.048
-406.296	-120.196	0.170	0.029
-405.282	-71.785	-0.120	-0.044
-404.267	-33.576	-0.057	-0.031
-403.252	-200.000	0.055	0.277
-402.238	-141.426	0.214	-0.022
-401.223	-81.635	-0.058	-0.019
-400.209	-200.000	-0.057	-0.252
-399.194	-97.172	0.221	-0.057
-398.179	800.000	0.122	-0.444
-397.165	-200.000	-0.042	-0.303
-396.150	13.307	-0.131	-0.101
-395.136	9.195	-0.088	-0.066
-394.121	-200.000	0.009	0.077
-393.106	583.284	-0.019	-0.046
-392.092	-200.000	-0.053	-0.391
-391.077	-200.000	0.032	-0.263
-390.063	800.000	0.037	0.132
-389.048	-118.705	-0.179	0.031
-388.033	371.351	0.063	-0.127
-387.019	-200.000	-0.015	-0.105
-386.004	-56.186	-0.157	-0.070
-384.990	242.283	0.079	-0.131
-383.975	800.000	-0.022	-0.096
-382.960	800.000	-0.023	-0.069
-381.946	-112.667	-0.048	0.009
-380.931	236.602	0.122	0.201
-379.917	57.674	-0.115	-0.111
-378.902	478.870	0.031	0.071
-377.888	-200.000	0.043	-0.238
-376.873	800.000	-0.126	-0.545
-375.858	23.706	-0.379	-0.310
-374.844	57.046	0.250	-0.242
-373.829	-200.000	0.158	0.001
-372.815	367.069	-0.130	0.261
-371.800	30.921	0.058	0.050
-370.785	800.000	-0.109	0.451
-369.771	-200.000	0.035	0.193
-368.756	77.306	0.178	-0.188
-367.742	294.907	0.184	0.333
-366.727	800.000	-0.049	0.168
-365.712	-23.595	-0.040	0.024
-364.698	724.180	0.101	0.266
-363.683	562.646	0.115	-0.275
-362.669	78.168	-0.110	-0.117
-361.654	-126.037	0.145	0.022
-360.639	105.124	-0.079	0.093
-359.625	-200.000	-0.007	0.362
-358.610	-173.294	0.230	0.007
-357.596	161.374	-0.155	-0.214
-356.581	-73.853	0.139	0.050
-355.566	-107.770	0.252	0.055
-354.552	-200.000	-0.003	0.236
-353.537	-121.563	0.374	-0.061
-352.523	-82.637	0.115	0.037
-351.508	49.874	0.216	0.202
-350.493	291.955	-0.078	0.141
-349.479	32.437	0.306	0.262
-348.464	-89.531	0.315	0.092
-347.450	-70.239	0.389	0.147
-346.435	189.643	0.131	-0.194
-345.420	-67.329	-0.156	0.061
-344.406	570.151	0.098	-0.236
-343.391	109.740	-0.165	-0.196
-342.377	231.703	-0.087	-0.142
-341.362	49.663	0.152	0.142
-340.348	-40.181	-0.256	0.132
-339.333	-200.000	-0.010	0.269
-338.318	1.950	-0.095	-0.068
-337.304	-59.074	-0.106	-0.045
-336.289	-22.913	-0.071	-0.042
-335.275	-112.794	0.118	0.023
-334.260	-102.098	-0.147	-0.035
-333.245	-7.487	0.116	-0.078
-332.231	510.564	-0.011	-0.025
-331.216	800.000	0.113	0.394
-330.202	689.217	0.092	0.240
-329.187	-118.464	-0.116	0.020
-328.172	800.000	0.051	-0.164
-327.158	-200.000	0.001	0.243
-326.143	-1.004	0.129	-0.091
-325.129	-4.073	0.221	0.152
-324.114	-19.615	-0.236	-0.144
-323.099	800.000	-0.099	0.273
-322.085	-114.931	0.174	-0.033
-321.070	-127.449	-0.352	0.051
-320.056	7.916	0.067	0.050
-319.041	330.638	-0.069	0.131
-318.026	84.691	0.023	-0.025
-317.012	-200.000	-0.007	0.217
-315.997	166.821	-0.056	-0.079
-314.983	93.083	-0.211	-0.236
-313.968	7.460	0.255	0.188
-312.953	-48.895	0.379	0.180
-311.939	-35.823	-0.334	0.179
-310.924	116.938	0.056	0.069
-309.910	-84.689	-0.158	0.049
-308.895	143.687	-0.105	0.138
-307.880	-200.000	0.042	0.491
-306.866	800.000	0.127	0.411
-305.851	-121.452	0.154	0.025
-304.837	453.222	0.096	-0.209
-303.822	-200.000	0.010	-0.085
-302.807	33.687	-0.178	0.153
-301.793	278.360	-0.154	0.272
-300.778	75.991	-0.205	-0.214
-299.764	-200.000	-0.013	-0.203
-298.749	-73.540	-0.246	0.089
-297.735	-97.270	0.220	0.057
-296.720	800.000	0.115	0.479
-295.705	487.010	0.012	0.027
-294.691	152.875	0.164	-0.222
-293.676	-200.000	-0.021	0.563
-292.662	800.000	-0.063	0.243
-291.647	-118.006	0.389	0.069
-290.632	-20.956	0.092	-0.056
-289.618	27.795	0.108	-0.090
-288.603	33.287	0.299	-0.257
-287.589	-147.153	-0.241	0.020
-286.574	102.190	0.331	0.383
-285.559	87.976	0.035	-0.039
-284.545	800.000	-0.119	-0.395
-283.530	800.000	-0.075	0.289
-282.516	-132.717	-0.357	0.045
-281.501	-200.000	0.008	0.135
-280.486	33.343	0.134	0.115
-279.472	158.147	-0.027	-0.036
-278.457	-200.000	-0.041	0.199
-277.443	252.467	-0.110	0.185
-276.428	-200.000	-0.041	0.226
-275.413	-64.692	-0.181	0.073
-274.399	-125.175	0.220	0.033
-273.384	53.037	0.135	0.128
-272.370	-49.741	0.056	-0.026
-271.355	-112.466	0.142	-0.028
-270.340	118.686	-0.159	0.193
-269.326	290.006	-0.142	0.255
-268.311	-53.573	-0.160	0.072
-267.297	609.319	0.076	-0.187
-266.282	-130.094	0.303	0.041
-265.267	-100.597	-0.189	-0.046
-264.253	-200.000	0.012	-0.087
-263.238	197.931	0.110	0.166
-262.224	101.110	-0.099	-0.114
-261.209	-110.201	-0.267	0.055
-260.195	-200.000	-0.011	-0.172
-259.180	800.000	0.045	0.185
-258.165	-200.000	0.007	0.200
-257.151	119.406	-0.120	-0.146
-256.136	31.354	0.035	-0.029
-255.122	-55.927	-0.162	-0.071
-254.107	-120.732	0.068	-0.011
-253.092	753.549	-0.049	-0.129
-252.078	-200.000	0.009	-0.183
-251.063	-91.404	-0.069	-0.019
-250.049	308.793	-0.089	-0.164
-249.034	16.676	0.220	0.171
-248.019	10.059	-0.206	0.155
-247.005	687.955	-0.119	-0.307
-245.990	-66.094	0.210	0.083
-244.976	67.823	0.172	0.174
-243.961	66.406	-0.161	0.161
-242.946	-41.059	-0.203	0.103
-241.932	51.133	-0.155	0.145
-240.917	-25.966	0.193	-0.112
-239.903	23.255	0.058	-0.047
-238.888	-200.000	-0.109	0.482
-237.873	-80.034	-0.294	-0.097
-236.859	-58.056	-0.180	-0.077
-235.844	-190.093	-0.414	0.005
-234.830	-56.001	0.311	-0.137
-233.815	800.000	0.134	-0.422
-232.800	-49.121	-0.333	0.157
-231.786	-128.470	-0.074	0.010
-230.771	800.000	0.040	-0.113
-229.757	9.588	0.277	0.207
-228.742	200.551	0.069	0.105
-227.727	43.980	0.230	0.208
-226.713	-200.000	0.051	0.305
-225.698	-192.602	-0.352	0.003
-224.684	543.020	0.209	-0.491
-223.669	115.634	-0.214	0.258
-222.655	-200.000	0.034	0.152
-221.640	-200.000	-0.057	0.432
-220.625	571.496	-0.053	0.127
-219.611	114.720	-0.106	-0.128
-218.596	558.598	-0.069	0.163
-217.582	-126.242	0.328	0.048
-216.567	-163.174	-0.259	0.012
-215.552	62.750	0.065	0.064
-214.538	800.000	-0.048	0.139
-213.523	50.535	-0.118	0.110
-212.509	-33.022	-0.101	0.055
-211.494	-200.000	-0.014	-0.191
-210.479	-200.000	-0.007	-0.251
-209.465	-86.527	-0.130	0.039
-208.450	800.000	0.097	-0.296
-207.436	-200.000	-0.018	0.200
-206.421	-199.836	0.033	-0.000
-205.406	-50.435	0.086	0.040
-204.392	-90.500	0.168	-0.048
-203.377	225.601	0.132	-0.210
-202.363	82.053	-0.062	-0.066
-201.348	800.000	0.060	-0.177
-200.333	64.469	-0.105	0.104
-199.319	800.000	-0.092	-0.266
-198.304	303.851	0.037	0.068
-197.290	215.996	0.141	-0.221
-196.275	-69.272	-0.200	0.076
-195.260	-10.161	-0.082	0.054
-194.246	800.000	-0.051	0.151
-193.231	-29.238	-0.147	0.083
-192.217	-6.173	0.075	0.050
-191.202	800.000	-0.062	0.212
-190.187	262.491	-0.027	0.047
-189.173	-33.997	0.150	-0.082
-188.158	-194.719	-0.190	0.001
-187.144	-51.678	0.118	-0.054
-186.129	-130.297	-0.218	-0.029
-185.114	-200.000	-0.003	-0.077
-184.100	-200.000	0.015	0.253
-183.085	-51.608	0.057	-0.026
-182.071	114.772	-0.067	0.081
-181.056	49.396	-0.054	0.050
-180.042	-133.939	-0.284	0.035
-179.027	248.967	-0.064	-0.107
-178.012	-1.090	0.017	0.012
-176.998	-113.506	-0.117	-0.022
-175.983	150.572	-0.136	-0.182
-174.969	680.995	-0.045	-0.116
-173.954	156.399	0.171	-0.233
-172.939	-200.000	0.023	-0.141
-171.925	800.000	-0.042	0.181
-170.910	-104.688	0.188	0.043
-169.896	-10.709	-0.205	0.134
-168.881	565.524	-0.095	-0.226
-167.866	48.318	0.145	-0.134
-166.852	-142.425	0.214	-0.021
-165.837	800.000	0.109	-0.449
-164.823	122.874	-0.126	-0.155
-163.808	-55.738	0.259	-0.114
-162.793	311.373	0.216	-0.399
-161.779	34.441	-0.234	0.201
-160.764	-22.392	0.197	-0.118
-159.750	-115.121	0.185	0.035
-158.735	75.998	-0.286	0.297
-157.720	-200.000	0.004	0.059
-156.706	800.000	-0.057	0.195
-155.691	-54.540	0.278	0.124
-154.677	800.000	0.063	-0.182
-153.662	78.318	-0.128	-0.134
-152.647	77.989	0.105	-0.110
-151.633	-10.205	0.254	0.166
-150.618	115.557	-0.077	-0.093
-149.604	-192.280	0.110	0.001
-148.589	-162.797	-0.174	-0.008
-147.574	-95.390	0.316	-0.083
-146.560	-67.994	-0.217	-0.083
-145.545	367.886	0.061	0.122
-144.531	-73.770	-0.119	0.043
-143.516	-31.907	0.159	0.087
-142.502	-128.200	0.231	-0.032
-141.487	65.848	-0.120	-0.120
-140.472	-33.116	-0.189	0.103
-139.458	-200.000	-0.024	-0.311
-138.443	86.653	0.105	-0.114
-137.429	-200.000	-0.009	-0.126
-136.414	650.217	0.099	0.249
-135.399	38.943	0.089	0.078
-134.385	-93.777	-0.177	0.048
-133.370	37.269	-0.151	-0.132
-132.356	26.731	0.142	0.117
-131.341	641.010	-0.115	0.288
-130.326	-32.684	-0.272	0.149
-129.312	202.096	0.110	0.167
-128.297	-8.390	0.122	0.080
-127.283	22.325	-0.123	0.099
-126.268	-200.000	0.036	0.252
-125.253	-200.000	0.029	-0.165
-124.239	155.578	-0.206	-0.278
-123.224	-200.000	0.012	-0.059
-122.210	-110.451	-0.260	0.053
-121.195	-200.000	0.068	-0.322
-120.180	-99.540	-0.483	-0.119
-119.166	-200.000	-0.029	-0.174
-118.151	-200.000	-0.036	-0.172
-117.137	-45.979	0.164	0.079
-116.122	-73.761	0.212	-0.076
-115.107	-78.365	-0.148	-0.050
-114.093	800.000	-0.036	-0.101
-113.078	800.000	-0.040	-0.134
-112.064	-22.582	-0.282	-0.167
-111.049	118.301	0.128	0.156
-110.034	625.615	0.179	0.442
-109.020	-200.000	0.010	-0.091
-108.005	264.900	0.074	0.126
-106.991	800.000	0.050	0.153
-105.976	-113.278	-0.393	0.076
-104.962	-200.000	-0.028	0.151
-103.947	48.366	-0.097	-0.089
-102.932	-187.704	0.263	0.003
-101.918	276.694	0.128	-0.224
-100.903	148.558	0.063	-0.083
-99.889	800.000	0.080	-0.254
-98.874	494.647	0.149	-0.335
-97.859	281.060	0.010	0.018
-96.845	-93.375	-0.202	-0.055
-95.830	-35.358	-0.147	-0.078
-94.816	-148.333	0.225	-0.018
-93.801	800.000	-0.030	-0.095
-92.786	-59.519	0.223	-0.094
-91.772	-100.489	0.270	-0.065
-90.757	-133.766	0.225	-0.027
-89.743	800.000	-0.020	0.068
-88.728	11.134	0.092	0.069
-87.713	-137.097	-0.329	0.037
-86.699	-30.070	0.234	0.131
-85.684	53.116	-0.124	0.116
-84.670	278.071	-0.122	-0.213
-83.655	800.000	-0.003	0.013
-82.640	40.558	-0.135	0.119
-81.626	29.593	0.238	-0.198
-80.611	-97.779	0.013	-0.003
-79.597	46.464	0.318	0.289
-78.582	-105.359	-0.321	0.072
-77.567	-34.935	-0.079	-0.042
-76.553	190.705	0.060	0.088
-75.538	-200.000	-0.024	0.284
-74.524	148.053	-0.047	-0.062
-73.509	-119.382	0.395	-0.067
-72.494	128.565	-0.120	-0.150
-71.480	-64.461	-0.281	0.112
-70.465	109.218	0.123	-0.145
-69.451	-132.746	0.286	0.036
-68.436	-200.000	0.003	-0.027
-67.422	-200.000	-0.037	-0.173
-66.407	46.739	-0.141	-0.128
-65.392	706.400	-0.133	0.344
-64.378	263.980	-0.215	0.366
-63.363	106.321	-0.058	-0.067
-62.349	442.998	-0.124	0.266
-61.334	117.347	-0.803	-0.968
-60.319	-71.134	0.671	0.247
-59.305	211.508	-0.641	-0.989
-58.290	158.037	0.827	1.123
-57.276	254.074	0.743	1.245
-56.261	-200.000	105.737	607.924
-55.246	497.595	1503.901	3391.601
-54.232	176.656	2698.376	3843.885
-53.217	111.645	2166.041	2560.782
-52.203	41.707	1597.002	1417.720
-51.188	33.178	1330.643	1130.507
-50.173	30.024	1289.407	1077.125
-49.159	53.758	1343.963	1264.309
-48.144	54.727	1358.927	1284.083
-47.130	33.229	1313.863	1116.372
-46.115	29.679	1296.387	1080.765
-45.100	29.559	1290.921	1075.468
-44.086	29.456	1288.825	1073.081
-43.071	29.441	1286.488	1071.002
-42.057	29.476	1284.228	1069.281
-41.042	29.446	1282.547	1067.666
-40.027	29.495	1281.319	1066.888
-39.013	29.515	1279.237	1065.223
-37.998	29.609	1277.795	1064.523
-36.984	29.555	1275.979	1062.656
-35.969	29.669	1273.814	1061.468
-34.954	29.612	1271.855	1059.465
-33.940	29.507	1271.382	1058.430
-32.925	29.627	1269.791	1057.747
-31.911	29.714	1268.492	1057.125
-30.896	29.618	1267.214	1055.466
-29.881	29.665	1265.409	1054.188
-28.867	29.654	1264.106	1052.998
-27.852	29.659	1262.536	1051.678
-26.838	29.830	1261.254	1051.542
-25.823	29.714	1260.191	1049.955
-24.809	29.662	1258.826	1048.479
-23.794	29.754	1256.895	1047.351
-22.779	29.657	1255.993	1046.011
-21.765	29.706	1254.737	1045.199
-20.750	29.737	1253.469	1044.273
-19.736	29.654	1251.736	1042.321
-18.721	29.621	1250.834	1041.346
-17.706	29.608	1249.609	1040.207
-16.692	29.632	1248.325	1039.237
-15.677	29.399	1248.058	1037.658
-14.663	29.594	1246.591	1037.494
-13.648	29.534	1245.658	1036.341
-12.633	29.422	1244.694	1034.871
-11.619	29.545	1243.826	1034.796
-10.604	29.509	1242.919	1033.799
-9.590	29.412	1242.251	1032.658
-8.575	29.485	1241.217	1032.166
-7.560	29.404	1240.373	1030.974
-6.546	29.616	1239.246	1031.178
-5.531	29.515	1238.504	1029.956
-4.517	29.446	1237.842	1028.978
-3.502	29.495	1237.117	1028.609
-2.487	29.590	1236.052	1028.214
-1.473	29.530	1231.846	1024.339
-0.458	28.267	1217.448	1005.394
0.556	22.550	1200.298	969.513
1.571	19.276	1205.233	955.298
2.586	18.499	1219.791	962.388
3.600	18.263	1209.127	952.581
4.615	13.718	1138.440	872.939
5.629	4.716	1064.252	771.511
6.644	0.285	1043.530	734.844
7.659	-0.205	1041.243	730.787
8.673	-0.325	1040.055	729.304
9.688	-0.443	1038.946	727.888
10.702	0.245	1037.293	729.998
11.717	6.167	1045.938	764.896
12.731	15.108	1058.561	817.910
13.746	19.611	1064.503	844.493
14.761	20.685	1065.601	850.544
15.775	20.707	1065.341	850.365
16.790	20.531	1064.645	848.876
17.804	20.521	1063.831	848.104
18.819	20.605	1063.692	848.328
19.834	20.822	1062.588	848.428
20.848	20.903	1062.398	848.596
21.863	20.886	1061.218	847.496
22.877	20.660	1061.099	846.228
23.892	20.693	1060.404	845.757
24.907	20.740	1059.676	845.333
25.921	20.811	1058.265	844.477
26.936	20.745	1057.517	843.482
27.950	20.653	1055.846	841.633
28.965	20.486	1053.848	839.158
29.980	20.667	1051.977	838.466
30.994	20.873	1051.273	838.824
32.009	20.869	1049.930	837.656
33.023	20.630	1048.914	835.625
34.038	20.604	1048.602	835.180
35.053	20.863	1047.348	835.346
36.067	20.724	1047.091	834.402
37.082	20.845	1046.133	834.144
38.096	20.966	1045.500	834.146
39.111	21.113	1044.481	833.959
40.126	20.901	1042.952	831.654
41.140	20.576	1041.791	829.107
42.155	20.405	1039.959	826.762
43.169	20.409	1039.380	826.246
44.184	20.351	1038.623	825.296
45.199	20.370	1037.006	824.029
46.213	20.348	1036.432	823.393
47.228	20.712	1035.470	824.281
48.242	20.729	1034.147	823.238
49.257	20.593	1034.333	822.668
50.271	20.819	1033.192	822.755
51.286	20.836	1032.347	822.089
52.301	20.903	1031.572	821.718
53.315	20.775	1030.296	820.023
54.330	20.690	1029.584	818.986
55.344	20.818	1028.751	818.853
56.359	20.770	1027.838	817.829
57.374	20.526	1026.926	815.883
58.388	20.620	1026.255	815.721
59.403	20.616	1024.768	814.448
60.417	20.458	1024.334	813.290
61.432	20.569	1023.594	813.152
62.447	20.556	1023.092	812.617
63.461	20.581	1022.445	812.151
64.476	20.591	1021.186	811.125
65.490	20.389	1020.562	809.617
66.505	20.613	1019.436	809.691
67.520	20.494	1019.241	808.914
68.534	20.315	1017.705	806.789
69.549	20.029	1016.782	804.658
70.563	20.103	1016.140	804.420
71.578	20.124	1015.059	803.591
72.593	19.900	1014.152	801.765
73.607	20.126	1013.468	802.199
74.622	20.352	1013.355	803.087
75.636	20.385	1012.263	802.304
76.651	20.278	1011.424	801.074
77.666	20.013	1011.110	799.531
78.680	20.274	1010.277	800.005
79.695	20.383	1009.771	800.033
80.709	20.410	1009.141	799.591
81.724	20.403	1008.284	798.809
82.739	20.427	1007.261	798.037
83.753	20.954	1006.778	800.002
84.768	21.118	1006.048	800.104
85.782	21.184	1005.216	799.671
86.797	21.105	1003.755	798.078
87.812	20.905	1003.085	796.561
88.826	20.810	1002.484	795.580
89.841	21.024	1001.095	795.382
90.855	21.013	1000.264	794.604
91.870	20.980	999.017	793.392
92.884	21.026	997.886	792.631
93.899	20.907	996.945	791.274
94.914	21.027	996.355	791.278
95.928	20.779	995.494	789.401
96.943	20.603	994.266	787.560
97.957	20.332	992.993	785.259
98.972	20.299	991.765	784.069
99.987	20.547	991.535	784.935
101.001	20.787	990.594	785.207
102.016	20.681	990.172	784.325
103.030	20.674	988.874	783.192
104.045	20.530	987.678	781.530
105.060	20.379	986.730	780.031
106.074	20.526	986.366	780.337
107.089	20.795	986.210	781.352
108.103	20.654	984.877	779.595
109.118	20.474	983.221	777.408
110.133	20.502	982.642	777.008
111.147	20.310	981.298	775.019
112.162	20.222	980.126	773.631
113.176	20.548	979.429	774.467
114.191	20.461	978.543	773.310
115.206	20.126	977.527	770.948
116.220	20.054	976.691	769.903
117.235	20.354	975.199	769.989
118.249	20.241	974.830	769.127
119.264	20.256	973.690	768.226
120.279	20.276	973.533	768.123
121.293	20.397	972.361	767.664
122.308	20.241	972.129	766.726
123.322	20.262	970.322	765.323
124.337	20.052	969.122	763.384
125.352	19.643	967.587	760.308
126.366	19.496	966.657	758.862
127.381	20.360	966.564	762.523
128.395	20.676	965.897	763.314
129.410	20.802	965.151	763.211
130.424	20.771	963.983	762.081
131.439	20.616	963.510	760.962
132.454	20.565	962.564	759.927
133.468	20.571	961.552	759.087
134.483	20.825	960.655	759.416
135.497	20.898	960.122	759.249
136.512	20.945	959.308	758.743
137.527	20.964	958.317	757.971
138.541	20.908	957.830	757.278
139.556	20.952	956.789	756.578
140.570	21.008	955.971	756.105
141.585	21.099	954.634	755.378
142.600	21.002	954.043	754.424
143.614	21.125	953.078	754.125
144.629	21.236	952.673	754.215
145.643	21.124	950.772	752.160
146.658	20.934	949.892	750.579
147.673	20.949	948.512	749.489
148.687	20.852	947.804	748.448
149.702	20.789	946.849	747.354
150.716	20.791	946.342	746.899
151.731	20.912	945.408	746.613
152.746	21.029	945.121	746.821
153.760	21.058	944.263	746.201
154.775	21.164	943.754	746.188
155.789	21.173	942.312	745.018
156.804	21.014	941.833	743.897
157.819	21.154	941.035	743.795
158.833	21.193	940.327	743.337
159.848	21.405	938.756	742.928
160.862	20.999	937.895	740.459
161.877	21.088	937.348	740.339
162.892	21.047	936.341	739.307
163.906	21.084	935.328	738.595
164.921	21.174	933.968	737.840
165.935	21.205	933.148	737.255
166.950	21.226	932.284	736.597
167.964	21.098	931.557	735.416
168.979	20.984	930.473	734.017
169.994	20.876	929.975	733.103
171.008	21.185	929.096	733.646
172.023	21.244	927.863	732.856
173.037	20.865	927.072	730.575
174.052	20.903	925.968	729.798
175.067	20.923	925.825	729.708
176.081	20.955	925.397	729.438
177.096	20.835	924.853	728.442
178.110	20.714	923.198	726.571
179.125	20.379	922.974	724.932
180.140	20.497	922.473	724.966
181.154	20.706	922.301	725.640
182.169	20.875	922.357	726.323
183.183	21.124	921.654	726.741
184.198	21.025	920.097	725.037
185.213	21.073	919.345	724.581
186.227	21.238	918.772	724.748
187.242	21.088	917.881	723.359
188.256	21.154	917.549	723.311
189.271	21.220	916.571	722.745
190.286	20.937	915.562	720.717
191.300	20.284	914.795	717.352
192.315	19.581	912.812	712.832
193.329	19.680	912.231	712.726
194.344	20.532	912.887	716.688
195.359	20.926	912.843	718.212
196.373	21.049	912.465	718.361
197.388	21.048	911.198	717.296
198.402	20.892	911.225	716.612
199.417	20.937	910.316	716.018
200.432	20.809	909.053	714.437
201.446	20.567	908.315	712.800
202.461	20.693	907.855	712.891
203.475	19.829	905.979	707.824
204.490	19.037	904.818	703.613
205.504	20.031	904.990	707.751
206.519	20.573	905.258	710.110
207.534	20.636	904.779	709.931
208.548	21.160	904.081	711.456
209.563	20.758	903.197	709.060
210.577	20.766	902.688	708.629
211.592	21.103	902.620	709.887
212.607	21.238	901.161	709.223
213.621	21.126	901.340	708.848
214.636	21.260	900.344	708.546
215.650	21.210	899.225	707.400
216.665	21.270	898.861	707.291
217.680	21.184	898.022	706.222
218.694	20.790	896.865	703.657
219.709	20.745	896.230	702.916
220.723	20.891	895.780	703.090
221.738	21.040	895.459	703.378
222.753	21.019	894.485	702.465
223.767	21.129	894.058	702.511
224.782	21.256	893.914	702.846
225.796	21.265	893.451	702.455
226.811	20.544	891.817	698.214
227.826	20.020	890.543	695.050
228.840	20.191	889.941	695.205
229.855	20.198	889.352	694.712
230.869	19.898	888.175	692.531
231.884	20.390	888.208	694.463
232.899	21.097	888.330	697.324
233.913	21.008	887.708	696.421
234.928	20.891	887.191	695.486
235.942	20.965	886.183	694.927
236.957	20.664	885.306	692.980
237.972	20.594	884.864	692.295
238.986	20.683	884.252	692.111
240.001	20.893	883.365	692.186
241.015	20.822	883.094	691.632
242.030	20.866	882.931	691.619
243.045	21.068	882.366	691.914
244.059	21.048	882.213	691.656
245.074	20.809	881.155	689.818
246.088	20.596	880.209	688.175
247.103	21.050	879.593	689.426
248.117	21.311	879.937	690.667
249.132	21.691	879.172	691.504
250.147	21.670	878.835	691.094
251.161	21.771	878.054	690.820
252.176	21.795	877.564	690.465
253.190	21.941	876.746	690.336
254.205	22.079	876.180	690.373
255.220	22.010	875.692	689.654
256.234	21.705	875.352	688.130
257.249	21.878	873.930	687.629
258.263	21.789	873.738	687.067
259.278	21.948	872.985	687.036
260.293	22.002	872.400	686.725
261.307	21.788	871.679	685.262
262.322	21.776	870.616	684.318
263.336	21.005	868.660	679.717
264.351	19.829	866.784	673.612
265.366	20.070	866.871	674.560
266.380	21.184	867.349	679.207
267.395	21.451	867.197	680.066
268.409	21.513	866.310	679.553
269.424	21.778	865.731	680.064
270.439	21.575	865.552	679.076
271.453	21.694	864.850	678.928
272.468	21.894	864.349	679.247
273.482	21.992	864.164	679.422
274.497	21.377	862.894	675.988
275.512	21.186	862.090	674.560
276.526	21.607	862.341	676.322
277.541	21.790	861.505	676.315
278.555	21.421	861.035	674.462
279.570	21.506	859.641	673.637
280.585	21.466	859.567	673.367
281.599	21.430	858.429	672.277
282.614	20.978	857.279	669.581
283.628	20.953	856.692	668.966
284.643	21.376	856.249	670.182
285.657	21.047	855.185	668.030
286.672	20.750	854.206	666.071
287.687	21.261	854.248	667.999
288.701	21.393	853.966	668.223
289.716	21.090	852.670	665.997
290.730	20.747	852.638	664.601
291.745	20.578	851.559	663.058
292.760	20.906	851.731	664.383
293.774	21.894	851.917	668.236
294.789	22.119	851.730	668.886
295.803	22.118	851.415	668.576
296.818	22.279	850.661	668.535
297.833	21.769	849.059	665.285
298.847	21.750	848.422	664.652
299.862	22.108	848.199	665.775
300.876	22.171	848.013	665.809
301.891	22.074	846.975	664.570
302.906	21.790	846.408	662.990
303.920	21.840	846.147	662.918
304.935	22.217	845.462	663.747
305.949	22.165	845.198	663.283
306.964	22.001	843.975	661.647
307.979	22.130	843.671	661.836
308.993	22.453	843.459	662.826
310.008	22.418	843.072	662.332
311.022	22.089	842.138	660.303
312.037	22.051	841.235	659.394
313.052	21.779	840.472	657.716
314.066	20.769	839.184	652.867
315.081	20.583	838.594	651.654
316.095	21.401	839.019	654.989
317.110	21.953	838.437	656.544
318.125	21.112	837.063	652.267
319.139	20.135	835.602	647.424
320.154	20.127	835.221	647.042
321.168	21.044	835.668	650.755
322.183	21.626	835.548	652.773
323.197	21.754	835.644	653.267
324.212	22.030	835.277	653.952
325.227	21.891	834.844	653.037
326.241	21.943	833.563	652.170
327.256	21.837	833.144	651.393
328.270	21.613	832.553	650.039
329.285	21.648	831.126	649.000
330.300	21.374	830.784	647.660
331.314	21.739	830.304	648.580
332.329	21.963	830.192	649.263
333.343	22.119	829.876	649.534
334.358	22.126	829.479	649.192
335.373	22.233	829.235	649.338
336.387	22.496	829.233	650.250
337.402	22.481	829.563	650.396
338.416	22.565	828.443	649.772
339.431	22.466	828.399	649.313
340.446	22.750	827.648	649.713
341.460	22.344	827.760	648.248
342.475	22.031	827.473	646.813
343.489	22.488	826.779	647.896
344.504	22.750	826.185	648.336
345.519	22.891	825.853	648.536
346.533	22.915	825.487	648.277
347.548	22.933	824.879	647.808
348.562	22.911	824.321	647.235
349.577	22.919	823.852	646.838
350.592	22.748	823.410	645.807
351.606	22.831	822.607	645.423
352.621	22.711	821.889	644.366
353.635	22.565	820.757	642.889
354.650	21.999	819.219	639.567
355.665	21.033	818.193	635.193
356.679	21.497	817.808	636.524
357.694	21.858	817.342	637.419
358.708	21.775	816.765	636.609
359.723	22.391	816.676	638.721
360.738	22.819	815.826	639.550
361.752	22.609	815.544	638.511
362.767	22.958	815.486	639.672
363.781	23.187	814.990	640.057
364.796	23.164	815.127	640.023
365.810	23.293	814.660	640.067
366.825	23.236	813.862	639.179
367.840	22.893	812.923	637.146
368.854	22.646	811.775	635.299
369.869	22.570	812.086	635.212
370.883	22.624	811.746	635.087
371.898	22.518	811.103	634.146
372.913	22.513	811.143	634.100
373.927	22.685	810.340	634.036
374.942	22.701	810.114	633.862
375.956	22.901	809.818	634.292
376.971	23.052	809.112	634.225
377.986	23.266	808.782	634.678
379.000	23.106	808.239	633.622
380.015	23.026	807.678	632.838
381.029	22.931	807.316	632.161
382.044	23.280	806.706	632.872
383.059	23.044	806.251	631.618
384.073	23.200	805.502	631.534
385.088	23.161	805.081	631.005
386.102	23.012	804.232	629.753
387.117	23.059	803.189	629.049
388.132	22.521	802.518	626.556
389.146	22.102	801.596	624.291
390.161	22.418	801.515	625.296
391.175	23.012	801.108	627.030
392.190	22.602	800.486	625.034
393.205	21.229	798.308	618.421
394.219	19.944	796.427	612.366
395.234	19.830	796.565	612.014
396.248	21.445	798.144	618.894
397.263	22.832	798.859	624.301
398.278	22.833	798.281	623.800
399.292	22.608	797.646	622.454
400.307	22.462	797.080	621.443
401.321	22.504	796.938	621.423
402.336	22.958	796.429	622.572
403.350	23.420	796.568	624.254
404.365	23.717	796.438	625.143
405.380	23.917	795.910	625.375
406.394	23.825	795.367	624.568
407.409	23.780	794.995	624.065
408.423	23.700	794.331	623.208
409.438	23.875	794.154	623.628
410.453	23.854	793.391	622.900
411.467	23.786	793.407	622.617
412.482	23.787	793.044	622.281
413.496	23.920	792.590	622.336
414.511	23.890	792.312	621.957
415.526	23.962	791.465	621.488
416.540	23.753	790.911	620.269
417.555	23.556	790.334	619.076
418.569	23.541	790.134	618.812
419.584	23.425	789.241	617.653
420.599	23.297	788.809	616.813
421.613	157.193	1365.721	1797.590
422.628	136.044	1449.776	1797.668
