DTS Sentinel unit serial number:	SN413079Multiplexer serial number:	ORYXHardware model number:	OX4-SRSoftware version number:	ORYX F/W v4.00 Oryx Data Collector v3.7.2.0data status	okinstallation	princeton_trtdifferential loss correction	single-endedforward channel	channel 1reverse channel	N/Adate	2019/09/10time	22:28:11forward acquisition time	60.00reverse acquisition time	0.00gamma	496.2192k internal	0.2332k external	0.2332temperature offset calibration	0.9934default loss term (dB/km)	0.3790temperature slope calibration	1.0000multiplexer offset coefficient	1.0000multiplexer slope coefficient	1.0000fibre end	0.00T internal ref (°C)	30.37T ext. ref 1 (°C)	-0.29T ext. ref 2 (°C)	23.67length (m)	temperature (°C)	Stokes	anti-Stokes-747.200	-155.911	-0.351	-0.022
-746.185	-170.968	-0.432	0.015
-745.171	265.475	0.151	0.264
-744.156	170.992	-0.073	0.106
-743.142	-200.000	-0.002	-0.202
-742.127	-200.000	0.006	0.097
-741.112	65.108	0.205	-0.209
-740.098	-132.413	-0.154	0.020
-739.083	-156.902	0.105	0.006
-738.069	75.886	-0.163	0.174
-737.054	-41.059	0.138	0.072
-736.039	-196.550	0.134	-0.001
-735.025	-37.292	-0.171	-0.092
-734.010	-106.924	-0.328	0.073
-732.996	800.000	-0.064	-0.240
-731.981	-89.457	0.096	-0.028
-730.966	379.485	-0.140	-0.288
-729.952	-200.000	0.022	-0.198
-728.937	-52.731	0.129	-0.060
-727.923	656.273	-0.071	-0.184
-726.908	-158.125	0.122	-0.007
-725.894	141.537	0.172	-0.230
-724.879	-66.246	0.215	0.086
-723.864	-172.781	-0.384	-0.012
-722.850	229.481	0.044	-0.071
-721.835	52.705	0.110	-0.106
-720.821	800.000	0.072	-0.212
-719.806	-200.000	0.062	0.337
-718.791	212.320	-0.083	-0.132
-717.777	429.990	-0.034	-0.075
-716.762	-200.000	0.043	-0.228
-715.748	-112.209	0.258	0.052
-714.733	149.054	-0.056	-0.075
-713.718	-48.653	-0.302	-0.146
-712.704	-47.324	-0.401	0.196
-711.689	49.302	0.360	0.340
-710.675	-76.274	-0.113	0.040
-709.660	58.228	-0.137	0.135
-708.645	461.353	0.111	-0.249
-707.631	196.711	0.323	0.495
-706.616	-56.045	0.140	-0.063
-705.602	-200.000	-0.004	0.088
-704.587	289.157	-0.055	-0.101
-703.572	650.859	0.147	0.377
-702.558	800.000	0.060	0.236
-701.543	-61.674	-0.195	0.082
-700.529	-53.127	0.146	0.067
-699.514	-200.000	-0.004	0.097
-698.499	-45.722	-0.266	0.132
-697.485	52.894	-0.184	-0.177
-696.470	800.000	-0.116	0.351
-695.456	608.721	-0.077	-0.194
-694.441	-99.451	0.498	-0.126
-693.426	800.000	-0.047	0.159
-692.412	800.000	0.081	-0.341
-691.397	-200.000	-0.064	-0.291
-690.383	-156.312	0.297	0.019
-689.368	-200.000	-0.002	-0.198
-688.354	-19.102	-0.313	0.195
-687.339	-114.293	0.251	-0.049
-686.324	389.832	0.047	0.097
-685.310	435.599	-0.088	-0.193
-684.295	-113.872	-0.089	-0.017
-683.281	-4.021	0.149	-0.104
-682.266	-200.000	0.015	0.158
-681.251	-200.000	0.018	0.094
-680.237	-8.842	0.153	0.103
-679.222	-124.203	0.419	0.066
-678.208	224.221	-0.024	0.039
-677.193	196.233	-0.132	0.201
-676.178	197.801	0.087	-0.134
-675.164	-200.000	-0.022	0.213
-674.149	263.130	0.064	0.112
-673.135	729.399	0.044	0.119
-672.120	-91.193	0.206	0.059
-671.105	800.000	-0.040	-0.117
-670.091	635.295	-0.101	-0.257
-669.076	10.404	-0.280	-0.214
-668.062	-96.136	0.009	0.002
-667.047	-6.293	0.213	0.146
-666.032	800.000	-0.083	-0.319
-665.018	229.519	0.064	-0.106
-664.003	800.000	0.029	-0.104
-662.989	300.033	0.172	-0.317
-661.974	111.353	-0.122	-0.147
-660.959	-179.810	-0.173	-0.004
-659.945	-70.648	-0.109	0.041
-658.930	239.066	-0.055	-0.091
-657.916	800.000	-0.078	0.264
-656.901	-133.508	0.066	-0.008
-655.886	-49.299	0.356	-0.170
-654.872	73.422	-0.250	-0.262
-653.857	-132.798	0.202	0.026
-652.843	-102.516	0.137	0.033
-651.828	-89.330	0.365	-0.108
-650.814	14.633	-0.209	0.164
-649.799	323.416	-0.034	-0.066
-648.784	-33.571	-0.119	0.066
-647.770	123.818	0.054	0.068
-646.755	-39.562	-0.144	-0.076
-645.741	-31.791	0.236	0.133
-644.726	-200.000	-0.007	-0.360
-643.711	47.866	0.196	0.184
-642.697	57.054	0.143	-0.140
-641.682	142.147	-0.140	0.186
-640.668	-177.708	0.373	0.009
-639.653	-50.475	-0.105	0.050
-638.638	-109.273	0.261	0.055
-637.624	-200.000	-0.008	-0.068
-636.609	18.872	0.233	-0.187
-635.595	-1.218	0.238	-0.168
-634.580	240.980	-0.153	-0.256
-633.565	-200.000	-0.004	-0.113
-632.551	-105.474	-0.231	-0.053
-631.536	49.351	-0.218	-0.205
-630.522	54.295	0.188	-0.181
-629.507	-191.114	0.534	-0.006
-628.492	-63.396	-0.258	0.106
-627.478	658.948	-0.095	0.244
-626.463	45.469	-0.259	-0.240
-625.449	-76.077	-0.388	0.137
-624.434	800.000	-0.056	0.223
-623.419	800.000	-0.080	-0.298
-622.405	-5.610	-0.032	0.022
-621.390	-48.870	0.279	-0.134
-620.376	162.376	-0.062	0.088
-619.361	800.000	-0.028	-0.097
-618.346	149.453	0.098	-0.132
-617.332	-41.496	0.036	-0.018
-616.317	217.951	-0.063	0.101
-615.303	800.000	0.047	-0.158
-614.288	-200.000	-0.048	0.234
-613.273	-76.648	0.028	0.010
-612.259	246.385	-0.065	0.110
-611.244	164.046	-0.147	-0.208
-610.230	800.000	-0.060	-0.213
-609.215	33.204	0.176	0.153
-608.201	6.806	0.061	0.046
-607.186	-200.000	0.019	0.383
-606.171	56.144	-0.051	-0.049
-605.157	-9.300	-0.076	-0.051
-604.142	800.000	0.023	-0.095
-603.128	800.000	-0.126	-0.353
-602.113	220.708	0.226	-0.363
-601.098	36.007	-0.096	0.084
-600.084	100.713	-0.268	0.312
-599.069	-200.000	0.062	0.323
-598.055	-200.000	0.087	0.512
-597.040	41.341	-0.318	-0.288
-596.025	800.000	-0.089	0.319
-595.011	-200.000	0.072	0.340
-593.996	-114.226	-0.337	0.065
-592.982	-79.860	0.148	0.050
-591.967	-200.000	0.040	0.312
-590.952	109.724	-0.241	0.289
-589.938	16.856	0.015	-0.012
-588.923	122.032	-0.074	-0.093
-587.909	-144.464	0.080	0.007
-586.894	-92.064	-0.218	0.062
-585.879	800.000	-0.094	-0.303
-584.865	-120.136	0.215	0.037
-583.850	750.875	-0.071	0.192
-582.836	139.652	0.102	-0.135
-581.821	321.723	-0.054	-0.103
-580.806	352.711	-0.156	-0.310
-579.792	-75.985	-0.107	0.038
-578.777	429.306	0.027	0.058
-577.763	-200.000	-0.020	-0.209
-576.748	-200.000	-0.060	-0.261
-575.733	198.338	-0.079	-0.121
-574.719	82.809	-0.139	0.151
-573.704	76.507	0.124	0.131
-572.690	-107.223	0.159	0.035
-571.675	-200.000	0.034	0.356
-570.661	-7.267	0.248	0.168
-569.646	-22.854	-0.261	0.158
-568.631	-11.348	-0.204	-0.134
-567.617	768.973	-0.126	0.342
-566.602	-19.247	-0.238	-0.147
-565.588	800.000	-0.066	-0.230
-564.573	37.485	-0.125	-0.111
-563.558	-117.957	-0.550	-0.098
-562.544	-200.000	-0.002	-0.108
-561.529	427.349	0.089	-0.193
-560.515	-121.693	0.047	0.008
-559.500	800.000	0.074	-0.251
-558.485	65.827	-0.118	0.119
-557.471	-87.367	0.125	-0.038
-556.456	-200.000	-0.008	-0.454
-555.442	-36.044	0.131	-0.071
-554.427	-58.089	-0.277	-0.121
-553.412	800.000	-0.055	0.227
-552.398	800.000	-0.116	-0.326
-551.383	-200.000	-0.020	-0.495
-550.369	360.341	0.108	0.216
-549.354	800.000	-0.049	-0.175
-548.339	-1.320	0.146	0.103
-547.325	-1.426	0.153	0.108
-546.310	-59.357	-0.136	0.058
-545.296	-200.000	-0.027	0.265
-544.281	-200.000	-0.043	0.307
-543.266	99.855	0.138	-0.160
-542.252	-200.000	-0.032	0.183
-541.237	200.499	0.103	-0.159
-540.223	-67.967	-0.231	-0.090
-539.208	68.723	-0.160	-0.164
-538.193	-21.658	-0.220	0.134
-537.179	800.000	-0.004	0.016
-536.164	101.479	0.196	0.227
-535.150	-19.710	-0.405	0.250
-534.135	539.423	-0.049	-0.117
-533.121	-59.175	0.263	-0.113
-532.106	-200.000	-0.015	0.151
-531.091	103.554	-0.202	-0.237
-530.077	205.111	-0.225	0.349
-529.062	88.467	0.119	0.132
-528.048	800.000	-0.040	-0.137
-527.033	-200.000	-0.011	0.329
-526.018	-24.617	0.222	0.132
-525.004	-73.991	-0.397	0.144
-523.989	139.672	0.079	-0.104
-522.975	165.437	0.158	0.223
-521.960	-98.933	0.261	0.066
-520.945	87.681	0.126	0.139
-519.931	363.919	0.209	-0.418
-518.916	-146.402	0.254	-0.022
-517.902	-200.000	0.030	-0.159
-516.887	-133.077	-0.345	-0.044
-515.872	800.000	0.097	-0.292
-514.858	126.976	-0.272	-0.343
-513.843	-126.616	-0.320	-0.047
-512.829	48.908	-0.018	0.017
-511.814	-73.355	0.161	-0.059
-510.799	-64.309	-0.329	0.134
-509.785	138.606	0.123	-0.160
-508.770	410.096	-0.121	0.256
-507.756	-58.247	-0.140	0.061
-506.741	800.000	-0.038	-0.124
-505.726	-93.665	-0.354	0.098
-504.712	-19.229	-0.261	0.161
-503.697	179.385	0.163	0.237
-502.683	66.732	0.049	0.049
-501.668	-42.362	0.319	-0.162
-500.653	347.823	-0.114	-0.223
-499.639	-200.000	0.056	0.315
-498.624	485.606	-0.069	-0.156
-497.610	45.841	-0.085	0.079
-496.595	-119.082	0.173	-0.030
-495.581	-83.573	0.050	0.016
-494.566	-200.000	-0.025	0.162
-493.551	741.681	-0.045	0.120
-492.537	27.427	-0.157	-0.132
-491.522	-200.000	0.022	0.177
-490.508	800.000	0.040	-0.112
-489.493	-194.010	-0.364	-0.003
-488.478	-102.525	-0.155	-0.037
-487.464	-36.077	-0.120	0.065
-486.449	-22.275	0.153	0.092
-485.435	51.958	-0.191	0.181
-484.420	-22.635	-0.144	-0.086
-483.405	244.868	0.094	-0.157
-482.391	338.727	0.163	0.316
-481.376	-102.766	-0.055	-0.013
-480.362	-1.282	-0.161	0.113
-479.347	111.901	-0.158	-0.190
-478.332	302.437	-0.078	-0.143
-477.318	756.045	0.096	-0.259
-476.303	-100.293	-0.269	0.067
-475.289	-200.000	-0.126	0.000
-474.274	-200.000	-0.067	-0.398
-473.259	-63.299	0.343	0.141
-472.245	189.136	0.066	0.098
-471.230	-43.072	-0.152	-0.077
-470.216	800.000	0.066	0.224
-469.201	-46.506	-0.272	-0.133
-468.186	-31.296	0.213	0.119
-467.172	562.740	0.044	-0.105
-466.157	-200.000	-0.031	-0.173
-465.143	659.567	0.048	-0.122
-464.128	800.000	-0.033	0.109
-463.113	-200.000	0.041	0.212
-462.099	-107.053	-0.232	0.051
-461.084	-88.243	0.202	0.060
-460.070	-115.883	-0.139	-0.026
-459.055	-48.958	0.247	0.118
-458.040	16.339	0.138	-0.108
-457.026	-108.850	0.171	-0.036
-456.011	403.518	0.041	-0.085
-454.997	-51.984	0.146	-0.067
-453.982	226.810	0.218	-0.352
-452.968	43.353	0.124	-0.112
-451.953	-9.003	0.083	-0.055
-450.938	-106.773	0.208	0.046
-449.924	226.118	-0.081	-0.131
-448.909	181.912	-0.027	-0.040
-447.895	8.679	0.203	-0.152
-446.880	45.928	-0.166	0.152
-445.865	-200.000	-0.007	-0.203
-444.851	-200.000	-0.026	0.233
-443.836	8.373	-0.274	-0.205
-442.822	800.000	0.100	-0.288
-441.807	800.000	0.062	0.254
-440.792	-65.795	-0.199	-0.079
-439.778	800.000	-0.068	0.247
-438.763	248.181	0.116	0.195
-437.749	-200.000	-0.033	-0.279
-436.734	-123.415	0.429	-0.068
-435.719	103.961	-0.144	0.168
-434.705	-163.655	0.227	0.011
-433.690	-145.376	0.268	0.024
-432.676	-142.941	-0.387	-0.037
-431.661	32.786	0.260	-0.224
-430.646	-200.000	-0.024	0.149
-429.632	-110.141	0.193	-0.040
-428.617	-183.474	0.235	-0.004
-427.603	126.633	0.243	-0.306
-426.588	800.000	0.021	0.077
-425.573	-96.015	-0.406	0.107
-424.559	365.756	0.277	-0.555
-423.544	-59.045	-0.161	-0.069
-422.530	-95.359	0.143	0.038
-421.515	-51.682	0.284	-0.132
-420.500	-200.000	0.062	0.429
-419.486	275.937	0.157	0.276
-418.471	30.299	0.257	0.218
-417.457	-94.594	0.202	-0.055
-416.442	-86.853	-0.202	-0.061
-415.428	-40.383	0.018	-0.010
-414.413	-200.000	-0.055	0.305
-413.398	-72.259	0.133	0.049
-412.384	-15.408	0.143	-0.091
-411.369	-200.000	-0.019	-0.261
-410.355	-48.288	0.207	-0.099
-409.340	-79.419	0.257	0.086
-408.325	-200.000	-0.013	-0.205
-407.311	800.000	-0.108	-0.433
-406.296	800.000	-0.117	-0.352
-405.282	-23.657	0.432	0.257
-404.267	95.296	0.321	-0.363
-403.252	-200.000	-0.023	-0.201
-402.238	57.655	0.131	-0.127
-401.223	-145.850	-0.350	-0.031
-400.209	-16.411	0.100	-0.063
-399.194	32.959	0.031	0.027
-398.179	-109.917	-0.206	0.043
-397.165	-88.807	-0.177	-0.052
-396.150	-200.000	-0.016	-0.089
-395.136	800.000	-0.037	0.105
-394.121	-9.099	0.129	-0.085
-393.106	800.000	-0.131	-0.479
-392.092	-90.809	-0.060	-0.017
-391.077	-91.698	-0.189	-0.053
-390.063	-200.000	-0.057	-0.000
-389.048	47.388	0.089	0.083
-388.033	-85.004	-0.161	0.050
-387.019	-49.511	0.188	-0.089
-386.004	-58.982	0.151	0.065
-384.990	-147.612	0.278	-0.023
-383.975	800.000	0.085	-0.276
-382.960	-73.664	0.204	0.074
-381.946	-59.620	-0.119	0.051
-380.931	496.359	-0.045	-0.102
-379.917	230.411	0.186	0.301
-378.902	-200.000	0.007	0.327
-377.888	-129.250	-0.116	0.016
-376.873	-72.018	0.113	0.042
-375.858	-52.477	-0.277	-0.127
-374.844	-88.262	0.180	0.053
-373.829	-127.593	0.204	0.029
-372.815	800.000	0.085	-0.316
-371.800	166.052	-0.254	0.357
-370.785	26.320	-0.088	0.073
-369.771	-83.985	-0.259	0.082
-368.756	32.948	0.276	0.237
-367.742	800.000	0.066	-0.224
-366.727	681.375	-0.102	-0.263
-365.712	-36.601	-0.120	-0.064
-364.698	-133.462	0.258	0.032
-363.683	800.000	0.026	0.079
-362.669	78.647	0.079	0.083
-361.654	800.000	0.081	0.289
-360.639	800.000	-0.026	0.102
-359.625	-200.000	-0.023	-0.323
-358.610	-55.430	0.144	0.064
-357.596	23.788	-0.066	-0.054
-356.581	-57.297	-0.164	-0.071
-355.566	-59.016	-0.156	0.067
-354.552	-50.505	0.261	0.122
-353.537	-200.000	-0.029	-0.198
-352.523	102.115	-0.111	0.128
-351.508	-200.000	0.023	-0.243
-350.493	-195.902	-0.208	0.001
-349.479	268.076	-0.045	0.079
-348.464	-200.000	-0.012	0.130
-347.450	440.401	-0.140	-0.302
-346.435	800.000	0.024	0.100
-345.420	-133.333	-0.063	0.008
-344.406	-200.000	-0.009	0.180
-343.391	800.000	-0.092	-0.311
-342.377	-46.453	0.054	-0.026
-341.362	-93.492	-0.126	-0.035
-340.348	259.043	0.178	-0.304
-339.333	-71.761	-0.108	0.040
-338.318	301.330	-0.042	0.076
-337.304	-105.672	-0.178	-0.040
-336.289	45.662	0.102	0.093
-335.275	56.265	-0.117	0.113
-334.260	-24.188	0.129	0.076
-333.245	339.270	-0.105	0.203
-332.231	-28.036	-0.284	-0.163
-331.216	9.400	0.347	0.260
-330.202	429.519	-0.088	0.188
-329.187	800.000	0.010	-0.033
-328.172	800.000	-0.023	-0.085
-327.158	-200.000	-0.023	-0.207
-326.143	53.961	-0.128	-0.121
-325.129	800.000	-0.040	0.169
-324.114	277.593	-0.089	-0.157
-323.099	139.334	0.143	0.186
-322.085	55.459	-0.092	0.088
-321.070	442.201	0.068	0.147
-320.056	153.484	-0.123	-0.166
-319.041	-200.000	0.012	0.188
-318.026	-45.842	0.036	0.017
-317.012	37.713	0.212	0.186
-315.997	800.000	0.038	-0.118
-314.983	-74.441	0.258	-0.092
-313.968	14.905	-0.456	-0.353
-312.953	-41.663	-0.124	0.063
-311.939	-159.851	0.207	0.011
-310.924	86.566	-0.182	-0.198
-309.910	-200.000	0.045	0.522
-308.895	325.301	0.097	-0.184
-307.880	665.446	-0.061	0.155
-306.866	-126.078	-0.135	0.020
-305.851	-40.258	0.286	0.147
-304.837	164.579	0.082	-0.114
-303.822	-97.336	0.229	0.059
-302.807	-67.787	0.048	0.019
-301.793	201.441	0.113	0.172
-300.778	215.664	-0.104	0.163
-299.764	-60.584	0.214	0.090
-298.749	-200.000	-0.014	0.215
-297.735	-54.284	0.170	-0.076
-296.720	800.000	-0.061	-0.202
-295.705	203.894	0.155	-0.238
-294.691	-63.269	-0.229	0.093
-293.676	800.000	0.042	-0.127
-292.662	-153.728	-0.044	-0.003
-291.647	-200.000	-0.014	-0.205
-290.632	-200.000	-0.063	-0.325
-289.618	-28.952	0.348	0.198
-288.603	-78.890	-0.131	-0.044
-287.589	-68.507	0.206	0.079
-286.574	168.290	0.199	0.280
-285.559	-110.462	0.161	-0.033
-284.545	1.587	-0.128	-0.091
-283.530	-144.788	0.096	0.009
-282.516	219.996	-0.050	0.079
-281.501	-200.000	-0.002	-0.068
-280.486	-200.000	0.029	-0.145
-279.472	-22.311	-0.277	0.166
-278.457	243.210	0.096	0.158
-277.443	38.352	0.124	-0.109
-276.428	138.426	-0.018	-0.024
-275.413	167.221	0.120	-0.169
-274.399	-72.228	-0.380	0.139
-273.384	13.523	0.335	0.257
-272.370	800.000	-0.006	0.021
-271.355	79.472	-0.060	0.064
-270.340	-126.197	-0.089	-0.013
-269.326	-167.024	0.088	0.004
-268.311	-155.003	-0.091	0.006
-267.297	-63.423	0.112	-0.046
-266.282	149.858	-0.071	0.096
-265.267	112.039	0.104	0.124
-264.253	56.591	0.327	0.314
-263.238	-200.000	0.121	0.001
-262.224	288.752	-0.090	-0.160
-261.209	-200.000	-0.035	0.189
-260.195	-117.156	0.560	0.101
-259.180	81.860	-0.153	-0.164
-258.165	49.761	0.462	0.430
-257.151	573.540	0.058	0.139
-256.136	-157.833	-0.303	-0.018
-255.122	238.369	-0.210	0.345
-254.107	-61.578	-0.051	-0.021
-253.092	-200.000	0.007	0.102
-252.078	-200.000	-0.018	-0.474
-251.063	800.000	0.048	-0.167
-250.049	-200.000	0.018	-0.183
-249.034	-17.131	0.075	-0.047
-248.019	800.000	-0.013	-0.051
-247.005	-67.134	0.307	-0.119
-245.990	341.576	0.013	-0.025
-244.976	-200.000	-0.020	-0.215
-243.961	73.794	0.236	0.244
-242.946	179.320	0.039	-0.056
-241.932	-116.099	-0.048	-0.009
-240.917	-200.000	-0.013	-0.074
-239.903	-136.644	-0.294	0.034
-238.888	105.836	0.114	0.133
-237.873	-103.696	-0.207	0.048
-236.859	-200.000	0.009	-0.306
-235.844	-200.000	0.006	0.135
-234.830	-115.616	0.218	-0.040
-233.815	-8.321	-0.038	0.025
-232.800	155.211	0.138	0.188
-231.786	46.154	-0.081	0.074
-230.771	-118.074	-0.186	0.033
-229.757	-6.163	-0.240	0.162
-228.742	-127.049	0.246	-0.036
-227.727	-104.185	-0.116	-0.026
-226.713	-200.000	0.018	0.276
-225.698	-200.000	0.031	0.331
-224.684	-155.969	0.083	-0.005
-223.669	-162.715	0.224	0.011
-222.655	-200.000	0.012	0.132
-221.640	-200.000	0.006	-0.319
-220.625	52.009	0.064	0.060
-219.611	-200.000	-0.031	-0.401
-218.596	389.724	0.060	0.123
-217.582	247.206	-0.092	-0.153
-216.567	-164.098	0.485	0.022
-215.552	-103.961	0.170	0.039
-214.538	800.000	0.071	0.215
-213.523	443.872	-0.145	-0.313
-212.509	-71.186	-0.065	-0.024
-211.494	800.000	0.012	0.044
-210.479	33.849	-0.152	0.131
-209.465	800.000	0.193	0.574
-208.450	-200.000	0.047	0.494
-207.436	420.524	0.059	0.125
-206.421	-200.000	0.018	0.327
-205.406	-121.696	-0.234	-0.038
-204.392	120.825	0.151	0.185
-203.377	-200.000	0.029	-0.237
-202.363	800.000	0.080	-0.237
-201.348	695.312	0.032	-0.082
-200.333	63.487	-0.216	0.214
-199.319	-122.451	-0.115	-0.018
-198.304	73.573	-0.138	-0.142
-197.290	-7.810	-0.242	-0.161
-196.275	-62.601	0.065	-0.027
-195.260	-200.000	0.009	0.140
-194.246	411.757	-0.079	0.165
-193.231	67.285	-0.264	0.265
-192.217	-16.429	-0.240	-0.150
-191.202	291.314	-0.103	0.185
-190.187	-10.781	-0.127	-0.082
-189.173	800.000	0.053	-0.207
-188.158	34.554	-0.193	0.166
-187.144	-200.000	0.061	0.272
-186.129	-61.001	-0.246	0.102
-185.114	-200.000	-0.005	0.095
-184.100	80.986	-0.203	-0.216
-183.085	48.708	0.120	0.111
-182.071	800.000	0.044	-0.183
-181.056	112.715	0.288	-0.343
-180.042	307.445	-0.043	0.079
-179.027	-200.000	0.029	-0.196
-178.012	196.928	-0.226	-0.339
-176.998	-80.608	0.406	-0.133
-175.983	-48.955	-0.381	-0.180
-174.969	-200.000	0.006	-0.094
-173.954	-200.000	-0.027	0.213
-172.939	800.000	0.085	0.319
-171.925	-200.000	0.010	0.231
-170.910	-200.000	-0.020	-0.159
-169.896	47.070	-0.163	-0.149
-168.881	132.223	0.026	0.033
-167.866	-200.000	0.010	-0.172
-166.852	-154.300	-0.204	-0.014
-165.837	-200.000	0.015	-0.126
-164.823	289.846	-0.178	0.318
-163.808	233.942	0.027	0.043
-162.793	800.000	-0.007	-0.023
-161.779	-200.000	-0.062	-0.338
-160.764	-37.703	0.280	0.146
-159.750	-149.963	-0.138	-0.011
-158.735	-98.562	0.090	0.023
-157.720	148.729	-0.192	0.255
-156.706	4.692	0.246	-0.178
-155.691	800.000	0.025	0.107
-154.677	44.076	0.148	0.134
-153.662	387.185	0.035	0.071
-152.647	67.056	-0.032	-0.033
-151.633	63.057	-0.106	0.104
-150.618	92.718	-0.025	-0.028
-149.604	-200.000	0.002	0.128
-148.589	79.536	-0.004	-0.004
-147.574	-200.000	0.018	-0.222
-146.560	800.000	0.052	-0.182
-145.545	800.000	-0.037	0.152
-144.531	-48.464	0.281	-0.133
-143.516	68.551	-0.062	-0.062
-142.502	-200.000	0.005	-0.219
-141.487	-200.000	-0.382	0.001
-140.472	119.230	0.211	-0.257
-139.458	408.567	-0.058	0.122
-138.443	-200.000	0.034	0.153
-137.429	-14.385	0.172	0.109
-136.414	-200.000	-0.024	-0.629
-135.399	23.241	0.316	0.255
-134.385	800.000	0.057	0.190
-133.370	-1.866	0.128	0.088
-132.356	39.536	-0.099	0.088
-131.341	173.375	-0.145	0.206
-130.326	-200.000	-0.102	-0.479
-129.312	-87.836	-0.459	0.136
-128.297	-19.055	-0.215	0.131
-127.283	-172.803	0.306	-0.009
-126.268	-112.631	-0.274	0.054
-125.253	-48.253	0.185	0.088
-124.239	-200.000	-0.029	0.228
-123.224	231.425	-0.066	-0.107
-122.210	796.935	-0.055	-0.149
-121.195	800.000	0.042	-0.116
-120.180	-182.198	0.091	-0.002
-119.166	12.719	-0.223	-0.169
-118.151	-76.224	-0.259	0.090
-117.137	381.387	0.175	0.353
-116.122	38.648	0.320	-0.280
-115.107	800.000	-0.066	0.229
-114.093	-83.968	-0.062	0.019
-113.078	-22.873	0.089	-0.052
-112.064	-200.000	-0.020	0.417
-111.049	-111.072	0.160	0.032
-110.034	-147.982	0.036	0.003
-109.020	-65.387	-0.444	0.175
-108.005	-139.403	-0.143	-0.015
-106.991	71.787	0.116	-0.119
-105.976	800.000	-0.171	-0.469
-104.962	-200.000	-0.020	0.184
-103.947	-40.658	0.401	-0.204
-102.932	18.729	-0.055	0.043
-101.918	-113.099	0.233	-0.045
-100.903	-158.921	0.123	-0.007
-99.889	-78.690	0.240	-0.081
-98.874	-200.000	-0.026	-0.324
-97.859	45.246	0.059	-0.053
-96.845	437.859	0.017	-0.036
-95.830	-200.000	-0.076	-0.381
-94.816	-31.589	-0.211	0.116
-93.801	800.000	-0.053	0.200
-92.786	-0.812	-0.210	-0.146
-91.772	-80.638	0.463	-0.151
-90.757	23.948	0.211	0.170
-89.743	96.553	0.154	0.173
-88.728	-44.303	-0.144	-0.071
-87.713	21.456	0.188	-0.150
-86.699	-4.431	-0.031	0.021
-85.684	422.806	-0.187	-0.394
-84.670	800.000	0.043	-0.125
-83.655	-200.000	-0.036	0.300
-82.640	283.593	-0.191	0.337
-81.626	-200.000	0.052	-0.372
-80.611	361.846	-0.065	0.128
-79.597	89.484	-0.198	-0.216
-78.582	-147.343	-0.348	0.029
-77.567	7.260	-0.186	0.136
-76.553	-200.000	0.043	-0.258
-75.538	489.097	-0.112	0.251
-74.524	-118.516	-0.031	0.005
-73.509	800.000	0.109	-0.345
-72.494	317.436	-0.140	0.259
-71.480	800.000	0.065	0.243
-70.465	800.000	0.050	0.143
-69.451	-176.748	0.221	-0.006
-68.436	800.000	-0.027	-0.082
-67.422	-35.894	0.113	-0.060
-66.407	-200.000	-0.019	-0.177
-65.392	-192.818	-0.363	0.003
-64.378	126.829	0.130	0.162
-63.363	-147.092	-0.298	-0.025
-62.349	374.826	0.092	0.184
-61.334	97.494	-0.812	-0.914
-60.319	493.115	0.232	0.521
-59.305	800.000	-0.305	-0.912
-58.290	209.271	0.744	1.141
-57.276	214.124	0.837	1.298
-56.261	-200.000	103.427	611.771
-55.246	519.208	1468.272	3368.588
-54.232	182.539	2661.965	3844.890
-53.217	114.202	2149.079	2561.437
-52.203	42.364	1589.425	1415.081
-51.188	33.926	1323.727	1128.633
-50.173	30.822	1282.403	1075.460
-49.159	54.561	1335.337	1260.379
-48.144	55.461	1351.452	1280.840
-47.130	34.059	1307.344	1115.268
-46.115	30.476	1289.488	1079.225
-45.100	30.309	1284.369	1073.929
-44.086	30.270	1282.051	1071.723
-43.071	30.288	1279.682	1069.802
-42.057	30.129	1278.029	1067.467
-41.042	30.333	1275.859	1066.783
-40.027	30.275	1275.010	1065.698
-39.013	30.285	1272.691	1063.774
-37.998	30.302	1270.997	1062.412
-36.984	30.378	1269.061	1061.188
-35.969	30.396	1267.537	1059.973
-34.954	30.259	1266.055	1057.909
-33.940	30.401	1264.786	1057.618
-32.925	30.480	1263.646	1057.069
-31.911	30.410	1262.025	1055.274
-30.896	30.530	1260.253	1054.435
-29.881	30.554	1259.025	1053.500
-28.867	30.394	1258.039	1051.727
-27.852	30.563	1256.110	1051.027
-26.838	30.556	1254.894	1049.927
-25.823	30.585	1253.733	1049.081
-24.809	30.511	1252.326	1047.443
-23.794	30.469	1251.426	1046.415
-22.779	30.430	1249.893	1044.868
-21.765	30.481	1248.814	1044.213
-20.750	30.502	1247.307	1043.031
-19.736	30.432	1245.898	1041.419
-18.721	30.383	1244.546	1039.972
-17.706	30.239	1243.931	1038.611
-16.692	30.396	1242.512	1038.264
-15.677	30.368	1241.584	1037.287
-14.663	30.156	1240.801	1035.410
-13.648	30.244	1239.355	1034.654
-12.633	30.259	1238.685	1034.139
-11.619	30.370	1237.621	1033.826
-10.604	30.232	1237.109	1032.590
-9.590	30.472	1235.262	1032.341
-8.575	30.227	1234.535	1030.329
-7.560	30.216	1233.711	1029.540
-6.546	30.276	1233.142	1029.356
-5.531	30.228	1232.038	1028.130
-4.517	30.294	1231.381	1027.905
-3.502	30.320	1230.377	1027.171
-2.487	30.381	1229.411	1026.658
-1.473	30.243	1225.371	1022.485
-0.458	28.739	1210.404	1001.762
0.556	23.006	1192.680	963.941
1.571	19.264	1197.735	947.409
2.586	18.563	1211.211	954.083
3.600	18.416	1200.750	944.947
4.615	13.340	1129.925	862.721
5.629	4.210	1055.744	761.344
6.644	0.044	1035.675	726.706
7.659	-0.422	1033.365	722.771
8.673	-0.317	1032.320	722.485
9.688	-0.474	1030.760	720.572
10.702	-0.033	1029.240	721.566
11.717	5.720	1037.544	755.100
12.731	14.700	1050.519	808.111
13.746	18.817	1054.967	831.429
14.761	19.471	1055.417	834.876
15.775	19.279	1054.740	833.337
16.790	19.040	1054.246	831.716
17.804	19.135	1053.197	831.276
18.819	19.206	1053.208	831.553
19.834	19.180	1052.443	830.749
20.848	19.144	1052.040	830.187
21.863	19.196	1051.769	830.149
22.877	19.140	1050.715	828.972
23.892	19.239	1049.560	828.465
24.907	19.117	1049.477	827.741
25.921	19.160	1048.525	827.122
26.936	19.157	1046.818	825.686
27.950	19.219	1044.978	824.462
28.965	18.912	1043.403	821.680
29.980	18.988	1041.774	820.684
30.994	19.187	1040.345	820.434
32.009	19.239	1039.329	819.810
33.023	19.100	1037.755	817.832
34.038	19.200	1037.043	817.675
35.053	19.346	1036.515	817.877
36.067	19.215	1035.731	816.569
37.082	19.349	1034.816	816.408
38.096	19.577	1034.212	816.937
39.111	19.476	1033.680	815.967
40.126	19.304	1031.803	813.601
41.140	19.157	1029.785	811.246
42.155	18.902	1028.331	808.829
43.169	18.945	1027.488	808.295
44.184	18.938	1026.882	807.716
45.199	18.726	1025.874	805.859
46.213	18.959	1024.617	805.892
47.228	18.938	1023.745	805.035
48.242	19.022	1022.933	804.718
49.257	19.074	1022.503	804.553
50.271	19.190	1021.516	804.248
51.286	19.212	1020.212	803.250
52.301	19.236	1019.543	802.763
53.315	19.098	1018.368	801.127
54.330	19.196	1017.385	800.739
55.344	19.243	1016.594	800.261
56.359	19.176	1015.405	798.944
57.374	19.068	1014.549	797.701
58.388	19.056	1014.080	797.206
59.403	19.024	1012.806	795.984
60.417	18.933	1012.194	795.012
61.432	19.035	1010.884	794.386
62.447	19.112	1010.612	794.458
63.461	19.082	1010.060	793.811
64.476	19.113	1008.894	792.968
65.490	18.977	1008.198	791.725
66.505	18.988	1007.363	791.052
67.520	19.055	1006.810	790.856
68.534	18.869	1005.620	788.995
69.549	18.631	1004.294	786.794
70.563	18.662	1004.019	786.651
71.578	18.695	1002.503	785.546
72.593	18.398	1002.100	783.799
73.607	18.766	1001.452	784.908
74.622	19.059	1001.017	785.835
75.636	18.973	1000.391	784.881
76.651	18.835	999.346	783.365
77.666	18.682	998.531	781.961
78.680	18.839	997.843	782.065
79.695	18.952	997.400	782.161
80.709	18.922	996.616	781.340
81.724	18.905	995.680	780.461
82.739	19.162	994.539	780.666
83.753	19.299	994.398	781.105
84.768	19.528	993.228	781.156
85.782	19.519	992.461	780.441
86.797	19.426	991.462	779.167
87.812	19.241	990.715	777.675
88.826	19.379	989.509	777.283
89.841	19.355	988.768	776.523
90.855	19.399	987.789	775.885
91.870	19.297	986.990	774.728
92.884	19.413	985.595	774.083
93.899	19.389	984.527	773.070
94.914	19.437	983.887	772.715
95.928	19.233	982.880	770.944
96.943	19.216	981.256	769.525
97.957	18.843	980.043	766.841
98.972	18.759	979.003	765.587
99.987	18.845	978.817	765.756
101.001	19.180	977.785	766.371
102.016	19.108	977.066	765.421
103.030	19.006	976.312	764.310
104.045	18.833	975.229	762.624
105.060	18.822	973.951	761.508
106.074	19.083	972.993	761.846
107.089	19.331	972.853	762.770
108.103	19.199	971.670	761.192
109.118	19.005	970.267	759.167
110.133	19.107	969.312	758.803
111.147	18.871	967.776	756.495
112.162	18.810	967.209	755.714
113.176	19.064	966.380	756.119
114.191	18.888	965.510	754.596
115.206	18.580	964.469	752.364
116.220	18.704	963.424	752.029
117.235	18.836	962.792	752.046
118.249	18.780	961.990	751.108
119.264	18.831	961.082	750.553
120.279	18.758	960.850	749.990
121.293	18.907	959.622	749.612
122.308	19.020	958.250	748.968
123.322	18.976	957.010	747.742
124.337	18.798	955.748	745.914
125.352	18.269	954.433	742.530
126.366	18.221	953.502	741.533
127.381	18.869	953.382	744.181
128.395	19.284	952.759	745.424
129.410	19.391	951.683	744.978
130.424	19.446	950.427	744.166
131.439	19.252	950.205	743.090
132.454	19.306	948.932	742.261
133.468	19.229	948.182	741.275
134.483	19.263	947.332	740.694
135.497	19.430	946.377	740.598
136.512	19.669	945.327	740.736
137.527	19.582	944.378	739.555
138.541	19.445	943.978	738.590
139.556	19.487	943.240	738.126
140.570	19.586	941.910	737.441
141.585	19.616	940.757	736.603
142.600	19.542	939.860	735.519
143.614	19.844	939.121	736.160
144.629	19.837	938.587	735.646
145.643	19.569	937.329	733.458
146.658	19.267	936.320	731.323
147.673	19.433	935.312	731.176
148.687	19.390	934.105	729.984
149.702	19.294	933.636	729.149
150.716	19.290	932.661	728.305
151.731	19.471	931.674	728.232
152.746	19.609	931.195	728.377
153.760	19.779	930.734	728.667
154.775	19.742	929.900	727.795
155.789	19.663	928.840	726.568
156.804	19.637	928.070	725.791
157.819	19.630	927.449	725.213
158.833	19.722	927.023	725.202
159.848	19.679	925.609	723.851
160.862	19.658	924.578	722.894
161.877	19.653	923.793	722.194
162.892	19.881	922.480	722.055
163.906	19.722	921.520	720.579
164.921	19.580	920.791	719.354
165.935	19.800	919.729	719.373
166.950	19.615	919.162	718.096
167.964	19.558	918.511	717.290
168.979	19.656	916.866	716.347
169.994	19.634	916.006	715.521
171.008	19.790	915.800	715.944
172.023	19.656	915.123	714.797
173.037	19.395	913.811	712.631
174.052	19.332	912.941	711.627
175.067	19.476	912.202	711.583
176.081	19.515	912.150	711.640
177.096	19.560	911.172	710.998
178.110	19.182	910.349	708.738
179.125	19.080	909.574	707.653
180.140	19.178	909.316	707.793
181.154	19.238	908.774	707.555
182.169	19.509	908.474	708.372
183.183	19.600	908.380	708.608
184.198	19.676	907.004	707.785
185.213	19.556	906.541	706.867
186.227	19.697	905.903	706.883
187.242	19.611	905.144	705.878
188.256	19.802	903.762	705.517
189.271	19.694	903.471	704.789
190.286	19.460	902.205	702.784
191.300	18.945	901.188	699.835
192.315	18.244	899.906	695.928
193.329	18.259	899.408	695.542
194.344	19.065	899.525	698.847
195.359	19.511	899.365	700.468
196.373	19.712	898.160	700.285
197.388	19.530	898.093	699.430
198.402	19.481	897.408	698.638
199.417	19.515	896.429	697.952
200.432	19.167	895.639	695.867
201.446	19.007	894.767	694.484
202.461	19.162	894.126	694.551
203.475	18.111	892.928	689.321
204.490	17.691	891.020	686.101
205.504	18.658	891.580	690.363
206.519	19.094	891.894	692.298
207.534	19.303	891.055	692.424
208.548	19.750	890.944	694.071
209.563	19.360	890.310	691.951
210.577	19.375	889.336	691.193
211.592	19.639	888.771	691.752
212.607	19.651	887.733	690.929
213.621	19.803	887.338	691.167
214.636	19.834	886.468	690.555
215.650	19.610	885.660	688.969
216.665	19.874	885.300	689.680
217.680	19.744	884.473	688.458
218.694	19.288	883.211	685.603
219.709	19.121	882.872	684.613
220.723	19.527	882.373	685.781
221.738	19.606	881.341	685.230
222.753	19.619	881.023	684.974
223.767	19.606	880.747	684.646
224.782	19.811	879.843	684.696
225.796	19.767	879.546	684.229
226.811	19.092	878.130	680.399
227.826	18.593	876.804	677.343
228.840	18.745	875.935	677.212
229.855	18.963	875.096	677.363
230.869	18.656	874.227	675.419
231.884	18.993	874.460	676.866
232.899	19.691	874.501	679.585
233.913	19.640	873.701	678.704
234.928	19.558	872.819	677.634
235.942	19.533	872.511	677.237
236.957	19.256	871.695	675.459
237.972	19.337	870.983	675.166
238.986	19.361	870.049	674.475
240.001	19.318	869.528	673.843
241.015	19.505	869.324	674.357
242.030	19.653	868.250	674.040
243.045	19.739	867.834	673.995
244.059	19.789	867.556	673.913
245.074	19.468	866.644	671.897
246.088	19.187	865.554	669.897
247.103	19.391	865.250	670.398
248.117	19.947	865.104	672.383
249.132	20.096	864.222	672.218
250.147	20.106	863.965	671.996
251.161	20.363	863.364	672.465
252.176	20.166	862.961	671.330
253.190	20.360	862.072	671.329
254.205	20.512	861.438	671.361
255.220	20.514	860.879	670.876
256.234	20.345	860.167	669.608
257.249	20.194	859.128	668.158
258.263	20.470	858.598	668.750
259.278	20.340	858.484	668.102
260.293	20.392	857.831	667.733
261.307	20.233	856.862	666.310
262.322	20.113	855.873	665.023
263.336	19.410	853.639	660.536
264.351	18.466	851.633	655.319
265.366	18.502	851.907	655.608
266.380	19.501	852.540	659.857
267.395	19.857	852.542	661.163
268.409	20.004	851.501	660.856
269.424	20.154	851.039	661.012
270.439	20.367	850.301	661.193
271.453	20.275	849.676	660.299
272.468	20.516	849.838	661.283
273.482	20.452	848.566	659.991
274.497	20.043	847.882	657.850
275.512	19.892	846.655	656.267
276.526	20.152	846.558	657.117
277.541	20.242	846.247	657.161
278.555	20.222	845.067	656.107
279.570	19.909	844.356	654.317
280.585	20.108	844.165	654.864
281.599	20.124	843.067	654.011
282.614	19.600	841.739	650.950
283.628	19.545	841.384	650.410
284.643	19.897	841.306	651.619
285.657	19.514	839.819	648.971
286.672	19.264	839.158	647.460
287.687	19.825	839.285	649.609
288.701	19.735	838.843	648.873
289.716	19.585	837.799	647.445
290.730	19.511	837.203	646.649
291.745	19.204	836.139	644.622
292.760	19.671	835.704	645.976
293.774	20.408	836.246	649.095
294.789	20.703	836.341	650.212
295.803	20.729	835.718	649.767
296.818	20.832	834.931	649.482
297.833	20.390	833.609	646.751
298.847	20.350	832.778	645.900
299.862	20.663	832.827	647.046
300.876	20.929	832.112	647.422
301.891	20.582	831.569	645.653
302.906	20.254	830.533	643.576
303.920	20.157	830.538	643.161
304.935	20.560	830.116	644.270
305.949	20.723	829.126	644.051
306.964	20.472	828.695	642.729
307.979	20.578	828.486	642.903
308.993	20.890	828.075	643.678
310.008	20.866	827.215	642.866
311.022	20.550	826.677	641.224
312.037	20.588	825.950	640.745
313.052	20.402	825.072	639.323
314.066	19.520	823.663	634.932
315.081	19.323	823.127	633.738
316.095	20.079	823.555	636.791
317.110	20.542	823.164	638.132
318.125	19.737	821.760	634.037
319.139	18.851	820.384	629.674
320.154	18.947	820.008	629.681
321.168	19.799	819.978	632.719
322.183	20.394	820.203	635.013
323.197	20.447	820.149	635.110
324.212	20.624	819.533	635.221
325.227	20.714	818.853	634.968
326.241	20.562	818.222	633.869
327.256	20.551	817.470	633.190
328.270	20.346	817.193	632.173
329.285	20.186	816.418	630.934
330.300	20.072	815.228	629.544
331.314	20.357	815.128	630.446
332.329	20.434	815.059	630.618
333.343	20.823	814.418	631.475
334.358	20.611	814.300	630.562
335.373	20.764	813.782	630.660
336.387	20.870	813.872	631.055
337.402	20.887	813.677	630.911
338.416	20.910	813.242	630.600
339.431	20.989	812.621	630.348
340.446	21.247	812.155	630.865
341.460	21.027	811.796	629.735
342.475	20.899	811.121	628.694
343.489	21.037	810.985	629.032
344.504	21.131	810.475	628.918
345.519	21.317	809.952	629.128
346.533	21.323	809.971	629.107
347.548	21.483	809.069	628.926
348.562	21.511	808.562	628.577
349.577	21.379	808.318	627.856
350.592	21.420	807.732	627.495
351.606	21.445	806.483	626.557
352.621	21.315	805.958	625.628
353.635	21.044	805.528	624.269
354.650	20.617	803.455	621.085
355.665	19.551	802.383	616.397
356.679	20.125	802.058	618.139
357.694	20.459	801.579	618.907
358.708	20.424	801.288	618.501
359.723	20.925	800.799	619.852
360.738	21.162	800.525	620.429
361.752	21.179	800.281	620.245
362.767	21.536	799.708	621.011
363.781	21.546	799.745	621.022
364.796	21.614	799.555	621.060
365.810	21.740	798.668	620.763
366.825	21.633	798.594	620.273
367.840	21.377	797.578	618.520
368.854	21.101	796.985	617.032
369.869	21.199	796.344	616.826
370.883	21.115	796.213	616.374
371.898	20.974	795.535	615.296
372.913	20.962	795.491	615.166
373.927	21.348	794.638	615.811
374.942	21.424	794.462	615.888
375.956	21.474	793.935	615.602
376.971	21.494	793.654	615.399
377.986	21.671	793.278	615.675
379.000	21.561	792.951	614.979
380.015	21.649	791.791	614.337
381.029	21.633	791.229	613.790
382.044	21.676	790.606	613.403
383.059	21.851	790.073	613.545
384.073	21.758	790.011	613.118
385.088	21.775	789.309	612.581
386.102	21.538	788.924	611.398
387.117	21.391	788.285	610.335
388.132	21.161	787.208	608.646
389.146	20.878	785.966	606.646
390.161	21.091	786.063	607.409
391.175	21.390	786.209	608.511
392.190	21.105	784.628	606.241
393.205	20.032	783.041	601.240
394.219	18.573	781.730	595.122
395.234	18.741	781.385	595.390
396.248	20.192	782.521	601.236
397.263	21.356	783.542	606.007
398.278	21.398	782.883	605.587
399.292	21.217	782.354	604.498
400.307	21.309	781.836	604.363
401.321	21.286	781.075	603.641
402.336	21.551	781.379	604.738
403.350	22.063	780.998	606.157
404.365	22.192	780.805	606.399
405.380	22.436	780.586	607.017
406.394	22.378	780.023	606.325
407.409	22.298	779.267	605.408
408.423	22.324	779.060	605.285
409.438	22.393	778.901	605.346
410.453	22.507	778.070	605.037
411.467	22.504	777.591	604.601
412.482	22.333	777.427	603.833
413.496	22.400	777.378	603.970
414.511	22.384	777.158	603.693
415.526	22.388	776.250	602.947
416.540	22.390	775.411	602.249
417.555	22.023	774.939	600.572
418.569	22.154	774.196	600.392
419.584	22.069	773.836	599.771
420.599	21.879	773.410	598.737
421.613	159.235	1361.701	1798.517
422.628	137.449	1447.396	1798.605
