DTS Sentinel unit serial number:	SN413079Multiplexer serial number:	ORYXHardware model number:	OX4-SRSoftware version number:	ORYX F/W v4.00 Oryx Data Collector v3.7.2.0data status	okinstallation	princeton_trtdifferential loss correction	single-endedforward channel	channel 1reverse channel	N/Adate	2019/09/13time	20:22:35forward acquisition time	60.00reverse acquisition time	0.00gamma	496.2192k internal	0.2330k external	0.2330temperature offset calibration	1.0092default loss term (dB/km)	0.3790temperature slope calibration	1.0000multiplexer offset coefficient	1.0000multiplexer slope coefficient	1.0000fibre end	0.00T internal ref (°C)	29.27T ext. ref 1 (°C)	3.29T ext. ref 2 (°C)	23.64length (m)	temperature (°C)	Stokes	anti-Stokes-747.200	225.992	-0.093	0.152
-746.185	587.002	-0.159	0.394
-745.171	176.405	-0.146	0.214
-744.156	-200.000	-0.007	0.144
-743.142	-93.930	0.194	0.054
-742.127	-58.624	-0.205	-0.089
-741.112	-174.964	0.184	-0.005
-740.098	59.604	-0.202	-0.200
-739.083	-200.000	0.051	0.309
-738.069	301.886	0.184	0.343
-737.054	139.724	0.237	0.314
-736.039	51.237	-0.357	-0.341
-735.025	-75.633	0.486	0.174
-734.010	34.070	-0.227	0.199
-732.996	285.971	-0.124	-0.225
-731.981	-200.000	0.001	-0.152
-730.966	131.296	0.129	-0.167
-729.952	45.781	-0.064	0.060
-728.937	-121.306	-0.347	-0.058
-727.923	-102.540	0.439	0.106
-726.908	18.593	0.084	0.068
-725.894	226.021	-0.107	-0.174
-724.879	45.472	0.362	-0.337
-723.864	350.914	-0.095	-0.190
-722.850	-200.000	0.025	-0.362
-721.835	-200.000	0.023	0.112
-720.821	138.937	-0.143	0.189
-719.806	-143.850	-0.305	-0.029
-718.791	-187.531	-0.312	0.004
-717.777	-73.313	-0.154	-0.057
-716.762	3.389	-0.091	-0.066
-715.748	290.265	0.128	0.234
-714.733	0.167	-0.309	-0.222
-713.718	-200.000	-0.007	-0.123
-712.704	86.090	-0.182	0.202
-711.689	306.841	-0.145	-0.271
-710.675	800.000	0.152	-0.482
-709.660	-200.000	-0.031	-0.243
-708.645	255.813	-0.143	0.247
-707.631	-132.681	-0.227	-0.029
-706.616	309.864	0.077	-0.145
-705.602	-66.201	-0.219	-0.088
-704.587	-148.273	-0.373	-0.031
-703.572	-123.622	-0.115	0.018
-702.558	-118.304	-0.073	0.013
-701.543	-85.130	0.022	0.007
-700.529	-200.000	-0.009	-0.149
-699.514	-148.101	-0.574	0.048
-698.499	-55.202	-0.021	0.010
-697.485	-200.000	0.017	-0.101
-696.470	507.169	0.109	0.254
-695.456	-84.066	0.113	-0.036
-694.441	322.318	0.026	-0.049
-693.426	-118.316	-0.491	-0.088
-692.412	152.671	-0.236	0.325
-691.397	-29.498	-0.250	0.144
-690.383	-86.689	-0.189	-0.058
-689.368	212.721	0.228	-0.361
-688.354	17.687	0.308	0.246
-687.339	-179.231	0.102	0.002
-686.324	58.759	0.383	0.378
-685.310	-68.150	-0.098	0.038
-684.295	397.317	0.076	-0.160
-683.281	29.592	-0.254	0.217
-682.266	-89.424	0.055	-0.016
-681.251	92.650	0.125	-0.142
-680.237	-26.648	0.129	-0.076
-679.222	140.358	-0.073	-0.097
-678.208	-200.000	0.001	-0.120
-677.193	45.476	-0.230	-0.213
-676.178	211.291	0.139	-0.220
-675.164	30.126	-0.175	-0.150
-674.149	452.371	0.061	0.136
-673.135	-172.399	-0.169	0.005
-672.120	-48.213	0.263	-0.128
-671.105	-200.000	0.001	0.068
-670.091	-133.164	0.260	0.033
-669.076	142.363	-0.155	0.206
-668.062	-93.547	-0.135	-0.038
-667.047	-165.969	-0.306	0.013
-666.032	-200.000	-0.064	0.473
-665.018	63.709	0.071	0.072
-664.003	-200.000	-0.037	-0.317
-662.989	-200.000	-0.025	0.162
-661.974	-118.238	-0.043	0.008
-660.959	-200.000	-0.064	-0.395
-659.945	-16.837	-0.154	-0.098
-658.930	-200.000	-0.050	0.355
-657.916	96.345	0.073	0.083
-656.901	177.336	0.178	-0.260
-655.886	-176.259	0.198	-0.005
-654.872	-78.066	-0.252	-0.087
-653.857	800.000	0.079	-0.278
-652.843	407.867	-0.089	0.188
-651.828	143.571	-0.070	0.094
-650.814	800.000	-0.076	0.240
-649.799	-4.448	-0.075	-0.052
-648.784	-200.000	-0.029	-0.405
-647.770	-200.000	0.034	-0.291
-646.755	-56.094	-0.420	-0.188
-645.741	-36.293	0.090	0.049
-644.726	-135.824	0.212	0.025
-643.711	404.373	-0.052	-0.111
-642.697	7.926	-0.099	0.074
-641.682	-200.000	0.009	0.055
-640.668	-200.000	-0.009	0.080
-639.653	-200.000	0.010	-0.383
-638.638	122.299	-0.178	-0.223
-637.624	800.000	-0.072	-0.221
-636.609	800.000	-0.079	-0.321
-635.595	-51.605	0.097	-0.045
-634.580	-126.113	-0.316	-0.048
-633.565	-88.029	0.220	0.066
-632.551	-78.589	-0.129	-0.044
-631.536	68.220	0.371	-0.381
-630.522	1.436	0.276	0.199
-629.507	37.082	0.152	0.135
-628.492	800.000	-0.070	-0.200
-627.478	-200.000	0.066	0.309
-626.463	61.160	-0.337	-0.336
-625.449	-19.818	-0.207	-0.128
-624.434	800.000	-0.020	0.062
-623.419	-31.899	-0.133	-0.075
-622.405	57.429	-0.165	-0.161
-621.390	31.329	-0.281	-0.242
-620.376	-98.411	0.187	0.048
-619.361	-160.197	-0.307	0.017
-618.346	-200.000	-0.045	-0.303
-617.332	-58.620	-0.117	-0.051
-616.317	-152.021	0.217	-0.016
-615.303	-85.473	-0.057	-0.018
-614.288	113.679	0.170	-0.207
-613.273	-200.000	0.012	0.056
-612.259	21.666	-0.109	-0.089
-611.244	-107.515	0.435	0.095
-610.230	-200.000	-0.038	0.402
-609.215	-4.469	0.412	0.285
-608.201	61.273	-0.154	0.153
-607.186	-110.140	-0.350	-0.073
-606.171	4.780	0.193	0.142
-605.157	195.133	-0.049	-0.074
-604.142	54.928	-0.276	-0.267
-603.128	-42.854	-0.317	-0.161
-602.113	-75.208	-0.326	0.116
-601.098	113.114	0.167	0.203
-600.084	-131.991	0.188	0.025
-599.069	-154.757	-0.137	0.009
-598.055	-200.000	-0.026	0.166
-597.040	-51.074	0.451	-0.212
-596.025	800.000	0.017	-0.050
-595.011	-19.223	0.230	-0.143
-593.996	762.466	-0.098	-0.265
-592.982	800.000	-0.042	0.159
-591.967	194.329	0.008	-0.012
-590.952	-106.314	-0.119	-0.027
-589.938	-112.879	0.032	0.006
-588.923	800.000	-0.060	0.180
-587.909	-200.000	-0.042	0.448
-586.894	-200.000	0.026	-0.231
-585.879	-200.000	0.047	0.233
-584.865	27.331	-0.064	0.054
-583.850	-78.541	0.333	0.114
-582.836	800.000	-0.023	0.101
-581.821	53.661	0.156	-0.150
-580.806	108.654	0.186	-0.222
-579.792	-82.812	0.179	-0.058
-578.777	-12.620	0.224	-0.146
-577.763	-36.489	-0.193	-0.104
-576.748	-171.228	0.039	-0.001
-575.733	274.560	-0.076	0.134
-574.719	488.144	0.094	-0.214
-573.704	193.427	0.112	0.169
-572.690	-200.000	-0.013	0.105
-571.675	-64.303	-0.111	0.045
-570.661	200.801	-0.220	0.338
-569.646	-200.000	0.066	0.454
-568.631	-200.000	-0.001	0.112
-567.617	-98.052	-0.133	0.034
-566.602	388.272	0.100	0.207
-565.588	5.645	0.271	-0.200
-564.573	-103.653	0.285	-0.067
-563.558	363.678	0.074	-0.148
-562.544	195.431	-0.176	0.267
-561.529	108.778	0.047	-0.056
-560.515	800.000	-0.039	0.139
-559.500	96.290	0.065	-0.074
-558.485	800.000	-0.125	-0.346
-557.471	-113.995	0.233	0.045
-556.456	-32.133	0.241	-0.135
-555.442	-89.513	0.235	-0.069
-554.427	-171.166	-0.211	-0.007
-553.412	71.869	0.274	-0.285
-552.398	800.000	0.057	-0.205
-551.383	-15.350	0.256	0.163
-550.369	-200.000	0.005	-0.078
-549.354	123.070	-0.025	0.031
-548.339	12.497	0.060	-0.046
-547.325	-56.647	0.137	-0.061
-546.310	-105.564	-0.120	-0.027
-545.296	335.418	-0.079	0.153
-544.281	316.507	-0.171	-0.322
-543.266	25.349	-0.286	0.238
-542.252	-67.272	-0.274	-0.108
-541.237	419.710	0.193	-0.413
-540.223	-44.763	-0.299	0.149
-539.208	101.947	-0.123	-0.143
-538.193	-200.000	-0.004	0.230
-537.179	-200.000	0.046	0.283
-536.164	4.613	-0.099	0.072
-535.150	62.391	0.212	0.212
-534.135	166.239	0.109	0.155
-533.121	800.000	0.020	0.073
-532.106	-83.351	-0.187	-0.060
-531.091	-44.164	0.143	-0.072
-530.077	112.942	-0.135	0.164
-529.062	-103.157	-0.201	-0.047
-528.048	-35.205	0.137	0.075
-527.033	193.056	-0.127	-0.191
-526.018	633.005	0.099	-0.251
-525.004	-17.530	-0.150	-0.094
-523.989	-1.203	0.307	0.217
-522.975	-7.324	-0.156	-0.105
-521.960	447.548	-0.120	-0.263
-520.945	82.578	-0.124	-0.135
-519.931	-132.533	-0.140	0.018
-518.916	64.389	-0.147	-0.148
-517.902	-200.000	-0.032	-0.165
-516.887	-124.357	-0.051	0.008
-515.872	-173.598	0.322	-0.010
-514.858	800.000	0.069	-0.206
-513.843	-31.742	0.131	-0.073
-512.829	800.000	-0.039	0.170
-511.814	-200.000	0.004	-0.052
-510.799	-91.830	0.220	-0.062
-509.785	-200.000	-0.018	0.183
-508.770	-34.962	0.047	0.026
-507.756	-41.663	-0.488	0.250
-506.741	-200.000	0.069	-0.372
-505.726	-200.000	0.056	-0.299
-504.712	-133.698	-0.102	0.013
-503.697	80.928	-0.090	0.097
-502.683	-75.422	-0.044	0.016
-501.668	173.354	-0.161	-0.232
-500.653	-5.349	-0.257	0.176
-499.639	-200.000	-0.008	0.168
-498.624	-140.207	0.140	0.015
-497.610	293.041	0.114	0.208
-496.595	800.000	0.082	0.277
-495.581	207.559	0.091	0.141
-494.566	800.000	-0.044	0.151
-493.551	-200.000	0.072	-0.343
-492.537	-37.187	-0.299	-0.159
-491.522	-40.310	0.251	0.130
-490.508	800.000	-0.023	0.066
-489.493	55.101	-0.125	0.120
-488.478	-2.321	-0.296	-0.207
-487.464	-200.000	0.021	0.134
-486.449	-200.000	0.004	-0.422
-485.435	191.826	-0.144	0.216
-484.420	800.000	-0.102	-0.393
-483.405	-52.819	0.315	0.144
-482.391	-184.348	0.385	0.006
-481.376	67.977	-0.198	-0.201
-480.362	800.000	-0.028	-0.105
-479.347	63.840	-0.092	-0.092
-478.332	156.084	0.242	-0.332
-477.318	800.000	0.052	-0.193
-476.303	800.000	0.124	0.453
-475.289	-85.404	-0.165	0.051
-474.274	107.362	-0.079	-0.094
-473.259	158.817	0.213	0.295
-472.245	-200.000	0.014	0.080
-471.230	-200.000	0.020	-0.113
-470.216	-33.955	-0.295	0.162
-469.201	-200.000	0.004	-0.024
-468.186	800.000	-0.073	0.228
-467.172	137.825	-0.191	0.250
-466.157	800.000	0.056	0.195
-465.143	-171.706	-0.032	0.001
-464.128	79.034	0.184	-0.196
-463.113	-132.259	-0.345	-0.044
-462.099	212.175	-0.079	-0.124
-461.084	-71.817	0.156	0.058
-460.070	-53.291	0.253	0.116
-459.055	800.000	-0.077	0.319
-458.040	-38.936	0.383	0.201
-457.026	800.000	0.043	-0.119
-456.011	298.622	0.123	0.225
-454.997	125.046	0.060	-0.075
-453.982	-99.811	0.252	0.063
-452.968	268.864	-0.074	0.129
-451.953	-200.000	-0.020	-0.110
-450.938	-200.000	0.051	-0.340
-449.924	-36.168	0.383	-0.206
-448.909	-54.456	-0.042	0.019
-447.895	-198.478	0.376	0.002
-446.880	-100.097	-0.132	0.033
-445.865	-200.000	-0.007	0.155
-444.851	-115.922	-0.166	-0.031
-443.836	76.507	-0.206	0.217
-442.822	126.022	-0.166	0.208
-441.807	-200.000	0.022	0.125
-440.792	800.000	-0.051	-0.205
-439.778	112.835	0.061	0.074
-438.763	-142.775	-0.175	-0.017
-437.749	-56.548	-0.394	0.174
-436.734	-63.262	-0.189	0.078
-435.719	-20.304	-0.111	0.068
-434.705	800.000	-0.069	0.264
-433.690	84.084	0.149	0.162
-432.676	-200.000	-0.050	-0.219
-431.661	800.000	-0.073	-0.206
-430.646	800.000	0.051	0.144
-429.632	339.407	-0.099	-0.193
-428.617	17.759	-0.255	-0.202
-427.603	269.023	-0.158	0.276
-426.588	-200.000	0.007	0.161
-425.573	-120.468	-0.391	-0.066
-424.559	-200.000	-0.042	0.320
-423.544	-200.000	-0.106	-0.579
-422.530	-200.000	0.001	-0.201
-421.515	579.586	-0.096	-0.234
-420.500	800.000	0.039	-0.121
-419.486	800.000	0.073	0.298
-418.471	-101.435	0.124	-0.030
-417.457	-4.515	0.166	0.114
-416.442	469.866	0.068	0.151
-415.428	144.254	0.099	-0.132
-414.413	22.446	-0.207	-0.168
-413.398	-128.370	0.495	0.070
-412.384	-83.778	-0.441	-0.140
-411.369	32.882	-0.154	-0.133
-410.355	-82.319	0.321	-0.104
-409.340	-200.000	-0.006	0.081
-408.325	561.615	-0.118	0.285
-407.311	219.684	-0.128	-0.203
-406.296	-166.862	0.203	-0.008
-405.282	8.298	0.216	-0.161
-404.267	-19.909	0.300	-0.184
-403.252	-200.000	-0.142	0.726
-402.238	-71.641	-0.070	0.026
-401.223	197.855	0.144	0.218
-400.209	-47.286	0.231	0.112
-399.194	708.868	-0.151	0.396
-398.179	-200.000	0.286	-0.000
-397.165	-74.068	-0.042	-0.015
-396.150	-57.079	-0.137	0.060
-395.136	-19.225	-0.494	0.305
-394.121	-200.000	0.003	0.135
-393.106	-46.203	-0.139	-0.068
-392.092	800.000	0.107	-0.348
-391.077	-176.346	-0.197	0.005
-390.063	-50.089	-0.164	-0.077
-389.048	800.000	-0.022	0.078
-388.033	24.168	-0.187	0.153
-387.019	-113.785	-0.116	-0.022
-386.004	-58.252	-0.193	0.083
-384.990	800.000	0.079	-0.264
-383.975	-146.168	-0.410	0.036
-382.960	-117.785	-0.022	-0.004
-381.946	-200.000	0.066	0.342
-380.931	-108.642	-0.224	-0.048
-379.917	-200.000	0.009	0.066
-378.902	-63.641	0.237	0.096
-377.888	-199.922	0.273	0.001
-376.873	800.000	0.172	-0.486
-375.858	800.000	0.052	0.173
-374.844	664.471	-0.067	-0.171
-373.829	-102.213	-0.151	-0.036
-372.815	-154.278	0.161	0.011
-371.800	-200.000	0.006	0.107
-370.785	2.357	0.236	0.170
-369.771	287.463	0.280	0.502
-368.756	254.716	0.163	0.276
-367.742	-148.029	0.106	-0.009
-366.727	-120.155	-0.361	0.061
-365.712	-155.390	0.412	0.026
-364.698	-200.000	0.013	0.340
-363.683	554.085	-0.155	-0.369
-362.669	-66.812	-0.276	0.108
-361.654	81.430	0.029	-0.031
-360.639	-192.706	0.430	0.004
-359.625	-133.814	-0.292	-0.036
-358.610	800.000	-0.076	0.318
-357.596	-200.000	-0.037	-0.374
-356.581	800.000	-0.074	-0.244
-355.566	335.155	-0.065	-0.125
-354.552	-200.000	-0.027	-0.222
-353.537	728.083	0.060	-0.159
-352.523	38.102	-0.061	0.054
-351.508	437.373	-0.072	0.156
-350.493	162.366	-0.189	-0.262
-349.479	156.237	0.192	0.263
-348.464	-95.633	-0.377	0.100
-347.450	-119.269	-0.199	0.034
-346.435	187.804	0.105	-0.155
-345.420	149.876	0.141	0.189
-344.406	-122.702	0.249	-0.040
-343.391	-34.705	-0.425	-0.230
-342.377	800.000	0.083	-0.291
-341.362	800.000	-0.016	-0.070
-340.348	-40.649	0.233	0.120
-339.333	78.808	-0.054	-0.057
-338.318	-99.350	0.042	0.010
-337.304	98.063	0.053	-0.060
-336.289	-200.000	0.001	-0.162
-335.275	-200.000	-0.089	-0.411
-334.260	-63.944	-0.275	-0.111
-333.245	-200.000	0.040	0.236
-332.231	-56.978	0.163	0.071
-331.216	16.585	-0.282	-0.221
-330.202	65.885	-0.063	0.063
-329.187	312.202	-0.213	-0.395
-328.172	73.386	-0.139	-0.144
-327.158	800.000	0.029	-0.097
-326.143	451.331	-0.096	0.210
-325.129	13.878	0.240	0.185
-324.114	-80.798	-0.028	-0.009
-323.099	4.747	0.239	0.174
-322.085	141.668	-0.087	-0.115
-321.070	-29.330	0.179	-0.101
-320.056	761.083	-0.005	0.014
-319.041	-165.113	-0.182	-0.008
-318.026	452.068	-0.072	0.158
-317.012	-162.181	0.527	-0.026
-315.997	-103.809	-0.191	-0.044
-314.983	578.391	0.092	0.222
-313.968	800.000	0.031	-0.119
-312.953	-110.254	-0.175	0.036
-311.939	-200.000	0.008	-0.042
-310.924	-121.888	0.164	-0.027
-309.910	-200.000	-0.025	-0.122
-308.895	-54.682	-0.070	-0.031
-307.880	45.100	-0.091	-0.083
-306.866	-93.079	0.291	0.080
-305.851	91.243	0.182	0.202
-304.837	-82.838	-0.303	-0.097
-303.822	800.000	-0.085	0.349
-302.807	-127.242	0.328	-0.047
-301.793	4.904	-0.123	-0.090
-300.778	-36.743	-0.114	0.060
-299.764	188.563	0.092	0.136
-298.749	168.405	-0.177	0.250
-297.735	-98.318	0.052	-0.013
-296.720	112.608	0.204	-0.244
-295.705	800.000	-0.028	-0.091
-294.691	-200.000	-0.027	-0.311
-293.676	-122.135	-0.035	-0.006
-292.662	800.000	0.091	0.254
-291.647	52.315	0.044	-0.042
-290.632	-108.159	0.208	0.044
-289.618	151.260	0.227	-0.305
-288.603	10.610	-0.096	-0.072
-287.589	-2.247	-0.335	0.232
-286.574	103.753	0.193	-0.225
-285.559	-76.508	0.174	-0.061
-284.545	800.000	0.081	0.302
-283.530	-200.000	0.010	0.284
-282.516	-129.271	-0.334	0.046
-281.501	-163.511	0.248	0.012
-280.486	-190.303	0.272	-0.003
-279.472	373.646	-0.071	0.142
-278.457	-200.000	-0.036	0.180
-277.443	-124.288	-0.583	0.090
-276.428	-181.099	0.135	-0.003
-275.413	-200.000	0.046	-0.301
-274.399	60.009	0.075	0.073
-273.384	-146.193	0.095	-0.008
-272.370	128.918	0.053	0.067
-271.355	-200.000	0.019	0.105
-270.340	56.851	0.298	-0.287
-269.326	85.078	-0.134	-0.145
-268.311	-159.603	-0.358	-0.020
-267.297	-60.988	0.281	0.117
-266.282	271.480	-0.270	0.470
-265.267	374.533	0.069	-0.139
-264.253	-65.950	-0.095	-0.037
-263.238	33.327	-0.046	-0.039
-262.224	571.255	0.046	0.110
-261.209	29.327	-0.082	-0.069
-260.195	-54.481	-0.014	0.006
-259.180	-200.000	-0.014	0.387
-258.165	-153.391	0.044	0.003
-257.151	-20.675	0.161	0.098
-256.136	-117.673	-0.225	-0.040
-255.122	309.635	0.056	-0.103
-254.107	800.000	0.052	0.194
-253.092	800.000	-0.010	0.036
-252.078	243.175	0.250	-0.413
-251.063	66.456	-0.114	0.115
-250.049	-114.810	-0.292	-0.055
-249.034	-200.000	0.069	0.505
-248.019	-84.587	-0.038	0.012
-247.005	33.751	-0.068	0.058
-245.990	-200.000	-0.097	0.000
-244.976	-200.000	0.042	0.315
-243.961	800.000	0.074	-0.304
-242.946	-171.204	-0.296	0.010
-241.932	-200.000	-0.093	0.447
-240.917	-53.301	0.339	0.153
-239.903	-110.373	-0.211	0.043
-238.888	-157.711	-0.176	-0.010
-237.873	-73.371	-0.217	0.078
-236.859	-200.000	0.056	0.394
-235.844	-200.000	0.008	0.060
-234.830	85.306	0.093	-0.101
-233.815	800.000	-0.045	-0.128
-232.800	-129.358	0.125	-0.017
-231.786	8.843	-0.168	-0.125
-230.771	36.947	0.218	-0.190
-229.757	126.092	0.159	0.199
-228.742	-50.360	0.221	0.103
-227.727	253.811	-0.062	0.104
-226.713	533.817	0.071	-0.165
-225.698	800.000	0.026	0.103
-224.684	-75.323	0.309	-0.109
-223.669	-200.000	-0.001	0.301
-222.655	-200.000	0.004	0.042
-221.640	-38.144	0.291	-0.152
-220.625	-200.000	-0.014	0.310
-219.611	14.408	0.116	0.089
-218.596	-27.261	0.104	0.060
-217.582	173.068	-0.018	0.026
-216.567	-42.448	0.281	-0.141
-215.552	-121.430	-0.202	-0.033
-214.538	639.925	-0.072	-0.180
-213.523	-200.000	-0.057	-0.372
-212.509	-200.000	0.027	0.339
-211.494	-0.827	0.336	0.235
-210.479	-200.000	-0.009	-0.126
-209.465	476.819	0.130	-0.289
-208.450	-74.275	0.137	0.049
-207.436	66.166	0.256	0.257
-206.421	341.031	0.084	-0.162
-205.406	11.196	-0.222	0.167
-204.392	-25.663	-0.305	-0.177
-203.377	-3.508	-0.118	-0.081
-202.363	744.507	-0.179	0.475
-201.348	-9.894	0.104	-0.068
-200.333	399.694	-0.078	0.161
-199.319	369.966	0.180	0.359
-198.304	133.499	-0.172	0.219
-197.290	298.827	0.126	-0.228
-196.275	332.834	0.061	-0.116
-195.260	-15.562	-0.082	0.052
-194.246	-19.137	0.264	0.162
-193.231	-44.251	0.328	0.162
-192.217	-20.355	0.124	0.075
-191.202	-200.000	0.001	0.023
-190.187	-200.000	-0.001	-0.177
-189.173	-110.795	0.359	0.073
-188.158	-200.000	0.035	-0.324
-187.144	-92.947	0.355	-0.097
-186.129	-96.705	0.476	-0.123
-185.114	120.068	-0.188	0.230
-184.100	-5.176	-0.088	-0.060
-183.085	-200.000	-0.030	-0.279
-182.071	-138.478	0.294	-0.032
-181.056	-24.498	0.009	-0.005
-180.042	136.105	-0.130	-0.167
-179.027	16.673	-0.095	0.074
-178.012	-95.036	-0.265	0.071
-176.998	-149.764	0.132	-0.010
-175.983	-54.310	-0.362	-0.162
-174.969	731.294	-0.128	-0.338
-173.954	800.000	0.114	-0.399
-172.939	-58.387	-0.254	0.108
-171.925	-186.794	-0.144	0.002
-170.910	117.032	0.101	-0.122
-169.896	800.000	0.086	-0.251
-168.881	-60.638	-0.362	-0.151
-167.866	8.399	-0.237	-0.176
-166.852	107.849	0.124	-0.145
-165.837	-116.481	-0.094	0.017
-164.823	109.815	0.149	0.175
-163.808	-200.000	-0.019	-0.213
-162.793	40.079	-0.154	0.136
-161.779	3.978	-0.238	-0.171
-160.764	-48.838	0.315	-0.149
-159.750	-200.000	0.011	-0.055
-158.735	-101.775	0.226	0.054
-157.720	109.580	-0.166	0.196
-156.706	203.465	-0.196	0.298
-155.691	-115.179	0.365	0.068
-154.677	-21.778	-0.181	-0.108
-153.662	-200.000	0.001	0.145
-152.647	13.014	0.178	-0.135
-151.633	532.214	-0.047	0.109
-150.618	32.620	-0.194	0.165
-149.604	555.017	0.224	0.529
-148.589	680.599	-0.195	-0.500
-147.574	20.125	0.158	0.126
-146.560	573.804	-0.058	-0.138
-145.545	-65.542	-0.348	0.137
-144.531	-72.259	0.363	-0.132
-143.516	699.631	-0.055	0.142
-142.502	297.948	0.201	0.363
-141.487	97.231	-0.147	-0.166
-140.472	-162.667	-0.221	-0.011
-139.458	-200.000	0.003	0.057
-138.443	584.385	0.107	-0.259
-137.429	-95.502	0.238	0.063
-136.414	800.000	-0.028	0.118
-135.399	-54.920	-0.043	0.019
-134.385	-98.961	0.098	0.024
-133.370	800.000	-0.084	0.244
-132.356	-26.105	0.090	0.052
-131.341	260.831	-0.042	-0.071
-130.326	-177.016	0.344	0.008
-129.312	298.010	0.067	0.121
-128.297	47.410	0.049	0.045
-127.283	702.086	0.034	0.087
-126.268	-73.667	-0.100	-0.036
-125.253	-58.551	0.351	0.150
-124.239	-91.582	-0.300	0.084
-123.224	-200.000	-0.045	0.248
-122.210	27.450	0.172	0.142
-121.195	93.824	-0.128	-0.143
-120.180	-200.000	-0.040	0.231
-119.166	107.232	0.076	0.089
-118.151	-40.079	-0.190	-0.097
-117.137	-86.947	0.293	0.088
-116.122	-200.000	-0.005	0.088
-115.107	800.000	0.045	-0.140
-114.093	-58.577	0.331	0.141
-113.078	-200.000	-0.190	-0.000
-112.064	-8.712	0.225	-0.148
-111.049	209.855	-0.090	-0.139
-110.034	-200.000	-0.059	0.294
-109.020	693.278	-0.057	0.146
-108.005	800.000	-0.049	0.145
-106.991	-34.420	0.191	0.103
-105.976	152.854	-0.094	0.126
-104.962	17.843	-0.059	0.046
-103.947	800.000	-0.082	-0.247
-102.932	800.000	-0.110	0.326
-101.918	-149.233	0.284	-0.022
-100.903	101.855	0.105	0.120
-99.889	-74.277	0.113	-0.040
-98.874	-55.126	0.090	0.040
-97.859	81.845	-0.075	-0.080
-96.845	545.321	0.079	0.186
-95.830	-200.000	-0.044	-0.278
-94.816	18.854	0.181	-0.142
-93.801	-17.825	0.355	0.219
-92.786	-178.640	0.114	0.003
-91.772	65.070	0.244	-0.242
-90.757	800.000	-0.021	0.058
-89.743	-200.000	-0.019	0.410
-88.728	393.722	0.064	0.130
-87.713	-77.837	0.321	-0.109
-86.699	-34.969	-0.087	0.046
-85.684	-65.942	-0.517	-0.203
-84.670	141.476	0.111	0.144
-83.655	199.858	0.166	0.250
-82.640	10.767	-0.166	0.124
-81.626	-200.000	0.004	-0.199
-80.611	-111.418	-0.308	-0.061
-79.597	25.344	0.264	0.215
-78.582	-104.189	0.183	-0.042
-77.567	-71.788	-0.263	0.096
-76.553	-44.224	0.184	-0.090
-75.538	800.000	-0.041	0.123
-74.524	-4.349	-0.200	0.135
-73.509	-107.551	0.295	-0.063
-72.494	177.609	-0.206	0.294
-71.480	-200.000	-0.019	0.278
-70.465	-200.000	-0.005	0.028
-69.451	-42.452	0.206	-0.103
-68.436	-62.343	-0.475	0.194
-67.422	136.606	-0.066	-0.085
-66.407	212.277	-0.142	-0.219
-65.392	-200.000	0.029	0.148
-64.378	-121.825	-0.103	-0.017
-63.363	53.935	0.310	0.292
-62.349	33.523	-0.147	-0.125
-61.334	101.233	-0.934	-1.066
-60.319	64.318	0.701	0.691
-59.305	800.000	-0.282	-1.014
-58.290	314.539	0.566	1.045
-57.276	800.000	0.481	1.475
-56.261	-200.000	110.836	635.529
-55.246	526.273	1511.727	3489.268
-54.232	177.828	2690.494	3844.057
-53.217	113.013	2151.780	2555.828
-52.203	40.944	1599.667	1414.809
-51.188	32.805	1341.080	1137.241
-50.173	29.768	1300.664	1085.140
-49.159	55.326	1357.572	1286.529
-48.144	54.939	1372.618	1298.422
-47.130	32.906	1326.264	1125.104
-46.115	29.331	1308.743	1089.124
-45.100	29.171	1303.635	1083.889
-44.086	29.187	1301.214	1081.926
-43.071	29.137	1298.670	1079.475
-42.057	29.053	1296.836	1077.417
-41.042	29.155	1294.451	1075.987
-40.027	29.083	1293.401	1074.654
-39.013	29.078	1291.578	1073.066
-37.998	29.208	1289.412	1071.980
-36.984	29.237	1287.656	1070.644
-35.969	29.258	1286.001	1069.352
-34.954	29.222	1284.730	1068.040
-33.940	29.366	1282.852	1067.271
-32.925	29.365	1281.983	1066.500
-31.911	29.243	1280.798	1064.767
-30.896	29.426	1278.773	1064.096
-29.881	29.312	1277.747	1062.546
-28.867	29.505	1275.685	1061.898
-27.852	29.380	1274.477	1060.129
-26.838	29.348	1273.724	1059.282
-25.823	29.411	1271.804	1058.001
-24.809	29.349	1271.002	1056.937
-23.794	29.349	1269.598	1055.727
-22.779	29.347	1268.479	1054.744
-21.765	29.311	1267.199	1053.432
-20.750	29.259	1265.741	1051.885
-19.736	29.288	1264.232	1050.752
-18.721	29.332	1263.281	1050.171
-17.706	29.210	1262.266	1048.592
-16.692	29.298	1260.806	1047.838
-15.677	29.246	1259.925	1046.767
-14.663	29.205	1258.983	1045.711
-13.648	29.218	1257.774	1044.740
-12.633	29.141	1257.186	1043.771
-11.619	29.207	1256.199	1043.285
-10.604	29.207	1255.224	1042.431
-9.590	29.113	1254.520	1041.276
-8.575	29.286	1252.852	1040.827
-7.560	29.163	1252.419	1039.731
-6.546	29.233	1251.399	1039.236
-5.531	29.142	1250.768	1038.161
-4.517	29.124	1250.188	1037.536
-3.502	29.164	1249.006	1036.740
-2.487	29.249	1248.305	1036.591
-1.473	29.039	1244.567	1032.272
-0.458	27.521	1228.244	1010.281
0.556	24.256	1210.630	970.467
1.571	20.222	1215.229	951.974
2.586	19.146	1229.769	957.298
3.600	18.665	1217.819	945.264
4.615	14.127	1147.301	866.852
5.629	6.781	1075.058	776.200
6.644	3.543	1056.902	747.359
7.659	3.278	1053.990	743.954
8.673	3.183	1053.479	743.069
9.688	3.156	1052.271	742.021
10.702	3.385	1050.240	741.626
11.717	7.504	1055.461	765.130
12.731	15.261	1066.541	810.750
13.746	19.737	1071.541	836.175
14.761	20.062	1071.462	837.610
15.775	19.277	1069.957	832.572
16.790	18.311	1067.810	826.166
17.804	17.394	1066.686	820.801
18.819	17.377	1065.136	819.456
19.834	17.179	1064.839	818.198
20.848	17.047	1064.046	816.881
21.863	16.812	1063.195	815.027
22.877	16.610	1062.641	813.558
23.892	16.726	1061.641	813.279
24.907	16.580	1061.545	812.430
25.921	16.685	1059.872	811.585
26.936	16.654	1058.411	810.246
27.950	16.703	1057.164	809.450
28.965	16.773	1055.890	808.738
29.980	16.952	1054.123	808.166
30.994	17.042	1053.334	807.921
32.009	16.905	1052.701	806.709
33.023	16.977	1051.644	806.171
34.038	16.970	1050.528	805.212
35.053	16.905	1049.121	803.754
36.067	16.783	1048.779	802.843
37.082	16.702	1048.396	802.092
38.096	16.799	1047.106	801.497
39.111	16.987	1046.179	801.605
40.126	16.678	1045.021	799.188
41.140	16.565	1043.447	797.378
42.155	16.501	1042.520	796.299
43.169	16.328	1041.736	794.817
44.184	16.370	1040.556	794.045
45.199	16.469	1039.381	793.540
46.213	16.655	1038.724	793.843
47.228	16.816	1037.633	793.690
48.242	16.699	1036.822	792.454
49.257	16.684	1035.950	791.644
50.271	16.877	1034.647	791.484
51.286	16.812	1034.779	791.208
52.301	16.756	1033.445	789.859
53.315	16.722	1032.237	788.708
54.330	16.535	1030.997	786.818
55.344	16.435	1030.848	786.173
56.359	16.582	1029.209	785.535
57.374	16.528	1028.685	784.814
58.388	16.490	1027.729	783.837
59.403	16.391	1027.041	782.787
60.417	16.324	1026.231	781.792
61.432	16.401	1025.437	781.472
62.447	16.265	1025.039	780.469
63.461	16.209	1023.705	779.127
64.476	16.268	1022.695	778.560
65.490	16.138	1021.980	777.350
66.505	16.283	1021.246	777.392
67.520	16.293	1020.927	777.124
68.534	16.358	1019.796	776.494
69.549	16.331	1019.209	775.856
70.563	16.192	1018.464	774.578
71.578	15.993	1017.799	773.095
72.593	15.977	1016.830	772.215
73.607	16.169	1016.081	772.455
74.622	16.127	1015.695	771.903
75.636	16.084	1015.027	771.132
76.651	16.176	1014.147	770.814
77.666	16.186	1013.988	770.672
78.680	16.284	1012.990	770.290
79.695	16.198	1012.938	769.792
80.709	16.227	1012.245	769.327
81.724	16.353	1011.412	769.200
82.739	16.587	1010.118	769.212
83.753	16.701	1010.011	769.581
84.768	16.966	1009.547	770.363
85.782	16.971	1008.623	769.615
86.797	16.839	1007.681	768.227
87.812	16.668	1006.761	766.685
88.826	16.786	1005.852	766.456
89.841	16.878	1004.990	766.151
90.855	17.009	1003.857	765.810
91.870	16.963	1003.312	765.119
92.884	17.063	1001.854	764.388
93.899	16.933	1001.644	763.575
94.914	17.044	1000.607	763.219
95.928	17.050	999.596	762.404
96.943	16.899	998.974	761.186
97.957	16.799	997.923	759.869
98.972	16.961	996.885	759.739
99.987	16.901	996.433	759.057
101.001	16.790	995.317	757.645
102.016	16.827	994.684	757.260
103.030	16.830	994.330	756.936
104.045	16.886	993.432	756.435
105.060	16.663	992.413	754.601
106.074	16.631	990.791	753.155
107.089	16.340	990.254	751.389
108.103	16.434	988.743	750.589
109.118	16.384	988.072	749.794
110.133	16.358	987.389	749.094
111.147	16.283	986.290	747.861
112.162	16.437	985.463	747.849
113.176	16.530	984.354	747.352
114.191	16.488	983.969	746.811
115.206	16.642	982.826	746.555
116.220	16.477	982.454	745.479
117.235	16.476	981.465	744.657
118.249	16.490	980.728	744.093
119.264	16.362	979.621	742.625
120.279	16.331	979.315	742.191
121.293	16.334	978.557	741.565
122.308	16.286	977.132	740.210
123.322	16.153	976.394	739.000
124.337	16.226	975.345	738.463
125.352	16.216	974.185	737.476
126.366	16.237	972.874	736.510
127.381	16.190	972.320	735.820
128.395	16.361	971.046	735.536
129.410	16.348	970.152	734.738
130.424	16.443	969.604	734.671
131.439	16.425	969.072	734.124
132.454	16.433	968.567	733.711
133.468	16.608	967.310	733.452
134.483	16.557	966.538	732.579
135.497	16.553	965.814	731.950
136.512	16.416	965.196	730.822
137.527	16.521	964.213	730.468
138.541	16.624	963.206	730.084
139.556	16.686	962.442	729.709
140.570	16.757	962.405	729.924
141.585	16.861	961.340	729.497
142.600	16.930	960.658	729.214
143.614	16.858	959.919	728.277
144.629	16.910	959.125	727.835
145.643	16.958	958.103	727.201
146.658	16.772	956.907	725.431
147.673	16.653	956.039	724.200
148.687	16.576	955.018	723.035
149.702	16.676	953.895	722.546
150.716	16.528	953.560	721.599
151.731	16.636	953.101	721.647
152.746	16.526	952.588	720.725
153.760	16.580	951.252	719.881
154.775	16.728	950.914	720.192
155.789	16.931	949.897	720.218
156.804	16.926	949.201	719.606
157.819	16.878	949.125	719.281
158.833	16.977	948.714	719.326
159.848	17.246	947.614	719.570
160.862	16.935	946.591	717.413
161.877	16.859	944.869	715.722
162.892	16.660	943.821	714.027
163.906	16.552	943.367	713.163
164.921	16.668	942.396	712.856
165.935	16.654	941.766	712.257
166.950	16.772	941.187	712.251
167.964	16.799	939.979	711.389
168.979	16.652	939.105	710.048
169.994	16.723	938.116	709.533
171.008	16.741	937.939	709.412
172.023	16.984	937.161	709.779
173.037	17.180	936.472	710.012
174.052	16.977	935.287	708.204
175.067	16.706	934.605	706.495
176.081	16.730	934.095	706.146
177.096	16.695	933.697	705.637
178.110	16.673	933.078	705.018
179.125	16.805	932.867	705.342
180.140	16.934	931.994	705.156
181.154	16.874	931.622	704.565
182.169	17.062	931.433	705.141
183.183	17.096	930.838	704.768
184.198	17.101	930.058	704.135
185.213	17.136	929.245	703.603
186.227	17.120	928.637	703.015
187.242	17.203	928.115	702.902
188.256	17.235	927.334	702.377
189.271	17.176	926.841	701.698
190.286	16.882	925.727	699.582
191.300	16.692	924.453	697.771
192.315	16.540	923.954	696.708
193.329	16.737	923.217	696.903
194.344	16.776	923.152	696.952
195.359	17.029	922.466	697.412
196.373	17.005	921.731	696.697
197.388	17.040	921.834	696.857
198.402	17.458	921.189	698.023
199.417	17.309	920.597	696.902
200.432	17.432	920.279	697.104
201.446	17.575	919.724	697.206
202.461	17.598	919.181	696.826
203.475	17.547	918.393	695.960
204.490	17.342	917.529	694.405
205.504	17.291	916.809	693.592
206.519	17.242	915.859	692.610
207.534	17.200	915.495	692.105
208.548	17.363	914.461	691.924
209.563	17.375	913.968	691.540
210.577	17.345	913.454	690.967
211.592	17.404	913.007	690.807
212.607	17.636	912.392	691.220
213.621	17.628	911.122	690.168
214.636	17.531	910.303	689.090
215.650	17.516	909.899	688.666
216.665	17.479	909.581	688.211
217.680	17.600	909.043	688.235
218.694	17.669	908.322	687.904
219.709	17.595	907.655	687.040
220.723	17.526	906.804	686.060
221.738	17.498	906.062	685.325
222.753	17.477	905.638	684.857
223.767	17.694	905.453	685.528
224.782	17.659	904.557	684.652
225.796	17.613	904.531	684.387
226.811	17.844	902.977	684.075
227.826	17.571	902.585	682.625
228.840	17.648	901.325	681.919
229.855	17.581	901.152	681.459
230.869	17.471	900.254	680.279
231.884	17.523	899.130	679.579
232.899	17.429	898.370	678.569
233.913	17.432	897.883	678.154
234.928	17.363	897.098	677.224
235.942	17.477	896.332	677.041
236.957	17.471	895.974	676.688
237.972	17.314	895.765	675.846
238.986	17.399	894.967	675.520
240.001	17.424	893.920	674.769
241.015	17.414	893.746	674.538
242.030	17.542	893.112	674.510
243.045	17.596	892.474	674.179
244.059	17.618	892.199	673.998
245.074	17.861	891.087	674.060
246.088	17.745	890.792	673.318
247.103	17.919	890.045	673.382
248.117	17.832	890.331	673.193
249.132	18.163	889.323	673.678
250.147	18.253	889.454	674.072
251.161	18.320	888.465	673.526
252.176	18.358	887.797	673.108
253.190	18.388	887.082	672.626
254.205	18.387	886.546	672.154
255.220	18.373	885.895	671.548
256.234	18.281	885.432	670.775
257.249	18.399	884.643	670.582
258.263	18.327	884.003	669.754
259.278	18.310	883.355	669.137
260.293	18.589	882.396	669.442
261.307	18.494	882.200	668.863
262.322	18.496	881.570	668.334
263.336	18.520	880.688	667.702
264.351	18.487	879.785	666.828
265.366	18.509	879.621	666.731
266.380	18.637	878.707	666.476
267.395	18.450	877.716	664.940
268.409	18.502	876.951	664.504
269.424	18.440	876.583	663.925
270.439	18.507	875.671	663.435
271.453	18.347	875.079	662.310
272.468	18.319	874.592	661.773
273.482	18.346	874.254	661.562
274.497	18.457	873.271	661.188
275.512	18.380	872.647	660.360
276.526	18.318	872.448	659.914
277.541	18.428	871.950	659.900
278.555	18.657	871.781	660.598
279.570	18.651	870.925	659.867
280.585	18.782	869.797	659.458
281.599	18.610	868.840	658.013
282.614	18.392	868.438	656.815
283.628	18.368	867.768	656.158
284.643	18.557	867.382	656.532
285.657	18.415	867.145	655.752
286.672	18.447	866.020	654.964
287.687	18.556	865.479	654.914
288.701	18.424	865.186	654.132
289.716	18.692	864.160	654.318
290.730	18.667	863.755	653.860
291.745	18.726	863.109	653.537
292.760	18.726	862.882	653.305
293.774	18.770	862.158	652.869
294.789	18.868	861.323	652.549
295.803	18.602	860.736	651.039
296.818	18.620	859.808	650.346
297.833	18.540	859.312	649.612
298.847	18.457	859.075	649.060
299.862	18.685	858.416	649.369
300.876	18.738	857.777	649.028
301.891	18.822	857.230	648.874
302.906	18.968	856.474	648.794
303.920	19.101	856.532	649.281
304.935	19.102	855.720	648.612
305.949	18.994	855.146	647.713
306.964	18.911	854.221	646.643
307.979	18.975	853.924	646.603
308.993	19.164	853.105	646.635
310.008	19.076	852.726	645.962
311.022	18.863	852.281	644.766
312.037	18.840	851.537	644.061
313.052	18.743	850.821	643.098
314.066	18.781	850.027	642.583
315.081	18.711	849.702	642.020
316.095	18.802	849.215	641.936
317.110	18.672	848.692	640.996
318.125	18.727	848.335	640.878
319.139	18.683	848.054	640.443
320.154	18.840	847.383	640.465
321.168	18.844	846.571	639.811
322.183	19.050	846.230	640.262
323.197	18.917	845.547	639.193
324.212	18.750	845.391	638.398
325.227	18.711	844.568	637.574
326.241	18.945	843.772	637.786
327.256	18.829	843.379	637.004
328.270	18.986	842.334	636.739
329.285	18.828	841.901	635.771
330.300	18.820	841.734	635.558
331.314	18.881	841.111	635.256
332.329	18.939	840.772	635.161
333.343	19.029	840.305	635.083
334.358	19.094	839.598	634.732
335.373	19.062	839.608	634.566
336.387	19.041	839.777	634.558
337.402	19.278	839.391	635.085
338.416	19.410	838.615	634.928
339.431	19.413	838.477	634.778
340.446	19.646	837.647	634.950
341.460	19.449	837.464	634.032
342.475	19.476	837.324	633.968
343.489	19.573	837.044	634.055
344.504	19.689	836.465	633.986
345.519	19.665	835.851	633.377
346.533	19.596	835.480	632.787
347.548	19.410	834.730	631.483
348.562	19.191	834.018	630.088
349.577	19.277	833.431	629.901
350.592	19.160	832.717	628.878
351.606	19.169	831.866	628.215
352.621	19.212	831.544	628.073
353.635	19.238	830.570	627.377
354.650	19.380	830.331	627.656
355.665	19.291	829.716	626.812
356.679	19.601	828.954	627.309
357.694	19.505	828.420	626.499
358.708	19.458	828.023	625.974
359.723	19.488	827.211	625.412
360.738	19.486	826.593	624.884
361.752	19.454	826.172	624.394
362.767	19.770	825.188	624.737
363.781	19.844	824.693	624.573
364.796	20.019	824.654	625.121
365.810	19.940	824.393	624.581
366.825	19.961	824.238	624.486
367.840	19.941	823.298	623.644
368.854	20.083	822.838	623.752
369.869	19.676	822.423	621.921
370.883	19.727	822.227	621.898
371.898	19.839	822.090	622.143
372.913	20.151	821.050	622.422
373.927	19.818	820.578	620.813
374.942	19.890	820.392	620.878
375.956	20.018	819.831	620.857
376.971	20.020	819.781	620.771
377.986	20.250	819.187	621.090
379.000	20.076	818.773	620.098
380.015	20.096	818.390	619.825
381.029	20.082	817.574	619.101
382.044	20.179	816.909	618.888
383.059	20.227	816.043	618.349
384.073	20.034	815.907	617.503
385.088	19.921	814.859	616.254
386.102	19.874	814.501	615.760
387.117	19.712	814.007	614.757
388.132	19.930	813.027	614.738
389.146	20.039	812.335	614.548
390.161	20.125	812.401	614.845
391.175	20.264	812.006	614.988
392.190	20.006	811.401	613.560
393.205	19.945	811.013	612.997
394.219	20.033	810.626	612.962
395.234	19.903	810.004	611.978
396.248	19.837	809.331	611.180
397.263	19.771	808.948	610.604
398.278	19.745	808.515	610.131
399.292	19.761	808.216	609.910
400.307	19.765	807.595	609.399
401.321	19.827	807.230	609.288
402.336	19.893	806.971	609.272
403.350	20.016	806.546	609.331
404.365	20.071	805.934	609.006
405.380	20.236	805.595	609.278
406.394	20.418	804.971	609.388
407.409	20.362	804.747	608.968
408.423	20.612	804.248	609.414
409.438	20.343	804.366	608.506
410.453	20.458	803.727	608.373
411.467	20.742	803.326	609.010
412.482	20.589	803.033	608.197
413.496	20.674	802.818	608.279
414.511	20.774	802.034	607.978
415.526	20.653	801.654	607.214
416.540	20.453	801.320	606.209
417.555	20.577	800.871	606.248
418.569	20.573	800.262	605.721
419.584	20.558	799.532	605.064
420.599	20.658	799.507	605.338
421.613	161.691	1372.794	1797.369
422.628	140.347	1456.287	1797.458
