DTS Sentinel unit serial number:	SN413079Multiplexer serial number:	ORYXHardware model number:	OX4-SRSoftware version number:	ORYX F/W v4.00 Oryx Data Collector v3.7.2.0data status	okinstallation	princeton_trtdifferential loss correction	single-endedforward channel	channel 1reverse channel	N/Adate	2019/09/13time	19:46:35forward acquisition time	60.00reverse acquisition time	0.00gamma	496.2192k internal	0.2328k external	0.2328temperature offset calibration	1.0101default loss term (dB/km)	0.3790temperature slope calibration	1.0000multiplexer offset coefficient	1.0000multiplexer slope coefficient	1.0000fibre end	0.00T internal ref (°C)	30.19T ext. ref 1 (°C)	3.47T ext. ref 2 (°C)	24.28length (m)	temperature (°C)	Stokes	anti-Stokes-747.200	3.014	0.088	-0.064
-746.185	348.923	-0.041	0.081
-745.171	-99.046	0.182	-0.046
-744.156	60.109	-0.152	0.152
-743.142	37.346	0.358	0.319
-742.127	-177.583	-0.308	0.008
-741.112	-77.369	-0.258	0.090
-740.098	97.564	-0.261	0.302
-739.083	73.768	-0.202	0.214
-738.069	-106.843	0.226	0.050
-737.054	262.058	-0.082	0.143
-736.039	-115.627	-0.187	-0.035
-735.025	-120.353	0.153	-0.026
-734.010	41.869	-0.385	-0.352
-732.996	133.721	0.271	-0.353
-731.981	-43.405	-0.346	0.176
-730.966	-100.010	0.195	-0.049
-729.952	-200.000	-0.010	-0.240
-728.937	-128.438	-0.131	-0.019
-727.923	238.526	-0.168	-0.281
-726.908	545.563	-0.040	-0.096
-725.894	-92.915	0.233	-0.065
-724.879	-200.000	0.015	-0.132
-723.864	187.178	-0.136	-0.204
-722.850	-35.051	0.228	-0.125
-721.835	342.335	0.186	0.366
-720.821	-200.000	-0.002	0.224
-719.806	800.000	0.058	-0.192
-718.791	-177.504	-0.322	-0.008
-717.777	-200.000	-0.012	0.106
-716.762	337.948	-0.078	-0.153
-715.748	494.813	-0.111	-0.257
-714.733	151.327	0.168	0.231
-713.718	-76.770	-0.229	-0.081
-712.704	-87.418	0.174	-0.053
-711.689	-151.910	-0.209	0.015
-710.675	145.434	-0.205	0.276
-709.660	800.000	0.040	-0.174
-708.645	109.357	0.126	-0.152
-707.631	67.070	-0.235	-0.240
-706.616	158.972	0.201	-0.281
-705.602	800.000	0.011	0.043
-704.587	165.352	-0.235	0.335
-703.572	800.000	-0.017	0.055
-702.558	507.130	0.145	-0.339
-701.543	-101.845	0.142	-0.035
-700.529	-72.817	0.217	-0.080
-699.514	-200.000	0.002	-0.163
-698.499	-104.400	-0.228	-0.053
-697.485	345.130	-0.071	-0.141
-696.470	-200.000	0.000	0.044
-695.456	110.917	-0.266	-0.322
-694.441	326.512	-0.040	-0.078
-693.426	81.063	0.184	0.199
-692.412	800.000	-0.032	-0.092
-691.397	-142.290	-0.431	0.043
-690.383	-23.607	-0.129	-0.078
-689.368	-160.977	-0.228	-0.012
-688.354	133.393	-0.119	0.154
-687.339	800.000	-0.048	0.192
-686.324	-106.553	0.306	-0.068
-685.310	83.090	-0.066	0.072
-684.295	800.000	-0.055	-0.212
-683.281	-131.262	0.314	0.042
-682.266	-200.000	0.031	-0.158
-681.251	-75.129	0.167	0.060
-680.237	-160.726	-0.124	-0.007
-679.222	-200.000	0.018	-0.183
-678.208	219.243	-0.173	0.279
-677.193	800.000	0.065	-0.196
-676.178	800.000	-0.025	0.084
-675.164	52.567	0.330	-0.317
-674.149	-88.845	-0.305	-0.091
-673.135	-86.658	0.189	0.058
-672.120	-200.000	0.023	0.166
-671.105	-26.450	-0.366	0.215
-670.091	194.359	0.087	0.133
-669.076	-5.172	0.096	-0.067
-668.062	-108.037	0.407	0.089
-667.047	-141.747	0.231	-0.023
-666.032	49.010	0.168	0.158
-665.018	800.000	-0.078	0.314
-664.003	233.251	0.221	-0.365
-662.989	362.855	-0.121	0.244
-661.974	-174.559	-0.023	0.001
-660.959	636.691	-0.079	0.201
-659.945	86.444	0.149	-0.165
-658.930	-103.826	0.240	0.056
-657.916	189.106	0.204	0.307
-656.901	-200.000	0.015	0.372
-655.886	-200.000	-0.002	-0.292
-654.872	-200.000	0.008	-0.261
-653.857	-131.420	-0.344	-0.046
-652.843	46.860	0.086	-0.080
-651.828	-88.884	-0.376	0.112
-650.814	-116.427	0.241	0.045
-649.799	-200.000	-0.014	0.300
-648.784	-103.096	-0.150	-0.036
-647.770	517.067	-0.112	0.263
-646.755	723.829	-0.063	-0.169
-645.741	78.050	0.191	-0.204
-644.726	800.000	0.055	-0.181
-643.711	-200.000	0.005	0.190
-642.697	800.000	0.084	0.340
-641.682	-159.882	-0.187	0.010
-640.668	193.337	-0.063	-0.096
-639.653	169.248	-0.067	-0.095
-638.638	-122.682	0.461	-0.075
-637.624	-78.115	-0.117	0.040
-636.609	-72.840	-0.295	0.109
-635.595	-75.820	-0.258	-0.092
-634.580	40.368	0.202	-0.182
-633.565	-200.000	0.020	0.093
-632.551	-200.000	0.016	0.274
-631.536	578.031	-0.097	0.237
-630.522	308.560	-0.099	0.186
-629.507	322.285	0.145	-0.277
-628.492	-80.260	-0.096	-0.032
-627.478	800.000	0.192	0.661
-626.463	-22.689	0.053	0.032
-625.449	-200.000	-0.004	-0.076
-624.434	800.000	0.031	-0.115
-623.419	-19.034	0.138	-0.086
-622.405	11.281	-0.156	-0.120
-621.390	111.110	0.176	-0.213
-620.376	-23.544	0.097	0.058
-619.361	800.000	-0.023	-0.079
-618.346	113.785	0.210	-0.256
-617.332	-200.000	0.091	-0.544
-616.317	-200.000	0.089	-0.408
-615.303	50.311	-0.199	0.189
-614.288	-49.827	-0.335	-0.159
-613.273	-59.854	0.177	0.076
-612.259	2.131	-0.386	0.280
-611.244	300.815	-0.019	0.035
-610.230	20.358	-0.104	0.084
-609.215	98.525	0.218	-0.252
-608.201	71.515	-0.265	0.276
-607.186	268.003	-0.083	-0.146
-606.171	-27.313	-0.199	-0.116
-605.157	-9.221	0.153	-0.103
-604.142	-200.000	0.014	0.227
-603.128	-107.123	-0.045	-0.010
-602.113	311.218	0.079	0.148
-601.098	-165.629	-0.340	0.015
-600.084	-8.432	0.434	-0.292
-599.069	-200.000	-0.003	0.272
-598.055	366.560	0.036	0.072
-597.040	-17.169	-0.164	0.104
-596.025	-200.000	-0.015	0.068
-595.011	-40.148	0.155	0.081
-593.996	30.094	0.097	0.083
-592.982	800.000	0.026	0.109
-591.967	-200.000	0.018	0.160
-590.952	-33.539	0.278	-0.154
-589.938	-17.206	0.112	0.071
-588.923	-200.000	0.020	-0.199
-587.909	466.129	0.059	0.133
-586.894	-105.086	-0.356	0.082
-585.879	800.000	0.078	0.310
-584.865	800.000	-0.097	-0.323
-583.850	28.447	0.108	0.092
-582.836	-123.074	-0.240	-0.039
-581.821	-200.000	0.040	-0.283
-580.806	745.038	0.142	0.383
-579.792	101.130	-0.117	0.136
-578.777	143.123	-0.259	-0.346
-577.763	-35.571	-0.080	0.044
-576.748	-27.554	0.146	-0.085
-575.733	552.181	0.158	0.379
-574.719	32.593	0.276	-0.238
-573.704	7.380	0.129	-0.096
-572.690	-97.930	0.261	-0.067
-571.675	-148.039	0.334	-0.028
-570.661	-49.580	-0.121	0.057
-569.646	-200.000	0.018	0.112
-568.631	34.093	0.184	-0.161
-567.617	517.553	-0.089	0.209
-566.602	22.982	0.465	-0.382
-565.588	-14.917	-0.095	-0.061
-564.573	-31.119	0.207	-0.117
-563.558	-200.000	0.002	-0.200
-562.544	-200.000	-0.040	0.348
-561.529	-200.000	-0.027	-0.291
-560.515	285.181	0.176	-0.317
-559.500	-26.913	0.535	-0.312
-558.485	402.094	0.018	-0.037
-557.471	287.972	-0.151	-0.274
-556.456	-26.126	-0.330	0.194
-555.442	-96.730	-0.148	-0.039
-554.427	194.844	-0.205	-0.311
-553.412	-86.169	-0.368	-0.114
-552.398	78.988	-0.080	-0.086
-551.383	98.177	-0.165	-0.189
-550.369	56.262	-0.253	-0.246
-549.354	-200.000	-0.017	0.082
-548.339	-11.387	0.109	0.072
-547.325	-200.000	-0.007	-0.137
-546.310	-67.573	-0.278	-0.109
-545.296	274.760	-0.046	-0.081
-544.281	121.138	-0.102	0.126
-543.266	-154.549	-0.145	-0.010
-542.252	53.034	-0.250	0.239
-541.237	-2.594	-0.195	-0.136
-540.223	138.924	-0.155	-0.203
-539.208	287.606	0.101	0.183
-538.193	29.162	-0.181	-0.153
-537.179	-11.267	-0.101	-0.066
-536.164	800.000	0.061	0.229
-535.150	-153.337	-0.343	-0.024
-534.135	-102.727	0.165	-0.039
-533.121	-200.000	-0.028	-0.235
-532.106	-149.559	-0.132	-0.010
-531.091	130.417	0.042	-0.054
-530.077	-121.107	-0.056	0.009
-529.062	-78.506	-0.447	0.153
-528.048	-200.000	-0.001	-0.200
-527.033	266.348	0.036	0.063
-526.018	63.248	-0.021	-0.021
-525.004	19.537	0.240	0.193
-523.989	197.980	-0.123	-0.187
-522.975	-71.555	-0.303	-0.113
-521.960	-50.950	-0.349	0.164
-520.945	134.169	-0.077	0.099
-519.931	87.635	0.040	0.045
-518.916	-118.531	-0.392	0.069
-517.902	245.942	-0.133	-0.223
-516.887	-18.516	0.302	0.189
-515.872	176.488	0.047	0.069
-514.858	48.934	0.073	-0.069
-513.843	-32.699	0.118	0.065
-512.829	-200.000	-0.008	-0.424
-511.814	227.505	-0.044	-0.071
-510.799	800.000	-0.156	-0.466
-509.785	-200.000	0.085	-0.382
-508.770	-200.000	0.021	0.308
-507.756	230.278	0.111	0.181
-506.741	43.340	-0.113	0.103
-505.726	-200.000	-0.028	0.134
-504.712	-38.868	-0.294	-0.155
-503.697	-64.680	0.466	-0.189
-502.683	-195.044	0.096	0.001
-501.668	-76.854	0.244	-0.085
-500.653	175.997	0.165	0.239
-499.639	-46.311	-0.144	-0.071
-498.624	-98.251	-0.100	0.026
-497.610	73.528	0.121	-0.127
-496.595	126.347	-0.036	-0.045
-495.581	359.220	0.167	0.333
-494.566	24.951	0.081	0.067
-493.551	483.008	-0.124	-0.281
-492.537	239.935	-0.052	-0.087
-491.522	-7.548	0.145	-0.098
-490.508	-200.000	0.004	0.095
-489.493	242.734	0.168	-0.281
-488.478	-149.176	0.266	-0.021
-487.464	52.818	0.212	-0.202
-486.449	800.000	0.035	0.100
-485.435	-200.000	-0.009	-0.300
-484.420	800.000	-0.120	-0.381
-483.405	355.798	-0.072	0.142
-482.391	77.354	0.100	-0.107
-481.376	-200.000	-0.038	0.263
-480.362	800.000	0.130	0.430
-479.347	99.088	0.277	-0.319
-478.332	-53.952	0.223	-0.101
-477.318	677.025	0.122	0.316
-476.303	250.411	-0.222	0.375
-475.289	-200.000	0.007	-0.050
-474.274	80.356	-0.259	-0.278
-473.259	800.000	-0.008	0.029
-472.245	-200.000	0.001	0.052
-471.230	40.438	0.067	0.060
-470.216	800.000	-0.037	-0.115
-469.201	434.756	-0.048	0.104
-468.186	14.618	-0.095	0.074
-467.172	-11.899	-0.186	-0.121
-466.157	-200.000	-0.033	-0.159
-465.143	23.347	0.166	-0.136
-464.128	-192.986	0.250	-0.002
-463.113	-42.533	-0.293	-0.149
-462.099	800.000	0.075	-0.311
-461.084	-162.118	0.176	0.009
-460.070	-159.373	-0.128	0.007
-459.055	153.247	0.080	0.109
-458.040	138.926	-0.141	0.185
-457.026	800.000	-0.065	-0.210
-456.011	152.836	0.128	-0.174
-454.997	-101.470	-0.249	0.060
-453.982	322.724	0.115	0.218
-452.968	-200.000	0.032	0.295
-451.953	-123.602	-0.094	0.015
-450.938	-200.000	-0.015	-0.235
-449.924	800.000	-0.128	-0.407
-448.909	-64.485	-0.234	0.095
-447.895	333.596	0.186	-0.359
-446.880	-200.000	-0.054	-0.270
-445.865	800.000	-0.074	-0.304
-444.851	-1.371	-0.288	-0.202
-443.836	-71.633	0.072	-0.027
-442.822	164.736	-0.118	0.166
-441.807	-200.000	-0.028	-0.231
-440.792	-30.247	0.070	0.040
-439.778	-70.811	0.288	0.108
-438.763	111.347	0.052	-0.063
-437.749	17.153	-0.217	-0.171
-436.734	-103.715	0.103	-0.024
-435.719	-19.370	0.104	0.064
-434.705	-67.110	0.272	0.107
-433.690	-94.394	0.127	-0.035
-432.676	-171.368	0.225	-0.007
-431.661	487.625	-0.074	-0.167
-430.646	-200.000	-0.058	0.387
-429.632	-67.635	0.268	0.105
-428.617	-200.000	0.048	-0.210
-427.603	-151.781	0.158	0.012
-426.588	-102.895	-0.042	0.010
-425.573	-26.495	0.111	0.065
-424.559	139.845	0.112	-0.147
-423.544	662.097	-0.048	-0.123
-422.530	-35.090	-0.223	0.121
-421.515	-70.657	0.179	0.067
-420.500	377.396	0.122	-0.247
-419.486	-38.942	0.068	0.036
-418.471	-150.827	-0.005	0.000
-417.457	39.223	-0.136	-0.121
-416.442	-200.000	0.020	0.088
-415.428	65.768	-0.072	0.072
-414.413	-200.000	0.026	0.113
-413.398	-200.000	-0.010	-0.097
-412.384	649.641	0.086	-0.219
-411.369	-200.000	-0.001	-0.135
-410.355	-99.847	0.167	-0.042
-409.340	142.916	0.053	0.070
-408.325	-76.411	0.279	0.098
-407.311	185.317	0.155	0.229
-406.296	-200.000	0.047	-0.258
-405.282	116.374	-0.200	-0.244
-404.267	800.000	-0.058	0.224
-403.252	172.082	-0.068	0.098
-402.238	80.240	0.102	0.109
-401.223	-117.537	0.137	-0.025
-400.209	-78.970	0.299	-0.101
-399.194	-27.656	0.094	-0.054
-398.179	165.236	0.179	-0.251
-397.165	166.934	-0.084	-0.118
-396.150	106.483	-0.038	0.044
-395.136	-2.168	0.181	0.126
-394.121	800.000	-0.048	0.154
-393.106	-68.816	-0.378	-0.145
-392.092	83.197	-0.270	0.293
-391.077	-91.668	-0.205	-0.058
-390.063	800.000	0.066	-0.220
-389.048	-82.088	-0.076	-0.024
-388.033	100.662	-0.175	0.202
-387.019	-30.334	0.073	0.041
-386.004	-79.718	-0.217	-0.073
-384.990	547.807	0.136	-0.325
-383.975	78.831	-0.269	-0.286
-382.960	-122.418	-0.146	-0.024
-381.946	800.000	0.137	0.390
-380.931	14.736	-0.364	-0.282
-379.917	800.000	-0.089	0.301
-378.902	333.669	-0.055	0.105
-377.888	-200.000	0.015	0.110
-376.873	-200.000	-0.001	0.081
-375.858	-143.266	-0.033	-0.003
-374.844	-8.893	-0.095	0.063
-373.829	243.147	0.182	-0.303
-372.815	-116.554	0.405	-0.074
-371.800	-25.381	-0.168	-0.099
-370.785	-98.275	-0.059	0.015
-369.771	-200.000	-0.004	0.208
-368.756	101.700	0.078	-0.090
-367.742	800.000	0.024	0.099
-366.727	15.713	-0.104	0.081
-365.712	42.557	0.086	-0.078
-364.698	800.000	0.022	-0.063
-363.683	-200.000	0.049	0.358
-362.669	119.751	-0.046	0.056
-361.654	-22.002	0.318	-0.192
-360.639	-77.252	0.522	-0.180
-359.625	-143.507	0.350	0.033
-358.610	-76.042	-0.128	-0.045
-357.596	162.675	-0.124	0.173
-356.581	643.735	-0.095	0.240
-355.566	101.427	0.100	0.115
-354.552	212.846	0.220	-0.344
-353.537	260.898	-0.082	0.140
-352.523	-200.000	0.039	0.256
-351.508	-111.885	0.204	-0.041
-350.493	-200.000	0.015	0.128
-349.479	129.854	-0.140	-0.177
-348.464	-63.472	0.124	-0.051
-347.450	-16.752	0.206	-0.129
-346.435	22.465	0.216	0.175
-345.420	-139.822	-0.187	0.020
-344.406	25.849	0.162	-0.134
-343.391	-43.886	0.204	-0.102
-342.377	1.144	0.038	0.027
-341.362	-110.705	-0.221	-0.045
-340.348	304.925	0.131	0.242
-339.333	117.436	-0.166	0.203
-338.318	142.509	-0.132	-0.174
-337.304	-200.000	-0.024	-0.274
-336.289	82.643	-0.171	0.184
-335.275	-168.300	0.238	-0.009
-334.260	-42.585	-0.386	0.195
-333.245	-200.000	0.011	0.061
-332.231	0.068	0.315	-0.223
-331.216	236.969	-0.143	0.236
-330.202	764.232	-0.055	0.147
-329.187	-31.510	0.149	-0.083
-328.172	113.986	-0.271	0.326
-327.158	291.490	-0.113	0.203
-326.143	-200.000	-0.034	-0.166
-325.129	-73.975	-0.155	0.056
-324.114	166.956	0.138	-0.195
-323.099	-30.731	-0.130	0.073
-322.085	-108.065	0.162	0.035
-321.070	-200.000	0.003	-0.172
-320.056	800.000	0.099	-0.334
-319.041	-50.439	0.319	0.149
-318.026	424.729	0.044	-0.094
-317.012	191.277	0.080	-0.119
-315.997	-115.547	0.352	0.066
-314.983	493.004	0.037	-0.084
-313.968	-200.000	0.002	-0.038
-312.953	314.364	-0.184	0.343
-311.939	-200.000	-0.014	0.328
-310.924	-163.999	0.378	-0.017
-309.910	800.000	-0.052	-0.223
-308.895	-38.333	-0.247	0.130
-307.880	110.678	0.141	-0.168
-306.866	-52.992	-0.064	0.029
-305.851	463.786	-0.106	0.234
-304.837	105.719	-0.185	-0.216
-303.822	-100.164	0.147	0.036
-302.807	-83.670	-0.130	0.041
-301.793	-32.091	0.179	0.099
-300.778	55.770	-0.132	0.127
-299.764	-79.041	0.223	0.075
-298.749	-68.020	-0.120	0.046
-297.735	-83.875	-0.142	-0.045
-296.720	-200.000	-0.005	-0.088
-295.705	-51.278	-0.119	-0.055
-294.691	-20.946	-0.169	0.103
-293.676	77.199	0.148	-0.156
-292.662	-200.000	-0.051	-0.235
-291.647	-122.696	0.315	-0.050
-290.632	-58.866	-0.219	0.094
-289.618	129.880	-0.038	0.048
-288.603	-93.468	0.161	0.044
-287.589	-38.965	0.052	0.027
-286.574	-47.816	-0.081	-0.039
-285.559	65.031	-0.062	0.062
-284.545	-200.000	0.001	0.161
-283.530	-200.000	-0.017	0.152
-282.516	-200.000	-0.076	0.387
-281.501	53.219	-0.177	0.167
-280.486	246.867	-0.101	-0.169
-279.472	44.863	0.073	-0.066
-278.457	-53.392	-0.375	0.170
-277.443	46.961	-0.097	0.089
-276.428	-54.523	0.303	-0.136
-275.413	-200.000	-0.012	-0.137
-274.399	361.800	0.082	0.162
-273.384	72.488	0.232	0.239
-272.370	-33.919	-0.131	-0.071
-271.355	102.866	-0.216	-0.250
-270.340	-200.000	0.051	0.309
-269.326	-59.418	-0.263	-0.112
-268.311	-52.300	0.235	0.108
-267.297	-124.571	0.311	0.048
-266.282	355.081	-0.090	0.176
-265.267	-73.275	0.276	-0.100
-264.253	5.521	0.094	0.068
-263.238	304.212	0.126	0.232
-262.224	29.684	-0.074	0.062
-261.209	356.088	-0.024	-0.047
-260.195	-68.835	-0.192	-0.073
-259.180	136.435	-0.183	0.236
-258.165	-200.000	-0.050	0.302
-257.151	543.794	-0.114	0.268
-256.136	-86.280	-0.235	-0.072
-255.122	800.000	-0.069	0.250
-254.107	528.328	-0.084	0.195
-253.092	-97.403	0.070	0.018
-252.078	38.235	0.068	0.060
-251.063	83.843	-0.145	0.156
-250.049	-200.000	0.005	-0.034
-249.034	-109.355	-0.371	0.078
-248.019	-150.661	-0.101	-0.008
-247.005	-200.000	0.007	0.119
-245.990	-200.000	0.070	-0.398
-244.976	-19.705	-0.012	0.007
-243.961	-16.964	-0.391	-0.244
-242.946	65.234	0.140	0.140
-241.932	-36.689	-0.095	0.051
-240.917	11.586	-0.170	-0.128
-239.903	-200.000	-0.024	-0.250
-238.888	-200.000	-0.026	0.120
-237.873	615.117	-0.084	-0.208
-236.859	-37.022	0.246	0.130
-235.844	96.297	0.238	0.269
-234.830	-49.679	0.186	-0.087
-233.815	-106.675	-0.065	-0.014
-232.800	-45.493	0.126	0.062
-231.786	-200.000	0.016	0.108
-230.771	800.000	-0.027	-0.085
-229.757	126.080	0.081	0.101
-228.742	121.739	-0.243	0.299
-227.727	366.067	0.125	0.249
-226.713	-200.000	-0.033	0.272
-225.698	163.795	-0.150	0.208
-224.684	-103.581	0.248	-0.058
-223.669	-200.000	0.008	-0.149
-222.655	-107.017	0.255	-0.056
-221.640	14.287	0.185	-0.142
-220.625	-52.222	-0.249	-0.114
-219.611	800.000	-0.029	-0.094
-218.596	275.545	-0.103	-0.180
-217.582	29.438	0.444	-0.373
-216.567	485.631	-0.105	0.236
-215.552	217.491	-0.105	-0.165
-214.538	374.048	-0.150	0.301
-213.523	255.050	0.009	0.014
-212.509	409.417	0.114	0.238
-211.494	-200.000	-0.005	0.085
-210.479	11.340	-0.067	-0.050
-209.465	489.381	0.110	-0.248
-208.450	26.892	-0.142	-0.117
-207.436	-63.788	-0.328	-0.133
-206.421	-52.697	-0.240	0.109
-205.406	-79.012	0.179	0.060
-204.392	-122.132	0.171	0.028
-203.377	-200.000	0.004	-0.073
-202.363	153.267	-0.106	0.143
-201.348	275.733	0.076	0.134
-200.333	-200.000	0.017	-0.249
-199.319	82.425	0.157	0.169
-198.304	-200.000	-0.012	0.304
-197.290	-46.116	-0.282	-0.137
-196.275	800.000	0.018	-0.051
-195.260	37.937	-0.101	0.088
-194.246	402.006	-0.016	-0.034
-193.231	-200.000	-0.017	0.205
-192.217	-85.208	-0.210	-0.065
-191.202	143.472	-0.062	0.082
-190.187	351.447	-0.087	0.170
-189.173	86.064	0.043	-0.047
-188.158	444.923	-0.013	-0.027
-187.144	84.926	-0.050	0.054
-186.129	-200.000	0.025	-0.405
-185.114	-33.259	-0.173	0.094
-184.100	-200.000	0.032	-0.200
-183.085	-111.670	-0.505	0.101
-182.071	800.000	0.041	-0.142
-181.056	2.522	0.233	-0.166
-180.042	-66.176	0.186	-0.073
-179.027	-68.665	0.444	-0.169
-178.012	-138.759	-0.190	0.020
-176.998	196.260	-0.020	-0.030
-175.983	-128.590	0.066	0.009
-174.969	-31.842	0.261	0.144
-173.954	-112.338	-0.224	0.044
-172.939	-107.449	-0.201	0.044
-171.925	-125.775	0.230	-0.034
-170.910	781.036	-0.160	0.431
-169.896	281.317	-0.067	-0.117
-168.881	-200.000	0.031	0.148
-167.866	-200.000	0.019	0.280
-166.852	126.139	0.231	-0.288
-165.837	-38.170	-0.305	0.159
-164.823	800.000	-0.105	0.365
-163.808	-61.443	0.138	0.057
-162.793	370.282	0.169	0.336
-161.779	-54.967	0.136	0.061
-160.764	-200.000	-0.004	0.173
-159.750	0.357	0.158	0.111
-158.735	54.504	0.073	-0.069
-157.720	210.167	0.055	0.086
-156.706	107.835	0.134	-0.158
-155.691	5.709	-0.197	0.144
-154.677	-145.793	0.050	0.004
-153.662	-200.000	0.013	0.098
-152.647	800.000	-0.047	0.180
-151.633	-62.149	0.177	-0.073
-150.618	-60.976	0.243	-0.101
-149.604	232.844	0.213	-0.344
-148.589	-94.163	0.099	-0.027
-147.574	181.677	-0.036	-0.052
-146.560	-3.225	0.237	-0.163
-145.545	249.605	-0.193	0.322
-144.531	-200.000	0.018	0.396
-143.516	-11.500	0.110	0.071
-142.502	508.113	0.057	0.131
-141.487	371.835	0.054	-0.108
-140.472	84.288	0.197	-0.212
-139.458	451.437	-0.055	0.120
-138.443	-200.000	-0.010	-0.360
-137.429	-28.234	-0.287	-0.163
-136.414	93.662	0.041	-0.046
-135.399	688.489	0.042	0.107
-134.385	-65.404	-0.266	0.105
-133.370	-200.000	0.024	0.224
-132.356	-200.000	0.028	-0.169
-131.341	32.009	-0.122	0.103
-130.326	-127.032	-0.097	-0.014
-129.312	-200.000	0.043	0.207
-128.297	-200.000	-0.005	-0.552
-127.283	800.000	-0.025	-0.080
-126.268	-101.200	0.120	-0.029
-125.253	800.000	-0.013	0.050
-124.239	52.494	-0.203	-0.191
-123.224	200.981	0.074	0.112
-122.210	-17.637	-0.178	0.110
-121.195	45.512	0.163	0.148
-120.180	-200.000	-0.001	0.042
-119.166	-78.954	0.146	0.049
-118.151	183.420	0.136	-0.197
-117.137	-200.000	0.142	-0.000
-116.122	384.543	-0.121	-0.245
-115.107	-44.944	0.199	-0.097
-114.093	62.629	0.044	0.044
-113.078	-14.429	0.061	0.039
-112.064	-52.018	-0.126	-0.057
-111.049	-200.000	0.019	-0.157
-110.034	153.520	0.100	-0.135
-109.020	-44.322	-0.188	0.093
-108.005	176.623	0.054	-0.077
-106.991	-200.000	-0.049	0.342
-105.976	-84.686	0.195	0.060
-104.962	55.197	0.172	0.163
-103.947	-200.000	-0.009	-0.163
-102.932	-133.665	-0.162	0.020
-101.918	-22.994	0.179	-0.106
-100.903	-200.000	-0.010	-0.043
-99.889	800.000	-0.104	0.297
-98.874	800.000	-0.042	-0.120
-97.859	-158.075	0.096	-0.006
-96.845	-73.273	-0.151	-0.054
-95.830	-200.000	-0.011	0.074
-94.816	-38.669	-0.159	0.082
-93.801	-200.000	0.020	0.198
-92.786	-200.000	0.008	-0.164
-91.772	-200.000	-0.024	-0.319
-90.757	-51.322	0.055	-0.025
-89.743	-133.782	0.115	0.014
-88.728	-200.000	-0.084	-0.000
-87.713	16.478	-0.107	-0.083
-86.699	-200.000	0.018	0.222
-85.684	567.530	-0.070	0.167
-84.670	-144.191	0.292	0.027
-83.655	-69.587	-0.065	-0.025
-82.640	-153.112	-0.321	-0.022
-81.626	-200.000	0.018	-0.225
-80.611	-200.000	0.007	-0.135
-79.597	56.376	0.331	0.316
-78.582	238.285	-0.145	-0.236
-77.567	435.329	0.037	0.080
-76.553	-133.493	-0.316	-0.039
-75.538	-159.052	0.148	-0.008
-74.524	800.000	0.066	0.236
-73.509	-162.526	-0.041	-0.002
-72.494	66.871	-0.202	-0.201
-71.480	-82.514	0.130	-0.041
-70.465	-72.655	-0.142	-0.051
-69.451	18.911	0.279	-0.219
-68.436	56.262	0.067	0.064
-67.422	-200.000	-0.037	0.221
-66.407	-165.266	-0.315	0.014
-65.392	469.229	0.096	-0.211
-64.378	72.501	-0.103	-0.106
-63.363	118.837	0.108	0.131
-62.349	-200.000	-0.075	-0.344
-61.334	60.952	-1.034	-1.007
-60.319	171.429	0.459	0.647
-59.305	800.000	-0.422	-1.195
-58.290	384.294	0.688	1.390
-57.276	401.189	0.840	1.730
-56.261	-200.000	107.307	606.869
-55.246	531.660	1474.480	3420.308
-54.232	182.591	2657.426	3843.920
-53.217	113.767	2145.836	2557.286
-52.203	41.958	1598.027	1421.746
-51.188	33.928	1338.431	1142.700
-50.173	30.622	1297.941	1088.770
-49.159	54.619	1351.187	1277.378
-48.144	55.242	1366.884	1295.878
-47.130	33.745	1322.059	1127.456
-46.115	30.363	1304.551	1092.615
-45.100	30.155	1299.485	1087.109
-44.086	30.123	1297.052	1084.846
-43.071	30.012	1294.982	1082.420
-42.057	29.963	1293.042	1080.469
-41.042	30.098	1290.752	1079.303
-40.027	30.152	1289.375	1078.420
-39.013	30.114	1287.786	1076.826
-37.998	30.109	1286.261	1075.481
-36.984	30.188	1284.255	1074.220
-35.969	30.216	1282.477	1072.853
-34.954	30.194	1280.568	1071.086
-33.940	30.297	1279.219	1070.511
-32.925	30.244	1278.760	1069.774
-31.911	30.290	1276.739	1068.308
-30.896	30.256	1275.278	1066.847
-29.881	30.375	1273.930	1066.358
-28.867	30.363	1272.392	1064.962
-27.852	30.422	1270.617	1063.770
-26.838	30.301	1269.713	1062.279
-25.823	30.213	1267.974	1060.280
-24.809	30.262	1267.136	1059.819
-23.794	30.227	1266.224	1058.815
-22.779	30.248	1264.813	1057.710
-21.765	30.235	1263.372	1056.387
-20.750	30.191	1262.159	1055.082
-19.736	30.230	1260.515	1053.886
-18.721	30.150	1259.733	1052.740
-17.706	30.198	1258.525	1051.957
-16.692	30.127	1257.953	1051.039
-15.677	30.127	1256.116	1049.462
-14.663	30.089	1255.476	1048.671
-13.648	30.128	1254.373	1047.928
-12.633	30.196	1252.865	1047.012
-11.619	30.048	1252.375	1045.721
-10.604	30.150	1251.459	1045.491
-9.590	30.136	1250.260	1044.368
-8.575	30.046	1249.265	1042.988
-7.560	30.001	1248.819	1042.321
-6.546	30.150	1247.628	1042.124
-5.531	30.072	1246.973	1041.098
-4.517	30.149	1245.782	1040.493
-3.502	30.129	1245.546	1040.143
-2.487	30.145	1244.526	1039.343
-1.473	30.029	1239.809	1034.716
-0.458	28.267	1224.508	1012.171
0.556	25.018	1206.413	971.129
1.571	20.711	1210.842	951.125
2.586	19.737	1224.373	956.283
3.600	19.105	1212.658	943.587
4.615	14.471	1142.068	864.602
5.629	6.926	1070.177	773.316
6.644	3.674	1051.645	744.206
7.659	3.348	1049.923	741.353
8.673	3.371	1048.287	740.239
9.688	3.507	1046.602	739.639
10.702	3.609	1044.749	738.752
11.717	7.699	1050.588	762.466
12.731	15.507	1061.159	807.764
13.746	20.011	1066.369	833.383
14.761	20.310	1066.475	834.830
15.775	19.471	1064.945	829.528
16.790	18.385	1063.009	822.733
17.804	17.667	1061.385	817.956
18.819	17.455	1060.416	816.123
19.834	17.334	1059.374	814.668
20.848	17.186	1058.479	813.200
21.863	17.002	1057.913	811.812
22.877	16.770	1057.596	810.390
23.892	16.934	1056.432	810.206
24.907	16.781	1056.310	809.312
25.921	16.807	1054.587	808.043
26.936	16.720	1053.490	806.719
27.950	16.866	1052.321	806.444
28.965	16.891	1050.705	805.256
29.980	16.994	1049.423	804.688
30.994	17.153	1048.419	804.599
32.009	17.238	1047.405	804.155
33.023	17.099	1046.553	802.773
34.038	16.980	1045.708	801.490
35.053	16.967	1044.002	800.052
36.067	16.944	1043.509	799.496
37.082	16.969	1042.548	798.805
38.096	17.090	1042.169	799.015
39.111	17.254	1040.825	798.681
40.126	16.911	1040.059	796.416
41.140	16.714	1038.492	794.221
42.155	16.646	1037.188	792.835
43.169	16.518	1036.548	791.676
44.184	16.621	1035.211	791.067
45.199	16.705	1034.234	790.639
46.213	16.857	1033.272	790.544
47.228	16.979	1032.203	790.226
48.242	16.953	1031.405	789.421
49.257	17.051	1029.951	788.696
50.271	16.960	1029.182	787.615
51.286	17.036	1028.910	787.691
52.301	17.060	1027.635	786.755
53.315	16.874	1026.763	785.157
54.330	16.700	1026.140	783.808
55.344	16.784	1024.686	783.012
56.359	16.876	1023.829	782.716
57.374	16.755	1022.925	781.397
58.388	16.528	1022.727	780.126
59.403	16.577	1021.243	779.154
60.417	16.520	1020.922	778.577
61.432	16.435	1019.898	777.334
62.447	16.433	1018.578	776.253
63.461	16.360	1018.215	775.569
64.476	16.364	1017.314	774.833
65.490	16.318	1016.183	773.693
66.505	16.487	1015.174	773.629
67.520	16.576	1014.775	773.665
68.534	16.554	1014.280	773.118
69.549	16.559	1013.401	772.401
70.563	16.434	1012.555	771.120
71.578	16.389	1011.821	770.288
72.593	16.192	1011.727	769.250
73.607	16.271	1010.437	768.560
74.622	16.391	1010.119	768.799
75.636	16.370	1009.435	768.112
76.651	16.272	1009.013	767.280
77.666	16.399	1007.992	767.011
78.680	16.453	1007.090	766.499
79.695	16.402	1006.622	765.846
80.709	16.590	1006.233	766.334
81.724	16.580	1005.825	765.913
82.739	16.704	1005.281	765.990
83.753	16.866	1004.398	765.982
84.768	17.034	1003.857	766.258
85.782	17.167	1002.993	766.131
86.797	17.110	1002.089	765.118
87.812	16.993	1000.707	763.468
88.826	16.966	999.809	762.591
89.841	16.989	999.410	762.326
90.855	17.174	997.920	761.952
91.870	17.207	997.225	761.499
92.884	17.253	996.079	760.763
93.899	17.139	995.611	759.829
94.914	17.351	994.743	760.048
95.928	17.152	994.115	758.612
96.943	17.171	992.709	757.554
97.957	17.043	992.573	756.813
98.972	17.128	991.518	756.321
99.987	17.035	990.762	755.265
101.001	17.007	989.778	754.324
102.016	16.974	988.969	753.492
103.030	17.186	987.726	753.418
104.045	17.011	987.294	752.248
105.060	16.769	986.669	750.632
106.074	16.830	985.443	749.905
107.089	16.674	984.018	748.062
108.103	16.672	982.879	747.120
109.118	16.543	982.326	746.066
110.133	16.565	981.126	745.188
111.147	16.502	980.772	744.574
112.162	16.600	979.744	744.158
113.176	16.686	979.462	744.255
114.191	16.674	978.295	743.253
115.206	16.779	977.491	743.035
116.220	16.670	976.839	741.995
117.235	16.571	975.737	740.661
118.249	16.592	974.629	739.845
119.264	16.511	974.191	739.095
120.279	16.547	973.566	738.711
121.293	16.459	972.607	737.535
122.308	16.448	971.710	736.741
123.322	16.401	970.463	735.524
124.337	16.382	969.302	734.497
125.352	16.342	968.401	733.578
126.366	16.404	967.100	732.794
127.381	16.486	966.099	732.328
128.395	16.371	965.752	731.502
129.410	16.571	964.305	731.205
130.424	16.503	964.041	730.649
131.439	16.569	963.533	730.481
132.454	16.664	962.695	730.192
133.468	16.667	961.887	729.526
134.483	16.747	960.669	728.881
135.497	16.648	960.142	727.994
136.512	16.718	959.001	727.365
137.527	16.735	958.590	727.059
138.541	16.746	957.823	726.462
139.556	16.748	957.151	725.897
140.570	16.835	957.112	726.175
141.585	17.135	955.414	726.105
142.600	17.094	955.088	725.619
143.614	17.106	954.486	725.150
144.629	17.251	953.574	725.010
145.643	17.057	952.934	723.634
146.658	17.023	951.438	722.288
147.673	16.804	950.913	720.894
148.687	16.742	949.880	719.781
149.702	16.815	948.881	719.273
150.716	16.791	947.990	718.430
151.731	16.763	947.540	717.906
152.746	16.824	946.674	717.446
153.760	16.820	946.077	716.914
154.775	17.119	945.294	717.520
155.789	16.933	945.194	716.594
156.804	16.976	943.978	715.794
157.819	17.154	943.737	716.297
158.833	17.321	943.198	716.528
159.848	17.247	942.378	715.530
160.862	17.236	940.959	714.345
161.877	16.894	939.927	712.058
162.892	16.852	938.661	710.864
163.906	16.684	938.069	709.648
164.921	16.696	937.414	709.140
165.935	16.883	936.375	709.074
166.950	17.029	935.801	709.185
167.964	17.036	934.802	708.396
168.979	16.796	934.003	706.726
169.994	16.956	933.107	706.653
171.008	16.939	932.454	706.024
172.023	17.039	931.969	706.010
173.037	17.216	931.287	706.167
174.052	17.129	930.362	705.040
175.067	16.973	929.539	703.710
176.081	16.841	929.025	702.710
177.096	16.813	928.729	702.309
178.110	16.898	927.797	701.892
179.125	17.058	927.284	702.105
180.140	16.910	927.000	701.214
181.154	17.095	926.667	701.665
182.169	17.190	926.135	701.595
183.183	17.177	925.603	701.074
184.198	17.307	924.615	700.800
185.213	17.176	923.867	699.630
186.227	17.384	923.060	699.815
187.242	17.386	922.665	699.461
188.256	17.444	922.296	699.359
189.271	17.564	921.072	698.863
190.286	17.116	920.031	696.171
191.300	16.732	919.490	694.127
192.315	16.730	918.950	693.650
193.329	16.802	918.533	693.570
194.344	16.934	917.685	693.408
195.359	17.187	916.941	693.816
196.373	17.137	916.693	693.363
197.388	17.370	916.162	693.852
198.402	17.565	915.784	694.300
199.417	17.598	915.258	693.971
200.432	17.725	914.783	694.069
201.446	17.791	914.588	694.125
202.461	17.807	913.992	693.677
203.475	17.754	913.305	692.879
204.490	17.508	912.383	691.120
205.504	17.465	911.572	690.271
206.519	17.374	910.870	689.310
207.534	17.524	909.838	689.077
208.548	17.432	909.405	688.316
209.563	17.416	908.742	687.688
210.577	17.483	908.447	687.672
211.592	17.716	907.513	687.846
212.607	17.694	906.866	687.207
213.621	17.720	906.017	686.608
214.636	17.705	905.582	686.155
215.650	17.661	904.683	685.239
216.665	17.772	904.174	685.238
217.680	17.961	903.233	685.220
218.694	17.827	902.920	684.386
219.709	17.889	902.157	683.997
220.723	17.760	901.251	682.731
221.738	17.679	900.837	682.033
222.753	17.727	900.309	681.766
223.767	17.901	899.789	682.005
224.782	18.045	899.036	681.950
225.796	18.087	898.738	681.831
226.811	18.022	897.867	680.852
227.826	17.828	897.020	679.375
228.840	17.660	896.357	678.147
229.855	17.829	895.561	678.155
230.869	17.800	894.798	677.403
231.884	17.635	894.523	676.479
232.899	17.482	893.775	675.248
233.913	17.533	892.850	674.688
234.928	17.736	892.169	674.921
235.942	17.418	891.929	673.421
236.957	17.591	890.863	673.240
237.972	17.658	890.472	673.148
238.986	17.482	889.963	672.008
240.001	17.600	889.202	671.842
241.015	17.802	888.668	672.173
242.030	17.695	888.445	671.524
243.045	17.743	887.878	671.226
244.059	17.739	887.573	670.919
245.074	17.876	886.383	670.500
246.088	17.911	885.825	670.154
247.103	18.004	885.286	670.054
248.117	18.222	884.693	670.398
249.132	18.398	884.599	670.959
250.147	18.426	884.008	670.561
251.161	18.429	883.443	670.082
252.176	18.477	882.711	669.657
253.190	18.534	882.133	669.381
254.205	18.649	881.283	669.126
255.220	18.701	880.420	668.613
256.234	18.653	880.157	668.168
257.249	18.650	878.969	667.195
258.263	18.534	878.511	666.339
259.278	18.545	877.993	665.929
260.293	18.805	877.297	666.349
261.307	18.656	877.009	665.493
262.322	18.835	876.046	665.398
263.336	18.868	875.753	665.245
264.351	18.796	875.335	664.588
265.366	18.614	874.745	663.380
266.380	18.806	873.610	663.203
267.395	18.705	873.061	662.336
268.409	18.695	872.106	661.516
269.424	18.648	871.462	660.788
270.439	18.590	870.737	659.955
271.453	18.653	870.003	659.585
272.468	18.529	869.434	658.616
273.482	18.527	868.846	658.106
274.497	18.683	868.051	658.045
275.512	18.505	868.075	657.323
276.526	18.626	867.682	657.428
277.541	18.589	866.936	656.664
278.555	18.835	866.221	657.005
279.570	18.870	866.226	657.085
280.585	18.845	865.422	656.321
281.599	18.843	863.734	654.975
282.614	18.800	863.517	654.589
283.628	18.723	863.048	653.884
284.643	18.682	862.543	653.287
285.657	18.688	862.196	652.987
286.672	18.793	861.204	652.576
287.687	18.589	861.261	651.787
288.701	18.607	860.420	651.161
289.716	18.697	859.972	651.106
290.730	18.869	859.369	651.244
291.745	18.934	858.376	650.680
292.760	18.897	858.072	650.252
293.774	18.956	857.954	650.330
294.789	18.924	856.722	649.215
295.803	18.757	856.019	647.997
296.818	18.737	855.442	647.427
297.833	18.796	854.975	647.239
298.847	18.790	854.549	646.836
299.862	18.853	853.982	646.585
300.876	19.022	853.274	646.630
301.891	19.030	852.851	646.283
302.906	19.136	852.430	646.304
303.920	19.373	851.538	646.457
304.935	19.409	851.231	646.300
305.949	19.318	850.486	645.339
306.964	19.330	849.770	644.785
307.979	19.126	849.622	643.851
308.993	19.183	849.306	643.768
310.008	19.175	848.774	643.276
311.022	19.189	848.236	642.865
312.037	18.977	847.310	641.315
313.052	18.854	846.675	640.322
314.066	18.826	846.257	639.841
315.081	18.884	845.528	639.452
316.095	18.943	844.701	638.987
317.110	18.962	843.843	638.354
318.125	18.846	843.673	637.736
319.139	18.940	843.146	637.633
320.154	19.052	842.806	637.733
321.168	19.085	842.038	637.218
322.183	19.135	841.523	636.957
323.197	19.107	841.194	636.546
324.212	19.154	840.290	635.980
325.227	19.178	839.976	635.776
326.241	18.930	839.876	634.727
327.256	19.109	839.004	634.674
328.270	19.142	838.501	634.360
329.285	18.929	838.003	633.140
330.300	19.084	837.340	633.154
331.314	19.143	836.689	632.823
332.329	19.207	836.582	632.921
333.343	19.229	836.252	632.697
334.358	19.287	835.826	632.532
335.373	19.355	835.259	632.296
336.387	19.394	834.681	631.943
337.402	19.479	834.512	632.073
338.416	19.539	834.317	632.087
339.431	19.478	834.523	631.964
340.446	19.744	833.726	632.279
341.460	19.725	833.469	631.957
342.475	19.671	833.010	631.355
343.489	19.764	832.530	631.277
344.504	19.757	832.227	630.966
345.519	19.934	831.514	631.014
346.533	19.766	831.010	629.963
347.548	19.640	830.404	628.990
348.562	19.645	829.373	628.172
349.577	19.423	828.955	626.993
350.592	19.449	828.273	626.516
351.606	19.426	827.506	625.795
352.621	19.470	826.760	625.337
353.635	19.560	826.490	625.403
354.650	19.441	825.838	624.423
355.665	19.640	825.409	624.763
356.679	19.744	824.478	624.379
357.694	19.551	824.158	623.387
358.708	19.715	823.331	623.297
359.723	19.614	823.122	622.718
360.738	19.633	822.485	622.251
361.752	19.724	821.959	622.124
362.767	19.811	821.427	621.980
363.781	19.944	821.006	622.085
364.796	20.060	820.424	622.004
365.810	20.236	820.270	622.464
366.825	20.242	819.634	621.949
367.840	20.075	819.324	621.059
368.854	20.108	818.717	620.661
369.869	20.099	818.123	620.127
370.883	19.918	818.134	619.430
371.898	20.116	817.847	619.868
372.913	20.148	817.466	619.637
373.927	20.186	816.485	618.975
374.942	20.025	815.970	617.956
375.956	20.275	815.498	618.435
376.971	20.272	815.592	618.441
377.986	20.258	815.260	618.082
379.000	20.434	814.573	618.134
380.015	20.263	813.896	616.958
381.029	20.430	813.377	617.104
382.044	20.320	812.535	616.022
383.059	20.403	812.133	615.956
384.073	20.352	811.595	615.311
385.088	20.158	810.627	613.835
386.102	19.924	810.507	612.863
387.117	20.177	809.691	613.086
388.132	20.141	809.274	612.590
389.146	20.174	808.761	612.264
390.161	20.315	808.354	612.399
391.175	20.328	807.791	611.963
392.190	20.266	806.943	611.049
393.205	20.277	806.631	610.795
394.219	19.944	806.806	609.704
395.234	20.135	805.774	609.541
396.248	19.994	805.361	608.678
397.263	19.893	804.992	607.992
398.278	19.882	804.520	607.542
399.292	20.052	803.672	607.444
400.307	19.886	803.540	606.708
401.321	19.964	803.070	606.573
402.336	20.027	802.751	606.498
403.350	20.383	802.166	607.250
404.365	20.458	801.687	607.094
405.380	20.365	801.832	606.824
406.394	20.528	800.857	606.603
407.409	20.688	800.597	606.911
408.423	20.453	800.749	606.151
409.438	20.673	800.287	606.516
410.453	20.812	799.413	606.284
411.467	20.861	798.837	605.962
412.482	20.785	798.931	605.718
413.496	20.877	798.820	605.901
414.511	20.775	798.215	605.033
415.526	20.733	797.638	604.396
416.540	20.973	796.747	604.498
417.555	20.917	796.479	604.048
418.569	20.712	796.346	603.183
419.584	20.803	795.811	603.039
420.599	20.761	795.178	602.362
421.613	162.172	1371.150	1797.319
422.628	140.670	1455.050	1797.451
