DTS Sentinel unit serial number:	SN413079Multiplexer serial number:	ORYXHardware model number:	OX4-SRSoftware version number:	ORYX F/W v4.00 Oryx Data Collector v3.7.2.0data status	okinstallation	princeton_trtdifferential loss correction	single-endedforward channel	channel 1reverse channel	N/Adate	2019/09/17time	17:18:35forward acquisition time	60.00reverse acquisition time	0.00gamma	496.2192k internal	0.2292k external	0.2292temperature offset calibration	0.9954default loss term (dB/km)	0.3790temperature slope calibration	1.0000multiplexer offset coefficient	1.0000multiplexer slope coefficient	1.0000fibre end	0.00T internal ref (°C)	42.94T ext. ref 1 (°C)	0.34T ext. ref 2 (°C)	38.87length (m)	temperature (°C)	Stokes	anti-Stokes-747.200	800.000	0.044	0.157
-746.185	-160.386	-0.237	-0.013
-745.171	-135.589	-0.129	0.016
-744.156	633.137	0.061	0.159
-743.142	-200.000	0.056	-0.294
-742.127	103.093	0.100	0.120
-741.112	169.219	0.136	0.199
-740.098	384.967	-0.042	0.088
-739.083	120.359	-0.102	0.130
-738.069	-200.000	0.006	0.437
-737.054	201.422	0.126	0.198
-736.039	25.368	0.093	0.079
-735.025	132.636	0.162	-0.213
-734.010	16.629	-0.349	-0.282
-732.996	-84.294	-0.155	0.050
-731.981	-102.906	-0.274	0.067
-730.966	15.750	0.035	-0.028
-729.952	-200.000	-0.000	-0.259
-728.937	308.243	-0.165	-0.316
-727.923	-200.000	-0.017	-0.217
-726.908	-200.000	-0.000	0.124
-725.894	320.241	0.106	0.205
-724.879	-71.827	-0.135	0.052
-723.864	-200.000	0.036	-0.368
-722.850	800.000	-0.100	-0.338
-721.835	18.454	-0.233	-0.191
-720.821	-200.000	0.030	0.211
-719.806	305.099	-0.152	-0.288
-718.791	-25.670	-0.046	0.028
-717.777	-119.837	-0.211	0.037
-716.762	31.854	-0.027	-0.024
-715.748	415.666	-0.068	-0.148
-714.733	800.000	-0.066	0.224
-713.718	-18.905	-0.143	-0.091
-712.704	381.937	-0.038	0.081
-711.689	400.358	0.109	-0.233
-710.675	35.937	-0.208	0.187
-709.660	-115.775	-0.069	0.013
-708.645	788.125	0.137	0.384
-707.631	-30.102	-0.305	0.177
-706.616	124.926	-0.185	0.238
-705.602	653.546	0.102	0.267
-704.587	-200.000	-0.043	-0.191
-703.572	407.910	-0.075	0.163
-702.558	99.195	-0.070	-0.082
-701.543	800.000	-0.092	0.345
-700.529	-141.430	0.055	-0.006
-699.514	800.000	0.093	0.308
-698.499	45.148	-0.028	-0.026
-697.485	186.343	0.126	-0.191
-696.470	-200.000	-0.059	0.278
-695.456	800.000	-0.053	-0.167
-694.441	37.634	0.196	0.177
-693.426	184.468	-0.026	0.039
-692.412	800.000	0.058	0.203
-691.397	-125.924	-0.165	-0.025
-690.383	-200.000	-0.006	0.206
-689.368	-200.000	0.029	0.202
-688.354	19.680	0.095	-0.078
-687.339	53.649	-0.056	-0.055
-686.324	-200.000	0.065	0.294
-685.310	-49.508	0.085	0.041
-684.295	623.963	-0.095	0.243
-683.281	-200.000	0.004	-0.033
-682.266	-128.487	0.199	-0.029
-681.251	-49.092	-0.165	-0.081
-680.237	800.000	-0.039	-0.118
-679.222	75.102	-0.021	0.023
-678.208	-200.000	0.022	-0.205
-677.193	224.937	0.107	-0.177
-676.178	-33.025	0.142	-0.081
-675.164	-59.519	-0.178	0.078
-674.149	-200.000	0.060	0.386
-673.135	-111.741	-0.123	-0.025
-672.120	-26.756	-0.160	0.096
-671.105	-176.680	-0.382	0.010
-670.091	800.000	-0.027	-0.093
-669.076	-123.211	-0.240	0.039
-668.062	-200.000	-0.008	0.046
-667.047	-139.630	-0.181	-0.020
-666.032	-113.848	0.384	0.076
-665.018	200.759	0.152	0.238
-664.003	69.094	0.088	0.093
-662.989	-200.000	-0.006	-0.145
-661.974	34.189	0.210	-0.187
-660.959	252.266	-0.155	-0.270
-659.945	-200.000	0.049	-0.333
-658.930	145.126	-0.049	-0.068
-657.916	-77.163	-0.060	-0.021
-656.901	60.016	0.095	-0.096
-655.886	15.428	0.017	-0.014
-654.872	-58.589	-0.162	0.072
-653.857	-77.147	-0.192	0.068
-652.843	-54.466	-0.068	0.032
-651.828	-112.453	0.096	-0.020
-650.814	-200.000	-0.405	0.001
-649.799	50.686	-0.191	0.185
-648.784	92.957	0.057	-0.065
-647.770	800.000	-0.028	0.121
-646.755	-36.356	0.247	-0.136
-645.741	31.663	0.027	0.023
-644.726	179.961	-0.069	0.103
-643.711	-92.921	0.152	-0.043
-642.697	91.841	-0.029	-0.033
-641.682	-200.000	-0.004	0.046
-640.668	-47.767	-0.324	0.160
-639.653	62.727	-0.424	0.432
-638.638	135.023	0.127	0.168
-637.624	-183.344	0.306	0.005
-636.609	-138.889	0.323	0.036
-635.595	35.784	0.103	-0.092
-634.580	-43.053	0.171	0.089
-633.565	-200.000	0.007	0.102
-632.551	-200.000	0.001	0.094
-631.536	800.000	-0.107	0.418
-630.522	-72.693	-0.144	-0.054
-629.507	-150.935	0.163	-0.013
-628.492	-76.043	0.323	0.116
-627.478	165.932	-0.111	-0.159
-626.463	113.678	-0.056	0.069
-625.449	-25.646	-0.244	-0.147
-624.434	-200.000	-0.039	-0.532
-623.419	298.970	0.109	-0.205
-622.405	168.356	0.129	0.187
-621.390	-153.094	-0.236	0.017
-620.376	-200.000	0.067	0.361
-619.361	287.099	0.136	-0.250
-618.346	-97.849	-0.300	0.079
-617.332	-200.000	0.077	-0.393
-616.317	226.600	0.079	-0.130
-615.303	-200.000	0.030	0.184
-614.288	-109.595	-0.106	-0.023
-613.273	-64.270	-0.247	0.102
-612.259	800.000	0.112	-0.460
-611.244	-200.000	-0.077	0.371
-610.230	123.258	0.138	-0.177
-609.215	-200.000	0.017	0.257
-608.201	485.008	-0.070	-0.163
-607.186	4.265	-0.309	-0.230
-606.171	419.438	-0.102	0.222
-605.157	-5.463	0.066	0.046
-604.142	12.626	-0.128	-0.101
-603.128	-200.000	0.046	-0.374
-602.113	-18.116	0.060	0.038
-601.098	-138.464	-0.347	-0.039
-600.084	-49.947	0.174	0.084
-599.069	-200.000	-0.003	-0.231
-598.055	-200.000	-0.033	0.207
-597.040	-200.000	0.010	0.174
-596.025	537.564	-0.098	-0.237
-595.011	4.934	-0.145	0.109
-593.996	-200.000	-0.040	0.269
-592.982	-71.245	-0.150	-0.057
-591.967	-200.000	-0.021	-0.193
-590.952	-59.154	0.130	-0.057
-589.938	74.414	0.140	0.150
-588.923	-14.692	0.306	-0.200
-587.909	800.000	0.079	-0.258
-586.894	1.434	-0.335	-0.245
-585.879	53.294	-0.138	-0.134
-584.865	52.125	0.266	0.258
-583.850	-130.716	0.255	-0.035
-582.836	800.000	0.082	0.254
-581.821	-200.000	0.008	-0.184
-580.806	800.000	-0.095	-0.364
-579.792	37.160	-0.062	-0.056
-578.777	-118.639	0.197	-0.035
-577.763	292.861	0.124	-0.230
-576.748	-200.000	0.059	-0.304
-575.733	-4.666	0.107	0.075
-574.719	-12.759	0.207	-0.137
-573.704	-28.489	-0.216	-0.126
-572.690	-107.295	-0.367	-0.082
-571.675	317.875	0.073	0.140
-570.661	-89.506	-0.242	-0.072
-569.646	-200.000	-0.031	-0.309
-568.631	276.715	0.080	-0.145
-567.617	407.941	-0.091	-0.195
-566.602	-200.000	0.037	0.203
-565.588	306.705	-0.094	0.179
-564.573	149.030	-0.241	-0.331
-563.558	242.835	0.125	0.213
-562.544	345.874	0.235	-0.469
-561.529	282.883	-0.092	0.168
-560.515	-32.594	-0.204	0.115
-559.500	73.794	-0.095	-0.101
-558.485	-200.000	-0.036	0.288
-557.471	-67.402	-0.155	0.062
-556.456	127.022	0.167	-0.216
-555.442	28.323	0.101	0.087
-554.427	-200.000	-0.008	0.064
-553.412	-200.000	-0.060	-0.290
-552.398	-180.445	0.270	-0.006
-551.383	-166.623	-0.222	0.009
-550.369	648.622	-0.110	-0.287
-549.354	-142.642	0.242	0.024
-548.339	800.000	0.042	0.184
-547.325	12.889	-0.050	-0.039
-546.310	222.227	0.084	-0.137
-545.296	54.839	-0.393	-0.385
-544.281	559.628	-0.159	-0.389
-543.266	-200.000	-0.049	0.357
-542.252	-200.000	-0.005	-0.144
-541.237	-144.492	-0.063	-0.006
-540.223	-200.000	-0.018	-0.236
-539.208	-147.806	0.306	-0.026
-538.193	-200.000	0.002	-0.036
-537.179	800.000	-0.048	0.165
-536.164	-109.220	0.176	-0.038
-535.150	800.000	-0.104	0.306
-534.135	-170.498	0.283	-0.010
-533.121	-95.546	-0.368	-0.100
-532.106	-24.131	-0.045	-0.027
-531.091	-130.093	0.071	0.010
-530.077	-142.745	-0.172	0.017
-529.062	-64.948	0.138	0.057
-528.048	-122.685	0.102	-0.017
-527.033	-137.714	-0.517	-0.059
-526.018	-10.245	0.013	0.009
-525.004	-200.000	-0.052	0.246
-523.989	800.000	-0.058	-0.180
-522.975	-200.000	0.000	0.026
-521.960	79.461	0.215	-0.234
-520.945	33.883	0.100	-0.089
-519.931	800.000	-0.074	-0.220
-518.916	27.014	0.125	-0.106
-517.902	60.861	0.241	0.243
-516.887	19.104	-0.100	0.081
-515.872	141.258	-0.091	0.122
-514.858	-17.324	-0.141	0.090
-513.843	-96.508	0.204	0.055
-512.829	59.079	-0.107	-0.107
-511.814	800.000	-0.084	-0.275
-510.799	-58.378	-0.462	0.204
-509.785	-145.022	0.261	-0.024
-508.770	-71.759	0.275	0.104
-507.756	-136.211	-0.258	0.031
-506.741	-52.644	0.059	0.028
-505.726	-25.617	-0.206	-0.123
-504.712	189.161	-0.062	0.094
-503.697	-71.128	0.237	0.090
-502.683	-118.499	-0.208	0.037
-501.668	55.154	-0.264	0.259
-500.653	-200.000	0.034	0.336
-499.639	-155.020	0.130	-0.009
-498.624	296.087	0.024	0.045
-497.610	800.000	0.051	-0.213
-496.595	-200.000	0.066	-0.466
-495.581	11.512	-0.246	0.191
-494.566	-200.000	-0.007	-0.091
-493.551	-178.777	0.094	0.002
-492.537	279.699	-0.111	0.201
-491.522	-184.574	0.323	0.005
-490.508	-200.000	-0.041	0.355
-489.493	-100.970	-0.054	0.013
-488.478	617.687	-0.101	-0.257
-487.464	-28.311	-0.242	0.141
-486.449	800.000	-0.179	-0.549
-485.435	22.115	0.069	-0.057
-484.420	-200.000	-0.095	-0.439
-483.405	47.414	0.138	0.130
-482.391	41.376	-0.229	0.210
-481.376	-150.696	-0.305	-0.024
-480.362	585.539	0.057	0.142
-479.347	-102.443	0.106	-0.026
-478.332	-83.674	-0.255	-0.083
-477.318	-200.000	-0.001	-0.323
-476.303	263.038	-0.133	0.234
-475.289	-54.690	0.071	0.032
-474.274	491.285	0.130	0.301
-473.259	89.277	-0.082	0.093
-472.245	104.963	0.120	-0.143
-471.230	-157.256	-0.048	0.003
-470.216	-92.738	0.383	-0.109
-469.201	-59.695	0.306	0.133
-468.186	68.912	0.271	-0.282
-467.172	-10.255	-0.154	0.103
-466.157	-18.408	-0.233	0.147
-465.143	41.058	0.077	-0.070
-464.128	-40.296	0.131	-0.069
-463.113	-200.000	-0.012	0.142
-462.099	11.378	-0.080	-0.062
-461.084	159.074	0.086	-0.122
-460.070	54.297	0.050	0.048
-459.055	-34.774	0.094	-0.052
-458.040	-84.386	-0.203	0.065
-457.026	124.598	0.105	0.133
-456.011	-198.692	0.163	0.001
-454.997	122.462	-0.195	0.247
-453.982	-101.583	-0.148	0.036
-452.968	-162.215	-0.157	-0.008
-451.953	0.527	0.091	0.066
-450.938	622.098	-0.123	-0.313
-449.924	23.989	-0.202	0.169
-448.909	90.641	-0.152	-0.172
-447.895	29.846	-0.134	0.116
-446.880	-98.900	0.334	-0.086
-445.865	800.000	0.067	0.237
-444.851	-200.000	0.042	0.223
-443.836	105.185	0.087	0.104
-442.822	78.477	0.144	0.155
-441.807	-200.000	0.012	-0.169
-440.792	-58.921	0.064	-0.028
-439.778	218.939	-0.041	0.067
-438.763	800.000	0.090	0.399
-437.749	-1.579	-0.280	-0.200
-436.734	15.435	0.114	-0.090
-435.719	128.604	-0.103	-0.133
-434.705	233.026	0.136	-0.226
-433.690	-158.277	0.126	0.007
-432.676	66.257	0.187	-0.192
-431.661	187.918	0.067	0.101
-430.646	89.008	0.108	0.121
-429.632	-36.686	-0.150	0.081
-428.617	-17.689	0.089	0.057
-427.603	-154.872	0.199	0.013
-426.588	-84.647	-0.122	0.039
-425.573	-3.223	-0.056	-0.039
-424.559	-200.000	-0.028	-0.276
-423.544	130.591	0.093	0.120
-422.530	-1.315	-0.115	0.082
-421.515	104.520	0.138	-0.165
-420.500	-29.454	0.143	-0.083
-419.486	-8.878	-0.299	-0.203
-418.471	25.437	-0.070	0.059
-417.457	800.000	0.071	0.223
-416.442	-148.701	0.209	-0.017
-415.428	800.000	-0.040	-0.116
-414.413	312.220	0.107	-0.204
-413.398	218.130	-0.247	-0.398
-412.384	-200.000	0.073	0.340
-411.369	206.844	-0.190	-0.299
-410.355	80.238	-0.196	-0.213
-409.340	-4.984	-0.102	-0.071
-408.325	-200.000	0.011	-0.058
-407.311	-200.000	0.009	0.048
-406.296	-52.692	0.146	-0.068
-405.282	-52.435	-0.038	0.018
-404.267	-200.000	0.016	0.224
-403.252	20.501	0.251	-0.205
-402.238	-9.697	-0.251	-0.169
-401.223	642.937	0.060	-0.154
-400.209	51.671	-0.134	0.129
-399.194	-183.890	0.469	-0.008
-398.179	-200.000	-0.048	0.229
-397.165	-200.000	0.008	0.184
-396.150	418.432	0.068	-0.146
-395.136	93.058	-0.042	0.048
-394.121	83.051	-0.074	-0.081
-393.106	110.093	-0.225	0.273
-392.092	-82.309	0.323	0.106
-391.077	237.445	-0.259	0.434
-390.063	-108.150	-0.168	0.037
-389.048	-200.000	0.025	0.228
-388.033	-19.162	-0.159	0.100
-387.019	-200.000	-0.018	-0.197
-386.004	-90.882	-0.077	-0.022
-384.990	-21.229	-0.325	-0.200
-383.975	86.582	-0.126	-0.140
-382.960	12.155	0.166	-0.129
-381.946	-107.438	-0.437	0.097
-380.931	246.046	0.282	-0.480
-379.917	210.464	0.092	0.145
-378.902	10.984	0.201	0.155
-377.888	50.565	-0.095	-0.090
-376.873	658.305	0.080	-0.209
-375.858	-108.176	0.326	0.071
-374.844	-135.224	0.049	-0.006
-373.829	800.000	0.039	0.131
-372.815	800.000	-0.063	-0.216
-371.800	-181.837	-0.398	0.008
-370.785	563.836	0.093	0.227
-369.771	-116.127	-0.141	-0.026
-368.756	-200.000	-0.169	0.000
-367.742	326.577	-0.080	-0.154
-366.727	800.000	0.017	-0.055
-365.712	151.587	-0.152	0.209
-364.698	-200.000	0.038	0.213
-363.683	-200.000	0.020	0.116
-362.669	-200.000	-0.013	-0.164
-361.654	-152.131	-0.046	0.003
-360.639	645.168	0.080	-0.205
-359.625	99.109	0.156	0.182
-358.610	-20.510	-0.093	0.057
-357.596	146.733	-0.012	0.017
-356.581	53.104	-0.315	0.304
-355.566	-131.134	0.037	-0.005
-354.552	9.992	-0.156	-0.120
-353.537	-46.159	-0.456	0.226
-352.523	649.415	0.112	0.289
-351.508	-200.000	0.000	-0.057
-350.493	13.398	0.069	-0.054
-349.479	445.309	-0.067	-0.149
-348.464	-136.676	0.257	0.030
-347.450	44.264	0.108	0.100
-346.435	-46.573	0.333	0.164
-345.420	-47.559	0.293	-0.144
-344.406	86.473	0.113	-0.125
-343.391	-200.000	-0.005	-0.094
-342.377	450.517	0.011	-0.024
-341.362	-200.000	0.014	0.137
-340.348	412.920	-0.141	-0.302
-339.333	53.385	0.021	0.021
-338.318	635.119	0.109	-0.277
-337.304	78.659	-0.071	-0.077
-336.289	299.516	0.152	0.283
-335.275	106.915	-0.088	-0.105
-334.260	575.895	0.034	0.084
-333.245	331.038	-0.258	-0.502
-332.231	331.453	-0.201	0.390
-331.216	183.630	0.109	-0.163
-330.202	300.838	0.071	0.132
-329.187	-100.162	0.123	-0.031
-328.172	199.280	0.216	-0.333
-327.158	-200.000	0.057	-0.328
-326.143	22.701	0.151	-0.125
-325.129	34.017	-0.067	0.059
-324.114	-8.116	-0.110	-0.074
-323.099	-200.000	0.110	0.001
-322.085	-71.808	-0.201	-0.076
-321.070	-91.861	-0.079	-0.023
-320.056	7.850	-0.111	0.083
-319.041	800.000	0.042	0.124
-318.026	333.623	0.174	0.338
-317.012	21.872	-0.133	-0.109
-315.997	190.605	-0.163	-0.246
-314.983	-10.099	-0.130	0.087
-313.968	-200.000	0.047	-0.210
-312.953	626.528	0.065	0.166
-311.939	180.895	-0.179	0.264
-310.924	-176.163	-0.155	0.004
-309.910	-200.000	0.019	0.168
-308.895	99.379	-0.290	0.337
-307.880	-20.208	0.125	-0.077
-306.866	136.197	-0.262	-0.344
-305.851	-0.074	-0.245	-0.176
-304.837	800.000	0.082	0.236
-303.822	3.733	0.293	0.215
-302.807	-39.525	-0.195	0.103
-301.793	-83.913	0.295	-0.094
-300.778	433.245	-0.149	-0.325
-299.764	393.925	0.097	0.203
-298.749	144.601	-0.089	-0.119
-297.735	218.632	0.125	0.200
-296.720	3.648	-0.274	-0.201
-295.705	-126.282	-0.300	0.045
-294.691	534.336	0.047	-0.113
-293.676	-105.894	0.208	0.047
-292.662	-75.092	0.095	-0.034
-291.647	139.543	0.186	-0.246
-290.632	-97.008	-0.089	0.024
-289.618	-37.947	-0.183	-0.098
-288.603	35.727	-0.155	0.137
-287.589	-84.360	-0.093	-0.030
-286.574	-157.404	-0.105	0.006
-285.559	-179.362	0.262	0.006
-284.545	800.000	-0.053	-0.201
-283.530	40.982	0.064	0.058
-282.516	-96.709	-0.292	0.077
-281.501	-67.846	0.155	0.061
-280.486	-69.927	0.243	-0.093
-279.472	186.874	-0.039	0.059
-278.457	53.644	-0.080	-0.077
-277.443	-63.841	-0.284	-0.117
-276.428	16.171	0.250	-0.198
-275.413	-27.066	0.110	0.064
-274.399	650.131	0.157	0.405
-273.384	800.000	0.049	-0.182
-272.370	52.435	0.182	-0.174
-271.355	222.690	0.206	0.333
-270.340	451.400	-0.117	-0.259
-269.326	623.036	0.126	0.319
-268.311	-188.788	0.274	0.003
-267.297	3.259	0.290	-0.212
-266.282	-200.000	0.026	0.176
-265.267	-200.000	-0.024	-0.269
-264.253	192.691	0.152	0.230
-263.238	-100.118	0.188	-0.047
-262.224	-149.847	-0.257	-0.020
-261.209	-200.000	-0.006	-0.039
-260.195	182.547	0.183	0.271
-259.180	12.838	-0.169	0.131
-258.165	-200.000	-0.027	0.343
-257.151	-46.014	0.198	-0.098
-256.136	-50.021	-0.405	0.193
-255.122	171.010	-0.231	-0.332
-254.107	223.156	0.156	0.253
-253.092	-16.336	-0.255	0.162
-252.078	-115.031	0.222	0.042
-251.063	163.057	-0.201	0.283
-250.049	-141.620	0.368	-0.037
-249.034	-14.433	-0.031	0.020
-248.019	-63.606	0.136	-0.056
-247.005	477.413	0.105	-0.238
-245.990	284.925	-0.116	0.209
-244.976	-106.624	-0.115	0.026
-243.961	-130.909	0.385	0.052
-242.946	-120.690	0.208	0.035
-241.932	-2.549	-0.166	0.117
-240.917	-200.000	-0.030	-0.199
-239.903	-153.038	0.113	0.008
-238.888	-145.202	0.147	0.013
-237.873	458.042	0.025	-0.055
-236.859	196.658	-0.130	0.199
-235.844	-179.316	0.265	0.006
-234.830	-55.315	-0.299	0.135
-233.815	175.207	0.103	0.149
-232.800	800.000	-0.057	-0.159
-231.786	186.729	-0.160	-0.238
-230.771	-28.359	0.309	-0.179
-229.757	-200.000	-0.006	0.030
-228.742	173.200	0.137	-0.198
-227.727	549.041	0.052	0.125
-226.713	9.097	0.106	0.081
-225.698	-89.369	0.283	0.084
-224.684	-176.638	-0.114	-0.003
-223.669	-117.944	0.056	0.010
-222.655	800.000	-0.035	0.123
-221.640	800.000	-0.105	0.299
-220.625	-64.544	-0.089	0.036
-219.611	159.977	-0.206	0.288
-218.596	-9.656	-0.100	0.067
-217.582	-47.251	-0.254	-0.124
-216.567	-79.863	0.229	-0.077
-215.552	-200.000	0.002	0.187
-214.538	112.086	-0.038	-0.046
-213.523	-36.074	0.160	0.087
-212.509	-73.817	0.347	0.127
-211.494	-61.808	0.346	0.145
-210.479	28.473	-0.071	-0.060
-209.465	-78.911	-0.146	0.050
-208.450	-200.000	0.068	-0.314
-207.436	-200.000	-0.001	-0.304
-206.421	-1.882	-0.353	-0.249
-205.406	-13.607	-0.084	0.054
-204.392	800.000	0.066	0.183
-203.377	800.000	0.065	0.182
-202.363	331.076	-0.045	-0.086
-201.348	-78.212	-0.119	0.041
-200.333	176.412	0.116	0.169
-199.319	-6.438	0.105	0.072
-198.304	-20.272	0.017	-0.011
-197.290	341.005	-0.052	0.102
-196.275	49.396	0.356	-0.336
-195.260	-121.339	0.100	-0.017
-194.246	425.499	-0.156	0.337
-193.231	800.000	0.093	0.301
-192.217	-80.863	-0.233	0.077
-191.202	-100.120	-0.118	-0.029
-190.187	-200.000	-0.013	-0.167
-189.173	73.163	-0.183	0.192
-188.158	-200.000	0.049	-0.318
-187.144	14.059	0.101	0.079
-186.129	-59.303	0.072	-0.031
-185.114	-200.000	-0.045	-0.223
-184.100	800.000	0.102	0.384
-183.085	247.597	0.130	0.220
-182.071	179.407	0.221	-0.324
-181.056	-144.335	0.263	0.024
-180.042	316.504	-0.173	0.327
-179.027	68.370	-0.288	0.296
-178.012	149.369	-0.134	-0.181
-176.998	-101.878	-0.106	0.026
-175.983	4.102	-0.298	0.218
-174.969	-60.591	0.295	0.125
-173.954	105.557	0.034	-0.040
-172.939	-156.247	-0.311	0.020
-171.925	-79.935	-0.417	0.140
-170.910	-73.038	0.236	0.087
-169.896	585.783	0.065	0.160
-168.881	-200.000	-0.025	-0.473
-167.866	-200.000	0.010	-0.074
-166.852	-79.132	0.118	0.040
-165.837	-86.966	0.251	0.077
-164.823	39.315	0.234	0.209
-163.808	-153.577	0.296	-0.020
-162.793	-200.000	-0.035	-0.204
-161.779	-23.564	-0.221	0.132
-160.764	167.726	0.063	0.089
-159.750	-97.200	0.151	-0.039
-158.735	143.050	-0.144	-0.192
-157.720	-28.569	-0.120	0.069
-156.706	-200.000	0.024	-0.351
-155.691	-186.432	0.153	-0.002
-154.677	-34.040	0.240	-0.132
-153.662	-4.154	0.084	0.058
-152.647	118.420	0.170	0.210
-151.633	720.869	0.234	0.624
-150.618	295.789	-0.174	0.319
-149.604	-95.921	0.461	-0.123
-148.589	134.213	0.266	-0.345
-147.574	-84.774	-0.327	0.103
-146.560	-84.191	-0.108	0.034
-145.545	149.938	0.056	-0.076
-144.531	800.000	0.127	-0.392
-143.516	-182.435	0.401	-0.007
-142.502	-38.512	-0.177	0.094
-141.487	13.042	-0.232	0.180
-140.472	62.890	0.020	0.020
-139.458	-0.229	0.058	-0.041
-138.443	800.000	0.087	-0.290
-137.429	-146.640	-0.067	0.006
-136.414	20.357	0.045	-0.036
-135.399	-4.200	-0.100	-0.069
-134.385	-200.000	0.016	0.078
-133.370	436.320	-0.080	0.174
-132.356	-92.605	0.311	0.087
-131.341	372.214	-0.094	0.191
-130.326	800.000	0.037	-0.106
-129.312	472.486	0.039	-0.088
-128.297	-28.845	0.303	0.174
-127.283	-9.148	0.066	0.044
-126.268	-200.000	0.039	0.264
-125.253	105.099	0.174	-0.205
-124.239	-74.711	-0.082	-0.029
-123.224	88.927	-0.245	0.272
-122.210	231.586	-0.124	-0.203
-121.195	-60.522	-0.290	0.123
-120.180	-173.845	-0.408	-0.012
-119.166	-144.671	0.237	-0.022
-118.151	-41.710	0.306	0.157
-117.137	98.178	-0.144	-0.166
-116.122	-38.334	-0.122	-0.065
-115.107	-8.984	0.264	-0.176
-114.093	-36.765	0.137	0.073
-113.078	82.848	0.162	-0.175
-112.064	-66.356	-0.157	0.062
-111.049	302.163	0.055	-0.101
-110.034	-136.390	0.193	0.022
-109.020	-194.206	-0.441	0.004
-108.005	800.000	-0.070	-0.224
-106.991	-176.012	0.181	0.005
-105.976	177.670	0.111	-0.161
-104.962	558.810	0.073	-0.175
-103.947	-200.000	0.024	-0.342
-102.932	-195.174	-0.122	0.001
-101.918	13.849	0.137	-0.107
-100.903	21.206	0.121	-0.098
-99.889	-70.457	0.184	0.070
-98.874	-164.785	-0.185	-0.008
-97.859	-157.599	-0.079	0.005
-96.845	-200.000	0.009	0.104
-95.830	631.470	-0.081	-0.205
-94.816	-36.877	0.193	0.103
-93.801	800.000	-0.121	0.337
-92.786	204.900	0.128	-0.198
-91.772	275.042	-0.051	0.090
-90.757	-200.000	0.034	-0.218
-89.743	800.000	0.005	-0.016
-88.728	-22.369	-0.175	-0.106
-87.713	-99.859	0.265	0.066
-86.699	76.433	0.112	-0.118
-85.684	125.879	0.089	0.112
-84.670	-127.993	0.110	0.016
-83.655	47.087	0.049	0.046
-82.640	-106.985	0.533	-0.118
-81.626	-200.000	-0.042	-0.333
-80.611	-200.000	0.003	0.122
-79.597	-67.900	-0.055	0.021
-78.582	-39.300	0.383	-0.200
-77.567	365.661	-0.029	0.059
-76.553	800.000	-0.005	-0.015
-75.538	800.000	-0.050	-0.197
-74.524	56.374	0.132	0.128
-73.509	-59.868	-0.058	-0.025
-72.494	387.507	0.098	-0.202
-71.480	-200.000	-0.019	-0.358
-70.465	34.755	0.292	-0.254
-69.451	800.000	0.037	0.160
-68.436	135.364	0.228	-0.296
-67.422	-97.269	0.234	-0.061
-66.407	-28.877	-0.150	0.086
-65.392	309.263	0.010	0.019
-64.378	-200.000	0.027	-0.331
-63.363	13.042	-0.115	0.088
-62.349	-78.444	0.395	-0.135
-61.334	7.999	-0.839	-0.627
-60.319	20.553	0.187	0.151
-59.305	192.983	0.179	-0.270
-58.290	119.232	0.546	0.673
-57.276	630.891	0.580	1.461
-56.261	-200.000	73.734	554.136
-55.246	548.934	1324.700	3162.188
-54.232	136.837	2586.792	3366.044
-53.217	120.085	2260.332	2793.322
-52.203	55.905	1688.874	1631.699
-51.188	47.085	1404.482	1301.673
-50.173	43.313	1355.972	1233.670
-49.159	61.362	1389.149	1375.379
-48.144	69.900	1407.543	1445.951
-47.130	47.419	1370.818	1272.327
-46.115	43.104	1354.794	1231.123
-45.100	42.826	1350.290	1225.292
-44.086	42.777	1347.592	1222.498
-43.071	42.789	1344.995	1220.163
-42.057	42.688	1342.707	1217.430
-41.042	42.794	1341.083	1216.547
-40.027	42.786	1339.336	1214.867
-39.013	42.850	1337.756	1213.774
-37.998	42.951	1335.299	1212.105
-36.984	42.986	1333.504	1210.640
-35.969	42.981	1331.768	1208.980
-34.954	43.020	1330.115	1207.670
-33.940	42.943	1328.679	1205.854
-32.925	42.960	1327.743	1205.057
-31.911	43.021	1326.147	1203.928
-30.896	43.012	1324.457	1202.293
-29.881	42.994	1322.780	1200.614
-28.867	42.953	1321.573	1199.226
-27.852	43.119	1319.574	1198.353
-26.838	43.063	1318.432	1196.936
-25.823	43.054	1316.973	1195.513
-24.809	43.087	1315.319	1194.157
-23.794	42.987	1314.320	1192.609
-22.779	42.973	1313.005	1191.286
-21.765	43.021	1311.506	1190.165
-20.750	42.998	1310.103	1188.709
-19.736	42.931	1308.847	1187.127
-18.721	42.857	1307.892	1185.778
-17.706	42.830	1306.773	1184.556
-16.692	42.908	1305.388	1183.710
-15.677	42.844	1304.016	1182.045
-14.663	42.793	1303.336	1181.079
-13.648	42.885	1301.629	1180.025
-12.633	42.950	1300.674	1179.496
-11.619	42.932	1299.664	1178.428
-10.604	43.009	1298.660	1177.920
-9.590	42.860	1298.225	1176.610
-8.575	42.703	1297.350	1174.852
-7.560	42.862	1295.885	1174.405
-6.546	42.917	1295.283	1174.133
-5.531	42.859	1294.310	1172.869
-4.517	42.873	1293.537	1172.203
-3.502	42.788	1292.741	1170.941
-2.487	42.881	1291.445	1170.262
-1.473	43.066	1287.718	1167.907
-0.458	42.279	1273.471	1150.430
0.556	36.518	1253.373	1106.327
1.571	30.823	1254.001	1074.049
2.586	28.148	1266.417	1068.983
3.600	26.003	1254.496	1046.399
4.615	18.699	1176.033	940.981
5.629	6.872	1091.531	812.773
6.644	0.913	1066.800	764.267
7.659	0.221	1064.008	758.713
8.673	0.132	1063.056	757.523
9.688	0.097	1061.483	756.156
10.702	0.466	1060.190	757.022
11.717	5.998	1068.345	790.688
12.731	15.141	1080.213	845.764
13.746	18.114	1082.923	862.837
14.761	17.234	1081.304	857.033
15.775	16.214	1078.845	849.875
16.790	15.082	1077.211	842.819
17.804	14.375	1075.160	837.584
18.819	14.020	1073.748	834.627
19.834	13.638	1073.006	832.063
20.848	13.463	1072.094	830.400
21.863	13.233	1071.217	828.497
22.877	13.163	1070.473	827.499
23.892	13.017	1069.787	826.164
24.907	12.980	1069.332	825.552
25.921	12.942	1068.848	824.918
26.936	13.041	1067.596	824.369
27.950	13.126	1066.039	823.519
28.965	13.174	1065.412	823.204
29.980	13.293	1063.738	822.428
30.994	13.298	1062.844	821.688
32.009	13.229	1062.037	820.649
33.023	13.247	1060.962	819.834
34.038	13.289	1060.041	819.261
35.053	13.286	1058.798	818.210
36.067	13.205	1058.457	817.473
37.082	13.287	1057.193	816.829
38.096	13.258	1056.660	816.202
39.111	13.165	1056.103	815.241
40.126	13.285	1054.541	814.555
41.140	13.141	1053.446	812.928
42.155	13.022	1052.740	811.727
43.169	13.027	1051.068	810.393
44.184	13.050	1050.285	809.826
45.199	13.067	1049.509	809.242
46.213	12.985	1048.499	807.990
47.228	13.215	1047.077	807.947
48.242	13.152	1045.938	806.690
49.257	13.150	1045.782	806.485
50.271	13.147	1044.414	805.348
51.286	13.263	1043.537	805.162
52.301	13.182	1042.957	804.253
53.315	13.166	1041.482	802.963
54.330	13.128	1040.967	802.313
55.344	13.193	1039.922	801.750
56.359	13.121	1038.913	800.552
57.374	13.091	1038.374	799.923
58.388	13.151	1037.033	799.108
59.403	12.966	1036.594	797.805
60.417	13.028	1035.814	797.432
61.432	12.857	1035.655	796.415
62.447	12.972	1034.456	795.979
63.461	12.934	1033.182	794.744
64.476	12.844	1032.751	793.910
65.490	12.859	1031.724	793.118
66.505	13.000	1030.955	793.139
67.520	12.915	1030.699	792.461
68.534	13.101	1029.136	792.083
69.549	13.060	1028.787	791.547
70.563	13.073	1027.902	790.858
71.578	12.978	1026.873	789.541
72.593	12.960	1026.150	788.831
73.607	12.969	1025.704	788.458
74.622	12.802	1024.952	787.016
75.636	12.901	1024.483	787.057
76.651	12.973	1023.624	786.672
77.666	12.954	1023.149	786.145
78.680	12.989	1022.328	785.613
79.695	13.049	1021.507	785.199
80.709	12.953	1021.353	784.554
81.724	13.177	1020.241	784.693
82.739	13.127	1019.445	783.772
83.753	13.135	1018.759	783.215
84.768	13.228	1017.703	782.774
85.782	13.182	1017.164	782.074
86.797	13.288	1015.862	781.503
87.812	13.245	1014.930	780.517
88.826	13.174	1014.197	779.546
89.841	13.139	1013.419	778.717
90.855	13.155	1012.757	778.213
91.870	13.103	1012.316	777.562
92.884	13.242	1011.187	777.278
93.899	13.322	1009.980	776.659
94.914	13.224	1009.284	775.593
95.928	13.190	1008.570	774.817
96.943	13.221	1007.808	774.305
97.957	13.212	1006.822	773.439
98.972	13.340	1005.466	772.926
99.987	13.283	1005.122	772.329
101.001	13.397	1003.861	771.823
102.016	13.386	1002.864	770.939
103.030	13.240	1002.410	769.839
104.045	13.243	1001.655	769.205
105.060	13.231	1000.682	768.333
106.074	13.207	999.768	767.452
107.089	13.118	998.839	766.260
108.103	13.068	997.879	765.221
109.118	13.083	996.789	764.388
110.133	13.065	995.928	763.580
111.147	13.057	995.199	762.917
112.162	13.229	994.077	762.784
113.176	13.191	993.537	762.125
114.191	13.196	993.018	761.681
115.206	13.171	992.019	760.734
116.220	13.132	991.450	760.050
117.235	13.097	990.667	759.221
118.249	13.172	989.470	758.582
119.264	13.138	988.757	757.811
120.279	13.218	987.630	757.247
121.293	13.131	987.038	756.327
122.308	13.181	986.027	755.717
123.322	13.126	985.415	754.926
124.337	13.127	984.313	754.022
125.352	13.113	983.409	753.197
126.366	13.110	982.321	752.283
127.381	13.208	981.051	751.690
128.395	13.225	979.980	750.881
129.410	13.293	979.277	750.583
130.424	13.302	978.191	749.726
131.439	13.243	978.044	749.279
132.454	13.344	977.132	748.973
133.468	13.413	976.035	748.380
134.483	13.424	975.095	747.639
135.497	13.299	974.915	746.871
136.512	13.338	973.607	745.981
137.527	13.288	972.791	745.061
138.541	13.334	971.842	744.476
139.556	13.339	971.830	744.427
140.570	13.398	970.931	743.937
141.585	13.355	970.117	743.054
142.600	13.426	969.170	742.580
143.614	13.595	967.982	742.360
144.629	13.471	967.920	741.694
145.643	13.504	966.331	740.558
146.658	13.385	965.686	739.464
147.673	13.394	964.316	738.392
148.687	13.446	963.548	737.972
149.702	13.361	962.532	736.750
150.716	13.326	961.915	736.055
151.731	13.363	961.350	735.723
152.746	13.392	960.700	735.287
153.760	13.269	960.039	734.174
154.775	13.331	959.427	733.914
155.789	13.393	958.835	733.671
156.804	13.558	957.764	733.515
157.819	13.453	957.341	732.665
158.833	13.410	956.778	731.977
159.848	13.575	955.646	731.774
160.862	13.581	954.488	730.852
161.877	13.416	953.648	729.415
162.892	13.416	952.865	728.751
163.906	13.455	951.731	727.993
164.921	13.448	951.064	727.387
165.935	13.553	949.843	726.851
166.950	13.486	949.416	726.164
167.964	13.550	948.456	725.647
168.979	13.510	947.676	724.812
169.994	13.536	946.746	724.149
171.008	13.612	945.958	723.814
172.023	13.504	945.684	723.070
173.037	13.631	944.636	722.755
174.052	13.629	944.010	722.205
175.067	13.582	943.268	721.371
176.081	13.528	942.810	720.718
177.096	13.556	942.235	720.337
178.110	13.555	941.550	719.746
179.125	13.601	941.042	719.493
180.140	13.660	940.340	719.150
181.154	13.613	940.099	718.697
182.169	13.602	939.561	718.174
183.183	13.761	938.944	718.330
184.198	13.689	938.118	717.320
185.213	13.810	937.118	717.017
186.227	13.794	936.792	716.633
187.242	13.965	935.830	716.575
188.256	13.877	935.517	715.889
189.271	13.807	934.689	714.892
190.286	13.644	933.999	713.600
191.300	13.561	933.159	712.539
192.315	13.619	932.653	712.339
193.329	13.602	931.919	711.643
194.344	13.623	931.313	711.206
195.359	13.775	930.628	711.269
196.373	13.758	930.266	710.856
197.388	13.837	929.592	710.618
198.402	13.876	929.371	710.555
199.417	14.011	928.369	710.301
200.432	13.986	928.101	709.927
201.446	13.925	927.491	709.136
202.461	14.015	926.959	709.052
203.475	14.019	926.217	708.439
204.490	13.996	925.697	707.881
205.504	13.947	924.795	706.920
206.519	14.040	923.783	706.478
207.534	13.905	923.139	705.350
208.548	13.986	922.830	705.395
209.563	14.098	921.825	705.041
210.577	14.087	921.087	704.366
211.592	14.227	920.624	704.541
212.607	14.094	919.972	703.420
213.621	14.164	919.237	703.090
214.636	14.211	918.347	702.545
215.650	14.211	917.589	701.905
216.665	14.152	917.086	701.208
217.680	14.279	916.328	701.100
218.694	14.298	915.485	700.474
219.709	14.276	914.884	699.861
220.723	14.335	914.207	699.526
221.738	14.289	913.475	698.713
222.753	14.201	913.242	698.105
223.767	14.235	912.525	697.637
224.782	14.274	912.217	697.503
225.796	14.291	911.545	696.999
226.811	14.383	910.764	696.723
227.826	14.410	909.791	696.033
228.840	14.364	908.917	695.108
229.855	14.404	908.070	694.566
230.869	14.280	907.295	693.394
231.884	14.364	906.874	693.363
232.899	14.344	906.168	692.678
233.913	14.249	905.739	691.896
234.928	14.322	904.855	691.460
235.942	14.418	903.693	690.911
236.957	14.406	903.512	690.662
237.972	14.321	903.162	689.981
238.986	14.393	902.326	689.578
240.001	14.409	901.603	689.031
241.015	14.304	901.313	688.313
242.030	14.464	900.336	688.165
243.045	14.514	899.906	687.985
244.059	14.538	899.555	687.754
245.074	14.470	898.599	686.683
246.088	14.500	898.028	686.306
247.103	14.645	897.079	686.119
248.117	14.746	896.569	686.082
249.132	14.626	896.356	685.366
250.147	14.688	895.411	684.838
251.161	14.734	894.687	684.413
252.176	14.783	893.862	683.921
253.190	14.750	893.599	683.524
254.205	14.736	892.861	682.842
255.220	14.832	892.128	682.613
256.234	14.850	891.535	682.171
257.249	14.905	890.639	681.651
258.263	14.803	890.467	681.040
259.278	14.930	889.396	680.682
260.293	14.779	889.209	679.861
261.307	14.948	888.486	679.938
262.322	14.958	887.736	679.342
263.336	15.223	886.501	679.411
264.351	15.036	886.185	678.352
265.366	15.108	885.268	677.883
266.380	15.124	885.146	677.794
267.395	15.158	884.378	677.284
268.409	15.091	883.729	676.452
269.424	14.988	882.776	675.248
270.439	15.031	882.156	674.891
271.453	15.134	881.068	674.411
272.468	15.107	880.720	673.978
273.482	15.057	880.271	673.371
274.497	15.155	879.489	673.108
275.512	15.111	879.445	672.837
276.526	15.112	878.886	672.354
277.541	15.202	878.124	672.073
278.555	15.266	877.348	671.678
279.570	15.236	877.006	671.236
280.585	15.294	876.123	670.731
281.599	15.247	875.297	669.852
282.614	15.318	874.308	669.318
283.628	15.204	874.022	668.586
284.643	15.206	873.780	668.352
285.657	15.312	872.676	667.871
286.672	15.347	871.959	667.400
287.687	15.330	871.605	667.003
288.701	15.391	870.876	666.628
289.716	15.433	870.504	666.454
290.730	15.431	869.975	665.978
291.745	15.430	869.295	665.396
292.760	15.432	868.990	665.112
293.774	15.458	868.027	664.419
294.789	15.560	867.566	664.413
295.803	15.302	867.169	663.030
296.818	15.265	866.243	662.117
297.833	15.428	865.481	662.116
298.847	15.540	864.797	661.978
299.862	15.483	864.322	661.331
300.876	15.401	863.937	660.656
301.891	15.660	863.228	661.071
302.906	15.700	862.494	660.611
303.920	15.705	862.085	660.257
304.935	15.661	861.713	659.740
305.949	15.784	860.642	659.346
306.964	15.743	860.302	658.866
307.979	15.681	859.909	658.261
308.993	15.691	859.434	657.882
310.008	15.825	858.452	657.594
311.022	15.718	858.269	656.980
312.037	15.680	857.541	656.214
313.052	15.676	857.113	655.813
314.066	15.630	856.385	655.018
315.081	15.615	856.061	654.653
316.095	15.656	855.309	654.182
317.110	15.766	854.595	654.006
318.125	15.786	854.133	653.671
319.139	15.828	853.678	653.428
320.154	15.766	853.622	653.087
321.168	15.746	852.817	652.336
322.183	15.772	852.224	651.925
323.197	15.763	851.770	651.487
324.212	15.922	850.897	651.373
325.227	15.849	850.356	650.621
326.241	15.952	849.573	650.361
327.256	15.841	849.326	649.685
328.270	15.888	848.517	649.192
329.285	15.970	847.717	648.839
330.300	15.993	847.485	648.689
331.314	15.761	847.066	647.423
332.329	15.982	846.352	647.666
333.343	15.979	846.057	647.371
334.358	15.940	846.093	647.194
335.373	15.945	845.184	646.461
336.387	15.936	845.056	646.272
337.402	15.926	844.599	645.825
338.416	15.982	844.623	646.001
339.431	16.078	844.027	645.857
340.446	16.118	843.460	645.516
341.460	16.005	843.454	645.022
342.475	16.137	842.808	644.976
343.489	16.136	842.401	644.605
344.504	16.306	841.760	644.707
345.519	16.210	841.408	644.012
346.533	16.120	841.065	643.351
347.548	16.254	840.432	643.319
348.562	16.335	839.391	642.774
349.577	16.294	839.078	642.324
350.592	16.189	838.202	641.197
351.606	16.228	837.586	640.815
352.621	16.305	837.255	640.800
353.635	16.225	836.653	639.979
354.650	16.174	836.159	639.349
355.665	16.312	834.987	638.918
356.679	16.348	834.726	638.799
357.694	16.406	834.046	638.440
358.708	16.446	833.277	637.947
359.723	16.450	832.817	637.553
360.738	16.481	832.329	637.242
361.752	16.341	831.662	636.146
362.767	16.352	831.031	635.649
363.781	16.523	830.686	635.970
364.796	16.551	830.130	635.596
365.810	16.486	830.166	635.321
366.825	16.584	829.578	635.184
367.840	16.562	828.433	634.169
368.854	16.547	828.305	633.960
369.869	16.556	828.250	633.895
370.883	16.727	827.543	633.935
371.898	16.547	827.521	633.190
372.913	16.682	826.577	632.917
373.927	16.716	826.213	632.709
374.942	16.809	825.468	632.430
375.956	16.877	825.165	632.395
376.971	16.863	824.685	631.918
377.986	16.991	824.199	631.966
379.000	16.919	823.826	631.358
380.015	16.800	823.475	630.589
381.029	16.885	822.658	630.223
382.044	16.934	822.363	630.125
383.059	17.123	821.539	630.138
384.073	16.887	821.275	629.006
385.088	16.819	820.764	628.306
386.102	16.822	819.989	627.668
387.117	16.884	819.356	627.356
388.132	16.905	818.577	626.784
389.146	17.020	817.935	626.662
390.161	17.060	817.720	626.587
391.175	17.001	817.468	626.123
392.190	16.815	817.208	625.181
393.205	16.893	816.661	624.994
394.219	17.044	816.072	625.046
395.234	16.926	815.884	624.413
396.248	16.895	815.370	623.848
397.263	16.888	815.007	623.489
398.278	17.036	814.556	623.633
399.292	16.929	813.878	622.668
400.307	16.953	813.645	622.522
401.321	16.929	813.442	622.222
402.336	17.053	812.877	622.190
403.350	16.984	812.413	621.527
404.365	16.946	811.839	620.894
405.380	17.213	811.054	621.216
406.394	17.227	810.467	620.761
407.409	17.327	810.212	620.877
408.423	17.283	809.908	620.430
409.438	17.306	809.428	620.088
410.453	17.400	808.900	619.974
411.467	17.388	808.490	619.559
412.482	17.386	807.920	619.062
413.496	17.366	808.068	619.046
414.511	17.285	807.918	618.583
415.526	17.559	806.814	618.678
416.540	17.503	806.500	618.179
417.555	17.465	805.996	617.599
418.569	17.623	805.657	617.858
419.584	17.592	805.262	617.388
420.599	17.420	804.866	616.409
421.613	84.181	1250.885	1317.923
422.628	71.648	1315.896	1318.057
