DTS Sentinel unit serial number:	SN413079Multiplexer serial number:	ORYXHardware model number:	OX4-SRSoftware version number:	ORYX F/W v4.00 Oryx Data Collector v3.7.2.0data status	okinstallation	princeton_trtdifferential loss correction	single-endedforward channel	channel 1reverse channel	N/Adate	2019/09/18time	00:06:35forward acquisition time	60.00reverse acquisition time	0.00gamma	496.2192k internal	0.2341k external	0.2341temperature offset calibration	0.9977default loss term (dB/km)	0.3790temperature slope calibration	1.0000multiplexer offset coefficient	1.0000multiplexer slope coefficient	1.0000fibre end	0.00T internal ref (°C)	23.81T ext. ref 1 (°C)	0.16T ext. ref 2 (°C)	17.23length (m)	temperature (°C)	Stokes	anti-Stokes-747.200	-123.889	0.245	-0.039
-746.185	-29.446	0.117	0.067
-745.171	800.000	-0.021	0.082
-744.156	-66.889	-0.482	0.191
-743.142	-85.912	-0.140	-0.043
-742.127	800.000	0.077	0.337
-741.112	-83.687	-0.335	0.107
-740.098	509.842	0.113	-0.262
-739.083	800.000	-0.042	0.154
-738.069	-140.914	0.102	-0.011
-737.054	-128.926	0.238	0.034
-736.039	-37.390	-0.265	-0.142
-735.025	-48.852	0.394	0.189
-734.010	-200.000	-0.370	0.001
-732.996	38.804	-0.164	-0.147
-731.981	-200.000	0.014	0.153
-730.966	-104.354	0.242	0.056
-729.952	800.000	0.048	0.206
-728.937	240.462	0.162	0.270
-727.923	-76.309	0.172	0.061
-726.908	-12.037	0.211	0.138
-725.894	-134.724	-0.346	-0.042
-724.879	545.209	-0.088	-0.211
-723.864	18.977	0.145	-0.116
-722.850	-151.612	-0.189	-0.014
-721.835	-51.212	-0.210	-0.099
-720.821	-200.000	-0.004	0.256
-719.806	387.648	0.101	0.210
-718.791	-200.000	0.010	-0.193
-717.777	74.636	-0.141	0.148
-716.762	-23.606	0.072	-0.043
-715.748	107.554	-0.196	0.234
-714.733	-200.000	-0.005	-0.053
-713.718	108.794	-0.071	0.084
-712.704	-142.520	0.157	-0.015
-711.689	-200.000	-0.012	-0.167
-710.675	-200.000	0.048	-0.412
-709.660	800.000	-0.067	0.222
-708.645	-49.597	-0.259	0.123
-707.631	18.794	-0.423	0.339
-706.616	9.415	0.291	0.220
-705.602	47.081	0.285	-0.266
-704.587	-96.014	-0.259	0.069
-703.572	-136.512	0.434	0.050
-702.558	-200.000	-0.046	-0.208
-701.543	6.291	0.195	-0.144
-700.529	-63.709	0.297	-0.122
-699.514	783.626	0.036	-0.099
-698.499	-26.378	-0.382	-0.224
-697.485	800.000	0.075	-0.322
-696.470	40.757	0.036	-0.033
-695.456	19.946	-0.208	0.168
-694.441	-14.812	-0.290	-0.186
-693.426	417.954	-0.056	-0.119
-692.412	-68.027	-0.119	-0.046
-691.397	448.890	0.093	-0.205
-690.383	800.000	-0.052	0.209
-689.368	-149.103	-0.074	-0.006
-688.354	124.678	0.145	0.182
-687.339	-103.243	-0.190	-0.045
-686.324	-200.000	-0.038	-0.229
-685.310	-75.361	-0.249	0.089
-684.295	-200.000	0.004	0.217
-683.281	194.536	-0.164	0.249
-682.266	-35.095	0.135	0.073
-681.251	10.292	-0.401	-0.305
-680.237	-121.132	0.182	0.031
-679.222	83.053	-0.136	0.148
-678.208	-78.170	-0.169	-0.058
-677.193	223.776	0.079	0.128
-676.178	-106.733	0.314	-0.070
-675.164	159.939	0.053	0.073
-674.149	-200.000	-0.022	-0.167
-673.135	228.791	-0.135	0.220
-672.120	-167.563	-0.295	-0.012
-671.105	72.686	0.248	-0.258
-670.091	-70.308	0.171	0.065
-669.076	564.696	-0.025	-0.060
-668.062	489.450	0.003	-0.006
-667.047	503.927	-0.047	-0.108
-666.032	-92.224	0.164	-0.046
-665.018	232.919	-0.095	-0.156
-664.003	479.708	0.044	-0.099
-662.989	-31.181	-0.200	-0.113
-661.974	9.714	-0.078	0.059
-660.959	-200.000	-0.032	0.441
-659.945	-200.000	0.011	-0.074
-658.930	596.164	0.039	0.097
-657.916	122.613	0.144	-0.179
-656.901	6.934	0.350	0.261
-655.886	460.475	0.112	0.250
-654.872	-200.000	-0.021	-0.182
-653.857	224.724	-0.076	-0.122
-652.843	-87.554	-0.400	-0.121
-651.828	754.595	0.158	-0.425
-650.814	-200.000	0.009	-0.202
-649.799	-39.048	-0.276	-0.145
-648.784	-200.000	0.009	0.243
-647.770	422.876	0.022	-0.048
-646.755	-200.000	0.002	-0.185
-645.741	117.250	-0.254	-0.312
-644.726	800.000	-0.023	-0.090
-643.711	-55.417	0.086	0.039
-642.697	221.405	-0.190	-0.305
-641.682	-200.000	-0.024	-0.140
-640.668	218.999	-0.076	0.121
-639.653	138.114	0.203	0.266
-638.638	-106.141	0.081	-0.018
-637.624	171.087	0.043	0.061
-636.609	800.000	-0.033	0.100
-635.595	-19.991	0.107	-0.066
-634.580	66.144	0.086	0.088
-633.565	260.240	0.025	0.042
-632.551	-75.768	-0.172	0.061
-631.536	5.878	-0.139	-0.103
-630.522	20.353	0.064	-0.052
-629.507	-200.000	0.050	-0.360
-628.492	-104.304	0.035	-0.008
-627.478	800.000	0.120	-0.405
-626.463	576.585	0.059	0.143
-625.449	42.048	-0.077	0.070
-624.434	-200.000	-0.026	-0.152
-623.419	-54.684	-0.132	0.059
-622.405	-28.576	-0.234	-0.134
-621.390	-200.000	0.027	-0.347
-620.376	256.436	-0.232	0.397
-619.361	122.891	-0.093	0.116
-618.346	-200.000	-0.073	-0.357
-617.332	-153.616	-0.341	-0.023
-616.317	-200.000	-0.022	-0.200
-615.303	101.895	-0.132	-0.153
-614.288	-200.000	0.065	0.353
-613.273	25.107	-0.163	0.135
-612.259	-69.524	-0.242	-0.093
-611.244	63.390	0.083	-0.083
-610.230	40.273	0.325	-0.291
-609.215	299.712	0.164	-0.302
-608.201	-70.878	-0.331	-0.124
-607.186	800.000	-0.075	-0.290
-606.171	-105.924	0.135	-0.030
-605.157	-147.917	0.147	-0.012
-604.142	122.110	-0.068	0.085
-603.128	12.442	-0.058	0.044
-602.113	-124.543	0.207	0.032
-601.098	23.828	0.066	-0.054
-600.084	710.937	-0.015	-0.039
-599.069	280.532	0.095	0.169
-598.055	-80.942	0.057	0.019
-597.040	-200.000	0.005	0.165
-596.025	-24.261	-0.192	-0.114
-595.011	-1.951	-0.035	0.024
-593.996	-200.000	0.214	0.000
-592.982	633.525	-0.108	0.273
-591.967	266.452	0.070	-0.121
-590.952	-200.000	0.040	0.185
-589.938	-1.583	-0.191	-0.134
-588.923	323.990	-0.103	-0.196
-587.909	19.531	-0.387	-0.310
-586.894	800.000	0.128	-0.399
-585.879	-200.000	-0.033	-0.477
-584.865	-200.000	0.015	0.315
-583.850	-130.211	-0.113	0.015
-582.836	-63.832	-0.237	0.097
-581.821	180.182	0.256	0.374
-580.806	176.739	0.099	0.143
-579.792	-46.972	-0.162	-0.079
-578.777	232.067	0.190	-0.310
-577.763	37.658	-0.062	-0.055
-576.748	195.860	0.144	0.217
-575.733	-113.684	-0.266	-0.052
-574.719	69.553	0.140	-0.144
-573.704	27.838	-0.128	0.107
-572.690	65.933	-0.154	0.155
-571.675	-109.736	-0.328	-0.069
-570.661	11.832	-0.235	0.179
-569.646	224.782	0.113	0.182
-568.631	-159.993	-0.469	0.026
-567.617	800.000	0.053	0.166
-566.602	347.088	-0.040	0.078
-565.588	96.751	-0.095	0.108
-564.573	148.520	-0.203	0.273
-563.558	800.000	-0.130	-0.409
-562.544	-87.275	-0.100	-0.030
-561.529	-200.000	-0.016	-0.099
-560.515	-200.000	-0.067	0.332
-559.500	-200.000	0.006	0.159
-558.485	111.476	0.101	-0.121
-557.471	-200.000	-0.013	0.103
-556.456	-200.000	-0.001	-0.122
-555.442	-20.281	-0.168	0.103
-554.427	569.304	-0.019	0.046
-553.412	-13.545	0.100	0.065
-552.398	152.062	-0.088	-0.120
-551.383	-200.000	-0.327	0.001
-550.369	-43.640	0.055	-0.028
-549.354	-135.685	-0.125	-0.015
-548.339	1.314	0.216	0.154
-547.325	-62.652	0.230	-0.095
-546.310	-75.813	0.344	-0.121
-545.296	94.812	-0.262	-0.296
-544.281	538.444	-0.041	0.096
-543.266	-200.000	-0.043	0.397
-542.252	-200.000	0.022	-0.180
-541.237	800.000	-0.057	-0.197
-540.223	11.165	-0.125	0.095
-539.208	-200.000	-0.037	-0.385
-538.193	-200.000	0.028	-0.125
-537.179	120.425	-0.256	-0.317
-536.164	800.000	-0.029	0.105
-535.150	183.298	-0.158	0.233
-534.135	-200.000	-0.009	0.057
-533.121	-200.000	-0.004	0.130
-532.106	-31.991	0.262	0.146
-531.091	-200.000	0.021	0.189
-530.077	-61.374	-0.079	-0.033
-529.062	-28.341	0.304	-0.174
-528.048	-64.092	0.200	0.081
-527.033	-44.947	0.110	0.054
-526.018	143.859	-0.196	0.259
-525.004	-185.986	-0.324	-0.005
-523.989	122.116	0.088	-0.109
-522.975	239.619	0.064	-0.106
-521.960	-47.359	0.256	-0.124
-520.945	51.498	0.206	0.194
-519.931	800.000	-0.036	-0.153
-518.916	-200.000	0.021	0.233
-517.902	-117.273	0.234	-0.042
-516.887	84.330	-0.092	-0.100
-515.872	-72.541	0.114	-0.042
-514.858	474.376	-0.075	-0.168
-513.843	800.000	0.061	0.212
-512.829	800.000	0.039	-0.157
-511.814	-200.000	0.009	0.127
-510.799	323.980	-0.161	-0.305
-509.785	58.549	0.142	-0.138
-508.770	490.522	0.195	0.443
-507.756	-142.780	-0.452	0.044
-506.741	54.900	0.159	-0.153
-505.726	155.406	0.210	-0.287
-504.712	-200.000	-0.020	-0.130
-503.697	112.915	-0.233	0.280
-502.683	-200.000	-0.024	0.123
-501.668	-125.120	0.339	-0.052
-500.653	346.587	-0.099	0.193
-499.639	-200.000	0.018	0.168
-498.624	-45.598	0.261	0.128
-497.610	-200.000	-0.009	-0.188
-496.595	56.021	0.078	0.076
-495.581	372.984	-0.196	-0.395
-494.566	-150.498	-0.298	0.023
-493.551	-200.000	-0.020	0.143
-492.537	-80.609	0.281	0.093
-491.522	-121.457	-0.044	-0.007
-490.508	30.428	0.263	0.223
-489.493	800.000	-0.023	0.076
-488.478	-148.130	0.428	0.035
-487.464	-44.097	-0.271	-0.135
-486.449	800.000	-0.044	0.131
-485.435	-200.000	0.026	-0.234
-484.420	66.629	0.268	0.271
-483.405	117.070	-0.096	-0.117
-482.391	150.201	0.070	-0.094
-481.376	800.000	0.128	0.365
-480.362	-174.212	0.340	0.010
-479.347	-158.181	-0.250	0.015
-478.332	247.739	-0.168	0.281
-477.318	-200.000	0.040	-0.180
-476.303	184.753	-0.180	-0.265
-475.289	-29.615	0.142	-0.080
-474.274	-35.039	-0.247	-0.133
-473.259	448.810	-0.119	-0.260
-472.245	-200.000	0.010	0.053
-471.230	78.834	0.158	-0.168
-470.216	-15.652	0.087	-0.055
-469.201	-95.567	-0.155	0.041
-468.186	83.898	-0.143	-0.155
-467.172	-8.550	-0.015	0.010
-466.157	800.000	-0.034	-0.126
-465.143	-43.342	-0.082	-0.041
-464.128	-200.000	-0.009	-0.367
-463.113	-119.619	-0.274	-0.047
-462.099	300.144	-0.141	0.257
-461.084	-10.654	0.362	-0.237
-460.070	-61.042	-0.375	-0.157
-459.055	-151.348	0.267	0.020
-458.040	-96.962	0.097	-0.025
-457.026	800.000	-0.056	0.211
-456.011	414.871	-0.132	0.279
-454.997	37.229	0.138	0.121
-453.982	218.853	-0.125	-0.198
-452.968	800.000	-0.070	-0.232
-451.953	-97.772	0.371	0.095
-450.938	784.269	0.133	-0.362
-449.924	-22.401	-0.205	-0.123
-448.909	-155.347	0.304	0.020
-447.895	767.741	-0.114	-0.308
-446.880	-38.683	-0.258	0.135
-445.865	53.292	0.133	-0.126
-444.851	551.634	0.112	-0.266
-443.836	702.012	-0.049	0.128
-442.822	-4.572	0.268	0.183
-441.807	260.701	0.081	0.138
-440.792	164.226	0.126	0.176
-439.778	-47.758	-0.151	-0.073
-438.763	378.436	-0.131	0.265
-437.749	59.204	0.002	-0.002
-436.734	-176.804	-0.300	0.008
-435.719	85.413	0.132	-0.143
-434.705	-72.487	0.180	0.066
-433.690	43.126	-0.306	-0.276
-432.676	-97.833	-0.241	0.062
-431.661	-60.873	0.255	-0.107
-430.646	-37.746	-0.073	-0.038
-429.632	-158.246	0.347	0.020
-428.617	118.871	0.074	-0.090
-427.603	-134.276	0.030	-0.004
-426.588	-56.170	0.154	0.068
-425.573	-200.000	0.012	-0.159
-424.559	-156.666	0.434	-0.027
-423.544	-53.057	-0.323	-0.147
-422.530	-104.076	0.189	0.044
-421.515	-17.153	0.162	-0.101
-420.500	-200.000	0.078	-0.477
-419.486	-61.355	-0.254	-0.106
-418.471	-78.729	0.182	-0.061
-417.457	800.000	0.030	-0.098
-416.442	-200.000	0.028	0.207
-415.428	-138.159	0.243	-0.027
-414.413	37.250	0.216	-0.190
-413.398	-91.107	-0.214	-0.061
-412.384	71.084	0.116	-0.119
-411.369	96.982	0.098	0.111
-410.355	-111.038	-0.110	0.022
-409.340	40.338	-0.055	-0.049
-408.325	627.548	-0.119	0.297
-407.311	139.924	0.180	0.235
-406.296	410.279	0.185	0.388
-405.282	-200.000	0.002	0.162
-404.267	-96.512	-0.276	0.072
-403.252	-141.780	0.494	0.049
-402.238	237.107	-0.162	0.265
-401.223	134.715	-0.102	-0.131
-400.209	-49.063	-0.079	-0.037
-399.194	293.892	-0.123	0.221
-398.179	1.139	-0.136	0.096
-397.165	170.596	-0.078	-0.110
-396.150	-122.544	0.111	-0.018
-395.136	18.480	0.141	-0.111
-394.121	800.000	0.078	-0.253
-393.106	-122.634	0.087	0.014
-392.092	-112.027	0.181	-0.036
-391.077	-165.483	0.193	0.008
-390.063	-112.323	0.206	0.041
-389.048	-131.799	0.070	-0.009
-388.033	800.000	0.027	0.085
-387.019	-12.758	-0.430	0.277
-386.004	-200.000	-0.072	0.414
-384.990	467.383	0.016	-0.035
-383.975	800.000	0.100	-0.293
-382.960	800.000	-0.060	0.211
-381.946	253.477	0.137	-0.231
-380.931	106.773	-0.113	-0.132
-379.917	370.590	0.145	-0.290
-378.902	36.009	-0.101	-0.088
-377.888	-129.723	-0.031	0.004
-376.873	-140.462	-0.065	-0.007
-375.858	-120.157	-0.423	-0.071
-374.844	135.207	-0.045	0.057
-373.829	291.935	0.106	-0.190
-372.815	-200.000	-0.025	-0.147
-371.800	338.704	0.219	-0.422
-370.785	-200.000	-0.050	-0.400
-369.771	-6.259	-0.045	-0.030
-368.756	-200.000	0.023	0.435
-367.742	-183.154	0.197	-0.003
-366.727	-144.107	-0.306	0.028
-365.712	-106.805	0.047	0.010
-364.698	-66.292	-0.348	0.137
-363.683	36.279	-0.183	-0.159
-362.669	484.437	-0.147	0.331
-361.654	-160.742	-0.255	0.013
-360.639	-82.269	0.135	-0.043
-359.625	-29.119	-0.084	0.047
-358.610	800.000	-0.060	-0.212
-357.596	18.427	0.118	0.093
-356.581	459.817	0.128	0.280
-355.566	-2.234	-0.144	0.100
-354.552	-200.000	0.011	0.178
-353.537	269.919	-0.047	0.081
-352.523	416.851	0.106	-0.223
-351.508	148.110	-0.230	-0.306
-350.493	-200.000	0.012	-0.140
-349.479	-200.000	-0.027	-0.247
-348.464	-126.738	0.299	-0.044
-347.450	-200.000	-0.002	-0.150
-346.435	-161.854	0.196	-0.010
-345.420	341.314	0.168	0.324
-344.406	-58.852	0.264	0.113
-343.391	-132.762	-0.615	0.078
-342.377	-128.983	-0.055	0.008
-341.362	-49.923	-0.178	-0.083
-340.348	16.193	-0.091	-0.071
-339.333	-168.484	-0.445	-0.017
-338.318	-200.000	0.046	-0.287
-337.304	294.174	0.192	-0.345
-336.289	189.748	-0.039	0.058
-335.275	-29.219	0.254	-0.144
-334.260	-128.157	-0.135	-0.019
-333.245	-107.068	0.227	0.049
-332.231	-44.687	0.131	-0.065
-331.216	-16.333	0.086	0.054
-330.202	-200.000	-0.012	0.144
-329.187	266.090	0.178	-0.307
-328.172	-195.916	-0.339	0.002
-327.158	-22.491	-0.067	0.040
-326.143	68.894	-0.134	0.135
-325.129	-105.641	0.179	-0.040
-324.114	778.675	-0.021	0.057
-323.099	-200.000	-0.009	0.191
-322.085	262.616	-0.062	-0.106
-321.070	800.000	-0.035	0.127
-320.056	-200.000	0.036	0.246
-319.041	-155.824	-0.043	-0.003
-318.026	34.578	-0.157	-0.135
-317.012	-74.168	-0.401	-0.143
-315.997	97.906	0.327	0.370
-314.983	339.521	-0.108	-0.208
-313.968	180.991	0.158	0.228
-312.953	800.000	-0.126	-0.373
-311.939	369.075	-0.103	-0.205
-310.924	-102.443	0.047	0.011
-309.910	-200.000	-0.018	0.165
-308.895	-90.723	0.055	0.016
-307.880	-135.870	0.336	-0.039
-306.866	127.963	0.121	0.152
-305.851	255.485	0.095	-0.160
-304.837	800.000	0.052	0.175
-303.822	446.696	0.084	-0.182
-302.807	217.671	0.036	-0.056
-301.793	-78.628	-0.315	-0.106
-300.778	395.752	0.194	0.399
-299.764	-121.334	-0.295	-0.048
-298.749	-170.343	-0.068	0.002
-297.735	718.391	0.101	0.263
-296.720	-66.362	0.280	0.110
-295.705	-100.253	-0.059	-0.015
-294.691	46.116	0.134	0.122
-293.676	-200.000	-0.039	0.288
-292.662	-11.112	-0.190	0.123
-291.647	111.351	0.074	-0.088
-290.632	402.543	-0.070	0.145
-289.618	169.735	-0.122	-0.172
-288.603	453.986	0.126	0.274
-287.589	-149.598	0.456	0.035
-286.574	-200.000	0.011	-0.176
-285.559	-141.039	0.367	0.037
-284.545	-164.105	0.218	0.010
-283.530	75.504	-0.161	-0.167
-282.516	135.270	-0.085	0.109
-281.501	800.000	0.016	-0.054
-280.486	-55.736	0.242	0.107
-279.472	177.440	0.226	0.325
-278.457	116.631	-0.270	-0.326
-277.443	-15.351	0.125	-0.079
-276.428	-17.504	0.449	0.278
-275.413	205.766	-0.142	0.217
-274.399	-200.000	0.006	0.109
-273.384	800.000	-0.086	-0.280
-272.370	155.632	-0.127	-0.172
-271.355	669.751	-0.022	0.057
-270.340	51.954	0.231	0.217
-269.326	-193.905	-0.198	0.002
-268.311	-153.957	0.034	-0.002
-267.297	-110.075	-0.119	-0.024
-266.282	21.376	0.194	0.155
-265.267	69.633	0.106	0.107
-264.253	222.121	0.117	0.185
-263.238	760.254	0.058	0.155
-262.224	7.286	0.287	0.211
-261.209	480.174	-0.062	0.139
-260.195	-200.000	0.022	0.157
-259.180	-88.116	0.182	0.054
-258.165	339.466	-0.023	0.044
-257.151	-163.596	0.150	-0.007
-256.136	-22.413	-0.159	0.095
-255.122	800.000	-0.044	-0.189
-254.107	-200.000	0.060	-0.371
-253.092	-200.000	0.043	-0.260
-252.078	160.157	-0.043	-0.058
-251.063	-29.395	-0.234	0.132
-250.049	-40.822	0.246	0.125
-249.034	-62.948	0.047	-0.019
-248.019	-144.909	-0.102	0.009
-247.005	85.998	-0.146	-0.158
-245.990	7.036	-0.321	0.235
-244.976	-53.625	0.560	0.252
-243.961	34.732	-0.045	0.039
-242.946	-200.000	0.099	0.486
-241.932	-200.000	-0.005	0.199
-240.917	364.161	-0.027	0.052
-239.903	800.000	-0.056	0.206
-238.888	-200.000	-0.016	-0.134
-237.873	93.702	-0.109	-0.122
-236.859	127.526	-0.306	0.381
-235.844	231.639	-0.186	0.300
-234.830	-103.053	0.428	-0.100
-233.815	72.455	-0.104	0.107
-232.800	-200.000	0.017	0.122
-231.786	-64.857	-0.396	-0.158
-230.771	40.198	-0.029	-0.025
-229.757	-72.557	-0.138	-0.050
-228.742	-77.651	-0.291	-0.099
-227.727	164.883	-0.092	-0.127
-226.713	185.494	0.187	-0.273
-225.698	-200.000	-0.010	0.088
-224.684	-100.473	0.137	0.033
-223.669	-200.000	-0.003	-0.044
-222.655	-46.060	-0.174	0.084
-221.640	-200.000	-0.057	0.340
-220.625	800.000	0.022	0.089
-219.611	49.197	-0.247	0.228
-218.596	25.504	-0.187	0.153
-217.582	-200.000	-0.017	-0.181
-216.567	-153.439	-0.109	0.007
-215.552	39.050	-0.233	-0.204
-214.538	173.202	0.184	-0.260
-213.523	-25.251	-0.158	0.092
-212.509	95.178	-0.087	-0.098
-211.494	161.101	-0.089	-0.122
-210.479	-26.497	0.108	-0.062
-209.465	-117.478	-0.318	-0.056
-208.450	87.843	-0.018	0.019
-207.436	-41.920	0.064	0.032
-206.421	800.000	-0.049	-0.206
-205.406	22.863	0.275	-0.221
-204.392	800.000	-0.058	0.177
-203.377	-137.931	-0.293	-0.032
-202.363	800.000	0.021	-0.074
-201.348	-200.000	-0.003	0.031
-200.333	-82.362	0.206	0.066
-199.319	99.967	0.177	0.202
-198.304	47.603	0.212	-0.194
-197.290	-200.000	-0.030	-0.240
-196.275	-200.000	-0.008	0.059
-195.260	576.748	-0.072	-0.173
-194.246	-16.560	0.052	-0.033
-193.231	97.161	-0.091	0.103
-192.217	-94.558	0.115	0.031
-191.202	25.655	-0.166	0.135
-190.187	-200.000	-0.020	0.219
-189.173	-91.881	-0.118	0.033
-188.158	166.060	0.128	0.178
-187.144	140.286	0.136	0.176
-186.129	114.744	0.044	0.052
-185.114	487.816	0.072	-0.162
-184.100	183.545	-0.173	-0.251
-183.085	-20.952	0.185	0.111
-182.071	-200.000	0.046	0.273
-181.056	92.239	-0.047	0.052
-180.042	-200.000	0.022	0.269
-179.027	84.481	0.029	-0.031
-178.012	-200.000	0.014	-0.151
-176.998	53.694	-0.179	0.168
-175.983	-126.035	0.099	0.015
-174.969	-200.000	-0.011	-0.050
-173.954	113.355	-0.140	-0.166
-172.939	800.000	-0.044	-0.153
-171.925	386.607	-0.128	0.258
-170.910	0.885	0.337	0.237
-169.896	-98.167	0.242	-0.061
-168.881	-38.349	0.128	0.066
-167.866	252.975	0.204	0.342
-166.852	-200.000	0.014	-0.348
-165.837	-125.974	-0.277	-0.041
-164.823	557.227	0.150	0.354
-163.808	-95.589	0.246	-0.065
-162.793	57.858	0.059	0.056
-161.779	-20.773	0.054	0.033
-160.764	800.000	-0.033	0.098
-159.750	-9.559	0.277	-0.181
-158.735	-132.507	0.501	-0.063
-157.720	133.827	-0.115	-0.146
-156.706	-67.200	0.085	0.033
-155.691	89.696	0.054	-0.058
-154.677	-128.647	-0.378	-0.052
-153.662	24.941	0.262	0.213
-152.647	800.000	0.080	0.301
-151.633	17.851	0.194	0.151
-150.618	154.727	-0.139	0.187
-149.604	-16.537	-0.221	0.137
-148.589	-8.910	0.162	-0.106
-147.574	159.670	-0.066	0.089
-146.560	25.813	-0.127	0.103
-145.545	27.911	0.059	-0.049
-144.531	-4.237	0.292	0.198
-143.516	-200.000	0.097	-0.444
-142.502	-11.176	-0.077	0.050
-141.487	-21.128	-0.168	0.100
-140.472	161.363	0.166	0.228
-139.458	-200.000	-0.048	-0.353
-138.443	800.000	-0.069	-0.244
-137.429	35.968	-0.211	0.182
-136.414	800.000	0.044	0.154
-135.399	-130.880	-0.176	-0.023
-134.385	59.339	0.282	0.272
-133.370	734.144	-0.101	0.266
-132.356	-187.083	0.274	0.004
-131.341	-80.990	-0.089	0.029
-130.326	-25.776	0.025	0.014
-129.312	494.777	0.178	0.400
-128.297	-138.189	0.092	-0.010
-127.283	317.440	0.148	0.273
-126.268	59.967	0.086	0.083
-125.253	21.665	0.277	-0.220
-124.239	2.454	-0.350	0.248
-123.224	-200.000	-0.009	-0.106
-122.210	-151.503	0.507	0.037
-121.195	-36.623	-0.190	-0.100
-120.180	-42.892	-0.207	0.103
-119.166	-56.910	0.156	0.068
-118.151	-96.158	0.105	0.027
-117.137	-26.626	-0.186	0.106
-116.122	161.569	0.121	0.166
-115.107	238.325	-0.029	-0.047
-114.093	208.907	-0.084	-0.129
-113.078	-69.360	-0.353	-0.132
-112.064	-86.457	0.044	0.013
-111.049	1.120	0.064	-0.045
-110.034	-151.140	0.188	0.014
-109.020	800.000	-0.094	-0.321
-108.005	-200.000	-0.004	0.020
-106.991	-200.000	-0.008	-0.096
-105.976	-48.464	0.188	0.088
-104.962	769.826	-0.153	0.406
-103.947	-200.000	-0.030	0.276
-102.932	190.025	-0.099	0.145
-101.918	-23.499	0.257	0.151
-100.903	11.569	-0.141	0.106
-99.889	-143.681	0.120	0.011
-98.874	16.961	-0.246	0.191
-97.859	39.988	0.275	0.241
-96.845	166.366	0.088	0.122
-95.830	-130.791	-0.228	0.030
-94.816	-156.136	-0.462	0.028
-93.801	317.795	0.152	-0.282
-92.786	-86.713	-0.391	0.117
-91.772	94.035	0.028	0.031
-90.757	644.419	0.082	0.204
-89.743	671.439	-0.071	-0.180
-88.728	58.412	0.162	0.155
-87.713	122.996	-0.057	-0.070
-86.699	-11.430	0.347	0.223
-85.684	-200.000	0.003	-0.220
-84.670	-200.000	0.041	0.229
-83.655	13.803	0.253	-0.192
-82.640	53.550	-0.162	-0.151
-81.626	-80.247	0.110	0.036
-80.611	159.741	-0.116	0.158
-79.597	-200.000	0.003	0.060
-78.582	-200.000	-0.032	0.413
-77.567	-200.000	0.033	-0.277
-76.553	-191.472	-0.392	0.004
-75.538	431.499	0.128	0.270
-74.524	34.451	-0.087	-0.074
-73.509	262.197	0.088	-0.148
-72.494	-121.032	0.199	0.033
-71.480	487.561	0.094	0.210
-70.465	-124.288	0.052	-0.008
-69.451	-109.551	-0.224	0.046
-68.436	144.578	-0.120	-0.156
-67.422	-200.000	-0.113	0.524
-66.407	-200.000	-0.104	0.580
-65.392	162.911	0.117	-0.160
-64.378	335.101	-0.122	-0.230
-63.363	-154.270	-0.130	0.009
-62.349	37.103	-0.163	0.141
-61.334	140.078	-1.096	-1.410
-60.319	-2.825	1.151	0.785
-59.305	612.458	-0.464	-1.132
-58.290	739.644	0.535	1.403
-57.276	172.970	0.883	1.241
-56.261	-200.000	123.179	660.741
-55.246	442.523	1539.352	3289.545
-54.232	148.245	2684.336	3534.524
-53.217	98.806	2134.655	2403.416
-52.203	35.333	1577.779	1349.948
-51.188	27.032	1324.626	1083.997
-50.173	24.444	1287.718	1038.714
-49.159	52.352	1355.570	1261.444
-48.144	49.312	1367.422	1254.270
-47.130	27.211	1315.867	1077.720
-46.115	23.907	1296.958	1042.852
-45.100	23.828	1291.625	1038.064
-44.086	23.785	1289.401	1035.984
-43.071	23.652	1287.274	1033.458
-42.057	23.624	1285.223	1031.609
-41.042	23.680	1283.758	1030.715
-40.027	23.712	1281.890	1029.361
-39.013	23.678	1280.221	1027.786
-37.998	23.729	1278.732	1026.840
-36.984	23.700	1277.235	1025.434
-35.969	23.851	1275.192	1024.619
-34.954	23.821	1273.298	1022.885
-33.940	23.801	1272.337	1021.960
-32.925	23.840	1271.065	1021.120
-31.911	23.803	1269.757	1019.815
-30.896	23.873	1268.380	1019.073
-29.881	23.976	1267.108	1018.601
-28.867	23.990	1265.780	1017.573
-27.852	24.028	1264.259	1016.527
-26.838	23.992	1263.195	1015.426
-25.823	23.887	1261.664	1013.556
-24.809	23.926	1260.296	1012.636
-23.794	23.912	1259.080	1011.542
-22.779	23.865	1257.694	1010.122
-21.765	24.053	1256.376	1010.088
-20.750	23.886	1255.685	1008.546
-19.736	23.787	1254.434	1006.940
-18.721	23.783	1253.001	1005.727
-17.706	23.750	1251.845	1004.570
-16.692	23.821	1250.478	1003.834
-15.677	23.840	1249.735	1003.306
-14.663	23.726	1248.421	1001.573
-13.648	23.601	1247.790	1000.321
-12.633	23.709	1246.224	999.633
-11.619	23.728	1245.481	999.104
-10.604	23.797	1244.768	998.879
-9.590	23.741	1243.800	997.750
-8.575	23.734	1242.780	996.849
-7.560	23.754	1241.992	996.289
-6.546	23.749	1241.276	995.652
-5.531	23.703	1240.302	994.571
-4.517	23.727	1239.725	994.205
-3.502	23.729	1238.991	993.587
-2.487	23.787	1237.997	993.074
-1.473	23.656	1233.377	988.599
-0.458	21.996	1218.986	967.881
0.556	16.917	1203.244	931.232
1.571	13.282	1211.403	917.331
2.586	12.696	1226.493	925.383
3.600	12.796	1213.658	916.173
4.615	9.244	1143.249	844.313
5.629	3.041	1073.740	762.229
6.644	0.350	1056.293	736.640
7.659	0.077	1054.524	734.006
8.673	0.149	1053.483	733.568
9.688	0.064	1052.145	732.159
10.702	0.284	1049.591	731.382
11.717	4.011	1054.229	752.695
12.731	11.189	1062.962	793.951
13.746	15.837	1069.062	821.166
14.761	16.842	1069.656	826.452
15.775	16.067	1068.679	821.846
16.790	15.062	1066.229	814.998
17.804	14.456	1064.684	810.800
18.819	14.039	1063.922	808.119
19.834	13.890	1062.702	806.401
20.848	13.656	1061.911	804.592
21.863	13.321	1061.111	802.288
22.877	13.231	1060.401	801.246
23.892	13.141	1059.640	800.164
24.907	13.102	1058.764	799.243
25.921	13.292	1057.837	799.392
26.936	13.342	1056.875	798.836
27.950	13.307	1056.164	798.058
28.965	13.376	1055.192	797.586
29.980	13.350	1054.103	796.567
30.994	13.446	1052.748	795.934
32.009	13.440	1052.167	795.397
33.023	13.389	1050.905	794.124
34.038	13.349	1049.457	792.771
35.053	13.330	1048.754	792.079
36.067	13.311	1048.262	791.547
37.082	13.307	1047.252	790.691
38.096	13.387	1046.867	790.717
39.111	13.384	1045.762	789.796
40.126	13.343	1045.117	789.042
41.140	13.261	1043.464	787.333
42.155	13.209	1042.660	786.409
43.169	13.154	1041.574	785.262
44.184	13.220	1040.628	784.792
45.199	13.157	1039.704	783.729
46.213	13.172	1038.905	783.126
47.228	13.174	1037.649	782.119
48.242	13.303	1036.292	781.637
49.257	13.133	1035.846	780.428
50.271	13.312	1035.071	780.621
51.286	13.275	1034.232	779.742
52.301	13.173	1033.022	778.282
53.315	13.165	1032.324	777.651
54.330	13.195	1031.335	776.977
55.344	13.217	1030.411	776.314
56.359	13.154	1029.828	775.510
57.374	13.281	1028.330	774.912
58.388	13.141	1027.506	773.565
59.403	13.211	1026.760	773.261
60.417	13.177	1026.420	772.779
61.432	12.997	1025.632	771.279
62.447	13.099	1024.460	770.803
63.461	13.089	1023.711	770.127
64.476	13.094	1022.934	769.494
65.490	13.040	1022.153	768.588
66.505	13.210	1021.274	768.651
67.520	13.097	1020.749	767.661
68.534	13.187	1019.850	767.337
69.549	13.096	1019.327	766.451
70.563	13.048	1018.448	765.501
71.578	13.066	1017.881	765.088
72.593	13.016	1017.296	764.352
73.607	13.034	1016.324	763.638
74.622	13.159	1015.306	763.381
75.636	13.045	1014.524	762.200
76.651	13.068	1014.264	762.042
77.666	13.122	1013.158	761.392
78.680	13.075	1012.504	760.619
79.695	13.052	1011.784	759.906
80.709	13.137	1011.330	759.890
81.724	13.083	1011.110	759.408
82.739	13.059	1010.357	758.663
83.753	13.185	1008.944	758.112
84.768	13.210	1008.577	757.887
85.782	13.270	1007.382	757.197
86.797	13.287	1006.369	756.443
87.812	13.217	1005.583	755.467
88.826	13.223	1004.609	754.695
89.841	13.203	1003.359	753.597
90.855	13.296	1002.640	753.417
91.870	13.359	1001.674	752.911
92.884	13.469	1000.579	752.521
93.899	13.407	1000.164	751.860
94.914	13.436	999.325	751.296
95.928	13.354	998.496	750.233
96.943	13.408	997.726	749.831
97.957	13.283	996.684	748.417
98.972	13.371	995.878	748.143
99.987	13.356	995.483	747.715
101.001	13.473	993.880	746.970
102.016	13.472	992.962	746.209
103.030	13.266	992.834	745.121
104.045	13.357	991.838	744.715
105.060	13.450	990.919	744.379
106.074	13.304	990.103	743.043
107.089	13.208	988.946	741.678
108.103	13.128	988.750	741.107
109.118	13.202	987.236	740.237
110.133	13.124	986.782	739.481
111.147	13.189	985.823	738.989
112.162	13.174	985.244	738.423
113.176	13.251	984.060	737.815
114.191	13.326	983.189	737.428
115.206	13.248	982.660	736.619
116.220	13.292	981.392	735.801
117.235	13.358	980.436	735.314
118.249	13.156	979.676	733.781
119.264	13.232	979.504	733.922
120.279	13.237	978.581	733.190
121.293	13.276	977.565	732.534
122.308	13.305	976.473	731.780
123.322	13.223	974.957	730.218
124.337	13.219	974.437	729.747
125.352	13.306	972.934	728.940
126.366	13.247	972.333	728.165
127.381	13.249	971.511	727.493
128.395	13.205	970.564	726.529
129.410	13.312	969.644	726.246
130.424	13.366	968.527	725.579
131.439	13.222	968.354	724.753
132.454	13.326	966.984	724.120
133.468	13.244	966.176	723.092
134.483	13.230	965.549	722.499
135.497	13.125	965.164	721.689
136.512	13.285	963.727	721.250
137.527	13.379	962.596	720.747
138.541	13.258	962.211	719.868
139.556	13.396	961.217	719.661
140.570	13.379	960.556	719.028
141.585	13.473	959.817	718.819
142.600	13.425	958.899	717.861
143.614	13.508	958.009	717.488
144.629	13.561	957.309	717.130
145.643	13.338	956.567	715.548
146.658	13.474	955.148	715.010
147.673	13.385	954.498	714.075
148.687	13.503	953.604	713.854
149.702	13.444	952.538	712.736
150.716	13.423	952.042	712.215
151.731	13.501	951.489	712.074
152.746	13.438	951.047	711.410
153.760	13.453	950.099	710.702
154.775	13.527	949.534	710.531
155.789	13.542	948.769	709.963
156.804	13.527	948.191	709.401
157.819	13.550	947.683	709.057
158.833	13.594	946.959	708.641
159.848	13.512	946.025	707.530
160.862	13.645	944.626	706.987
161.877	13.413	944.279	705.674
162.892	13.519	943.541	705.515
163.906	13.455	942.235	704.205
164.921	13.465	941.833	703.883
165.935	13.577	940.551	703.337
166.950	13.539	939.813	702.561
167.964	13.668	939.072	702.492
168.979	13.728	937.976	701.863
169.994	13.616	937.540	701.002
171.008	13.566	937.395	700.622
172.023	13.688	936.218	700.193
173.037	13.734	935.732	699.961
174.052	13.711	934.744	699.065
175.067	13.494	934.095	697.604
176.081	13.738	933.496	698.122
177.096	13.598	933.491	697.468
178.110	13.624	932.702	696.925
179.125	13.658	932.020	696.498
180.140	13.601	931.381	695.719
181.154	13.642	931.403	695.847
182.169	13.877	930.360	695.989
183.183	14.048	929.305	695.853
184.198	13.978	928.993	695.267
185.213	13.966	928.204	694.565
186.227	14.094	927.184	694.272
187.242	13.872	926.896	693.071
188.256	13.979	926.216	692.948
189.271	13.868	925.534	691.912
190.286	13.691	925.247	690.900
191.300	13.820	923.992	690.438
192.315	13.797	923.409	689.845
193.329	13.717	922.951	689.111
194.344	13.885	922.077	689.095
195.359	13.936	920.922	688.383
196.373	13.994	920.786	688.461
197.388	13.985	920.622	688.236
198.402	14.028	920.188	688.032
199.417	14.025	919.380	687.354
200.432	14.074	918.756	687.030
201.446	14.029	918.402	686.517
202.461	14.182	918.059	686.833
203.475	14.185	917.290	686.210
204.490	14.160	916.136	685.182
205.504	14.101	915.432	684.351
206.519	14.165	915.198	684.380
207.534	14.170	914.115	683.529
208.548	14.003	913.815	682.560
209.563	14.169	913.034	682.595
210.577	14.199	912.155	682.001
211.592	14.102	911.671	681.181
212.607	14.187	910.929	680.915
213.621	14.264	909.772	680.303
214.636	14.363	909.219	680.235
215.650	14.347	908.669	679.696
216.665	14.481	907.502	679.309
217.680	14.343	907.281	678.521
218.694	14.372	906.790	678.214
219.709	14.401	905.976	677.662
220.723	14.347	905.481	677.015
221.738	14.248	904.901	676.116
222.753	14.339	904.185	675.892
223.767	14.376	903.325	675.341
224.782	14.389	903.066	675.140
225.796	14.537	902.492	675.249
226.811	14.383	901.885	674.111
227.826	14.527	901.094	674.044
228.840	14.505	900.225	673.245
229.855	14.388	899.633	672.269
230.869	14.472	898.373	671.610
231.884	14.537	897.974	671.510
232.899	14.525	896.899	670.599
233.913	14.598	896.737	670.715
234.928	14.354	896.405	669.426
235.942	14.455	895.800	669.318
236.957	14.531	895.032	668.990
237.972	14.556	894.342	668.516
238.986	14.475	893.862	667.776
240.001	14.590	893.014	667.544
241.015	14.680	892.379	667.366
242.030	14.493	892.176	666.410
243.045	14.616	891.490	666.330
244.059	14.707	890.584	665.957
245.074	14.648	889.951	665.188
246.088	14.694	889.386	664.891
247.103	14.719	888.794	664.491
248.117	14.581	888.305	663.517
249.132	14.765	887.821	663.826
250.147	14.966	886.575	663.633
251.161	14.933	886.133	663.113
252.176	14.987	885.678	662.931
253.190	14.937	884.909	662.095
254.205	14.995	884.433	661.913
255.220	14.940	883.369	660.839
256.234	15.029	882.687	660.622
257.249	15.095	882.219	660.471
258.263	15.055	881.257	659.538
259.278	15.061	881.169	659.437
260.293	14.963	880.455	658.457
261.307	15.030	879.773	658.153
262.322	14.939	879.331	657.406
263.336	15.266	878.139	657.739
264.351	15.125	877.705	656.802
265.366	15.294	876.988	656.871
266.380	15.166	876.809	656.177
267.395	15.310	875.504	655.707
268.409	15.228	875.084	655.013
269.424	15.187	873.974	653.965
270.439	15.086	873.597	653.231
271.453	15.282	872.678	653.250
272.468	15.185	872.341	652.560
273.482	15.277	871.450	652.197
274.497	15.347	870.958	652.041
275.512	15.308	870.711	651.648
276.526	15.185	870.371	650.858
277.541	15.308	869.393	650.546
278.555	15.487	868.559	650.557
279.570	15.362	868.501	649.975
280.585	15.388	867.460	649.238
281.599	15.247	866.946	648.250
282.614	15.476	866.123	648.459
283.628	15.336	865.509	647.403
284.643	15.329	865.010	646.948
285.657	15.404	864.445	646.755
286.672	15.391	863.752	646.128
287.687	15.413	863.169	645.722
288.701	15.474	862.488	645.390
289.716	15.605	861.826	645.339
290.730	15.482	861.252	644.380
291.745	15.493	860.808	644.034
292.760	15.548	860.133	643.684
293.774	15.543	859.438	643.086
294.789	15.598	858.610	642.621
295.803	15.588	858.127	642.163
296.818	15.613	857.503	641.737
297.833	15.710	856.640	641.403
298.847	15.592	856.047	640.451
299.862	15.593	855.827	640.233
300.876	15.668	855.361	640.117
301.891	15.721	854.636	639.720
302.906	15.783	854.134	639.519
303.920	15.685	853.556	638.660
304.935	15.816	853.211	638.843
305.949	15.830	852.478	638.289
306.964	15.694	851.998	637.360
307.979	15.798	851.152	637.064
308.993	15.823	850.911	636.922
310.008	15.842	850.291	636.474
311.022	15.981	849.245	636.158
312.037	15.820	848.781	635.147
313.052	15.833	848.492	634.925
314.066	15.742	847.742	633.964
315.081	15.707	847.532	633.616
316.095	16.009	846.282	633.764
317.110	15.872	845.914	632.915
318.125	15.808	845.656	632.428
319.139	15.882	844.761	631.978
320.154	15.894	844.588	631.840
321.168	15.922	844.004	631.450
322.183	15.910	843.441	630.927
323.197	15.887	843.137	630.560
324.212	15.969	842.453	630.298
325.227	15.953	841.975	629.827
326.241	16.083	840.989	629.518
327.256	16.185	840.548	629.513
328.270	16.031	840.046	628.506
329.285	15.974	839.148	627.567
330.300	15.978	838.755	627.232
331.314	16.100	838.132	627.164
332.329	16.001	838.155	626.759
333.343	16.039	837.439	626.308
334.358	16.218	836.724	626.384
335.373	16.222	836.603	626.250
336.387	16.137	836.312	625.662
337.402	16.276	836.070	625.941
338.416	16.074	836.070	625.137
339.431	16.134	835.321	624.744
340.446	16.286	834.797	624.861
341.460	16.254	834.555	624.505
342.475	16.288	834.099	624.234
343.489	16.278	833.406	623.623
344.504	16.318	833.144	623.519
345.519	16.469	831.985	623.153
346.533	16.385	832.183	622.939
347.548	16.198	831.654	621.798
348.562	16.320	831.321	621.943
349.577	16.234	830.508	620.965
350.592	16.367	829.661	620.766
351.606	16.305	829.069	620.038
352.621	16.256	828.624	619.471
353.635	16.337	827.811	619.106
354.650	16.377	827.441	618.920
355.665	16.416	826.552	618.344
356.679	16.545	826.006	618.353
357.694	16.512	825.278	617.633
358.708	16.565	824.798	617.411
359.723	16.581	824.178	616.952
360.738	16.502	823.600	616.175
361.752	16.504	822.887	615.594
362.767	16.562	822.637	615.566
363.781	16.668	821.782	615.255
364.796	16.584	821.899	614.982
365.810	16.655	821.394	614.809
366.825	16.819	820.743	614.863
367.840	16.780	820.406	614.416
368.854	16.797	820.384	614.405
369.869	16.652	819.908	613.470
370.883	16.769	819.450	613.495
371.898	16.783	818.695	612.928
372.913	16.762	818.238	612.456
373.927	16.853	817.793	612.395
374.942	16.877	817.458	612.179
375.956	16.943	817.123	612.112
376.971	16.892	816.692	611.551
377.986	16.937	816.160	611.259
379.000	16.977	816.005	611.233
380.015	17.072	814.909	610.700
381.029	16.976	814.512	610.004
382.044	17.011	814.123	609.786
383.059	17.052	813.477	609.392
384.073	17.000	812.589	608.489
385.088	17.029	812.193	608.240
386.102	17.017	811.717	607.789
387.117	16.995	811.279	607.327
388.132	16.943	810.810	606.736
389.146	17.013	810.153	606.440
390.161	17.198	809.245	606.368
391.175	17.174	809.167	606.172
392.190	17.053	808.659	605.305
393.205	16.924	808.287	604.512
394.219	16.999	808.154	604.626
395.234	17.018	807.579	604.214
396.248	17.099	807.200	604.161
397.263	17.098	806.652	603.695
398.278	17.168	805.974	603.384
399.292	17.072	806.022	603.026
400.307	17.114	805.236	602.531
401.321	17.382	804.336	602.755
402.336	17.146	804.287	601.831
403.350	17.139	804.343	601.793
404.365	17.208	803.504	601.355
405.380	17.349	802.712	601.209
406.394	17.338	802.274	600.790
407.409	17.310	801.905	600.361
408.423	17.417	801.666	600.507
409.438	17.475	801.261	600.353
410.453	17.518	800.996	600.255
411.467	17.459	800.641	599.725
412.482	17.504	800.238	599.531
413.496	17.594	799.908	599.546
414.511	17.558	799.527	599.082
415.526	17.536	799.151	598.668
416.540	17.626	798.123	598.163
417.555	17.776	797.677	598.301
418.569	17.524	797.565	597.280
419.584	17.550	797.157	597.014
420.599	17.631	796.807	596.983
421.613	114.018	1298.100	1487.249
422.628	98.209	1371.082	1487.322
