DTS Sentinel unit serial number:	SN413079Multiplexer serial number:	ORYXHardware model number:	OX4-SRSoftware version number:	ORYX F/W v4.00 Oryx Data Collector v3.7.2.0data status	okinstallation	princeton_trtdifferential loss correction	single-endedforward channel	channel 1reverse channel	N/Adate	2019/09/12time	23:38:35forward acquisition time	60.00reverse acquisition time	0.00gamma	496.2192k internal	0.2328k external	0.2328temperature offset calibration	1.0148default loss term (dB/km)	0.3790temperature slope calibration	1.0000multiplexer offset coefficient	1.0000multiplexer slope coefficient	1.0000fibre end	0.00T internal ref (°C)	28.87T ext. ref 1 (°C)	3.78T ext. ref 2 (°C)	23.57length (m)	temperature (°C)	Stokes	anti-Stokes-747.200	228.026	0.153	-0.252
-746.185	-79.273	0.178	-0.061
-745.171	306.786	0.131	0.247
-744.156	331.785	0.152	0.295
-743.142	-200.000	0.016	-0.097
-742.127	187.048	-0.155	-0.233
-741.112	53.776	0.205	-0.199
-740.098	-52.340	-0.065	0.030
-739.083	-36.676	-0.174	-0.094
-738.069	49.195	-0.067	0.063
-737.054	-200.000	-0.031	-0.182
-736.039	-91.064	-0.204	-0.059
-735.025	-18.633	0.183	0.115
-734.010	-103.216	-0.247	0.059
-732.996	-200.000	-0.019	0.387
-731.981	-77.753	-0.164	-0.057
-730.966	195.534	-0.031	-0.047
-729.952	800.000	0.103	-0.386
-728.937	800.000	0.047	0.165
-727.923	-42.180	0.260	0.134
-726.908	-75.192	-0.322	-0.116
-725.894	296.044	-0.002	-0.003
-724.879	24.012	-0.094	-0.078
-723.864	-200.000	-0.025	-0.228
-722.850	-17.108	-0.168	-0.107
-721.835	-168.667	0.142	0.005
-720.821	108.817	-0.176	0.212
-719.806	-9.593	-0.119	0.080
-718.791	-128.014	-0.219	0.032
-717.777	-105.087	-0.237	-0.055
-716.762	-200.000	-0.037	0.221
-715.748	346.867	0.088	0.174
-714.733	-142.391	-0.129	-0.013
-713.718	147.618	-0.252	-0.342
-712.704	3.520	-0.083	0.061
-711.689	-155.199	-0.329	0.022
-710.675	-186.825	0.273	-0.004
-709.660	-45.532	-0.324	-0.161
-708.645	-42.219	0.037	-0.019
-707.631	-200.000	0.007	0.066
-706.616	353.429	-0.037	-0.074
-705.602	-25.616	0.382	-0.227
-704.587	800.000	-0.062	0.207
-703.572	-45.375	-0.227	-0.113
-702.558	800.000	-0.109	-0.339
-701.543	343.918	0.060	0.119
-700.529	-200.000	-0.016	-0.103
-699.514	-200.000	0.005	0.110
-698.499	357.270	0.087	-0.174
-697.485	-137.395	-0.228	-0.026
-696.470	-63.922	-0.105	0.043
-695.456	-77.313	0.325	-0.114
-694.441	71.691	0.277	0.290
-693.426	106.737	0.024	0.029
-692.412	69.464	-0.150	0.155
-691.397	391.435	0.025	0.052
-690.383	228.541	-0.276	0.452
-689.368	716.615	-0.086	-0.230
-688.354	199.149	0.104	0.160
-687.339	573.555	-0.113	0.277
-686.324	479.048	-0.124	0.283
-685.310	-200.000	-0.049	-0.253
-684.295	-28.481	0.136	-0.079
-683.281	72.566	0.108	0.113
-682.266	130.893	-0.122	0.157
-681.251	316.766	-0.123	-0.234
-680.237	800.000	-0.046	0.152
-679.222	-21.822	0.178	0.109
-678.208	224.848	-0.173	0.281
-677.193	800.000	0.059	-0.256
-676.178	131.420	0.030	-0.038
-675.164	101.821	0.129	-0.151
-674.149	-80.853	-0.124	-0.041
-673.135	-200.000	-0.015	-0.248
-672.120	-82.984	-0.180	0.058
-671.105	-200.000	0.003	-0.372
-670.091	-200.000	0.003	0.098
-669.076	180.125	0.154	-0.227
-668.062	142.879	-0.342	-0.457
-667.047	246.518	0.143	-0.243
-666.032	82.209	0.092	-0.100
-665.018	-120.550	-0.089	-0.015
-664.003	26.888	-0.150	-0.126
-662.989	-150.889	-0.072	0.005
-661.974	-53.335	0.061	0.028
-660.959	158.365	0.243	-0.339
-659.945	68.310	-0.034	-0.035
-658.930	-12.073	0.300	-0.197
-657.916	166.453	0.227	-0.323
-656.901	-121.011	0.096	0.016
-655.886	-115.643	-0.293	-0.055
-654.872	-122.221	0.161	-0.026
-653.857	800.000	-0.053	0.161
-652.843	800.000	-0.070	-0.231
-651.828	436.701	-0.047	0.103
-650.814	355.990	-0.071	0.142
-649.799	541.366	-0.118	0.282
-648.784	-152.662	-0.291	-0.021
-647.770	-200.000	0.051	0.299
-646.755	-191.973	-0.224	0.002
-645.741	202.253	-0.076	-0.117
-644.726	-113.699	0.104	-0.020
-643.711	-85.987	-0.231	-0.072
-642.697	-23.293	0.109	0.066
-641.682	475.672	0.060	0.136
-640.668	-200.000	-0.030	-0.356
-639.653	-200.000	-0.022	-0.269
-638.638	-105.754	-0.347	-0.079
-637.624	-100.727	-0.222	0.055
-636.609	-200.000	0.087	-0.424
-635.595	448.574	-0.142	0.314
-634.580	-25.679	0.146	-0.087
-633.565	87.415	-0.215	-0.239
-632.551	-200.000	0.011	-0.377
-631.536	-149.694	0.098	0.008
-630.522	800.000	0.013	-0.053
-629.507	-200.000	-0.023	0.199
-628.492	800.000	-0.065	0.219
-627.478	800.000	0.083	0.330
-626.463	-125.437	0.401	0.061
-625.449	131.925	0.041	-0.053
-624.434	-168.330	-0.385	-0.015
-623.419	7.255	0.143	0.107
-622.405	67.424	-0.275	-0.282
-621.390	3.235	-0.196	-0.143
-620.376	-189.243	0.158	0.002
-619.361	1.407	0.142	-0.103
-618.346	-140.129	0.282	0.030
-617.332	-34.170	-0.170	-0.094
-616.317	1.303	-0.076	0.055
-615.303	-22.276	-0.131	0.080
-614.288	194.728	-0.179	-0.273
-613.273	546.733	-0.139	-0.333
-612.259	-133.842	0.162	-0.020
-611.244	800.000	0.068	-0.263
-610.230	273.211	0.166	0.294
-609.215	-119.754	-0.370	-0.064
-608.201	-87.546	-0.195	-0.059
-607.186	209.500	-0.186	-0.293
-606.171	-200.000	-0.005	-0.362
-605.157	58.456	0.246	0.242
-604.142	-200.000	0.044	-0.327
-603.128	-154.732	-0.368	0.024
-602.113	-59.713	-0.208	0.089
-601.098	614.806	-0.185	-0.464
-600.084	-7.442	-0.080	0.054
-599.069	551.122	-0.036	-0.088
-598.055	-147.664	0.080	-0.007
-597.040	-104.401	-0.148	0.034
-596.025	-60.780	0.358	-0.152
-595.011	-21.394	-0.171	-0.105
-593.996	25.274	0.143	0.119
-592.982	91.733	-0.078	0.088
-591.967	64.071	-0.228	-0.230
-590.952	-108.696	-0.077	0.016
-589.938	139.697	0.048	0.064
-588.923	86.502	0.036	-0.040
-587.909	-49.226	0.190	0.091
-586.894	53.109	0.118	-0.113
-585.879	-200.000	-0.012	0.142
-584.865	1.469	0.142	0.102
-583.850	274.686	0.072	0.127
-582.836	-22.040	0.253	0.154
-581.821	166.614	-0.152	0.216
-580.806	120.383	0.221	0.275
-579.792	-97.420	-0.209	0.054
-578.777	45.713	-0.060	-0.056
-577.763	-146.604	-0.308	0.027
-576.748	214.145	-0.012	0.018
-575.733	-2.604	0.118	0.083
-574.719	199.573	-0.243	-0.373
-573.704	-4.964	-0.267	-0.184
-572.690	-56.725	0.144	-0.064
-571.675	-61.768	-0.118	-0.049
-570.661	415.057	-0.149	-0.318
-569.646	-88.189	0.371	0.111
-568.631	409.374	-0.075	-0.159
-567.617	-27.908	-0.263	-0.153
-566.602	-158.409	0.437	0.025
-565.588	800.000	-0.124	0.359
-564.573	-26.611	0.192	-0.112
-563.558	-151.495	-0.019	-0.001
-562.544	-170.793	-0.427	0.015
-561.529	-41.999	-0.067	-0.034
-560.515	-107.702	0.357	0.078
-559.500	-200.000	-0.003	-0.172
-558.485	-89.977	-0.169	-0.049
-557.471	79.838	0.032	0.035
-556.456	-163.407	0.308	0.015
-555.442	-127.631	-0.046	0.007
-554.427	-200.000	0.005	0.127
-553.412	378.277	-0.053	0.109
-552.398	-71.579	-0.313	0.117
-551.383	172.221	-0.045	0.064
-550.369	-80.597	0.219	0.073
-549.354	10.281	0.182	0.139
-548.339	374.422	-0.047	0.095
-547.325	398.918	-0.053	0.111
-546.310	-30.274	-0.185	0.105
-545.296	-200.000	-0.003	-0.194
-544.281	217.376	-0.116	0.184
-543.266	41.928	0.149	0.136
-542.252	-82.428	0.358	-0.116
-541.237	3.145	-0.142	0.103
-540.223	-200.000	-0.006	0.382
-539.208	-200.000	0.059	-0.369
-538.193	-100.648	0.225	-0.056
-537.179	49.091	-0.212	-0.199
-536.164	220.388	-0.110	0.175
-535.150	-200.000	0.052	0.265
-534.135	-21.338	0.130	-0.080
-533.121	130.061	-0.129	0.165
-532.106	298.781	0.112	0.205
-531.091	221.164	-0.065	-0.105
-530.077	118.951	0.042	-0.052
-529.062	302.864	0.054	0.099
-528.048	15.183	0.043	0.034
-527.033	84.234	0.125	-0.137
-526.018	-119.281	-0.118	-0.020
-525.004	142.492	0.101	0.134
-523.989	-200.000	0.003	-0.038
-522.975	-159.667	-0.200	-0.011
-521.960	200.943	-0.071	0.109
-520.945	-64.487	0.119	0.048
-519.931	-36.536	0.064	0.035
-518.916	-67.373	-0.030	0.012
-517.902	546.097	0.147	-0.351
-516.887	80.152	-0.034	0.037
-515.872	-200.000	0.025	0.169
-514.858	-53.748	0.106	0.048
-513.843	121.640	-0.151	0.188
-512.829	-200.000	0.012	0.439
-511.814	-200.000	0.003	0.052
-510.799	-170.686	-0.102	0.004
-509.785	38.367	0.160	-0.142
-508.770	-100.813	-0.090	-0.022
-507.756	-30.055	-0.268	-0.152
-506.741	-200.000	0.008	-0.170
-505.726	-77.318	0.171	0.059
-504.712	3.018	0.324	0.235
-503.697	-200.000	-0.019	-0.110
-502.683	-27.674	0.171	0.099
-501.668	442.422	-0.235	-0.514
-500.653	-200.000	0.004	0.207
-499.639	-62.819	-0.262	0.108
-498.624	-35.465	-0.125	-0.068
-497.610	800.000	-0.039	-0.147
-496.595	-28.444	0.177	-0.102
-495.581	67.529	0.119	-0.121
-494.566	-41.300	-0.042	-0.022
-493.551	-123.289	-0.401	0.064
-492.537	66.477	0.051	-0.051
-491.522	99.387	0.212	0.245
-490.508	420.236	-0.109	-0.234
-489.493	-72.919	-0.264	-0.097
-488.478	134.046	-0.097	-0.125
-487.464	-87.456	-0.182	0.055
-486.449	-200.000	-0.039	0.235
-485.435	184.597	0.076	-0.112
-484.420	24.143	0.169	-0.139
-483.405	800.000	0.079	-0.329
-482.391	-45.724	0.105	-0.052
-481.376	-6.376	-0.177	0.120
-480.362	55.511	-0.324	-0.313
-479.347	36.461	-0.071	0.062
-478.332	800.000	-0.145	-0.493
-477.318	-4.729	0.081	0.056
-476.303	-142.485	0.151	0.015
-475.289	-83.367	0.140	0.045
-474.274	158.341	0.126	-0.174
-473.259	78.504	-0.158	0.169
-472.245	100.508	0.075	0.086
-471.230	-200.000	0.004	-0.035
-470.216	-200.000	0.004	0.151
-469.201	-82.541	-0.142	-0.046
-468.186	28.856	-0.164	0.139
-467.172	-95.364	0.173	-0.046
-466.157	365.273	0.047	-0.095
-465.143	-88.531	0.175	0.052
-464.128	132.168	-0.076	-0.098
-463.113	52.037	-0.095	-0.090
-462.099	-146.292	-0.096	-0.008
-461.084	-139.928	-0.220	-0.023
-460.070	-24.729	-0.306	0.182
-459.055	-142.098	-0.199	-0.020
-458.040	280.089	0.109	-0.195
-457.026	-200.000	-0.050	-0.271
-456.011	190.908	0.139	-0.208
-454.997	-200.000	0.029	-0.209
-453.982	271.232	0.136	0.239
-452.968	-58.535	0.174	-0.075
-451.953	-117.346	-0.087	-0.016
-450.938	22.679	-0.089	0.073
-449.924	-188.707	0.323	0.004
-448.909	-200.000	0.011	-0.057
-447.895	800.000	-0.023	0.085
-446.880	484.049	0.077	-0.174
-445.865	-123.699	-0.220	0.035
-444.851	-102.023	0.137	0.033
-443.836	243.397	-0.132	0.221
-442.822	-83.400	-0.095	0.030
-441.807	-138.008	0.281	-0.031
-440.792	-118.391	0.194	0.034
-439.778	-41.346	0.201	-0.103
-438.763	290.053	-0.091	0.164
-437.749	102.003	0.018	-0.021
-436.734	-81.718	-0.085	-0.028
-435.719	184.130	-0.145	0.214
-434.705	50.334	0.197	0.185
-433.690	-117.356	-0.287	-0.052
-432.676	26.015	0.290	0.241
-431.661	800.000	0.091	-0.281
-430.646	-149.670	-0.134	-0.011
-429.632	-90.019	0.138	0.040
-428.617	800.000	0.039	0.116
-427.603	800.000	0.015	-0.046
-426.588	800.000	0.070	0.220
-425.573	-200.000	0.013	-0.077
-424.559	-48.624	-0.313	-0.150
-423.544	-71.400	-0.105	-0.039
-422.530	-200.000	0.018	0.199
-421.515	209.763	0.100	0.155
-420.500	-33.909	0.033	0.018
-419.486	40.252	0.045	0.040
-418.471	-64.172	0.204	-0.083
-417.457	354.532	0.095	-0.188
-416.442	800.000	-0.006	-0.023
-415.428	-200.000	0.068	-0.315
-414.413	-42.175	0.201	-0.102
-413.398	-89.050	-0.212	0.062
-412.384	489.325	0.075	-0.171
-411.369	58.162	-0.262	0.256
-410.355	-7.085	-0.187	0.126
-409.340	39.996	-0.230	0.205
-408.325	-47.294	-0.125	-0.061
-407.311	-96.864	-0.063	-0.016
-406.296	668.451	-0.059	0.152
-405.282	-173.437	0.235	0.007
-404.267	-41.977	0.156	0.079
-403.252	-138.693	-0.121	0.013
-402.238	526.908	-0.134	-0.314
-401.223	-140.114	-0.107	-0.011
-400.209	368.459	-0.077	-0.154
-399.194	46.986	0.291	0.269
-398.179	362.094	0.066	-0.132
-397.165	800.000	0.048	0.176
-396.150	-183.028	0.152	0.003
-395.136	445.142	-0.032	-0.069
-394.121	-200.000	0.023	0.339
-393.106	92.910	0.185	0.208
-392.092	-41.952	0.074	-0.038
-391.077	800.000	0.057	-0.168
-390.063	-121.232	-0.340	0.057
-389.048	102.147	0.054	-0.063
-388.033	-108.369	0.157	-0.034
-387.019	800.000	0.065	0.263
-386.004	-70.683	-0.352	-0.132
-384.990	800.000	0.115	0.466
-383.975	800.000	0.099	0.314
-382.960	-200.000	-0.009	-0.096
-381.946	-119.931	0.286	0.049
-380.931	48.929	-0.091	-0.085
-379.917	38.381	0.164	-0.145
-378.902	-200.000	0.067	0.347
-377.888	-108.084	0.351	-0.076
-376.873	134.804	0.161	0.208
-375.858	-168.458	-0.401	-0.015
-374.844	45.325	-0.083	0.076
-373.829	22.870	0.354	-0.288
-372.815	-9.047	-0.208	0.138
-371.800	800.000	0.013	-0.039
-370.785	-200.000	0.072	0.392
-369.771	276.092	0.048	-0.085
-368.756	-113.573	-0.233	-0.045
-367.742	-127.777	-0.226	0.032
-366.727	800.000	-0.068	0.214
-365.712	35.928	0.309	-0.270
-364.698	-20.755	-0.180	-0.109
-363.683	95.513	-0.189	0.214
-362.669	-101.933	-0.037	-0.009
-361.654	-20.471	0.193	0.118
-360.639	-89.115	-0.304	-0.089
-359.625	144.918	0.166	0.220
-358.610	119.252	0.122	-0.149
-357.596	-200.000	0.008	0.162
-356.581	321.232	0.108	0.204
-355.566	317.467	0.163	-0.307
-354.552	-156.925	-0.047	-0.003
-353.537	-200.000	0.027	0.125
-352.523	143.582	-0.168	0.222
-351.508	-127.042	-0.131	0.019
-350.493	-72.229	0.155	-0.057
-349.479	-200.000	0.002	0.239
-348.464	-9.073	-0.207	-0.137
-347.450	242.325	-0.116	0.193
-346.435	800.000	-0.012	0.052
-345.420	438.952	-0.077	-0.167
-344.406	-91.896	-0.279	-0.079
-343.391	0.039	0.323	-0.228
-342.377	-141.568	0.143	-0.014
-341.362	52.301	0.164	0.155
-340.348	-107.862	0.138	0.030
-339.333	-200.000	0.247	0.001
-338.318	-139.777	-0.112	-0.012
-337.304	84.634	0.104	-0.113
-336.289	595.591	-0.144	-0.353
-335.275	76.126	0.153	-0.161
-334.260	-73.675	0.177	0.064
-333.245	449.216	-0.059	0.130
-332.231	-80.375	0.034	-0.011
-331.216	49.640	-0.032	0.030
-330.202	-59.734	0.317	-0.135
-329.187	800.000	-0.161	0.464
-328.172	-160.133	0.029	0.002
-327.158	-124.848	0.431	-0.066
-326.143	800.000	-0.041	0.155
-325.129	-74.024	0.107	0.039
-324.114	219.692	0.089	0.141
-323.099	25.492	-0.135	-0.111
-322.085	-118.391	0.240	0.042
-321.070	33.770	-0.128	0.111
-320.056	-116.003	-0.205	0.038
-319.041	-200.000	-0.004	-0.056
-318.026	0.294	-0.244	-0.173
-317.012	800.000	-0.067	0.196
-315.997	-37.921	0.192	-0.101
-314.983	522.561	-0.166	-0.385
-313.968	-3.878	0.355	-0.244
-312.953	332.193	-0.181	0.346
-311.939	273.643	-0.090	-0.157
-310.924	195.685	-0.196	-0.295
-309.910	-84.678	-0.159	-0.050
-308.895	-98.412	0.091	-0.023
-307.880	-31.027	0.087	-0.049
-306.866	-94.522	0.102	0.028
-305.851	-107.433	0.218	-0.047
-304.837	-200.000	0.018	-0.163
-303.822	-200.000	-0.032	-0.230
-302.807	45.632	-0.186	-0.170
-301.793	36.038	0.033	0.029
-300.778	-200.000	-0.021	0.246
-299.764	-190.380	0.059	-0.001
-298.749	-200.000	0.008	0.135
-297.735	-200.000	0.025	-0.154
-296.720	-154.773	0.251	0.016
-295.705	-200.000	-0.023	0.222
-294.691	-200.000	0.020	-0.274
-293.676	46.288	-0.207	0.190
-292.662	368.931	-0.178	0.357
-291.647	8.190	0.023	-0.017
-290.632	-121.522	0.079	0.013
-289.618	-200.000	0.001	-0.068
-288.603	257.467	0.105	-0.179
-287.589	201.807	0.272	-0.415
-286.574	800.000	-0.033	-0.106
-285.559	64.518	0.069	-0.069
-284.545	105.777	-0.325	0.380
-283.530	-139.909	0.264	-0.028
-282.516	43.756	-0.196	-0.178
-281.501	205.588	-0.090	-0.138
-280.486	800.000	-0.045	0.153
-279.472	-30.323	-0.159	0.090
-278.457	64.620	0.171	0.170
-277.443	-54.367	0.307	0.138
-276.428	-26.645	-0.147	0.085
-275.413	279.177	0.077	0.135
-274.399	103.567	0.024	-0.028
-273.384	-200.000	0.019	0.308
-272.370	55.277	-0.199	0.191
-271.355	-200.000	-0.037	-0.246
-270.340	31.564	0.159	-0.135
-269.326	-200.000	-0.015	-0.088
-268.311	748.860	-0.138	0.368
-267.297	-101.215	0.173	-0.042
-266.282	-108.318	-0.099	-0.021
-265.267	578.816	0.016	-0.040
-264.253	167.279	-0.176	-0.248
-263.238	-91.965	0.170	-0.048
-262.224	80.604	-0.149	0.159
-261.209	26.192	-0.148	0.122
-260.195	-34.907	-0.059	-0.032
-259.180	60.777	-0.205	-0.201
-258.165	-200.000	-0.009	0.166
-257.151	84.607	0.278	0.301
-256.136	23.098	-0.178	0.144
-255.122	539.394	0.090	0.212
-254.107	545.240	0.141	-0.332
-253.092	-40.512	-0.091	-0.046
-252.078	570.744	0.181	0.435
-251.063	800.000	-0.048	0.166
-250.049	390.647	0.165	-0.339
-249.034	189.405	-0.111	-0.165
-248.019	-3.928	0.048	-0.033
-247.005	722.537	0.085	0.223
-245.990	-113.288	0.224	-0.043
-244.976	-141.585	0.137	-0.014
-243.961	-160.564	-0.087	0.005
-242.946	800.000	-0.045	-0.135
-241.932	800.000	-0.014	-0.059
-240.917	-81.116	-0.334	-0.109
-239.903	800.000	-0.021	0.065
-238.888	-105.555	-0.371	0.083
-237.873	-150.835	0.321	-0.024
-236.859	-79.748	0.195	-0.065
-235.844	-40.533	0.170	-0.087
-234.830	-200.000	0.017	0.315
-233.815	-1.875	0.248	-0.172
-232.800	0.330	-0.242	-0.170
-231.786	-51.693	0.447	0.206
-230.771	-38.570	0.241	0.126
-229.757	-108.248	-0.095	-0.020
-228.742	-52.029	-0.162	-0.074
-227.727	-200.000	-0.054	0.314
-226.713	216.174	-0.057	0.090
-225.698	220.784	-0.137	0.216
-224.684	5.045	0.186	-0.135
-223.669	41.296	-0.072	0.065
-222.655	800.000	0.046	0.176
-221.640	800.000	-0.067	0.184
-220.625	159.285	0.113	0.156
-219.611	-79.983	0.286	-0.095
-218.596	-68.091	-0.239	0.092
-217.582	87.569	0.053	-0.058
-216.567	-140.066	-0.521	-0.054
-215.552	-200.000	0.043	0.247
-214.538	21.857	0.181	0.146
-213.523	-66.563	-0.144	0.057
-212.509	-200.000	0.005	-0.150
-211.494	-61.931	-0.070	0.029
-210.479	-104.613	0.443	-0.101
-209.465	71.214	0.090	-0.092
-208.450	48.879	-0.139	-0.129
-207.436	-34.868	0.069	-0.037
-206.421	71.867	-0.112	-0.115
-205.406	-200.000	-0.090	-0.550
-204.392	-32.117	-0.102	-0.056
-203.377	-200.000	-0.001	0.278
-202.363	-75.677	-0.095	0.033
-201.348	10.961	0.203	0.153
-200.333	-132.231	0.348	0.044
-199.319	-75.180	-0.066	-0.023
-198.304	415.163	-0.109	0.228
-197.290	67.561	0.168	-0.169
-196.275	-48.199	-0.179	-0.085
-195.260	387.881	-0.113	0.231
-194.246	-125.374	-0.263	-0.040
-193.231	-103.506	0.100	-0.023
-192.217	-37.514	-0.071	0.037
-191.202	-200.000	-0.022	-0.233
-190.187	330.312	0.277	-0.526
-189.173	-42.331	-0.063	0.032
-188.158	-42.595	-0.215	-0.108
-187.144	128.406	0.108	0.135
-186.129	67.873	0.106	-0.107
-185.114	21.823	0.107	-0.086
-184.100	-123.849	0.079	-0.012
-183.085	298.381	0.077	-0.140
-182.071	57.034	0.368	0.354
-181.056	-115.182	-0.180	0.034
-180.042	800.000	0.009	0.026
-179.027	-110.909	-0.119	-0.024
-178.012	-114.116	0.034	-0.007
-176.998	800.000	0.033	-0.090
-175.983	85.670	0.059	0.064
-174.969	167.620	0.108	0.152
-173.954	-99.156	0.164	-0.041
-172.939	268.548	0.061	-0.106
-171.925	-37.830	0.341	0.179
-170.910	-124.145	0.313	0.048
-169.896	800.000	-0.073	0.215
-168.881	-171.565	-0.422	-0.014
-167.866	-200.000	0.004	-0.217
-166.852	221.451	-0.275	-0.435
-165.837	89.007	0.181	-0.198
-164.823	153.367	-0.223	-0.301
-163.808	478.528	-0.046	0.103
-162.793	-15.012	0.138	-0.087
-161.779	800.000	0.025	-0.095
-160.764	-200.000	0.008	-0.039
-159.750	-200.000	-0.012	0.307
-158.735	-200.000	-0.036	0.359
-157.720	-109.575	-0.203	0.042
-156.706	150.641	0.137	-0.184
-155.691	99.389	0.189	-0.215
-154.677	45.378	0.105	0.095
-153.662	-113.677	-0.151	0.029
-152.647	-146.883	0.030	0.003
-151.633	-200.000	0.002	0.142
-150.618	-181.962	0.150	-0.003
-149.604	247.663	-0.144	0.240
-148.589	-200.000	0.014	-0.299
-147.574	-10.011	0.141	-0.092
-146.560	-20.870	0.295	0.178
-145.545	-200.000	0.020	-0.335
-144.531	258.566	-0.079	-0.134
-143.516	-146.390	0.185	-0.016
-142.502	31.339	-0.276	0.233
-141.487	128.769	-0.055	0.070
-140.472	800.000	0.128	0.420
-139.458	800.000	-0.096	-0.377
-138.443	800.000	-0.049	-0.200
-137.429	-82.702	-0.025	-0.008
-136.414	581.165	-0.046	-0.111
-135.399	163.261	-0.237	-0.328
-134.385	-154.399	-0.202	-0.013
-133.370	19.653	0.244	-0.193
-132.356	179.362	-0.126	-0.181
-131.341	10.102	-0.095	0.071
-130.326	-200.000	0.004	-0.243
-129.312	-46.069	0.363	-0.176
-128.297	800.000	-0.049	-0.154
-127.283	-124.787	0.126	0.019
-126.268	28.888	-0.185	0.154
-125.253	-145.103	0.442	0.040
-124.239	19.630	0.244	-0.193
-123.224	-200.000	0.008	-0.075
-122.210	5.176	0.220	-0.159
-121.195	-136.001	-0.038	-0.004
-120.180	-100.240	-0.288	0.070
-119.166	800.000	0.089	-0.353
-118.151	-160.753	0.376	0.020
-117.137	-103.134	-0.175	0.041
-116.122	96.903	-0.147	0.166
-115.107	-6.746	-0.067	0.045
-114.093	-39.383	0.135	0.070
-113.078	124.011	0.225	-0.278
-112.064	24.376	-0.437	-0.355
-111.049	-200.000	-0.030	-0.296
-110.034	84.585	-0.091	0.098
-109.020	210.292	-0.160	0.246
-108.005	-200.000	-0.002	0.226
-106.991	458.753	0.033	0.073
-105.976	-200.000	0.030	-0.197
-104.962	153.022	-0.045	0.061
-103.947	800.000	-0.053	0.219
-102.932	-82.129	-0.234	-0.075
-101.918	-53.329	-0.168	0.076
-100.903	-200.000	0.001	0.057
-99.889	-200.000	-0.002	0.090
-98.874	800.000	0.056	0.170
-97.859	800.000	-0.099	0.324
-96.845	-62.547	0.283	0.116
-95.830	-95.525	-0.045	-0.012
-94.816	-200.000	0.031	0.168
-93.801	-157.371	-0.241	0.014
-92.786	800.000	-0.025	-0.085
-91.772	127.925	0.109	0.136
-90.757	30.832	-0.017	0.014
-89.743	-81.422	-0.238	-0.077
-88.728	19.104	-0.073	0.057
-87.713	-71.852	-0.343	-0.126
-86.699	210.255	0.025	0.039
-85.684	800.000	-0.024	0.077
-84.670	18.285	-0.292	0.229
-83.655	16.271	0.016	0.012
-82.640	-103.452	0.019	0.004
-81.626	-103.695	-0.212	-0.049
-80.611	186.928	-0.025	0.036
-79.597	217.567	0.089	-0.139
-78.582	-8.427	0.373	-0.246
-77.567	448.892	0.027	-0.058
-76.553	510.755	0.105	0.241
-75.538	81.592	-0.114	0.122
-74.524	388.198	-0.068	-0.138
-73.509	589.484	-0.143	0.347
-72.494	-61.858	0.172	0.071
-71.480	-36.181	-0.224	0.119
-70.465	475.726	-0.067	0.149
-69.451	11.295	0.251	0.189
-68.436	-33.879	-0.100	0.054
-67.422	-63.362	-0.269	0.109
-66.407	-15.108	0.285	-0.179
-65.392	-87.947	0.320	-0.094
-64.378	-156.159	-0.251	0.016
-63.363	-52.586	-0.243	-0.110
-62.349	101.735	-0.067	0.077
-61.334	155.150	-0.663	-0.894
-60.319	800.000	0.164	0.591
-59.305	748.657	-0.366	-0.968
-58.290	37.753	0.766	0.667
-57.276	800.000	0.455	1.283
-56.261	-200.000	110.919	611.843
-55.246	505.176	1515.782	3443.547
-54.232	177.142	2691.567	3842.824
-53.217	109.386	2150.418	2525.698
-52.203	40.348	1597.633	1410.118
-51.188	32.361	1340.807	1135.419
-50.173	29.335	1300.780	1083.731
-49.159	53.855	1356.903	1278.409
-48.144	53.542	1372.172	1290.863
-47.130	32.394	1326.249	1123.111
-46.115	29.068	1308.125	1088.098
-45.100	28.851	1303.428	1082.866
-44.086	28.757	1300.972	1080.231
-43.071	28.799	1298.680	1078.531
-42.057	28.814	1296.277	1076.583
-41.042	28.670	1295.002	1074.639
-40.027	28.799	1293.047	1073.725
-39.013	28.784	1291.321	1072.165
-37.998	28.832	1289.719	1071.071
-36.984	28.865	1287.812	1069.639
-35.969	28.885	1286.123	1068.307
-34.954	28.940	1284.327	1067.094
-33.940	28.944	1282.877	1065.869
-32.925	28.991	1281.836	1065.236
-31.911	28.852	1280.933	1063.635
-30.896	28.913	1279.267	1062.563
-29.881	28.985	1277.855	1061.761
-28.867	29.083	1275.784	1060.562
-27.852	28.939	1274.486	1058.614
-26.838	29.026	1272.634	1057.534
-25.823	28.949	1272.234	1056.718
-24.809	28.917	1270.714	1055.228
-23.794	28.922	1269.328	1054.064
-22.779	28.955	1268.123	1053.212
-21.765	29.040	1266.667	1052.446
-20.750	28.887	1265.560	1050.611
-19.736	28.918	1263.534	1049.065
-18.721	28.824	1263.272	1048.271
-17.706	28.818	1261.669	1046.866
-16.692	28.821	1261.019	1046.300
-15.677	28.757	1259.708	1044.808
-14.663	28.739	1258.967	1044.048
-13.648	28.815	1257.560	1043.274
-12.633	28.943	1256.324	1042.930
-11.619	28.782	1256.017	1041.725
-10.604	28.859	1254.985	1041.260
-9.590	28.809	1254.361	1040.420
-8.575	28.844	1253.223	1039.631
-7.560	28.784	1252.566	1038.708
-6.546	28.845	1251.275	1037.936
-5.531	28.717	1250.974	1036.927
-4.517	28.866	1249.869	1036.810
-3.502	28.849	1248.688	1035.689
-2.487	28.807	1248.125	1034.948
-1.473	28.804	1243.846	1031.341
-0.458	27.285	1228.329	1010.007
0.556	25.162	1211.173	971.333
1.571	21.415	1215.426	954.252
2.586	20.363	1230.436	960.136
3.600	20.079	1218.568	949.232
4.615	15.305	1148.120	869.576
5.629	7.578	1075.038	776.505
6.644	4.130	1056.339	746.341
7.659	3.826	1053.698	742.950
8.673	3.659	1052.106	740.960
9.688	3.497	1051.130	739.429
10.702	4.009	1049.573	740.721
11.717	9.138	1056.143	769.935
12.731	17.564	1068.028	819.224
13.746	22.345	1074.407	847.116
14.761	23.165	1074.934	851.405
15.775	22.444	1073.212	846.501
16.790	21.702	1071.516	841.528
17.804	21.217	1069.977	837.918
18.819	21.000	1069.122	836.134
19.834	21.076	1069.022	836.345
20.848	21.035	1068.388	835.577
21.863	20.906	1067.438	834.143
22.877	20.746	1066.915	832.897
23.892	20.805	1065.636	832.104
24.907	20.726	1065.024	831.176
25.921	20.756	1064.064	830.498
26.936	20.519	1062.830	828.329
27.950	20.631	1061.305	827.602
28.965	20.640	1059.976	826.535
29.980	20.974	1058.638	827.003
30.994	20.927	1058.196	826.360
32.009	21.009	1057.032	825.768
33.023	20.890	1056.120	824.422
34.038	20.706	1055.425	822.934
35.053	20.758	1053.971	821.976
36.067	20.532	1053.003	820.080
37.082	20.689	1052.150	820.082
38.096	20.851	1051.682	820.407
39.111	20.922	1050.718	819.920
40.126	20.682	1049.707	817.927
41.140	20.271	1047.632	814.312
42.155	20.149	1046.466	812.758
43.169	19.977	1045.766	811.341
44.184	20.034	1044.797	810.781
45.199	20.199	1043.733	810.658
46.213	20.271	1042.892	810.268
47.228	20.713	1042.133	811.669
48.242	20.748	1041.535	811.295
49.257	20.705	1040.796	810.446
50.271	20.824	1040.325	810.560
51.286	20.907	1039.228	810.022
52.301	20.919	1038.234	809.231
53.315	20.711	1036.858	807.120
54.330	20.435	1036.245	805.296
55.344	20.422	1035.241	804.384
56.359	20.339	1034.404	803.276
57.374	20.437	1033.394	802.874
58.388	20.108	1032.676	800.724
59.403	20.002	1031.650	799.372
60.417	20.154	1030.704	799.266
61.432	20.142	1030.397	798.904
62.447	20.027	1029.736	797.792
63.461	19.870	1028.573	796.095
64.476	19.978	1027.482	795.679
65.490	19.917	1026.817	794.810
66.505	19.802	1026.712	794.134
67.520	19.937	1025.734	793.923
68.534	19.986	1024.831	793.379
69.549	19.862	1024.017	792.111
70.563	19.637	1023.393	790.529
71.578	19.522	1022.267	789.063
72.593	19.337	1021.569	787.610
73.607	19.367	1020.802	787.089
74.622	19.449	1020.579	787.221
75.636	19.613	1019.453	787.028
76.651	19.586	1019.191	786.634
77.666	19.737	1018.594	786.789
78.680	19.682	1017.666	785.755
79.695	19.735	1017.168	785.542
80.709	19.919	1016.975	786.157
81.724	20.022	1016.121	785.896
82.739	20.328	1015.394	786.651
83.753	20.614	1015.308	787.808
84.768	21.028	1014.633	789.089
85.782	21.304	1014.008	789.781
86.797	21.324	1012.698	788.781
87.812	20.988	1011.647	786.381
88.826	20.906	1010.661	785.171
89.841	20.960	1010.102	784.914
90.855	21.069	1009.716	785.034
91.870	21.212	1008.712	784.825
92.884	21.194	1007.129	783.446
93.899	21.159	1006.300	782.574
94.914	21.073	1005.743	781.685
95.928	21.045	1004.524	780.546
96.943	20.888	1003.761	779.180
97.957	20.797	1002.836	777.988
98.972	21.007	1001.942	778.161
99.987	20.982	1001.423	777.580
101.001	20.863	1000.260	776.077
102.016	20.696	999.909	774.991
103.030	20.936	998.924	775.227
104.045	20.978	998.157	774.749
105.060	20.778	997.169	773.027
106.074	20.441	996.206	770.715
107.089	20.387	994.170	768.836
108.103	20.062	993.378	766.718
109.118	19.949	992.084	765.151
110.133	19.625	991.450	763.162
111.147	19.778	990.434	762.989
112.162	19.829	989.909	762.740
113.176	20.145	989.245	763.556
114.191	20.014	989.041	762.751
115.206	20.182	987.900	762.542
116.220	20.071	986.646	761.021
117.235	19.976	986.227	760.213
118.249	19.848	985.357	758.914
119.264	19.782	984.482	757.883
120.279	19.666	983.278	756.384
121.293	19.616	982.530	755.520
122.308	19.516	981.667	754.354
123.322	19.287	980.769	752.596
124.337	19.392	979.346	751.896
125.352	19.467	978.944	751.846
126.366	19.467	977.557	750.716
127.381	19.553	976.756	750.407
128.395	19.579	976.194	750.025
129.410	19.770	974.955	749.833
130.424	19.849	974.387	749.673
131.439	20.017	974.355	750.309
132.454	20.043	973.032	749.335
133.468	20.183	972.246	749.270
134.483	20.104	971.439	748.242
135.497	20.153	970.463	747.634
136.512	20.128	969.938	747.056
137.527	20.042	969.068	745.948
138.541	20.022	968.559	745.404
139.556	20.276	967.636	745.720
140.570	20.554	967.239	746.540
141.585	20.779	966.330	746.739
142.600	20.747	965.692	746.044
143.614	20.950	965.232	746.492
144.629	20.902	964.686	745.796
145.643	20.953	963.027	744.667
146.658	20.573	961.957	742.151
147.673	20.474	960.495	740.537
148.687	20.267	959.545	738.857
149.702	20.093	958.725	737.419
150.716	20.059	958.141	736.760
151.731	20.176	957.184	736.456
152.746	20.299	956.626	736.484
153.760	20.410	955.888	736.321
154.775	20.546	955.544	736.569
155.789	20.559	954.599	735.830
156.804	20.526	954.046	735.201
157.819	20.661	953.194	735.047
158.833	20.903	952.814	735.711
159.848	20.923	952.475	735.468
160.862	20.725	950.609	733.131
161.877	20.442	949.193	730.783
162.892	19.997	948.159	728.051
163.906	20.112	947.145	727.692
164.921	19.983	946.364	726.485
165.935	20.091	945.066	725.878
166.950	20.318	944.922	726.654
167.964	20.361	943.775	725.885
168.979	20.158	942.931	724.325
169.994	20.109	941.751	723.150
171.008	20.386	941.000	723.662
172.023	20.762	940.983	725.153
173.037	20.827	940.330	724.856
174.052	20.644	939.374	723.295
175.067	20.282	938.149	720.786
176.081	19.972	937.542	718.968
177.096	20.077	936.493	718.534
178.110	20.107	936.390	718.515
179.125	20.116	935.879	718.099
180.140	20.254	935.783	718.530
181.154	20.443	935.759	719.232
182.169	20.699	935.257	719.841
183.183	20.670	934.218	718.858
184.198	20.730	933.448	718.451
185.213	20.643	932.869	717.583
186.227	20.568	932.592	716.998
187.242	20.723	932.093	717.187
188.256	20.971	931.562	717.736
189.271	20.975	930.585	716.936
190.286	20.578	929.189	714.167
191.300	19.998	927.792	710.650
192.315	19.776	927.213	709.234
193.329	19.985	927.038	709.895
194.344	20.107	926.604	710.000
195.359	20.241	926.343	710.288
196.373	20.352	925.856	710.303
197.388	20.563	925.584	710.896
198.402	20.951	925.393	712.272
199.417	21.187	925.004	712.871
200.432	21.343	924.383	712.966
201.446	21.363	923.981	712.676
202.461	21.578	923.524	713.136
203.475	21.304	922.704	711.325
204.490	20.778	921.735	708.377
205.504	20.729	920.606	707.246
206.519	20.709	919.766	706.455
207.534	20.628	919.071	705.530
208.548	20.641	918.509	705.093
209.563	20.612	918.192	704.666
210.577	20.839	917.427	704.935
211.592	21.266	916.987	706.263
212.607	21.229	916.446	705.634
213.621	21.074	915.583	704.283
214.636	21.036	914.876	703.521
215.650	21.189	914.121	703.495
216.665	21.165	913.366	702.758
217.680	21.257	913.375	703.071
218.694	21.313	912.155	702.294
219.709	21.182	911.591	701.275
220.723	21.200	910.608	700.525
221.738	21.119	910.149	699.786
222.753	21.076	909.556	699.099
223.767	21.084	909.066	698.690
224.782	21.493	908.778	700.044
225.796	21.407	908.497	699.421
226.811	21.228	907.372	697.777
227.826	21.022	906.664	696.349
228.840	20.803	906.068	694.959
229.855	20.811	905.463	694.465
230.869	20.810	904.349	693.542
231.884	20.740	904.205	693.091
232.899	20.687	903.067	691.949
233.913	20.633	902.114	690.942
234.928	20.499	901.431	689.826
235.942	20.437	900.902	689.113
236.957	20.424	900.354	688.585
237.972	20.518	899.945	688.583
238.986	20.597	899.018	688.125
240.001	20.377	899.018	687.194
241.015	20.621	898.551	687.738
242.030	20.825	898.081	688.123
243.045	20.830	897.410	687.570
244.059	20.890	896.957	687.399
245.074	20.927	896.418	687.069
246.088	21.125	895.877	687.377
247.103	21.303	895.226	687.515
248.117	21.479	895.172	688.107
249.132	21.872	895.063	689.506
250.147	22.116	894.634	690.072
251.161	22.115	894.223	689.689
252.176	22.172	893.672	689.427
253.190	22.329	893.104	689.544
254.205	22.338	892.411	688.983
255.220	22.205	891.343	687.577
256.234	22.158	890.989	687.062
257.249	22.075	889.931	685.861
258.263	21.909	889.483	684.805
259.278	21.993	888.642	684.426
260.293	22.325	888.229	685.341
261.307	22.244	887.844	684.669
262.322	22.175	887.202	683.844
263.336	22.348	886.092	683.600
264.351	22.194	885.671	682.618
265.366	22.292	885.109	682.502
266.380	22.198	884.483	681.596
267.395	22.101	883.671	680.532
268.409	22.111	882.966	679.969
269.424	21.954	882.329	678.811
270.439	21.946	881.538	678.111
271.453	21.722	880.596	676.461
272.468	21.850	880.277	676.649
273.482	21.905	879.481	676.190
274.497	21.801	878.828	675.227
275.512	21.818	878.544	675.016
276.526	21.883	877.745	674.592
277.541	22.028	877.329	674.772
278.555	22.259	877.208	675.505
279.570	22.332	876.867	675.461
280.585	22.354	875.869	674.720
281.599	21.950	874.935	672.392
282.614	21.847	873.764	671.037
283.628	21.653	873.494	670.031
284.643	21.818	872.634	669.941
285.657	21.803	872.021	669.354
286.672	21.811	871.685	669.069
287.687	21.911	871.437	669.200
288.701	21.995	870.338	668.615
289.716	22.032	870.087	668.506
290.730	21.876	869.662	667.525
291.745	21.996	869.045	667.451
292.760	22.008	869.012	667.410
293.774	22.489	868.624	668.881
294.789	22.396	867.056	667.260
295.803	21.993	866.508	665.255
296.818	21.926	865.906	664.480
297.833	21.893	864.896	663.519
298.847	21.968	864.282	663.273
299.862	22.147	863.945	663.633
300.876	22.255	863.818	663.886
301.891	22.528	863.214	664.390
302.906	22.601	863.219	664.611
303.920	22.819	862.461	664.790
304.935	22.772	862.458	664.553
305.949	22.669	861.282	663.200
306.964	22.327	860.489	661.246
307.979	22.357	859.951	660.885
308.993	22.399	859.736	660.819
310.008	22.501	859.407	660.890
311.022	22.410	858.453	659.760
312.037	22.234	857.619	658.400
313.052	22.025	856.522	656.717
314.066	21.626	856.089	654.836
315.081	21.785	855.677	655.059
316.095	21.857	854.970	654.727
317.110	21.857	854.075	653.983
318.125	21.790	853.282	653.070
319.139	21.650	853.147	652.385
320.154	21.593	852.988	651.994
321.168	21.965	852.081	652.629
322.183	22.058	851.537	652.499
323.197	21.972	851.619	652.185
324.212	21.909	850.944	651.377
325.227	21.951	850.040	650.783
326.241	21.980	849.134	650.138
327.256	21.743	849.130	649.200
328.270	21.956	848.080	649.126
329.285	21.794	847.355	647.916
330.300	21.736	846.993	647.368
331.314	21.962	846.536	647.795
332.329	22.093	846.781	648.410
333.343	22.250	846.442	648.670
334.358	22.297	845.806	648.301
335.373	22.277	845.940	648.271
336.387	22.307	845.552	648.027
337.402	22.572	845.089	648.589
338.416	22.752	845.005	649.132
339.431	22.959	844.657	649.567
340.446	23.025	844.267	649.453
341.460	23.197	843.858	649.711
342.475	23.214	843.175	649.190
343.489	23.205	843.379	649.256
344.504	23.293	842.641	648.953
345.519	23.382	842.140	648.835
346.533	23.190	841.637	647.690
347.548	22.849	840.530	645.532
348.562	22.554	839.657	643.728
349.577	22.300	839.190	642.384
350.592	22.350	838.084	641.667
351.606	22.408	837.348	641.256
352.621	22.498	836.799	641.107
353.635	22.383	836.963	640.758
354.650	22.554	835.811	640.439
355.665	22.563	835.382	640.088
356.679	22.795	834.514	640.206
357.694	22.624	834.394	639.438
358.708	22.548	833.884	638.716
359.723	22.455	833.040	637.677
360.738	22.593	832.238	637.503
361.752	22.866	831.602	637.948
362.767	23.053	831.725	638.662
363.781	23.129	831.362	638.598
364.796	23.433	831.041	639.395
365.810	23.404	830.604	638.897
366.825	23.419	830.719	638.982
367.840	23.445	830.000	638.467
368.854	23.128	829.052	636.538
369.869	23.029	828.441	635.659
370.883	23.236	827.996	636.002
371.898	23.204	828.231	636.013
372.913	23.391	827.567	636.118
373.927	23.304	826.843	635.194
374.942	23.119	826.624	634.305
375.956	23.363	826.306	634.879
376.971	23.388	825.759	634.495
377.986	23.695	825.162	635.077
379.000	23.668	824.885	634.709
380.015	23.647	823.996	633.897
381.029	23.491	823.594	632.974
382.044	23.707	822.840	633.108
383.059	23.733	822.365	632.778
384.073	23.355	821.811	630.950
385.088	23.043	820.608	628.860
386.102	22.956	820.008	628.036
387.117	22.848	819.559	627.256
388.132	22.824	819.035	626.713
389.146	23.026	818.403	626.891
390.161	23.374	818.391	628.057
391.175	23.429	818.174	628.032
392.190	23.432	816.422	626.643
393.205	23.027	816.553	625.253
394.219	23.037	815.626	624.524
395.234	22.759	815.622	623.484
396.248	22.633	815.350	622.778
397.263	22.685	814.373	622.157
398.278	22.615	813.792	621.411
399.292	22.603	813.460	621.063
400.307	22.625	812.979	620.717
401.321	22.661	812.716	620.589
402.336	22.926	812.151	621.033
403.350	23.234	812.223	622.116
404.365	23.229	811.887	621.786
405.380	23.726	811.355	623.067
406.394	23.658	811.372	622.787
407.409	23.673	810.857	622.388
408.423	23.882	810.765	622.996
409.438	24.036	810.028	622.913
410.453	24.126	808.975	622.363
411.467	24.080	808.866	622.065
412.482	24.156	808.945	622.336
413.496	24.158	808.511	621.952
414.511	24.007	808.229	621.153
415.526	23.929	807.627	620.363
416.540	23.947	806.701	619.662
417.555	23.849	806.509	619.115
418.569	23.909	805.694	618.647
419.584	23.942	805.616	618.647
420.599	23.963	805.020	618.205
421.613	163.655	1371.802	1796.980
422.628	142.322	1454.387	1797.054
