DTS Sentinel unit serial number:	SN413079Multiplexer serial number:	ORYXHardware model number:	OX4-SRSoftware version number:	ORYX F/W v4.00 Oryx Data Collector v3.7.2.0data status	okinstallation	princeton_trtdifferential loss correction	single-endedforward channel	channel 1reverse channel	N/Adate	2019/09/13time	12:42:35forward acquisition time	60.00reverse acquisition time	0.00gamma	496.2192k internal	0.2305k external	0.2305temperature offset calibration	1.0168default loss term (dB/km)	0.3790temperature slope calibration	1.0000multiplexer offset coefficient	1.0000multiplexer slope coefficient	1.0000fibre end	0.00T internal ref (°C)	34.67T ext. ref 1 (°C)	4.59T ext. ref 2 (°C)	31.04length (m)	temperature (°C)	Stokes	anti-Stokes-747.200	-60.788	0.365	-0.158
-746.185	20.763	-0.326	0.269
-745.171	-85.222	0.320	0.102
-744.156	286.014	0.207	0.380
-743.142	-52.864	-0.161	-0.076
-742.127	397.205	0.087	0.186
-741.112	-109.247	0.194	-0.042
-740.098	761.444	0.161	0.445
-739.083	-50.419	-0.164	0.079
-738.069	-60.882	-0.142	-0.061
-737.054	-65.923	0.117	0.048
-736.039	-200.000	-0.043	0.434
-735.025	-70.230	0.396	0.153
-734.010	-124.051	-0.353	-0.056
-732.996	52.896	-0.280	0.272
-731.981	126.693	0.342	0.441
-730.966	-152.727	0.150	0.011
-729.952	800.000	-0.035	0.112
-728.937	119.179	-0.200	0.252
-727.923	-16.994	-0.468	-0.301
-726.908	-120.662	0.151	-0.026
-725.894	-53.439	0.325	-0.151
-724.879	-200.000	-0.019	0.158
-723.864	-200.000	0.001	0.185
-722.850	-41.575	0.067	0.035
-721.835	197.612	0.094	0.145
-720.821	-93.738	-0.254	-0.071
-719.806	-35.130	-0.278	-0.154
-718.791	800.000	-0.070	-0.262
-717.777	9.677	0.193	0.149
-716.762	800.000	0.098	0.306
-715.748	79.806	0.096	-0.105
-714.733	-200.000	-0.021	-0.128
-713.718	-200.000	0.100	-0.557
-712.704	40.199	0.097	0.088
-711.689	324.052	0.122	-0.236
-710.675	5.180	0.337	-0.252
-709.660	-58.010	-0.081	0.036
-708.645	-96.445	0.249	-0.067
-707.631	-120.111	-0.398	-0.069
-706.616	-108.584	-0.259	-0.056
-705.602	11.555	0.227	-0.177
-704.587	-63.143	0.095	-0.040
-703.572	-157.135	0.357	-0.022
-702.558	800.000	-0.055	-0.155
-701.543	151.941	0.098	-0.135
-700.529	-44.512	-0.171	0.087
-699.514	-79.459	-0.180	-0.062
-698.499	800.000	-0.035	-0.100
-697.485	107.283	-0.103	-0.125
-696.470	-98.261	0.108	0.028
-695.456	210.883	-0.196	0.314
-694.441	-200.000	-0.086	0.469
-693.426	-200.000	-0.014	0.113
-692.412	-18.571	-0.335	0.213
-691.397	-126.046	0.265	-0.040
-690.383	-30.308	0.362	0.209
-689.368	800.000	0.024	0.090
-688.354	46.400	0.130	0.122
-687.339	-29.270	-0.106	0.062
-686.324	524.655	0.082	-0.195
-685.310	-125.036	-0.158	-0.025
-684.295	-122.562	-0.457	-0.075
-683.281	-200.000	-0.013	0.195
-682.266	-33.377	-0.059	-0.033
-681.251	84.511	-0.113	0.125
-680.237	31.660	0.288	-0.252
-679.222	-135.486	-0.253	0.031
-678.208	-115.055	-0.197	0.038
-677.193	-136.866	0.184	-0.021
-676.178	-200.000	0.012	-0.062
-675.164	411.193	-0.106	-0.228
-674.149	-14.312	0.259	0.170
-673.135	-127.874	-0.245	-0.036
-672.120	-88.998	0.232	0.070
-671.105	-200.000	-0.005	-0.141
-670.091	-121.042	-0.125	0.021
-669.076	13.878	-0.064	-0.051
-668.062	-200.000	-0.063	-0.340
-667.047	213.486	0.039	0.062
-666.032	-200.000	-0.027	-0.123
-665.018	-134.567	-0.269	-0.033
-664.003	800.000	0.021	-0.092
-662.989	-200.000	-0.008	0.134
-661.974	-23.433	0.098	0.060
-660.959	-115.890	0.527	-0.100
-659.945	54.985	-0.269	0.264
-658.930	-56.289	-0.041	0.019
-657.916	-200.000	-0.001	0.128
-656.901	-138.870	0.172	0.019
-655.886	169.997	-0.149	-0.217
-654.872	-45.236	0.201	0.101
-653.857	-67.572	-0.228	-0.091
-652.843	183.479	0.089	0.133
-651.828	-59.584	0.391	0.170
-650.814	71.585	-0.148	0.156
-649.799	-113.506	0.085	0.017
-648.784	0.750	0.075	0.054
-647.770	800.000	-0.047	-0.166
-646.755	182.592	-0.091	-0.136
-645.741	252.362	0.228	-0.393
-644.726	-103.291	-0.141	0.034
-643.711	-77.229	-0.184	-0.065
-642.697	-69.664	-0.190	0.074
-641.682	-29.868	0.163	-0.094
-640.668	-82.913	-0.241	0.079
-639.653	419.116	0.107	-0.232
-638.638	413.087	-0.165	0.355
-637.624	-67.434	-0.431	0.172
-636.609	-85.837	0.142	-0.044
-635.595	-9.180	0.264	0.179
-634.580	434.901	0.109	-0.240
-633.565	800.000	0.130	-0.491
-632.551	271.535	-0.227	-0.405
-631.536	-58.241	-0.258	-0.114
-630.522	-30.570	0.378	0.217
-629.507	165.142	0.152	0.218
-628.492	-27.709	-0.310	-0.182
-627.478	-30.056	-0.247	0.142
-626.463	305.816	0.054	0.102
-625.449	800.000	-0.017	-0.061
-624.434	-200.000	-0.030	0.202
-623.419	53.586	0.206	-0.200
-622.405	398.843	-0.051	0.108
-621.390	-10.780	0.077	0.052
-620.376	457.934	-0.102	0.229
-619.361	-61.182	-0.218	0.093
-618.346	-200.000	0.010	0.059
-617.332	-22.588	-0.219	0.134
-616.317	-88.875	-0.185	-0.055
-615.303	467.191	-0.069	-0.157
-614.288	-95.491	0.068	0.019
-613.273	800.000	0.007	0.029
-612.259	59.992	0.133	-0.133
-611.244	345.575	0.043	0.087
-610.230	564.915	-0.117	-0.288
-609.215	800.000	0.019	0.082
-608.201	73.320	-0.334	-0.354
-607.186	602.207	0.115	-0.290
-606.171	8.149	-0.313	-0.238
-605.157	289.138	0.015	0.028
-604.142	-136.611	0.315	-0.037
-603.128	364.073	0.165	0.335
-602.113	320.138	0.057	0.110
-601.098	-69.731	-0.177	-0.069
-600.084	-33.225	0.181	-0.102
-599.069	94.906	-0.057	0.066
-598.055	66.629	0.259	-0.266
-597.040	800.000	-0.054	-0.213
-596.025	-200.000	0.022	0.194
-595.011	10.336	0.053	-0.041
-593.996	50.054	-0.131	0.125
-592.982	46.225	0.158	-0.149
-591.967	262.127	-0.078	-0.137
-590.952	-89.327	0.164	0.049
-589.938	-22.552	0.094	0.057
-588.923	-200.000	-0.026	-0.204
-587.909	-98.401	-0.221	0.057
-586.894	-85.555	-0.393	-0.124
-585.879	-14.217	0.124	-0.081
-584.865	-53.757	-0.242	0.112
-583.850	-28.791	0.262	0.152
-582.836	33.013	-0.063	-0.055
-581.821	12.649	0.224	-0.175
-580.806	127.064	0.089	-0.114
-579.792	800.000	-0.130	-0.374
-578.777	481.802	0.117	-0.269
-577.763	-200.000	-0.024	-0.171
-576.748	-15.060	0.066	0.043
-575.733	-128.405	0.247	-0.036
-574.719	-61.524	-0.142	-0.060
-573.704	800.000	0.042	-0.122
-572.690	145.334	-0.051	0.069
-571.675	-200.000	-0.008	0.108
-570.661	-25.727	0.283	-0.169
-569.646	32.926	-0.159	-0.139
-568.631	87.098	0.171	0.191
-567.617	-28.709	0.306	0.178
-566.602	-69.785	-0.357	-0.138
-565.588	35.369	0.195	0.173
-564.573	-200.000	0.011	0.060
-563.558	367.028	0.114	0.233
-562.544	-79.740	0.090	0.031
-561.529	-135.110	-0.196	0.024
-560.515	-74.883	0.256	0.093
-559.500	110.251	-0.136	-0.165
-558.485	21.296	-0.227	0.187
-557.471	800.000	0.019	0.074
-556.456	-112.996	0.169	0.034
-555.442	-200.000	-0.049	-0.333
-554.427	-76.717	-0.253	-0.090
-553.412	-10.477	-0.129	0.086
-552.398	180.696	0.065	-0.096
-551.383	-200.000	0.019	0.167
-550.369	-63.952	0.138	0.057
-549.354	67.032	-0.035	-0.036
-548.339	442.374	0.095	-0.210
-547.325	-200.000	-0.006	0.123
-546.310	-129.297	-0.388	-0.055
-545.296	-14.427	0.172	-0.112
-544.281	23.371	0.422	0.350
-543.266	135.643	-0.040	-0.053
-542.252	800.000	0.057	0.232
-541.237	71.860	0.054	0.056
-540.223	-7.452	-0.100	-0.068
-539.208	-200.000	0.014	0.270
-538.193	-65.805	0.040	-0.016
-537.179	61.528	-0.015	0.015
-536.164	-157.874	0.296	0.018
-535.150	113.929	0.032	-0.039
-534.135	113.570	-0.098	-0.120
-533.121	800.000	-0.060	0.212
-532.106	-68.838	0.090	-0.035
-531.091	-36.157	-0.120	0.065
-530.077	734.756	-0.088	0.238
-529.062	-153.343	-0.519	-0.036
-528.048	-140.260	-0.159	-0.017
-527.033	800.000	-0.062	0.272
-526.018	-15.719	0.184	0.118
-525.004	-75.000	0.237	-0.086
-523.989	-92.106	-0.125	-0.036
-522.975	86.360	-0.186	0.207
-521.960	-5.779	0.290	0.201
-520.945	-2.141	-0.214	-0.152
-519.931	800.000	0.074	0.280
-518.916	53.658	-0.248	0.240
-517.902	93.949	0.188	-0.215
-516.887	-1.876	0.318	-0.225
-515.872	64.554	-0.248	0.252
-514.858	-66.231	0.135	-0.054
-513.843	783.601	0.012	0.033
-512.829	-200.000	0.038	0.228
-511.814	118.131	0.216	-0.269
-510.799	-121.191	0.187	0.032
-509.785	-200.000	0.041	-0.231
-508.770	265.882	0.107	-0.188
-507.756	46.617	-0.274	0.256
-506.741	37.248	-0.110	-0.098
-505.726	158.329	-0.246	0.345
-504.712	-15.170	-0.042	0.027
-503.697	10.723	-0.128	-0.099
-502.683	-200.000	0.028	-0.302
-501.668	-120.296	-0.298	0.051
-500.653	800.000	0.068	0.196
-499.639	-44.078	-0.152	0.077
-498.624	-166.311	-0.212	-0.009
-497.610	-112.441	-0.144	-0.029
-496.595	-86.397	0.177	-0.055
-495.581	23.955	0.058	0.048
-494.566	-200.000	-0.001	-0.029
-493.551	19.580	0.291	-0.236
-492.537	470.494	0.128	-0.291
-491.522	131.685	0.078	-0.101
-490.508	150.551	0.181	0.248
-489.493	-27.917	0.139	0.081
-488.478	-200.000	0.027	0.330
-487.464	30.572	-0.185	0.160
-486.449	-200.000	-0.000	0.018
-485.435	122.545	0.322	0.406
-484.420	-102.980	0.255	0.061
-483.405	-129.508	0.352	0.049
-482.391	-137.786	-0.215	0.024
-481.376	-26.079	-0.101	-0.060
-480.362	17.547	0.334	-0.268
-479.347	50.285	-0.195	-0.186
-478.332	-200.000	-0.072	-0.386
-477.318	-200.000	-0.025	-0.183
-476.303	-120.379	-0.561	0.096
-475.289	34.449	0.195	0.172
-474.274	89.255	-0.115	-0.129
-473.259	-200.000	-0.040	-0.363
-472.245	-20.075	0.074	-0.046
-471.230	800.000	-0.059	0.199
-470.216	800.000	-0.116	-0.330
-469.201	116.850	-0.015	0.018
-468.186	800.000	0.025	0.084
-467.172	15.972	0.165	0.131
-466.157	-200.000	-0.002	0.117
-465.143	-26.119	-0.042	0.025
-464.128	-64.969	-0.069	0.028
-463.113	499.148	-0.011	-0.026
-462.099	-70.770	0.333	-0.127
-461.084	80.029	-0.196	0.212
-460.070	800.000	-0.016	-0.053
-459.055	11.888	-0.133	0.103
-458.040	46.484	-0.120	0.112
-457.026	-200.000	-0.003	0.017
-456.011	35.838	-0.283	-0.251
-454.997	-152.705	-0.074	-0.005
-453.982	101.558	-0.132	-0.155
-452.968	-106.738	-0.301	-0.067
-451.953	-200.000	0.001	0.164
-450.938	-72.491	0.235	0.087
-449.924	-147.928	-0.035	-0.003
-448.909	53.133	0.154	0.148
-447.895	188.913	0.126	-0.189
-446.880	272.079	-0.178	0.317
-445.865	145.499	0.026	-0.035
-444.851	-91.711	-0.167	0.048
-443.836	-108.003	-0.247	-0.054
-442.822	46.219	0.063	0.059
-441.807	-63.462	-0.195	0.081
-440.792	24.581	0.042	-0.035
-439.778	354.647	-0.138	0.276
-438.763	-34.508	0.305	0.168
-437.749	12.180	-0.116	-0.090
-436.734	-200.000	-0.062	-0.431
-435.719	-140.208	-0.209	-0.022
-434.705	800.000	0.090	0.308
-433.690	-46.890	-0.321	0.158
-432.676	-133.420	-0.281	0.036
-431.661	-200.000	-0.045	0.221
-430.646	-168.889	0.194	0.007
-429.632	-64.190	-0.116	-0.047
-428.617	-103.150	0.433	0.103
-427.603	92.872	0.142	-0.161
-426.588	50.649	0.459	0.437
-425.573	9.250	-0.065	0.050
-424.559	310.582	-0.112	0.210
-423.544	-92.435	0.008	0.002
-422.530	-1.222	0.104	-0.074
-421.515	180.702	0.255	0.377
-420.500	143.998	-0.031	-0.042
-419.486	-11.678	0.087	0.057
-418.471	-102.980	-0.174	0.042
-417.457	-200.000	0.063	0.356
-416.442	145.469	-0.116	-0.156
-415.428	800.000	-0.064	0.186
-414.413	492.419	-0.032	0.073
-413.398	-22.171	0.251	-0.153
-412.384	394.730	-0.078	0.164
-411.369	-100.780	-0.197	0.049
-410.355	97.394	-0.242	-0.279
-409.340	139.851	0.078	0.103
-408.325	265.100	0.074	-0.129
-407.311	800.000	-0.129	-0.432
-406.296	-144.021	0.134	0.013
-405.282	15.837	0.135	-0.107
-404.267	-21.538	-0.265	-0.162
-403.252	102.684	0.277	0.325
-402.238	-65.899	-0.160	0.064
-401.223	-200.000	0.016	-0.453
-400.209	800.000	0.089	-0.284
-399.194	-41.568	-0.234	-0.121
-398.179	-200.000	-0.011	-0.082
-397.165	-151.295	-0.204	0.015
-396.150	23.398	0.164	-0.135
-395.136	-200.000	-0.035	-0.213
-394.121	4.731	0.119	-0.087
-393.106	753.217	-0.071	-0.192
-392.092	-177.171	-0.157	0.004
-391.077	-200.000	0.000	0.182
-390.063	30.394	0.094	-0.080
-389.048	255.149	0.133	0.228
-388.033	-111.661	0.358	0.073
-387.019	-105.164	0.169	-0.039
-386.004	-172.757	-0.319	0.010
-384.990	401.932	-0.121	0.255
-383.975	107.001	0.150	-0.179
-382.960	332.064	-0.117	0.226
-381.946	11.026	0.099	-0.076
-380.931	-137.672	0.366	0.041
-379.917	266.437	0.109	-0.190
-378.902	63.104	0.230	0.231
-377.888	-127.185	0.166	-0.024
-376.873	-8.875	-0.029	-0.019
-375.858	-182.719	0.274	-0.005
-374.844	-3.517	-0.169	0.118
-373.829	17.631	-0.233	0.186
-372.815	320.258	-0.014	-0.027
-371.800	88.722	-0.255	-0.285
-370.785	-104.468	0.295	-0.069
-369.771	14.914	-0.173	-0.136
-368.756	-94.694	-0.396	0.108
-367.742	122.494	-0.152	-0.190
-366.727	800.000	-0.039	-0.133
-365.712	800.000	0.048	0.167
-364.698	800.000	-0.029	0.127
-363.683	800.000	-0.051	-0.182
-362.669	-200.000	-0.025	0.182
-361.654	-96.371	-0.144	0.038
-360.639	414.800	0.116	0.247
-359.625	-69.988	-0.039	0.015
-358.610	25.534	-0.351	0.293
-357.596	552.732	-0.104	-0.250
-356.581	546.061	-0.132	-0.317
-355.566	10.064	0.220	0.167
-354.552	-29.140	0.132	0.076
-353.537	-200.000	0.002	0.072
-352.523	321.033	-0.094	-0.180
-351.508	-140.953	0.110	-0.011
-350.493	234.838	-0.024	-0.039
-349.479	-79.507	0.510	0.173
-348.464	-200.000	-0.008	-0.106
-347.450	-186.864	-0.272	-0.004
-346.435	-160.351	0.263	-0.014
-345.420	-200.000	0.012	0.076
-344.406	375.889	0.115	-0.235
-343.391	-200.000	-0.001	0.281
-342.377	-49.638	-0.183	0.087
-341.362	12.175	0.322	0.248
-340.348	88.917	0.088	0.098
-339.333	-61.693	-0.057	0.024
-338.318	-156.177	0.253	-0.016
-337.304	-51.273	0.057	-0.027
-336.289	-26.998	0.072	-0.042
-335.275	800.000	-0.089	0.327
-334.260	185.435	-0.144	-0.215
-333.245	-200.000	-0.050	-0.251
-332.231	284.980	-0.136	-0.245
-331.216	52.604	-0.073	-0.070
-330.202	800.000	0.033	-0.136
-329.187	69.885	-0.260	-0.268
-328.172	239.314	0.181	0.302
-327.158	800.000	-0.023	0.091
-326.143	620.982	-0.032	0.082
-325.129	67.611	-0.250	0.256
-324.114	28.282	-0.142	-0.120
-323.099	148.291	-0.136	-0.184
-322.085	-13.587	0.230	0.149
-321.070	177.925	0.161	-0.236
-320.056	-8.434	0.235	0.159
-319.041	-200.000	-0.026	-0.158
-318.026	-200.000	-0.005	-0.085
-317.012	-200.000	-0.038	-0.245
-315.997	440.782	-0.081	-0.177
-314.983	-200.000	-0.039	0.256
-313.968	-111.098	-0.208	-0.043
-312.953	-88.731	-0.270	0.080
-311.939	170.131	0.074	-0.106
-310.924	-200.000	0.037	0.252
-309.910	-19.447	-0.085	-0.053
-308.895	5.387	0.195	-0.144
-307.880	-200.000	0.007	-0.258
-306.866	-19.046	-0.222	0.138
-305.851	319.912	0.154	0.293
-304.837	-34.072	-0.076	-0.042
-303.822	8.232	-0.128	0.096
-302.807	88.123	-0.141	0.156
-301.793	-27.865	-0.181	-0.105
-300.778	69.767	0.243	-0.251
-299.764	677.094	0.099	-0.259
-298.749	-200.000	0.018	-0.130
-297.735	800.000	0.065	-0.247
-296.720	-54.035	0.238	0.108
-295.705	-200.000	-0.018	0.246
-294.691	131.161	-0.089	-0.114
-293.676	740.440	0.068	0.183
-292.662	39.043	0.271	-0.243
-291.647	18.176	-0.042	-0.033
-290.632	-97.973	-0.153	-0.039
-289.618	25.872	0.032	-0.026
-288.603	-78.774	0.035	-0.012
-287.589	800.000	-0.069	-0.240
-286.574	800.000	-0.009	0.032
-285.559	108.738	0.314	-0.375
-284.545	106.615	-0.102	-0.121
-283.530	-65.719	0.408	0.163
-282.516	-200.000	0.006	0.088
-281.501	-47.708	0.135	0.065
-280.486	200.604	0.130	-0.200
-279.472	-155.488	0.126	-0.008
-278.457	-200.000	-0.030	0.206
-277.443	-13.631	0.087	0.057
-276.428	2.535	0.086	-0.062
-275.413	-200.000	-0.009	0.202
-274.399	555.526	-0.110	0.265
-273.384	349.241	-0.321	0.633
-272.370	168.008	0.123	-0.175
-271.355	-200.000	-0.069	0.319
-270.340	-79.480	-0.184	0.062
-269.326	-200.000	0.019	0.388
-268.311	-131.873	-0.297	0.039
-267.297	550.830	0.210	-0.503
-266.282	35.356	-0.136	0.119
-265.267	415.112	0.068	0.145
-264.253	-143.286	-0.259	0.025
-263.238	-105.363	0.151	0.034
-262.224	-27.472	0.114	0.066
-261.209	35.894	0.177	-0.155
-260.195	-108.201	-0.129	0.028
-259.180	-94.300	-0.322	-0.088
-258.165	-101.900	0.124	-0.030
-257.151	66.533	0.130	-0.132
-256.136	-140.715	0.201	-0.021
-255.122	494.761	0.049	-0.113
-254.107	-85.991	-0.243	-0.075
-253.092	-95.584	-0.067	-0.018
-252.078	-143.810	0.161	-0.015
-251.063	-108.703	0.176	-0.038
-250.049	-111.022	-0.144	0.029
-249.034	21.524	0.212	-0.172
-248.019	58.724	-0.065	0.064
-247.005	126.514	-0.089	-0.113
-245.990	-200.000	-0.003	-0.244
-244.976	800.000	0.051	0.170
-243.961	22.668	0.368	-0.300
-242.946	223.883	-0.040	-0.064
-241.932	800.000	0.081	0.303
-240.917	657.733	-0.034	0.087
-239.903	-128.261	-0.264	0.038
-238.888	-135.384	-0.257	0.031
-237.873	-27.116	0.124	-0.072
-236.859	-40.490	0.339	-0.176
-235.844	25.771	-0.133	-0.111
-234.830	-53.338	0.158	-0.072
-233.815	1.434	-0.355	-0.255
-232.800	-200.000	0.011	0.189
-231.786	-45.851	0.075	0.037
-230.771	221.426	0.092	-0.148
-229.757	-200.000	-0.057	0.334
-228.742	-116.362	-0.364	0.067
-227.727	800.000	0.094	0.296
-226.713	338.158	0.181	-0.351
-225.698	39.234	0.221	-0.197
-224.684	166.357	0.110	-0.156
-223.669	-38.909	0.184	-0.097
-222.655	116.970	0.128	0.157
-221.640	129.856	0.134	0.170
-220.625	-145.673	0.253	-0.023
-219.611	101.904	0.128	0.149
-218.596	-200.000	0.006	-0.156
-217.582	-109.764	-0.155	-0.032
-216.567	-45.481	-0.117	0.058
-215.552	-200.000	-0.012	-0.154
-214.538	-200.000	0.015	0.189
-213.523	-119.338	0.160	0.028
-212.509	-56.331	0.158	0.070
-211.494	-200.000	-0.016	-0.273
-210.479	23.569	0.055	0.045
-209.465	-200.000	-0.017	-0.271
-208.450	-99.746	-0.299	-0.075
-207.436	-86.768	0.258	0.079
-206.421	-59.717	-0.213	-0.091
-205.406	-49.104	0.142	0.068
-204.392	-83.452	-0.123	0.039
-203.377	239.538	0.186	0.308
-202.363	-22.112	0.306	-0.185
-201.348	-200.000	0.108	0.558
-200.333	63.120	0.341	0.341
-199.319	28.571	-0.328	-0.277
-198.304	-26.865	-0.068	0.040
-197.290	-128.660	0.014	0.002
-196.275	59.448	0.367	-0.361
-195.260	155.099	-0.083	0.113
-194.246	19.264	0.078	-0.063
-193.231	48.639	-0.126	-0.118
-192.217	-47.712	-0.252	0.122
-191.202	56.319	0.180	0.174
-190.187	-25.365	-0.249	0.147
-189.173	-102.591	0.339	0.081
-188.158	800.000	0.044	0.169
-187.144	800.000	-0.123	-0.349
-186.129	-200.000	-0.001	-0.244
-185.114	-66.814	-0.322	-0.127
-184.100	-14.413	0.190	-0.122
-183.085	-90.853	-0.138	-0.040
-182.071	-164.895	-0.484	0.022
-181.056	123.500	-0.141	0.176
-180.042	-104.006	0.048	0.011
-179.027	287.619	0.080	-0.145
-178.012	800.000	-0.030	-0.127
-176.998	250.913	-0.055	-0.093
-175.983	-92.432	-0.226	0.063
-174.969	-200.000	-0.006	0.441
-173.954	-104.398	0.298	0.069
-172.939	250.729	0.200	-0.338
-171.925	35.649	-0.137	-0.120
-170.910	800.000	-0.046	-0.132
-169.896	23.873	0.030	-0.025
-168.881	-200.000	-0.040	0.223
-167.866	-200.000	0.013	0.135
-166.852	99.601	-0.074	-0.085
-165.837	104.402	0.132	-0.155
-164.823	172.342	-0.070	0.100
-163.808	92.684	0.140	-0.158
-162.793	-86.017	0.178	0.055
-161.779	58.561	0.101	0.099
-160.764	-99.749	0.140	-0.035
-159.750	127.694	-0.472	0.597
-158.735	-50.061	-0.150	-0.071
-157.720	461.445	0.098	0.217
-156.706	-4.527	-0.337	0.232
-155.691	105.756	-0.053	-0.062
-154.677	-200.000	0.053	0.310
-153.662	54.244	-0.116	-0.111
-152.647	556.128	0.124	-0.297
-151.633	-200.000	-0.096	0.430
-150.618	-200.000	-0.023	-0.173
-149.604	23.280	-0.052	0.043
-148.589	49.469	0.139	0.130
-147.574	-65.319	-0.215	-0.086
-146.560	307.482	-0.131	-0.243
-145.545	-200.000	0.004	0.042
-144.531	-47.947	0.253	0.122
-143.516	15.954	0.145	0.113
-142.502	479.783	-0.059	0.134
-141.487	3.741	0.036	0.026
-140.472	-129.679	0.563	-0.077
-139.458	-97.660	-0.246	-0.063
-138.443	128.797	-0.056	0.071
-137.429	15.723	0.245	0.192
-136.414	763.604	-0.138	0.371
-135.399	162.061	0.092	0.128
-134.385	-56.374	-0.286	-0.126
-133.370	800.000	-0.057	0.167
-132.356	132.712	0.068	0.088
-131.341	75.947	0.144	-0.151
-130.326	-72.552	-0.175	-0.064
-129.312	-200.000	0.004	-0.135
-128.297	38.274	0.277	-0.245
-127.283	-200.000	-0.061	0.568
-126.268	-52.918	-0.229	-0.105
-125.253	-6.460	0.165	0.112
-124.239	-200.000	-0.027	0.237
-123.224	-3.768	-0.291	0.201
-122.210	800.000	-0.016	-0.049
-121.195	-35.360	0.088	0.047
-120.180	766.226	0.060	-0.163
-119.166	684.640	0.060	-0.155
-118.151	52.645	-0.094	-0.089
-117.137	51.356	0.140	-0.132
-116.122	-104.567	-0.174	-0.040
-115.107	-200.000	-0.005	-0.349
-114.093	-2.412	0.372	0.259
-113.078	153.668	0.062	-0.085
-112.064	539.585	-0.144	0.340
-111.049	-109.154	-0.100	-0.021
-110.034	44.148	0.274	0.250
-109.020	409.814	0.088	0.186
-108.005	655.223	-0.057	0.144
-106.991	-200.000	0.031	0.183
-105.976	-47.047	0.068	-0.033
-104.962	386.892	-0.124	-0.255
-103.947	295.498	0.121	-0.220
-102.932	-8.182	0.145	0.097
-101.918	-200.000	-0.057	-0.455
-100.903	800.000	-0.044	0.172
-99.889	32.039	-0.158	0.135
-98.874	-134.719	0.316	0.038
-97.859	-30.720	-0.204	-0.114
-96.845	-200.000	-0.063	0.575
-95.830	-200.000	0.050	-0.253
-94.816	-200.000	0.079	-0.428
-93.801	11.955	0.331	0.253
-92.786	-200.000	-0.088	0.443
-91.772	-200.000	-0.025	-0.360
-90.757	-200.000	0.004	0.100
-89.743	267.620	-0.028	0.049
-88.728	-200.000	-0.037	0.270
-87.713	174.911	-0.033	-0.047
-86.699	-200.000	0.069	0.346
-85.684	800.000	0.066	0.200
-84.670	91.384	0.107	-0.119
-83.655	756.132	-0.033	0.090
-82.640	800.000	0.049	0.185
-81.626	11.419	0.208	0.158
-80.611	-75.538	-0.409	-0.144
-79.597	-79.141	0.102	0.034
-78.582	93.557	0.065	0.073
-77.567	-135.114	-0.243	-0.029
-76.553	-200.000	-0.007	0.048
-75.538	-135.299	-0.152	-0.018
-74.524	-200.000	-0.039	0.296
-73.509	132.671	-0.203	-0.260
-72.494	59.912	-0.216	-0.212
-71.480	800.000	0.040	-0.174
-70.465	441.189	0.020	0.044
-69.451	171.154	0.216	-0.307
-68.436	363.713	-0.043	-0.085
-67.422	-82.408	0.192	-0.062
-66.407	236.184	-0.132	-0.217
-65.392	157.692	-0.128	-0.176
-64.378	322.593	-0.267	-0.505
-63.363	46.486	0.278	0.256
-62.349	-200.000	-0.027	-0.239
-61.334	-32.704	-0.935	-0.516
-60.319	800.000	0.130	0.430
-59.305	283.039	-0.426	-0.758
-58.290	800.000	0.397	1.154
-57.276	279.325	0.829	1.465
-56.261	-200.000	94.884	554.658
-55.246	621.658	1386.090	3456.438
-54.232	184.659	2613.406	3838.267
-53.217	120.976	2202.446	2714.909
-52.203	46.516	1649.809	1516.707
-51.188	38.162	1382.396	1218.970
-50.173	34.964	1338.636	1160.965
-49.159	55.515	1387.175	1330.472
-48.144	59.653	1405.479	1373.521
-47.130	38.625	1359.951	1201.826
-46.115	34.858	1341.823	1162.899
-45.100	34.682	1337.706	1158.220
-44.086	34.636	1334.902	1155.467
-43.071	34.513	1332.586	1152.673
-42.057	34.441	1330.999	1150.820
-41.042	34.482	1328.985	1149.282
-40.027	34.543	1327.224	1148.081
-39.013	34.569	1325.575	1146.762
-37.998	34.581	1323.301	1144.822
-36.984	34.624	1321.968	1143.880
-35.969	34.723	1319.896	1142.636
-34.954	34.676	1318.117	1140.771
-33.940	34.748	1316.955	1140.147
-32.925	34.696	1315.606	1138.624
-31.911	34.750	1314.115	1137.613
-30.896	34.877	1311.804	1136.320
-29.881	34.780	1311.148	1135.131
-28.867	34.750	1310.218	1134.104
-27.852	34.787	1308.376	1132.680
-26.838	34.812	1306.560	1131.213
-25.823	34.778	1305.416	1129.977
-24.809	34.720	1303.935	1128.310
-23.794	34.772	1302.323	1127.178
-22.779	34.697	1301.542	1126.014
-21.765	34.843	1299.989	1125.482
-20.750	34.772	1298.776	1123.971
-19.736	34.527	1297.895	1121.723
-18.721	34.576	1296.332	1120.616
-17.706	34.530	1295.316	1119.424
-16.692	34.655	1293.576	1118.610
-15.677	34.650	1292.547	1117.644
-14.663	34.633	1291.160	1116.302
-13.648	34.580	1290.492	1115.368
-12.633	34.707	1289.161	1114.916
-11.619	34.671	1288.615	1114.188
-10.604	34.697	1287.734	1113.534
-9.590	34.656	1286.349	1112.056
-8.575	34.573	1285.979	1111.209
-7.560	34.589	1285.030	1110.437
-6.546	34.581	1284.277	1109.698
-5.531	34.494	1283.653	1108.606
-4.517	34.597	1282.335	1108.024
-3.502	34.634	1281.371	1107.360
-2.487	34.538	1280.608	1106.099
-1.473	34.650	1276.688	1103.318
-0.458	33.481	1261.243	1083.250
0.556	31.638	1241.862	1040.315
1.571	27.196	1244.782	1017.866
2.586	25.593	1258.857	1020.199
3.600	23.753	1246.396	999.666
4.615	17.902	1172.505	909.250
5.629	9.128	1095.249	805.429
6.644	5.039	1074.498	769.949
7.659	4.572	1071.804	765.649
8.673	4.421	1070.067	763.599
9.688	4.349	1069.117	762.500
10.702	5.008	1068.010	764.876
11.717	10.496	1075.993	797.584
12.731	18.845	1087.382	847.294
13.746	22.265	1091.007	866.932
14.761	22.113	1089.958	865.275
15.775	21.212	1088.347	859.489
16.790	20.367	1086.145	853.518
17.804	19.589	1084.945	848.679
18.819	19.200	1084.118	846.046
19.834	19.075	1083.059	844.530
20.848	18.961	1082.286	843.297
21.863	18.822	1081.726	842.101
22.877	18.627	1081.307	840.749
23.892	18.665	1080.113	839.933
24.907	18.552	1079.267	838.646
25.921	18.514	1078.400	837.714
26.936	18.632	1076.768	836.944
27.950	18.656	1075.495	835.999
28.965	18.793	1073.897	835.347
29.980	18.919	1072.593	834.875
30.994	18.964	1071.983	834.541
32.009	19.008	1070.739	833.716
33.023	18.989	1069.834	832.843
34.038	18.821	1068.519	830.936
35.053	18.711	1067.615	829.628
36.067	18.697	1066.985	828.996
37.082	18.788	1065.793	828.435
38.096	18.702	1065.963	828.081
39.111	18.906	1064.655	827.970
40.126	18.739	1063.140	825.920
41.140	18.567	1061.350	823.628
42.155	18.341	1060.341	821.688
43.169	18.214	1059.802	820.589
44.184	18.311	1058.376	819.875
45.199	18.278	1056.926	818.522
46.213	18.495	1056.258	818.970
47.228	18.551	1055.746	818.769
48.242	18.848	1054.579	819.205
49.257	18.607	1053.836	817.409
50.271	18.763	1052.935	817.380
51.286	18.787	1052.441	817.037
52.301	18.753	1050.842	815.564
53.315	18.647	1050.221	814.506
54.330	18.427	1049.445	812.791
55.344	18.499	1047.943	811.894
56.359	18.462	1047.258	811.118
57.374	18.364	1046.326	809.862
58.388	18.254	1045.245	808.430
59.403	18.225	1044.599	807.723
60.417	18.280	1044.094	807.521
61.432	18.234	1042.901	806.309
62.447	18.104	1042.237	805.113
63.461	18.152	1041.084	804.379
64.476	18.145	1039.727	803.223
65.490	18.045	1039.358	802.398
66.505	18.162	1038.617	802.305
67.520	18.096	1038.182	801.586
68.534	18.043	1037.575	800.801
69.549	18.138	1036.395	800.264
70.563	18.099	1035.530	799.342
71.578	17.934	1034.841	797.970
72.593	17.875	1034.134	797.076
73.607	17.878	1033.257	796.344
74.622	17.866	1032.896	795.941
75.636	17.966	1031.572	795.315
76.651	17.979	1031.080	794.928
77.666	18.045	1030.625	794.814
78.680	17.992	1030.343	794.277
79.695	18.066	1029.161	793.640
80.709	18.386	1028.732	794.722
81.724	18.300	1028.450	794.037
82.739	18.385	1027.641	793.735
83.753	18.709	1026.731	794.462
84.768	19.001	1025.860	795.069
85.782	19.103	1025.442	795.144
86.797	18.881	1024.677	793.456
87.812	18.760	1023.271	791.740
88.826	18.778	1022.660	791.279
89.841	18.849	1021.748	790.832
90.855	18.962	1020.587	790.382
91.870	19.065	1020.031	790.357
92.884	18.957	1019.263	789.193
93.899	18.951	1018.490	788.498
94.914	19.124	1017.275	788.282
95.928	19.056	1016.441	787.251
96.943	18.917	1015.493	785.814
97.957	18.909	1013.984	784.540
98.972	18.805	1014.000	784.009
99.987	18.927	1012.598	783.413
101.001	19.014	1011.429	782.833
102.016	18.824	1011.078	781.626
103.030	18.851	1010.254	781.044
104.045	18.790	1009.648	780.228
105.060	18.696	1008.231	778.639
106.074	18.413	1007.663	776.849
107.089	18.471	1005.696	775.525
108.103	18.401	1004.906	774.533
109.118	18.291	1003.936	773.220
110.133	18.198	1002.894	771.930
111.147	18.167	1002.393	771.334
112.162	18.279	1001.873	771.370
113.176	18.456	1001.073	771.484
114.191	18.471	1000.485	771.031
115.206	18.372	1000.002	770.146
116.220	18.343	998.986	769.163
117.235	18.358	997.845	768.285
118.249	18.308	996.927	767.285
119.264	18.225	996.624	766.611
120.279	18.143	995.959	765.665
121.293	18.076	994.717	764.343
122.308	18.110	993.507	763.498
123.322	18.141	992.288	762.632
124.337	17.958	991.618	761.233
125.352	17.937	990.689	760.362
126.366	17.944	989.111	759.112
127.381	18.007	988.337	758.730
128.395	18.218	987.347	758.842
129.410	18.129	986.911	758.042
130.424	18.278	985.913	757.870
131.439	18.390	985.381	757.889
132.454	18.449	984.792	757.628
133.468	18.541	983.625	757.071
134.483	18.400	982.641	755.626
135.497	18.429	982.302	755.427
136.512	18.323	982.021	754.673
137.527	18.431	980.468	753.892
138.541	18.513	979.824	753.690
139.556	18.583	979.069	753.351
140.570	18.624	978.603	753.106
141.585	18.912	977.794	753.679
142.600	18.920	976.897	752.955
143.614	19.043	975.846	752.616
144.629	19.069	975.011	752.021
145.643	18.938	974.230	750.777
146.658	18.696	973.125	748.803
147.673	18.574	971.837	747.215
148.687	18.534	971.300	746.561
149.702	18.434	970.206	745.222
150.716	18.341	969.739	744.394
151.731	18.524	968.923	744.492
152.746	18.542	967.940	743.750
153.760	18.405	967.839	743.014
154.775	18.755	966.988	743.810
155.789	18.726	966.253	743.055
156.804	18.699	965.487	742.281
157.819	18.878	964.855	742.506
158.833	18.994	964.062	742.330
159.848	19.158	963.138	742.260
160.862	18.863	962.122	740.141
161.877	18.613	960.852	738.023
162.892	18.438	960.100	736.627
163.906	18.393	958.916	735.459
164.921	18.560	957.577	735.085
165.935	18.469	957.638	734.677
166.950	18.650	956.249	734.319
167.964	18.510	955.696	733.230
168.979	18.494	954.690	732.325
169.994	18.559	953.535	731.653
171.008	18.627	953.090	731.536
172.023	18.898	952.471	732.151
173.037	19.050	951.544	732.019
174.052	18.881	951.075	730.878
175.067	18.566	950.117	728.736
176.081	18.364	949.652	727.458
177.096	18.543	948.741	727.457
178.110	18.646	948.080	727.322
179.125	18.651	947.367	726.730
180.140	18.592	947.556	726.563
181.154	18.777	947.184	726.994
182.169	18.987	946.507	727.301
183.183	18.861	946.213	726.477
184.198	18.858	945.075	725.527
185.213	19.002	944.152	725.360
186.227	18.970	943.650	724.775
187.242	19.148	942.853	724.850
188.256	19.235	942.312	724.733
189.271	19.195	941.637	723.982
190.286	18.765	940.752	721.433
191.300	18.440	939.829	719.296
192.315	18.362	938.684	718.028
193.329	18.491	938.344	718.248
194.344	18.604	938.283	718.611
195.359	18.695	938.191	718.856
196.373	18.873	936.864	718.523
197.388	19.029	936.831	719.087
198.402	19.126	936.180	718.924
199.417	19.260	935.602	718.978
200.432	19.557	934.880	719.598
201.446	19.528	934.551	719.158
202.461	19.555	934.419	719.109
203.475	19.427	933.437	717.757
204.490	19.192	932.584	716.059
205.504	19.055	931.868	714.876
206.519	19.038	930.899	714.000
207.534	19.092	929.999	713.469
208.548	19.017	929.428	712.658
209.563	19.156	929.152	712.957
210.577	19.169	928.708	712.608
211.592	19.505	927.630	713.108
212.607	19.391	927.083	712.153
213.621	19.368	926.368	711.448
214.636	19.325	925.647	710.652
215.650	19.306	925.266	710.220
216.665	19.549	924.535	710.594
217.680	19.759	923.258	710.413
218.694	19.669	922.912	709.713
219.709	19.533	922.578	708.835
220.723	19.409	922.120	707.914
221.738	19.399	920.971	706.925
222.753	19.527	920.294	706.868
223.767	19.383	920.281	706.207
224.782	19.666	919.691	706.851
225.796	19.620	918.972	706.048
226.811	19.636	918.373	705.590
227.826	19.416	917.572	704.015
228.840	19.475	916.476	703.350
229.855	19.403	915.463	702.218
230.869	19.589	914.856	702.445
231.884	19.292	914.364	700.801
232.899	19.218	913.735	699.954
233.913	19.188	912.724	698.998
234.928	19.252	912.148	698.753
235.942	19.172	911.548	697.907
236.957	19.144	910.950	697.277
237.972	19.078	910.704	696.758
238.986	19.143	909.991	696.413
240.001	19.248	909.059	696.063
241.015	19.218	908.883	695.745
242.030	19.519	908.112	696.306
243.045	19.387	907.971	695.605
244.059	19.581	907.037	695.612
245.074	19.465	906.760	694.870
246.088	19.637	906.012	694.926
247.103	19.708	905.278	694.589
248.117	19.949	904.960	695.250
249.132	20.099	904.623	695.533
250.147	20.257	903.950	695.586
251.161	20.411	903.175	695.544
252.176	20.337	902.798	694.898
253.190	20.435	902.456	694.964
254.205	20.300	901.636	693.732
255.220	20.427	900.655	693.422
256.234	20.276	900.441	692.592
257.249	20.286	899.749	692.039
258.263	20.172	898.817	690.806
259.278	20.368	898.029	690.921
260.293	20.453	897.795	691.016
261.307	20.331	897.355	690.132
262.322	20.418	896.684	689.901
263.336	20.556	895.994	689.857
264.351	20.669	894.943	689.435
265.366	20.570	894.486	688.628
266.380	20.527	893.856	687.913
267.395	20.364	892.960	686.519
268.409	20.267	892.477	685.704
269.424	20.336	891.237	684.964
270.439	20.337	890.612	684.426
271.453	20.085	890.165	683.027
272.468	20.155	889.561	682.780
273.482	20.171	888.866	682.247
274.497	20.227	888.670	682.259
275.512	20.257	887.721	681.586
276.526	20.267	887.301	681.243
277.541	20.330	886.945	681.156
278.555	20.544	886.388	681.508
279.570	20.604	885.951	681.349
280.585	20.551	884.879	680.256
281.599	20.396	884.148	679.028
282.614	20.309	883.505	678.132
283.628	20.463	882.556	677.944
284.643	20.446	881.945	677.349
285.657	20.390	881.662	676.853
286.672	20.376	881.125	676.326
287.687	20.493	880.314	676.101
288.701	20.457	879.512	675.284
289.716	20.403	878.915	674.557
290.730	20.507	878.223	674.369
291.745	20.566	878.279	674.581
292.760	20.576	877.914	674.281
293.774	20.688	877.766	674.541
294.789	20.571	876.799	673.284
295.803	20.469	875.554	671.877
296.818	20.504	874.630	671.244
297.833	20.533	874.112	670.897
298.847	20.452	873.674	670.190
299.862	20.645	872.797	670.202
300.876	20.742	872.601	670.365
301.891	20.748	872.371	670.152
302.906	20.865	871.512	669.883
303.920	21.128	870.913	670.373
304.935	20.981	870.665	669.557
305.949	20.938	869.957	668.790
306.964	20.791	869.114	667.521
307.979	20.871	868.467	667.271
308.993	20.867	868.208	666.996
310.008	21.034	867.659	667.156
311.022	20.917	866.717	665.925
312.037	20.802	865.958	664.843
313.052	20.565	865.455	663.492
314.066	20.453	864.716	662.440
315.081	20.528	864.209	662.282
316.095	20.579	863.655	661.991
317.110	20.659	862.705	661.510
318.125	20.541	862.357	660.736
319.139	20.656	861.806	660.689
320.154	20.491	861.457	659.739
321.168	20.607	861.034	659.797
322.183	20.704	860.219	659.480
323.197	20.685	859.967	659.158
324.212	20.760	859.623	659.121
325.227	20.673	858.745	658.059
326.241	20.763	858.007	657.775
327.256	20.710	857.443	657.083
328.270	20.489	857.109	655.938
329.285	20.698	856.438	656.151
330.300	20.698	855.637	655.482
331.314	20.683	855.811	655.500
332.329	20.828	855.192	655.512
333.343	20.954	854.960	655.753
334.358	21.112	853.834	655.422
335.373	20.925	853.969	654.766
336.387	21.102	853.403	654.938
337.402	21.025	853.379	654.574
338.416	21.263	852.481	654.719
339.431	21.268	852.760	654.893
340.446	21.296	852.405	654.670
341.460	21.392	851.864	654.556
342.475	21.433	851.582	654.434
343.489	21.498	851.231	654.350
344.504	21.520	850.860	654.087
345.519	21.594	850.244	653.834
346.533	21.656	849.424	653.377
347.548	21.333	848.765	651.607
348.562	21.309	848.165	650.998
349.577	21.071	847.743	649.732
350.592	21.027	846.580	648.618
351.606	21.014	846.134	648.172
352.621	21.183	845.256	648.071
353.635	21.159	844.877	647.631
354.650	21.122	844.542	647.180
355.665	21.344	843.728	647.321
356.679	21.381	842.935	646.795
357.694	21.361	842.382	646.236
358.708	21.379	841.928	645.900
359.723	21.349	841.258	645.218
360.738	21.329	840.500	644.505
361.752	21.403	840.084	644.400
362.767	21.567	839.500	644.502
363.781	21.782	838.961	644.822
364.796	21.737	838.965	644.602
365.810	21.860	838.539	644.670
366.825	21.904	838.052	644.398
367.840	21.815	837.971	643.954
368.854	21.656	837.262	642.769
369.869	21.696	836.339	642.150
370.883	21.724	835.736	641.732
371.898	21.745	835.846	641.835
372.913	21.980	835.301	642.220
373.927	21.840	834.677	641.171
374.942	21.708	834.658	640.618
375.956	22.056	833.745	641.132
376.971	21.962	833.479	640.529
377.986	22.158	832.870	640.716
379.000	22.035	832.696	640.079
380.015	22.026	831.913	639.388
381.029	21.950	831.261	638.555
382.044	22.140	830.796	638.831
383.059	21.924	830.559	637.805
384.073	21.999	829.466	637.183
385.088	21.796	828.810	635.885
386.102	21.773	828.199	635.278
387.117	21.743	827.548	634.615
388.132	21.642	827.325	634.020
389.146	21.932	826.248	634.189
390.161	21.937	826.256	634.156
391.175	22.168	825.456	634.320
392.190	21.913	825.022	633.009
393.205	21.771	824.762	632.243
394.219	21.851	824.078	631.950
395.234	21.759	823.674	631.253
396.248	21.617	823.269	630.377
397.263	21.553	822.434	629.451
398.278	21.666	821.914	629.403
399.292	21.603	821.955	629.153
400.307	21.620	821.354	628.697
401.321	21.639	820.783	628.274
402.336	21.743	820.515	628.386
403.350	21.733	820.297	628.126
404.365	21.976	819.747	628.519
405.380	22.052	819.356	628.438
406.394	22.219	819.199	628.857
407.409	22.330	818.443	628.620
408.423	22.325	818.194	628.353
409.438	22.493	817.500	628.366
410.453	22.634	817.191	628.574
411.467	22.659	816.459	628.043
412.482	22.646	816.593	628.045
413.496	22.730	815.997	627.829
414.511	22.666	815.921	627.488
415.526	22.452	815.069	626.018
416.540	22.463	814.863	625.841
417.555	22.514	814.172	625.439
418.569	22.582	814.011	625.501
419.584	22.513	813.511	624.817
420.599	22.533	812.991	624.433
421.613	159.749	1369.705	1790.643
422.628	139.116	1450.825	1790.785
