DTS Sentinel unit serial number:	SN413079Multiplexer serial number:	ORYXHardware model number:	OX4-SRSoftware version number:	ORYX F/W v4.00 Oryx Data Collector v3.7.2.0data status	okinstallation	princeton_trtdifferential loss correction	single-endedforward channel	channel 1reverse channel	N/Adate	2019/09/12time	19:28:34forward acquisition time	15.00reverse acquisition time	0.00gamma	496.2192k internal	0.2322k external	0.2322temperature offset calibration	1.0123default loss term (dB/km)	0.3790temperature slope calibration	1.0000multiplexer offset coefficient	1.0000multiplexer slope coefficient	1.0000fibre end	0.00T internal ref (°C)	32.31T ext. ref 1 (°C)	3.30T ext. ref 2 (°C)	26.81length (m)	temperature (°C)	Stokes	anti-Stokes-747.200	-47.467	-0.147	-0.072
-746.185	594.689	0.047	0.117
-745.171	79.149	0.412	-0.445
-744.156	-35.531	-0.596	0.327
-743.142	-198.202	-0.456	0.003
-742.127	-200.000	-0.230	1.052
-741.112	-50.507	-0.460	-0.219
-740.098	-16.697	0.126	0.080
-739.083	325.025	0.565	1.092
-738.069	-77.473	-1.160	0.406
-737.054	-200.000	-0.071	-0.356
-736.039	-99.791	0.120	-0.030
-735.025	-0.810	0.467	0.334
-734.010	30.579	0.187	-0.162
-732.996	-200.000	0.040	0.186
-731.981	91.408	0.412	-0.468
-730.966	717.009	0.327	-0.878
-729.952	71.603	-0.395	0.414
-728.937	800.000	-0.175	-0.624
-727.923	800.000	0.052	0.192
-726.908	-45.905	-0.270	-0.135
-725.894	-88.572	-0.493	-0.148
-724.879	217.609	0.307	-0.493
-723.864	-114.304	0.556	-0.108
-722.850	72.235	-0.453	0.476
-721.835	-92.959	-0.111	-0.031
-720.821	100.779	-0.394	0.463
-719.806	800.000	-0.202	-0.594
-718.791	-71.024	0.503	0.191
-717.777	-107.852	-0.357	0.078
-716.762	-180.679	0.734	0.015
-715.748	-200.000	-0.200	-0.989
-714.733	-200.000	-0.030	0.173
-713.718	-114.889	-0.867	0.167
-712.704	-104.153	0.460	-0.108
-711.689	800.000	0.129	-0.421
-710.675	-106.613	-1.121	-0.252
-709.660	-200.000	-0.023	0.295
-708.645	93.058	-0.224	0.256
-707.631	-42.208	-0.904	-0.466
-706.616	-2.151	0.463	0.328
-705.602	-143.335	-0.776	0.075
-704.587	-156.934	-0.463	-0.029
-703.572	-124.546	0.921	-0.144
-702.558	800.000	-0.161	0.505
-701.543	140.473	0.629	-0.837
-700.529	140.395	0.147	-0.195
-699.514	-200.000	0.016	0.092
-698.499	-113.197	0.594	0.118
-697.485	119.038	0.367	-0.457
-696.470	172.341	0.216	-0.313
-695.456	76.182	-0.113	-0.121
-694.441	-98.707	-0.242	-0.062
-693.426	800.000	0.174	0.679
-692.412	-126.698	-0.033	-0.005
-691.397	-3.671	0.537	0.376
-690.383	-81.639	-0.813	-0.269
-689.368	-200.000	-0.003	0.260
-688.354	-160.410	0.218	0.012
-687.339	-200.000	0.045	0.682
-686.324	62.864	-0.449	0.453
-685.310	78.887	-0.423	-0.457
-684.295	755.425	-0.303	-0.826
-683.281	800.000	-0.254	-0.714
-682.266	401.218	-0.061	0.129
-681.251	456.989	0.227	0.508
-680.237	-41.410	0.289	0.150
-679.222	66.921	-0.531	0.545
-678.208	290.842	0.492	0.901
-677.193	-75.439	0.665	0.239
-676.178	50.065	0.232	0.221
-675.164	48.383	0.520	-0.490
-674.149	124.064	-0.498	0.631
-673.135	471.773	-0.294	-0.666
-672.120	430.873	-0.188	-0.411
-671.105	682.324	-0.227	0.597
-670.091	-109.745	0.352	-0.075
-669.076	-76.275	-1.022	-0.363
-668.062	-24.719	-1.183	0.708
-667.047	433.644	0.402	0.880
-666.032	-83.094	0.195	0.063
-665.018	103.203	-0.070	-0.083
-664.003	613.864	-0.242	-0.611
-662.989	201.986	-0.455	-0.707
-661.974	-140.088	-0.506	-0.054
-660.959	-200.000	0.124	-0.602
-659.945	-200.000	0.028	-0.390
-658.930	-24.703	-0.505	0.302
-657.916	134.917	0.389	0.509
-656.901	-96.766	-0.050	0.013
-655.886	-200.000	0.072	0.543
-654.872	322.840	-0.188	-0.362
-653.857	56.626	0.200	-0.196
-652.843	-9.553	-0.087	0.058
-651.828	218.295	-0.384	0.618
-650.814	50.888	-0.542	0.517
-649.799	-66.551	-0.790	0.315
-648.784	-200.000	0.019	-0.213
-647.770	133.981	-0.281	0.366
-646.755	-86.127	-0.663	0.206
-645.741	138.903	-0.338	-0.447
-644.726	-73.679	0.606	0.222
-643.711	-139.285	0.567	-0.061
-642.697	43.065	-0.188	0.173
-641.682	-18.974	-0.487	0.305
-640.668	-200.000	-0.143	-1.216
-639.653	-74.667	0.453	-0.164
-638.638	-200.000	-0.032	0.237
-637.624	243.295	-0.431	0.726
-636.609	180.921	-0.359	0.531
-635.595	83.211	-0.148	-0.163
-634.580	316.446	-0.291	-0.554
-633.565	5.311	0.243	0.180
-632.551	-33.534	-0.327	0.182
-631.536	23.830	-0.126	0.105
-630.522	-112.875	-0.126	0.025
-629.507	-90.155	0.817	0.239
-628.492	-155.184	-0.492	0.032
-627.478	-181.961	0.192	-0.004
-626.463	-200.000	-0.113	0.826
-625.449	-147.053	0.073	0.006
-624.434	800.000	0.113	-0.407
-623.419	-200.000	-0.064	0.411
-622.405	75.552	0.413	-0.439
-621.390	-200.000	0.085	-0.710
-620.376	-94.043	-0.362	-0.100
-619.361	-44.944	0.499	0.250
-618.346	14.682	0.552	0.434
-617.332	468.814	-0.318	-0.719
-616.317	-200.000	0.016	-0.417
-615.303	-133.567	-0.665	-0.084
-614.288	-107.808	0.787	-0.172
-613.273	-38.857	-0.344	-0.182
-612.259	-85.218	-0.923	0.290
-611.244	44.779	0.336	0.311
-610.230	126.846	0.274	-0.349
-609.215	800.000	0.190	-0.576
-608.201	-200.000	0.028	0.408
-607.186	-171.690	-0.942	-0.031
-606.171	-70.402	-0.472	0.180
-605.157	42.569	-0.160	-0.147
-604.142	206.567	0.137	0.214
-603.128	-62.863	-0.360	-0.150
-602.113	357.952	-0.511	-1.024
-601.098	-54.683	-1.079	0.490
-600.084	-109.686	-0.214	0.045
-599.069	192.602	-0.293	-0.445
-598.055	-200.000	0.105	-0.809
-597.040	-117.756	-0.373	-0.067
-596.025	-141.369	0.614	0.063
-595.011	160.203	0.434	0.608
-593.996	-200.000	0.007	-0.689
-592.982	-93.716	-0.335	-0.093
-591.967	251.079	0.135	-0.230
-590.952	-171.513	-0.380	-0.013
-589.938	-69.890	0.341	-0.131
-588.923	-200.000	0.002	0.258
-587.909	624.254	-0.341	-0.864
-586.894	673.763	0.304	-0.791
-585.879	127.985	0.836	-1.068
-584.865	-154.048	-0.070	-0.005
-583.850	156.382	0.263	-0.365
-582.836	31.342	0.427	0.368
-581.821	-15.301	-0.276	0.177
-580.806	-28.935	-0.492	0.284
-579.792	-68.317	0.892	0.348
-578.777	-57.918	0.835	0.366
-577.763	-116.756	0.505	-0.093
-576.748	-200.000	0.014	-0.231
-575.733	6.496	0.406	-0.303
-574.719	179.037	0.441	-0.647
-573.704	173.044	0.236	0.341
-572.690	37.941	0.542	0.484
-571.675	161.667	-0.329	0.463
-570.661	-200.000	-0.041	-0.476
-569.646	68.050	-0.349	-0.359
-568.631	-27.855	0.282	-0.164
-567.617	0.248	0.417	0.299
-566.602	0.739	-0.724	-0.520
-565.588	-200.000	0.051	0.921
-564.573	34.489	-0.682	0.597
-563.558	-49.888	-0.508	0.242
-562.544	12.198	-0.265	-0.205
-561.529	-147.219	0.912	-0.078
-560.515	234.540	-0.099	0.164
-559.500	-42.292	0.838	-0.429
-558.485	139.739	-0.286	0.378
-557.471	-111.201	-1.047	-0.215
-556.456	-163.460	0.606	0.029
-555.442	305.837	-0.184	-0.343
-554.427	134.169	0.102	0.132
-553.412	-41.054	-0.668	0.346
-552.398	95.171	-1.149	1.312
-551.383	26.629	-0.160	0.135
-550.369	-73.050	0.573	-0.211
-549.354	-77.869	-0.868	-0.300
-548.339	155.531	-0.153	-0.211
-547.325	82.915	-0.154	0.168
-546.310	39.574	0.912	0.819
-545.296	-200.000	-0.059	-0.449
-544.281	296.265	-0.264	-0.484
-543.266	-82.198	0.565	-0.185
-542.252	800.000	-0.309	-1.009
-541.237	-200.000	0.001	0.368
-540.223	-139.363	0.713	-0.077
-539.208	62.377	-0.239	0.239
-538.193	-23.242	0.597	0.360
-537.179	-200.000	-0.007	-0.072
-536.164	-200.000	0.024	-0.690
-535.150	-26.561	0.247	0.145
-534.135	59.494	-0.264	0.261
-533.121	-83.994	-0.376	0.120
-532.106	-47.081	0.355	-0.174
-531.091	-84.309	-0.370	-0.117
-530.077	-200.000	-0.088	-0.765
-529.062	-200.000	0.052	-0.307
-528.048	-28.965	0.710	0.408
-527.033	151.822	-0.506	-0.690
-526.018	-35.690	-0.698	-0.379
-525.004	458.396	0.451	-1.004
-523.989	-200.000	0.019	-0.090
-522.975	-45.861	-0.606	-0.300
-521.960	-200.000	0.166	1.106
-520.945	57.578	-0.583	-0.571
-519.931	133.920	0.309	0.401
-518.916	167.450	0.438	0.624
-517.902	-10.290	0.310	0.206
-516.887	800.000	0.074	0.250
-515.872	800.000	0.131	0.422
-514.858	6.307	-0.281	0.209
-513.843	37.894	-0.697	-0.620
-512.829	2.087	-0.328	0.237
-511.814	800.000	-0.066	-0.214
-510.799	-88.378	-0.820	0.245
-509.785	-200.000	0.070	-0.424
-508.770	-73.986	-0.733	-0.266
-507.756	-118.287	0.212	-0.038
-506.741	-200.000	-0.027	0.237
-505.726	9.237	-0.778	0.588
-504.712	25.180	0.738	0.614
-503.697	170.450	-0.392	-0.562
-502.683	-115.345	-0.457	-0.086
-501.668	800.000	-0.361	-1.167
-500.653	0.004	0.424	0.302
-499.639	-200.000	0.027	-0.511
-498.624	-102.907	0.388	0.092
-497.610	156.301	0.500	0.691
-496.595	-102.127	0.651	0.157
-495.581	-200.000	-0.072	-0.499
-494.566	-200.000	0.021	-0.166
-493.551	792.121	0.094	0.258
-492.537	559.830	-0.204	-0.493
-491.522	-150.952	0.227	-0.017
-490.508	-84.099	-0.574	-0.182
-489.493	93.197	-0.368	0.416
-488.478	800.000	0.196	0.779
-487.464	-79.354	-0.480	-0.163
-486.449	-15.402	-0.772	0.494
-485.435	-200.000	0.009	-0.344
-484.420	-65.934	-0.952	0.381
-483.405	594.552	0.231	0.572
-482.391	38.164	0.445	0.396
-481.376	-39.476	-0.302	0.158
-480.362	464.674	-0.196	-0.439
-479.347	-17.384	0.352	0.222
-478.332	-73.171	-0.286	0.105
-477.318	719.615	0.057	0.152
-476.303	422.899	-0.124	0.267
-475.289	800.000	0.044	0.171
-474.274	-18.045	0.563	-0.353
-473.259	-200.000	-0.837	0.002
-472.245	-56.893	0.649	-0.286
-471.230	-200.000	-0.035	0.158
-470.216	-200.000	-0.034	0.694
-469.201	125.816	0.462	-0.584
-468.186	139.370	0.329	0.433
-467.172	-200.000	0.006	-0.257
-466.157	131.946	-0.364	0.468
-465.143	145.499	-0.529	0.709
-464.128	-54.780	0.622	-0.281
-463.113	15.565	-0.995	0.781
-462.099	-152.865	-0.327	0.023
-461.084	-127.949	-0.780	-0.112
-460.070	162.055	0.266	-0.372
-459.055	171.325	-0.478	0.685
-458.040	800.000	0.068	-0.269
-457.026	-200.000	-0.061	0.344
-456.011	-65.285	1.184	-0.476
-454.997	-136.651	0.534	0.062
-453.982	-200.000	-0.045	0.217
-452.968	-32.917	0.732	-0.406
-451.953	-200.000	0.055	0.271
-450.938	-66.063	0.194	0.077
-449.924	-71.351	-0.327	-0.122
-448.909	39.985	0.503	-0.452
-447.895	800.000	0.336	0.952
-446.880	800.000	-0.208	0.602
-445.865	135.019	-0.505	0.656
-444.851	-87.019	0.278	-0.085
-443.836	144.767	0.756	-1.009
-442.822	116.185	0.429	-0.525
-441.807	450.945	0.366	-0.808
-440.792	222.020	0.168	0.270
-439.778	-65.834	-0.596	-0.238
-438.763	-200.000	0.035	0.709
-437.749	-200.000	-0.026	-0.237
-436.734	232.794	0.155	0.254
-435.719	65.645	-0.336	-0.340
-434.705	192.746	-0.428	-0.646
-433.690	65.644	0.498	-0.503
-432.676	1.828	-0.397	-0.286
-431.661	-97.868	-0.866	-0.223
-430.646	297.504	0.135	0.247
-429.632	-6.707	0.768	-0.521
-428.617	-200.000	-0.022	0.355
-427.603	-200.000	-0.104	0.518
-426.588	800.000	-0.099	-0.327
-425.573	-200.000	0.055	0.645
-424.559	88.594	0.091	0.101
-423.544	-200.000	-0.036	-0.678
-422.530	81.772	-0.719	-0.777
-421.515	83.625	0.257	0.279
-420.500	314.811	-0.174	0.327
-419.486	37.424	-0.493	0.437
-418.471	9.998	-0.312	0.236
-417.457	-69.519	-0.834	0.319
-416.442	-200.000	-0.165	-0.770
-415.428	800.000	-0.172	-0.547
-414.413	-50.545	-0.072	-0.034
-413.398	352.069	0.388	-0.766
-412.384	140.695	0.162	0.214
-411.369	-138.437	0.673	0.074
-410.355	-104.059	-0.192	-0.045
-409.340	-200.000	0.044	-0.651
-408.325	202.204	0.225	-0.347
-407.311	-125.460	0.265	-0.040
-406.296	129.063	-0.451	-0.574
-405.282	-81.315	1.001	-0.329
-404.267	-46.192	-0.189	0.093
-403.252	87.680	-0.515	0.568
-402.238	18.270	0.285	-0.227
-401.223	-71.967	0.480	-0.178
-400.209	800.000	-0.111	-0.368
-399.194	800.000	0.286	0.827
-398.179	-54.740	-0.759	-0.342
-397.165	-60.025	-0.954	0.406
-396.150	426.233	-0.163	0.351
-395.136	-78.878	-0.168	0.057
-394.121	181.428	-0.422	-0.618
-393.106	800.000	0.105	0.447
-392.092	-200.000	0.005	-0.041
-391.077	303.615	-0.109	0.201
-390.063	-200.000	0.016	0.598
-389.048	-53.750	-0.239	-0.109
-388.033	260.975	0.162	0.279
-387.019	224.811	-0.091	-0.147
-386.004	-200.000	0.040	0.699
-384.990	295.002	-0.239	0.436
-383.975	225.516	0.204	-0.329
-382.960	23.339	-0.533	0.437
-381.946	800.000	-0.130	-0.490
-380.931	228.528	0.071	0.115
-379.917	-55.850	0.625	0.278
-378.902	-200.000	0.076	0.352
-377.888	-171.745	-0.372	0.012
-376.873	800.000	-0.059	0.212
-375.858	-34.771	-0.329	-0.179
-374.844	-18.741	-0.311	-0.193
-373.829	103.370	0.481	0.562
-372.815	-9.790	-0.447	0.296
-371.800	800.000	0.253	0.753
-370.785	388.129	0.355	0.731
-369.771	158.247	-0.246	-0.340
-368.756	-200.000	-0.051	-0.563
-367.742	-96.773	0.717	-0.188
-366.727	-175.101	-0.659	0.018
-365.712	-82.427	0.692	-0.224
-364.698	-0.744	-0.818	-0.577
-363.683	323.877	-0.341	-0.648
-362.669	800.000	-0.130	0.536
-361.654	247.082	-0.295	0.496
-360.639	36.311	-0.159	0.140
-359.625	-1.147	0.377	0.265
-358.610	110.648	0.202	0.241
-357.596	226.034	0.054	-0.086
-356.581	-13.072	-0.607	-0.393
-355.566	-23.952	-0.722	-0.430
-354.552	-34.484	-0.595	0.324
-353.537	256.873	0.329	-0.563
-352.523	-53.221	-0.435	0.199
-351.508	-130.999	0.283	-0.038
-350.493	800.000	-0.072	-0.211
-349.479	-53.909	0.492	-0.223
-348.464	97.514	0.193	-0.220
-347.450	207.640	-0.203	0.315
-346.435	594.136	0.150	0.369
-345.420	800.000	-0.242	-0.738
-344.406	-23.197	-0.671	0.402
-343.391	440.938	0.437	0.950
-342.377	222.818	0.142	-0.227
-341.362	-200.000	0.045	1.062
-340.348	-135.678	-0.678	-0.080
-339.333	51.720	0.226	-0.213
-338.318	-200.000	0.161	-0.951
-337.304	-146.332	0.539	-0.047
-336.289	83.196	-0.325	0.352
-335.275	-16.864	0.293	0.184
-334.260	-200.000	0.018	-0.279
-333.245	4.910	-0.171	-0.125
-332.231	90.164	0.276	-0.307
-331.216	20.577	0.428	-0.344
-330.202	115.190	0.202	0.245
-329.187	-4.039	-0.601	-0.414
-328.172	71.284	-0.440	-0.454
-327.158	27.098	0.421	-0.351
-326.143	-200.000	0.110	0.675
-325.129	124.327	0.385	-0.482
-324.114	53.794	-0.360	-0.344
-323.099	362.186	-0.127	0.253
-322.085	173.461	0.054	-0.078
-321.070	-93.456	-0.717	0.197
-320.056	800.000	0.105	-0.453
-319.041	-200.000	0.041	-0.321
-318.026	-200.000	-0.056	0.430
-317.012	800.000	0.377	-1.220
-315.997	5.602	0.296	0.217
-314.983	800.000	-0.188	-0.750
-313.968	-200.000	0.035	-0.304
-312.953	120.910	0.494	0.610
-311.939	137.369	-0.251	0.326
-310.924	13.899	0.445	0.344
-309.910	193.547	0.700	1.053
-308.895	73.579	0.268	0.279
-307.880	167.489	-0.163	0.230
-306.866	-200.000	-0.029	0.821
-305.851	520.424	0.364	0.848
-304.837	-108.158	0.785	0.169
-303.822	800.000	0.253	1.048
-302.807	3.838	-0.194	0.141
-301.793	-200.000	0.041	-0.674
-300.778	-200.000	-0.185	1.013
-299.764	715.720	-0.321	0.847
-298.749	165.941	0.198	0.278
-297.735	506.535	0.103	-0.236
-296.720	419.244	0.059	-0.125
-295.705	-24.386	-0.357	-0.211
-294.691	800.000	-0.023	0.093
-293.676	230.852	0.019	0.030
-292.662	800.000	-0.386	-1.321
-291.647	-135.664	1.319	-0.155
-290.632	16.643	0.479	-0.376
-289.618	-56.933	0.872	0.382
-288.603	622.433	-0.086	-0.216
-287.589	-45.482	0.309	-0.152
-286.574	-121.866	-0.597	-0.098
-285.559	-200.000	0.019	0.690
-284.545	-6.959	0.370	0.250
-283.530	630.269	-0.064	0.160
-282.516	-72.730	0.332	-0.121
-281.501	-122.855	0.380	0.061
-280.486	100.804	-0.156	-0.180
-279.472	1.828	-0.183	0.131
-278.457	-95.419	0.793	-0.211
-277.443	703.163	-0.179	0.468
-276.428	-200.000	-0.172	0.747
-275.413	-45.164	0.811	0.400
-274.399	-200.000	0.148	0.918
-273.384	36.907	-0.033	0.029
-272.370	343.489	-0.117	-0.227
-271.355	-135.962	-0.499	0.058
-270.340	800.000	-0.244	0.962
-269.326	37.492	-0.648	0.570
-268.311	108.305	-0.325	-0.385
-267.297	616.039	-0.252	0.626
-266.282	-108.962	0.851	0.180
-265.267	-166.199	0.241	0.010
-264.253	-52.895	-0.744	-0.340
-263.238	-72.348	0.780	0.286
-262.224	-18.016	0.364	-0.226
-261.209	572.952	-0.363	-0.877
-260.195	-2.444	-0.537	-0.373
-259.180	-200.000	0.080	0.691
-258.165	-200.000	-0.068	-0.454
-257.151	-64.960	-0.225	-0.090
-256.136	181.175	0.069	0.101
-255.122	-200.000	-0.000	0.111
-254.107	45.868	0.715	0.656
-253.092	258.536	0.225	-0.384
-252.078	-57.536	0.281	-0.122
-251.063	-200.000	-0.043	-0.434
-250.049	800.000	-0.232	0.779
-249.034	-75.872	0.432	0.152
-248.019	-48.495	0.224	0.107
-247.005	-200.000	-0.071	0.384
-245.990	-190.882	0.608	-0.006
-244.976	800.000	0.136	-0.526
-243.961	250.593	0.346	0.582
-242.946	-64.785	-0.434	-0.174
-241.932	800.000	-0.165	-0.572
-240.917	-15.514	-0.355	0.225
-239.903	-68.945	0.484	-0.185
-238.888	-83.233	-0.212	-0.067
-237.873	110.372	-0.529	-0.630
-236.859	-151.988	-1.398	0.101
-235.844	-23.010	0.476	0.284
-234.830	-200.000	0.000	0.370
-233.815	800.000	-0.094	-0.327
-232.800	413.532	0.243	-0.513
-231.786	-200.000	-0.110	-0.820
-230.771	553.092	0.159	0.379
-229.757	-200.000	-0.052	-0.238
-228.742	-52.148	-0.491	-0.226
-227.727	-73.399	0.241	-0.087
-226.713	-144.569	0.603	0.055
-225.698	209.207	-0.471	-0.731
-224.684	-200.000	-0.057	0.719
-223.669	-79.602	-0.485	0.162
-222.655	-200.000	-0.093	0.477
-221.640	77.828	0.541	0.571
-220.625	-137.819	0.399	-0.044
-219.611	800.000	-0.064	-0.207
-218.596	-200.000	-0.071	-0.315
-217.582	27.780	-0.487	0.406
-216.567	-200.000	-0.199	-0.974
-215.552	-58.419	-0.685	0.295
-214.538	-200.000	0.018	-0.367
-213.523	64.637	0.402	-0.401
-212.509	-200.000	0.037	-0.354
-211.494	274.107	-0.399	-0.698
-210.479	-119.501	-0.393	0.067
-209.465	339.456	-0.149	0.288
-208.450	-98.959	0.843	-0.212
-207.436	-111.216	0.165	0.033
-206.421	-200.000	-0.088	-0.640
-205.406	800.000	0.365	-1.150
-204.392	11.281	-0.228	0.173
-203.377	-200.000	-0.026	0.237
-202.363	239.108	0.358	-0.589
-201.348	264.766	0.122	0.210
-200.333	58.641	-0.292	0.284
-199.319	-200.000	0.062	0.274
-198.304	-4.174	-0.072	-0.049
-197.290	11.511	0.538	0.408
-196.275	-83.526	-0.388	0.123
-195.260	800.000	-0.221	-0.736
-194.246	800.000	0.264	-0.899
-193.231	-200.000	-0.035	-0.325
-192.217	800.000	0.043	-0.177
-191.202	800.000	-0.122	-0.428
-190.187	-15.230	0.833	0.527
-189.173	130.415	0.310	-0.393
-188.158	-91.306	0.473	0.134
-187.144	-36.265	-0.172	-0.092
-186.129	-99.653	0.720	-0.179
-185.114	7.807	0.391	0.290
-184.100	-103.217	0.181	-0.042
-183.085	431.866	0.446	0.957
-182.071	800.000	-0.122	0.343
-181.056	-16.455	0.178	-0.112
-180.042	784.090	-0.249	-0.674
-179.027	359.639	0.149	0.295
-178.012	-123.043	0.527	0.084
-176.998	19.883	0.331	-0.264
-175.983	782.296	-0.231	-0.625
-174.969	96.721	0.330	-0.374
-173.954	800.000	0.032	-0.097
-172.939	91.497	-0.074	-0.082
-171.925	-109.846	0.791	-0.164
-170.910	-32.593	0.253	0.139
-169.896	-200.000	0.054	0.567
-168.881	274.905	-0.113	0.198
-167.866	27.690	0.292	0.243
-166.852	577.149	-0.072	-0.175
-165.837	-200.000	-0.043	-0.700
-164.823	206.287	0.225	0.346
-163.808	-25.073	0.690	0.404
-162.793	402.706	0.091	0.190
-161.779	-17.637	0.211	-0.131
-160.764	800.000	0.139	0.434
-159.750	78.730	0.364	0.384
-158.735	-7.624	-0.399	-0.266
-157.720	115.140	-0.407	-0.491
-156.706	123.359	0.428	0.530
-155.691	-151.434	1.008	-0.074
-154.677	57.464	-0.648	0.625
-153.662	-20.789	0.308	-0.186
-152.647	35.009	-0.931	0.804
-151.633	-100.462	-0.330	0.081
-150.618	-200.000	0.090	-1.019
-149.604	71.659	-0.869	-0.891
-148.589	-87.470	0.744	-0.222
-147.574	1.643	-0.601	-0.427
-146.560	-7.182	-0.454	-0.304
-145.545	-21.977	-0.291	0.174
-144.531	249.894	-0.071	0.118
-143.516	189.767	-0.441	-0.652
-142.502	104.993	-0.704	0.819
-141.487	599.305	0.164	-0.402
-140.472	-20.263	0.593	-0.360
-139.458	800.000	-0.223	0.962
-138.443	62.669	0.093	-0.092
-137.429	-144.606	0.263	0.024
-136.414	800.000	-0.145	0.485
-135.399	-200.000	0.075	0.504
-134.385	-192.693	-0.051	0.000
-133.370	-75.789	-0.592	-0.207
-132.356	76.768	-0.420	0.440
-131.341	-30.708	-0.675	0.377
-130.326	118.981	0.224	0.273
-129.312	585.108	-0.313	0.758
-128.297	-200.000	0.070	-0.502
-127.283	481.230	-0.120	0.269
-126.268	-82.352	0.644	0.207
-125.253	70.530	-0.324	0.330
-124.239	-134.863	0.421	-0.050
-123.224	136.706	-0.238	0.307
-122.210	292.223	0.477	0.856
-121.195	402.714	-0.307	0.636
-120.180	214.024	0.190	-0.297
-119.166	-12.284	0.465	-0.300
-118.151	37.703	1.000	-0.875
-117.137	-200.000	0.032	0.139
-116.122	48.895	-0.165	0.153
-115.107	-11.784	0.711	-0.460
-114.093	47.651	-0.634	-0.583
-113.078	23.468	0.665	-0.539
-112.064	800.000	0.180	0.521
-111.049	800.000	0.076	-0.239
-110.034	800.000	0.256	0.743
-109.020	-41.836	1.171	-0.592
-108.005	46.828	-0.217	-0.199
-106.991	-104.517	-0.576	-0.131
-105.976	489.736	0.335	0.756
-104.962	262.984	-0.362	0.620
-103.947	800.000	0.047	0.181
-102.932	-110.095	-0.842	-0.173
-101.918	40.352	-0.948	-0.840
-100.903	-67.652	-1.043	0.402
-99.889	-52.291	-0.502	-0.229
-98.874	-39.720	0.638	-0.328
-97.859	78.194	0.114	-0.120
-96.845	-112.077	-0.313	0.062
-95.830	-200.000	0.086	-0.708
-94.816	800.000	0.226	-0.781
-93.801	-58.333	-0.713	-0.305
-92.786	-53.646	-0.464	-0.209
-91.772	-200.000	0.019	-0.202
-90.757	-200.000	0.119	0.725
-89.743	-68.527	-0.250	0.095
-88.728	-111.616	-0.822	0.164
-87.713	-146.281	-0.191	-0.016
-86.699	92.558	0.335	0.372
-85.684	-25.312	0.346	-0.201
-84.670	-82.449	-0.358	-0.115
-83.655	-200.000	-0.064	-0.674
-82.640	-6.116	-0.118	-0.080
-81.626	641.481	-0.172	-0.432
-80.611	7.768	0.177	0.130
-79.597	106.950	-0.128	-0.149
-78.582	505.387	-0.117	-0.267
-77.567	-70.082	-0.939	-0.352
-76.553	-200.000	-0.010	-0.238
-75.538	240.851	0.582	-0.956
-74.524	-200.000	-0.005	-0.414
-73.509	-148.260	-0.163	-0.013
-72.494	800.000	0.251	-1.061
-71.480	-162.407	-0.413	0.020
-70.465	-67.153	-0.157	0.061
-69.451	220.427	0.579	0.913
-68.436	212.918	0.059	0.092
-67.422	110.227	-0.567	-0.670
-66.407	236.460	-0.097	-0.158
-65.392	689.194	-0.309	-0.794
-64.378	238.502	0.160	0.262
-63.363	82.266	-0.455	-0.485
-62.349	-200.000	0.036	-0.352
-61.334	67.570	-1.167	-1.173
-60.319	-46.102	0.761	0.369
-59.305	171.036	-0.593	-0.837
-58.290	800.000	0.815	2.286
-57.276	510.663	0.617	1.411
-56.261	-200.000	95.684	598.256
-55.246	676.215	1353.475	3458.381
-54.232	204.694	2516.684	3839.181
-53.217	120.256	2118.957	2586.520
-52.203	44.320	1590.246	1435.533
-51.188	35.737	1331.550	1150.873
-50.173	32.533	1291.394	1097.486
-49.159	55.770	1340.371	1277.480
-48.144	57.042	1356.372	1300.210
-47.130	36.022	1314.095	1137.287
-46.115	32.594	1297.923	1103.218
-45.100	32.299	1291.895	1096.331
-44.086	32.099	1289.924	1093.446
-43.071	31.926	1287.623	1090.450
-42.057	32.235	1285.507	1090.406
-41.042	32.210	1283.914	1088.870
-40.027	32.074	1282.194	1086.581
-39.013	32.376	1280.404	1086.762
-37.998	32.148	1279.203	1084.383
-36.984	32.311	1277.106	1083.505
-35.969	32.380	1274.311	1081.485
-34.954	32.437	1272.858	1080.537
-33.940	32.275	1271.211	1078.167
-32.925	32.548	1270.720	1079.271
-31.911	32.387	1269.206	1077.020
-30.896	32.251	1268.351	1075.475
-29.881	32.421	1265.982	1074.394
-28.867	32.506	1264.084	1073.224
-27.852	32.416	1264.158	1072.734
-26.838	32.302	1262.038	1070.245
-25.823	32.053	1261.894	1068.663
-24.809	32.460	1260.077	1069.392
-23.794	32.498	1258.013	1067.817
-22.779	32.419	1257.059	1066.516
-21.765	32.335	1256.783	1065.763
-20.750	32.367	1254.213	1063.720
-19.736	32.359	1253.282	1062.843
-18.721	32.338	1252.346	1061.889
-17.706	32.153	1251.078	1059.726
-16.692	32.457	1249.484	1060.051
-15.677	32.108	1248.392	1057.117
-14.663	32.446	1247.075	1057.862
-13.648	32.105	1246.687	1055.573
-12.633	32.278	1245.506	1055.504
-11.619	32.316	1244.671	1054.963
-10.604	32.118	1244.342	1053.532
-9.590	32.281	1242.040	1052.454
-8.575	32.295	1242.248	1052.670
-7.560	32.286	1240.274	1050.904
-6.546	32.259	1239.752	1050.267
-5.531	32.160	1240.198	1050.050
-4.517	32.076	1238.568	1048.161
-3.502	32.059	1238.510	1047.976
-2.487	32.178	1237.533	1047.769
-1.473	32.269	1232.190	1043.714
-0.458	30.431	1217.442	1021.086
0.556	28.084	1199.740	982.881
1.571	24.209	1205.382	966.444
2.586	23.223	1221.375	973.760
3.600	22.840	1208.007	960.931
4.615	17.120	1137.189	875.122
5.629	7.667	1063.090	772.282
6.644	3.832	1043.452	739.629
7.659	3.234	1041.128	735.066
8.673	3.403	1038.359	733.846
9.688	2.736	1038.614	730.784
10.702	3.678	1036.721	733.869
11.717	9.286	1045.005	766.467
12.731	18.559	1058.212	820.660
13.746	23.649	1063.148	848.822
14.761	24.305	1064.153	852.687
15.775	24.116	1062.464	850.355
16.790	23.833	1061.034	847.789
17.804	23.479	1061.891	846.708
18.819	23.489	1060.296	845.408
19.834	23.717	1058.549	845.024
20.848	23.382	1059.438	844.064
21.863	23.497	1059.524	844.605
22.877	23.126	1059.002	842.349
23.892	23.081	1058.247	841.457
24.907	22.988	1057.159	840.079
25.921	23.281	1055.313	839.927
26.936	23.156	1054.831	838.877
27.950	23.068	1051.882	836.039
28.965	23.273	1051.193	836.387
29.980	22.909	1050.200	833.805
30.994	23.309	1049.679	835.206
32.009	23.233	1048.910	834.160
33.023	23.245	1046.690	832.377
34.038	23.289	1046.665	832.490
35.053	23.400	1045.063	831.666
36.067	23.104	1044.585	829.821
37.082	23.113	1042.885	828.438
38.096	23.440	1043.041	830.020
39.111	23.499	1042.658	829.918
40.126	23.265	1041.460	827.799
41.140	22.818	1040.194	824.632
42.155	22.511	1039.376	822.477
43.169	22.730	1037.275	821.765
44.184	22.904	1035.519	821.106
45.199	22.593	1036.015	819.981
46.213	22.653	1035.479	819.764
47.228	23.251	1034.528	821.716
48.242	23.366	1033.813	821.606
49.257	23.499	1033.446	821.861
50.271	23.587	1032.644	821.558
51.286	23.848	1031.799	822.018
52.301	23.616	1030.950	820.196
53.315	23.255	1030.054	817.745
54.330	23.388	1028.074	816.712
55.344	23.293	1027.825	816.008
56.359	23.223	1027.353	815.237
57.374	23.092	1025.986	813.477
58.388	23.060	1024.436	812.031
59.403	22.872	1023.990	810.743
60.417	22.880	1023.010	809.932
61.432	22.893	1022.834	809.778
62.447	23.035	1021.149	809.024
63.461	22.697	1021.266	807.499
64.476	23.036	1019.082	807.247
65.490	22.795	1018.424	805.553
66.505	22.843	1018.344	805.639
67.520	22.715	1018.033	804.740
68.534	22.502	1017.110	802.969
69.549	22.370	1015.881	801.325
70.563	22.297	1015.173	800.360
71.578	22.016	1014.743	798.673
72.593	22.004	1012.770	796.996
73.607	22.073	1011.713	796.407
74.622	22.193	1012.965	797.867
75.636	22.489	1011.676	798.124
76.651	22.086	1012.833	797.135
77.666	22.485	1010.420	796.974
78.680	22.463	1009.568	796.131
79.695	22.507	1008.749	795.614
80.709	22.688	1008.904	796.481
81.724	22.392	1008.612	794.844
82.739	22.947	1007.303	796.244
83.753	23.335	1006.082	796.953
84.768	23.546	1007.016	798.576
85.782	23.936	1004.908	798.584
86.797	23.751	1005.806	798.397
87.812	23.485	1004.318	795.948
88.826	23.609	1003.371	795.683
89.841	23.822	1001.830	795.345
90.855	23.749	1001.019	794.305
91.870	23.667	1000.456	793.423
92.884	23.639	998.794	791.908
93.899	23.669	997.686	791.092
94.914	23.768	997.506	791.321
95.928	23.634	996.737	790.046
96.943	23.172	995.971	787.314
97.957	23.301	995.155	787.171
98.972	23.515	994.747	787.732
99.987	23.618	993.310	786.979
101.001	23.582	991.825	785.576
102.016	23.576	990.770	784.642
103.030	23.549	991.053	784.678
104.045	23.402	990.304	783.364
105.060	23.278	988.835	781.587
106.074	23.203	988.310	780.774
107.089	23.172	987.204	779.691
108.103	22.890	986.244	777.623
109.118	22.761	984.589	775.684
110.133	22.481	983.640	773.636
111.147	22.678	983.319	774.180
112.162	22.601	982.065	772.787
113.176	22.833	981.017	772.908
114.191	22.769	979.967	771.737
115.206	22.763	979.293	771.109
116.220	22.786	978.327	770.379
117.235	22.735	977.263	769.255
118.249	22.323	977.561	767.620
119.264	22.269	976.236	766.276
120.279	22.250	975.203	765.316
121.293	22.173	974.684	764.509
122.308	21.975	974.725	763.611
123.322	22.171	972.429	762.595
124.337	22.183	970.445	761.023
125.352	22.144	970.776	761.047
126.366	22.240	969.913	760.720
127.381	22.189	969.823	760.358
128.395	22.747	968.088	761.341
129.410	22.712	967.420	760.597
130.424	22.634	967.326	760.118
131.439	23.082	966.458	761.298
132.454	22.927	965.799	760.045
133.468	23.090	964.248	759.459
134.483	22.995	963.096	758.077
135.497	22.834	963.446	757.594
136.512	22.919	962.219	756.926
137.527	23.020	960.957	756.297
138.541	22.999	960.490	755.773
139.556	23.329	960.007	756.738
140.570	23.331	959.043	755.917
141.585	24.032	958.604	758.495
142.600	23.663	958.125	756.476
143.614	23.711	957.216	755.895
144.629	23.758	956.938	755.808
145.643	23.771	955.214	754.438
146.658	23.439	953.765	751.817
147.673	23.180	953.491	750.439
148.687	23.075	951.778	748.578
149.702	22.996	951.051	747.607
150.716	22.984	950.883	747.356
151.731	22.972	949.935	746.496
152.746	23.074	949.498	746.518
153.760	23.395	949.321	747.666
154.775	23.464	948.763	747.449
155.789	23.730	946.670	746.853
156.804	23.445	946.305	745.305
157.819	23.516	945.238	744.696
158.833	23.534	945.435	744.857
159.848	24.056	944.113	745.938
160.862	23.861	943.201	744.335
161.877	23.405	941.899	741.337
162.892	23.106	940.928	739.259
163.906	22.808	940.946	737.961
164.921	23.272	938.488	737.900
165.935	23.061	938.110	736.661
166.950	23.260	937.699	737.101
167.964	22.930	937.308	735.355
168.979	23.047	935.466	734.333
169.994	23.442	934.017	734.767
171.008	23.587	932.969	734.477
172.023	23.775	933.526	735.628
173.037	23.790	932.920	735.147
174.052	23.431	932.816	733.515
175.067	23.054	931.467	730.831
176.081	22.657	929.719	727.758
177.096	22.867	929.128	728.096
178.110	22.700	929.219	727.415
179.125	22.459	928.861	726.078
180.140	22.533	929.262	726.630
181.154	23.300	928.116	728.830
182.169	23.344	928.384	729.154
183.183	23.480	927.335	728.827
184.198	23.281	927.399	727.993
185.213	23.258	926.198	726.893
186.227	23.324	925.713	726.718
187.242	23.508	924.487	726.445
188.256	23.892	924.463	727.933
189.271	23.900	922.573	726.414
190.286	23.487	922.029	724.235
191.300	22.797	920.930	720.493
192.315	22.466	919.807	718.202
193.329	22.716	919.673	719.052
194.344	23.063	919.590	720.339
195.359	23.239	918.871	720.427
196.373	23.160	919.131	720.243
197.388	23.761	917.918	721.675
198.402	23.684	918.971	722.123
199.417	24.100	917.422	722.530
200.432	23.891	917.172	721.421
201.446	23.958	916.926	721.435
202.461	23.963	916.118	720.758
203.475	23.512	915.832	718.641
204.490	23.173	914.870	716.453
205.504	23.524	912.503	715.951
206.519	23.365	912.929	715.579
207.534	23.526	911.440	715.000
208.548	23.472	912.279	715.375
209.563	23.654	910.636	714.759
210.577	23.596	908.994	713.173
211.592	23.705	910.154	714.457
212.607	24.021	908.835	714.630
213.621	23.619	908.830	712.946
214.636	23.720	907.368	712.141
215.650	23.829	906.764	712.040
216.665	23.673	906.776	711.363
217.680	23.453	906.166	709.940
218.694	23.630	904.826	709.537
219.709	23.768	903.938	709.328
220.723	23.905	902.668	708.812
221.738	23.572	901.700	706.664
222.753	23.482	901.681	706.228
223.767	23.435	902.307	706.468
224.782	23.978	901.731	708.118
225.796	23.929	900.933	707.232
226.811	23.597	900.355	705.398
227.826	23.361	898.617	703.039
228.840	23.220	899.131	702.818
229.855	23.318	898.704	702.811
230.869	23.136	897.184	700.840
231.884	23.329	895.995	700.613
232.899	23.656	895.531	701.478
233.913	23.345	895.452	700.126
234.928	23.116	894.368	698.312
235.942	22.825	894.386	697.118
236.957	22.628	894.274	696.188
237.972	22.950	893.261	696.607
238.986	22.881	892.632	695.785
240.001	22.557	892.200	694.109
241.015	23.067	891.111	695.209
242.030	23.208	890.911	695.543
243.045	23.246	890.779	695.530
244.059	23.304	889.692	694.846
245.074	23.440	889.447	695.126
246.088	23.633	888.979	695.457
247.103	23.699	888.108	694.969
248.117	24.280	887.975	697.078
249.132	24.724	888.135	698.878
250.147	25.050	886.902	699.116
251.161	24.995	887.253	699.117
252.176	24.884	887.380	698.722
253.190	25.089	886.379	698.672
254.205	24.786	885.995	697.127
255.220	24.399	884.631	694.487
256.234	24.744	884.009	695.278
257.249	24.592	883.310	694.076
258.263	24.846	882.556	694.407
259.278	24.710	882.257	693.582
260.293	24.385	881.678	691.808
261.307	24.928	880.435	692.873
262.322	24.360	880.950	691.015
263.336	24.436	880.729	691.075
264.351	24.240	879.006	688.906
265.366	24.302	878.685	688.833
266.380	24.470	877.204	688.259
267.395	24.721	876.473	688.591
268.409	24.657	874.896	687.043
269.424	24.360	876.227	686.888
270.439	23.965	875.122	684.439
271.453	24.379	874.005	685.094
272.468	24.342	874.058	684.936
273.482	24.589	873.053	685.032
274.497	24.539	872.454	684.310
275.512	24.608	871.381	683.675
276.526	24.229	871.546	682.289
277.541	24.645	870.431	682.950
278.555	24.647	870.454	682.913
279.570	25.116	870.146	684.401
280.585	24.982	869.523	683.340
281.599	24.620	868.283	680.928
282.614	24.127	867.436	678.324
283.628	23.941	867.309	677.457
284.643	24.071	866.575	677.316
285.657	24.260	865.672	677.273
286.672	23.955	866.029	676.330
287.687	24.380	865.121	677.175
288.701	24.236	864.377	675.986
289.716	24.070	863.986	674.991
290.730	24.091	863.807	674.871
291.745	24.326	862.644	674.793
292.760	24.542	862.426	675.380
293.774	24.929	862.166	676.579
294.789	25.036	861.122	676.103
295.803	25.013	859.806	674.923
296.818	24.208	859.570	671.647
297.833	24.243	859.399	671.584
298.847	24.429	858.460	671.491
299.862	24.700	857.974	672.072
300.876	24.418	857.736	670.764
301.891	24.909	857.702	672.525
302.906	25.186	856.126	672.266
303.920	25.122	856.876	672.557
304.935	25.139	856.028	671.896
305.949	25.292	855.132	671.705
306.964	24.879	853.582	668.886
307.979	24.662	853.730	668.131
308.993	25.076	852.933	668.992
310.008	24.835	852.781	667.917
311.022	24.759	852.145	667.077
312.037	24.820	850.661	666.080
313.052	24.583	849.903	664.546
314.066	24.231	849.533	662.890
315.081	24.159	848.490	661.750
316.095	24.083	848.657	661.541
317.110	24.415	847.773	662.025
318.125	24.296	847.248	661.114
319.139	23.567	847.028	658.181
320.154	23.960	846.338	659.045
321.168	24.245	846.026	659.797
322.183	24.139	845.124	658.643
323.197	24.194	845.333	658.953
324.212	24.230	844.585	658.443
325.227	24.090	844.900	658.112
326.241	24.037	843.719	656.938
327.256	23.911	842.556	655.510
328.270	23.986	841.106	654.601
329.285	23.826	841.204	654.031
330.300	23.902	840.293	653.545
331.314	23.828	840.085	653.053
332.329	24.486	839.374	654.855
333.343	24.604	839.899	655.642
334.358	24.355	840.465	655.110
335.373	24.655	839.435	655.350
336.387	24.508	838.923	654.353
337.402	24.718	839.357	655.403
338.416	25.198	838.468	656.406
339.431	25.378	837.305	656.097
340.446	25.403	838.133	656.778
341.460	25.450	836.713	655.782
342.475	25.091	838.417	655.744
343.489	25.579	837.512	656.763
344.504	25.432	836.740	655.560
345.519	25.758	836.151	656.231
346.533	25.582	835.937	655.364
347.548	25.264	833.848	652.513
348.562	25.090	833.666	651.677
349.577	25.235	833.674	652.156
350.592	24.719	832.398	649.227
351.606	24.560	832.152	648.399
352.621	24.421	831.158	647.065
353.635	25.032	829.633	648.028
354.650	24.787	828.988	646.584
355.665	24.657	829.019	646.081
356.679	24.735	829.030	646.312
357.694	24.948	827.878	646.128
358.708	24.796	827.436	645.177
359.723	24.439	827.008	643.499
360.738	24.493	826.740	643.427
361.752	24.676	825.464	643.036
362.767	25.528	825.397	645.989
363.781	25.311	825.759	645.437
364.796	25.471	824.715	645.136
365.810	25.474	824.787	645.147
366.825	25.705	824.199	645.459
367.840	25.309	824.059	643.870
368.854	24.774	823.410	641.390
369.869	25.305	820.902	641.277
370.883	25.254	820.915	641.047
371.898	25.595	821.573	642.724
372.913	25.766	821.280	643.049
373.927	24.993	820.605	639.705
374.942	25.322	819.253	639.767
375.956	25.421	819.096	639.938
376.971	25.526	819.285	640.403
377.986	25.476	819.454	640.302
379.000	25.800	818.286	640.485
380.015	25.774	817.565	639.771
381.029	25.841	816.805	639.359
382.044	25.681	816.973	638.865
383.059	25.596	816.505	638.143
384.073	25.779	815.446	637.906
385.088	24.893	814.577	634.034
386.102	24.975	814.083	633.881
387.117	25.156	812.933	633.569
388.132	25.163	812.146	632.927
389.146	25.131	812.381	632.939
390.161	25.288	812.471	633.509
391.175	26.264	811.038	635.772
392.190	25.559	811.264	633.408
393.205	25.212	808.864	630.261
394.219	24.587	808.937	628.065
395.234	24.672	809.214	628.525
396.248	24.839	808.864	628.784
397.263	24.939	808.250	628.600
398.278	24.747	807.926	627.620
399.292	24.378	808.046	626.363
400.307	24.250	806.729	624.837
401.321	24.942	806.201	626.797
402.336	25.143	806.099	627.363
403.350	25.340	806.053	627.961
404.365	25.793	805.177	628.807
405.380	26.196	805.489	630.402
406.394	25.643	804.866	627.928
407.409	26.308	804.246	629.709
408.423	26.212	804.684	629.659
409.438	26.100	804.810	629.311
410.453	26.066	803.753	628.313
411.467	25.866	803.440	627.317
412.482	25.771	802.768	626.404
413.496	25.926	802.467	626.655
414.511	26.013	801.846	626.416
415.526	25.625	801.610	624.829
416.540	26.209	799.820	625.402
417.555	26.078	799.591	624.713
418.569	26.197	799.623	625.095
419.584	25.712	800.492	624.038
420.599	25.848	799.292	623.517
421.613	160.964	1371.049	1792.626
422.628	139.692	1454.355	1792.629
