DTS Sentinel unit serial number:	SN413079Multiplexer serial number:	ORYXHardware model number:	OX4-SRSoftware version number:	ORYX F/W v4.00 Oryx Data Collector v3.7.2.0data status	okinstallation	princeton_trtdifferential loss correction	single-endedforward channel	channel 1reverse channel	N/Adate	2019/09/14time	13:02:35forward acquisition time	60.00reverse acquisition time	0.00gamma	496.2192k internal	0.2294k external	0.2294temperature offset calibration	1.0092default loss term (dB/km)	0.3790temperature slope calibration	1.0000multiplexer offset coefficient	1.0000multiplexer slope coefficient	1.0000fibre end	0.00T internal ref (°C)	37.98T ext. ref 1 (°C)	4.84T ext. ref 2 (°C)	33.02length (m)	temperature (°C)	Stokes	anti-Stokes-747.200	332.167	0.222	0.438
-746.185	123.087	-0.161	0.206
-745.171	-67.217	0.281	0.113
-744.156	800.000	0.057	0.217
-743.142	-200.000	0.045	0.317
-742.127	800.000	0.102	0.361
-741.112	483.206	0.083	0.193
-740.098	-200.000	0.068	-0.000
-739.083	242.567	-0.081	0.138
-738.069	254.922	0.013	-0.022
-737.054	84.342	0.222	-0.249
-736.039	-74.663	-0.320	-0.117
-735.025	22.254	0.215	0.179
-734.010	127.183	0.167	-0.216
-732.996	800.000	-0.108	-0.307
-731.981	-84.651	0.162	0.052
-730.966	701.176	-0.030	0.082
-729.952	98.458	0.309	-0.364
-728.937	-200.000	-0.016	-0.261
-727.923	-36.566	-0.060	0.033
-726.908	189.001	0.079	0.120
-725.894	14.750	-0.114	-0.091
-724.879	100.325	0.135	0.161
-723.864	-200.000	-0.063	-0.322
-722.850	3.535	0.046	0.034
-721.835	-200.000	0.021	-0.118
-720.821	-1.538	0.296	-0.213
-719.806	-200.000	-0.001	-0.231
-718.791	-68.543	-0.233	0.092
-717.777	-177.680	-0.152	-0.004
-716.762	484.424	-0.072	-0.168
-715.748	236.994	0.161	-0.273
-714.733	386.524	0.060	0.127
-713.718	229.878	-0.120	0.200
-712.704	-88.939	-0.302	0.091
-711.689	800.000	0.037	0.130
-710.675	15.469	0.163	-0.131
-709.660	800.000	-0.035	-0.123
-708.645	350.503	-0.062	0.125
-707.631	-97.184	0.308	0.082
-706.616	58.912	0.164	0.165
-705.602	-45.009	0.063	-0.032
-704.587	-200.000	0.036	-0.173
-703.572	63.367	0.258	-0.264
-702.558	-122.627	-0.178	0.029
-701.543	800.000	-0.040	-0.163
-700.529	-127.238	0.180	-0.027
-699.514	-200.000	0.020	-0.144
-698.499	-13.827	-0.173	0.114
-697.485	-200.000	-0.008	-0.194
-696.470	199.183	-0.077	0.120
-695.456	445.487	-0.166	0.371
-694.441	-78.820	-0.138	-0.048
-693.426	800.000	0.040	0.161
-692.412	2.212	0.151	-0.112
-691.397	103.498	0.247	-0.296
-690.383	-147.992	-0.463	-0.039
-689.368	172.044	-0.159	-0.233
-688.354	125.342	0.167	-0.215
-687.339	135.807	-0.154	0.205
-686.324	67.135	-0.379	-0.394
-685.310	38.160	-0.297	0.269
-684.295	-17.359	0.196	0.126
-683.281	-150.158	0.128	-0.010
-682.266	-175.361	0.269	-0.008
-681.251	-200.000	-0.026	0.198
-680.237	-200.000	0.009	-0.115
-679.222	-98.054	-0.045	-0.012
-678.208	94.875	0.061	0.071
-677.193	-200.000	0.046	0.226
-676.178	800.000	0.110	0.329
-675.164	45.458	0.158	0.149
-674.149	-68.005	-0.238	0.095
-673.135	-200.000	0.097	0.000
-672.120	733.077	-0.077	0.211
-671.105	-200.000	-0.017	0.091
-670.091	45.347	0.159	0.150
-669.076	-63.071	-0.211	0.089
-668.062	398.039	0.128	0.273
-667.047	544.837	-0.058	0.140
-666.032	-97.726	-0.277	0.073
-665.018	45.972	-0.130	0.123
-664.003	-148.976	-0.283	-0.023
-662.989	426.686	0.159	-0.349
-661.974	401.701	-0.093	-0.199
-660.959	-200.000	0.042	-0.492
-659.945	47.402	0.172	-0.164
-658.930	125.727	-0.080	-0.103
-657.916	-138.075	0.164	0.019
-656.901	129.247	0.182	-0.236
-655.886	242.624	0.165	-0.282
-654.872	-200.000	-0.017	-0.135
-653.857	-200.000	0.002	0.121
-652.843	72.189	-0.124	-0.132
-651.828	-63.862	-0.190	0.079
-650.814	800.000	0.038	-0.108
-649.799	-200.000	-0.049	-0.225
-648.784	-115.884	0.189	-0.036
-647.770	573.670	0.030	-0.074
-646.755	111.990	-0.083	0.102
-645.741	800.000	0.029	0.112
-644.726	430.143	0.086	0.189
-643.711	-64.500	0.367	0.152
-642.697	-200.000	-0.052	0.263
-641.682	431.165	0.043	0.095
-640.668	-4.586	-0.089	0.063
-639.653	-73.290	0.060	-0.023
-638.638	-90.837	-0.065	0.019
-637.624	-130.069	0.348	0.048
-636.609	-66.458	0.392	0.159
-635.595	-52.218	-0.384	-0.181
-634.580	332.988	-0.139	-0.273
-633.565	311.683	0.088	0.168
-632.551	-200.000	-0.052	-0.250
-631.536	-2.656	-0.082	0.058
-630.522	-200.000	0.031	-0.185
-629.507	-61.347	0.068	-0.029
-628.492	-92.503	-0.409	0.117
-627.478	-179.658	-0.123	0.003
-626.463	150.284	0.051	-0.071
-625.449	800.000	0.059	0.239
-624.434	-121.686	-0.060	0.010
-623.419	205.785	0.119	-0.189
-622.405	462.382	-0.073	-0.166
-621.390	800.000	-0.062	-0.184
-620.376	104.410	0.120	-0.144
-619.361	-167.978	0.095	0.004
-618.346	-130.962	-0.407	0.055
-617.332	-200.000	-0.005	-0.071
-616.317	0.271	-0.126	-0.092
-615.303	326.153	0.149	-0.290
-614.288	49.703	-0.243	0.233
-613.273	125.637	0.063	0.081
-612.259	-13.705	-0.088	0.058
-611.244	96.957	-0.195	-0.227
-610.230	800.000	-0.047	0.134
-609.215	-104.703	-0.346	0.081
-608.201	-135.813	0.077	0.009
-607.186	323.923	-0.095	-0.185
-606.171	-162.354	0.362	-0.018
-605.157	347.820	0.131	-0.263
-604.142	-73.956	0.343	0.127
-603.128	800.000	-0.086	0.284
-602.113	-200.000	-0.011	0.137
-601.098	800.000	0.069	-0.280
-600.084	-86.990	-0.138	-0.043
-599.069	-72.429	-0.099	-0.037
-598.055	304.605	-0.152	-0.287
-597.040	-52.515	-0.269	0.126
-596.025	-200.000	0.027	0.186
-595.011	-87.348	-0.190	0.059
-593.996	-6.075	0.170	0.118
-592.982	163.727	-0.157	0.225
-591.967	-200.000	-0.029	-0.151
-590.952	303.384	-0.115	0.216
-589.938	-200.000	-0.017	0.103
-588.923	800.000	-0.102	-0.296
-587.909	-106.535	0.194	0.044
-586.894	-98.281	0.108	0.028
-585.879	-16.694	-0.233	-0.150
-584.865	-164.283	0.303	0.014
-583.850	-200.000	-0.018	-0.102
-582.836	-200.000	0.032	0.206
-581.821	-200.000	-0.014	0.210
-580.806	-52.865	-0.252	0.118
-579.792	800.000	0.021	-0.075
-578.777	-101.689	0.253	-0.062
-577.763	800.000	0.131	-0.499
-576.748	110.306	0.166	0.203
-575.733	-9.326	-0.018	0.012
-574.719	-76.978	-0.200	-0.071
-573.704	-200.000	0.043	-0.216
-572.690	66.391	-0.089	0.092
-571.675	-13.393	-0.412	0.271
-570.661	-42.948	-0.370	0.191
-569.646	165.331	0.035	-0.050
-568.631	-58.215	0.166	0.074
-567.617	-176.857	-0.003	0.000
-566.602	-28.244	0.137	-0.081
-565.588	-34.641	-0.043	0.024
-564.573	103.261	-0.069	-0.082
-563.558	203.780	-0.154	-0.242
-562.544	604.852	-0.101	-0.255
-561.529	-94.533	0.181	0.050
-560.515	-17.482	-0.146	0.093
-559.500	-200.000	0.023	-0.252
-558.485	-129.426	-0.102	0.014
-557.471	-143.578	0.108	0.010
-556.456	215.800	-0.132	0.214
-555.442	800.000	-0.055	-0.165
-554.427	-99.938	0.376	0.095
-553.412	-200.000	-0.027	0.165
-552.398	-89.943	-0.389	-0.115
-551.383	-46.515	0.146	-0.073
-550.369	332.470	0.119	-0.234
-549.354	653.752	0.057	-0.149
-548.339	67.904	0.140	-0.145
-547.325	-9.272	-0.072	-0.049
-546.310	-17.817	-0.158	0.100
-545.296	-113.096	0.518	-0.104
-544.281	683.198	0.056	0.148
-543.266	36.438	0.142	-0.127
-542.252	-148.086	-0.117	0.010
-541.237	18.053	0.107	0.086
-540.223	473.411	-0.114	0.260
-539.208	0.446	0.152	0.110
-538.193	-28.994	-0.182	0.106
-537.179	-97.917	0.390	0.102
-536.164	-200.000	0.053	-0.259
-535.150	28.474	-0.065	0.056
-534.135	5.576	-0.045	0.034
-533.121	-200.000	0.000	-0.253
-532.106	71.540	0.169	-0.178
-531.091	16.596	-0.215	0.173
-530.077	800.000	-0.038	-0.114
-529.062	6.093	0.234	0.176
-528.048	-2.284	-0.096	-0.068
-527.033	229.212	0.221	-0.366
-526.018	-144.197	-0.222	-0.021
-525.004	-200.000	-0.034	-0.305
-523.989	-200.000	0.036	-0.254
-522.975	277.275	0.181	0.327
-521.960	-200.000	0.021	0.160
-520.945	390.276	0.193	0.405
-519.931	140.933	0.259	-0.347
-518.916	426.190	-0.059	-0.130
-517.902	800.000	0.125	-0.535
-516.887	51.340	-0.249	-0.239
-515.872	-61.566	-0.218	0.093
-514.858	-34.030	-0.129	0.072
-513.843	-135.137	-0.227	-0.028
-512.829	75.288	-0.225	0.240
-511.814	-11.594	-0.170	0.113
-510.799	-15.405	-0.157	0.102
-509.785	272.531	0.167	0.299
-508.770	-48.830	0.074	-0.036
-507.756	-62.860	0.292	-0.123
-506.741	-18.334	-0.121	-0.076
-505.726	342.562	-0.163	-0.322
-504.712	-51.040	-0.149	-0.071
-503.697	-8.452	0.215	0.147
-502.683	83.994	-0.211	-0.234
-501.668	-200.000	-0.038	-0.326
-500.653	-34.025	0.134	0.075
-499.639	13.466	-0.148	0.116
-498.624	-65.612	-0.315	-0.128
-497.610	782.652	0.085	-0.237
-496.595	65.693	-0.183	-0.188
-495.581	-23.588	-0.205	0.124
-494.566	-143.074	0.093	-0.009
-493.551	321.490	0.183	-0.353
-492.537	-32.200	-0.167	0.094
-491.522	-87.685	0.258	0.079
-490.508	147.913	0.105	-0.143
-489.493	-38.300	0.104	0.056
-488.478	-6.525	-0.187	-0.129
-487.464	800.000	0.043	-0.124
-486.449	-200.000	-0.016	-0.276
-485.435	157.892	-0.123	0.172
-484.420	-60.954	0.116	-0.050
-483.405	-200.000	-0.003	-0.152
-482.391	-157.204	0.207	0.013
-481.376	-140.855	0.364	-0.038
-480.362	440.353	0.083	0.183
-479.347	-119.114	0.207	-0.037
-478.332	-58.703	-0.133	-0.058
-477.318	800.000	-0.112	-0.367
-476.303	23.516	-0.207	0.172
-475.289	565.317	0.065	0.159
-474.274	607.818	0.076	-0.191
-473.259	-200.000	-0.033	-0.244
-472.245	-118.115	-0.133	-0.024
-471.230	-131.652	-0.072	-0.010
-470.216	30.178	0.141	-0.121
-469.201	-1.956	0.020	0.014
-468.186	-36.150	0.250	-0.137
-467.172	-57.802	0.184	0.081
-466.157	-45.921	-0.129	-0.064
-465.143	-40.152	0.231	0.122
-464.128	190.870	-0.074	-0.112
-463.113	800.000	0.071	-0.297
-462.099	336.254	0.073	-0.144
-461.084	219.095	-0.140	-0.226
-460.070	-116.411	-0.128	0.024
-459.055	-16.551	-0.216	0.138
-458.040	-68.690	-0.196	0.077
-457.026	61.301	-0.037	0.037
-456.011	-95.267	-0.235	0.064
-454.997	52.607	0.153	-0.148
-453.982	-79.738	0.034	0.012
-452.968	210.289	-0.047	0.075
-451.953	336.463	-0.096	-0.189
-450.938	467.140	-0.072	0.163
-449.924	-30.372	-0.164	-0.094
-448.909	43.041	0.189	-0.175
-447.895	-141.943	-0.145	0.015
-446.880	-200.000	0.254	0.000
-445.865	100.529	-0.110	0.130
-444.851	93.236	0.243	0.278
-443.836	-6.029	0.326	-0.225
-442.822	-85.849	-0.281	0.088
-441.807	-200.000	-0.386	-0.001
-440.792	-200.000	-0.015	0.089
-439.778	50.076	0.307	-0.293
-438.763	-183.622	-0.080	0.001
-437.749	12.285	-0.204	-0.159
-436.734	281.759	0.156	-0.282
-435.719	286.043	-0.057	-0.104
-434.705	-75.598	0.478	-0.172
-433.690	-64.717	0.222	0.091
-432.676	-72.165	-0.168	0.063
-431.661	800.000	0.039	0.114
-430.646	800.000	0.030	-0.119
-429.632	-200.000	-0.003	-0.199
-428.617	-20.356	0.135	0.084
-427.603	78.522	-0.210	0.227
-426.588	-54.576	-0.123	-0.056
-425.573	-200.000	0.015	-0.151
-424.559	-65.900	0.082	-0.033
-423.544	463.480	-0.236	-0.532
-422.530	-200.000	-0.003	0.144
-421.515	66.861	-0.254	0.262
-420.500	-76.186	-0.317	-0.113
-419.486	62.347	0.124	0.125
-418.471	-40.315	0.273	-0.143
-417.457	-200.000	-0.022	0.198
-416.442	307.121	0.104	0.196
-415.428	-26.326	0.318	-0.188
-414.413	181.521	0.128	-0.190
-413.398	-11.806	0.275	-0.182
-412.384	572.980	-0.132	0.324
-411.369	34.850	-0.246	0.217
-410.355	83.019	-0.244	-0.268
-409.340	294.889	-0.167	-0.309
-408.325	800.000	0.058	-0.193
-407.311	-106.022	-0.309	-0.070
-406.296	-75.362	-0.037	-0.013
-405.282	-51.020	0.111	0.053
-404.267	-49.099	0.210	-0.101
-403.252	-104.786	0.079	-0.018
-402.238	-200.000	-0.051	0.262
-401.223	44.588	0.398	-0.369
-400.209	121.924	0.143	0.180
-399.194	-147.698	0.264	0.022
-398.179	286.800	-0.153	-0.278
-397.165	53.185	-0.153	-0.148
-396.150	-11.351	0.154	0.102
-395.136	256.103	-0.064	0.112
-394.121	-149.670	-0.344	0.027
-393.106	-137.992	0.328	0.037
-392.092	-78.252	-0.151	0.052
-391.077	-200.000	0.010	-0.128
-390.063	-96.591	0.218	-0.058
-389.048	181.137	-0.151	-0.225
-388.033	34.042	0.179	-0.157
-387.019	428.066	0.094	0.204
-386.004	800.000	-0.069	-0.245
-384.990	34.880	-0.194	0.171
-383.975	-10.551	0.247	0.165
-382.960	800.000	0.079	-0.244
-381.946	41.615	0.180	-0.164
-380.931	779.881	0.009	0.025
-379.917	-50.433	0.144	-0.069
-378.902	454.595	0.109	0.244
-377.888	-135.509	0.173	-0.021
-376.873	-7.162	0.171	0.117
-375.858	-136.375	-0.134	-0.016
-374.844	-54.450	-0.069	0.031
-373.829	-200.000	-0.034	0.187
-372.815	-57.767	0.175	0.077
-371.800	-200.000	0.006	0.109
-370.785	-0.527	0.158	0.113
-369.771	20.451	0.235	-0.191
-368.756	-106.072	-0.077	-0.017
-367.742	182.493	-0.083	0.123
-366.727	-124.496	-0.355	-0.056
-365.712	-68.135	-0.277	0.109
-364.698	54.434	-0.180	0.175
-363.683	-82.974	0.092	0.030
-362.669	-97.028	0.270	0.071
-361.654	-189.467	-0.409	0.005
-360.639	49.870	-0.074	-0.070
-359.625	304.363	0.165	0.309
-358.610	800.000	-0.038	0.148
-357.596	132.980	0.059	-0.076
-356.581	167.905	0.143	0.204
-355.566	-123.057	0.151	0.024
-354.552	-200.000	-0.042	0.244
-353.537	-22.872	-0.065	-0.039
-352.523	800.000	-0.071	0.237
-351.508	-4.860	0.172	0.119
-350.493	-47.816	-0.045	-0.022
-349.479	-102.781	-0.226	-0.054
-348.464	-200.000	0.009	-0.145
-347.450	-200.000	-0.004	-0.034
-346.435	-30.450	0.129	-0.073
-345.420	-200.000	0.002	0.020
-344.406	-105.068	0.150	-0.035
-343.391	-97.953	-0.108	0.028
-342.377	-133.761	-0.286	-0.036
-341.362	-200.000	0.016	-0.258
-340.348	-142.302	0.283	0.028
-339.333	800.000	-0.073	0.311
-338.318	178.032	0.200	0.294
-337.304	-200.000	0.020	0.199
-336.289	-80.149	-0.201	0.068
-335.275	75.910	-0.137	-0.146
-334.260	-73.599	-0.551	-0.202
-333.245	-151.526	-0.202	-0.015
-332.231	-2.599	-0.169	-0.119
-331.216	27.033	0.147	0.124
-330.202	663.427	-0.096	0.250
-329.187	402.467	0.040	-0.084
-328.172	-200.000	-0.065	-0.360
-327.158	-94.544	0.308	-0.084
-326.143	237.293	0.072	-0.120
-325.129	107.514	0.145	-0.174
-324.114	742.938	0.052	-0.140
-323.099	44.706	-0.325	0.301
-322.085	-61.068	0.170	0.072
-321.070	261.725	-0.181	0.316
-320.056	-7.177	-0.123	-0.084
-319.041	-200.000	0.015	-0.083
-318.026	113.654	-0.044	0.054
-317.012	180.368	0.156	-0.230
-315.997	2.028	-0.443	-0.322
-314.983	-200.000	0.017	0.131
-313.968	30.814	-0.092	-0.079
-312.953	-93.957	0.140	0.039
-311.939	10.815	-0.091	-0.070
-310.924	-200.000	0.014	0.225
-309.910	-178.893	0.147	0.003
-308.895	258.798	-0.081	0.140
-307.880	-148.087	-0.213	0.018
-306.866	29.217	-0.195	0.167
-305.851	800.000	0.072	-0.264
-304.837	-154.525	-0.143	-0.010
-303.822	103.791	-0.301	0.355
-302.807	-52.908	-0.095	-0.044
-301.793	800.000	0.036	-0.111
-300.778	-200.000	0.007	0.107
-299.764	-178.147	-0.359	-0.009
-298.749	-200.000	0.036	0.310
-297.735	800.000	0.066	0.185
-296.720	-200.000	-0.034	0.338
-295.705	481.038	0.065	0.149
-294.691	-200.000	-0.033	-0.160
-293.676	-36.352	0.410	0.222
-292.662	-152.014	-0.417	-0.031
-291.647	267.401	-0.250	0.439
-290.632	-200.000	-0.011	-0.228
-289.618	-200.000	-0.033	-0.189
-288.603	-78.151	-0.215	0.074
-287.589	-38.210	0.213	0.114
-286.574	800.000	-0.034	0.100
-285.559	800.000	-0.152	-0.563
-284.545	-51.165	0.047	-0.022
-283.530	142.610	0.180	-0.240
-282.516	-89.092	0.454	-0.135
-281.501	3.187	-0.191	-0.140
-280.486	-133.287	0.091	-0.012
-279.472	800.000	-0.029	-0.098
-278.457	-126.763	0.114	0.017
-277.443	-200.000	-0.010	0.221
-276.428	-104.209	0.178	-0.042
-275.413	-140.654	0.673	0.070
-274.399	800.000	-0.075	-0.209
-273.384	-200.000	0.048	-0.319
-272.370	219.316	0.098	-0.158
-271.355	800.000	-0.017	0.059
-270.340	-61.601	-0.299	0.126
-269.326	6.501	-0.074	-0.055
-268.311	292.321	0.143	0.261
-267.297	-55.721	0.206	0.092
-266.282	-32.949	-0.087	-0.048
-265.267	49.037	0.229	-0.216
-264.253	-67.887	-0.169	0.066
-263.238	-200.000	0.005	0.313
-262.224	800.000	-0.086	-0.277
-261.209	-200.000	0.020	-0.212
-260.195	800.000	-0.119	0.411
-259.180	-200.000	0.056	-0.270
-258.165	-12.517	-0.496	-0.325
-257.151	104.911	0.200	-0.236
-256.136	-171.110	-0.108	-0.004
-255.122	89.219	0.069	-0.077
-254.107	-19.134	-0.039	0.024
-253.092	800.000	0.071	0.309
-252.078	800.000	0.082	-0.283
-251.063	155.813	0.193	0.266
-250.049	-112.499	0.245	0.049
-249.034	-70.427	0.370	-0.140
-248.019	182.261	0.107	-0.158
-247.005	31.770	0.232	0.200
-245.990	-81.433	0.253	0.084
-244.976	-175.399	-0.343	-0.009
-243.961	-191.280	0.281	0.003
-242.946	142.177	-0.290	0.386
-241.932	-122.924	0.182	0.029
-240.917	18.570	-0.194	0.155
-239.903	99.626	0.264	0.306
-238.888	-200.000	0.005	0.047
-237.873	-200.000	0.027	0.203
-236.859	328.790	-0.131	0.252
-235.844	800.000	-0.022	-0.093
-234.830	-116.675	0.219	-0.040
-233.815	55.168	-0.248	0.240
-232.800	-200.000	-0.017	-0.233
-231.786	558.531	0.137	-0.331
-230.771	671.947	0.207	0.538
-229.757	-200.000	0.010	-0.175
-228.742	-35.858	0.256	-0.139
-227.727	-87.219	0.274	-0.084
-226.713	-161.772	-0.167	-0.009
-225.698	-48.135	0.137	-0.066
-224.684	-133.494	-0.497	0.062
-223.669	-39.324	0.142	-0.074
-222.655	-200.000	-0.001	0.251
-221.640	-112.382	-0.453	-0.091
-220.625	-73.239	0.182	-0.067
-219.611	-200.000	-0.004	-0.086
-218.596	800.000	0.091	-0.329
-217.582	632.475	-0.074	-0.187
-216.567	129.918	-0.032	-0.041
-215.552	-200.000	0.045	0.260
-214.538	-200.000	0.010	0.237
-213.523	800.000	-0.050	0.189
-212.509	573.784	-0.048	0.117
-211.494	529.035	-0.093	0.221
-210.479	25.701	0.286	-0.238
-209.465	49.983	-0.145	0.137
-208.450	-105.798	-0.273	-0.062
-207.436	71.321	0.025	0.026
-206.421	134.957	-0.041	0.054
-205.406	287.777	0.050	-0.090
-204.392	303.145	-0.237	0.439
-203.377	136.131	0.050	0.065
-202.363	-105.100	0.396	-0.091
-201.348	800.000	-0.046	0.158
-200.333	-103.114	0.112	-0.026
-199.319	-80.990	-0.150	-0.050
-198.304	7.483	-0.130	0.097
-197.290	-12.767	-0.138	0.090
-196.275	-200.000	-0.054	0.244
-195.260	694.231	0.067	0.175
-194.246	126.371	0.290	0.367
-193.231	-200.000	0.005	-0.319
-192.217	368.220	0.083	-0.168
-191.202	149.777	-0.041	-0.056
-190.187	429.108	-0.038	0.083
-189.173	-200.000	-0.033	-0.164
-188.158	-25.304	-0.067	0.040
-187.144	22.865	0.226	0.185
-186.129	-19.032	0.090	0.056
-185.114	672.724	0.036	0.092
-184.100	-4.916	0.169	-0.117
-183.085	-11.155	0.124	0.082
-182.071	153.314	0.195	0.267
-181.056	-97.004	-0.208	0.054
-180.042	-56.550	0.259	-0.115
-179.027	-200.000	-0.079	0.415
-178.012	25.268	-0.104	-0.086
-176.998	-103.995	-0.182	-0.043
-175.983	-80.270	-0.107	0.036
-174.969	-105.249	-0.152	-0.035
-173.954	-19.553	0.212	0.131
-172.939	800.000	-0.028	0.108
-171.925	800.000	-0.046	0.166
-170.910	-15.375	-0.101	-0.065
-169.896	-200.000	0.026	0.268
-168.881	-107.432	0.023	-0.005
-167.866	-119.222	0.095	-0.017
-166.852	-200.000	-0.051	0.272
-165.837	-79.753	-0.044	-0.015
-164.823	-200.000	0.064	0.362
-163.808	-200.000	0.004	0.475
-162.793	461.387	-0.024	0.054
-161.779	690.947	-0.063	0.165
-160.764	-82.110	-0.179	0.058
-159.750	-9.937	0.154	0.103
-158.735	800.000	0.049	-0.139
-157.720	800.000	-0.016	0.066
-156.706	50.065	0.069	-0.065
-155.691	393.722	-0.099	0.207
-154.677	316.588	0.004	-0.008
-153.662	-145.520	-0.279	-0.025
-152.647	94.089	0.164	0.186
-151.633	-53.198	-0.031	0.014
-150.618	800.000	0.060	0.196
-149.604	-103.454	0.248	-0.058
-148.589	264.287	-0.038	0.066
-147.574	-177.127	-0.455	-0.011
-146.560	89.073	-0.039	0.043
-145.545	800.000	0.069	0.273
-144.531	-104.045	0.136	0.032
-143.516	299.131	0.128	-0.236
-142.502	-188.506	-0.198	-0.002
-141.487	-200.000	-0.047	0.354
-140.472	107.065	0.132	0.157
-139.458	51.353	0.139	-0.132
-138.443	33.866	-0.110	0.096
-137.429	-119.199	0.074	-0.013
-136.414	-200.000	0.013	0.186
-135.399	-200.000	-0.014	0.223
-134.385	371.881	-0.160	-0.324
-133.370	-200.000	-0.019	0.136
-132.356	200.073	0.165	-0.253
-131.341	615.313	-0.084	0.209
-130.326	87.025	0.176	0.195
-129.312	125.903	-0.110	0.139
-128.297	32.436	-0.076	0.066
-127.283	-200.000	0.170	0.001
-126.268	93.584	0.204	0.231
-125.253	-58.743	0.313	-0.135
-124.239	-164.136	0.371	0.017
-123.224	-186.730	-0.226	-0.003
-122.210	-200.000	0.041	0.322
-121.195	-200.000	0.000	0.048
-120.180	-136.576	-0.282	0.033
-119.166	-149.265	0.316	-0.025
-118.151	-148.071	0.134	-0.011
-117.137	68.461	0.204	-0.209
-116.122	798.283	-0.054	-0.149
-115.107	-200.000	0.033	0.449
-114.093	-94.104	-0.108	-0.029
-113.078	-122.137	0.128	0.021
-112.064	12.996	0.015	-0.012
-111.049	800.000	0.092	0.362
-110.034	48.904	0.358	0.335
-109.020	-131.450	0.452	-0.060
-108.005	-200.000	0.047	0.222
-106.991	-36.940	0.178	0.095
-105.976	-145.232	0.323	-0.029
-104.962	-200.000	-0.010	0.077
-103.947	-200.000	-0.054	-0.288
-102.932	13.029	0.100	-0.077
-101.918	-57.674	-0.200	0.087
-100.903	351.550	-0.122	0.241
-99.889	-114.972	0.414	0.079
-98.874	616.424	-0.003	0.008
-97.859	193.980	0.181	0.273
-96.845	-139.219	0.191	-0.021
-95.830	-79.572	0.155	0.052
-94.816	-200.000	0.037	-0.248
-93.801	-200.000	-0.014	0.149
-92.786	8.298	-0.051	-0.039
-91.772	-86.435	0.159	0.049
-90.757	-105.760	0.296	0.067
-89.743	-46.372	-0.107	-0.053
-88.728	800.000	-0.087	-0.280
-87.713	324.042	-0.058	0.110
-86.699	-109.910	0.210	-0.044
-85.684	-71.777	0.224	0.083
-84.670	414.355	-0.137	0.290
-83.655	-200.000	0.016	-0.120
-82.640	73.471	0.084	-0.088
-81.626	-200.000	-0.032	-0.270
-80.611	-50.377	0.179	0.084
-79.597	211.466	0.112	0.176
-78.582	180.050	-0.068	-0.099
-77.567	-120.305	0.080	0.014
-76.553	-94.291	0.441	-0.120
-75.538	-148.827	-0.063	0.005
-74.524	-200.000	0.027	-0.164
-73.509	81.355	-0.154	-0.166
-72.494	43.091	0.020	-0.018
-71.480	-14.920	0.064	-0.041
-70.465	800.000	0.064	0.228
-69.451	100.991	0.160	-0.185
-68.436	475.007	0.138	-0.310
-67.422	800.000	0.057	-0.198
-66.407	-200.000	0.008	-0.337
-65.392	-200.000	-0.024	0.214
-64.378	800.000	0.036	0.151
-63.363	437.102	-0.142	-0.308
-62.349	-200.000	-0.004	-0.203
-61.334	77.130	-0.783	-0.828
-60.319	39.524	0.345	0.308
-59.305	-200.000	-0.157	-0.928
-58.290	800.000	0.141	0.576
-57.276	341.119	0.803	1.561
-56.261	-200.000	86.306	498.030
-55.246	510.758	1402.051	3247.354
-54.232	179.681	2622.864	3824.095
-53.217	117.979	2242.812	2750.767
-52.203	48.732	1685.601	1573.487
-51.188	41.257	1414.733	1273.057
-50.173	37.900	1371.382	1213.161
-49.159	56.597	1412.563	1367.834
-48.144	61.240	1431.847	1415.729
-47.130	41.758	1389.858	1253.619
-46.115	38.162	1372.301	1215.408
-45.100	37.961	1367.305	1209.694
-44.086	37.840	1364.892	1206.756
-43.071	37.815	1362.651	1204.576
-42.057	37.776	1360.715	1202.576
-41.042	37.899	1358.569	1201.387
-40.027	37.889	1357.175	1200.050
-39.013	37.879	1355.472	1198.434
-37.998	37.752	1353.777	1196.107
-36.984	37.916	1351.751	1195.274
-35.969	37.917	1350.134	1193.802
-34.954	38.035	1347.840	1192.447
-33.940	38.070	1346.191	1191.156
-32.925	38.066	1345.105	1190.120
-31.911	38.058	1343.444	1188.557
-30.896	38.039	1342.739	1187.773
-29.881	38.126	1340.718	1186.466
-28.867	38.013	1339.330	1184.504
-27.852	38.098	1337.617	1183.460
-26.838	38.127	1336.331	1182.448
-25.823	38.041	1335.199	1180.880
-24.809	37.962	1334.042	1179.333
-23.794	38.079	1332.216	1178.376
-22.779	38.140	1330.693	1177.348
-21.765	38.094	1329.614	1176.074
-20.750	38.016	1328.542	1174.610
-19.736	38.039	1326.787	1173.147
-18.721	37.977	1325.571	1171.655
-17.706	37.991	1324.456	1170.704
-16.692	37.941	1323.162	1169.213
-15.677	38.106	1321.658	1168.828
-14.663	37.878	1321.222	1167.030
-13.648	37.943	1319.628	1165.966
-12.633	37.920	1318.917	1165.153
-11.619	37.921	1317.946	1164.255
-10.604	37.918	1316.785	1163.169
-9.590	37.909	1316.180	1162.532
-8.575	37.942	1315.142	1161.768
-7.560	37.970	1313.891	1160.781
-6.546	37.960	1312.912	1159.808
-5.531	37.876	1312.332	1158.751
-4.517	37.915	1311.495	1158.198
-3.502	37.860	1310.376	1156.838
-2.487	37.971	1309.320	1156.518
-1.473	37.934	1305.462	1152.848
-0.458	36.577	1289.915	1131.136
0.556	33.275	1268.985	1085.386
1.571	28.767	1272.188	1062.035
2.586	27.253	1285.834	1064.480
3.600	25.609	1274.135	1045.159
4.615	19.142	1197.542	946.803
5.629	9.549	1117.307	833.839
6.644	5.000	1094.831	793.875
7.659	4.709	1092.223	790.437
8.673	4.853	1090.831	790.089
9.688	4.818	1089.549	788.913
10.702	5.037	1088.010	788.835
11.717	10.328	1095.659	821.204
12.731	18.625	1107.787	872.589
13.746	21.323	1109.981	887.972
14.761	19.841	1107.880	878.689
15.775	18.958	1105.362	872.139
16.790	17.819	1103.639	864.929
17.804	17.204	1101.589	860.135
18.819	16.746	1101.079	857.345
19.834	16.553	1099.936	855.400
20.848	16.337	1099.193	853.656
21.863	16.026	1098.727	851.646
22.877	16.043	1097.399	850.628
23.892	15.997	1096.899	849.933
24.907	16.050	1095.623	849.139
25.921	15.991	1094.915	848.213
26.936	16.048	1093.357	847.223
27.950	15.953	1092.140	845.726
28.965	16.154	1090.495	845.385
29.980	16.316	1088.663	844.697
30.994	16.354	1087.828	844.168
32.009	16.330	1086.943	843.286
33.023	16.320	1085.598	842.115
34.038	16.255	1084.481	840.851
35.053	16.225	1083.649	839.986
36.067	16.135	1083.010	838.969
37.082	16.171	1081.891	838.207
38.096	16.312	1081.448	838.489
39.111	16.259	1080.808	837.652
40.126	16.131	1079.536	835.961
41.140	15.911	1077.753	833.418
42.155	15.937	1076.282	832.334
43.169	15.908	1075.106	831.206
44.184	15.964	1074.478	830.923
45.199	15.935	1072.998	829.562
46.213	16.062	1071.634	829.060
47.228	16.107	1070.774	828.543
48.242	16.092	1070.061	827.847
49.257	15.957	1069.205	826.446
50.271	16.132	1068.325	826.549
51.286	16.240	1067.386	826.279
52.301	16.144	1066.438	825.005
53.315	16.085	1065.066	823.581
54.330	16.020	1063.960	822.337
55.344	15.882	1063.409	821.166
56.359	16.031	1062.103	820.809
57.374	15.957	1061.222	819.694
58.388	15.791	1060.685	818.398
59.403	15.794	1060.079	817.878
60.417	15.834	1059.204	817.324
61.432	15.719	1058.586	816.216
62.447	15.825	1057.212	815.595
63.461	15.797	1056.401	814.761
64.476	15.815	1055.477	814.064
65.490	15.747	1054.685	813.053
66.505	15.853	1053.829	812.834
67.520	15.879	1053.316	812.494
68.534	15.799	1052.610	811.493
69.549	15.905	1051.376	810.979
70.563	15.814	1050.810	810.031
71.578	15.611	1050.264	808.559
72.593	15.733	1048.989	808.095
73.607	15.633	1048.505	807.173
74.622	15.657	1048.146	806.940
75.636	15.635	1047.397	806.184
76.651	15.804	1046.228	806.024
77.666	15.745	1045.893	805.411
78.680	15.759	1045.172	804.853
79.695	15.750	1044.552	804.262
80.709	15.919	1043.927	804.514
81.724	16.024	1043.084	804.295
82.739	15.895	1042.785	803.376
83.753	16.026	1041.664	803.068
84.768	16.283	1040.863	803.602
85.782	16.295	1040.391	803.223
86.797	16.207	1038.917	801.597
87.812	16.099	1038.166	800.435
88.826	16.128	1037.346	799.867
89.841	16.154	1036.164	799.010
90.855	16.270	1035.360	798.868
91.870	16.285	1034.770	798.413
92.884	16.351	1033.604	797.752
93.899	16.296	1033.074	797.012
94.914	16.489	1031.801	796.875
95.928	16.413	1031.386	796.124
96.943	16.221	1030.036	794.109
97.957	16.224	1029.736	793.821
98.972	16.176	1028.741	792.757
99.987	16.212	1027.668	792.028
101.001	16.271	1026.453	791.297
102.016	16.295	1025.711	790.771
103.030	16.293	1024.764	789.962
104.045	16.239	1024.354	789.323
105.060	16.214	1023.196	788.244
106.074	16.025	1022.187	786.512
107.089	16.056	1020.721	785.461
108.103	15.893	1019.876	783.981
109.118	15.940	1019.116	783.546
110.133	15.914	1017.841	782.378
111.147	15.879	1017.325	781.749
112.162	15.998	1016.686	781.742
113.176	15.964	1015.561	780.650
114.191	16.113	1015.154	780.958
115.206	16.059	1014.064	779.797
116.220	15.926	1013.498	778.678
117.235	15.995	1012.358	778.052
118.249	15.944	1011.449	777.049
119.264	15.900	1011.023	776.452
120.279	15.970	1010.147	776.035
121.293	15.902	1009.248	774.962
122.308	15.859	1008.243	773.924
123.322	15.887	1007.219	773.199
124.337	15.895	1006.469	772.590
125.352	15.823	1005.255	771.259
126.366	15.887	1004.227	770.695
127.381	15.822	1003.050	769.426
128.395	15.872	1002.488	769.157
129.410	15.841	1001.442	768.143
130.424	15.953	1000.544	767.898
131.439	16.029	1000.062	767.804
132.454	16.093	999.338	767.475
133.468	16.031	998.493	766.473
134.483	16.083	997.703	766.037
135.497	16.065	996.339	764.840
136.512	16.189	995.501	764.692
137.527	16.060	995.141	763.765
138.541	16.106	994.299	763.258
139.556	16.140	993.552	762.769
140.570	16.298	992.800	762.839
141.585	16.404	991.881	762.543
142.600	16.340	991.147	761.624
143.614	16.461	990.171	761.351
144.629	16.487	989.513	760.896
145.643	16.475	988.496	759.994
146.658	16.259	987.696	758.340
147.673	16.125	986.546	756.787
148.687	16.182	985.593	756.247
149.702	16.331	984.425	755.949
150.716	16.140	984.105	754.780
151.731	16.252	983.159	754.492
152.746	16.151	982.779	753.680
153.760	16.267	981.893	753.451
154.775	16.261	981.377	752.965
155.789	16.365	980.450	752.649
156.804	16.285	979.770	751.705
157.819	16.286	979.296	751.276
158.833	16.476	978.350	751.332
159.848	16.442	978.104	750.924
160.862	16.357	977.116	749.720
161.877	16.356	975.733	748.591
162.892	16.163	974.610	746.807
163.906	16.188	973.734	746.182
164.921	16.136	973.118	745.415
165.935	16.283	972.063	745.186
166.950	16.238	971.217	744.274
167.964	16.415	970.045	744.090
168.979	16.193	969.179	742.384
169.994	16.246	968.472	742.010
171.008	16.288	967.572	741.438
172.023	16.482	966.899	741.710
173.037	16.524	966.546	741.555
174.052	16.533	965.662	740.853
175.067	16.247	965.094	739.100
176.081	16.241	964.505	738.557
177.096	16.262	964.261	738.397
178.110	16.283	963.452	737.800
179.125	16.393	962.587	737.553
180.140	16.313	962.302	736.921
181.154	16.349	962.051	736.823
182.169	16.531	961.131	736.846
183.183	16.466	960.666	736.139
184.198	16.663	959.513	736.050
185.213	16.529	958.761	734.822
186.227	16.613	958.441	734.878
187.242	16.709	957.916	734.828
188.256	16.701	957.378	734.315
189.271	16.886	956.131	734.096
190.286	16.461	955.711	731.868
191.300	16.368	954.416	730.410
192.315	16.189	953.568	728.924
193.329	16.233	953.489	728.989
194.344	16.465	952.319	729.031
195.359	16.426	952.145	728.665
196.373	16.659	951.445	729.065
197.388	16.736	951.278	729.205
198.402	16.881	950.508	729.174
199.417	16.776	950.261	728.470
200.432	16.872	949.378	728.138
201.446	16.932	948.967	728.020
202.461	16.967	948.790	727.968
203.475	16.953	948.069	727.290
204.490	16.848	947.215	726.122
205.504	16.822	945.872	724.917
206.519	16.730	945.457	724.140
207.534	16.834	944.473	723.767
208.548	16.746	944.034	722.993
209.563	16.783	943.366	722.574
210.577	16.756	942.633	721.833
211.592	17.015	941.650	722.119
212.607	17.114	940.780	721.809
213.621	17.062	940.111	721.013
214.636	16.910	939.649	719.947
215.650	17.043	938.691	719.715
216.665	17.121	937.941	719.407
217.680	17.263	937.515	719.618
218.694	17.100	936.857	718.358
219.709	17.234	936.080	718.265
220.723	17.081	935.421	717.049
221.738	16.983	935.145	716.360
222.753	17.048	933.933	715.645
223.767	17.142	933.691	715.790
224.782	17.200	933.187	715.583
225.796	17.280	932.396	715.253
226.811	17.123	931.900	714.147
227.826	17.076	930.835	713.072
228.840	17.107	930.126	712.595
229.855	17.106	929.389	711.964
230.869	17.103	928.130	710.924
231.884	17.086	927.790	710.530
232.899	16.982	927.301	709.656
233.913	16.952	926.446	708.815
234.928	16.924	926.077	708.354
235.942	16.911	925.250	707.600
236.957	17.008	924.488	707.361
237.972	16.906	924.553	706.922
238.986	17.045	923.233	706.431
240.001	17.012	922.652	705.788
241.015	17.166	921.612	705.565
242.030	17.099	921.793	705.363
243.045	17.199	920.890	705.026
244.059	17.124	920.414	704.290
245.074	17.322	919.745	704.533
246.088	17.242	918.978	703.553
247.103	17.416	918.176	703.599
248.117	17.430	917.937	703.412
249.132	17.539	917.788	703.685
250.147	17.687	917.071	703.681
251.161	17.645	916.300	702.856
252.176	17.678	915.449	702.277
253.190	17.788	914.641	702.049
254.205	17.844	914.338	701.984
255.220	17.864	913.521	701.376
256.234	17.761	913.237	700.672
257.249	17.850	912.446	700.371
258.263	17.764	911.693	699.377
259.278	17.749	911.060	698.770
260.293	17.817	910.223	698.341
261.307	17.910	909.510	698.115
262.322	17.965	908.787	697.721
263.336	17.983	908.490	697.503
264.351	18.034	907.615	696.979
265.366	17.961	906.679	695.902
266.380	17.891	906.604	695.500
267.395	17.872	905.822	694.758
268.409	17.867	904.685	693.804
269.424	17.848	904.285	693.362
270.439	17.942	903.131	692.795
271.453	17.898	902.132	691.789
272.468	17.805	902.012	691.258
273.482	17.835	901.583	690.992
274.497	17.806	900.856	690.256
275.512	17.835	900.499	690.037
276.526	18.010	899.868	690.199
277.541	17.879	899.596	689.401
278.555	17.895	898.870	688.847
279.570	18.051	898.428	689.076
280.585	18.170	897.094	688.475
281.599	17.950	896.700	687.226
282.614	17.900	896.218	686.592
283.628	18.102	895.328	686.663
284.643	18.005	894.912	685.892
285.657	18.100	894.102	685.591
286.672	18.008	893.224	684.490
287.687	18.044	892.779	684.232
288.701	18.135	892.172	684.072
289.716	18.158	891.539	683.616
290.730	18.158	890.862	683.039
291.745	18.096	890.395	682.371
292.760	18.124	889.791	681.961
293.774	18.289	889.303	682.184
294.789	18.271	888.492	681.430
295.803	18.231	887.675	680.581
296.818	18.244	886.870	679.959
297.833	18.214	886.558	679.538
298.847	18.221	885.708	678.857
299.862	18.384	885.168	679.026
300.876	18.446	884.313	678.555
301.891	18.368	884.249	678.138
302.906	18.450	883.705	677.988
303.920	18.537	883.119	677.818
304.935	18.614	882.833	677.845
305.949	18.572	882.065	677.028
306.964	18.498	881.050	675.897
307.979	18.575	880.666	675.848
308.993	18.482	880.268	675.118
310.008	18.676	879.064	674.896
311.022	18.418	878.995	673.768
312.037	18.531	877.852	673.276
313.052	18.236	877.987	672.162
314.066	18.428	876.954	672.064
315.081	18.380	876.506	671.474
316.095	18.337	875.841	670.739
317.110	18.321	875.274	670.182
318.125	18.254	874.860	669.544
319.139	18.408	874.258	669.623
320.154	18.382	873.557	668.926
321.168	18.466	873.129	668.866
322.183	18.444	872.716	668.404
323.197	18.608	871.583	668.119
324.212	18.652	871.447	668.126
325.227	18.516	871.341	667.458
326.241	18.388	870.538	666.282
327.256	18.373	869.936	665.707
328.270	18.589	869.371	666.055
329.285	18.407	868.751	664.813
330.300	18.414	868.224	664.377
331.314	18.548	867.685	664.428
332.329	18.771	866.810	664.560
333.343	18.746	866.655	664.288
334.358	18.721	866.243	663.816
335.373	18.646	865.696	663.049
336.387	18.725	865.739	663.329
337.402	18.731	865.576	663.167
338.416	18.845	865.197	663.256
339.431	18.867	864.444	662.707
340.446	18.886	864.280	662.594
341.460	18.939	863.912	662.459
342.475	19.028	863.616	662.515
343.489	18.944	863.358	661.935
344.504	19.191	861.973	661.763
345.519	19.064	861.846	661.122
346.533	19.093	861.211	660.687
347.548	18.876	860.837	659.510
348.562	18.779	860.041	658.469
349.577	18.871	859.316	658.209
350.592	18.821	858.822	657.581
351.606	18.726	858.445	656.868
352.621	18.830	857.472	656.463
353.635	18.808	856.805	655.813
354.650	18.952	856.164	655.814
355.665	19.096	855.547	655.831
356.679	19.176	854.850	655.543
357.694	19.092	854.587	654.963
358.708	19.071	853.653	654.110
359.723	19.061	852.958	653.481
360.738	19.182	852.280	653.364
361.752	19.115	851.963	652.808
362.767	19.221	850.902	652.340
363.781	19.220	850.914	652.286
364.796	19.251	850.467	652.003
365.810	19.519	849.859	652.492
366.825	19.541	849.152	651.975
367.840	19.372	849.019	651.179
368.854	19.421	848.283	650.741
369.869	19.321	848.301	650.319
370.883	19.380	847.914	650.188
371.898	19.435	847.408	649.947
372.913	19.496	846.797	649.651
373.927	19.451	846.261	649.015
374.942	19.445	845.991	648.726
375.956	19.587	845.450	648.789
376.971	19.605	844.966	648.427
377.986	19.797	844.432	648.679
379.000	19.653	844.300	647.983
380.015	19.716	843.667	647.673
381.029	19.603	843.092	646.752
382.044	19.652	842.592	646.496
383.059	19.678	841.808	645.933
384.073	19.540	841.221	644.911
385.088	19.638	840.332	644.539
386.102	19.439	839.805	643.333
387.117	19.603	839.024	643.291
388.132	19.648	838.554	643.039
389.146	19.659	838.251	642.793
390.161	19.497	838.195	642.090
391.175	19.847	837.253	642.613
392.190	19.509	837.010	641.112
393.205	19.484	836.520	640.586
394.219	19.540	835.656	640.076
395.234	19.692	835.273	640.290
396.248	19.262	834.893	638.348
397.263	19.502	834.404	638.808
398.278	19.601	833.580	638.486
399.292	19.581	833.525	638.313
400.307	19.530	833.068	637.718
401.321	19.515	832.543	637.205
402.336	19.592	832.207	637.177
403.350	19.629	831.831	636.967
404.365	19.652	831.203	636.516
405.380	19.879	830.828	637.008
406.394	19.994	829.823	636.603
407.409	19.950	829.657	636.258
408.423	20.019	829.918	636.656
409.438	20.073	829.366	636.374
410.453	20.290	828.259	636.266
411.467	20.126	827.841	635.285
412.482	20.139	827.849	635.285
413.496	20.288	827.536	635.534
414.511	20.170	827.204	634.789
415.526	20.266	826.444	634.502
416.540	20.254	826.029	634.082
417.555	20.136	825.647	633.301
418.569	20.090	825.152	632.698
419.584	20.163	824.859	632.686
420.599	20.186	824.465	632.411
421.613	152.633	1368.720	1776.782
422.628	133.052	1448.038	1776.899
