DTS Sentinel unit serial number:	SN413079Multiplexer serial number:	ORYXHardware model number:	OX4-SRSoftware version number:	ORYX F/W v4.00 Oryx Data Collector v3.7.2.0data status	okinstallation	princeton_trtdifferential loss correction	single-endedforward channel	channel 1reverse channel	N/Adate	2019/09/12time	16:44:11forward acquisition time	60.00reverse acquisition time	0.00gamma	496.2192k internal	0.2308k external	0.2308temperature offset calibration	1.0093default loss term (dB/km)	0.3790temperature slope calibration	1.0000multiplexer offset coefficient	1.0000multiplexer slope coefficient	1.0000fibre end	0.00T internal ref (°C)	36.53T ext. ref 1 (°C)	2.70T ext. ref 2 (°C)	29.58length (m)	temperature (°C)	Stokes	anti-Stokes-747.200	-200.000	-0.002	-0.026
-746.185	359.997	-0.108	0.219
-745.171	-135.474	0.176	-0.021
-744.156	228.289	-0.154	0.255
-743.142	47.997	-0.107	0.101
-742.127	-69.833	0.013	-0.005
-741.112	-40.442	-0.087	-0.046
-740.098	800.000	-0.148	0.514
-739.083	-29.880	0.081	0.047
-738.069	130.037	-0.115	0.150
-737.054	603.110	0.116	-0.294
-736.039	56.324	0.148	0.146
-735.025	59.712	0.114	0.114
-734.010	-120.872	-0.199	0.034
-732.996	17.425	-0.138	-0.112
-731.981	-20.822	-0.113	-0.071
-730.966	-134.039	-0.325	0.041
-729.952	-193.658	-0.288	-0.002
-728.937	-157.660	-0.200	-0.012
-727.923	65.288	-0.185	0.190
-726.908	69.715	-0.216	-0.226
-725.894	-200.000	-0.030	-0.136
-724.879	-200.000	-0.021	0.211
-723.864	98.391	-0.240	-0.281
-722.850	-158.042	-0.130	0.008
-721.835	-101.272	0.273	-0.068
-720.821	-200.000	0.005	-0.235
-719.806	-130.221	0.043	0.006
-718.791	430.941	0.096	-0.211
-717.777	-200.000	-0.048	-0.316
-716.762	800.000	-0.070	-0.306
-715.748	-200.000	-0.015	-0.199
-714.733	-200.000	0.059	-0.293
-713.718	42.208	-0.251	-0.231
-712.704	107.773	-0.447	-0.540
-711.689	-162.970	-0.468	0.023
-710.675	-105.900	-0.543	0.124
-709.660	-10.166	-0.223	-0.150
-708.645	-78.658	0.203	-0.070
-707.631	-163.225	-0.252	-0.012
-706.616	-166.745	0.430	0.018
-705.602	12.530	0.291	-0.228
-704.587	-91.092	-0.168	0.049
-703.572	122.286	0.012	0.016
-702.558	331.178	0.147	0.288
-701.543	73.719	-0.204	0.217
-700.529	237.329	-0.207	0.348
-699.514	-75.641	0.076	-0.027
-698.499	-135.597	0.533	-0.064
-697.485	-200.000	-0.087	0.564
-696.470	-200.000	0.020	0.103
-695.456	25.077	-0.317	-0.267
-694.441	800.000	-0.048	-0.185
-693.426	-40.846	-0.226	0.119
-692.412	-40.585	0.092	0.048
-691.397	91.173	-0.276	-0.315
-690.383	800.000	0.117	-0.335
-689.368	-200.000	-0.015	-0.198
-688.354	-94.200	0.060	0.017
-687.339	-200.000	0.002	-0.229
-686.324	800.000	0.039	0.124
-685.310	-37.842	-0.401	-0.216
-684.295	542.625	0.040	-0.098
-683.281	156.187	0.119	-0.167
-682.266	94.509	0.142	-0.163
-681.251	800.000	-0.163	-0.470
-680.237	-52.717	0.281	-0.132
-679.222	68.012	-0.110	-0.114
-678.208	-124.787	-0.301	-0.047
-677.193	800.000	0.066	0.245
-676.178	140.592	-0.067	0.090
-675.164	-158.318	0.219	0.013
-674.149	800.000	0.081	-0.270
-673.135	-11.647	0.188	0.125
-672.120	72.717	0.350	-0.370
-671.105	33.234	0.390	0.343
-670.091	-200.000	-0.001	0.083
-669.076	394.578	0.120	0.254
-668.062	54.139	-0.095	0.093
-667.047	14.006	-0.063	0.050
-666.032	566.084	0.080	-0.197
-665.018	374.017	-0.277	-0.571
-664.003	-200.000	0.001	-0.019
-662.989	-42.780	-0.331	0.171
-661.974	-200.000	-0.001	-0.304
-660.959	800.000	-0.039	-0.114
-659.945	473.055	-0.082	0.186
-658.930	-7.301	0.068	0.046
-657.916	221.718	-0.052	-0.084
-656.901	800.000	-0.057	-0.218
-655.886	-36.794	-0.258	0.141
-654.872	-100.553	-0.148	0.037
-653.857	-23.243	0.182	0.111
-652.843	800.000	0.014	-0.050
-651.828	151.767	0.107	0.148
-650.814	-3.041	0.148	0.105
-649.799	77.748	0.079	-0.085
-648.784	-3.324	-0.362	-0.255
-647.770	0.776	-0.109	-0.079
-646.755	-103.863	0.098	-0.023
-645.741	573.791	0.130	0.320
-644.726	-200.000	0.019	0.085
-643.711	-25.040	-0.146	0.088
-642.697	410.998	0.155	0.334
-641.682	69.067	0.114	0.118
-640.668	543.337	0.065	-0.157
-639.653	-50.615	0.208	0.099
-638.638	-123.319	0.324	0.052
-637.624	495.269	-0.104	0.242
-636.609	-200.000	-0.066	0.318
-635.595	61.856	-0.179	0.180
-634.580	-76.978	-0.225	-0.079
-633.565	517.073	-0.077	0.183
-632.551	-200.000	0.044	0.418
-631.536	-83.067	-0.112	-0.037
-630.522	800.000	0.071	-0.290
-629.507	1.334	0.244	-0.178
-628.492	506.156	-0.036	0.085
-627.478	-28.298	0.139	-0.081
-626.463	181.191	0.114	-0.170
-625.449	-38.983	-0.266	-0.141
-624.434	233.540	-0.203	-0.338
-623.419	-117.317	-0.244	0.045
-622.405	-132.843	0.312	0.040
-621.390	-200.000	-0.029	-0.291
-620.376	800.000	0.031	0.123
-619.361	-150.195	-0.111	0.009
-618.346	559.380	0.121	-0.297
-617.332	-144.399	0.209	0.020
-616.317	84.272	-0.156	-0.172
-615.303	217.922	-0.030	0.048
-614.288	800.000	0.016	0.049
-613.273	44.441	0.061	0.056
-612.259	-36.751	-0.183	0.099
-611.244	453.839	0.124	0.278
-610.230	116.794	0.188	-0.233
-609.215	-66.911	-0.302	-0.121
-608.201	-40.177	-0.253	0.133
-607.186	14.488	-0.213	0.168
-606.171	-132.774	0.297	0.038
-605.157	-200.000	0.029	0.279
-604.142	203.106	-0.248	-0.388
-603.128	-124.382	-0.252	0.040
-602.113	31.805	-0.179	0.155
-601.098	-171.749	0.052	-0.002
-600.084	-119.019	0.117	-0.021
-599.069	196.750	-0.201	-0.310
-598.055	202.323	-0.151	-0.235
-597.040	-82.204	0.170	-0.056
-596.025	129.066	0.154	-0.199
-595.011	-200.000	-0.009	-0.126
-593.996	301.906	0.131	-0.245
-592.982	139.936	-0.087	0.116
-591.967	-200.000	-0.029	-0.145
-590.952	-120.628	-0.251	-0.043
-589.938	-200.000	-0.024	-0.291
-588.923	-13.660	0.076	0.050
-587.909	800.000	0.080	0.238
-586.894	145.810	-0.120	-0.163
-585.879	-82.421	0.301	-0.099
-584.865	-137.733	0.263	-0.030
-583.850	102.315	-0.270	0.319
-582.836	-90.297	-0.134	0.039
-581.821	-125.779	-0.309	0.047
-580.806	-200.000	-0.009	0.393
-579.792	-48.310	0.165	-0.080
-578.777	-164.711	0.314	0.014
-577.763	94.033	0.362	-0.414
-576.748	-115.229	-0.059	-0.011
-575.733	202.355	0.165	-0.257
-574.719	286.599	-0.121	-0.220
-573.704	92.454	-0.177	0.201
-572.690	-90.481	0.039	0.011
-571.675	800.000	0.083	0.366
-570.661	741.841	0.068	-0.185
-569.646	5.673	-0.111	-0.083
-568.631	800.000	-0.005	-0.015
-567.617	-200.000	-0.007	0.206
-566.602	-200.000	-0.001	-0.054
-565.588	202.232	-0.110	-0.172
-564.573	800.000	0.051	-0.214
-563.558	-200.000	-0.005	0.384
-562.544	113.922	0.205	0.251
-561.529	-117.576	0.588	-0.107
-560.515	800.000	0.105	0.407
-559.500	659.511	-0.064	-0.167
-558.485	-174.843	0.180	0.005
-557.471	-200.000	0.011	0.138
-556.456	140.186	0.051	0.067
-555.442	-200.000	0.021	-0.192
-554.427	-200.000	0.022	-0.196
-553.412	6.986	0.124	0.093
-552.398	11.859	0.151	0.117
-551.383	-200.000	-0.008	0.256
-550.369	-200.000	0.070	0.707
-549.354	163.465	0.069	-0.098
-548.339	-200.000	0.087	-0.505
-547.325	-78.611	0.124	0.043
-546.310	-22.492	-0.101	-0.061
-545.296	101.578	-0.127	0.149
-544.281	302.168	-0.092	-0.172
-543.266	-29.857	-0.106	-0.061
-542.252	-110.301	0.350	-0.073
-541.237	601.052	-0.087	-0.218
-540.223	-29.413	0.218	-0.126
-539.208	-75.319	-0.200	0.072
-538.193	-200.000	0.031	-0.178
-537.179	334.576	-0.208	-0.407
-536.164	-85.890	-0.180	-0.056
-535.150	-200.000	-0.001	0.318
-534.135	53.460	0.067	0.065
-533.121	-67.249	-0.202	-0.080
-532.106	-60.138	0.160	-0.069
-531.091	-181.695	0.312	-0.006
-530.077	506.100	-0.081	0.190
-529.062	221.567	-0.073	-0.117
-528.048	218.647	0.210	-0.337
-527.033	-74.233	-0.152	0.055
-526.018	573.901	0.020	0.050
-525.004	36.276	-0.063	-0.056
-523.989	-164.235	0.203	0.009
-522.975	22.333	0.052	-0.043
-521.960	38.596	0.116	0.104
-520.945	-200.000	0.010	0.053
-519.931	-77.424	-0.174	0.061
-518.916	-53.169	-0.357	0.165
-517.902	153.470	-0.077	-0.106
-516.887	23.558	0.212	0.176
-515.872	-200.000	-0.018	-0.249
-514.858	-90.176	0.220	0.065
-513.843	499.033	-0.082	-0.189
-512.829	-200.000	-0.019	-0.109
-511.814	800.000	-0.025	-0.072
-510.799	302.112	-0.059	0.109
-509.785	800.000	-0.189	-0.533
-508.770	10.817	0.148	-0.114
-507.756	27.419	-0.149	0.126
-506.741	36.179	-0.090	-0.080
-505.726	800.000	-0.049	0.149
-504.712	-71.900	0.458	0.172
-503.697	118.018	-0.180	0.223
-502.683	446.665	-0.120	-0.266
-501.668	-163.932	0.207	-0.010
-500.653	53.778	-0.090	0.087
-499.639	10.239	-0.208	0.159
-498.624	57.959	0.191	0.188
-497.610	-7.366	-0.373	-0.255
-496.595	800.000	-0.074	0.310
-495.581	-29.019	0.157	-0.091
-494.566	-93.502	-0.126	-0.035
-493.551	18.795	0.047	0.038
-492.537	800.000	0.081	-0.274
-491.522	238.989	-0.153	-0.255
-490.508	-11.092	0.276	0.183
-489.493	140.860	0.171	0.227
-488.478	57.453	0.361	0.355
-487.464	-145.158	-0.440	0.040
-486.449	-78.319	-0.224	-0.077
-485.435	-53.806	-0.302	0.138
-484.420	200.829	-0.012	-0.019
-483.405	101.107	-0.095	-0.111
-482.391	-82.946	-0.358	-0.116
-481.376	800.000	-0.049	-0.161
-480.362	-84.058	0.112	0.036
-479.347	-63.455	-0.241	-0.100
-478.332	-83.473	-0.343	0.111
-477.318	85.081	-0.140	-0.154
-476.303	-166.627	-0.260	0.011
-475.289	42.423	-0.104	-0.095
-474.274	104.966	0.180	-0.214
-473.259	620.730	-0.115	0.290
-472.245	152.987	0.198	-0.272
-471.230	-109.084	-0.197	-0.042
-470.216	13.608	0.176	-0.137
-469.201	-63.283	-0.406	-0.168
-468.186	-200.000	0.047	-0.316
-467.172	-200.000	-0.042	-0.256
-466.157	472.830	0.016	-0.036
-465.143	-41.644	0.286	-0.148
-464.128	-68.289	0.465	-0.182
-463.113	800.000	-0.045	0.152
-462.099	73.904	-0.178	0.187
-461.084	-90.573	-0.291	0.085
-460.070	331.415	0.030	0.057
-459.055	-200.000	-0.012	0.157
-458.040	-200.000	0.013	-0.274
-457.026	-29.479	-0.142	-0.081
-456.011	132.702	0.123	0.160
-454.997	-180.750	-0.098	-0.002
-453.982	800.000	0.018	-0.081
-452.968	-74.870	-0.326	-0.118
-451.953	731.299	-0.034	0.091
-450.938	-200.000	0.006	-0.091
-449.924	-76.402	-0.043	0.015
-448.909	800.000	-0.044	0.185
-447.895	800.000	0.072	-0.227
-446.880	-200.000	-0.027	0.363
-445.865	281.417	0.144	-0.259
-444.851	-10.018	0.202	0.135
-443.836	1.021	0.128	-0.092
-442.822	-29.970	0.406	-0.232
-441.807	168.178	-0.178	0.254
-440.792	-108.346	-0.144	0.031
-439.778	117.777	0.076	0.093
-438.763	18.948	0.179	0.144
-437.749	-95.651	-0.258	0.069
-436.734	62.653	0.152	-0.152
-435.719	149.750	0.122	-0.166
-434.705	-200.000	-0.025	0.217
-433.690	4.103	-0.337	-0.248
-432.676	34.491	0.137	0.121
-431.661	-36.685	0.148	0.080
-430.646	601.314	0.032	0.079
-429.632	-200.000	-0.001	0.208
-428.617	800.000	-0.055	-0.174
-427.603	35.594	0.328	-0.289
-426.588	-56.390	0.237	-0.106
-425.573	-174.122	-0.293	-0.009
-424.559	-67.248	0.034	0.013
-423.544	105.288	-0.198	-0.234
-422.530	591.915	0.069	0.172
-421.515	-129.264	-0.391	-0.055
-420.500	5.349	-0.117	0.087
-419.486	-104.462	0.098	-0.023
-418.471	-74.841	0.139	-0.050
-417.457	800.000	-0.022	0.085
-416.442	40.416	-0.163	0.147
-415.428	-173.638	-0.199	0.006
-414.413	-4.404	-0.129	0.089
-413.398	218.284	-0.090	0.145
-412.384	-200.000	-0.043	0.328
-411.369	-53.327	-0.255	-0.117
-410.355	-200.000	-0.043	0.310
-409.340	-27.224	0.229	0.134
-408.325	525.694	-0.038	0.090
-407.311	-29.882	0.142	0.081
-406.296	-164.794	0.153	0.007
-405.282	295.131	-0.163	0.299
-404.267	-64.567	0.401	0.163
-403.252	-55.060	-0.176	-0.079
-402.238	59.825	-0.165	-0.163
-401.223	40.034	0.082	0.074
-400.209	-200.000	0.034	-0.179
-399.194	-103.277	-0.184	-0.044
-398.179	-75.475	0.293	0.105
-397.165	42.176	-0.358	0.326
-396.150	800.000	-0.088	0.329
-395.136	4.057	0.145	0.106
-394.121	112.493	-0.192	0.232
-393.106	129.371	0.090	0.116
-392.092	256.687	-0.195	0.335
-391.077	-47.296	-0.249	0.122
-390.063	104.262	0.036	-0.043
-389.048	-200.000	-0.040	0.268
-388.033	-24.415	-0.263	0.157
-387.019	308.311	0.090	-0.169
-386.004	27.379	0.179	-0.151
-384.990	-200.000	-0.052	-0.237
-383.975	-200.000	0.033	-0.226
-382.960	206.358	-0.106	-0.166
-381.946	38.344	-0.169	0.151
-380.931	-75.083	0.224	-0.080
-379.917	29.115	-0.246	0.209
-378.902	-200.000	-0.024	0.114
-377.888	-151.513	0.311	0.023
-376.873	-200.000	-0.005	0.417
-375.858	-200.000	-0.068	0.389
-374.844	204.538	0.087	-0.135
-373.829	103.902	0.201	-0.237
-372.815	35.750	0.246	-0.217
-371.800	35.885	0.065	0.057
-370.785	84.101	0.076	-0.083
-369.771	-173.955	0.425	0.013
-368.756	-43.370	-0.153	0.078
-367.742	-200.000	-0.049	-0.290
-366.727	211.097	-0.037	-0.058
-365.712	-181.764	0.166	-0.003
-364.698	346.796	-0.100	-0.197
-363.683	-67.977	0.166	0.065
-362.669	-39.383	0.129	-0.068
-361.654	-200.000	0.034	-0.151
-360.639	79.062	0.145	0.155
-359.625	466.378	-0.095	0.213
-358.610	-200.000	-0.004	-0.123
-357.596	225.708	-0.087	-0.141
-356.581	-200.000	0.024	-0.262
-355.566	-0.761	-0.233	-0.165
-354.552	800.000	-0.034	0.115
-353.537	280.424	-0.060	-0.108
-352.523	110.578	0.243	-0.293
-351.508	-83.127	0.030	-0.010
-350.493	577.902	-0.119	-0.292
-349.479	301.756	-0.179	-0.330
-348.464	-200.000	-0.018	-0.132
-347.450	91.660	-0.142	-0.160
-346.435	800.000	-0.127	-0.536
-345.420	436.966	-0.129	-0.282
-344.406	247.500	0.081	0.137
-343.391	46.851	-0.259	0.241
-342.377	-200.000	0.030	0.278
-341.362	39.035	0.259	-0.231
-340.348	-200.000	0.017	0.192
-339.333	6.702	0.276	-0.206
-338.318	61.717	0.244	0.243
-337.304	241.278	0.240	0.400
-336.289	142.725	-0.183	0.243
-335.275	118.513	0.153	0.189
-334.260	800.000	-0.097	-0.349
-333.245	-26.045	-0.209	0.123
-332.231	69.267	0.176	-0.181
-331.216	-200.000	0.026	-0.183
-330.202	111.792	0.261	-0.315
-329.187	-200.000	-0.024	-0.242
-328.172	800.000	-0.044	0.184
-327.158	32.392	-0.018	-0.016
-326.143	493.848	-0.042	-0.097
-325.129	-176.434	0.164	-0.004
-324.114	-137.857	0.217	0.024
-323.099	625.523	0.046	0.115
-322.085	-134.970	0.150	0.018
-321.070	52.339	-0.087	0.083
-320.056	-200.000	0.040	0.434
-319.041	71.234	-0.117	-0.121
-318.026	-51.530	0.086	0.040
-317.012	123.551	-0.065	-0.081
-315.997	-25.148	-0.152	0.090
-314.983	-26.458	-0.110	0.065
-313.968	2.864	0.083	0.060
-312.953	-200.000	0.017	-0.155
-311.939	-200.000	-0.018	0.260
-310.924	-200.000	-0.001	0.107
-309.910	800.000	0.022	-0.071
-308.895	127.112	0.042	0.053
-307.880	-146.347	0.147	-0.013
-306.866	-79.781	0.035	-0.012
-305.851	89.074	0.115	-0.128
-304.837	33.278	-0.195	-0.169
-303.822	-68.029	-0.210	0.082
-302.807	800.000	0.067	0.238
-301.793	800.000	0.064	0.254
-300.778	-38.414	-0.295	-0.156
-299.764	-200.000	-0.037	0.205
-298.749	12.153	0.181	0.139
-297.735	-136.441	-0.124	0.014
-296.720	86.643	-0.150	0.165
-295.705	-200.000	0.016	0.129
-294.691	-53.203	-0.297	-0.136
-293.676	70.671	0.147	-0.152
-292.662	800.000	0.091	-0.364
-291.647	19.291	0.270	0.217
-290.632	45.953	-0.102	0.094
-289.618	169.387	-0.106	-0.151
-288.603	800.000	0.074	-0.208
-287.589	-21.970	-0.085	0.052
-286.574	800.000	-0.045	0.141
-285.559	800.000	-0.030	0.085
-284.545	566.544	-0.092	0.222
-283.530	94.733	-0.095	-0.108
-282.516	800.000	0.107	-0.303
-281.501	268.743	0.156	-0.274
-280.486	695.809	-0.005	0.013
-279.472	-200.000	-0.043	0.208
-278.457	-119.269	0.247	0.043
-277.443	175.327	-0.292	-0.422
-276.428	800.000	0.036	0.135
-275.413	-2.020	-0.335	0.235
-274.399	-200.000	0.004	0.041
-273.384	800.000	-0.072	0.299
-272.370	800.000	-0.094	-0.336
-271.355	15.140	-0.059	-0.046
-270.340	187.220	0.021	0.032
-269.326	-122.632	-0.133	-0.022
-268.311	262.251	-0.047	0.081
-267.297	10.839	-0.137	0.104
-266.282	-7.417	-0.341	-0.230
-265.267	216.762	0.108	-0.172
-264.253	115.825	0.075	0.091
-263.238	-49.641	0.223	0.106
-262.224	214.739	-0.189	-0.298
-261.209	34.727	-0.232	0.202
-260.195	800.000	0.028	-0.081
-259.180	183.875	-0.052	-0.076
-258.165	354.645	0.088	0.175
-257.151	669.434	-0.091	-0.235
-256.136	219.880	-0.164	-0.262
-255.122	215.949	0.030	0.048
-254.107	-200.000	0.042	0.212
-253.092	800.000	0.104	0.328
-252.078	-72.963	0.240	0.088
-251.063	278.427	0.121	-0.215
-250.049	-70.467	0.222	0.084
-249.034	800.000	-0.048	-0.161
-248.019	-200.000	0.137	0.604
-247.005	800.000	0.087	-0.241
-245.990	-200.000	-0.011	0.206
-244.976	-200.000	0.003	0.163
-243.961	-28.187	-0.304	0.175
-242.946	-200.000	-0.021	-0.179
-241.932	-200.000	-0.030	-0.367
-240.917	-200.000	0.011	0.090
-239.903	-200.000	0.115	-0.573
-238.888	33.643	-0.304	-0.263
-237.873	-112.220	0.191	0.038
-236.859	-22.650	-0.162	-0.098
-235.844	800.000	-0.145	-0.444
-234.830	-173.892	-0.172	0.005
-233.815	269.519	-0.057	0.099
-232.800	131.458	0.072	0.092
-231.786	800.000	-0.069	-0.295
-230.771	-14.230	0.208	0.134
-229.757	-200.000	0.065	0.344
-228.742	-200.000	0.016	0.105
-227.727	44.595	0.135	-0.124
-226.713	116.090	0.123	0.150
-225.698	-200.000	-0.001	0.016
-224.684	-4.961	-0.251	0.172
-223.669	59.625	0.177	0.174
-222.655	144.480	0.094	0.125
-221.640	-44.460	-0.155	0.077
-220.625	-12.310	-0.146	0.095
-219.611	-200.000	0.059	-0.307
-218.596	800.000	-0.058	0.194
-217.582	244.333	-0.123	-0.207
-216.567	51.535	-0.243	0.230
-215.552	425.906	-0.033	0.071
-214.538	-68.044	-0.314	-0.122
-213.523	35.861	0.196	-0.171
-212.509	234.897	-0.150	0.247
-211.494	-200.000	0.289	0.001
-210.479	23.994	-0.233	-0.191
-209.465	-117.403	0.211	-0.038
-208.450	800.000	-0.090	-0.295
-207.436	139.825	-0.144	0.189
-206.421	-200.000	0.003	0.135
-205.406	800.000	0.094	0.354
-204.392	-67.252	0.289	0.113
-203.377	-105.262	0.367	-0.083
-202.363	258.986	-0.097	-0.166
-201.348	-78.526	-0.376	0.128
-200.333	-52.017	0.180	0.083
-199.319	-200.000	-0.008	0.111
-198.304	-155.309	0.104	0.007
-197.290	39.431	-0.055	-0.049
-196.275	-189.061	0.222	-0.003
-195.260	71.691	0.119	0.123
-194.246	800.000	0.071	0.225
-193.231	309.187	-0.052	0.097
-192.217	-46.405	-0.058	0.028
-191.202	-34.632	0.164	0.089
-190.187	192.964	-0.141	0.213
-189.173	104.629	-0.030	0.035
-188.158	-91.506	0.306	0.087
-187.144	-200.000	0.003	-0.183
-186.129	-200.000	0.019	-0.162
-185.114	800.000	0.050	-0.203
-184.100	-200.000	0.018	0.449
-183.085	-2.503	0.144	-0.100
-182.071	43.770	-0.054	-0.049
-181.056	234.786	0.199	0.326
-180.042	400.252	0.130	-0.271
-179.027	467.319	-0.108	0.241
-178.012	-113.167	0.216	0.042
-176.998	-55.142	0.332	0.148
-175.983	-30.774	-0.147	0.083
-174.969	42.071	-0.184	0.166
-173.954	700.376	-0.018	0.047
-172.939	301.270	0.079	-0.145
-171.925	-56.906	-0.073	0.032
-170.910	-35.272	-0.159	-0.086
-169.896	-200.000	0.048	0.210
-168.881	36.421	-0.178	0.156
-167.866	-74.444	0.284	-0.102
-166.852	199.103	0.121	-0.184
-165.837	193.418	-0.136	0.204
-164.823	800.000	-0.037	-0.121
-163.808	87.059	-0.174	-0.191
-162.793	-86.559	0.221	-0.067
-161.779	45.376	0.110	-0.101
-160.764	274.347	0.115	-0.203
-159.750	335.377	0.213	0.410
-158.735	-175.981	0.211	0.006
-157.720	115.008	0.075	-0.091
-156.706	-10.242	0.182	-0.120
-155.691	-111.827	0.219	0.044
-154.677	800.000	0.024	-0.092
-153.662	-72.370	-0.165	-0.061
-152.647	-82.973	0.313	-0.100
-151.633	24.200	-0.269	-0.220
-150.618	-165.691	-0.098	0.004
-149.604	-200.000	-0.013	0.059
-148.589	-24.399	0.142	-0.084
-147.574	-140.353	0.105	0.011
-146.560	70.564	-0.115	0.118
-145.545	-200.000	-0.011	0.222
-144.531	-46.217	0.171	-0.083
-143.516	-200.000	-0.012	0.233
-142.502	124.808	0.221	-0.276
-141.487	-27.690	0.192	0.111
-140.472	-182.247	0.149	-0.003
-139.458	-200.000	0.017	0.107
-138.443	-200.000	-0.038	-0.190
-137.429	174.323	-0.081	0.117
-136.414	221.210	0.199	-0.317
-135.399	-100.754	0.196	0.048
-134.385	1.546	0.169	-0.121
-133.370	-105.687	-0.461	-0.103
-132.356	467.934	-0.024	-0.053
-131.341	331.339	-0.102	-0.196
-130.326	800.000	-0.042	0.151
-129.312	-20.636	0.271	0.165
-128.297	-0.385	0.112	0.079
-127.283	321.056	0.181	-0.341
-126.268	384.425	0.123	-0.252
-125.253	-19.394	-0.085	-0.053
-124.239	-5.605	0.169	0.115
-123.224	66.713	-0.199	-0.201
-122.210	800.000	-0.099	-0.286
-121.195	23.991	0.237	0.194
-120.180	-200.000	0.101	0.513
-119.166	-55.017	0.213	0.095
-118.151	-139.435	0.038	0.004
-117.137	-19.124	0.068	-0.042
-116.122	10.973	0.169	0.128
-115.107	-200.000	-0.012	-0.122
-114.093	108.115	-0.199	0.235
-113.078	115.290	0.054	0.066
-112.064	-179.344	-0.247	0.005
-111.049	-51.050	-0.306	-0.143
-110.034	-142.703	-0.370	0.036
-109.020	-200.000	0.034	-0.215
-108.005	-60.774	-0.392	-0.164
-106.991	320.257	0.139	-0.261
-105.976	-84.975	0.463	-0.144
-104.962	-119.350	0.181	-0.031
-103.947	107.265	0.123	-0.145
-102.932	-131.716	0.117	0.015
-101.918	-200.000	0.005	-0.535
-100.903	16.054	0.369	0.288
-99.889	-200.000	-0.026	0.239
-98.874	138.280	0.127	0.165
-97.859	236.944	-0.128	0.211
-96.845	800.000	-0.068	-0.239
-95.830	25.444	-0.046	-0.038
-94.816	-200.000	0.003	-0.109
-93.801	29.186	-0.090	0.076
-92.786	311.061	-0.048	0.089
-91.772	-200.000	-0.060	-0.307
-90.757	345.930	-0.203	-0.395
-89.743	389.576	-0.046	0.094
-88.728	-200.000	0.020	-0.156
-87.713	800.000	0.065	-0.267
-86.699	459.519	-0.074	0.162
-85.684	472.026	0.127	-0.283
-84.670	-9.320	0.169	0.112
-83.655	-107.373	-0.056	0.012
-82.640	-111.758	0.301	-0.060
-81.626	-101.394	0.317	-0.076
-80.611	8.422	-0.137	0.102
-79.597	-74.120	0.411	0.147
-78.582	109.943	-0.174	0.206
-77.567	86.412	0.101	0.110
-76.553	800.000	0.026	-0.080
-75.538	-18.775	-0.030	-0.019
-74.524	25.766	0.075	-0.062
-73.509	-65.845	-0.462	-0.183
-72.494	800.000	-0.057	-0.185
-71.480	-200.000	-0.052	-0.253
-70.465	-154.814	0.247	-0.016
-69.451	42.244	0.049	-0.044
-68.436	-200.000	0.030	0.205
-67.422	-98.655	0.324	0.082
-66.407	-19.967	0.306	0.187
-65.392	112.309	0.123	0.147
-64.378	-200.000	0.013	0.126
-63.363	-200.000	0.008	0.363
-62.349	546.905	-0.165	0.392
-61.334	178.303	-0.614	-0.887
-60.319	-200.000	-0.018	0.324
-59.305	-200.000	-0.133	-0.765
-58.290	800.000	0.338	1.106
-57.276	624.238	0.556	1.388
-56.261	-200.000	93.106	549.178
-55.246	531.202	1372.107	3209.679
-54.232	152.579	2574.868	3479.619
-53.217	116.579	2172.926	2636.611
-52.203	48.257	1631.820	1510.473
-51.188	39.973	1368.328	1215.830
-50.173	36.795	1324.790	1158.127
-49.159	58.054	1373.380	1330.490
-48.144	62.438	1391.214	1374.352
-47.130	40.399	1346.393	1198.730
-46.115	36.702	1328.352	1160.499
-45.100	36.508	1323.662	1155.196
-44.086	36.482	1321.111	1152.771
-43.071	36.463	1318.844	1150.633
-42.057	36.284	1316.937	1147.858
-41.042	36.302	1315.620	1146.771
-40.027	36.436	1313.233	1145.442
-39.013	36.523	1311.568	1144.460
-37.998	36.493	1309.473	1142.405
-36.984	36.549	1308.154	1141.543
-35.969	36.538	1306.321	1139.833
-34.954	36.767	1303.860	1138.988
-33.940	36.590	1303.223	1137.345
-32.925	36.505	1302.045	1135.771
-31.911	36.623	1300.509	1135.079
-30.896	36.643	1299.124	1133.944
-29.881	36.711	1297.556	1132.926
-28.867	36.649	1295.918	1131.092
-27.852	36.669	1294.482	1129.908
-26.838	36.667	1293.227	1128.758
-25.823	36.677	1291.848	1127.568
-24.809	36.565	1290.357	1125.568
-23.794	36.609	1288.647	1124.289
-22.779	36.577	1287.278	1122.865
-21.765	36.603	1286.261	1122.081
-20.750	36.557	1285.166	1120.817
-19.736	36.547	1283.614	1119.360
-18.721	36.479	1282.498	1117.952
-17.706	36.511	1281.437	1117.162
-16.692	36.446	1280.352	1115.798
-15.677	36.340	1279.594	1114.481
-14.663	36.393	1277.719	1113.110
-13.648	36.525	1276.424	1112.701
-12.633	36.454	1275.882	1111.772
-11.619	36.563	1274.678	1111.307
-10.604	36.423	1274.459	1110.270
-9.590	36.398	1273.647	1109.374
-8.575	36.392	1272.571	1108.356
-7.560	36.424	1271.782	1107.808
-6.546	36.481	1270.408	1106.894
-5.531	36.402	1269.934	1105.986
-4.517	36.517	1268.839	1105.645
-3.502	36.490	1267.679	1104.434
-2.487	36.512	1266.693	1103.659
-1.473	36.328	1262.409	1098.833
-0.458	34.510	1246.242	1074.492
0.556	30.603	1225.908	1027.240
1.571	25.981	1229.789	1004.721
2.586	24.703	1244.822	1009.699
3.600	23.740	1233.466	995.007
4.615	17.414	1160.103	902.308
5.629	7.415	1083.020	792.545
6.644	3.185	1061.206	755.772
7.659	2.725	1058.506	751.526
8.673	2.505	1057.169	749.436
9.688	2.408	1055.654	747.820
10.702	2.847	1054.538	749.108
11.717	8.778	1063.482	784.512
12.731	18.965	1077.262	844.906
13.746	24.627	1084.826	878.694
14.761	26.038	1086.183	886.655
15.775	26.045	1085.807	886.306
16.790	25.939	1085.137	885.158
17.804	25.881	1084.287	884.103
18.819	25.837	1084.404	883.903
19.834	26.139	1083.687	884.721
20.848	26.139	1083.369	884.384
21.863	26.142	1082.841	883.887
22.877	26.049	1082.046	882.707
23.892	25.923	1081.582	881.634
24.907	26.074	1080.644	881.531
25.921	26.009	1079.976	880.590
26.936	26.065	1078.147	879.291
27.950	25.958	1076.888	877.668
28.965	25.769	1075.393	875.453
29.980	25.730	1074.251	874.258
30.994	26.218	1072.209	874.880
32.009	26.071	1071.962	873.889
33.023	25.975	1070.229	871.938
34.038	25.935	1070.035	871.509
35.053	26.122	1069.196	871.652
36.067	26.209	1067.837	870.887
37.082	26.161	1067.646	870.418
38.096	26.252	1066.890	870.166
39.111	26.372	1066.417	870.280
40.126	26.219	1065.324	868.574
41.140	25.951	1063.108	865.404
42.155	25.754	1061.655	863.202
43.169	25.726	1060.773	862.275
44.184	25.731	1059.986	861.582
45.199	25.608	1059.011	860.127
46.213	25.637	1058.635	859.884
47.228	25.916	1057.670	860.355
48.242	25.933	1056.766	859.623
49.257	25.889	1056.649	859.242
50.271	26.068	1055.685	859.235
51.286	26.221	1054.736	859.116
52.301	26.303	1053.478	858.407
53.315	25.973	1052.969	856.346
54.330	26.127	1051.625	855.907
55.344	26.135	1051.119	855.457
56.359	25.963	1050.386	853.974
57.374	25.792	1049.232	852.148
58.388	25.911	1048.398	851.959
59.403	25.660	1047.899	850.293
60.417	25.666	1046.877	849.416
61.432	25.729	1046.295	849.165
62.447	25.911	1045.327	849.164
63.461	25.881	1044.879	848.583
64.476	25.736	1044.182	847.261
65.490	25.610	1043.179	845.778
66.505	25.783	1042.281	845.787
67.520	25.749	1041.734	845.111
68.534	25.636	1040.592	843.576
69.549	25.344	1039.484	841.236
70.563	25.268	1038.931	840.359
71.578	25.234	1038.184	839.521
72.593	25.089	1036.745	837.605
73.607	25.310	1036.394	838.280
74.622	25.540	1036.224	839.141
75.636	25.546	1035.334	838.374
76.651	25.388	1034.641	837.005
77.666	25.314	1033.904	835.989
78.680	25.457	1033.402	836.176
79.695	25.492	1033.059	835.987
80.709	25.578	1031.894	835.368
81.724	25.623	1031.105	834.866
82.739	25.711	1030.830	834.977
83.753	26.014	1030.339	835.908
84.768	26.305	1029.331	836.363
85.782	26.440	1028.288	836.067
86.797	26.345	1027.455	834.879
87.812	26.169	1026.303	833.057
88.826	26.187	1025.573	832.474
89.841	26.402	1024.601	832.602
90.855	26.370	1023.601	831.567
91.870	26.355	1022.563	830.583
92.884	26.109	1021.417	828.445
93.899	26.169	1020.694	828.062
94.914	26.300	1019.848	827.905
95.928	26.082	1018.612	825.830
96.943	25.893	1017.626	824.095
97.957	25.652	1016.615	822.101
98.972	25.387	1015.368	819.812
99.987	26.011	1014.623	821.981
101.001	26.006	1013.927	821.321
102.016	26.048	1013.053	820.734
103.030	26.036	1011.996	819.749
104.045	25.909	1011.016	818.304
105.060	25.622	1010.181	816.255
106.074	25.867	1009.490	816.733
107.089	26.047	1009.258	817.292
108.103	25.971	1007.747	815.653
109.118	25.817	1006.672	814.014
110.133	25.759	1005.835	813.000
111.147	25.390	1004.764	810.402
112.162	25.410	1003.613	809.489
113.176	25.627	1003.015	809.911
114.191	25.747	1001.862	809.450
115.206	25.203	1001.184	806.386
116.220	25.220	1000.916	806.176
117.235	25.515	999.463	806.255
118.249	25.488	998.734	805.477
119.264	25.279	998.316	804.133
120.279	25.382	997.482	803.851
121.293	25.602	996.232	803.754
122.308	25.636	995.328	803.107
123.322	25.420	994.429	801.345
124.337	25.115	993.545	799.204
125.352	24.736	991.616	795.896
126.366	24.728	990.539	794.924
127.381	25.456	990.959	798.428
128.395	25.847	990.900	800.045
129.410	25.973	989.715	799.575
130.424	26.023	988.790	798.979
131.439	26.018	988.047	798.286
132.454	26.020	986.985	797.369
133.468	25.946	986.131	796.282
134.483	26.063	985.309	796.064
135.497	26.109	985.140	796.061
136.512	26.251	984.080	795.757
137.527	26.318	982.565	794.756
138.541	26.357	981.722	794.173
139.556	26.184	981.744	793.364
140.570	26.333	981.040	793.376
141.585	26.285	980.138	792.365
142.600	26.502	978.440	791.873
143.614	26.347	978.199	790.929
144.629	26.576	977.391	791.211
145.643	26.317	976.394	789.199
146.658	26.343	974.304	787.554
147.673	26.077	973.577	785.739
148.687	26.056	972.787	784.939
149.702	25.980	971.752	783.708
150.716	26.056	971.023	783.380
151.731	26.072	970.720	783.133
152.746	26.278	969.918	783.311
153.760	26.390	969.449	783.349
154.775	26.553	968.620	783.313
155.789	26.418	967.744	781.953
156.804	26.345	966.652	780.687
157.819	26.437	965.793	780.323
158.833	26.550	965.439	780.453
159.848	26.529	964.625	779.637
160.862	26.344	963.232	777.644
161.877	26.355	962.086	776.701
162.892	26.522	961.053	776.510
163.906	26.353	959.899	774.787
164.921	26.310	959.011	773.819
165.935	26.357	958.277	773.358
166.950	26.407	957.224	772.654
167.964	26.431	956.747	772.301
168.979	26.287	955.243	770.409
169.994	26.046	954.740	768.907
171.008	26.397	954.115	769.829
172.023	26.427	953.385	769.301
173.037	26.202	952.227	767.339
174.052	26.002	951.208	765.604
175.067	26.007	950.488	764.977
176.081	26.143	950.111	765.181
177.096	26.124	949.273	764.358
178.110	25.828	948.472	762.395
179.125	25.760	947.610	761.346
180.140	25.778	947.314	761.118
181.154	25.866	946.938	761.119
182.169	26.240	946.843	762.554
183.183	26.302	946.725	762.655
184.198	26.232	945.666	761.440
185.213	26.214	944.843	760.633
186.227	26.340	944.313	760.669
187.242	26.420	943.510	760.293
188.256	26.376	943.021	759.646
189.271	26.606	942.132	759.826
190.286	26.034	941.513	756.860
191.300	25.517	939.632	753.116
192.315	24.680	937.781	748.067
193.329	24.636	937.647	747.708
194.344	25.676	937.832	752.139
195.359	26.158	938.129	754.325
196.373	26.292	937.449	754.272
197.388	26.159	936.768	753.100
198.402	26.234	936.465	753.103
199.417	26.236	935.564	752.321
200.432	26.007	934.643	750.560
201.446	25.977	933.665	749.585
202.461	25.877	933.821	749.229
203.475	24.993	931.589	743.701
204.490	24.233	930.572	739.672
205.504	25.274	930.470	743.844
206.519	25.809	930.748	746.215
207.534	25.910	930.085	746.037
208.548	26.217	930.170	747.309
209.563	26.122	928.995	745.906
210.577	26.048	928.363	745.026
211.592	26.420	928.096	746.285
212.607	26.557	927.332	746.168
213.621	26.390	926.520	744.760
214.636	26.353	926.226	744.305
215.650	26.347	925.410	743.558
216.665	26.565	924.682	743.805
217.680	26.321	924.395	742.508
218.694	26.028	922.460	739.685
219.709	25.989	921.993	739.083
220.723	26.198	921.810	739.729
221.738	26.247	921.481	739.601
222.753	26.196	920.708	738.706
223.767	26.440	919.717	738.841
224.782	26.569	920.046	739.569
225.796	26.555	919.172	738.741
226.811	25.807	917.767	734.500
227.826	25.216	916.355	730.897
228.840	25.382	915.935	731.172
229.855	25.412	915.754	731.084
230.869	25.189	914.210	728.881
231.884	25.612	914.161	730.499
232.899	26.330	914.287	733.447
233.913	26.124	914.033	732.345
234.928	26.094	913.278	731.552
235.942	25.990	912.761	730.653
236.957	25.719	911.513	728.492
237.972	25.691	911.280	728.128
238.986	25.925	910.242	728.180
240.001	25.854	909.808	727.480
241.015	25.983	909.574	727.752
242.030	26.121	909.013	727.794
243.045	26.250	908.750	728.037
244.059	26.376	908.281	728.108
245.074	26.143	907.488	726.467
246.088	25.947	906.006	724.432
247.103	26.248	905.734	725.359
248.117	26.729	905.818	727.290
249.132	26.970	905.764	728.152
250.147	27.112	904.873	727.940
251.161	27.150	904.514	727.739
252.176	27.094	904.193	727.190
253.190	27.047	903.757	726.590
254.205	27.263	903.357	727.067
255.220	27.426	902.282	726.787
256.234	27.181	901.803	725.359
257.249	27.023	900.764	723.830
258.263	27.119	899.963	723.505
259.278	27.068	899.815	723.119
260.293	27.294	899.045	723.332
261.307	27.278	897.947	722.324
262.322	26.876	897.622	720.401
263.336	26.242	895.704	716.287
264.351	25.274	893.548	710.667
265.366	25.102	893.664	710.015
266.380	26.393	894.117	715.422
267.395	26.782	894.037	716.835
268.409	26.811	892.792	715.887
269.424	26.976	892.811	716.492
270.439	26.983	892.091	715.878
271.453	27.042	891.669	715.709
272.468	27.130	891.293	715.688
273.482	27.299	890.725	715.835
274.497	26.809	889.596	712.937
275.512	26.460	888.565	710.678
276.526	26.919	888.488	712.358
277.541	27.060	888.164	712.586
278.555	26.788	887.165	710.657
279.570	26.762	886.360	709.848
280.585	26.876	885.960	709.909
281.599	26.759	885.151	708.741
282.614	26.238	884.103	705.802
283.628	26.227	883.560	705.265
284.643	26.554	883.365	706.323
285.657	26.170	882.442	704.025
286.672	25.857	881.405	701.917
287.687	26.541	881.313	704.446
288.701	26.584	880.627	704.000
289.716	26.266	880.033	702.227
290.730	26.159	879.191	701.079
291.745	25.916	878.357	699.409
292.760	26.218	878.334	700.502
293.774	27.165	879.038	704.672
294.789	27.557	878.612	705.788
295.803	27.465	877.959	704.845
296.818	27.592	877.031	704.529
297.833	27.075	875.923	701.579
298.847	27.056	875.594	701.181
299.862	27.296	875.496	701.965
300.876	27.447	875.220	702.266
301.891	27.352	874.414	701.190
302.906	26.954	873.472	698.841
303.920	27.159	872.858	699.079
304.935	27.492	872.737	700.200
305.949	27.470	872.036	699.489
306.964	27.247	871.130	697.845
307.979	27.274	870.903	697.708
308.993	27.608	870.334	698.468
310.008	27.700	869.817	698.344
311.022	27.300	869.208	696.261
312.037	27.113	868.528	694.942
313.052	26.869	867.460	693.093
314.066	26.010	865.636	688.298
315.081	25.728	865.060	686.702
316.095	26.744	865.412	690.794
317.110	27.056	865.366	691.889
318.125	26.283	863.591	687.466
319.139	25.222	861.961	682.077
320.154	25.065	862.255	681.652
321.168	26.183	862.533	686.061
322.183	26.863	862.614	688.651
323.197	26.916	862.510	688.705
324.212	27.156	861.831	689.011
325.227	27.218	861.420	688.858
326.241	27.005	860.593	687.330
327.256	26.988	859.993	686.727
328.270	27.065	859.088	686.231
329.285	26.877	857.916	684.525
330.300	26.662	857.585	683.393
331.314	26.721	857.630	683.587
332.329	27.200	857.367	685.124
333.343	27.492	856.639	685.581
334.358	27.201	856.399	684.233
335.373	27.394	856.459	684.949
336.387	27.607	856.183	685.469
337.402	27.760	856.085	685.904
338.416	27.614	855.613	684.918
339.431	27.773	855.269	685.178
340.446	28.106	854.957	686.117
341.460	27.797	854.591	684.602
342.475	27.615	853.959	683.352
343.489	27.738	853.089	683.057
344.504	28.116	853.080	684.404
345.519	28.203	852.647	684.322
346.533	28.128	852.422	683.800
347.548	28.304	851.403	683.580
348.562	28.139	851.118	682.674
349.577	28.121	850.372	681.948
350.592	28.039	850.212	681.453
351.606	28.050	849.070	680.519
352.621	27.899	848.333	679.307
353.635	27.818	847.483	678.264
354.650	27.321	845.930	675.117
355.665	26.326	844.443	670.183
356.679	26.853	844.157	671.851
357.694	27.122	844.049	672.700
358.708	27.058	843.218	671.744
359.723	27.457	843.221	673.163
360.738	27.716	843.079	673.945
361.752	27.892	842.748	674.270
362.767	28.274	842.421	675.360
363.781	28.440	842.256	675.779
364.796	28.462	841.755	675.398
365.810	28.564	841.358	675.395
366.825	28.598	840.490	674.764
367.840	28.238	839.666	672.721
368.854	27.721	839.236	670.416
369.869	27.784	838.596	670.077
370.883	27.883	838.152	670.028
371.898	27.869	837.837	669.666
372.913	27.859	837.480	669.282
373.927	28.074	837.193	669.782
374.942	28.122	836.720	669.521
375.956	28.114	836.656	669.380
376.971	28.433	835.680	669.705
377.986	28.496	835.458	669.701
379.000	28.432	835.271	669.255
380.015	28.287	834.196	667.806
381.029	28.199	833.895	667.185
382.044	28.448	833.078	667.380
383.059	28.363	832.785	666.776
384.073	28.619	832.021	667.037
385.088	28.542	831.160	666.006
386.102	28.155	830.740	664.207
387.117	28.209	830.201	663.914
388.132	27.787	828.655	661.089
389.146	27.385	827.616	658.748
390.161	27.744	827.833	660.161
391.175	28.278	827.472	661.747
392.190	27.933	826.394	659.580
393.205	26.625	824.454	653.261
394.219	25.020	822.681	646.013
395.234	24.958	822.126	645.299
396.248	26.398	823.934	651.856
397.263	28.052	824.846	658.483
398.278	27.916	824.500	657.657
399.292	27.706	823.556	656.093
400.307	27.853	822.800	655.959
401.321	27.818	822.948	655.893
402.336	28.264	822.757	657.286
403.350	28.497	822.722	658.034
404.365	28.828	822.578	659.048
405.380	29.317	821.824	660.137
406.394	29.284	821.609	659.790
407.409	29.123	820.967	658.638
408.423	29.075	820.752	658.239
409.438	29.238	820.714	658.732
410.453	29.331	820.065	658.485
411.467	29.308	819.123	657.588
412.482	29.154	818.932	656.825
413.496	29.303	818.403	656.876
414.511	29.346	818.133	656.752
415.526	29.186	817.781	655.842
416.540	28.984	817.160	654.570
417.555	28.882	816.400	653.537
418.569	28.872	816.179	653.269
419.584	28.664	815.913	652.258
420.599	28.734	814.741	651.512
421.613	105.944	1281.013	1431.568
422.628	91.598	1348.939	1431.701
