DTS Sentinel unit serial number:	SN413079Multiplexer serial number:	ORYXHardware model number:	OX4-SRSoftware version number:	ORYX F/W v4.00 Oryx Data Collector v3.7.2.0data status	okinstallation	princeton_trtdifferential loss correction	single-endedforward channel	channel 1reverse channel	N/Adate	2019/09/13time	16:42:35forward acquisition time	60.00reverse acquisition time	0.00gamma	496.2192k internal	0.2305k external	0.2305temperature offset calibration	1.0164default loss term (dB/km)	0.3790temperature slope calibration	1.0000multiplexer offset coefficient	1.0000multiplexer slope coefficient	1.0000fibre end	0.00T internal ref (°C)	35.00T ext. ref 1 (°C)	4.92T ext. ref 2 (°C)	29.67length (m)	temperature (°C)	Stokes	anti-Stokes-747.200	3.512	-0.159	-0.118
-746.185	-94.218	-0.280	0.078
-745.171	-137.835	-0.095	0.011
-744.156	413.604	0.076	0.164
-743.142	81.920	0.054	-0.060
-742.127	133.906	-0.117	0.155
-741.112	20.104	0.053	-0.043
-740.098	-30.320	0.179	0.103
-739.083	-200.000	-0.001	-0.153
-738.069	67.617	0.016	0.016
-737.054	-200.000	0.013	-0.212
-736.039	24.587	-0.125	-0.105
-735.025	-111.767	-0.130	-0.027
-734.010	60.335	0.134	-0.135
-732.996	86.109	-0.256	-0.286
-731.981	-200.000	-0.032	-0.311
-730.966	117.144	0.188	-0.235
-729.952	-63.928	-0.303	-0.126
-728.937	-41.994	-0.095	-0.050
-727.923	-121.149	0.250	0.043
-726.908	800.000	-0.087	-0.316
-725.894	57.351	-0.125	0.124
-724.879	15.098	-0.111	0.089
-723.864	46.557	-0.030	-0.028
-722.850	216.586	0.079	0.128
-721.835	-161.424	0.249	-0.013
-720.821	-104.744	-0.293	0.069
-719.806	421.773	-0.153	-0.333
-718.791	800.000	-0.076	-0.252
-717.777	24.584	-0.218	0.183
-716.762	800.000	-0.016	-0.049
-715.748	-200.000	0.037	0.176
-714.733	756.212	0.063	0.174
-713.718	726.897	0.062	0.167
-712.704	414.190	-0.110	-0.238
-711.689	-200.000	0.032	0.212
-710.675	552.557	0.010	-0.023
-709.660	78.538	0.202	0.219
-708.645	-200.000	0.003	-0.146
-707.631	-64.066	-0.186	-0.077
-706.616	-61.208	-0.220	0.094
-705.602	274.913	0.140	0.253
-704.587	-58.910	0.339	0.149
-703.572	-26.594	0.149	0.089
-702.558	96.569	-0.110	0.128
-701.543	84.093	0.196	0.218
-700.529	-111.740	0.299	0.061
-699.514	-166.374	0.070	0.003
-698.499	-200.000	-0.052	-0.267
-697.485	497.315	-0.070	-0.163
-696.470	489.713	0.147	0.343
-695.456	-64.907	0.209	0.086
-694.441	240.592	-0.093	-0.158
-693.426	800.000	-0.047	-0.170
-692.412	-69.587	0.104	-0.040
-691.397	-150.114	0.218	-0.017
-690.383	92.639	-0.321	-0.368
-689.368	223.846	-0.086	0.141
-688.354	190.128	0.102	0.155
-687.339	32.209	-0.160	-0.140
-686.324	24.028	-0.235	-0.197
-685.310	168.363	0.178	-0.258
-684.295	-200.000	-0.186	-0.001
-683.281	-78.237	0.175	-0.061
-682.266	-200.000	0.017	-0.267
-681.251	240.641	-0.228	-0.386
-680.237	800.000	-0.052	-0.230
-679.222	800.000	0.042	-0.136
-678.208	-78.408	-0.348	-0.121
-677.193	-49.337	0.163	-0.079
-676.178	-156.079	-0.055	0.004
-675.164	8.504	-0.219	-0.168
-674.149	-156.397	-0.040	0.003
-673.135	-83.221	0.146	-0.047
-672.120	-200.000	-0.017	-0.098
-671.105	-46.534	-0.132	0.066
-670.091	-173.698	-0.142	0.004
-669.076	-111.824	-0.586	0.120
-668.062	401.524	0.036	0.076
-667.047	800.000	-0.084	-0.256
-666.032	68.498	0.038	0.039
-665.018	-116.016	-0.064	0.012
-664.003	-200.000	0.024	-0.290
-662.989	-143.095	0.178	0.017
-661.974	-89.442	-0.169	-0.050
-660.959	117.998	0.070	0.087
-659.945	183.308	0.173	-0.260
-658.930	-27.199	-0.327	-0.193
-657.916	-11.401	-0.247	0.165
-656.901	167.076	0.026	-0.037
-655.886	-9.420	-0.106	0.072
-654.872	-23.948	0.354	0.215
-653.857	8.913	0.106	-0.081
-652.843	-58.900	0.266	0.117
-651.828	-31.572	-0.198	0.113
-650.814	-200.000	0.013	-0.308
-649.799	-57.874	-0.392	-0.174
-648.784	-200.000	0.032	0.179
-647.770	-60.777	0.255	-0.110
-646.755	58.186	-0.046	0.046
-645.741	-137.867	0.360	0.041
-644.726	-65.241	-0.264	0.108
-643.711	170.637	-0.088	0.128
-642.697	47.040	-0.094	0.088
-641.682	435.462	0.037	-0.082
-640.668	-200.000	-0.045	0.249
-639.653	-103.176	-0.106	0.025
-638.638	21.844	-0.080	-0.066
-637.624	-53.470	0.043	0.020
-636.609	-200.000	-0.005	0.112
-635.595	222.042	-0.122	-0.199
-634.580	-200.000	0.026	0.150
-633.565	-10.075	0.065	-0.044
-632.551	-200.000	0.019	0.098
-631.536	-11.764	-0.524	0.348
-630.522	223.090	0.140	0.228
-629.507	128.199	0.147	0.190
-628.492	-169.801	-0.411	0.015
-627.478	-114.523	0.223	0.043
-626.463	-67.719	-0.428	-0.170
-625.449	220.664	-0.048	-0.077
-624.434	-21.653	-0.188	-0.116
-623.419	800.000	-0.020	0.075
-622.405	-67.520	0.160	-0.064
-621.390	-107.260	0.298	0.066
-620.376	309.166	-0.118	0.223
-619.361	110.344	-0.179	-0.217
-618.346	-48.730	0.454	-0.221
-617.332	-8.978	-0.153	-0.104
-616.317	28.083	0.087	-0.074
-615.303	38.405	0.063	0.057
-614.288	154.299	0.051	0.071
-613.273	-97.723	0.351	0.092
-612.259	-9.241	-0.422	0.286
-611.244	-16.701	0.172	-0.110
-610.230	166.690	0.039	0.055
-609.215	-88.260	-0.214	0.065
-608.201	383.812	-0.019	-0.039
-607.186	-1.471	0.023	-0.016
-606.171	139.993	-0.284	-0.379
-605.157	800.000	0.023	0.072
-604.142	-200.000	0.010	0.219
-603.128	-109.314	-0.322	0.069
-602.113	475.802	-0.123	-0.281
-601.098	-100.280	-0.072	0.018
-600.084	800.000	-0.045	-0.196
-599.069	120.489	0.008	-0.010
-598.055	326.473	-0.077	-0.150
-597.040	-200.000	-0.046	-0.378
-596.025	503.738	0.054	0.126
-595.011	79.766	0.064	-0.069
-593.996	506.663	-0.083	0.195
-592.982	-200.000	0.008	0.143
-591.967	-79.984	0.207	0.070
-590.952	12.375	-0.139	0.108
-589.938	-17.508	-0.104	0.066
-588.923	-116.367	0.266	-0.050
-587.909	63.190	-0.118	-0.119
-586.894	75.555	0.199	-0.213
-585.879	22.952	-0.089	-0.074
-584.865	-187.303	-0.249	0.003
-583.850	248.228	-0.171	-0.292
-582.836	399.409	-0.103	-0.218
-581.821	-117.415	0.431	0.079
-580.806	-200.000	0.002	0.041
-579.792	122.374	0.024	0.031
-578.777	-177.071	-0.194	-0.005
-577.763	-200.000	0.004	-0.262
-576.748	44.097	-0.135	-0.125
-575.733	-84.806	0.352	-0.112
-574.719	-109.201	-0.243	0.052
-573.704	-200.000	-0.074	-0.442
-572.690	-54.277	0.265	-0.122
-571.675	800.000	-0.100	-0.301
-570.661	297.715	0.111	0.205
-569.646	33.853	-0.194	0.170
-568.631	749.971	0.086	-0.234
-567.617	623.204	0.032	0.081
-566.602	267.590	-0.070	0.125
-565.588	54.337	-0.438	-0.426
-564.573	-81.407	-0.263	0.087
-563.558	106.095	-0.149	0.179
-562.544	-1.165	0.353	0.252
-561.529	-72.691	-0.207	-0.077
-560.515	71.784	0.180	-0.190
-559.500	221.435	0.074	0.121
-558.485	549.433	-0.087	-0.212
-557.471	282.720	-0.079	-0.143
-556.456	343.496	0.106	0.210
-555.442	-60.165	0.045	-0.019
-554.427	-170.131	0.278	-0.010
-553.412	-200.000	0.047	-0.244
-552.398	433.672	-0.135	0.297
-551.383	197.218	-0.129	-0.199
-550.369	-5.017	-0.179	0.125
-549.354	-47.257	0.164	0.080
-548.339	800.000	-0.050	-0.183
-547.325	19.663	-0.047	-0.038
-546.310	-200.000	0.055	-0.270
-545.296	-152.488	-0.088	0.006
-544.281	-59.406	-0.228	0.099
-543.266	-113.873	0.146	0.029
-542.252	-23.397	0.180	0.109
-541.237	7.855	0.115	0.087
-540.223	-43.945	0.186	0.094
-539.208	-200.000	0.021	-0.274
-538.193	-200.000	-0.148	0.000
-537.179	-200.000	0.019	0.268
-536.164	-200.000	-0.011	-0.111
-535.150	27.646	-0.237	-0.202
-534.135	12.668	-0.299	-0.233
-533.121	-200.000	-0.012	-0.273
-532.106	-93.471	0.127	0.036
-531.091	199.374	0.117	0.181
-530.077	-136.448	0.219	-0.026
-529.062	375.052	0.169	0.347
-528.048	-128.980	0.101	-0.014
-527.033	-25.227	-0.234	-0.140
-526.018	800.000	-0.066	0.192
-525.004	3.049	0.125	-0.091
-523.989	800.000	-0.071	-0.209
-522.975	-85.682	-0.105	-0.033
-521.960	-200.000	-0.008	-0.201
-520.945	800.000	0.082	-0.280
-519.931	103.720	-0.124	0.147
-518.916	800.000	0.072	-0.211
-517.902	14.572	0.228	-0.179
-516.887	-24.117	0.237	-0.143
-515.872	108.630	0.036	-0.044
-514.858	-82.641	-0.354	-0.116
-513.843	-200.000	0.017	0.190
-512.829	-200.000	0.010	0.049
-511.814	257.979	-0.162	-0.281
-510.799	-89.876	-0.238	-0.070
-509.785	253.612	0.121	0.208
-508.770	-53.858	-0.154	-0.071
-507.756	-131.846	0.261	-0.034
-506.741	4.883	0.272	-0.201
-505.726	208.133	-0.063	-0.099
-504.712	25.960	0.278	0.233
-503.697	786.131	0.076	-0.210
-502.683	57.582	0.212	-0.209
-501.668	-164.328	0.135	0.006
-500.653	-88.101	0.159	-0.048
-499.639	777.533	0.095	0.262
-498.624	-88.826	0.138	0.041
-497.610	267.491	0.123	-0.218
-496.595	8.516	-0.233	-0.177
-495.581	55.215	0.253	-0.247
-494.566	800.000	0.041	-0.157
-493.551	800.000	-0.066	0.275
-492.537	-200.000	-0.020	-0.137
-491.522	-26.008	0.127	0.075
-490.508	-181.205	0.237	-0.005
-489.493	800.000	0.159	-0.488
-488.478	608.491	0.118	-0.297
-487.464	800.000	-0.091	-0.335
-486.449	800.000	0.057	-0.189
-485.435	800.000	0.044	0.146
-484.420	356.331	0.204	0.410
-483.405	83.202	0.208	0.228
-482.391	800.000	-0.056	-0.175
-481.376	466.065	-0.062	0.139
-480.362	-200.000	-0.138	-0.001
-479.347	104.968	0.144	-0.171
-478.332	654.307	0.123	-0.318
-477.318	458.654	-0.136	0.304
-476.303	-145.313	0.235	0.021
-475.289	100.038	-0.112	-0.131
-474.274	-200.000	0.024	0.119
-473.259	137.609	0.065	-0.086
-472.245	4.962	0.209	0.155
-471.230	-200.000	-0.023	0.212
-470.216	102.633	0.099	0.117
-469.201	-114.373	-0.306	-0.059
-468.186	-200.000	-0.058	-0.294
-467.172	-49.562	0.388	-0.186
-466.157	401.807	-0.037	-0.079
-465.143	-46.149	0.235	0.117
-464.128	589.022	-0.074	0.183
-463.113	-71.305	-0.114	0.043
-462.099	800.000	0.038	0.155
-461.084	800.000	0.101	-0.360
-460.070	109.043	0.071	-0.085
-459.055	-122.963	-0.252	0.041
-458.040	5.073	0.194	-0.144
-457.026	540.356	0.142	-0.341
-456.011	800.000	-0.085	-0.309
-454.997	36.673	0.258	-0.230
-453.982	166.680	0.110	0.157
-452.968	98.879	-0.132	0.153
-451.953	130.096	0.091	-0.118
-450.938	800.000	-0.036	0.155
-449.924	602.802	0.057	-0.144
-448.909	500.738	-0.183	-0.426
-447.895	-7.921	0.150	0.102
-446.880	-200.000	0.037	0.289
-445.865	150.375	-0.121	0.165
-444.851	-200.000	-0.011	0.057
-443.836	-199.324	-0.394	0.002
-442.822	479.712	0.132	0.302
-441.807	-200.000	0.000	-0.244
-440.792	76.833	-0.125	0.133
-439.778	-200.000	0.019	0.147
-438.763	2.964	-0.352	-0.257
-437.749	-38.137	0.281	0.150
-436.734	-200.000	-0.013	-0.209
-435.719	52.943	-0.055	0.053
-434.705	-37.162	0.279	0.150
-433.690	646.706	-0.116	0.299
-432.676	15.573	0.210	-0.166
-431.661	-132.855	-0.105	-0.013
-430.646	-25.718	-0.169	-0.100
-429.632	800.000	0.111	0.319
-428.617	-150.213	-0.225	0.018
-427.603	-24.950	0.273	0.163
-426.588	-200.000	0.042	-0.243
-425.573	-107.231	0.228	-0.050
-424.559	-22.097	0.151	0.092
-423.544	306.246	-0.062	-0.116
-422.530	-145.326	0.357	-0.032
-421.515	-82.632	-0.085	-0.028
-420.500	-8.536	0.326	0.220
-419.486	-37.741	0.343	0.183
-418.471	-155.045	-0.306	0.020
-417.457	192.497	0.098	-0.149
-416.442	-42.120	-0.110	0.057
-415.428	191.874	-0.113	0.170
-414.413	-25.336	-0.192	-0.114
-413.398	118.787	0.132	-0.164
-412.384	-5.293	-0.439	0.303
-411.369	-52.493	0.237	0.110
-410.355	370.447	-0.072	-0.148
-409.340	18.113	0.190	0.152
-408.325	-9.193	-0.293	0.197
-407.311	-53.657	0.440	0.202
-406.296	-200.000	0.013	0.307
-405.282	-125.841	0.040	-0.006
-404.267	0.664	0.124	-0.089
-403.252	-168.665	0.211	0.008
-402.238	-6.935	-0.077	0.053
-401.223	-172.707	-0.165	-0.005
-400.209	-101.976	0.140	0.034
-399.194	-200.000	0.060	0.421
-398.179	462.815	0.188	-0.421
-397.165	438.548	0.175	0.383
-396.150	-79.328	-0.079	0.027
-395.136	633.066	-0.104	0.264
-394.121	294.934	0.100	-0.184
-393.106	-30.763	-0.239	0.136
-392.092	800.000	0.025	0.099
-391.077	-121.503	0.306	-0.051
-390.063	144.238	0.147	-0.198
-389.048	-93.177	-0.157	-0.044
-388.033	800.000	-0.119	-0.403
-387.019	-164.871	-0.310	-0.014
-386.004	189.261	0.180	0.271
-384.990	480.002	0.030	-0.069
-383.975	89.191	0.128	-0.143
-382.960	104.480	0.310	0.366
-381.946	-112.282	0.145	-0.029
-380.931	147.876	0.116	0.157
-379.917	-33.804	-0.290	-0.160
-378.902	417.427	0.164	-0.352
-377.888	70.901	-0.223	0.231
-376.873	25.662	-0.218	-0.182
-375.858	-108.744	0.236	0.051
-374.844	-117.484	-0.100	-0.018
-373.829	-127.177	-0.342	-0.050
-372.815	-200.000	0.043	0.214
-371.800	-200.000	0.015	-0.181
-370.785	-153.445	-0.281	-0.020
-369.771	800.000	-0.034	0.112
-368.756	88.529	-0.095	0.106
-367.742	2.767	0.251	0.183
-366.727	465.372	0.103	-0.232
-365.712	760.643	0.056	0.152
-364.698	-16.499	0.228	0.145
-363.683	-137.761	0.168	0.019
-362.669	123.707	0.109	-0.137
-361.654	103.547	-0.156	-0.184
-360.639	179.776	-0.131	0.192
-359.625	-51.655	0.086	0.040
-358.610	-22.940	0.406	0.245
-357.596	-200.000	-0.011	-0.285
-356.581	-200.000	-0.035	-0.212
-355.566	-38.221	-0.275	-0.146
-354.552	-29.739	-0.113	0.064
-353.537	-152.904	-0.086	-0.006
-352.523	-158.824	-0.119	-0.007
-351.508	-200.000	0.026	0.367
-350.493	-52.952	0.202	0.093
-349.479	800.000	-0.058	0.233
-348.464	159.162	0.034	0.048
-347.450	53.318	-0.169	-0.162
-346.435	189.287	-0.191	-0.287
-345.420	-200.000	0.016	-0.101
-344.406	-70.347	-0.193	0.073
-343.391	-200.000	-0.002	-0.116
-342.377	-200.000	0.003	-0.093
-341.362	-51.765	0.117	-0.055
-340.348	8.575	0.284	0.214
-339.333	265.884	0.168	0.294
-338.318	-81.665	0.268	0.088
-337.304	-200.000	-0.009	-0.124
-336.289	800.000	-0.059	0.185
-335.275	-37.051	0.145	-0.078
-334.260	-200.000	-0.009	0.118
-333.245	-193.146	-0.350	0.003
-332.231	39.156	0.174	-0.156
-331.216	7.672	-0.252	-0.189
-330.202	-70.833	0.114	0.043
-329.187	800.000	-0.072	0.269
-328.172	-200.000	0.020	0.092
-327.158	-108.365	0.237	-0.051
-326.143	-78.104	-0.130	-0.045
-325.129	-53.031	-0.165	-0.076
-324.114	-25.737	-0.187	0.110
-323.099	-3.840	-0.255	0.177
-322.085	399.016	0.094	0.198
-321.070	382.694	-0.063	-0.129
-320.056	-135.629	0.254	0.030
-319.041	-37.380	0.288	0.154
-318.026	-3.318	-0.290	0.202
-317.012	340.616	-0.034	-0.066
-315.997	-32.206	-0.170	-0.095
-314.983	800.000	-0.077	-0.231
-313.968	-200.000	0.013	-0.074
-312.953	65.487	-0.021	-0.021
-311.939	-200.000	0.084	0.000
-310.924	376.287	0.073	-0.148
-309.910	-200.000	-0.007	0.068
-308.895	250.360	-0.114	0.193
-307.880	-200.000	-0.020	-0.153
-306.866	-200.000	-0.027	0.241
-305.851	28.533	0.118	0.099
-304.837	-15.774	0.206	0.131
-303.822	-200.000	-0.033	0.242
-302.807	179.239	-0.211	0.309
-301.793	800.000	-0.009	-0.026
-300.778	499.185	-0.087	-0.201
-299.764	1.050	-0.286	0.205
-298.749	-200.000	0.007	-0.156
-297.735	-14.399	-0.386	0.249
-296.720	84.198	0.045	0.049
-295.705	306.282	-0.130	-0.243
-294.691	-200.000	-0.055	-0.261
-293.676	-181.414	-0.234	-0.005
-292.662	800.000	0.143	0.436
-291.647	800.000	0.144	0.451
-290.632	732.167	0.139	0.371
-289.618	-118.395	-0.264	0.047
-288.603	124.415	0.134	-0.168
-287.589	378.291	-0.042	-0.086
-286.574	-54.423	-0.046	0.021
-285.559	-147.471	-0.246	-0.021
-284.545	-31.746	-0.272	-0.153
-283.530	34.089	0.316	0.275
-282.516	-200.000	-0.004	0.076
-281.501	169.161	-0.104	-0.148
-280.486	178.110	-0.085	0.124
-279.472	101.121	-0.221	0.257
-278.457	-200.000	-0.040	-0.259
-277.443	192.294	0.130	0.196
-276.428	-101.630	0.260	0.063
-275.413	94.450	-0.163	-0.186
-274.399	471.286	-0.030	0.068
-273.384	250.106	-0.061	-0.104
-272.370	-38.229	-0.125	0.066
-271.355	-119.514	0.253	0.044
-270.340	100.729	-0.191	0.221
-269.326	461.487	0.168	-0.375
-268.311	-200.000	-0.027	-0.132
-267.297	-10.441	0.153	0.101
-266.282	-57.635	-0.082	-0.036
-265.267	402.677	-0.081	0.171
-264.253	-48.781	0.154	0.074
-263.238	-161.276	-0.120	-0.006
-262.224	-43.044	0.071	0.036
-261.209	-140.213	-0.157	0.016
-260.195	128.428	0.062	-0.079
-259.180	-57.386	0.579	0.254
-258.165	-68.413	0.189	0.073
-257.151	800.000	-0.033	0.124
-256.136	-158.043	-0.281	-0.016
-255.122	475.141	0.116	-0.262
-254.107	-200.000	0.124	0.549
-253.092	229.663	0.026	-0.042
-252.078	265.860	0.075	-0.131
-251.063	-109.031	-0.295	0.063
-250.049	-116.327	-0.327	0.060
-249.034	-117.883	0.274	-0.049
-248.019	6.010	-0.436	0.322
-247.005	-200.000	-0.060	0.327
-245.990	61.639	0.351	0.348
-244.976	-51.831	-0.119	0.055
-243.961	-116.617	0.301	-0.055
-242.946	1.231	0.135	0.097
-241.932	-161.987	0.501	0.025
-240.917	-62.151	-0.021	-0.009
-239.903	152.916	-0.122	-0.166
-238.888	-125.947	0.232	-0.035
-237.873	-95.089	-0.292	0.079
-236.859	677.743	0.026	-0.068
-235.844	307.773	0.118	0.219
-234.830	80.526	-0.087	0.094
-233.815	13.614	0.081	-0.063
-232.800	-200.000	-0.018	-0.252
-231.786	-63.515	0.053	0.022
-230.771	800.000	0.040	0.168
-229.757	90.992	-0.159	-0.177
-228.742	690.130	0.123	-0.320
-227.727	5.285	-0.126	-0.092
-226.713	290.279	0.115	0.208
-225.698	800.000	-0.019	-0.069
-224.684	-86.336	-0.194	0.059
-223.669	344.003	-0.028	-0.055
-222.655	-43.554	-0.186	0.093
-221.640	-150.433	-0.204	-0.016
-220.625	103.176	0.100	0.117
-219.611	-53.242	0.160	0.073
-218.596	-200.000	0.026	0.129
-217.582	14.382	-0.285	0.222
-216.567	439.969	0.094	0.206
-215.552	13.282	-0.051	0.039
-214.538	53.579	-0.191	0.183
-213.523	6.307	-0.067	-0.050
-212.509	556.309	0.047	0.112
-211.494	-4.764	-0.144	0.099
-210.479	426.456	-0.151	-0.323
-209.465	-20.926	0.352	0.215
-208.450	-200.000	-0.040	-0.214
-207.436	-200.000	-0.063	0.325
-206.421	734.056	-0.103	0.274
-205.406	-200.000	0.047	-0.242
-204.392	122.439	0.112	-0.140
-203.377	280.456	0.144	-0.256
-202.363	-129.198	-0.118	0.016
-201.348	-76.608	0.056	-0.020
-200.333	31.473	0.180	-0.154
-199.319	-200.000	0.047	-0.393
-198.304	-200.000	-0.059	0.266
-197.290	-68.537	0.066	0.025
-196.275	697.122	0.067	0.175
-195.260	800.000	0.024	0.095
-194.246	-14.274	0.266	0.171
-193.231	-78.313	-0.137	0.047
-192.217	-200.000	-0.001	-0.024
-191.202	-62.379	0.164	0.068
-190.187	-118.601	-0.150	0.026
-189.173	205.578	0.149	0.231
-188.158	67.493	-0.214	0.217
-187.144	197.651	0.178	0.271
-186.129	534.270	0.117	-0.276
-185.114	-27.929	0.249	0.144
-184.100	31.733	-0.022	-0.019
-183.085	-200.000	-0.016	-0.095
-182.071	36.420	-0.274	-0.241
-181.056	13.188	-0.272	0.210
-180.042	-12.551	-0.111	0.072
-179.027	-116.584	0.216	-0.040
-178.012	-98.814	-0.225	-0.057
-176.998	150.544	0.122	0.164
-175.983	377.126	-0.181	-0.369
-174.969	-200.000	-0.077	-0.390
-173.954	487.132	-0.033	0.076
-172.939	357.679	-0.111	0.220
-171.925	65.263	-0.090	-0.090
-170.910	-124.506	0.048	0.007
-169.896	65.670	-0.052	-0.052
-168.881	24.676	-0.303	-0.250
-167.866	-43.850	0.089	-0.045
-166.852	190.252	0.080	0.119
-165.837	628.985	0.080	-0.202
-164.823	-159.385	-0.272	-0.015
-163.808	560.098	-0.089	-0.215
-162.793	-3.388	-0.142	-0.098
-161.779	800.000	-0.099	-0.351
-160.764	637.971	0.166	0.420
-159.750	-200.000	0.077	-0.357
-158.735	432.553	-0.054	-0.117
-157.720	-62.741	-0.250	-0.103
-156.706	-84.498	0.146	0.046
-155.691	17.201	0.180	0.142
-154.677	-115.415	-0.124	-0.023
-153.662	-200.000	0.029	-0.429
-152.647	238.583	-0.248	-0.410
-151.633	-99.729	-0.159	-0.040
-150.618	-33.531	0.137	0.075
-149.604	-200.000	-0.001	-0.161
-148.589	-200.000	0.017	-0.358
-147.574	-200.000	-0.293	0.001
-146.560	-200.000	0.094	-0.430
-145.545	-117.748	-0.481	0.086
-144.531	-200.000	0.006	-0.198
-143.516	-60.532	-0.179	-0.075
-142.502	-200.000	0.043	0.252
-141.487	4.811	-0.232	-0.169
-140.472	-66.838	0.272	0.107
-139.458	-15.704	-0.310	-0.197
-138.443	417.765	0.087	-0.185
-137.429	-73.222	0.503	0.183
-136.414	9.527	0.315	-0.237
-135.399	65.777	0.063	-0.063
-134.385	-7.317	0.013	-0.008
-133.370	-72.509	0.289	0.106
-132.356	-200.000	-0.011	0.131
-131.341	-173.235	-0.284	0.009
-130.326	192.528	0.157	0.236
-129.312	-90.741	-0.069	-0.020
-128.297	-200.000	-0.010	-0.060
-127.283	208.706	0.231	-0.359
-126.268	-108.982	-0.146	0.031
-125.253	169.604	0.126	-0.179
-124.239	-57.107	0.338	-0.148
-123.224	-118.210	-0.451	-0.080
-122.210	319.220	0.144	-0.271
-121.195	-146.724	0.245	0.021
-120.180	-200.000	0.028	-0.167
-119.166	-10.329	-0.030	0.020
-118.151	337.999	0.141	-0.271
-117.137	283.205	0.060	0.107
-116.122	-92.017	-0.024	-0.007
-115.107	67.706	0.081	-0.082
-114.093	-200.000	-0.012	0.099
-113.078	-67.038	-0.053	0.021
-112.064	-200.000	-0.022	-0.160
-111.049	800.000	-0.051	0.162
-110.034	558.926	-0.089	-0.214
-109.020	-70.403	-0.462	0.174
-108.005	-131.573	-0.148	0.019
-106.991	122.257	0.289	0.358
-105.976	800.000	-0.044	0.166
-104.962	-15.471	0.227	-0.144
-103.947	-200.000	-0.003	-0.415
-102.932	-7.556	0.069	0.046
-101.918	23.086	0.196	-0.159
-100.903	800.000	0.049	0.182
-99.889	-28.685	-0.151	-0.086
-98.874	-149.488	0.470	0.037
-97.859	1.859	0.178	-0.127
-96.845	28.936	0.123	-0.104
-95.830	204.885	-0.159	0.245
-94.816	190.186	-0.025	-0.038
-93.801	86.738	0.019	0.021
-92.786	154.899	-0.319	0.435
-91.772	-200.000	0.030	0.184
-90.757	-115.496	0.135	-0.025
-89.743	-137.435	-0.393	0.044
-88.728	266.372	0.110	-0.190
-87.713	-200.000	0.060	-0.303
-86.699	-200.000	0.010	-0.047
-85.684	-134.043	-0.290	-0.036
-84.670	-200.000	0.074	0.464
-83.655	-18.406	-0.251	0.155
-82.640	168.845	0.162	0.229
-81.626	800.000	0.034	-0.105
-80.611	-137.694	-0.306	-0.034
-79.597	12.335	0.139	0.107
-78.582	-149.098	-0.217	0.017
-77.567	-81.485	-0.094	0.031
-76.553	-61.837	-0.048	0.020
-75.538	-10.097	0.238	0.157
-74.524	-145.450	-0.236	-0.021
-73.509	-123.597	0.374	0.059
-72.494	-16.193	0.165	0.104
-71.480	-136.490	-0.223	0.026
-70.465	133.002	-0.224	0.286
-69.451	-93.535	-0.216	0.059
-68.436	-92.887	-0.211	-0.058
-67.422	234.315	0.148	-0.242
-66.407	800.000	0.054	-0.202
-65.392	-12.247	0.178	-0.115
-64.378	185.373	-0.130	0.191
-63.363	111.448	-0.141	0.168
-62.349	800.000	0.150	0.428
-61.334	89.494	-0.734	-0.811
-60.319	660.153	0.230	0.588
-59.305	800.000	-0.252	-0.944
-58.290	240.601	0.655	1.083
-57.276	488.382	0.624	1.413
-56.261	-200.000	96.524	576.117
-55.246	647.398	1387.510	3513.053
-54.232	186.286	2602.376	3835.676
-53.217	123.327	2183.627	2711.113
-52.203	46.842	1635.546	1505.549
-51.188	38.454	1370.600	1210.028
-50.173	35.222	1327.519	1152.553
-49.159	56.640	1377.052	1327.209
-48.144	61.256	1394.447	1372.124
-47.130	38.874	1348.555	1192.932
-46.115	35.162	1330.716	1154.783
-45.100	34.870	1326.521	1149.342
-44.086	34.876	1323.541	1146.747
-43.071	34.799	1321.518	1144.489
-42.057	34.846	1319.274	1142.779
-41.042	34.988	1317.075	1141.680
-40.027	34.953	1315.940	1140.439
-39.013	34.845	1313.924	1138.003
-37.998	34.944	1312.065	1136.938
-36.984	34.988	1310.597	1135.883
-35.969	35.003	1308.803	1134.372
-34.954	35.005	1307.010	1132.786
-33.940	35.017	1305.748	1131.718
-32.925	35.061	1304.461	1130.817
-31.911	35.061	1303.032	1129.534
-30.896	35.076	1301.452	1128.207
-29.881	35.170	1300.049	1127.499
-28.867	35.145	1298.561	1126.014
-27.852	35.190	1296.944	1124.836
-26.838	35.217	1295.648	1123.826
-25.823	35.042	1294.672	1121.909
-24.809	35.129	1292.670	1120.634
-23.794	34.988	1291.905	1119.103
-22.779	35.074	1290.332	1118.201
-21.765	35.076	1288.983	1116.997
-20.750	35.005	1288.078	1115.756
-19.736	35.040	1286.743	1114.756
-18.721	34.958	1285.382	1113.058
-17.706	34.983	1283.901	1111.875
-16.692	34.862	1282.763	1110.147
-15.677	34.948	1281.347	1109.376
-14.663	34.921	1280.463	1108.407
-13.648	34.919	1279.662	1107.661
-12.633	34.927	1278.737	1106.861
-11.619	34.982	1277.445	1106.014
-10.604	34.971	1276.856	1105.401
-9.590	35.021	1275.255	1104.257
-8.575	34.877	1275.342	1103.460
-7.560	34.958	1273.926	1102.656
-6.546	34.900	1273.433	1101.852
-5.531	34.941	1271.941	1100.756
-4.517	34.888	1271.362	1099.901
-3.502	34.876	1271.057	1099.528
-2.487	34.884	1269.876	1098.509
-1.473	34.726	1265.840	1094.069
-0.458	33.291	1249.984	1072.199
0.556	31.130	1230.284	1027.922
1.571	26.484	1233.799	1005.031
2.586	24.959	1246.963	1007.094
3.600	23.499	1235.129	989.312
4.615	17.838	1162.701	901.398
5.629	9.442	1086.816	800.872
6.644	5.244	1065.955	764.907
7.659	4.896	1063.278	761.219
8.673	4.814	1061.994	759.831
9.688	4.717	1060.896	758.503
10.702	5.334	1059.978	760.784
11.717	10.878	1067.389	793.148
12.731	18.909	1078.692	840.921
13.746	21.995	1082.168	858.676
14.761	21.694	1081.092	856.274
15.775	20.812	1079.377	850.536
16.790	19.719	1077.350	843.534
17.804	19.149	1075.749	839.428
18.819	18.798	1074.541	836.700
19.834	18.637	1073.968	835.396
20.848	18.503	1073.292	834.141
21.863	18.223	1072.161	831.830
22.877	18.120	1071.494	830.738
23.892	18.182	1070.497	830.194
24.907	18.158	1069.987	829.605
25.921	18.133	1068.563	828.308
26.936	18.217	1067.505	827.821
27.950	18.266	1065.980	826.801
28.965	18.233	1064.959	825.777
29.980	18.310	1063.630	825.045
30.994	18.542	1062.288	825.046
32.009	18.601	1061.035	824.287
33.023	18.606	1059.905	823.359
34.038	18.385	1059.027	821.543
35.053	18.308	1058.487	820.683
36.067	18.200	1057.629	819.429
37.082	18.363	1056.376	819.165
38.096	18.412	1055.954	819.000
39.111	18.434	1055.233	818.473
40.126	18.269	1053.950	816.616
41.140	18.054	1052.212	814.173
42.155	17.802	1051.415	812.289
43.169	17.862	1049.761	811.224
44.184	17.993	1048.549	810.834
45.199	17.924	1047.989	810.005
46.213	18.004	1047.311	809.788
47.228	18.233	1046.410	810.101
48.242	18.209	1045.232	809.008
49.257	18.276	1044.195	808.449
50.271	18.277	1043.239	807.643
51.286	18.425	1042.444	807.653
52.301	18.273	1041.976	806.500
53.315	18.128	1040.782	804.826
54.330	18.006	1039.647	803.302
55.344	18.106	1038.332	802.686
56.359	18.042	1037.910	801.987
57.374	17.998	1036.927	800.949
58.388	17.934	1035.625	799.573
59.403	17.967	1034.636	798.895
60.417	17.867	1034.513	798.258
61.432	17.891	1033.485	797.509
62.447	17.792	1032.705	796.375
63.461	17.709	1031.539	795.016
64.476	17.600	1030.969	794.001
65.490	17.658	1029.924	793.395
66.505	17.714	1029.517	793.271
67.520	17.886	1028.722	793.389
68.534	17.824	1028.042	792.508
69.549	17.774	1027.207	791.562
70.563	17.689	1026.269	790.374
71.578	17.657	1025.274	789.390
72.593	17.468	1024.913	788.164
73.607	17.481	1024.315	787.697
74.622	17.502	1023.609	787.180
75.636	17.642	1022.562	786.953
76.651	17.717	1021.829	786.666
77.666	17.612	1021.208	785.634
78.680	17.618	1020.527	785.066
79.695	17.602	1020.510	784.913
80.709	17.844	1020.026	785.582
81.724	17.985	1019.074	785.428
82.739	17.990	1018.344	784.821
83.753	18.274	1017.469	785.379
84.768	18.424	1016.830	785.502
85.782	18.435	1016.352	785.118
86.797	18.593	1014.947	784.686
87.812	18.410	1013.847	782.926
88.826	18.386	1013.356	782.370
89.841	18.323	1012.453	781.316
90.855	18.509	1011.670	781.490
91.870	18.535	1010.645	780.748
92.884	18.482	1009.930	779.885
93.899	18.522	1009.019	779.295
94.914	18.500	1008.318	778.586
95.928	18.557	1007.397	778.062
96.943	18.482	1006.304	776.811
97.957	18.463	1005.532	776.058
98.972	18.415	1005.029	775.385
99.987	18.368	1004.256	774.507
101.001	18.405	1002.578	773.314
102.016	18.402	1002.185	772.928
103.030	18.481	1001.326	772.552
104.045	18.463	1000.560	771.812
105.060	18.337	999.550	770.397
106.074	17.976	998.594	767.971
107.089	17.799	997.370	766.164
108.103	17.896	996.565	765.913
109.118	17.851	995.582	764.890
110.133	17.841	994.673	764.080
111.147	17.832	993.510	763.076
112.162	17.957	992.903	763.105
113.176	17.953	992.199	762.477
114.191	18.121	991.309	762.476
115.206	18.084	990.654	761.738
116.220	17.949	990.073	760.625
117.235	17.886	989.542	759.868
118.249	17.974	988.399	759.312
119.264	17.805	987.903	758.112
120.279	17.813	986.554	757.048
121.293	17.702	985.479	755.665
122.308	17.742	984.957	755.375
123.322	17.576	984.017	753.851
124.337	17.629	982.869	753.139
125.352	17.670	981.742	752.389
126.366	17.645	980.556	751.303
127.381	17.759	979.823	751.178
128.395	17.774	979.149	750.660
129.410	17.697	978.444	749.717
130.424	17.881	977.702	749.891
131.439	18.041	976.791	749.828
132.454	18.108	976.065	749.494
133.468	18.043	975.498	748.711
134.483	18.154	974.011	747.987
135.497	18.075	973.538	747.214
136.512	18.062	972.541	746.323
137.527	18.029	972.036	745.726
138.541	18.042	971.493	745.302
139.556	18.222	970.522	745.273
140.570	18.305	969.963	745.141
141.585	18.391	969.451	745.056
142.600	18.374	968.541	744.215
143.614	18.512	967.557	743.992
144.629	18.572	967.002	743.763
145.643	18.427	965.881	742.206
146.658	18.268	964.935	740.725
147.673	18.249	963.631	739.576
148.687	18.115	962.737	738.246
149.702	17.972	962.063	737.046
150.716	18.092	961.073	736.742
151.731	18.192	960.337	736.541
152.746	18.222	959.684	736.106
153.760	18.186	959.230	735.537
154.775	18.130	958.930	734.999
155.789	18.358	958.186	735.343
156.804	18.440	957.295	734.948
157.819	18.352	956.496	733.893
158.833	18.537	956.155	734.356
159.848	18.551	955.465	733.821
160.862	18.574	954.250	732.925
161.877	18.467	952.514	731.067
162.892	18.031	952.360	729.025
163.906	18.014	951.114	727.933
164.921	18.079	950.641	727.784
165.935	18.166	949.704	727.373
166.950	18.260	948.313	726.645
167.964	18.431	947.182	726.438
168.979	18.136	946.567	724.652
169.994	18.145	946.311	724.431
171.008	18.361	945.382	724.569
172.023	18.281	945.195	724.021
173.037	18.470	944.345	724.104
174.052	18.339	943.523	722.860
175.067	18.230	942.681	721.690
176.081	18.139	941.792	720.562
177.096	18.142	941.061	719.949
178.110	18.250	940.785	720.133
179.125	18.149	940.355	719.314
180.140	18.261	939.731	719.244
181.154	18.284	939.811	719.338
182.169	18.462	939.108	719.484
183.183	18.654	938.090	719.446
184.198	18.628	937.540	718.851
185.213	18.638	936.362	717.924
186.227	18.515	936.363	717.347
187.242	18.830	935.455	717.905
188.256	18.907	935.050	717.854
189.271	18.771	934.146	716.526
190.286	18.395	933.351	714.285
191.300	17.994	932.214	711.684
192.315	18.013	931.535	711.183
193.329	18.030	931.238	710.961
194.344	18.234	930.603	711.263
195.359	18.345	929.996	711.198
196.373	18.497	929.818	711.627
197.388	18.589	929.608	711.788
198.402	18.774	928.921	711.963
199.417	18.967	927.930	711.942
200.432	19.023	927.983	712.152
201.446	18.911	927.537	711.281
202.461	19.053	926.832	711.265
203.475	19.040	925.986	710.497
204.490	18.813	925.140	708.851
205.504	18.683	924.436	707.713
206.519	18.803	923.119	707.138
207.534	18.603	922.889	706.073
208.548	18.709	922.274	705.977
209.563	18.704	921.855	705.574
210.577	18.781	920.856	705.062
211.592	18.894	920.186	704.952
212.607	19.005	919.861	705.094
213.621	18.994	918.944	704.282
214.636	18.946	918.035	703.328
215.650	18.995	917.703	703.213
216.665	19.122	916.950	703.093
217.680	19.178	916.415	702.847
218.694	19.202	915.927	702.511
219.709	19.129	915.101	701.517
220.723	18.981	914.720	700.559
221.738	19.105	913.488	700.057
222.753	19.002	913.065	699.252
223.767	19.064	912.700	699.163
224.782	19.256	912.266	699.548
225.796	19.359	911.390	699.231
226.811	19.114	910.782	697.710
227.826	19.194	909.937	697.327
228.840	18.987	909.336	695.967
229.855	19.104	908.179	695.492
230.869	18.962	907.494	694.334
231.884	18.956	906.998	693.868
232.899	18.954	906.288	693.256
233.913	18.851	905.403	692.102
234.928	18.761	904.714	691.152
235.942	18.848	904.174	691.028
236.957	18.871	903.698	690.695
237.972	18.751	903.486	689.991
238.986	18.889	902.085	689.411
240.001	18.879	901.764	689.065
241.015	19.125	901.148	689.520
242.030	19.118	900.484	688.925
243.045	19.198	900.183	688.954
244.059	19.069	899.610	687.938
245.074	19.061	899.532	687.782
246.088	19.218	898.525	687.581
247.103	19.266	897.927	687.254
248.117	19.484	897.341	687.611
249.132	19.760	897.076	688.450
250.147	19.849	896.777	688.512
251.161	19.939	895.729	688.004
252.176	19.898	895.484	687.591
253.190	19.887	894.595	686.804
254.205	19.922	894.206	686.586
255.220	19.849	893.330	685.561
256.234	19.939	892.798	685.450
257.249	19.907	892.148	684.764
258.263	19.901	890.873	683.701
259.278	19.866	890.253	683.024
260.293	19.899	890.267	683.106
261.307	20.031	889.546	683.011
262.322	20.175	888.733	682.896
263.336	19.920	888.353	681.539
264.351	20.147	887.419	681.656
265.366	20.195	886.814	681.320
266.380	20.045	885.729	679.837
267.395	20.056	885.206	679.417
268.409	19.992	884.362	678.461
269.424	20.033	883.533	677.925
270.439	19.901	882.863	676.833
271.453	19.754	882.352	675.807
272.468	19.648	882.020	675.080
273.482	19.880	881.465	675.500
274.497	19.793	881.016	674.756
275.512	19.911	879.963	674.352
276.526	19.728	880.107	673.686
277.541	19.783	879.425	673.321
278.555	20.101	878.800	674.018
279.570	20.320	878.081	674.259
280.585	20.309	876.941	673.283
281.599	20.157	876.387	672.206
282.614	19.950	875.650	670.782
283.628	20.031	875.211	670.700
284.643	19.886	874.637	669.637
285.657	20.039	873.899	669.605
286.672	20.032	873.563	669.261
287.687	20.025	872.677	668.498
288.701	20.099	872.118	668.293
289.716	20.004	871.756	667.592
290.730	20.045	871.432	667.442
291.745	20.109	870.377	666.822
292.760	20.257	870.138	667.147
293.774	20.244	869.793	666.777
294.789	20.378	868.538	666.270
295.803	20.066	868.047	664.636
296.818	20.074	867.369	664.089
297.833	20.194	866.321	663.688
298.847	20.090	865.912	662.916
299.862	20.148	865.344	662.645
300.876	20.293	865.172	663.008
301.891	20.370	864.525	662.748
302.906	20.470	864.372	662.952
303.920	20.593	863.740	662.880
304.935	20.716	863.105	662.802
305.949	20.597	861.934	661.393
306.964	20.525	861.368	660.625
307.979	20.431	861.342	660.190
308.993	20.673	860.611	660.489
310.008	20.610	859.706	659.497
311.022	20.533	859.078	658.667
312.037	20.327	858.418	657.322
313.052	20.224	858.244	656.739
314.066	20.142	857.085	655.485
315.081	20.193	856.608	655.257
316.095	20.272	855.724	654.820
317.110	20.171	855.641	654.317
318.125	20.270	855.109	654.225
319.139	20.119	854.894	653.434
320.154	20.300	853.899	653.298
321.168	20.295	853.570	652.968
322.183	20.399	852.969	652.841
323.197	20.322	852.821	652.382
324.212	20.335	852.153	651.863
325.227	20.429	851.050	651.311
326.241	20.352	850.797	650.772
327.256	20.311	850.291	650.174
328.270	20.271	849.572	649.417
329.285	20.302	848.828	648.908
330.300	20.151	848.706	648.192
331.314	20.169	847.963	647.634
332.329	20.485	847.811	648.642
333.343	20.540	847.087	648.234
334.358	20.630	846.593	648.134
335.373	20.542	846.676	647.814
336.387	20.779	845.816	647.978
337.402	20.910	845.490	648.161
338.416	20.919	845.392	648.061
339.431	20.879	845.159	647.675
340.446	20.984	844.834	647.760
341.460	20.948	844.902	647.619
342.475	21.022	844.359	647.424
343.489	21.053	843.734	647.001
344.504	21.208	843.338	647.216
345.519	21.159	842.612	646.417
346.533	21.014	842.050	645.395
347.548	21.029	841.354	644.858
348.562	20.884	840.840	643.873
349.577	20.732	840.073	642.668
350.592	20.703	839.418	642.002
351.606	20.660	838.684	641.226
352.621	20.710	838.154	640.947
353.635	20.848	837.356	640.788
354.650	20.677	836.930	639.776
355.665	20.958	836.010	640.047
356.679	21.035	835.499	639.884
357.694	20.983	834.859	639.147
358.708	21.064	834.309	638.963
359.723	21.015	833.472	638.088
360.738	21.001	833.170	637.750
361.752	20.980	832.702	637.257
362.767	21.099	832.559	637.528
363.781	21.183	832.020	637.362
364.796	21.491	831.326	637.899
365.810	21.481	831.194	637.707
366.825	21.507	830.668	637.340
367.840	21.445	830.065	636.597
368.854	21.383	829.619	635.972
369.869	21.218	829.242	635.025
370.883	21.296	828.573	634.740
371.898	21.437	828.812	635.379
372.913	21.487	828.033	634.910
373.927	21.477	827.516	634.419
374.942	21.366	827.018	633.578
375.956	21.455	826.924	633.775
376.971	21.650	826.454	634.063
377.986	21.715	825.797	633.736
379.000	21.731	825.214	633.292
380.015	21.696	824.756	632.759
381.029	21.550	824.400	631.904
382.044	21.680	823.301	631.472
383.059	21.717	823.296	631.548
384.073	21.640	822.336	630.475
385.088	21.358	821.654	628.884
386.102	21.464	820.771	628.535
387.117	21.291	820.815	627.888
388.132	21.367	819.760	627.299
389.146	21.565	819.110	627.457
390.161	21.544	819.394	627.542
391.175	21.725	818.441	627.406
392.190	21.561	817.853	626.314
393.205	21.406	817.246	625.238
394.219	21.355	817.080	624.873
395.234	21.321	816.638	624.359
396.248	21.277	816.175	623.794
397.263	21.201	815.635	623.053
398.278	21.165	815.239	622.566
399.292	21.349	814.778	622.817
400.307	21.272	814.339	622.151
401.321	21.293	813.678	621.666
402.336	21.354	813.395	621.612
403.350	21.514	813.015	621.837
404.365	21.589	812.925	621.978
405.380	21.713	812.225	621.828
406.394	21.815	811.631	621.678
407.409	21.733	811.453	621.198
408.423	21.934	811.221	621.675
409.438	22.030	810.875	621.694
410.453	22.047	810.387	621.328
411.467	22.011	809.904	620.776
412.482	22.200	809.170	620.823
413.496	22.193	809.298	620.843
414.511	22.165	808.473	620.057
415.526	22.169	808.080	619.713
416.540	22.165	807.503	619.204
417.555	22.099	807.110	618.616
418.569	22.040	806.805	618.119
419.584	22.081	806.225	617.764
420.599	22.115	805.949	617.615
421.613	159.148	1369.726	1787.998
422.628	138.322	1451.887	1788.114
