DTS Sentinel unit serial number:	SN413079Multiplexer serial number:	ORYXHardware model number:	OX4-SRSoftware version number:	ORYX F/W v4.00 Oryx Data Collector v3.7.2.0data status	okinstallation	princeton_trtdifferential loss correction	single-endedforward channel	channel 1reverse channel	N/Adate	2019/09/13time	19:54:35forward acquisition time	60.00reverse acquisition time	0.00gamma	496.2192k internal	0.2329k external	0.2329temperature offset calibration	1.0086default loss term (dB/km)	0.3790temperature slope calibration	1.0000multiplexer offset coefficient	1.0000multiplexer slope coefficient	1.0000fibre end	0.00T internal ref (°C)	29.95T ext. ref 1 (°C)	3.29T ext. ref 2 (°C)	24.04length (m)	temperature (°C)	Stokes	anti-Stokes-747.200	309.759	0.050	-0.095
-746.185	32.712	0.195	0.170
-745.171	481.656	0.023	0.053
-744.156	726.758	0.059	0.158
-743.142	-110.219	-0.094	-0.020
-742.127	-200.000	-0.004	0.148
-741.112	-183.040	0.210	0.004
-740.098	12.840	-0.196	-0.153
-739.083	-79.484	0.261	-0.089
-738.069	418.904	0.032	-0.069
-737.054	-112.855	0.131	0.026
-736.039	109.637	-0.150	-0.182
-735.025	64.539	0.142	0.144
-734.010	800.000	-0.068	-0.193
-732.996	116.162	-0.098	-0.121
-731.981	461.312	-0.074	0.166
-730.966	-129.138	-0.503	-0.071
-729.952	69.369	-0.307	-0.318
-728.937	-200.000	0.011	-0.129
-727.923	-151.575	-0.246	0.018
-726.908	-147.588	-0.200	0.017
-725.894	-29.196	-0.188	0.109
-724.879	800.000	0.077	-0.302
-723.864	-40.321	-0.165	0.086
-722.850	111.113	-0.177	-0.214
-721.835	305.659	-0.095	-0.178
-720.821	-45.244	0.258	-0.129
-719.806	103.266	-0.193	0.228
-718.791	298.922	-0.137	-0.254
-717.777	-56.022	0.089	0.040
-716.762	-11.524	-0.120	-0.080
-715.748	-25.518	-0.144	-0.085
-714.733	-47.179	0.222	0.109
-713.718	188.684	0.137	-0.206
-712.704	367.563	0.090	0.183
-711.689	800.000	-0.073	0.252
-710.675	-100.639	0.331	0.082
-709.660	800.000	-0.109	0.392
-708.645	-123.887	-0.443	0.070
-707.631	-66.135	-0.313	-0.126
-706.616	508.338	0.079	-0.185
-705.602	-82.214	0.107	-0.035
-704.587	-14.571	0.152	0.098
-703.572	-130.559	0.117	0.016
-702.558	-200.000	-0.020	-0.169
-701.543	-105.348	-0.221	0.051
-700.529	179.401	0.008	-0.012
-699.514	800.000	0.108	0.303
-698.499	-37.976	-0.422	-0.225
-697.485	-2.035	-0.234	0.166
-696.470	80.003	-0.250	0.270
-695.456	-200.000	-0.067	0.321
-694.441	-136.291	-0.262	-0.031
-693.426	169.506	-0.142	0.204
-692.412	82.530	0.143	0.156
-691.397	-119.073	-0.149	0.026
-690.383	-200.000	0.013	-0.304
-689.368	105.602	-0.146	-0.173
-688.354	-200.000	0.046	-0.240
-687.339	-80.104	-0.104	-0.035
-686.324	-200.000	0.006	-0.167
-685.310	-121.486	-0.518	0.086
-684.295	-54.810	0.090	0.041
-683.281	8.026	-0.130	0.098
-682.266	-109.443	-0.164	0.035
-681.251	-115.540	0.330	0.062
-680.237	-87.103	0.234	0.071
-679.222	-49.449	-0.244	0.117
-678.208	-200.000	-0.001	-0.177
-677.193	-175.680	0.169	-0.005
-676.178	182.126	-0.187	0.278
-675.164	-139.131	-0.163	0.018
-674.149	-97.754	-0.249	0.065
-673.135	-41.735	0.085	-0.044
-672.120	39.155	0.227	0.204
-671.105	-35.812	0.065	0.035
-670.091	-4.058	0.196	0.137
-669.076	-94.455	-0.156	-0.043
-668.062	800.000	-0.034	0.128
-667.047	39.922	0.171	0.154
-666.032	-200.000	0.017	0.254
-665.018	-168.893	0.421	-0.016
-664.003	648.674	-0.078	0.200
-662.989	800.000	-0.023	0.075
-661.974	-200.000	-0.050	-0.240
-660.959	-94.255	-0.200	-0.055
-659.945	-24.488	0.204	0.122
-658.930	-89.775	-0.358	-0.105
-657.916	800.000	0.072	-0.233
-656.901	-200.000	-0.051	0.367
-655.886	71.906	-0.335	-0.349
-654.872	320.829	-0.068	0.130
-653.857	110.045	-0.097	0.116
-652.843	42.741	-0.137	0.125
-651.828	161.194	0.079	-0.111
-650.814	-61.031	-0.301	0.127
-649.799	-92.887	0.142	-0.040
-648.784	150.785	0.221	0.302
-647.770	-89.531	-0.277	0.082
-646.755	-200.000	-0.018	0.281
-645.741	-97.717	-0.150	0.039
-644.726	67.232	-0.176	-0.181
-643.711	155.357	0.191	0.264
-642.697	27.433	-0.079	0.067
-641.682	-100.328	0.276	0.069
-640.668	-89.227	0.160	0.047
-639.653	67.911	-0.089	-0.091
-638.638	-112.213	0.145	0.029
-637.624	448.763	0.148	-0.327
-636.609	-115.256	-0.233	0.044
-635.595	-130.044	-0.185	-0.025
-634.580	-137.990	-0.110	0.012
-633.565	-12.322	-0.151	0.099
-632.551	-52.017	0.083	-0.039
-631.536	172.869	-0.260	-0.376
-630.522	800.000	0.054	-0.198
-629.507	156.650	-0.099	0.137
-628.492	185.028	-0.098	0.146
-627.478	800.000	-0.036	-0.143
-626.463	-82.595	-0.213	0.069
-625.449	-66.847	-0.252	0.100
-624.434	800.000	0.009	0.033
-623.419	303.493	0.078	0.145
-622.405	304.319	0.061	-0.114
-621.390	-36.187	-0.322	-0.174
-620.376	-200.000	0.012	-0.262
-619.361	-84.229	-0.247	-0.078
-618.346	-155.784	0.346	0.022
-617.332	63.083	0.088	0.089
-616.317	-125.530	-0.462	0.070
-615.303	90.048	0.097	-0.109
-614.288	211.787	-0.089	-0.141
-613.273	-174.995	0.346	0.010
-612.259	-168.186	0.210	-0.008
-611.244	217.113	-0.112	-0.179
-610.230	251.248	-0.171	-0.292
-609.215	-200.000	-0.017	0.165
-608.201	-18.907	0.243	0.152
-607.186	800.000	0.077	0.256
-606.171	-78.881	-0.026	0.009
-605.157	-167.301	-0.231	-0.009
-604.142	110.964	-0.089	-0.108
-603.128	26.789	0.106	-0.089
-602.113	584.933	-0.017	0.041
-601.098	-175.858	-0.343	-0.009
-600.084	-40.639	-0.365	-0.190
-599.069	-200.000	0.021	-0.325
-598.055	800.000	-0.064	-0.177
-597.040	800.000	-0.018	-0.078
-596.025	175.951	-0.054	-0.078
-595.011	-137.974	0.355	-0.040
-593.996	29.107	-0.251	0.213
-592.982	-150.955	0.180	-0.014
-591.967	-117.056	0.227	-0.041
-590.952	-42.552	-0.025	0.013
-589.938	478.020	0.086	-0.195
-588.923	31.042	-0.097	-0.083
-587.909	-100.387	0.071	0.018
-586.894	12.314	-0.267	-0.206
-585.879	-97.123	-0.165	0.043
-584.865	-24.358	0.226	0.135
-583.850	44.769	-0.072	-0.066
-582.836	-67.199	-0.198	-0.078
-581.821	358.846	0.096	-0.191
-580.806	90.825	-0.222	-0.250
-579.792	122.979	0.106	0.133
-578.777	426.513	0.134	0.289
-577.763	122.204	0.146	0.182
-576.748	-81.405	-0.193	0.064
-575.733	-44.971	0.181	-0.090
-574.719	-164.155	0.169	-0.008
-573.704	-2.167	-0.309	0.217
-572.690	34.107	-0.158	-0.138
-571.675	534.004	0.089	0.210
-570.661	-200.000	0.001	-0.080
-569.646	800.000	0.114	-0.464
-568.631	102.862	0.090	0.106
-567.617	265.076	-0.009	0.016
-566.602	-200.000	0.037	-0.319
-565.588	495.934	-0.184	-0.423
-564.573	-200.000	0.014	-0.082
-563.558	-36.813	0.219	-0.118
-562.544	-79.988	-0.201	-0.068
-561.529	-70.600	0.161	0.061
-560.515	197.645	-0.219	0.335
-559.500	-48.419	-0.257	-0.124
-558.485	800.000	0.021	-0.088
-557.471	577.368	-0.023	-0.056
-556.456	800.000	0.017	-0.073
-555.442	105.223	0.158	0.187
-554.427	775.522	0.125	0.343
-553.412	-200.000	0.005	-0.079
-552.398	262.470	0.044	0.076
-551.383	81.389	-0.085	0.091
-550.369	27.954	-0.171	-0.144
-549.354	6.764	-0.057	0.042
-548.339	-109.683	-0.279	0.059
-547.325	-14.550	-0.058	-0.037
-546.310	201.663	-0.055	-0.085
-545.296	-60.852	-0.094	0.040
-544.281	-40.997	0.106	0.055
-543.266	-72.910	-0.160	-0.059
-542.252	-93.152	0.102	0.028
-541.237	54.285	-0.173	0.166
-540.223	46.659	0.072	-0.067
-539.208	-58.086	0.175	-0.076
-538.193	563.974	-0.108	0.263
-537.179	350.356	0.089	0.175
-536.164	-89.362	-0.066	0.019
-535.150	359.821	0.128	-0.257
-534.135	30.226	0.087	0.075
-533.121	-44.787	-0.089	0.044
-532.106	-200.000	-0.018	-0.142
-531.091	-52.530	-0.098	-0.045
-530.077	-121.797	-0.338	0.056
-529.062	39.657	-0.106	0.095
-528.048	-56.023	0.136	0.061
-527.033	-119.337	-0.306	-0.053
-526.018	-13.510	-0.377	0.244
-525.004	-41.716	-0.346	-0.177
-523.989	-108.703	-0.184	-0.039
-522.975	-71.342	-0.227	0.085
-521.960	-200.000	0.004	-0.035
-520.945	-70.490	0.237	0.090
-519.931	800.000	-0.009	-0.029
-518.916	94.692	-0.219	-0.249
-517.902	-47.571	0.159	0.077
-516.887	-183.754	-0.104	-0.002
-515.872	243.346	-0.073	-0.122
-514.858	-50.400	-0.175	-0.083
-513.843	268.814	0.063	-0.111
-512.829	46.276	-0.185	-0.171
-511.814	49.476	-0.252	-0.236
-510.799	-1.774	0.166	-0.117
-509.785	-16.824	-0.149	-0.094
-508.770	-44.168	-0.270	0.135
-507.756	606.849	-0.066	-0.163
-506.741	-200.000	0.045	0.268
-505.726	796.130	-0.088	0.241
-504.712	-136.736	0.226	-0.026
-503.697	31.705	-0.086	-0.073
-502.683	-200.000	0.019	-0.092
-501.668	-200.000	-0.026	-0.292
-500.653	-71.789	-0.292	-0.109
-499.639	239.218	-0.150	-0.248
-498.624	800.000	0.035	0.112
-497.610	7.184	0.142	-0.106
-496.595	14.150	-0.141	-0.109
-495.581	-200.000	-0.025	0.181
-494.566	-200.000	-0.055	-0.284
-493.551	418.194	-0.071	0.151
-492.537	-41.013	0.206	-0.106
-491.522	-139.611	0.255	0.027
-490.508	-145.436	-0.214	0.019
-489.493	398.260	0.103	0.215
-488.478	-109.677	-0.215	0.045
-487.464	12.235	0.065	0.050
-486.449	800.000	0.051	-0.184
-485.435	51.147	0.149	-0.141
-484.420	21.822	0.257	0.208
-483.405	206.035	-0.326	-0.506
-482.391	613.123	0.082	-0.205
-481.376	800.000	-0.048	0.168
-480.362	34.253	-0.158	0.138
-479.347	-200.000	-0.016	-0.106
-478.332	518.833	-0.026	-0.060
-477.318	538.397	0.049	-0.115
-476.303	54.062	0.237	-0.227
-475.289	-200.000	-0.018	-0.146
-474.274	234.295	0.200	-0.328
-473.259	-45.908	0.169	-0.083
-472.245	-200.000	0.051	0.303
-471.230	-136.198	0.270	0.032
-470.216	-200.000	-0.039	0.259
-469.201	-200.000	-0.027	0.163
-468.186	406.219	-0.140	-0.295
-467.172	-106.487	-0.137	0.030
-466.157	800.000	0.110	-0.311
-465.143	5.226	-0.068	-0.050
-464.128	-95.755	-0.115	-0.031
-463.113	487.254	0.092	-0.210
-462.099	2.959	0.055	0.040
-461.084	-200.000	0.038	0.218
-460.070	-127.748	0.312	-0.045
-459.055	-172.706	0.127	-0.004
-458.040	-126.396	0.346	0.051
-457.026	-41.943	0.262	-0.134
-456.011	-200.000	-0.008	-0.221
-454.997	115.566	0.073	-0.089
-453.982	-111.208	0.154	-0.031
-452.968	-42.272	0.158	-0.080
-451.953	800.000	-0.068	0.195
-450.938	-110.884	-0.145	-0.030
-449.924	-11.339	-0.325	0.213
-448.909	-63.222	0.324	-0.133
-447.895	502.611	0.063	0.146
-446.880	-126.402	-0.576	-0.086
-445.865	800.000	0.108	-0.452
-444.851	46.280	-0.232	0.215
-443.836	-200.000	0.035	-0.226
-442.822	-200.000	-0.018	0.265
-441.807	-5.878	0.047	-0.032
-440.792	50.832	-0.097	-0.092
-439.778	183.722	0.176	-0.259
-438.763	-133.471	-0.177	-0.022
-437.749	-109.361	0.321	0.068
-436.734	-95.989	-0.159	0.042
-435.719	188.781	-0.059	0.088
-434.705	401.841	0.031	-0.065
-433.690	0.790	-0.104	0.074
-432.676	-107.064	0.144	-0.032
-431.661	-200.000	-0.006	0.073
-430.646	-43.571	0.058	0.029
-429.632	-200.000	0.045	-0.236
-428.617	-200.000	0.030	0.143
-427.603	-156.764	0.083	0.005
-426.588	702.199	-0.018	-0.048
-425.573	-52.976	-0.119	0.055
-424.559	800.000	-0.092	-0.312
-423.544	-66.581	0.193	-0.076
-422.530	-200.000	0.010	-0.130
-421.515	428.605	0.023	0.050
-420.500	369.871	0.040	-0.081
-419.486	650.372	0.068	0.174
-418.471	-200.000	-0.033	0.143
-417.457	-200.000	-0.004	0.061
-416.442	-4.749	0.059	0.040
-415.428	-112.087	-0.409	-0.082
-414.413	-34.204	-0.301	0.165
-413.398	611.065	0.066	-0.164
-412.384	-200.000	0.039	-0.257
-411.369	-143.042	0.195	0.019
-410.355	222.324	0.106	0.169
-409.340	118.595	0.042	-0.052
-408.325	174.213	-0.061	-0.088
-407.311	163.373	-0.100	-0.140
-406.296	-178.390	0.431	0.010
-405.282	87.443	-0.043	-0.047
-404.267	-27.131	0.173	0.100
-403.252	365.710	-0.121	-0.243
-402.238	-56.535	-0.372	-0.164
-401.223	800.000	0.056	-0.229
-400.209	-72.763	-0.426	0.156
-399.194	12.865	-0.232	-0.178
-398.179	-82.210	0.326	-0.106
-397.165	-103.152	0.210	0.049
-396.150	800.000	0.121	-0.370
-395.136	-72.949	-0.139	0.051
-394.121	211.648	-0.105	0.164
-393.106	-200.000	-0.059	0.340
-392.092	156.670	-0.047	-0.064
-391.077	-200.000	0.021	-0.129
-390.063	800.000	0.073	0.237
-389.048	-185.299	0.164	-0.003
-388.033	-68.696	0.172	0.066
-387.019	800.000	0.073	0.219
-386.004	800.000	-0.041	0.158
-384.990	800.000	0.068	0.242
-383.975	-200.000	0.065	-0.283
-382.960	-65.612	0.152	-0.061
-381.946	-63.295	-0.247	0.101
-380.931	800.000	-0.115	0.401
-379.917	-81.233	0.247	0.081
-378.902	-107.084	-0.601	0.132
-377.888	800.000	-0.029	-0.124
-376.873	-0.437	0.135	-0.095
-375.858	52.002	-0.030	0.028
-374.844	351.809	-0.081	0.160
-373.829	-78.644	0.116	0.039
-372.815	118.190	-0.088	-0.108
-371.800	-154.284	-0.163	0.011
-370.785	6.517	-0.243	0.179
-369.771	143.469	-0.055	0.073
-368.756	-195.517	0.165	0.001
-367.742	-11.638	0.217	-0.142
-366.727	768.924	-0.138	0.372
-365.712	800.000	0.081	0.306
-364.698	356.338	0.095	0.188
-363.683	73.359	0.021	0.022
-362.669	-121.673	-0.418	-0.069
-361.654	12.020	0.105	-0.080
-360.639	800.000	-0.069	-0.237
-359.625	-29.414	0.140	-0.079
-358.610	288.865	0.086	0.154
-357.596	-200.000	0.049	-0.360
-356.581	6.161	0.176	-0.130
-355.566	276.532	0.157	0.278
-354.552	-59.525	-0.167	-0.071
-353.537	14.009	-0.155	0.120
-352.523	-20.968	-0.129	0.078
-351.508	-61.398	0.587	0.245
-350.493	12.821	0.289	-0.221
-349.479	95.446	0.282	0.319
-348.464	-200.000	-0.024	-0.215
-347.450	-200.000	-0.010	0.188
-346.435	-200.000	-0.029	0.311
-345.420	-200.000	0.060	-0.305
-344.406	-63.144	-0.326	0.133
-343.391	33.808	0.415	-0.358
-342.377	-119.338	0.322	-0.056
-341.362	327.910	0.136	0.258
-340.348	-116.869	-0.127	-0.023
-339.333	-20.738	-0.189	-0.115
-338.318	451.118	0.151	0.330
-337.304	800.000	0.060	0.182
-336.289	-121.988	0.138	0.022
-335.275	49.197	-0.130	0.122
-334.260	62.383	0.099	0.098
-333.245	47.641	0.129	-0.119
-332.231	-27.830	0.372	-0.214
-331.216	-42.862	0.202	-0.102
-330.202	800.000	0.094	0.285
-329.187	-19.849	0.195	-0.119
-328.172	202.986	0.125	-0.191
-327.158	-200.000	0.005	0.043
-326.143	54.796	0.077	0.074
-325.129	800.000	0.067	0.205
-324.114	198.513	0.044	0.066
-323.099	-69.924	-0.185	0.070
-322.085	5.469	0.222	-0.163
-321.070	63.016	-0.130	0.129
-320.056	-64.793	-0.411	0.165
-319.041	146.072	0.078	0.104
-318.026	12.686	0.067	-0.051
-317.012	5.608	0.238	-0.174
-315.997	-3.109	-0.135	-0.093
-314.983	663.517	-0.074	0.188
-313.968	-200.000	0.004	0.117
-312.953	140.712	-0.149	0.195
-311.939	800.000	0.106	0.312
-310.924	153.380	-0.096	-0.130
-309.910	200.959	0.191	-0.292
-308.895	222.036	-0.247	-0.394
-307.880	-25.287	0.233	0.137
-306.866	-150.679	0.177	-0.013
-305.851	-200.000	0.073	-0.365
-304.837	-200.000	0.065	0.288
-303.822	604.726	-0.110	0.272
-302.807	-92.971	0.109	0.030
-301.793	345.908	-0.032	-0.061
-300.778	-108.775	-0.275	-0.058
-299.764	-95.949	0.365	-0.096
-298.749	-200.000	0.042	0.190
-297.735	649.872	-0.078	0.197
-296.720	-200.000	0.017	0.133
-295.705	-44.308	-0.119	-0.059
-294.691	80.287	-0.148	0.158
-293.676	800.000	-0.083	-0.333
-292.662	800.000	0.023	0.070
-291.647	-16.996	-0.186	-0.116
-290.632	-200.000	-0.013	-0.089
-289.618	130.259	0.238	-0.301
-288.603	-150.612	0.047	-0.004
-287.589	60.814	0.101	0.099
-286.574	-35.598	-0.182	0.098
-285.559	-121.099	-0.236	-0.039
-284.545	-200.000	-0.027	0.295
-283.530	-95.412	-0.248	0.066
-282.516	-200.000	0.011	0.065
-281.501	800.000	0.038	-0.160
-280.486	-200.000	0.020	-0.104
-279.472	800.000	0.049	-0.210
-278.457	84.664	0.133	0.144
-277.443	-15.438	0.267	-0.169
-276.428	-46.944	0.184	-0.089
-275.413	-76.730	0.172	-0.060
-274.399	-200.000	-0.033	-0.169
-273.384	-200.000	0.039	0.243
-272.370	201.239	0.185	0.282
-271.355	439.422	0.100	0.216
-270.340	-200.000	0.025	-0.173
-269.326	-123.904	0.361	0.056
-268.311	-200.000	-0.005	-0.334
-267.297	109.763	-0.190	0.226
-266.282	52.252	-0.199	-0.187
-265.267	800.000	-0.108	0.339
-264.253	522.115	-0.161	-0.374
-263.238	-200.000	-0.033	0.194
-262.224	-141.791	-0.287	0.028
-261.209	61.938	-0.153	-0.150
-260.195	800.000	-0.032	-0.135
-259.180	208.860	0.147	-0.228
-258.165	-175.244	-0.135	-0.004
-257.151	-200.000	0.054	0.562
-256.136	217.546	0.150	-0.236
-255.122	-200.000	0.007	0.258
-254.107	12.200	-0.236	0.179
-253.092	-167.686	0.133	0.005
-252.078	-112.031	-0.176	0.035
-251.063	-200.000	0.002	-0.347
-250.049	215.868	0.105	-0.164
-249.034	-59.084	-0.243	-0.104
-248.019	155.551	0.128	0.174
-247.005	610.812	-0.068	-0.168
-245.990	-117.379	0.418	0.075
-244.976	295.259	0.106	0.191
-243.961	-200.000	-0.038	-0.183
-242.946	618.287	0.123	0.306
-241.932	182.560	-0.142	0.208
-240.917	-200.000	-0.017	-0.079
-239.903	-55.109	-0.196	-0.087
-238.888	800.000	-0.080	0.315
-237.873	178.382	-0.243	0.350
-236.859	-96.451	-0.146	0.038
-235.844	-55.229	0.122	-0.054
-234.830	-90.185	-0.153	0.044
-233.815	534.984	0.127	-0.297
-232.800	77.907	-0.099	0.104
-231.786	800.000	-0.071	0.245
-230.771	346.106	0.108	0.210
-229.757	155.640	0.066	0.089
-228.742	-66.403	0.235	0.092
-227.727	-5.654	0.113	0.077
-226.713	351.466	0.084	-0.165
-225.698	403.563	-0.145	0.302
-224.684	225.896	-0.045	0.072
-223.669	800.000	-0.110	-0.304
-222.655	800.000	0.042	0.164
-221.640	-16.859	0.069	0.043
-220.625	229.022	0.143	0.230
-219.611	14.182	0.138	0.106
-218.596	-200.000	0.015	0.244
-217.582	-200.000	0.041	0.181
-216.567	-60.268	-0.249	-0.105
-215.552	534.987	0.149	0.349
-214.538	20.165	0.303	0.241
-213.523	60.133	-0.114	0.111
-212.509	-40.410	0.242	0.124
-211.494	4.172	-0.264	0.191
-210.479	236.256	-0.101	-0.166
-209.465	-200.000	0.008	0.185
-208.450	148.133	0.102	-0.136
-207.436	50.296	0.157	0.146
-206.421	85.929	0.246	-0.267
-205.406	85.357	0.003	0.003
-204.392	256.452	-0.048	-0.082
-203.377	181.789	-0.072	0.105
-202.363	485.349	-0.147	-0.331
-201.348	406.294	-0.200	0.416
-200.333	29.548	0.428	0.359
-199.319	678.532	0.072	-0.184
-198.304	-71.292	0.251	-0.093
-197.290	-200.000	0.004	-0.032
-196.275	207.292	-0.124	-0.190
-195.260	45.647	0.227	-0.207
-194.246	-118.048	0.564	-0.099
-193.231	-126.385	-0.041	0.006
-192.217	800.000	0.025	0.069
-191.202	-19.954	-0.199	-0.121
-190.187	406.984	0.049	-0.102
-189.173	92.817	0.227	-0.253
-188.158	63.326	-0.195	-0.192
-187.144	800.000	0.074	-0.304
-186.129	800.000	-0.017	0.061
-185.114	233.008	0.036	0.058
-184.100	-47.150	0.054	-0.026
-183.085	-54.244	-0.138	0.062
-182.071	-91.982	-0.201	0.056
-181.056	-78.058	0.175	-0.060
-180.042	-48.720	0.086	-0.041
-179.027	-72.709	-0.181	-0.066
-178.012	-25.537	0.142	0.082
-176.998	249.098	0.051	-0.085
-175.983	163.304	0.050	-0.070
-174.969	800.000	0.147	0.451
-173.954	800.000	0.063	0.262
-172.939	-186.319	0.164	-0.002
-171.925	380.146	-0.105	0.212
-170.910	677.435	0.137	0.350
-169.896	-200.000	0.009	-0.038
-168.881	-200.000	-0.004	0.145
-167.866	19.064	-0.229	0.181
-166.852	-200.000	-0.009	0.262
-165.837	345.853	-0.105	0.202
-164.823	492.048	0.109	-0.246
-163.808	154.831	-0.127	0.172
-162.793	-53.631	0.345	-0.155
-161.779	336.208	-0.101	0.192
-160.764	229.054	0.145	0.232
-159.750	781.437	-0.098	0.264
-158.735	-86.716	0.107	0.032
-157.720	180.025	-0.292	-0.422
-156.706	-200.000	-0.020	-0.189
-155.691	-123.502	-0.254	0.040
-154.677	-146.203	0.157	-0.014
-153.662	133.620	-0.085	0.108
-152.647	-200.000	0.019	-0.413
-151.633	489.664	0.085	-0.191
-150.618	800.000	0.123	0.393
-149.604	-165.581	0.229	0.010
-148.589	281.092	-0.110	0.194
-147.574	93.615	0.163	-0.182
-146.560	-200.000	0.014	-0.180
-145.545	-200.000	-0.042	0.211
-144.531	-53.022	0.137	0.062
-143.516	-58.726	-0.294	-0.125
-142.502	-90.493	-0.118	-0.034
-141.487	-122.120	0.225	-0.036
-140.472	-187.226	-0.025	0.000
-139.458	191.325	0.249	0.369
-138.443	-118.256	0.348	-0.061
-137.429	-186.598	0.254	-0.004
-136.414	-199.569	0.213	0.001
-135.399	-117.987	0.207	-0.037
-134.385	-10.961	0.155	0.101
-133.370	-67.955	0.137	-0.053
-132.356	-69.802	0.190	0.071
-131.341	-200.000	-0.009	0.247
-130.326	-7.790	0.258	0.171
-129.312	-74.115	0.245	-0.087
-128.297	-200.000	-0.000	0.189
-127.283	15.829	-0.131	-0.102
-126.268	53.089	0.110	0.104
-125.253	800.000	0.076	0.319
-124.239	-155.964	0.162	0.010
-123.224	62.443	0.041	-0.040
-122.210	84.869	0.188	-0.203
-121.195	800.000	-0.005	0.019
-120.180	-200.000	-0.018	0.085
-119.166	-84.227	0.531	0.165
-118.151	92.879	-0.095	-0.106
-117.137	500.816	-0.035	-0.079
-116.122	64.645	-0.253	0.250
-115.107	800.000	0.067	-0.270
-114.093	800.000	0.041	0.119
-113.078	-87.328	0.272	-0.081
-112.064	-147.883	0.455	0.037
-111.049	800.000	-0.043	-0.168
-110.034	352.513	0.208	0.405
-109.020	-73.909	-0.187	-0.067
-108.005	-200.000	0.015	-0.247
-106.991	-200.000	0.020	-0.171
-105.976	-200.000	-0.014	-0.151
-104.962	380.782	0.011	-0.023
-103.947	120.826	-0.150	-0.184
-102.932	-200.000	0.015	-0.236
-101.918	317.931	-0.044	0.082
-100.903	-66.280	0.235	0.092
-99.889	800.000	0.029	-0.081
-98.874	-200.000	0.004	-0.154
-97.859	-11.172	-0.314	0.203
-96.845	0.974	-0.110	-0.078
-95.830	800.000	0.159	-0.508
-94.816	-88.641	0.203	0.059
-93.801	-200.000	0.030	-0.235
-92.786	134.348	0.023	-0.029
-91.772	800.000	0.044	-0.178
-90.757	800.000	0.046	0.175
-89.743	-200.000	0.090	-0.401
-88.728	-200.000	-0.010	-0.258
-87.713	-143.908	0.160	-0.015
-86.699	284.126	0.088	-0.156
-85.684	-7.069	-0.252	0.168
-84.670	203.312	0.119	-0.181
-83.655	-5.876	-0.034	0.023
-82.640	-88.388	0.157	-0.046
-81.626	195.895	0.012	0.018
-80.611	-96.103	0.249	0.065
-79.597	800.000	-0.014	-0.054
-78.582	108.683	0.145	-0.170
-77.567	-93.799	-0.144	0.039
-76.553	127.728	0.138	-0.172
-75.538	-109.571	-0.196	-0.041
-74.524	276.028	0.057	-0.100
-73.509	-94.262	0.244	-0.066
-72.494	-114.930	0.026	0.005
-71.480	259.044	-0.131	-0.221
-70.465	121.581	-0.108	0.132
-69.451	-200.000	-0.033	0.313
-68.436	237.255	-0.076	-0.123
-67.422	7.751	0.292	-0.214
-66.407	307.581	-0.052	0.096
-65.392	133.879	0.173	0.220
-64.378	-5.726	-0.283	0.190
-63.363	-145.094	0.252	0.022
-62.349	101.754	-0.132	-0.151
-61.334	51.389	-1.045	-0.973
-60.319	286.622	0.348	0.617
-59.305	-200.000	-0.154	-1.176
-58.290	252.997	0.812	1.358
-57.276	741.498	0.525	1.384
-56.261	-200.000	109.186	614.920
-55.246	525.744	1490.073	3440.230
-54.232	180.551	2671.301	3844.551
-53.217	113.440	2147.614	2556.256
-52.203	41.504	1599.322	1419.460
-51.188	33.537	1340.631	1142.052
-50.173	30.338	1300.277	1088.905
-49.159	54.703	1354.498	1280.812
-48.144	55.109	1369.447	1297.323
-47.130	33.517	1324.227	1127.781
-46.115	30.255	1306.162	1093.167
-45.100	29.923	1301.683	1087.424
-44.086	29.832	1299.357	1084.906
-43.071	29.865	1297.129	1083.196
-42.057	29.821	1295.052	1081.162
-41.042	29.914	1293.048	1079.989
-40.027	29.770	1291.913	1078.159
-39.013	29.892	1289.288	1076.636
-37.998	29.922	1287.779	1075.503
-36.984	30.030	1286.163	1074.739
-35.969	30.001	1284.016	1072.735
-34.954	30.022	1282.523	1071.570
-33.940	30.033	1281.812	1070.993
-32.925	29.976	1280.426	1069.466
-31.911	29.898	1279.381	1068.100
-30.896	30.049	1277.049	1066.982
-29.881	30.077	1275.833	1066.081
-28.867	30.079	1274.751	1065.149
-27.852	30.059	1273.020	1063.543
-26.838	30.061	1271.824	1062.517
-25.823	30.073	1270.492	1061.430
-24.809	30.043	1269.066	1060.022
-23.794	30.075	1267.968	1059.249
-22.779	30.081	1266.343	1057.883
-21.765	30.030	1265.338	1056.707
-20.750	29.976	1263.980	1055.226
-19.736	29.959	1262.785	1054.089
-18.721	29.952	1261.722	1053.123
-17.706	29.880	1260.650	1051.775
-16.692	29.879	1259.592	1050.843
-15.677	29.877	1258.254	1049.675
-14.663	29.853	1257.649	1048.994
-13.648	29.951	1256.366	1048.438
-12.633	29.858	1255.319	1046.995
-11.619	29.848	1254.176	1045.943
-10.604	29.906	1253.616	1045.763
-9.590	29.934	1252.428	1044.887
-8.575	29.887	1251.473	1043.786
-7.560	29.838	1250.929	1043.013
-6.546	29.777	1250.473	1042.248
-5.531	29.848	1248.881	1041.278
-4.517	29.833	1248.179	1040.569
-3.502	29.877	1247.680	1040.361
-2.487	29.918	1246.200	1039.313
-1.473	29.757	1241.875	1034.762
-0.458	28.017	1226.435	1012.230
0.556	24.405	1208.865	971.110
1.571	20.525	1212.713	952.884
2.586	19.368	1227.120	957.700
3.600	18.745	1215.092	944.799
4.615	14.077	1144.657	865.704
5.629	6.699	1072.601	775.017
6.644	3.484	1053.861	745.880
7.659	3.188	1051.402	742.645
8.673	3.216	1050.155	741.834
9.688	3.263	1048.986	741.167
10.702	3.421	1047.453	740.777
11.717	7.536	1052.474	764.099
12.731	15.129	1064.059	809.262
13.746	19.662	1069.001	834.902
14.761	20.117	1068.747	836.828
15.775	19.147	1067.144	830.821
16.790	18.257	1064.885	824.700
17.804	17.639	1062.943	820.152
18.819	17.289	1062.259	817.866
19.834	17.160	1061.408	816.519
20.848	16.833	1061.465	814.921
21.863	16.722	1060.253	813.385
22.877	16.586	1059.685	812.221
23.892	16.558	1058.849	811.374
24.907	16.521	1057.823	810.341
25.921	16.580	1057.101	810.000
26.936	16.681	1055.467	809.156
27.950	16.688	1054.316	808.236
28.965	16.735	1052.643	807.105
29.980	16.797	1051.514	806.466
30.994	16.939	1050.428	806.237
32.009	16.846	1049.672	805.144
33.023	16.954	1048.276	804.510
34.038	16.706	1047.297	802.513
35.053	16.691	1046.436	801.711
36.067	16.666	1045.756	801.003
37.082	16.671	1044.973	800.357
38.096	16.831	1044.152	800.411
39.111	16.798	1043.553	799.728
40.126	16.641	1042.093	797.799
41.140	16.456	1040.631	795.736
42.155	16.391	1039.683	794.634
43.169	16.330	1038.510	793.383
44.184	16.296	1037.402	792.306
45.199	16.306	1036.564	791.645
46.213	16.389	1035.862	791.423
47.228	16.614	1035.162	791.875
48.242	16.698	1033.787	791.145
49.257	16.621	1032.904	790.041
50.271	16.761	1032.247	790.118
51.286	16.775	1031.374	789.445
52.301	16.698	1030.480	788.334
53.315	16.666	1029.097	787.056
54.330	16.466	1027.755	785.034
55.344	16.430	1027.239	784.400
56.359	16.519	1026.323	784.046
57.374	16.588	1025.200	783.440
58.388	16.289	1024.539	781.478
59.403	16.393	1023.318	780.961
60.417	16.366	1022.881	780.433
61.432	16.373	1022.456	780.071
62.447	16.216	1020.945	778.124
63.461	16.183	1020.142	777.291
64.476	16.142	1019.505	776.552
65.490	16.237	1018.638	776.257
66.505	16.324	1017.489	775.715
67.520	16.243	1017.448	775.240
68.534	16.365	1016.192	774.777
69.549	16.226	1016.145	774.033
70.563	16.186	1015.385	773.202
71.578	16.124	1013.963	771.766
72.593	16.045	1013.245	770.794
73.607	15.980	1012.988	770.231
74.622	16.110	1012.473	770.363
75.636	15.979	1011.852	769.226
76.651	16.215	1010.623	769.301
77.666	16.206	1010.066	768.766
78.680	16.201	1009.659	768.368
79.695	16.196	1008.987	767.764
80.709	16.215	1008.631	767.512
81.724	16.390	1007.943	767.716
82.739	16.311	1007.537	766.982
83.753	16.626	1006.593	767.624
84.768	16.819	1005.663	767.721
85.782	17.026	1004.682	767.840
86.797	16.971	1003.746	766.807
87.812	16.658	1002.646	764.486
88.826	16.836	1001.378	764.252
89.841	16.826	1001.093	763.925
90.855	17.006	1000.172	763.963
91.870	16.882	999.893	763.127
92.884	16.951	998.706	762.463
93.899	16.881	997.634	761.265
94.914	17.072	997.056	761.612
95.928	16.961	996.513	760.631
96.943	16.862	995.255	759.161
97.957	16.787	994.633	758.283
98.972	16.834	993.798	757.788
99.987	16.909	992.888	757.363
101.001	16.798	992.059	756.170
102.016	16.914	991.109	755.897
103.030	16.858	990.460	755.083
104.045	16.894	989.782	754.659
105.060	16.795	988.753	753.368
106.074	16.573	987.699	751.515
107.089	16.328	986.438	749.401
108.103	16.337	985.294	748.503
109.118	16.353	984.370	747.806
110.133	16.367	983.378	747.050
111.147	16.261	983.107	746.311
112.162	16.386	982.080	746.013
113.176	16.403	981.360	745.476
114.191	16.378	980.954	744.994
115.206	16.428	980.222	744.591
116.220	16.441	978.862	743.550
117.235	16.420	977.967	742.712
118.249	16.466	976.765	741.935
119.264	16.272	976.586	740.882
120.279	16.280	975.590	740.097
121.293	16.271	974.614	739.250
122.308	16.241	973.904	738.514
123.322	16.112	972.742	737.003
124.337	16.212	971.565	736.484
125.352	16.192	970.645	735.635
126.366	16.111	969.548	734.384
127.381	16.186	968.656	733.970
128.395	16.244	967.533	733.309
129.410	16.314	967.024	733.161
130.424	16.246	966.353	732.293
131.439	16.498	965.570	732.726
132.454	16.400	965.227	731.975
133.468	16.539	964.249	731.772
134.483	16.485	963.076	730.582
135.497	16.541	962.361	730.220
136.512	16.435	961.892	729.341
137.527	16.547	960.575	728.762
138.541	16.454	960.499	728.235
139.556	16.535	959.523	727.780
140.570	16.668	959.176	728.024
141.585	16.720	958.702	727.827
142.600	16.831	957.676	727.458
143.614	16.933	956.671	727.067
144.629	16.970	955.930	726.598
145.643	17.054	954.549	725.845
146.658	16.664	953.955	723.662
147.673	16.553	953.150	722.511
148.687	16.585	951.684	721.472
149.702	16.603	951.079	721.028
150.716	16.451	950.168	719.625
151.731	16.557	949.694	719.656
152.746	16.622	948.983	719.328
153.760	16.607	948.436	718.785
154.775	16.821	947.716	719.087
155.789	16.742	947.228	718.318
156.804	16.731	946.978	718.018
157.819	16.811	945.864	717.446
158.833	16.969	945.122	717.490
159.848	17.027	944.512	717.209
160.862	16.876	943.267	715.563
161.877	16.750	942.338	714.261
162.892	16.523	941.267	712.433
163.906	16.470	940.540	711.595
164.921	16.539	939.547	711.072
165.935	16.568	938.568	710.390
166.950	16.700	937.748	710.260
167.964	16.598	937.318	709.445
168.979	16.549	936.417	708.493
169.994	16.620	935.575	708.088
171.008	16.820	934.532	708.073
172.023	16.844	934.033	707.732
173.037	17.028	933.419	707.974
174.052	16.881	932.505	706.605
175.067	16.725	931.872	705.414
176.081	16.517	931.319	704.068
177.096	16.537	930.769	703.670
178.110	16.585	930.132	703.324
179.125	16.664	929.724	703.282
180.140	16.779	929.096	703.225
181.154	16.821	928.876	703.172
182.169	16.973	928.623	703.548
183.183	17.077	928.090	703.513
184.198	17.027	927.062	702.465
185.213	17.092	926.209	702.023
186.227	16.999	925.523	701.055
187.242	17.060	925.046	700.888
188.256	17.266	924.703	701.415
189.271	17.180	923.909	700.395
190.286	17.077	922.578	698.902
191.300	16.576	921.872	696.241
192.315	16.345	921.178	694.707
193.329	16.536	920.774	695.124
194.344	16.810	919.681	695.362
195.359	16.795	919.529	695.126
196.373	17.067	918.699	695.550
197.388	17.027	918.948	695.514
198.402	17.315	918.500	696.293
199.417	17.331	917.850	695.802
200.432	17.395	917.720	695.907
201.446	17.501	917.136	695.834
202.461	17.562	916.084	695.223
203.475	17.395	915.832	694.289
204.490	17.262	914.752	692.868
205.504	17.184	914.139	692.025
206.519	17.167	913.166	691.158
207.534	17.218	912.358	690.693
208.548	17.133	911.787	689.853
209.563	17.143	911.317	689.478
210.577	17.202	910.780	689.249
211.592	17.432	909.993	689.525
212.607	17.406	909.456	688.953
213.621	17.524	908.271	688.470
214.636	17.432	907.842	687.712
215.650	17.331	907.516	686.995
216.665	17.520	906.692	687.075
217.680	17.519	906.111	686.570
218.694	17.641	905.366	686.436
219.709	17.542	904.384	685.232
220.723	17.570	903.807	684.848
221.738	17.538	902.891	683.963
222.753	17.525	902.860	683.825
223.767	17.601	902.015	683.431
224.782	17.761	901.673	683.754
225.796	17.727	901.411	683.359
226.811	17.557	900.713	682.089
227.826	17.444	899.777	680.866
228.840	17.607	898.543	680.522
229.855	17.401	898.216	679.392
230.869	17.517	897.634	679.354
231.884	17.489	896.768	678.527
232.899	17.507	895.974	677.941
233.913	17.203	895.526	676.332
234.928	17.325	894.419	675.920
235.942	17.318	893.933	675.464
236.957	17.251	893.426	674.755
237.972	17.268	893.070	674.495
238.986	17.255	892.673	674.082
240.001	17.393	891.897	673.986
241.015	17.507	891.058	673.741
242.030	17.511	890.934	673.605
243.045	17.447	890.163	672.710
244.059	17.561	889.547	672.636
245.074	17.622	888.850	672.287
246.088	17.739	888.265	672.247
247.103	17.794	887.905	672.133
248.117	17.985	887.232	672.317
249.132	18.053	887.155	672.465
250.147	18.206	886.690	672.654
251.161	18.446	885.468	672.610
252.176	18.383	884.983	671.938
253.190	18.371	884.418	671.401
254.205	18.328	883.866	670.754
255.220	18.351	883.309	670.360
256.234	18.296	882.746	669.660
257.249	18.322	881.958	669.103
258.263	18.349	880.997	668.422
259.278	18.270	880.154	667.416
260.293	18.426	880.005	667.850
261.307	18.456	879.580	667.586
262.322	18.534	878.874	667.294
263.336	18.522	877.937	666.477
264.351	18.468	877.505	665.882
265.366	18.587	876.696	665.671
266.380	18.432	876.334	664.736
267.395	18.409	875.636	664.056
268.409	18.329	874.778	663.039
269.424	18.504	873.914	663.002
270.439	18.412	872.967	661.868
271.453	18.314	872.149	660.811
272.468	18.249	872.128	660.488
273.482	18.132	871.627	659.595
274.497	18.207	871.258	659.548
275.512	18.325	870.305	659.225
276.526	18.263	870.134	658.798
277.541	18.342	869.156	658.303
278.555	18.513	869.138	658.888
279.570	18.641	868.514	658.848
280.585	18.559	867.614	657.793
281.599	18.466	866.966	656.887
282.614	18.354	866.172	655.799
283.628	18.237	865.805	655.013
284.643	18.432	864.836	654.969
285.657	18.426	864.235	654.431
286.672	18.600	863.376	654.389
287.687	18.513	863.075	653.768
288.701	18.416	862.682	653.043
289.716	18.399	862.403	652.713
290.730	18.578	861.779	652.861
291.745	18.494	861.109	651.976
292.760	18.720	860.279	652.151
293.774	18.672	859.872	651.600
294.789	18.670	859.173	651.007
295.803	18.570	858.086	649.744
296.818	18.548	857.729	649.336
297.833	18.614	856.940	648.928
298.847	18.639	856.368	648.534
299.862	18.656	855.686	648.023
300.876	18.765	855.375	648.143
301.891	18.817	855.093	648.067
302.906	18.968	854.293	647.974
303.920	19.054	853.906	647.947
304.935	18.921	853.850	647.345
305.949	19.083	852.584	646.940
306.964	18.886	851.630	645.415
307.979	18.851	851.572	645.183
308.993	19.066	850.824	645.367
310.008	18.984	850.588	644.824
311.022	18.892	849.995	643.972
312.037	18.809	848.833	642.725
313.052	18.660	848.355	641.750
314.066	18.613	847.753	641.060
315.081	18.713	847.080	640.868
316.095	18.775	846.630	640.704
317.110	18.722	846.113	640.058
318.125	18.725	845.452	639.511
319.139	18.683	845.119	639.048
320.154	18.694	844.904	638.870
321.168	18.673	843.876	637.955
322.183	18.766	843.645	638.070
323.197	18.781	843.206	637.738
324.212	18.935	842.341	637.599
325.227	18.640	842.232	636.365
326.241	18.790	841.193	636.078
327.256	18.856	840.732	635.919
328.270	18.804	840.058	635.162
329.285	18.853	839.750	635.054
330.300	18.690	839.247	634.014
331.314	18.653	839.096	633.706
332.329	18.871	838.463	633.979
333.343	18.954	837.905	633.807
334.358	19.094	837.157	633.700
335.373	18.927	837.460	633.257
336.387	19.089	836.544	633.106
337.402	19.045	836.815	633.091
338.416	19.106	836.814	633.258
339.431	19.281	835.807	633.085
340.446	19.369	835.341	633.000
341.460	19.396	834.955	632.750
342.475	19.440	835.010	632.897
343.489	19.563	834.216	632.689
344.504	19.707	833.426	632.560
345.519	19.609	833.438	632.156
346.533	19.464	832.993	631.232
347.548	19.421	832.137	630.370
348.562	19.050	831.835	628.729
349.577	19.026	830.856	627.847
350.592	19.180	830.345	627.965
351.606	19.106	829.620	627.094
352.621	19.149	828.735	626.523
353.635	19.332	828.377	626.863
354.650	19.258	827.854	626.143
355.665	19.345	826.938	625.712
356.679	19.436	826.180	625.414
357.694	19.478	825.673	625.126
358.708	19.278	825.672	624.344
359.723	19.387	824.804	624.029
360.738	19.276	823.994	622.960
361.752	19.548	823.532	623.537
362.767	19.498	823.343	623.157
363.781	19.825	822.420	623.583
364.796	19.667	822.064	622.690
365.810	19.906	821.882	623.358
366.825	19.924	821.868	623.356
367.840	19.838	820.910	622.267
368.854	19.934	820.395	622.164
369.869	19.708	820.150	621.110
370.883	19.740	819.781	620.893
371.898	19.855	819.447	620.997
372.913	20.055	818.881	621.231
373.927	19.829	818.357	619.967
374.942	19.951	817.791	619.921
375.956	19.984	817.329	619.634
376.971	19.888	817.394	619.284
377.986	20.009	816.903	619.293
379.000	20.228	815.888	619.250
380.015	20.112	815.524	618.503
381.029	20.118	814.988	618.065
382.044	20.159	814.249	617.596
383.059	20.149	813.785	617.152
384.073	20.055	813.152	616.283
385.088	19.841	812.562	615.023
386.102	19.743	812.032	614.218
387.117	19.793	811.103	613.637
388.132	19.793	810.816	613.367
389.146	20.043	810.153	613.695
390.161	20.084	809.923	613.615
391.175	20.047	809.566	613.158
392.190	20.114	808.943	612.870
393.205	19.923	808.307	611.659
394.219	19.934	808.209	611.569
395.234	19.890	807.568	610.872
396.248	19.659	807.105	609.653
397.263	19.721	806.525	609.381
398.278	19.728	806.377	609.239
399.292	19.757	805.651	608.740
400.307	19.734	805.407	608.421
401.321	19.759	805.176	608.280
402.336	19.899	804.475	608.187
403.350	20.073	803.877	608.293
404.365	20.198	803.586	608.457
405.380	20.205	803.206	608.142
406.394	20.302	802.820	608.135
407.409	20.293	802.417	607.745
408.423	20.436	801.940	607.829
409.438	20.477	801.418	607.523
410.453	20.499	801.235	607.407
411.467	20.521	800.544	606.907
412.482	20.505	800.374	606.669
413.496	20.674	800.190	607.066
414.511	20.657	799.711	606.589
415.526	20.462	799.536	605.725
416.540	20.586	798.745	605.501
417.555	20.556	798.308	605.013
418.569	20.675	797.695	604.909
419.584	20.487	797.525	604.074
420.599	20.646	797.014	604.182
421.613	161.696	1371.539	1798.057
422.628	140.285	1455.251	1798.164
