DTS Sentinel unit serial number:	SN413079Multiplexer serial number:	ORYXHardware model number:	OX4-SRSoftware version number:	ORYX F/W v4.00 Oryx Data Collector v3.7.2.0data status	okinstallation	princeton_trtdifferential loss correction	single-endedforward channel	channel 1reverse channel	N/Adate	2019/09/16time	19:02:35forward acquisition time	60.00reverse acquisition time	0.00gamma	496.2192k internal	0.2311k external	0.2311temperature offset calibration	0.9943default loss term (dB/km)	0.3790temperature slope calibration	1.0000multiplexer offset coefficient	1.0000multiplexer slope coefficient	1.0000fibre end	0.00T internal ref (°C)	35.52T ext. ref 1 (°C)	0.06T ext. ref 2 (°C)	28.70length (m)	temperature (°C)	Stokes	anti-Stokes-747.200	191.404	0.132	-0.202
-746.185	8.907	-0.227	0.174
-745.171	-95.393	0.334	0.091
-744.156	800.000	-0.081	0.279
-743.142	648.453	0.031	-0.080
-742.127	505.857	0.118	0.278
-741.112	800.000	-0.067	0.192
-740.098	-200.000	0.018	0.154
-739.083	18.023	0.099	0.080
-738.069	-70.285	-0.168	-0.065
-737.054	-91.658	-0.099	0.029
-736.039	350.705	-0.056	0.113
-735.025	-159.057	0.306	-0.018
-734.010	-200.000	-0.013	-0.222
-732.996	-200.000	-0.010	0.048
-731.981	131.462	-0.201	-0.262
-730.966	-41.998	0.035	0.018
-729.952	-162.790	-0.272	-0.013
-728.937	10.844	-0.182	-0.141
-727.923	-200.000	-0.004	-0.112
-726.908	-109.813	-0.149	-0.032
-725.894	-200.000	0.036	0.218
-724.879	-92.090	-0.205	0.059
-723.864	-144.176	0.231	0.022
-722.850	5.545	-0.253	0.190
-721.835	-200.000	0.017	0.090
-720.821	-200.000	-0.018	-0.220
-719.806	9.902	0.056	-0.043
-718.791	66.325	0.092	-0.095
-717.777	-4.127	0.026	-0.018
-716.762	669.783	0.070	0.183
-715.748	-48.388	0.238	-0.116
-714.733	800.000	-0.084	-0.312
-713.718	-85.127	0.069	-0.022
-712.704	485.423	0.141	-0.325
-711.689	155.581	0.165	0.230
-710.675	-29.137	0.055	0.032
-709.660	34.844	-0.218	-0.193
-708.645	800.000	0.013	-0.046
-707.631	-200.000	-0.010	0.064
-706.616	-200.000	0.005	0.074
-705.602	134.676	0.124	-0.163
-704.587	-123.110	0.197	-0.032
-703.572	-2.752	-0.306	-0.217
-702.558	-55.872	-0.086	-0.039
-701.543	120.748	0.154	-0.194
-700.529	-109.317	-0.497	0.107
-699.514	-53.681	0.275	0.127
-698.499	332.303	-0.076	0.148
-697.485	93.576	0.161	-0.184
-696.470	26.154	0.195	-0.165
-695.456	157.731	0.187	-0.262
-694.441	146.277	-0.119	-0.161
-693.426	76.595	-0.171	0.184
-692.412	-115.923	0.387	-0.073
-691.397	47.076	-0.200	0.188
-690.383	-37.054	0.220	0.119
-689.368	-200.000	0.020	0.100
-688.354	342.047	-0.096	0.190
-687.339	514.040	0.123	0.290
-686.324	444.738	-0.084	-0.187
-685.310	-200.000	-0.008	-0.119
-684.295	-200.000	0.031	-0.326
-683.281	-107.825	-0.201	-0.044
-682.266	-80.141	0.369	-0.125
-681.251	-200.000	-0.037	0.171
-680.237	145.836	0.030	0.040
-679.222	407.514	-0.092	-0.197
-678.208	-13.102	0.216	-0.142
-677.193	-70.892	0.166	0.063
-676.178	67.951	-0.143	0.148
-675.164	99.772	-0.275	-0.322
-674.149	174.766	-0.078	0.115
-673.135	-32.004	0.150	-0.085
-672.120	-30.982	-0.130	-0.074
-671.105	-78.589	-0.337	-0.117
-670.091	101.861	0.090	-0.106
-669.076	-137.613	-0.097	-0.011
-668.062	-200.000	0.020	-0.200
-667.047	-110.450	0.422	0.089
-666.032	-200.000	0.014	0.259
-665.018	-161.582	0.133	0.007
-664.003	-200.000	-0.041	-0.212
-662.989	162.409	-0.013	-0.019
-661.974	800.000	0.037	-0.119
-660.959	-90.874	0.215	-0.063
-659.945	-140.153	-0.497	0.053
-658.930	-47.743	-0.231	-0.113
-657.916	117.737	0.171	-0.213
-656.901	-200.000	0.058	-0.315
-655.886	-200.000	0.002	-0.085
-654.872	-108.489	-0.335	-0.073
-653.857	143.945	0.317	-0.428
-652.843	331.158	-0.072	0.140
-651.828	26.322	-0.100	0.085
-650.814	800.000	-0.045	-0.151
-649.799	-200.000	-0.011	0.099
-648.784	-110.043	0.070	-0.015
-647.770	68.290	0.309	-0.320
-646.755	-173.287	-0.137	0.004
-645.741	320.705	0.101	-0.195
-644.726	-9.878	0.150	-0.101
-643.711	576.706	0.084	-0.208
-642.697	56.048	-0.194	0.190
-641.682	-168.258	-0.141	-0.006
-640.668	350.399	0.086	-0.172
-639.653	800.000	0.058	-0.256
-638.638	75.026	0.165	-0.176
-637.624	-47.121	-0.161	-0.079
-636.609	117.963	-0.152	0.189
-635.595	163.861	0.180	0.256
-634.580	103.411	-0.132	0.156
-633.565	800.000	0.113	-0.335
-632.551	193.072	-0.091	-0.139
-631.536	31.930	-0.195	-0.170
-630.522	-200.000	-0.043	-0.288
-629.507	-17.091	0.169	-0.108
-628.492	-125.377	0.146	0.022
-627.478	370.767	-0.126	-0.257
-626.463	-200.000	-0.050	0.227
-625.449	800.000	0.123	-0.458
-624.434	-51.402	0.078	-0.037
-623.419	-182.894	0.121	0.002
-622.405	800.000	-0.039	0.121
-621.390	800.000	-0.092	0.338
-620.376	187.520	-0.108	-0.163
-619.361	-51.099	-0.169	0.080
-618.346	194.495	0.118	0.180
-617.332	196.705	-0.189	0.291
-616.317	-200.000	0.014	0.261
-615.303	-200.000	-0.013	-0.335
-614.288	11.784	-0.074	-0.058
-613.273	800.000	-0.063	-0.187
-612.259	14.452	0.138	-0.109
-611.244	32.386	0.068	-0.059
-610.230	-119.306	0.034	-0.006
-609.215	-119.822	0.177	-0.031
-608.201	223.518	-0.107	-0.174
-607.186	-10.193	0.359	0.241
-606.171	-72.519	-0.088	0.033
-605.157	800.000	-0.142	-0.418
-604.142	-200.000	-0.012	-0.445
-603.128	-200.000	0.007	0.249
-602.113	118.493	-0.347	-0.432
-601.098	-66.074	0.174	0.070
-600.084	800.000	-0.058	-0.216
-599.069	413.185	0.101	-0.216
-598.055	-200.000	-0.009	0.175
-597.040	10.317	-0.169	-0.130
-596.025	800.000	0.059	-0.220
-595.011	237.852	0.198	-0.331
-593.996	-200.000	0.000	-0.135
-592.982	-200.000	0.038	0.215
-591.967	135.618	-0.136	0.179
-590.952	-134.453	-0.544	0.067
-589.938	735.182	0.056	0.151
-588.923	-48.308	-0.214	-0.104
-587.909	-200.000	-0.047	0.224
-586.894	68.546	0.242	0.250
-585.879	-200.000	0.063	-0.345
-584.865	-40.731	-0.219	-0.115
-583.850	-200.000	-0.014	-0.143
-582.836	80.248	0.097	-0.105
-581.821	63.891	0.098	0.100
-580.806	-200.000	0.034	-0.229
-579.792	-200.000	0.075	-0.337
-578.777	-200.000	0.031	-0.207
-577.763	620.522	-0.112	0.284
-576.748	119.298	-0.042	0.053
-575.733	465.739	-0.139	0.313
-574.719	-200.000	0.014	-0.067
-573.704	511.482	-0.046	0.109
-572.690	-28.958	0.308	0.178
-571.675	38.751	0.243	-0.219
-570.661	83.633	0.093	0.102
-569.646	65.021	0.212	0.216
-568.631	-83.572	0.041	0.013
-567.617	-79.530	-0.285	0.097
-566.602	-75.146	-0.242	-0.087
-565.588	-116.381	-0.549	-0.102
-564.573	415.378	0.152	-0.327
-563.558	79.097	-0.042	0.045
-562.544	34.063	-0.092	0.081
-561.529	800.000	-0.031	0.128
-560.515	293.590	-0.111	0.205
-559.500	-8.528	-0.111	-0.075
-558.485	-200.000	-0.046	0.401
-557.471	-5.096	0.305	0.211
-556.456	800.000	0.094	-0.324
-555.442	-200.000	-0.090	0.456
-554.427	-67.846	-0.385	-0.152
-553.412	-48.011	-0.218	-0.106
-552.398	-0.607	-0.173	0.124
-551.383	-200.000	-0.015	-0.239
-550.369	597.397	-0.123	-0.308
-549.354	800.000	-0.053	-0.156
-548.339	44.220	-0.214	-0.198
-547.325	-191.534	-0.303	-0.003
-546.310	-64.085	0.230	-0.094
-545.296	-200.000	0.002	-0.285
-544.281	498.637	-0.110	0.255
-543.266	-200.000	-0.056	0.425
-542.252	7.749	-0.108	-0.081
-541.237	96.702	-0.103	-0.119
-540.223	105.569	-0.201	-0.239
-539.208	-200.000	0.028	-0.211
-538.193	-119.402	0.135	0.024
-537.179	800.000	-0.046	-0.203
-536.164	-19.681	-0.258	-0.161
-535.150	389.885	0.094	0.196
-534.135	-35.200	-0.333	0.183
-533.121	137.953	-0.107	-0.142
-532.106	800.000	0.029	-0.086
-531.091	-114.463	-0.131	0.025
-530.077	-72.386	0.198	0.074
-529.062	151.358	0.067	0.092
-528.048	315.713	0.123	-0.234
-527.033	37.449	0.125	-0.112
-526.018	320.120	0.080	0.153
-525.004	243.388	0.141	-0.239
-523.989	-55.687	0.109	-0.049
-522.975	327.407	0.067	-0.130
-521.960	308.935	-0.046	-0.086
-520.945	-57.475	0.102	-0.045
-519.931	10.503	0.196	0.150
-518.916	33.013	0.077	0.067
-517.902	64.050	-0.114	0.116
-516.887	-200.000	0.033	-0.322
-515.872	201.951	-0.084	-0.130
-514.858	-127.314	0.226	-0.033
-513.843	55.157	-0.122	0.119
-512.829	201.313	-0.075	0.116
-511.814	101.026	0.143	0.168
-510.799	483.111	-0.065	0.148
-509.785	-84.449	-0.398	0.126
-508.770	414.671	0.128	0.273
-507.756	-187.160	-0.110	-0.002
-506.741	155.670	0.055	-0.076
-505.726	-128.523	-0.219	-0.031
-504.712	20.085	-0.240	-0.195
-503.697	-14.733	0.174	-0.112
-502.683	800.000	-0.102	-0.334
-501.668	-100.851	-0.369	-0.091
-500.653	-106.403	-0.254	-0.057
-499.639	-200.000	0.013	-0.153
-498.624	-126.367	0.444	0.067
-497.610	-200.000	0.022	0.099
-496.595	43.233	-0.124	0.114
-495.581	-45.097	-0.173	-0.086
-494.566	-200.000	-0.006	-0.196
-493.551	616.815	0.058	0.146
-492.537	800.000	0.064	0.216
-491.522	18.701	0.117	-0.094
-490.508	-188.297	-0.203	0.003
-489.493	183.072	-0.089	-0.132
-488.478	44.502	-0.181	-0.167
-487.464	-20.397	-0.148	-0.091
-486.449	-200.000	-0.014	0.167
-485.435	-175.594	-0.255	0.007
-484.420	-200.000	0.019	-0.285
-483.405	-2.822	0.016	0.011
-482.391	-200.000	-0.011	0.201
-481.376	-134.687	-0.150	0.018
-480.362	800.000	0.056	0.163
-479.347	-12.052	0.015	0.010
-478.332	-81.311	-0.118	0.039
-477.318	266.126	0.111	-0.194
-476.303	81.617	-0.072	-0.078
-475.289	-71.677	0.238	0.089
-474.274	-128.465	0.130	-0.019
-473.259	-81.762	-0.390	0.128
-472.245	48.525	0.105	0.099
-471.230	60.431	0.222	0.221
-470.216	-42.977	-0.239	0.122
-469.201	-184.115	0.189	-0.003
-468.186	-200.000	-0.022	-0.102
-467.172	-200.000	-0.063	-0.429
-466.157	146.975	0.181	0.244
-465.143	104.202	-0.106	-0.125
-464.128	4.262	-0.318	-0.234
-463.113	800.000	0.063	0.221
-462.099	-12.321	-0.122	0.080
-461.084	-42.135	0.261	0.134
-460.070	-155.974	-0.316	0.020
-459.055	6.892	-0.072	0.054
-458.040	8.143	-0.112	0.084
-457.026	91.963	0.174	-0.196
-456.011	800.000	0.048	0.138
-454.997	800.000	-0.065	-0.207
-453.982	-191.602	0.198	0.002
-452.968	80.606	0.117	0.127
-451.953	-91.758	0.072	0.021
-450.938	-150.548	0.364	-0.028
-449.924	-165.136	0.116	-0.005
-448.909	440.749	0.108	0.236
-447.895	-101.579	-0.109	-0.027
-446.880	-1.823	0.311	0.220
-445.865	-57.677	-0.203	0.089
-444.851	-52.802	0.120	0.056
-443.836	-12.328	0.184	0.120
-442.822	354.960	-0.024	-0.047
-441.807	-50.591	-0.287	0.136
-440.792	800.000	0.089	-0.263
-439.778	-17.567	-0.368	0.232
-438.763	-160.975	0.394	0.021
-437.749	-57.193	0.142	0.063
-436.734	715.429	-0.060	0.159
-435.719	-8.193	0.181	0.122
-434.705	188.046	0.263	0.394
-433.690	800.000	-0.065	-0.230
-432.676	800.000	-0.051	-0.191
-431.661	-52.258	0.102	0.047
-430.646	-37.449	-0.374	0.200
-429.632	-21.268	-0.209	0.128
-428.617	-200.000	0.012	-0.165
-427.603	-200.000	-0.080	0.397
-426.588	-157.310	0.237	0.014
-425.573	44.821	-0.091	0.084
-424.559	586.606	0.115	-0.283
-423.544	116.737	0.169	-0.208
-422.530	-52.041	-0.129	0.060
-421.515	-16.745	0.127	-0.080
-420.500	-108.563	0.315	-0.068
-419.486	189.195	-0.091	-0.136
-418.471	310.689	-0.287	0.538
-417.457	-136.614	0.175	0.020
-416.442	-200.000	-0.001	-0.045
-415.428	-28.938	0.107	0.061
-414.413	416.575	-0.139	-0.296
-413.398	800.000	0.037	-0.159
-412.384	-120.963	0.123	-0.021
-411.369	541.427	-0.030	-0.072
-410.355	87.250	0.170	0.188
-409.340	-83.119	-0.117	0.038
-408.325	-107.078	0.257	-0.057
-407.311	-71.595	-0.166	-0.062
-406.296	800.000	0.101	0.339
-405.282	-155.205	0.380	0.025
-404.267	-200.000	-0.053	-0.262
-403.252	-12.684	-0.119	0.078
-402.238	210.161	-0.117	0.183
-401.223	-49.707	-0.236	-0.112
-400.209	9.051	-0.219	0.166
-399.194	256.013	0.157	0.270
-398.179	-200.000	-0.015	-0.142
-397.165	110.043	0.052	-0.062
-396.150	-89.518	0.411	-0.121
-395.136	800.000	-0.058	-0.163
-394.121	-142.538	0.086	-0.008
-393.106	13.869	0.204	-0.159
-392.092	326.039	0.160	0.307
-391.077	16.226	-0.252	-0.199
-390.063	5.764	-0.296	-0.219
-389.048	-43.229	-0.027	-0.014
-388.033	-97.949	0.096	-0.025
-387.019	-134.321	0.565	-0.069
-386.004	-142.945	-0.179	0.017
-384.990	800.000	0.069	0.208
-383.975	-15.621	-0.362	-0.231
-382.960	-200.000	0.076	-0.348
-381.946	194.252	-0.177	0.269
-380.931	-200.000	-0.012	0.221
-379.917	-132.989	-0.181	-0.023
-378.902	800.000	0.026	0.079
-377.888	-177.066	0.303	-0.008
-376.873	540.103	0.068	-0.162
-375.858	126.164	-0.251	-0.317
-374.844	800.000	-0.035	-0.134
-373.829	-200.000	0.018	0.167
-372.815	23.281	0.056	-0.046
-371.800	319.353	0.054	0.102
-370.785	-65.973	0.176	0.070
-369.771	800.000	-0.111	-0.326
-368.756	-200.000	0.091	-0.455
-367.742	-145.032	0.070	0.006
-366.727	-25.446	0.120	0.071
-365.712	-3.146	-0.158	-0.110
-364.698	-200.000	-0.012	0.059
-363.683	-200.000	-0.005	-0.054
-362.669	800.000	-0.089	0.274
-361.654	800.000	-0.091	0.358
-360.639	-85.679	0.178	0.055
-359.625	-22.262	-0.097	0.059
-358.610	119.561	-0.126	-0.156
-357.596	800.000	0.011	0.046
-356.581	-20.536	0.089	0.055
-355.566	149.532	0.070	0.094
-354.552	800.000	-0.040	-0.144
-353.537	-74.992	0.190	-0.068
-352.523	-42.543	0.156	0.079
-351.508	-88.822	0.173	-0.051
-350.493	800.000	0.060	0.200
-349.479	271.226	-0.154	-0.271
-348.464	16.184	0.178	-0.141
-347.450	-200.000	0.046	0.306
-346.435	43.455	-0.131	-0.119
-345.420	-104.021	0.111	0.026
-344.406	549.171	-0.074	-0.177
-343.391	372.662	0.045	-0.091
-342.377	95.458	0.188	0.214
-341.362	-68.740	0.196	-0.076
-340.348	-61.781	-0.057	-0.024
-339.333	81.627	-0.160	0.173
-338.318	59.460	0.300	0.295
-337.304	800.000	-0.022	0.080
-336.289	143.234	0.045	0.059
-335.275	134.197	-0.085	0.110
-334.260	-106.453	0.261	0.058
-333.245	-154.161	-0.202	0.014
-332.231	-71.644	0.249	-0.093
-331.216	28.360	0.237	-0.200
-330.202	-69.765	-0.135	0.051
-329.187	73.437	0.156	-0.163
-328.172	-63.466	-0.136	0.056
-327.158	-145.215	0.059	0.005
-326.143	-200.000	0.036	-0.229
-325.129	-88.812	-0.319	-0.095
-324.114	-116.359	0.230	0.043
-323.099	126.260	-0.215	0.271
-322.085	-103.691	-0.235	-0.055
-321.070	260.952	0.182	0.314
-320.056	-72.209	-0.096	0.035
-319.041	-113.230	-0.325	-0.064
-318.026	-143.520	0.244	-0.023
-317.012	-21.304	-0.105	-0.064
-315.997	-12.520	-0.318	-0.208
-314.983	-75.190	-0.136	0.048
-313.968	297.325	0.089	0.162
-312.953	-157.695	-0.134	0.008
-311.939	-200.000	0.020	-0.130
-310.924	-117.392	-0.058	0.011
-309.910	-101.903	-0.220	-0.053
-308.895	-21.702	-0.079	0.048
-307.880	-38.118	0.207	-0.110
-306.866	800.000	0.070	0.240
-305.851	-59.072	0.161	0.069
-304.837	54.618	0.194	0.187
-303.822	-57.077	-0.181	-0.080
-302.807	-91.941	0.117	-0.033
-301.793	-143.652	-0.319	-0.030
-300.778	-200.000	-0.059	0.304
-299.764	800.000	0.105	-0.351
-298.749	800.000	0.118	-0.387
-297.735	-31.453	0.237	0.133
-296.720	-6.574	-0.176	0.120
-295.705	430.292	0.073	0.158
-294.691	800.000	0.095	0.325
-293.676	-15.477	-0.370	-0.236
-292.662	-45.815	0.161	-0.079
-291.647	-32.280	-0.163	0.091
-290.632	-53.918	-0.172	0.078
-289.618	-47.252	-0.308	0.150
-288.603	-200.000	-0.012	-0.325
-287.589	-12.968	0.153	-0.099
-286.574	800.000	-0.035	0.129
-285.559	-143.893	-0.251	-0.024
-284.545	-200.000	0.032	-0.293
-283.530	18.428	-0.143	0.114
-282.516	-109.913	0.171	-0.036
-281.501	-183.307	0.320	-0.006
-280.486	43.879	-0.110	-0.100
-279.472	-99.818	0.231	-0.058
-278.457	-113.027	0.161	0.032
-277.443	-200.000	-0.053	0.490
-276.428	-150.930	-0.124	0.009
-275.413	92.298	0.101	0.114
-274.399	247.980	0.180	0.303
-273.384	245.235	0.031	-0.051
-272.370	-10.637	0.066	0.044
-271.355	128.349	0.222	0.281
-270.340	-47.592	-0.119	-0.058
-269.326	175.441	0.050	-0.072
-268.311	381.552	-0.061	0.124
-267.297	-8.292	0.217	-0.145
-266.282	320.371	0.062	0.118
-265.267	-57.059	-0.216	0.095
-264.253	55.827	0.071	-0.068
-263.238	-101.017	-0.068	0.017
-262.224	63.778	-0.136	-0.136
-261.209	800.000	-0.083	0.260
-260.195	69.994	0.036	-0.037
-259.180	-200.000	0.006	0.379
-258.165	128.000	-0.113	0.143
-257.151	-127.842	0.149	0.021
-256.136	-200.000	-0.015	-0.224
-255.122	-93.194	-0.180	0.050
-254.107	-77.788	-0.469	-0.161
-253.092	-9.821	-0.111	0.074
-252.078	-200.000	-0.029	0.243
-251.063	716.886	-0.129	0.340
-250.049	28.415	-0.068	-0.057
-249.034	232.141	0.087	-0.143
-248.019	202.241	-0.136	-0.209
-247.005	-200.000	0.016	-0.099
-245.990	-88.032	0.179	-0.054
-244.976	-180.311	-0.117	0.002
-243.961	-45.506	-0.228	-0.112
-242.946	44.001	-0.131	-0.119
-241.932	312.403	-0.149	0.278
-240.917	800.000	0.072	-0.225
-239.903	-112.157	-0.458	-0.091
-238.888	67.060	-0.197	-0.200
-237.873	61.265	-0.142	0.141
-236.859	800.000	0.059	-0.176
-235.844	800.000	0.020	-0.055
-234.830	85.526	0.174	0.190
-233.815	367.213	0.115	0.231
-232.800	-4.017	0.085	0.059
-231.786	-59.889	0.097	-0.041
-230.771	-46.821	0.198	0.096
-229.757	800.000	0.044	0.166
-228.742	615.184	-0.077	-0.193
-227.727	135.788	0.157	0.203
-226.713	-120.798	-0.194	-0.033
-225.698	84.355	0.270	0.293
-224.684	79.535	0.245	0.262
-223.669	469.700	0.166	0.372
-222.655	-48.910	-0.116	-0.055
-221.640	-84.407	0.364	0.114
-220.625	-124.026	0.219	-0.034
-219.611	-22.462	0.355	0.213
-218.596	266.346	0.157	0.272
-217.582	-152.655	0.193	-0.014
-216.567	352.320	-0.098	0.193
-215.552	-26.837	-0.027	-0.016
-214.538	-181.762	-0.160	-0.003
-213.523	125.820	-0.166	0.209
-212.509	169.722	-0.094	-0.133
-211.494	-200.000	0.024	-0.121
-210.479	800.000	0.063	-0.195
-209.465	207.824	0.014	0.022
-208.450	-148.064	0.152	0.013
-207.436	49.657	0.101	-0.094
-206.421	35.241	-0.187	-0.163
-205.406	-79.379	0.214	-0.072
-204.392	-45.739	0.118	-0.058
-203.377	10.726	-0.065	-0.049
-202.363	800.000	0.038	-0.130
-201.348	-200.000	0.022	0.126
-200.333	-200.000	-0.021	0.247
-199.319	-101.929	0.170	-0.041
-198.304	60.600	0.093	0.092
-197.290	-70.940	0.189	0.071
-196.275	-15.641	0.332	0.210
-195.260	8.742	-0.222	-0.166
-194.246	-77.544	0.240	-0.083
-193.231	-43.236	-0.231	-0.116
-192.217	265.668	0.049	-0.085
-191.202	157.557	-0.202	-0.278
-190.187	-200.000	0.041	-0.343
-189.173	381.262	-0.031	-0.064
-188.158	-48.059	0.152	-0.073
-187.144	12.551	0.200	-0.153
-186.129	-56.701	-0.207	0.091
-185.114	274.334	0.143	0.252
-184.100	-200.000	-0.032	-0.172
-183.085	67.127	0.246	0.249
-182.071	60.686	-0.086	-0.085
-181.056	723.123	0.093	0.246
-180.042	329.000	0.027	0.052
-179.027	-45.323	0.357	0.176
-178.012	-62.695	-0.292	-0.120
-176.998	-78.913	-0.259	0.088
-175.983	200.230	-0.123	0.187
-174.969	5.928	-0.238	0.175
-173.954	-200.000	0.036	-0.194
-172.939	433.313	0.061	0.132
-171.925	-147.457	0.159	-0.013
-170.910	47.214	0.091	-0.084
-169.896	-200.000	-0.034	-0.169
-168.881	185.800	0.059	0.087
-167.866	800.000	0.009	0.026
-166.852	32.654	-0.085	-0.073
-165.837	800.000	0.047	0.135
-164.823	800.000	-0.050	0.184
-163.808	116.954	-0.131	0.159
-162.793	223.979	-0.088	-0.140
-161.779	-105.769	0.281	-0.063
-160.764	-44.773	-0.149	-0.074
-159.750	-129.496	-0.259	0.036
-158.735	25.081	-0.039	0.032
-157.720	41.319	0.299	0.268
-156.706	-120.384	0.066	-0.011
-155.691	251.460	0.098	0.166
-154.677	-86.674	0.175	-0.053
-153.662	136.734	0.181	-0.235
-152.647	-200.000	0.003	0.041
-151.633	-200.000	-0.044	0.456
-150.618	184.640	0.244	0.359
-149.604	-6.633	-0.066	0.045
-148.589	-38.176	0.238	-0.125
-147.574	224.651	-0.112	-0.180
-146.560	-200.000	0.041	-0.207
-145.545	213.175	-0.120	-0.188
-144.531	800.000	0.025	0.072
-143.516	-200.000	0.054	-0.311
-142.502	8.523	0.234	0.175
-141.487	96.107	0.253	-0.286
-140.472	91.623	-0.275	0.307
-139.458	73.005	-0.110	0.114
-138.443	-61.317	-0.197	-0.082
-137.429	-112.437	0.116	0.023
-136.414	-133.845	-0.215	0.027
-135.399	800.000	-0.019	0.057
-134.385	-200.000	-0.006	0.042
-133.370	800.000	-0.050	-0.190
-132.356	-109.610	-0.268	-0.056
-131.341	-25.259	-0.205	-0.120
-130.326	-83.110	0.110	-0.035
-129.312	-14.042	0.263	-0.168
-128.297	-149.712	-0.103	-0.008
-127.283	-134.091	-0.172	-0.021
-126.268	44.788	0.270	0.246
-125.253	77.978	0.143	-0.151
-124.239	119.675	0.081	0.100
-123.224	322.877	-0.081	0.154
-122.210	-200.000	-0.040	-0.416
-121.195	-98.239	0.087	0.022
-120.180	130.772	0.153	0.194
-119.166	3.519	-0.091	0.065
-118.151	-124.670	0.187	0.029
-117.137	134.008	0.120	-0.155
-116.122	-95.872	-0.179	-0.047
-115.107	592.317	-0.015	-0.037
-114.093	-100.724	0.017	-0.004
-113.078	-20.431	-0.060	0.036
-112.064	-82.206	-0.078	-0.025
-111.049	-73.993	-0.046	-0.017
-110.034	78.358	-0.056	-0.059
-109.020	0.667	-0.304	0.215
-108.005	-80.511	0.196	-0.065
-106.991	125.023	0.301	0.375
-105.976	713.027	0.042	0.111
-104.962	800.000	-0.058	0.187
-103.947	61.522	0.182	0.179
-102.932	-32.097	-0.236	-0.131
-101.918	222.734	0.163	0.261
-100.903	800.000	0.022	0.084
-99.889	-92.143	0.099	-0.028
-98.874	-2.964	-0.086	0.059
-97.859	45.624	0.123	0.112
-96.845	-200.000	0.003	0.305
-95.830	-29.421	0.026	0.015
-94.816	497.330	-0.055	-0.124
-93.801	-179.451	-0.316	-0.007
-92.786	157.687	0.147	0.202
-91.772	178.668	-0.108	-0.156
-90.757	-200.000	-0.036	0.178
-89.743	-200.000	-0.009	-0.042
-88.728	568.285	0.121	-0.292
-87.713	-200.000	-0.011	0.363
-86.699	430.327	0.116	0.248
-85.684	800.000	0.039	-0.147
-84.670	-121.661	-0.147	-0.024
-83.655	251.614	-0.164	-0.276
-82.640	245.064	0.139	0.231
-81.626	800.000	-0.064	0.220
-80.611	-103.787	-0.089	0.021
-79.597	205.444	0.061	-0.093
-78.582	-61.682	0.470	0.195
-77.567	42.206	0.184	0.165
-76.553	-29.927	0.309	0.174
-75.538	-130.737	-0.281	0.037
-74.524	-122.153	0.207	0.034
-73.509	-46.334	-0.244	-0.119
-72.494	-200.000	0.045	-0.365
-71.480	-165.432	-0.161	0.007
-70.465	82.369	0.182	0.195
-69.451	800.000	0.046	0.152
-68.436	-45.451	0.189	0.093
-67.422	-84.910	0.398	0.124
-66.407	800.000	0.115	-0.335
-65.392	145.300	0.069	-0.092
-64.378	-120.935	-0.103	0.017
-63.363	77.150	-0.033	0.035
-62.349	-77.502	-0.153	0.052
-61.334	147.089	-0.654	-0.870
-60.319	207.065	0.410	0.631
-59.305	408.309	-0.392	-0.820
-58.290	-200.000	0.179	0.779
-57.276	800.000	0.590	1.644
-56.261	-200.000	95.820	569.867
-55.246	551.685	1382.589	3279.860
-54.232	153.507	2576.365	3485.949
-53.217	115.905	2170.089	2623.956
-52.203	47.185	1627.250	1496.533
-51.188	38.989	1363.905	1204.298
-50.173	35.709	1321.253	1147.057
-49.159	56.826	1369.846	1317.975
-48.144	61.235	1388.123	1362.251
-47.130	39.195	1342.993	1186.889
-46.115	35.744	1324.269	1149.706
-45.100	35.563	1319.762	1144.668
-44.086	35.496	1317.248	1142.045
-43.071	35.317	1315.258	1139.209
-42.057	35.249	1313.609	1137.331
-41.042	35.345	1311.446	1135.982
-40.027	35.427	1309.681	1134.895
-39.013	35.369	1307.820	1132.894
-37.998	35.441	1305.907	1131.615
-36.984	35.590	1304.098	1130.881
-35.969	35.574	1302.470	1129.332
-34.954	35.540	1301.065	1127.869
-33.940	35.547	1299.525	1126.529
-32.925	35.552	1298.298	1125.450
-31.911	35.583	1296.842	1124.326
-30.896	35.669	1295.372	1123.509
-29.881	35.547	1294.459	1121.959
-28.867	35.723	1292.579	1121.315
-27.852	35.592	1291.337	1119.428
-26.838	35.672	1289.634	1118.374
-25.823	35.623	1288.871	1117.384
-24.809	35.648	1286.808	1115.696
-23.794	35.600	1285.866	1114.556
-22.779	35.577	1284.548	1113.231
-21.765	35.544	1283.415	1112.014
-20.750	35.539	1282.195	1110.885
-19.736	35.481	1280.590	1109.119
-18.721	35.458	1279.596	1108.079
-17.706	35.463	1278.099	1106.768
-16.692	35.500	1276.991	1105.975
-15.677	35.467	1276.227	1105.084
-14.663	35.454	1274.997	1103.898
-13.648	35.414	1273.796	1102.582
-12.633	35.452	1272.803	1101.902
-11.619	35.401	1272.014	1100.879
-10.604	35.475	1271.061	1100.435
-9.590	35.486	1269.838	1099.394
-8.575	35.426	1269.014	1098.295
-7.560	35.425	1267.954	1097.329
-6.546	35.485	1267.164	1096.943
-5.531	35.454	1266.350	1096.022
-4.517	35.509	1265.207	1095.303
-3.502	35.516	1264.589	1094.762
-2.487	35.454	1263.796	1093.679
-1.473	35.309	1260.039	1089.562
-0.458	33.619	1243.981	1066.141
0.556	27.385	1225.461	1022.983
1.571	23.029	1230.267	1002.271
2.586	21.814	1244.904	1007.127
3.600	21.253	1234.295	995.261
4.615	15.739	1159.744	905.463
5.629	5.670	1080.174	792.544
6.644	0.531	1057.705	750.489
7.659	-0.004	1055.431	746.155
8.673	-0.168	1054.520	744.630
9.688	-0.118	1052.817	743.611
10.702	0.168	1051.375	743.937
11.717	5.904	1059.875	778.398
12.731	15.019	1071.532	832.419
13.746	18.125	1074.136	849.832
14.761	17.014	1072.201	842.710
15.775	15.975	1069.726	835.539
16.790	14.880	1067.983	828.680
17.804	14.384	1065.965	824.587
18.819	13.908	1064.928	821.359
19.834	13.592	1064.144	819.119
20.848	13.390	1063.609	817.633
21.863	12.937	1063.013	814.868
22.877	12.919	1062.028	813.951
23.892	12.946	1060.887	813.138
24.907	12.793	1060.768	812.219
25.921	13.025	1059.972	812.684
26.936	13.020	1058.814	811.698
27.950	12.994	1057.881	810.782
28.965	13.128	1056.968	810.672
29.980	13.237	1055.264	809.823
30.994	13.177	1054.204	808.647
32.009	13.252	1053.775	808.612
33.023	13.103	1052.550	806.872
34.038	13.108	1051.588	806.088
35.053	13.166	1050.380	805.372
36.067	13.014	1050.213	804.434
37.082	13.092	1049.007	803.820
38.096	13.093	1048.556	803.407
39.111	13.168	1047.569	802.943
40.126	12.996	1046.673	801.353
41.140	12.971	1045.147	799.989
42.155	12.977	1043.934	799.019
43.169	12.947	1042.845	797.971
44.184	12.913	1042.473	797.450
45.199	12.928	1041.226	796.498
46.213	12.904	1040.383	795.668
47.228	12.952	1038.950	794.735
48.242	13.072	1038.125	794.608
49.257	12.971	1037.041	793.224
50.271	13.095	1036.232	793.129
51.286	13.172	1035.271	792.694
52.301	13.080	1034.203	791.367
53.315	13.134	1032.914	790.569
54.330	13.035	1032.142	789.432
55.344	12.933	1031.623	788.477
56.359	12.951	1030.801	787.866
57.374	12.931	1029.806	786.941
58.388	12.922	1028.705	785.988
59.403	12.852	1028.000	785.047
60.417	12.841	1027.280	784.373
61.432	12.946	1026.277	784.040
62.447	12.763	1025.647	782.617
63.461	12.921	1025.046	782.839
64.476	12.795	1023.897	781.297
65.490	12.910	1022.851	780.971
66.505	12.864	1022.176	780.170
67.520	12.930	1021.879	780.187
68.534	12.837	1021.326	779.256
69.549	12.875	1020.450	778.699
70.563	12.894	1019.387	777.910
71.578	12.804	1018.532	776.763
72.593	12.771	1018.133	776.233
73.607	12.761	1017.532	775.660
74.622	12.774	1016.818	775.111
75.636	12.769	1016.136	774.496
76.651	12.833	1015.064	773.911
77.666	12.712	1014.543	772.879
78.680	12.911	1013.849	773.217
79.695	12.848	1013.047	772.240
80.709	12.802	1012.797	771.765
81.724	12.807	1012.262	771.313
82.739	12.996	1011.164	771.292
83.753	13.056	1010.181	770.755
84.768	13.168	1009.494	770.685
85.782	13.024	1008.781	769.400
86.797	12.980	1007.987	768.523
87.812	12.945	1006.886	767.452
88.826	13.061	1005.834	767.117
89.841	13.036	1005.038	766.327
90.855	13.026	1004.334	765.678
91.870	13.056	1003.373	765.017
92.884	13.106	1002.604	764.595
93.899	13.144	1001.953	764.205
94.914	13.204	1000.910	763.619
95.928	13.202	999.898	762.772
96.943	13.224	999.336	762.375
97.957	12.966	998.951	760.825
98.972	13.108	997.784	760.525
99.987	13.066	996.886	759.580
101.001	13.016	996.280	758.821
102.016	13.175	995.110	758.591
103.030	13.138	994.337	757.766
104.045	13.118	993.595	757.040
105.060	13.023	992.724	755.876
106.074	12.964	991.804	754.838
107.089	13.057	990.675	754.335
108.103	12.975	989.376	752.906
109.118	12.914	989.142	752.382
110.133	12.900	988.117	751.475
111.147	12.965	987.409	751.165
112.162	13.009	986.594	750.679
113.176	13.003	985.921	750.074
114.191	13.024	985.273	749.610
115.206	13.085	984.149	748.963
116.220	12.921	983.798	747.885
117.235	13.018	982.864	747.551
118.249	13.054	981.945	746.950
119.264	13.042	980.731	745.905
120.279	12.841	980.625	744.850
121.293	12.927	979.381	744.228
122.308	12.883	978.880	743.581
123.322	13.050	977.477	743.204
124.337	13.064	976.280	742.288
125.352	13.067	975.288	741.481
126.366	12.918	973.987	739.760
127.381	12.924	973.549	739.389
128.395	12.916	972.818	738.734
129.410	13.000	971.522	738.061
130.424	13.068	970.762	737.722
131.439	13.105	970.250	737.432
132.454	13.110	969.527	736.840
133.468	13.067	968.726	735.973
134.483	13.135	967.967	735.633
135.497	13.205	966.850	735.031
136.512	13.115	965.784	733.757
137.527	13.141	965.271	733.415
138.541	13.024	964.698	732.400
139.556	13.193	963.795	732.398
140.570	13.166	962.835	731.481
141.585	13.154	962.110	730.812
142.600	13.217	961.428	730.511
143.614	13.389	959.801	729.969
144.629	13.311	959.520	729.346
145.643	13.226	958.895	728.433
146.658	13.196	958.030	727.577
147.673	13.139	956.876	726.386
148.687	13.220	955.913	725.946
149.702	13.102	955.283	724.887
150.716	13.177	954.110	724.261
151.731	13.070	953.523	723.281
152.746	13.160	952.636	722.939
153.760	13.293	952.239	723.158
154.775	13.242	951.709	722.466
155.789	13.314	950.830	722.049
156.804	13.320	949.947	721.340
157.819	13.304	949.694	721.014
158.833	13.227	949.044	720.123
159.848	13.336	948.138	719.847
160.862	13.307	947.116	718.882
161.877	13.384	946.092	718.372
162.892	13.320	945.343	717.462
163.906	13.261	944.611	716.588
164.921	13.377	943.504	716.189
165.935	13.369	942.365	715.225
166.950	13.271	941.655	714.201
167.964	13.339	941.037	713.960
168.979	13.365	940.191	713.368
169.994	13.354	939.400	712.659
171.008	13.378	938.524	712.035
172.023	13.360	937.895	711.418
173.037	13.367	937.411	711.016
174.052	13.420	936.513	710.501
175.067	13.321	935.700	709.396
176.081	13.432	935.074	709.335
177.096	13.474	934.602	709.091
178.110	13.366	934.071	708.164
179.125	13.585	932.863	708.121
180.140	13.451	932.882	707.500
181.154	13.619	932.036	707.513
182.169	13.590	931.718	707.086
183.183	13.544	931.037	706.311
184.198	13.646	930.317	706.139
185.213	13.537	929.694	705.140
186.227	13.475	929.175	704.419
187.242	13.716	927.956	704.454
188.256	13.757	927.385	704.133
189.271	13.683	926.726	703.257
190.286	13.439	926.493	701.985
191.300	13.499	925.346	701.306
192.315	13.372	925.008	700.451
193.329	13.356	924.557	699.980
194.344	13.510	923.460	699.740
195.359	13.622	922.960	699.771
196.373	13.590	922.655	699.341
197.388	13.750	922.083	699.523
198.402	13.773	921.221	698.901
199.417	13.796	920.900	698.695
200.432	13.809	920.483	698.369
201.446	13.777	919.896	697.730
202.461	13.974	919.010	697.824
203.475	13.905	918.558	697.126
204.490	13.696	918.079	695.826
205.504	13.844	916.813	695.423
206.519	13.828	916.344	694.940
207.534	13.832	915.726	694.425
208.548	13.821	915.043	693.799
209.563	13.815	914.452	693.268
210.577	13.869	913.456	692.675
211.592	13.843	912.869	692.060
212.607	13.997	912.211	692.144
213.621	13.965	911.384	691.321
214.636	14.032	910.338	690.744
215.650	14.028	910.176	690.542
216.665	13.990	909.343	689.693
217.680	14.115	908.708	689.668
218.694	14.086	907.957	688.915
219.709	13.949	908.136	688.423
220.723	14.123	906.859	688.115
221.738	14.080	906.016	687.239
222.753	14.209	905.452	687.284
223.767	14.233	905.070	687.029
224.782	14.292	904.329	686.650
225.796	14.374	903.884	686.588
226.811	14.201	903.422	685.465
227.826	14.082	902.760	684.413
228.840	14.081	901.947	683.730
229.855	14.201	900.835	683.321
230.869	14.075	900.328	682.358
231.884	14.145	899.514	681.970
232.899	14.206	898.919	681.707
233.913	14.172	898.067	680.860
234.928	14.120	897.316	680.020
235.942	14.280	896.967	680.346
236.957	14.263	896.597	679.939
237.972	14.194	895.970	679.121
238.986	14.256	894.839	678.454
240.001	14.048	894.664	677.416
241.015	14.244	893.500	677.269
242.030	14.208	893.350	676.951
243.045	14.334	892.440	676.714
244.059	14.290	892.249	676.331
245.074	14.363	891.567	676.051
246.088	14.302	891.133	675.412
247.103	14.445	889.951	675.037
248.117	14.514	889.619	675.004
249.132	14.457	889.073	674.298
250.147	14.559	888.456	674.183
251.161	14.644	887.915	674.060
252.176	14.706	887.135	673.658
253.190	14.604	886.877	672.989
254.205	14.774	885.932	672.896
255.220	14.729	885.564	672.377
256.234	14.678	885.000	671.685
257.249	14.688	884.347	671.171
258.263	14.701	883.261	670.338
259.278	14.732	882.545	669.861
260.293	14.690	882.253	669.411
261.307	14.897	881.523	669.628
262.322	14.819	881.014	668.868
263.336	14.985	880.018	668.719
264.351	14.931	879.156	667.789
265.366	14.825	879.094	667.260
266.380	14.921	878.071	666.805
267.395	14.885	877.608	666.252
268.409	14.861	876.763	665.457
269.424	14.915	875.985	665.020
270.439	14.930	875.176	664.406
271.453	14.797	874.387	663.223
272.468	14.864	874.440	663.469
273.482	14.887	873.710	662.948
274.497	14.856	872.974	662.207
275.512	14.960	872.173	661.952
276.526	14.913	872.228	661.751
277.541	14.929	871.472	661.181
278.555	15.069	871.140	661.426
279.570	14.967	870.549	660.512
280.585	15.110	869.476	660.206
281.599	15.073	868.477	659.241
282.614	14.911	868.140	658.292
283.628	14.885	867.755	657.837
284.643	15.148	866.711	658.020
285.657	15.103	866.205	657.402
286.672	14.988	865.755	656.554
287.687	15.079	865.368	656.556
288.701	15.096	864.801	656.137
289.716	15.216	863.723	655.731
290.730	15.093	863.531	655.046
291.745	15.270	862.705	655.051
292.760	15.253	862.166	654.516
293.774	15.400	861.395	654.450
294.789	15.355	860.912	653.848
295.803	15.358	859.702	652.884
296.818	15.183	859.301	651.841
297.833	15.311	858.302	651.521
298.847	15.281	858.030	651.140
299.862	15.326	857.404	650.782
300.876	15.391	856.829	650.543
301.891	15.310	856.472	649.899
302.906	15.501	855.611	649.928
303.920	15.376	855.418	649.239
304.935	15.623	854.572	649.493
305.949	15.647	854.214	649.256
306.964	15.443	853.707	648.026
307.979	15.603	852.767	647.875
308.993	15.624	852.225	647.487
310.008	15.663	851.696	647.176
311.022	15.514	851.225	646.187
312.037	15.472	850.840	645.677
313.052	15.563	849.938	645.285
314.066	15.561	849.280	644.719
315.081	15.510	848.968	644.231
316.095	15.583	848.373	644.002
317.110	15.420	847.891	642.956
318.125	15.548	847.404	643.019
319.139	15.484	847.149	642.522
320.154	15.441	846.413	641.745
321.168	15.663	845.847	642.106
322.183	15.517	845.485	641.218
323.197	15.632	845.054	641.271
324.212	15.737	844.386	641.107
325.227	15.571	843.590	639.817
326.241	15.574	843.106	639.404
327.256	15.716	842.537	639.457
328.270	15.595	841.959	638.499
329.285	15.692	841.310	638.319
330.300	15.604	841.044	637.726
331.314	15.670	840.310	637.364
332.329	15.749	839.957	637.338
333.343	15.764	839.269	636.819
334.358	15.649	839.120	636.215
335.373	15.696	838.924	636.188
336.387	15.775	838.386	636.021
337.402	15.709	838.290	635.643
338.416	15.813	837.776	635.587
339.431	15.883	837.314	635.447
340.446	15.883	836.635	634.875
341.460	15.987	836.693	635.254
342.475	16.073	835.946	634.956
343.489	16.055	835.336	634.369
344.504	16.043	835.200	634.164
345.519	16.122	834.588	633.939
346.533	16.128	833.914	633.396
347.548	16.127	833.428	632.965
348.562	15.860	833.123	631.675
349.577	15.938	832.488	631.432
350.592	16.058	831.953	631.418
351.606	16.110	831.103	630.912
352.621	16.157	830.208	630.351
353.635	16.099	829.935	629.874
354.650	15.974	829.157	628.760
355.665	16.037	828.994	628.817
356.679	16.010	828.230	628.080
357.694	16.259	827.438	628.352
358.708	16.199	826.629	627.459
359.723	16.209	826.049	626.999
360.738	16.056	825.819	626.201
361.752	16.240	825.041	626.239
362.767	16.260	824.284	625.681
363.781	16.439	823.709	625.855
364.796	16.330	823.390	625.153
365.810	16.416	822.952	625.085
366.825	16.414	822.819	624.918
367.840	16.499	822.115	624.643
368.854	16.371	821.997	624.025
369.869	16.479	821.204	623.769
370.883	16.342	820.837	622.927
371.898	16.402	820.287	622.676
372.913	16.567	819.771	622.839
373.927	16.278	819.884	621.803
374.942	16.467	819.284	621.988
375.956	16.584	818.934	622.097
376.971	16.612	818.600	621.894
377.986	16.704	817.970	621.698
379.000	16.828	817.372	621.643
380.015	16.641	816.810	620.476
381.029	16.699	816.012	620.025
382.044	16.730	815.654	619.811
383.059	16.683	815.395	619.390
384.073	16.662	814.870	618.859
385.088	16.769	813.868	618.432
386.102	16.654	813.683	617.818
387.117	16.688	812.770	617.194
388.132	16.636	812.446	616.703
389.146	16.616	812.123	616.330
390.161	16.886	811.118	616.497
391.175	16.751	811.111	615.944
392.190	16.827	810.081	615.383
393.205	16.781	809.810	614.956
394.219	16.686	809.808	614.557
395.234	16.756	809.144	614.252
396.248	16.654	808.868	613.618
397.263	16.780	808.250	613.551
398.278	16.699	807.791	612.857
399.292	16.771	807.586	612.905
400.307	16.786	807.012	612.470
401.321	16.786	806.426	611.973
402.336	16.743	806.465	611.794
403.350	16.744	805.769	611.215
404.365	16.905	805.294	611.379
405.380	17.037	804.535	611.226
406.394	16.887	804.514	610.613
407.409	17.064	803.788	610.648
408.423	17.027	803.594	610.313
409.438	17.052	802.876	609.802
410.453	17.263	802.263	610.040
411.467	17.132	802.169	609.445
412.482	17.113	801.831	609.066
413.496	17.344	801.400	609.511
414.511	17.266	801.107	608.956
415.526	17.299	800.814	608.797
416.540	17.144	800.309	607.805
417.555	17.233	799.631	607.554
418.569	17.193	799.579	607.320
419.584	17.436	798.477	607.295
420.599	17.332	798.181	606.644
421.613	102.891	1282.752	1437.926
422.628	88.257	1353.366	1438.019
