DTS Sentinel unit serial number:	SN413079Multiplexer serial number:	ORYXHardware model number:	OX4-SRSoftware version number:	ORYX F/W v4.00 Oryx Data Collector v3.7.2.0data status	okinstallation	princeton_trtdifferential loss correction	single-endedforward channel	channel 1reverse channel	N/Adate	2019/09/17time	04:42:35forward acquisition time	60.00reverse acquisition time	0.00gamma	496.2192k internal	0.2324k external	0.2324temperature offset calibration	0.9958default loss term (dB/km)	0.3790temperature slope calibration	1.0000multiplexer offset coefficient	1.0000multiplexer slope coefficient	1.0000fibre end	0.00T internal ref (°C)	29.62T ext. ref 1 (°C)	0.13T ext. ref 2 (°C)	24.04length (m)	temperature (°C)	Stokes	anti-Stokes-747.200	-88.527	0.218	0.066
-746.185	-96.983	0.232	-0.061
-745.171	71.722	-0.166	0.174
-744.156	370.918	-0.136	0.279
-743.142	-123.079	0.184	0.030
-742.127	-69.416	-0.156	-0.061
-741.112	-121.506	0.285	-0.048
-740.098	800.000	0.099	0.311
-739.083	-200.000	0.013	0.281
-738.069	-181.198	-0.127	0.003
-737.054	-117.371	-0.129	0.024
-736.039	-38.091	-0.330	-0.177
-735.025	170.518	0.076	0.110
-734.010	-57.627	-0.285	-0.126
-732.996	-99.197	0.051	-0.013
-731.981	-161.642	-0.175	-0.009
-730.966	278.409	0.016	0.029
-729.952	-200.000	-0.033	0.222
-728.937	780.869	-0.143	0.396
-727.923	-13.028	-0.276	0.181
-726.908	476.818	-0.065	-0.149
-725.894	46.223	-0.164	0.154
-724.879	800.000	-0.037	-0.150
-723.864	24.350	-0.105	0.087
-722.850	-19.612	-0.204	0.127
-721.835	343.929	0.148	0.294
-720.821	-88.781	-0.169	-0.051
-719.806	-200.000	0.069	0.359
-718.791	-200.000	-0.006	0.157
-717.777	-200.000	-0.007	-0.110
-716.762	109.145	-0.149	-0.180
-715.748	75.701	-0.269	0.287
-714.733	-141.831	-0.099	-0.010
-713.718	-68.973	0.210	0.082
-712.704	-84.556	-0.079	-0.025
-711.689	-189.952	-0.430	-0.005
-710.675	28.146	0.047	-0.040
-709.660	1.173	-0.046	-0.033
-708.645	-105.672	-0.319	0.073
-707.631	-200.000	-0.034	0.226
-706.616	121.713	-0.231	0.290
-705.602	21.718	-0.114	-0.093
-704.587	-200.000	0.033	0.256
-703.572	520.594	0.070	-0.165
-702.558	56.595	0.179	-0.175
-701.543	513.751	-0.136	0.321
-700.529	-200.000	0.011	-0.154
-699.514	-112.731	0.084	-0.017
-698.499	-200.000	-0.012	-0.157
-697.485	800.000	-0.040	-0.141
-696.470	-200.000	0.004	-0.075
-695.456	-161.400	-0.100	0.005
-694.441	732.482	-0.076	-0.205
-693.426	73.357	0.039	-0.041
-692.412	65.983	-0.069	0.071
-691.397	59.903	-0.126	0.126
-690.383	-76.372	-0.337	-0.119
-689.368	-16.939	0.318	-0.202
-688.354	83.937	-0.180	-0.199
-687.339	-34.907	0.138	0.076
-686.324	800.000	-0.022	0.069
-685.310	56.438	0.049	-0.048
-684.295	-131.348	-0.048	0.006
-683.281	170.615	-0.151	0.218
-682.266	159.317	-0.130	-0.182
-681.251	256.591	-0.169	-0.293
-680.237	370.831	0.135	0.275
-679.222	-160.544	0.141	0.008
-678.208	-101.535	0.345	0.085
-677.193	-45.847	-0.149	-0.074
-676.178	800.000	-0.055	0.180
-675.164	247.411	-0.170	-0.289
-674.149	-200.000	-0.013	-0.065
-673.135	441.658	0.070	-0.155
-672.120	573.418	0.041	0.101
-671.105	-84.904	-0.030	-0.010
-670.091	58.584	-0.350	-0.346
-669.076	527.713	0.121	-0.288
-668.062	141.343	0.229	-0.306
-667.047	-200.000	0.017	0.359
-666.032	-108.323	0.076	0.016
-665.018	-29.870	-0.213	-0.122
-664.003	467.078	-0.172	-0.388
-662.989	-79.527	0.140	0.047
-661.974	-200.000	0.030	0.232
-660.959	-121.903	-0.297	0.049
-659.945	-200.000	-0.000	0.032
-658.930	-28.515	0.162	-0.094
-657.916	-200.000	-0.053	-0.299
-656.901	700.400	0.083	0.220
-655.886	800.000	-0.039	0.165
-654.872	-200.000	-0.039	0.352
-653.857	-200.000	0.015	-0.322
-652.843	128.053	-0.177	-0.227
-651.828	242.413	-0.021	-0.036
-650.814	-65.776	-0.074	-0.030
-649.799	37.068	-0.037	-0.033
-648.784	643.398	0.067	0.173
-647.770	-51.192	0.125	0.059
-646.755	-200.000	0.028	-0.483
-645.741	590.681	-0.082	-0.203
-644.726	56.998	-0.137	0.134
-643.711	44.346	0.395	0.365
-642.697	-10.295	0.216	0.144
-641.682	-33.347	0.081	-0.045
-640.668	244.493	-0.210	-0.354
-639.653	-200.000	-0.039	-0.278
-638.638	-200.000	-0.010	-0.128
-637.624	-200.000	0.007	0.433
-636.609	-56.467	-0.383	-0.171
-635.595	-0.452	-0.484	-0.346
-634.580	-200.000	-0.032	0.287
-633.565	108.016	0.325	-0.389
-632.551	229.305	-0.093	-0.152
-631.536	800.000	-0.153	-0.438
-630.522	-77.455	-0.355	-0.124
-629.507	-102.614	-0.171	-0.041
-628.492	19.995	-0.212	-0.172
-627.478	43.734	-0.107	0.098
-626.463	-200.000	-0.019	-0.196
-625.449	-200.000	0.011	0.126
-624.434	6.447	-0.255	0.191
-623.419	-142.853	0.156	0.015
-622.405	358.686	-0.104	-0.209
-621.390	-73.822	-0.322	-0.118
-620.376	469.811	0.037	0.083
-619.361	-29.967	-0.423	0.242
-618.346	-142.824	0.299	0.029
-617.332	-123.016	-0.240	-0.039
-616.317	-200.000	-0.165	0.000
-615.303	800.000	0.084	0.352
-614.288	800.000	0.082	-0.335
-613.273	56.374	0.327	-0.319
-612.259	51.814	-0.169	0.161
-611.244	18.611	-0.124	0.100
-610.230	213.598	0.130	-0.206
-609.215	-8.134	0.192	-0.130
-608.201	298.915	0.003	-0.006
-607.186	-91.152	-0.174	-0.050
-606.171	-133.690	0.282	-0.035
-605.157	-25.752	-0.117	-0.069
-604.142	-77.682	0.137	-0.047
-603.128	65.405	0.070	0.071
-602.113	471.773	0.032	-0.073
-601.098	23.821	0.130	0.108
-600.084	287.932	0.148	-0.268
-599.069	62.770	0.314	-0.315
-598.055	-102.714	0.236	0.056
-597.040	800.000	-0.012	0.035
-596.025	536.998	0.083	-0.199
-595.011	-47.342	0.272	-0.133
-593.996	800.000	-0.077	-0.336
-592.982	800.000	-0.058	-0.207
-591.967	59.504	-0.087	0.086
-590.952	62.713	-0.136	0.137
-589.938	4.925	0.027	-0.020
-588.923	-200.000	-0.018	0.222
-587.909	800.000	-0.075	-0.240
-586.894	-185.938	-0.069	0.001
-585.879	196.545	0.145	-0.221
-584.865	-92.056	0.153	0.043
-583.850	82.343	0.185	-0.201
-582.836	-13.432	0.284	-0.185
-581.821	-200.000	0.005	-0.029
-580.806	184.927	-0.117	0.173
-579.792	24.553	-0.166	0.138
-578.777	-154.855	0.242	0.016
-577.763	-200.000	0.030	-0.412
-576.748	-40.241	-0.199	0.104
-575.733	98.242	-0.194	0.224
-574.719	-200.000	0.015	0.131
-573.704	-117.016	0.116	0.021
-572.690	-200.000	-0.030	-0.319
-571.675	-37.274	0.221	0.119
-570.661	-96.968	0.064	-0.017
-569.646	-55.262	0.170	0.077
-568.631	340.448	-0.073	-0.143
-567.617	628.272	0.067	-0.171
-566.602	50.771	0.203	-0.193
-565.588	161.987	0.073	0.102
-564.573	2.519	0.214	-0.155
-563.558	-155.093	0.079	0.005
-562.544	-42.650	0.213	0.109
-561.529	207.566	0.159	0.249
-560.515	-97.997	-0.194	-0.050
-559.500	272.481	0.116	0.205
-558.485	800.000	0.087	0.317
-557.471	685.502	-0.089	-0.232
-556.456	-68.604	0.076	0.030
-555.442	-186.316	0.327	-0.005
-554.427	-200.000	0.041	-0.381
-553.412	185.452	-0.101	-0.150
-552.398	205.721	-0.210	-0.327
-551.383	125.818	0.303	0.384
-550.369	3.262	0.183	-0.134
-549.354	168.300	-0.163	-0.232
-548.339	-200.000	0.001	0.218
-547.325	150.865	-0.282	0.384
-546.310	51.245	-0.198	0.189
-545.296	-23.766	-0.102	0.061
-544.281	-179.390	-0.196	-0.004
-543.266	-59.074	-0.263	-0.114
-542.252	-200.000	-0.021	-0.118
-541.237	-131.701	0.336	0.044
-540.223	247.938	-0.102	-0.173
-539.208	28.488	0.200	0.170
-538.193	800.000	-0.094	0.328
-537.179	-9.451	0.124	-0.083
-536.164	120.459	0.056	0.069
-535.150	87.500	0.247	0.274
-534.135	800.000	-0.019	0.057
-533.121	-200.000	0.023	-0.143
-532.106	-71.116	-0.279	0.105
-531.091	-69.068	0.264	0.102
-530.077	452.692	0.104	-0.230
-529.062	-116.793	-0.428	-0.079
-528.048	-51.038	0.157	-0.074
-527.033	-98.503	-0.407	-0.104
-526.018	800.000	0.033	0.106
-525.004	117.702	0.085	-0.105
-523.989	1.578	0.118	0.085
-522.975	-77.737	0.428	0.148
-521.960	-176.714	-0.134	-0.003
-520.945	-200.000	0.000	-0.017
-519.931	-12.288	0.097	0.064
-518.916	-33.820	0.033	-0.018
-517.902	126.673	0.114	-0.144
-516.887	-200.000	0.012	0.414
-515.872	-40.345	0.327	0.170
-514.858	92.184	-0.193	-0.218
-513.843	149.712	0.051	0.069
-512.829	90.704	-0.169	0.189
-511.814	78.727	0.230	0.246
-510.799	299.707	0.062	0.114
-509.785	22.285	0.076	-0.062
-508.770	-91.936	-0.349	-0.099
-507.756	-81.935	-0.351	0.115
-506.741	-200.000	-0.034	0.156
-505.726	-200.000	0.002	0.034
-504.712	-200.000	-0.014	-0.066
-503.697	348.498	-0.132	0.260
-502.683	-148.345	0.148	0.012
-501.668	-135.362	-0.225	-0.027
-500.653	-200.000	-0.067	0.326
-499.639	800.000	-0.120	0.407
-498.624	-105.492	-0.055	0.012
-497.610	-200.000	-0.013	-0.123
-496.595	-200.000	-0.020	0.279
-495.581	343.321	-0.109	0.214
-494.566	-97.627	0.168	-0.043
-493.551	-118.389	-0.200	-0.035
-492.537	53.506	-0.041	0.039
-491.522	445.475	-0.053	0.117
-490.508	-151.914	0.183	0.013
-489.493	29.462	-0.244	0.207
-488.478	-200.000	0.011	0.179
-487.464	800.000	-0.016	0.057
-486.449	-4.747	0.196	-0.135
-485.435	-200.000	0.036	0.391
-484.420	170.927	0.057	-0.082
-483.405	113.722	-0.072	0.088
-482.391	-91.481	0.138	0.039
-481.376	-9.853	0.133	-0.089
-480.362	458.162	0.125	-0.278
-479.347	660.351	-0.145	-0.374
-478.332	-139.439	-0.160	0.017
-477.318	-52.861	-0.029	-0.013
-476.303	-200.000	0.023	-0.295
-475.289	-200.000	-0.032	-0.209
-474.274	466.748	-0.133	-0.297
-473.259	74.044	-0.247	-0.259
-472.245	211.551	0.144	0.226
-471.230	-167.408	0.204	-0.008
-470.216	213.659	-0.054	0.086
-469.201	-155.889	0.124	-0.008
-468.186	131.617	-0.191	0.245
-467.172	-200.000	0.032	0.220
-466.157	192.487	-0.077	-0.117
-465.143	254.599	-0.135	-0.231
-464.128	219.288	0.055	-0.087
-463.113	137.827	0.028	-0.036
-462.099	-200.000	0.068	-0.475
-461.084	-11.296	0.227	-0.149
-460.070	-90.271	0.151	0.044
-459.055	23.699	0.086	0.070
-458.040	-200.000	0.084	-0.487
-457.026	800.000	-0.103	-0.383
-456.011	-127.253	-0.455	0.066
-454.997	-123.932	0.326	-0.051
-453.982	800.000	-0.041	-0.162
-452.968	68.037	0.268	-0.274
-451.953	-88.420	-0.007	0.002
-450.938	-141.224	0.419	-0.043
-449.924	462.607	-0.091	0.204
-448.909	800.000	0.110	0.318
-447.895	-31.984	-0.261	-0.146
-446.880	25.092	-0.104	-0.086
-445.865	4.635	-0.237	-0.173
-444.851	-106.932	-0.152	0.034
-443.836	-200.000	0.033	0.196
-442.822	-74.515	-0.298	0.107
-441.807	103.010	0.112	-0.131
-440.792	800.000	-0.114	0.324
-439.778	-200.000	-0.009	0.059
-438.763	788.579	-0.101	0.276
-437.749	-200.000	0.063	0.303
-436.734	135.121	-0.154	-0.200
-435.719	296.823	-0.164	0.300
-434.705	-68.697	0.024	0.009
-433.690	322.503	-0.134	-0.255
-432.676	25.557	-0.257	-0.213
-431.661	331.179	-0.059	-0.113
-430.646	-23.382	-0.312	0.187
-429.632	-149.285	0.308	0.024
-428.617	95.242	0.227	0.258
-427.603	31.411	-0.240	0.206
-426.588	-4.838	-0.051	0.035
-425.573	-200.000	0.037	0.163
-424.559	-200.000	0.013	-0.117
-423.544	-108.970	0.063	0.013
-422.530	800.000	0.066	0.261
-421.515	241.176	-0.174	0.289
-420.500	37.925	-0.024	-0.021
-419.486	15.322	-0.212	0.166
-418.471	-200.000	0.011	-0.262
-417.457	154.706	0.064	-0.088
-416.442	22.877	-0.143	-0.117
-415.428	16.733	0.078	-0.061
-414.413	-111.618	-0.189	0.038
-413.398	116.835	-0.198	0.243
-412.384	-166.281	0.290	-0.012
-411.369	-198.546	0.239	0.001
-410.355	-189.485	-0.549	0.006
-409.340	-27.626	-0.100	-0.058
-408.325	-167.397	-0.200	0.008
-407.311	-99.660	0.301	0.075
-406.296	800.000	0.075	-0.214
-405.282	246.196	0.137	-0.229
-404.267	388.569	-0.083	0.170
-403.252	-9.949	-0.180	-0.119
-402.238	220.556	0.068	-0.109
-401.223	-94.906	-0.179	0.048
-400.209	-135.303	-0.245	0.029
-399.194	800.000	-0.084	-0.270
-398.179	-68.460	0.375	0.145
-397.165	-33.546	0.193	-0.106
-396.150	25.618	-0.067	0.056
-395.136	800.000	0.076	-0.270
-394.121	52.608	-0.181	-0.172
-393.106	-81.896	0.178	-0.058
-392.092	800.000	-0.108	-0.310
-391.077	-200.000	-0.025	-0.195
-390.063	800.000	-0.020	-0.063
-389.048	-147.245	0.119	0.010
-388.033	-200.000	-0.033	-0.231
-387.019	800.000	-0.086	0.304
-386.004	519.232	0.050	-0.116
-384.990	-153.124	0.291	-0.020
-383.975	-113.887	-0.213	0.041
-382.960	3.192	-0.178	-0.129
-381.946	536.409	0.086	0.202
-380.931	-200.000	-0.016	0.222
-379.917	27.373	-0.124	0.104
-378.902	-200.000	-0.053	0.237
-377.888	-109.746	0.352	-0.074
-376.873	-96.606	-0.283	0.074
-375.858	-135.885	-0.283	0.033
-374.844	-107.205	0.451	0.099
-373.829	113.322	0.188	-0.227
-372.815	-200.000	-0.007	0.257
-371.800	-128.829	-0.288	0.040
-370.785	161.009	0.097	0.135
-369.771	-58.574	0.422	-0.182
-368.756	-200.000	-0.017	-0.107
-367.742	-96.405	0.103	0.027
-366.727	7.496	0.256	-0.190
-365.712	214.736	-0.071	0.112
-364.698	140.637	-0.123	-0.162
-363.683	198.583	-0.183	0.279
-362.669	-7.810	0.199	0.134
-361.654	-200.000	0.028	0.146
-360.639	-44.451	0.253	-0.126
-359.625	-159.320	-0.165	-0.009
-358.610	-48.730	-0.386	0.184
-357.596	-17.265	0.078	-0.049
-356.581	175.229	0.082	0.119
-355.566	203.473	-0.130	-0.201
-354.552	38.101	0.037	0.033
-353.537	83.774	0.281	-0.305
-352.523	216.765	0.153	0.242
-351.508	45.869	-0.160	0.147
-350.493	-200.000	-0.004	0.324
-349.479	-106.607	-0.443	-0.098
-348.464	97.353	-0.214	-0.244
-347.450	-8.386	-0.147	0.098
-346.435	-70.155	0.248	-0.094
-345.420	-43.539	0.235	0.118
-344.406	800.000	-0.057	-0.221
-343.391	-59.057	0.006	0.003
-342.377	49.061	0.053	-0.050
-341.362	107.823	0.166	-0.197
-340.348	-200.000	0.032	-0.360
-339.333	68.454	-0.042	0.043
-338.318	51.967	-0.194	0.184
-337.304	-200.000	-0.097	-0.450
-336.289	19.456	0.091	0.073
-335.275	-85.710	0.095	-0.029
-334.260	65.933	-0.035	0.035
-333.245	175.020	0.139	-0.200
-332.231	201.769	0.140	-0.214
-331.216	-88.677	0.261	0.077
-330.202	122.724	-0.143	-0.178
-329.187	111.567	0.119	-0.142
-328.172	-25.647	-0.211	0.124
-327.158	-57.960	0.271	0.117
-326.143	561.453	-0.031	0.075
-325.129	-200.000	0.013	0.299
-324.114	37.331	-0.086	-0.076
-323.099	-47.096	-0.174	-0.084
-322.085	800.000	-0.064	0.191
-321.070	-97.248	0.286	-0.074
-320.056	-60.885	-0.188	0.079
-319.041	800.000	-0.084	0.244
-318.026	14.395	-0.043	-0.033
-317.012	-200.000	-0.008	0.471
-315.997	746.267	0.112	0.300
-314.983	49.822	-0.136	0.127
-313.968	241.521	0.041	-0.068
-312.953	-80.500	-0.190	0.063
-311.939	-98.630	-0.229	-0.058
-310.924	-109.222	-0.245	0.052
-309.910	599.181	0.152	0.375
-308.895	-112.367	-0.134	0.027
-307.880	222.631	-0.194	0.310
-306.866	800.000	0.024	-0.076
-305.851	-200.000	-0.021	-0.258
-304.837	800.000	-0.063	0.200
-303.822	-200.000	0.023	-0.145
-302.807	-127.252	0.289	-0.042
-301.793	-42.377	0.271	-0.137
-300.778	-200.000	0.062	-0.455
-299.764	-3.814	0.313	0.215
-298.749	46.929	0.070	0.064
-297.735	143.302	0.069	-0.091
-296.720	-106.721	0.035	-0.008
-295.705	-153.663	-0.150	-0.010
-294.691	800.000	0.088	-0.315
-293.676	242.108	0.083	-0.138
-292.662	684.829	-0.007	0.019
-291.647	-168.048	-0.108	0.004
-290.632	800.000	0.093	-0.279
-289.618	-186.320	0.361	-0.005
-288.603	30.778	-0.354	0.300
-287.589	34.569	0.165	0.143
-286.574	-200.000	0.029	0.294
-285.559	163.496	0.182	0.254
-284.545	32.726	-0.014	0.012
-283.530	144.600	0.182	-0.240
-282.516	27.421	0.254	-0.212
-281.501	24.423	-0.180	-0.147
-280.486	-177.728	0.217	-0.005
-279.472	213.786	-0.105	-0.164
-278.457	290.026	-0.271	0.487
-277.443	-29.554	-0.088	0.050
-276.428	17.757	-0.121	0.095
-275.413	800.000	-0.038	0.120
-274.399	-118.878	0.173	-0.030
-273.384	266.265	0.158	0.273
-272.370	92.367	-0.214	0.239
-271.355	46.785	-0.057	-0.053
-270.340	-200.000	0.065	0.293
-269.326	9.546	0.280	0.210
-268.311	-6.111	-0.224	0.151
-267.297	-200.000	-0.032	0.182
-266.282	23.449	0.082	-0.067
-265.267	-15.842	0.205	-0.130
-264.253	-200.000	0.023	-0.237
-263.238	35.536	-0.253	-0.220
-262.224	-200.000	0.003	0.409
-261.209	73.824	-0.172	0.178
-260.195	9.584	0.098	-0.074
-259.180	-103.751	0.269	-0.062
-258.165	152.233	-0.034	-0.046
-257.151	-200.000	0.005	0.070
-256.136	-200.000	-0.047	-0.209
-255.122	42.826	0.438	-0.395
-254.107	-39.672	0.358	0.185
-253.092	-198.128	-0.405	-0.002
-252.078	-99.558	0.126	0.031
-251.063	102.632	-0.088	0.102
-250.049	389.602	0.094	0.193
-249.034	29.966	-0.199	0.168
-248.019	-100.618	0.552	0.135
-247.005	-63.117	0.184	0.075
-245.990	-77.199	-0.193	-0.067
-244.976	-165.332	-0.313	-0.014
-243.961	-70.325	0.079	-0.030
-242.946	-116.785	-0.138	0.025
-241.932	494.245	-0.137	-0.312
-240.917	-140.988	-0.305	-0.031
-239.903	114.901	0.149	-0.179
-238.888	111.490	0.103	-0.123
-237.873	-200.000	-0.033	-0.167
-236.859	-1.999	0.302	0.210
-235.844	-200.000	0.065	0.357
-234.830	-63.793	0.108	0.044
-233.815	14.761	0.203	-0.157
-232.800	748.886	0.040	-0.106
-231.786	-147.800	0.350	-0.029
-230.771	-42.620	0.179	-0.090
-229.757	427.655	-0.086	0.184
-228.742	174.645	-0.047	0.068
-227.727	12.476	0.238	-0.182
-226.713	197.380	-0.068	0.103
-225.698	143.812	-0.048	-0.063
-224.684	-92.069	0.185	0.052
-223.669	16.184	0.164	0.128
-222.655	25.542	-0.251	-0.207
-221.640	-150.924	0.159	-0.012
-220.625	-10.073	0.063	0.041
-219.611	180.251	0.170	-0.246
-218.596	363.585	-0.105	0.209
-217.582	-196.841	-0.071	-0.000
-216.567	-40.291	-0.143	0.074
-215.552	-78.849	0.351	0.118
-214.538	-200.000	0.023	0.142
-213.523	497.545	-0.067	-0.153
-212.509	-26.596	-0.042	-0.024
-211.494	-31.038	-0.222	-0.124
-210.479	-71.598	0.267	-0.099
-209.465	-66.240	-0.032	0.013
-208.450	451.053	0.035	-0.077
-207.436	56.559	-0.366	-0.352
-206.421	-32.916	-0.148	0.081
-205.406	800.000	-0.044	-0.182
-204.392	-77.466	0.223	0.076
-203.377	236.358	-0.194	0.317
-202.363	-17.131	0.227	0.141
-201.348	-97.508	-0.158	0.040
-200.333	-125.312	-0.391	0.059
-199.319	-200.000	0.044	-0.390
-198.304	353.350	-0.034	-0.066
-197.290	800.000	0.066	-0.283
-196.275	-142.514	0.177	-0.017
-195.260	-196.247	-0.198	-0.001
-194.246	69.983	-0.181	0.184
-193.231	64.222	0.206	0.205
-192.217	-8.439	-0.160	-0.106
-191.202	16.568	0.159	-0.124
-190.187	-141.572	-0.188	0.019
-189.173	126.835	-0.299	0.375
-188.158	398.850	-0.176	-0.364
-187.144	127.323	-0.193	-0.242
-186.129	800.000	0.061	0.191
-185.114	-200.000	0.005	0.088
-184.100	129.895	0.176	0.222
-183.085	56.706	0.097	-0.093
-182.071	426.452	0.079	0.168
-181.056	-164.864	-0.319	-0.014
-180.042	122.287	-0.035	0.043
-179.027	-78.618	0.272	0.092
-178.012	-7.082	-0.135	0.091
-176.998	-18.707	0.120	0.074
-175.983	800.000	-0.103	-0.326
-174.969	128.798	-0.141	0.177
-173.954	3.295	0.053	-0.038
-172.939	-11.745	0.128	0.083
-171.925	-103.903	0.118	-0.027
-170.910	-200.000	-0.052	0.442
-169.896	108.291	-0.239	0.282
-168.881	8.293	0.170	0.126
-167.866	48.315	-0.106	0.098
-166.852	146.480	-0.159	0.211
-165.837	7.118	-0.185	0.136
-164.823	660.776	-0.035	0.088
-163.808	21.251	0.133	-0.107
-162.793	105.960	0.300	0.350
-161.779	-200.000	0.029	-0.209
-160.764	-45.401	-0.222	0.109
-159.750	104.073	0.027	0.032
-158.735	-90.274	0.195	-0.056
-157.720	102.096	-0.242	-0.279
-156.706	-200.000	-0.051	-0.230
-155.691	78.181	0.268	0.282
-154.677	-200.000	0.011	-0.200
-153.662	-10.030	-0.099	-0.065
-152.647	347.593	-0.158	-0.306
-151.633	-129.694	-0.366	0.050
-150.618	52.246	0.094	0.088
-149.604	-33.855	0.209	-0.113
-148.589	496.960	-0.066	-0.150
-147.574	-200.000	0.021	-0.244
-146.560	132.013	0.083	-0.106
-145.545	390.536	0.118	-0.241
-144.531	800.000	0.038	0.165
-143.516	800.000	-0.048	-0.155
-142.502	-115.089	0.258	-0.048
-141.487	800.000	-0.029	0.079
-140.472	32.693	0.105	0.090
-139.458	398.831	-0.095	-0.196
-138.443	-98.304	0.181	0.046
-137.429	-200.000	-0.014	0.089
-136.414	11.241	0.084	-0.064
-135.399	641.213	0.088	-0.221
-134.385	295.184	-0.044	-0.079
-133.370	-200.000	0.006	0.146
-132.356	37.327	-0.193	0.169
-131.341	-200.000	0.066	0.323
-130.326	134.710	0.259	0.331
-129.312	-200.000	-0.018	0.339
-128.297	-63.823	0.212	-0.086
-127.283	-13.003	-0.063	0.040
-126.268	-124.807	-0.168	0.026
-125.253	-164.015	-0.360	0.016
-124.239	800.000	-0.036	0.101
-123.224	-80.641	-0.226	-0.074
-122.210	141.621	0.207	-0.270
-121.195	-200.000	0.023	0.222
-120.180	354.895	0.075	-0.147
-119.166	-200.000	-0.039	0.195
-118.151	-71.200	-0.205	0.076
-117.137	-200.000	0.028	-0.239
-116.122	-43.208	0.251	-0.125
-115.107	800.000	0.041	-0.115
-114.093	-200.000	-0.066	0.421
-113.078	-103.484	0.217	0.050
-112.064	58.004	0.123	0.119
-111.049	800.000	0.015	-0.056
-110.034	-129.380	-0.342	-0.047
-109.020	86.867	-0.155	-0.169
-108.005	356.160	-0.128	0.250
-106.991	-137.448	0.188	0.021
-105.976	203.938	0.167	-0.255
-104.962	293.531	-0.162	0.292
-103.947	203.870	-0.083	-0.126
-102.932	-39.421	-0.114	0.059
-101.918	800.000	0.052	0.157
-100.903	800.000	0.091	0.272
-99.889	-200.000	-0.042	0.251
-98.874	221.708	0.091	0.144
-97.859	-86.191	0.406	-0.123
-96.845	340.744	-0.142	0.272
-95.830	-66.977	0.165	-0.064
-94.816	92.563	-0.053	-0.059
-93.801	800.000	-0.069	0.202
-92.786	113.883	0.165	-0.197
-91.772	151.510	0.097	-0.130
-90.757	788.921	-0.034	-0.093
-89.743	-118.585	0.238	0.041
-88.728	-137.443	-0.126	-0.014
-87.713	8.062	0.184	0.136
-86.699	-38.838	0.336	0.174
-85.684	24.257	-0.127	0.104
-84.670	-178.124	0.261	-0.006
-83.655	-26.860	0.138	-0.079
-82.640	-200.000	0.053	0.310
-81.626	-190.104	0.652	-0.007
-80.611	-200.000	0.022	0.291
-79.597	800.000	0.086	0.363
-78.582	63.836	-0.042	0.041
-77.567	-99.809	0.028	-0.007
-76.553	-200.000	0.110	0.496
-75.538	-200.000	0.031	0.186
-74.524	46.710	-0.172	0.157
-73.509	-24.106	-0.476	0.280
-72.494	-193.335	-0.136	-0.001
-71.480	59.568	0.252	0.245
-70.465	800.000	-0.099	0.328
-69.451	191.348	-0.068	0.101
-68.436	800.000	0.035	-0.148
-67.422	650.444	-0.052	-0.130
-66.407	-60.072	-0.098	0.041
-65.392	225.756	0.091	0.145
-64.378	-130.432	0.215	0.029
-63.363	-39.817	0.368	0.189
-62.349	-0.892	0.180	0.125
-61.334	170.432	-0.949	-1.335
-60.319	-5.517	0.656	0.442
-59.305	800.000	-0.402	-1.337
-58.290	308.837	0.705	1.295
-57.276	800.000	0.587	1.691
-56.261	-200.000	108.473	591.764
-55.246	445.477	1483.153	3201.717
-54.232	146.220	2667.107	3517.439
-53.217	105.940	2160.725	2512.845
-52.203	41.014	1609.314	1427.928
-51.188	33.107	1348.609	1148.748
-50.173	30.051	1307.810	1095.908
-49.159	54.002	1361.499	1286.070
-48.144	54.246	1377.360	1302.471
-47.130	33.204	1332.102	1135.086
-46.115	29.805	1314.614	1099.971
-45.100	29.576	1309.964	1094.681
-44.086	29.520	1307.143	1091.948
-43.071	29.396	1305.187	1089.536
-42.057	29.505	1302.524	1087.914
-41.042	29.485	1301.186	1086.632
-40.027	29.469	1299.684	1085.241
-39.013	29.523	1297.376	1083.588
-37.998	29.592	1295.222	1082.153
-36.984	29.501	1293.977	1080.535
-35.969	29.572	1292.433	1079.617
-34.954	29.628	1290.596	1078.369
-33.940	29.547	1289.930	1077.300
-32.925	29.595	1288.165	1076.059
-31.911	29.792	1286.161	1075.488
-30.896	29.679	1285.204	1073.991
-29.881	29.699	1283.793	1072.884
-28.867	29.758	1282.239	1071.883
-27.852	29.753	1280.908	1070.698
-26.838	29.790	1279.527	1069.718
-25.823	29.750	1278.132	1068.277
-24.809	29.704	1276.969	1066.995
-23.794	29.697	1275.725	1065.875
-22.779	29.696	1274.574	1064.867
-21.765	29.717	1272.838	1063.492
-20.750	29.720	1271.919	1062.700
-19.736	29.624	1270.707	1061.092
-18.721	29.629	1269.172	1059.798
-17.706	29.569	1268.353	1058.731
-16.692	29.689	1266.640	1057.942
-15.677	29.577	1266.244	1056.932
-14.663	29.594	1264.892	1055.855
-13.648	29.573	1263.761	1054.753
-12.633	29.588	1262.902	1054.080
-11.619	29.594	1262.033	1053.344
-10.604	29.523	1261.350	1052.328
-9.590	29.560	1260.190	1051.532
-8.575	29.543	1258.880	1050.300
-7.560	29.591	1258.653	1050.341
-6.546	29.565	1257.005	1048.776
-5.531	29.558	1256.132	1047.968
-4.517	29.623	1255.436	1047.712
-3.502	29.631	1254.372	1046.826
-2.487	29.504	1254.090	1045.830
-1.473	29.467	1249.901	1042.086
-0.458	28.142	1234.470	1021.787
0.556	22.749	1218.000	983.907
1.571	18.953	1223.629	967.060
2.586	18.065	1238.792	973.900
3.600	18.009	1227.477	964.602
4.615	13.235	1154.537	881.788
5.629	4.608	1078.752	780.674
6.644	0.430	1059.095	745.753
7.659	0.041	1056.507	741.946
8.673	0.053	1055.833	741.465
9.688	-0.003	1054.498	740.186
10.702	0.221	1052.522	739.834
11.717	5.473	1059.109	770.312
12.731	13.790	1070.469	819.744
13.746	17.331	1074.406	840.213
14.761	16.909	1073.351	837.235
15.775	15.941	1071.256	830.751
16.790	14.899	1069.125	823.896
17.804	14.174	1068.096	819.457
18.819	13.951	1066.867	817.349
19.834	13.615	1065.726	814.748
20.848	13.320	1064.741	812.477
21.863	13.116	1063.785	810.673
22.877	12.981	1063.318	809.581
23.892	13.086	1062.097	809.095
24.907	13.058	1061.431	808.377
25.921	13.095	1061.055	808.201
26.936	13.127	1059.841	807.361
27.950	13.107	1059.214	806.715
28.965	13.113	1058.221	805.919
29.980	13.175	1056.961	805.188
30.994	13.313	1055.441	804.633
32.009	13.167	1055.014	803.524
33.023	13.280	1053.828	803.100
34.038	13.221	1052.857	802.002
35.053	13.300	1051.831	801.533
36.067	13.110	1051.182	800.047
37.082	13.240	1050.187	799.849
38.096	13.199	1050.125	799.532
39.111	13.168	1049.440	798.788
40.126	13.215	1047.486	797.459
41.140	13.016	1046.662	795.798
42.155	13.028	1045.325	794.771
43.169	12.919	1044.389	793.467
44.184	13.083	1043.210	793.285
45.199	13.088	1042.501	792.701
46.213	12.978	1041.710	791.503
47.228	13.112	1040.354	791.044
48.242	13.047	1039.536	790.042
49.257	13.109	1038.714	789.644
50.271	13.191	1037.328	788.909
51.286	13.156	1036.679	788.179
52.301	13.078	1035.402	786.770
53.315	13.030	1034.671	785.914
54.330	13.020	1033.752	785.101
55.344	13.198	1032.562	784.972
56.359	13.154	1031.852	784.152
57.374	13.016	1031.335	783.035
58.388	12.939	1030.487	781.957
59.403	13.052	1029.085	781.359
60.417	13.051	1028.446	780.801
61.432	13.000	1027.954	780.117
62.447	12.973	1027.374	779.481
63.461	12.980	1026.008	778.406
64.476	12.846	1025.470	777.300
65.490	12.851	1024.540	776.548
66.505	13.036	1023.587	776.627
67.520	12.921	1023.219	775.738
68.534	13.004	1022.646	775.627
69.549	13.044	1021.979	775.240
70.563	12.974	1021.011	774.107
71.578	12.835	1020.250	772.814
72.593	12.755	1019.829	772.051
73.607	12.925	1019.009	772.159
74.622	12.907	1018.141	771.345
75.636	12.953	1017.233	770.807
76.651	12.948	1016.318	770.020
77.666	12.874	1016.237	769.545
78.680	12.923	1015.233	768.946
79.695	12.968	1014.925	768.852
80.709	12.953	1014.268	768.218
81.724	13.039	1013.745	768.155
82.739	12.966	1012.936	767.134
83.753	13.131	1012.331	767.375
84.768	13.136	1011.219	766.485
85.782	13.202	1010.210	765.959
86.797	13.139	1009.112	764.768
87.812	13.122	1008.215	763.944
88.826	13.019	1007.381	762.768
89.841	13.128	1006.765	762.736
90.855	13.248	1005.605	762.344
91.870	13.255	1004.848	761.735
92.884	13.231	1004.019	760.928
93.899	13.331	1002.673	760.302
94.914	13.401	1002.120	760.136
95.928	13.110	1001.561	758.307
96.943	13.292	1000.557	758.316
97.957	13.197	1000.172	757.522
98.972	13.163	998.728	756.203
99.987	13.266	997.900	755.980
101.001	13.426	996.466	755.562
102.016	13.253	995.853	754.239
103.030	13.135	995.828	753.616
104.045	13.289	994.278	753.075
105.060	13.294	993.913	752.754
106.074	13.159	992.634	751.108
107.089	13.071	991.621	749.872
108.103	13.291	990.421	749.898
109.118	13.174	989.577	748.660
110.133	13.079	989.222	747.899
111.147	12.977	988.256	746.640
112.162	13.123	987.240	746.467
113.176	13.132	986.723	746.049
114.191	13.193	986.109	745.796
115.206	13.180	985.313	745.067
116.220	13.126	984.280	743.979
117.235	13.092	983.572	743.225
118.249	13.050	982.817	742.397
119.264	13.151	981.663	741.915
120.279	13.141	981.126	741.400
121.293	13.034	980.457	740.348
122.308	13.005	979.541	739.458
123.322	13.008	978.601	738.700
124.337	13.099	977.606	738.287
125.352	12.997	976.458	736.903
126.366	13.143	975.240	736.569
127.381	12.984	974.450	735.200
128.395	13.100	973.207	734.710
129.410	13.202	972.603	734.645
130.424	13.135	971.629	733.545
131.439	13.126	971.101	733.044
132.454	13.225	970.264	732.785
133.468	13.239	969.242	732.008
134.483	13.212	968.687	731.408
135.497	13.245	967.522	730.607
136.512	13.238	966.326	729.608
137.527	13.206	965.820	729.020
138.541	13.203	965.398	728.624
139.556	13.188	964.802	728.047
140.570	13.210	963.931	727.421
141.585	13.360	962.892	727.230
142.600	13.375	961.866	726.456
143.614	13.397	961.060	725.880
144.629	13.350	960.748	725.373
145.643	13.308	959.371	724.089
146.658	13.310	958.544	723.408
147.673	13.259	957.621	722.425
148.687	13.224	957.010	721.748
149.702	13.287	955.859	721.092
150.716	13.239	955.562	720.593
151.731	13.343	954.148	719.917
152.746	13.337	953.848	719.600
153.760	13.348	953.157	719.060
154.775	13.310	953.440	719.047
155.789	13.359	952.373	718.390
156.804	13.382	951.321	717.634
157.819	13.380	950.985	717.309
158.833	13.495	949.985	716.989
159.848	13.645	949.007	716.836
160.862	13.492	948.064	715.399
161.877	13.389	947.354	714.357
162.892	13.343	946.440	713.406
163.906	13.493	945.276	713.112
164.921	13.355	944.635	711.969
165.935	13.387	944.038	711.594
166.950	13.440	943.300	711.202
167.964	13.450	942.293	710.425
168.979	13.545	941.314	710.031
169.994	13.598	940.377	709.488
171.008	13.444	939.852	708.368
172.023	13.500	939.295	708.125
173.037	13.546	938.418	707.601
174.052	13.499	937.730	706.819
175.067	13.529	937.267	706.533
176.081	13.461	936.530	705.626
177.096	13.492	936.225	705.464
178.110	13.589	935.393	705.191
179.125	13.547	934.720	704.441
180.140	13.577	934.413	704.274
181.154	13.550	933.983	703.773
182.169	13.654	933.653	703.902
183.183	13.672	932.957	703.394
184.198	13.687	932.045	702.705
185.213	13.653	931.138	701.815
186.227	13.747	930.262	701.494
187.242	13.754	929.817	701.125
188.256	13.733	929.298	700.580
189.271	13.706	928.501	699.805
190.286	13.566	927.862	698.670
191.300	13.604	926.943	698.078
192.315	13.475	926.610	697.223
193.329	13.515	926.168	696.995
194.344	13.638	925.702	697.100
195.359	13.740	924.667	696.688
196.373	13.765	923.927	696.173
197.388	13.748	924.040	696.127
198.402	13.844	923.389	695.975
199.417	13.948	922.305	695.535
200.432	13.951	921.828	695.126
201.446	13.958	921.599	694.922
202.461	13.924	921.217	694.427
203.475	14.043	919.770	693.771
204.490	14.008	919.491	693.356
205.504	13.994	918.507	692.493
206.519	14.116	917.584	692.245
207.534	13.987	917.579	691.643
208.548	13.952	916.629	690.718
209.563	13.978	916.049	690.329
210.577	14.063	915.407	690.138
211.592	14.068	914.605	689.491
212.607	14.119	913.415	688.747
213.621	14.059	912.984	688.111
214.636	14.089	912.430	687.757
215.650	14.156	911.641	687.377
216.665	14.055	911.030	686.439
217.680	14.198	910.007	686.199
218.694	14.206	909.695	685.933
219.709	14.062	909.459	685.103
220.723	14.095	908.514	684.465
221.738	14.232	907.639	684.308
222.753	14.191	907.114	683.683
223.767	14.285	906.328	683.417
224.782	14.424	905.928	683.625
225.796	14.304	905.367	682.651
226.811	14.433	904.205	682.241
227.826	14.243	904.229	681.422
228.840	14.168	903.652	680.619
229.855	14.233	902.201	679.732
230.869	14.269	901.938	679.621
231.884	14.385	900.740	679.131
232.899	14.327	900.276	678.486
233.913	14.286	899.416	677.610
234.928	14.243	899.230	677.233
235.942	14.245	898.419	676.573
236.957	14.272	897.765	676.128
237.972	14.198	897.306	675.425
238.986	14.195	896.720	674.910
240.001	14.310	896.137	674.877
241.015	14.410	894.965	674.339
242.030	14.458	894.135	673.848
243.045	14.395	894.004	673.435
244.059	14.416	893.622	673.173
245.074	14.440	892.852	672.633
246.088	14.467	891.863	671.935
247.103	14.506	891.227	671.554
248.117	14.501	891.034	671.328
249.132	14.603	890.489	671.270
250.147	14.510	890.185	670.605
251.161	14.610	889.356	670.322
252.176	14.805	888.124	670.118
253.190	14.756	887.857	669.661
254.205	14.813	886.966	669.160
255.220	14.822	886.198	668.556
256.234	14.857	885.755	668.301
257.249	14.797	884.995	667.431
258.263	14.864	884.334	667.140
259.278	14.858	883.669	666.557
260.293	14.909	883.136	666.297
261.307	14.878	883.242	666.196
262.322	14.961	881.979	665.515
263.336	14.969	881.218	664.912
264.351	14.928	880.538	664.176
265.366	15.045	879.743	663.985
266.380	14.909	879.812	663.438
267.395	15.012	878.735	662.974
268.409	14.956	877.760	661.958
269.424	14.939	877.268	661.461
270.439	15.127	876.581	661.628
271.453	14.829	876.298	660.181
272.468	15.005	875.257	660.029
273.482	15.056	874.551	659.642
274.497	15.004	874.231	659.136
275.512	14.961	873.542	658.389
276.526	15.013	873.274	658.332
277.541	15.156	872.672	658.383
278.555	15.148	872.378	658.072
279.570	15.240	871.443	657.668
280.585	15.203	870.603	656.832
281.599	15.101	870.225	656.089
282.614	15.223	868.941	655.541
283.628	15.112	868.570	654.770
284.643	15.227	868.250	654.918
285.657	15.184	867.698	654.277
286.672	15.330	866.624	653.977
287.687	15.220	866.605	653.477
288.701	15.308	865.869	653.206
289.716	15.255	865.059	652.332
290.730	15.350	864.316	652.084
291.745	15.274	863.878	651.401
292.760	15.271	863.649	651.157
293.774	15.474	862.877	651.306
294.789	15.406	861.881	650.235
295.803	15.442	861.104	649.728
296.818	15.290	860.641	648.732
297.833	15.275	860.382	648.425
298.847	15.291	859.822	648.005
299.862	15.609	858.998	648.555
300.876	15.501	858.428	647.649
301.891	15.448	858.144	647.174
302.906	15.620	856.857	646.811
303.920	15.544	857.129	646.665
304.935	15.546	856.383	646.053
305.949	15.638	855.472	645.663
306.964	15.611	855.005	645.146
307.979	15.620	854.216	644.531
308.993	15.669	853.934	644.449
310.008	15.717	853.168	643.996
311.022	15.636	853.019	643.515
312.037	15.558	852.247	642.578
313.052	15.445	851.772	641.733
314.066	15.714	851.052	642.162
315.081	15.588	850.710	641.364
316.095	15.563	849.897	640.599
317.110	15.591	849.160	640.093
318.125	15.665	848.491	639.813
319.139	15.789	847.735	639.661
320.154	15.589	847.978	639.026
321.168	15.585	847.288	638.433
322.183	15.684	846.707	638.315
323.197	15.770	846.331	638.302
324.212	15.729	845.572	637.517
325.227	15.786	844.853	637.136
326.241	15.709	844.421	636.460
327.256	15.807	843.615	636.167
328.270	15.731	843.246	635.545
329.285	15.698	842.739	634.982
330.300	15.552	842.418	634.135
331.314	15.767	841.636	634.299
332.329	15.807	841.251	634.103
333.343	15.776	840.848	633.627
334.358	15.876	840.130	633.406
335.373	15.817	839.935	632.984
336.387	15.984	839.376	633.131
337.402	15.995	839.288	633.052
338.416	16.159	838.981	633.380
339.431	16.026	838.927	632.784
340.446	15.972	838.465	632.175
341.460	16.075	837.761	631.977
342.475	15.999	837.497	631.437
343.489	16.081	837.016	631.323
344.504	16.239	836.102	631.171
345.519	16.236	835.857	630.917
346.533	16.118	835.541	630.183
347.548	16.090	834.742	629.419
348.562	16.154	834.351	629.307
349.577	16.112	833.838	628.711
350.592	16.155	833.200	628.331
351.606	16.060	832.769	627.597
352.621	16.108	832.113	627.228
353.635	16.070	831.411	626.502
354.650	16.231	830.601	626.434
355.665	16.165	830.131	625.778
356.679	16.290	829.606	625.792
357.694	16.282	829.022	625.266
358.708	16.343	828.027	624.685
359.723	16.217	827.836	624.019
360.738	16.231	827.409	623.696
361.752	16.220	826.650	623.025
362.767	16.342	825.901	622.856
363.781	16.436	825.516	622.856
364.796	16.486	825.101	622.672
365.810	16.457	824.589	622.125
366.825	16.453	824.667	622.116
367.840	16.679	823.738	622.190
368.854	16.523	823.118	621.095
369.869	16.525	822.725	620.747
370.883	16.654	822.330	620.869
371.898	16.684	821.676	620.431
372.913	16.681	821.439	620.185
373.927	16.541	821.094	619.356
374.942	16.589	820.733	619.204
375.956	16.712	820.318	619.288
376.971	16.772	819.777	619.042
377.986	16.832	819.304	618.849
379.000	16.873	818.821	618.580
380.015	16.824	818.402	618.032
381.029	16.809	817.375	617.147
382.044	16.792	817.422	617.066
383.059	16.825	816.691	616.578
384.073	16.765	816.342	616.042
385.088	16.830	815.540	615.618
386.102	16.715	814.962	614.710
387.117	16.651	814.485	614.064
388.132	16.827	813.883	614.194
389.146	16.942	813.129	613.989
390.161	16.902	812.973	613.670
391.175	16.845	812.378	612.961
392.190	16.916	811.725	612.671
393.205	16.765	811.333	611.776
394.219	16.797	810.705	611.363
395.234	16.853	810.611	611.439
396.248	16.712	810.373	610.697
397.263	16.788	810.054	610.676
398.278	16.920	809.133	610.405
399.292	16.852	808.867	609.904
400.307	16.858	808.331	609.469
401.321	16.751	808.116	608.868
402.336	16.913	807.456	608.897
403.350	16.932	807.146	608.678
404.365	17.072	806.720	608.804
405.380	17.080	806.129	608.334
406.394	17.012	805.506	607.568
407.409	17.273	804.838	607.945
408.423	17.176	804.853	607.552
409.438	17.232	804.595	607.506
410.453	17.198	803.780	606.713
411.467	17.180	803.558	606.431
412.482	17.306	803.302	606.632
413.496	17.210	802.830	605.879
414.511	17.337	802.535	606.056
415.526	17.320	801.942	605.495
416.540	17.365	801.611	605.350
417.555	17.318	800.964	604.642
418.569	17.226	800.986	604.279
419.584	17.311	800.231	603.956
420.599	17.345	799.631	603.572
421.613	108.989	1292.652	1469.578
422.628	93.759	1364.466	1469.689
