DTS Sentinel unit serial number:	SN413079Multiplexer serial number:	ORYXHardware model number:	OX4-SRSoftware version number:	ORYX F/W v4.00 Oryx Data Collector v3.7.2.0data status	okinstallation	princeton_trtdifferential loss correction	single-endedforward channel	channel 1reverse channel	N/Adate	2019/09/15time	22:02:35forward acquisition time	60.00reverse acquisition time	0.00gamma	496.2192k internal	0.2330k external	0.2330temperature offset calibration	0.9965default loss term (dB/km)	0.3790temperature slope calibration	1.0000multiplexer offset coefficient	1.0000multiplexer slope coefficient	1.0000fibre end	0.00T internal ref (°C)	29.81T ext. ref 1 (°C)	8.55T ext. ref 2 (°C)	22.90length (m)	temperature (°C)	Stokes	anti-Stokes-747.200	-76.766	-0.195	0.069
-746.185	152.974	-0.105	0.144
-745.171	113.014	-0.129	-0.157
-744.156	450.481	0.068	0.152
-743.142	-142.272	0.275	-0.027
-742.127	-40.212	-0.215	0.113
-741.112	800.000	0.099	0.382
-740.098	800.000	-0.066	0.187
-739.083	164.171	-0.178	0.252
-738.069	-200.000	-0.027	0.347
-737.054	800.000	0.121	-0.394
-736.039	-41.638	-0.108	0.056
-735.025	-25.194	0.258	0.154
-734.010	636.804	-0.106	-0.270
-732.996	64.295	-0.328	-0.333
-731.981	-65.038	-0.307	0.125
-730.966	-200.000	-0.023	0.188
-729.952	32.669	-0.185	0.161
-728.937	-200.000	0.009	-0.078
-727.923	-135.054	-0.344	-0.042
-726.908	321.972	0.098	0.187
-725.894	800.000	-0.078	-0.282
-724.879	-16.472	-0.138	-0.088
-723.864	800.000	-0.062	-0.229
-722.850	90.765	0.120	-0.135
-721.835	141.973	-0.146	0.195
-720.821	73.744	0.136	-0.144
-719.806	59.882	-0.177	-0.175
-718.791	-94.627	0.332	-0.091
-717.777	-37.340	-0.173	0.093
-716.762	-200.000	0.022	0.236
-715.748	-200.000	-0.030	-0.283
-714.733	-167.066	-0.341	-0.014
-713.718	160.129	-0.038	0.053
-712.704	-200.000	-0.007	-0.036
-711.689	-200.000	-0.022	0.281
-710.675	-96.734	-0.148	0.039
-709.660	-200.000	0.003	0.307
-708.645	12.576	-0.182	-0.142
-707.631	-146.192	-0.075	0.007
-706.616	47.536	-0.009	0.008
-705.602	185.251	-0.047	0.070
-704.587	10.854	-0.153	0.118
-703.572	-200.000	-0.001	0.067
-702.558	45.886	-0.113	-0.105
-701.543	191.752	-0.117	0.177
-700.529	232.567	0.042	-0.069
-699.514	-43.576	-0.113	0.057
-698.499	789.849	0.094	0.260
-697.485	46.643	-0.080	-0.074
-696.470	-200.000	0.015	-0.256
-695.456	-21.272	0.138	-0.085
-694.441	-174.327	0.321	0.009
-693.426	633.137	0.014	0.037
-692.412	272.961	-0.080	0.142
-691.397	16.631	-0.328	-0.261
-690.383	119.956	0.244	-0.304
-689.368	-42.101	-0.396	-0.203
-688.354	220.022	0.179	-0.288
-687.339	65.945	-0.111	-0.113
-686.324	-47.584	-0.251	-0.122
-685.310	5.326	0.156	0.115
-684.295	-157.833	-0.399	0.024
-683.281	800.000	0.062	0.269
-682.266	-49.579	-0.233	-0.111
-681.251	-68.290	-0.058	0.023
-680.237	800.000	0.124	-0.406
-679.222	-138.694	0.205	-0.022
-678.208	-70.576	0.063	0.024
-677.193	374.540	-0.160	-0.327
-676.178	800.000	0.109	-0.324
-675.164	-200.000	-0.043	-0.191
-674.149	-99.946	-0.401	0.100
-673.135	16.225	-0.305	-0.242
-672.120	-52.657	-0.349	0.162
-671.105	-120.735	-0.196	0.033
-670.091	227.799	-0.152	-0.248
-669.076	384.267	0.016	-0.032
-668.062	207.757	0.037	-0.057
-667.047	-200.000	-0.011	-0.295
-666.032	800.000	-0.116	-0.347
-665.018	137.850	0.063	-0.082
-664.003	-109.406	0.138	-0.029
-662.989	800.000	-0.012	0.034
-661.974	-84.982	-0.327	0.103
-660.959	-200.000	-0.015	0.253
-659.945	90.302	-0.092	0.104
-658.930	61.541	-0.327	0.326
-657.916	134.748	0.092	-0.119
-656.901	-200.000	-0.000	-0.055
-655.886	19.007	0.154	0.124
-654.872	-105.682	-0.238	0.054
-653.857	138.389	-0.176	-0.231
-652.843	-14.350	-0.175	-0.113
-651.828	29.726	-0.055	0.047
-650.814	-15.067	0.326	-0.209
-649.799	548.074	0.050	-0.119
-648.784	-200.000	-0.019	-0.134
-647.770	440.200	-0.066	0.145
-646.755	-200.000	-0.023	-0.265
-645.741	-26.956	0.385	-0.226
-644.726	19.304	-0.266	-0.214
-643.711	-102.320	-0.223	0.054
-642.697	-200.000	0.024	-0.108
-641.682	-12.664	0.067	-0.044
-640.668	-33.608	0.324	0.179
-639.653	-200.000	0.047	0.215
-638.638	99.996	-0.149	-0.173
-637.624	-178.001	0.219	-0.005
-636.609	476.073	0.067	0.153
-635.595	10.906	-0.145	0.111
-634.580	-166.655	0.273	-0.011
-633.565	-76.694	0.371	0.130
-632.551	-56.719	-0.099	0.044
-631.536	155.393	0.126	-0.174
-630.522	-200.000	0.015	-0.254
-629.507	54.502	0.050	0.049
-628.492	800.000	0.100	0.353
-627.478	52.199	-0.193	0.184
-626.463	-133.597	-0.219	-0.028
-625.449	206.504	0.073	0.114
-624.434	-200.000	0.019	-0.239
-623.419	-200.000	-0.004	-0.027
-622.405	-29.563	-0.278	0.159
-621.390	571.525	-0.168	-0.409
-620.376	16.023	0.251	-0.198
-619.361	-62.742	0.108	-0.045
-618.346	-164.873	-0.101	-0.005
-617.332	295.996	-0.215	-0.395
-616.317	91.212	0.125	-0.140
-615.303	800.000	-0.059	-0.243
-614.288	-70.734	0.173	0.066
-613.273	-97.252	0.288	0.075
-612.259	-128.346	-0.337	0.048
-611.244	800.000	0.133	-0.424
-610.230	800.000	0.015	0.044
-609.215	-149.843	-0.293	0.023
-608.201	800.000	-0.074	-0.223
-607.186	146.022	-0.165	-0.222
-606.171	623.583	-0.033	0.084
-605.157	4.938	0.096	-0.071
-604.142	335.167	0.024	0.047
-603.128	90.510	0.068	0.076
-602.113	-200.000	-0.029	-0.170
-601.098	-200.000	-0.059	-0.453
-600.084	143.861	0.165	0.220
-599.069	-146.968	0.088	-0.008
-598.055	-118.486	-0.216	-0.038
-597.040	-7.620	0.169	0.114
-596.025	-89.556	0.159	-0.047
-595.011	27.468	-0.282	-0.237
-593.996	205.462	0.161	-0.251
-592.982	354.563	-0.140	-0.279
-591.967	-20.597	-0.211	-0.130
-590.952	-200.000	-0.067	0.346
-589.938	-140.417	0.266	0.028
-588.923	-200.000	0.047	-0.329
-587.909	-165.622	-0.477	0.021
-586.894	220.935	-0.034	-0.055
-585.879	208.202	-0.124	-0.194
-584.865	-26.046	-0.180	0.106
-583.850	-24.759	0.166	-0.098
-582.836	-68.220	-0.126	-0.049
-581.821	-98.514	-0.233	0.059
-580.806	52.704	-0.158	0.151
-579.792	-121.315	0.099	0.017
-578.777	-85.415	0.236	-0.074
-577.763	-200.000	0.059	-0.328
-576.748	111.994	0.151	-0.182
-575.733	-96.022	-0.064	0.017
-574.719	354.819	-0.182	-0.363
-573.704	9.814	0.185	0.140
-572.690	-200.000	0.008	-0.261
-571.675	336.736	-0.085	0.166
-570.661	771.501	-0.060	0.163
-569.646	34.647	0.209	-0.182
-568.631	-0.511	0.120	0.085
-567.617	-35.133	0.263	-0.143
-566.602	309.896	-0.135	0.252
-565.588	117.277	0.134	-0.165
-564.573	422.483	0.077	-0.166
-563.558	-137.881	-0.418	0.047
-562.544	-86.521	0.324	0.099
-561.529	185.210	-0.092	-0.137
-560.515	112.474	0.052	-0.062
-559.500	-12.554	-0.168	-0.109
-558.485	-67.331	-0.247	-0.097
-557.471	-171.896	-0.422	0.014
-556.456	201.047	-0.168	0.258
-555.442	39.527	-0.040	0.035
-554.427	-156.560	0.103	-0.006
-553.412	-140.022	-0.169	0.018
-552.398	-3.380	0.169	-0.118
-551.383	15.142	-0.099	0.078
-550.369	28.466	-0.261	0.221
-549.354	800.000	0.091	0.359
-548.339	-191.606	0.102	0.001
-547.325	-47.316	-0.232	-0.113
-546.310	-200.000	0.037	-0.169
-545.296	800.000	0.032	0.124
-544.281	-83.002	0.060	-0.019
-543.266	-200.000	0.007	-0.045
-542.252	-77.350	0.097	-0.034
-541.237	800.000	0.109	0.370
-540.223	41.282	-0.265	0.239
-539.208	-147.613	-0.155	0.013
-538.193	298.721	-0.100	-0.183
-537.179	10.142	-0.070	0.053
-536.164	800.000	0.040	-0.116
-535.150	800.000	0.012	-0.042
-534.135	-200.000	-0.017	0.152
-533.121	-200.000	0.023	0.230
-532.106	-132.359	-0.174	-0.022
-531.091	51.821	0.179	0.170
-530.077	114.233	-0.224	0.272
-529.062	-200.000	0.018	0.304
-528.048	-34.569	0.300	-0.164
-527.033	-161.346	0.234	0.012
-526.018	-59.798	0.174	-0.074
-525.004	-200.000	-0.018	0.109
-523.989	-27.301	0.054	-0.031
-522.975	56.047	0.161	0.156
-521.960	-47.428	0.181	0.088
-520.945	-66.300	-0.144	0.057
-519.931	83.255	-0.128	-0.139
-518.916	-89.976	-0.349	-0.102
-517.902	112.813	0.043	0.052
-516.887	196.806	0.107	0.162
-515.872	73.651	-0.151	0.158
-514.858	-49.216	-0.077	0.037
-513.843	50.308	-0.144	-0.136
-512.829	-200.000	0.031	-0.141
-511.814	-104.769	-0.599	-0.137
-510.799	-200.000	0.041	-0.303
-509.785	-155.308	-0.163	-0.011
-508.770	-200.000	0.036	-0.329
-507.756	800.000	-0.032	-0.119
-506.741	-200.000	-0.011	-0.133
-505.726	-90.137	0.233	-0.068
-504.712	-122.390	0.291	0.047
-503.697	-200.000	0.101	0.482
-502.683	800.000	0.060	0.166
-501.668	27.130	0.079	0.066
-500.653	-74.966	0.316	0.113
-499.639	317.023	0.110	-0.208
-498.624	547.331	-0.151	0.360
-497.610	30.594	-0.038	-0.032
-496.595	86.009	0.169	-0.185
-495.581	-3.837	0.194	0.134
-494.566	115.422	0.022	-0.026
-493.551	800.000	0.053	-0.211
-492.537	36.533	-0.166	-0.146
-491.522	86.310	0.071	-0.078
-490.508	800.000	0.071	0.255
-489.493	-0.580	-0.257	0.182
-488.478	-94.648	0.553	0.150
-487.464	-200.000	0.063	0.353
-486.449	-106.997	0.212	-0.047
-485.435	-200.000	0.013	0.226
-484.420	-108.458	0.324	-0.070
-483.405	800.000	-0.062	-0.180
-482.391	168.182	-0.158	0.224
-481.376	59.926	0.203	0.200
-480.362	-200.000	-0.026	-0.296
-479.347	57.577	-0.095	0.093
-478.332	-83.517	0.186	-0.059
-477.318	-200.000	0.051	-0.231
-476.303	-12.296	-0.103	-0.067
-475.289	-128.895	-0.299	-0.042
-474.274	800.000	0.095	0.320
-473.259	-78.122	0.153	0.052
-472.245	11.321	0.187	0.143
-471.230	-200.000	-0.061	-0.316
-470.216	800.000	0.093	-0.313
-469.201	-13.140	0.113	-0.073
-468.186	-124.776	0.218	0.034
-467.172	-10.929	-0.358	-0.235
-466.157	-54.664	0.324	-0.146
-465.143	-154.846	0.410	0.027
-464.128	-20.309	-0.234	-0.143
-463.113	177.056	-0.081	0.117
-462.099	76.221	0.112	0.118
-461.084	-200.000	-0.032	0.262
-460.070	-166.533	-0.030	-0.001
-459.055	125.772	0.014	-0.017
-458.040	648.432	0.097	0.246
-457.026	-3.658	-0.216	0.150
-456.011	-200.000	-0.051	0.241
-454.997	167.023	0.092	0.129
-453.982	178.501	-0.103	0.149
-452.968	-200.000	0.003	0.083
-451.953	800.000	0.084	0.326
-450.938	-200.000	0.006	-0.151
-449.924	-200.000	-0.026	-0.141
-448.909	207.580	0.161	0.249
-447.895	197.403	-0.148	0.225
-446.880	-27.553	-0.200	-0.116
-445.865	-102.582	0.031	0.007
-444.851	-64.459	-0.347	0.140
-443.836	153.648	0.024	0.032
-442.822	-90.387	0.317	-0.092
-441.807	131.013	0.183	-0.233
-440.792	-200.000	-0.013	0.249
-439.778	-200.000	-0.007	0.240
-438.763	800.000	0.104	0.350
-437.749	763.333	-0.017	0.046
-436.734	-115.917	0.231	-0.043
-435.719	190.958	0.113	0.169
-434.705	351.114	0.061	0.120
-433.690	-200.000	-0.026	-0.214
-432.676	211.519	0.123	0.193
-431.661	15.135	-0.247	0.192
-430.646	-152.987	0.210	-0.015
-429.632	324.309	-0.115	-0.219
-428.617	-80.978	0.421	0.139
-427.603	728.240	-0.067	0.177
-426.588	-41.436	-0.382	0.196
-425.573	-127.318	0.211	0.031
-424.559	-108.524	-0.151	0.032
-423.544	305.224	0.077	0.143
-422.530	295.321	0.119	0.217
-421.515	-141.322	0.183	-0.018
-420.500	-200.000	0.021	0.122
-419.486	-88.527	-0.212	-0.063
-418.471	-200.000	0.007	0.139
-417.457	139.490	0.043	0.057
-416.442	-157.425	-0.119	0.007
-415.428	-17.211	0.182	0.114
-414.413	-65.984	-0.166	0.066
-413.398	-153.534	0.381	-0.026
-412.384	84.377	-0.156	0.169
-411.369	-50.784	-0.323	-0.151
-410.355	-13.370	-0.225	-0.145
-409.340	214.160	0.099	0.156
-408.325	143.764	0.159	0.210
-407.311	800.000	-0.014	-0.044
-406.296	10.879	-0.154	0.117
-405.282	-149.534	0.309	-0.024
-404.267	342.113	-0.006	0.012
-403.252	16.622	-0.221	-0.173
-402.238	496.023	0.076	-0.173
-401.223	106.014	-0.202	-0.237
-400.209	-200.000	-0.041	-0.256
-399.194	800.000	0.059	-0.175
-398.179	-200.000	0.010	-0.288
-397.165	-200.000	-0.062	0.419
-396.150	-89.357	-0.315	-0.092
-395.136	-200.000	-0.048	0.301
-394.121	-200.000	0.022	-0.198
-393.106	439.682	0.218	0.473
-392.092	130.262	-0.274	-0.348
-391.077	-77.763	0.103	-0.035
-390.063	-75.560	-0.498	0.176
-389.048	104.807	0.097	-0.114
-388.033	16.621	-0.139	0.109
-387.019	-107.818	-0.143	0.031
-386.004	-200.000	-0.042	0.207
-384.990	-177.613	-0.059	0.001
-383.975	169.088	0.088	-0.124
-382.960	53.698	-0.367	-0.349
-381.946	800.000	0.075	0.280
-380.931	800.000	-0.092	0.347
-379.917	-136.117	0.180	-0.021
-378.902	-169.472	0.277	0.010
-377.888	373.217	0.110	-0.221
-376.873	800.000	-0.136	0.407
-375.858	-13.635	-0.260	-0.167
-374.844	145.459	0.087	0.115
-373.829	576.664	-0.073	-0.177
-372.815	375.390	0.125	0.253
-371.800	23.964	0.061	0.050
-370.785	-200.000	0.042	0.229
-369.771	-123.207	0.406	0.065
-368.756	800.000	0.031	-0.109
-367.742	16.266	-0.108	0.085
-366.727	254.687	-0.120	-0.203
-365.712	86.802	-0.202	0.221
-364.698	200.399	0.153	-0.233
-363.683	800.000	-0.048	-0.196
-362.669	492.062	-0.115	-0.261
-361.654	97.313	0.194	-0.220
-360.639	-58.653	0.349	-0.150
-359.625	-200.000	-0.051	0.359
-358.610	589.695	0.109	0.267
-357.596	800.000	0.076	0.242
-356.581	94.604	0.123	-0.139
-355.566	-200.000	-0.056	-0.350
-354.552	29.982	-0.279	0.236
-353.537	278.823	-0.082	0.144
-352.523	-200.000	0.036	-0.182
-351.508	-200.000	0.005	0.048
-350.493	278.015	0.107	0.189
-349.479	287.238	0.116	-0.208
-348.464	176.725	-0.219	-0.316
-347.450	-175.813	-0.174	-0.005
-346.435	-200.000	0.037	0.254
-345.420	11.077	0.222	0.168
-344.406	-200.000	-0.045	0.301
-343.391	308.190	-0.047	-0.088
-342.377	20.423	0.177	-0.142
-341.362	110.619	-0.249	-0.297
-340.348	80.491	-0.156	-0.167
-339.333	33.639	0.204	-0.176
-338.318	117.888	-0.154	0.187
-337.304	-115.045	-0.077	-0.015
-336.289	-100.565	-0.238	-0.058
-335.275	368.016	-0.060	-0.120
-334.260	-150.556	0.205	0.016
-333.245	-200.000	0.078	0.358
-332.231	13.429	-0.176	-0.135
-331.216	527.251	-0.056	0.131
-330.202	282.710	0.066	-0.117
-329.187	55.152	0.130	-0.124
-328.172	-132.197	-0.146	-0.019
-327.158	-200.000	-0.001	0.066
-326.143	37.284	0.241	0.212
-325.129	-26.282	-0.128	0.074
-324.114	-200.000	0.031	-0.147
-323.099	-40.088	-0.359	0.185
-322.085	-88.301	0.417	0.123
-321.070	383.932	0.160	0.326
-320.056	-41.710	-0.254	0.129
-319.041	800.000	-0.065	0.189
-318.026	-20.769	0.129	-0.079
-317.012	-52.730	0.077	0.035
-315.997	-200.000	-0.044	0.198
-314.983	-30.305	0.181	0.102
-313.968	-33.426	-0.078	0.043
-312.953	-114.657	-0.042	-0.008
-311.939	-4.571	-0.099	0.068
-310.924	80.176	-0.255	-0.272
-309.910	800.000	-0.104	-0.327
-308.895	-148.146	-0.142	-0.012
-307.880	-200.000	-0.023	-0.267
-306.866	90.993	0.207	-0.230
-305.851	-139.918	0.274	-0.029
-304.837	-47.027	-0.189	0.091
-303.822	378.399	-0.041	0.083
-302.807	800.000	0.060	0.260
-301.793	-70.666	0.121	0.045
-300.778	65.637	-0.105	-0.105
-299.764	-23.341	-0.393	-0.234
-298.749	-65.929	0.116	-0.046
-297.735	174.696	-0.067	0.096
-296.720	800.000	-0.051	0.184
-295.705	-200.000	-0.006	0.081
-294.691	-200.000	0.046	-0.300
-293.676	-136.065	-0.176	-0.020
-292.662	-128.646	-0.264	0.037
-291.647	-103.925	0.350	0.081
-290.632	-200.000	-0.011	0.118
-289.618	-119.221	-0.381	-0.066
-288.603	-45.728	0.342	-0.167
-287.589	324.740	-0.150	-0.283
-286.574	-200.000	0.021	-0.138
-285.559	196.608	0.286	-0.430
-284.545	-78.238	-0.347	-0.118
-283.530	-200.000	-0.046	0.536
-282.516	-99.427	-0.301	-0.075
-281.501	190.801	-0.125	-0.185
-280.486	4.653	0.196	0.143
-279.472	-109.152	0.170	0.036
-278.457	-119.100	-0.021	0.004
-277.443	626.083	-0.098	-0.244
-276.428	365.130	0.175	0.348
-275.413	-152.634	-0.176	-0.012
-274.399	131.528	0.121	-0.154
-273.384	-182.060	0.458	0.009
-272.370	-56.868	-0.193	0.084
-271.355	270.755	-0.065	-0.113
-270.340	29.291	-0.150	0.126
-269.326	-200.000	0.006	-0.174
-268.311	-165.403	-0.162	-0.007
-267.297	800.000	-0.065	-0.243
-266.282	207.737	-0.160	-0.247
-265.267	-200.000	0.020	0.121
-264.253	-200.000	0.015	-0.144
-263.238	82.759	-0.324	0.348
-262.224	-163.111	0.075	-0.004
-261.209	-48.156	-0.172	0.082
-260.195	-88.790	-0.227	-0.067
-259.180	-168.175	-0.119	0.005
-258.165	162.561	-0.213	0.295
-257.151	7.924	-0.026	-0.019
-256.136	-26.067	0.028	-0.017
-255.122	-156.829	0.246	0.015
-254.107	-82.904	0.108	0.035
-253.092	-96.478	-0.045	-0.012
-252.078	-103.886	-0.100	-0.023
-251.063	275.106	-0.161	0.281
-250.049	-67.059	0.177	0.069
-249.034	-200.000	0.037	0.447
-248.019	120.570	-0.087	-0.107
-247.005	-28.488	-0.111	0.063
-245.990	-156.448	0.119	-0.007
-244.976	-200.000	0.017	-0.074
-243.961	334.160	-0.097	0.186
-242.946	149.094	-0.079	-0.106
-241.932	-200.000	0.070	-0.451
-240.917	-25.380	-0.114	-0.066
-239.903	125.656	0.288	-0.359
-238.888	-179.871	0.073	-0.002
-237.873	-200.000	-0.012	0.253
-236.859	-128.017	0.353	-0.050
-235.844	-70.756	0.142	-0.053
-234.830	239.730	-0.263	-0.433
-233.815	170.711	-0.085	-0.120
-232.800	-122.236	0.057	0.009
-231.786	-97.461	0.253	0.065
-230.771	135.480	0.062	-0.080
-229.757	-26.569	0.203	0.117
-228.742	10.667	-0.346	-0.260
-227.727	759.686	-0.064	0.172
-226.713	-49.202	0.093	-0.044
-225.698	800.000	-0.053	-0.155
-224.684	-200.000	0.002	-0.151
-223.669	218.153	0.275	-0.432
-222.655	72.813	-0.243	-0.250
-221.640	28.982	0.177	0.148
-220.625	-91.234	-0.502	0.142
-219.611	99.661	0.288	0.329
-218.596	-200.000	0.065	-0.280
-217.582	-119.720	-0.120	0.020
-216.567	342.786	-0.106	-0.204
-215.552	-174.272	0.259	0.007
-214.538	800.000	-0.039	0.168
-213.523	212.024	-0.226	-0.351
-212.509	3.962	-0.228	-0.164
-211.494	-10.214	0.144	0.094
-210.479	63.334	-0.076	0.075
-209.465	63.206	-0.234	0.232
-208.450	374.795	0.055	-0.110
-207.436	-200.000	-0.042	-0.242
-206.421	-200.000	0.004	0.123
-205.406	-12.813	0.182	-0.117
-204.392	-66.341	0.042	0.017
-203.377	-21.990	-0.101	0.061
-202.363	158.424	-0.083	-0.113
-201.348	-137.749	-0.100	-0.011
-200.333	-135.455	0.235	-0.028
-199.319	181.607	0.135	-0.196
-198.304	-79.974	0.161	0.053
-197.290	800.000	-0.027	0.089
-196.275	-200.000	-0.040	-0.344
-195.260	-108.002	0.214	0.046
-194.246	322.391	0.107	0.200
-193.231	800.000	0.077	0.299
-192.217	148.618	-0.078	-0.103
-191.202	-52.960	0.301	0.136
-190.187	-58.659	0.082	-0.035
-189.173	26.193	0.199	-0.164
-188.158	800.000	-0.111	-0.477
-187.144	153.565	-0.022	0.029
-186.129	330.224	-0.076	0.145
-185.114	161.415	-0.124	-0.170
-184.100	-68.964	-0.082	0.031
-183.085	-200.000	0.012	0.147
-182.071	-200.000	0.044	-0.210
-181.056	-168.544	-0.090	0.003
-180.042	14.024	-0.193	-0.148
-179.027	300.919	0.044	-0.079
-178.012	-132.943	-0.279	0.035
-176.998	14.803	0.157	0.121
-175.983	183.057	-0.036	-0.052
-174.969	12.879	0.476	0.362
-173.954	314.722	-0.082	0.152
-172.939	13.531	-0.222	0.170
-171.925	8.736	0.218	0.162
-170.910	-2.988	0.282	-0.194
-169.896	85.636	0.196	0.212
-168.881	153.549	-0.126	0.170
-167.866	-55.351	0.131	0.058
-166.852	380.485	0.088	0.177
-165.837	800.000	-0.061	0.175
-164.823	148.048	0.097	0.128
-163.808	800.000	0.158	-0.620
-162.793	-200.000	0.048	-0.296
-161.779	286.968	0.206	0.367
-160.764	-200.000	-0.020	0.110
-159.750	-177.659	0.134	0.003
-158.735	469.626	-0.088	0.194
-157.720	800.000	-0.097	0.319
-156.706	-140.406	0.122	-0.012
-155.691	201.244	0.133	0.202
-154.677	160.235	-0.127	-0.174
-153.662	0.584	-0.212	0.149
-152.647	234.077	0.036	-0.058
-151.633	800.000	0.053	-0.177
-150.618	87.187	-0.050	-0.055
-149.604	-13.028	-0.123	0.079
-148.589	249.078	0.109	-0.182
-147.574	163.446	-0.284	0.392
-146.560	85.993	-0.143	-0.155
-145.545	162.336	-0.180	0.249
-144.531	10.222	0.249	-0.186
-143.516	-84.491	0.171	0.053
-142.502	32.623	-0.188	-0.160
-141.487	-165.875	0.143	0.006
-140.472	203.471	0.047	0.072
-139.458	278.756	0.084	-0.146
-138.443	800.000	0.080	0.271
-137.429	-200.000	0.058	0.429
-136.414	204.483	0.005	0.007
-135.399	-11.526	0.290	0.187
-134.385	157.160	0.070	-0.095
-133.370	-3.968	-0.305	0.208
-132.356	-147.360	0.275	-0.023
-131.341	203.140	-0.003	-0.004
-130.326	77.793	0.166	-0.173
-129.312	-200.000	-0.001	0.056
-128.297	-2.325	0.034	-0.024
-127.283	181.503	0.076	0.110
-126.268	800.000	0.104	0.440
-125.253	116.552	0.103	0.125
-124.239	800.000	0.050	0.211
-123.224	-18.834	-0.117	0.072
-122.210	-96.284	-0.258	-0.067
-121.195	87.605	-0.167	0.182
-120.180	3.743	-0.154	0.110
-119.166	-52.838	-0.154	0.070
-118.151	-97.764	-0.050	0.013
-117.137	142.780	-0.074	0.097
-116.122	-118.843	0.191	-0.033
-115.107	206.635	-0.206	-0.315
-114.093	-160.209	-0.187	0.010
-113.078	-40.523	0.350	0.178
-112.064	-200.000	-0.014	-0.118
-111.049	60.296	-0.220	-0.214
-110.034	-200.000	-0.011	-0.096
-109.020	-93.240	0.060	-0.016
-108.005	800.000	-0.047	-0.182
-106.991	73.703	-0.103	0.106
-105.976	-107.944	0.211	-0.045
-104.962	96.744	0.064	-0.072
-103.947	592.979	0.114	0.276
-102.932	-200.000	0.017	-0.149
-101.918	800.000	0.090	-0.247
-100.903	-200.000	-0.048	-0.323
-99.889	-200.000	0.009	0.061
-98.874	-110.608	0.297	0.060
-97.859	107.198	-0.104	-0.121
-96.845	-111.907	-0.039	0.008
-95.830	-200.000	-0.029	0.161
-94.816	120.991	-0.141	0.172
-93.801	-184.406	-0.267	0.004
-92.786	800.000	0.084	0.246
-91.772	-112.837	0.269	-0.052
-90.757	38.820	-0.095	0.083
-89.743	77.224	0.130	-0.135
-88.728	2.512	-0.057	0.041
-87.713	341.623	-0.030	0.057
-86.699	-14.593	-0.233	-0.147
-85.684	-200.000	-0.003	-0.038
-84.670	298.013	-0.068	-0.123
-83.655	-36.490	0.134	-0.071
-82.640	-165.949	0.062	-0.003
-81.626	27.429	0.145	-0.120
-80.611	290.237	-0.102	0.182
-79.597	-93.520	0.191	0.052
-78.582	297.004	0.105	-0.190
-77.567	-125.534	-0.043	-0.006
-76.553	-200.000	0.065	0.306
-75.538	-200.000	-0.084	-0.000
-74.524	8.366	-0.107	-0.079
-73.509	-8.665	0.172	-0.113
-72.494	800.000	0.141	0.408
-71.480	165.195	-0.037	-0.052
-70.465	800.000	-0.067	-0.248
-69.451	-45.322	0.167	-0.081
-68.436	-23.727	-0.194	-0.114
-67.422	-142.934	-0.169	-0.016
-66.407	34.138	0.066	-0.056
-65.392	163.051	0.179	0.247
-64.378	412.923	0.212	0.443
-63.363	148.760	0.072	0.095
-62.349	-200.000	-0.025	0.113
-61.334	166.600	-0.936	-1.300
-60.319	328.083	0.198	0.372
-59.305	-200.000	-0.200	-1.327
-58.290	167.882	0.788	1.098
-57.276	800.000	0.548	1.645
-56.261	-200.000	108.510	603.194
-55.246	456.633	1482.700	3225.785
-54.232	148.868	2656.240	3519.482
-53.217	107.061	2140.075	2491.568
-52.203	41.133	1595.999	1413.056
-51.188	33.375	1339.525	1139.474
-50.173	30.260	1299.525	1087.183
-49.159	55.281	1354.370	1283.367
-48.144	55.512	1369.755	1299.270
-47.130	33.498	1324.276	1127.054
-46.115	30.039	1306.989	1091.954
-45.100	29.756	1302.042	1086.117
-44.086	29.695	1299.602	1083.676
-43.071	29.766	1297.316	1082.146
-42.057	29.673	1294.925	1079.565
-41.042	29.634	1293.296	1077.937
-40.027	29.820	1291.630	1077.588
-39.013	29.739	1289.842	1075.584
-37.998	29.704	1288.091	1073.878
-36.984	29.808	1286.147	1072.819
-35.969	29.792	1284.859	1071.605
-34.954	29.868	1283.058	1070.500
-33.940	29.735	1282.432	1069.168
-32.925	29.874	1280.828	1068.589
-31.911	29.897	1279.135	1067.271
-30.896	29.902	1277.628	1066.000
-29.881	29.929	1276.765	1065.389
-28.867	29.867	1275.019	1063.534
-27.852	29.974	1273.308	1062.678
-26.838	29.892	1272.363	1061.377
-25.823	29.844	1270.814	1059.772
-24.809	29.947	1269.253	1059.014
-23.794	29.832	1268.233	1057.465
-22.779	29.819	1266.929	1056.264
-21.765	29.767	1265.885	1055.054
-20.750	29.853	1264.150	1054.055
-19.736	29.835	1263.079	1053.017
-18.721	29.854	1262.001	1052.183
-17.706	29.820	1260.832	1050.974
-16.692	29.782	1259.513	1049.617
-15.677	29.784	1258.375	1048.640
-14.663	29.744	1257.576	1047.705
-13.648	29.857	1256.417	1047.339
-12.633	29.759	1255.142	1045.681
-11.619	29.755	1254.826	1045.352
-10.604	29.824	1253.515	1044.606
-9.590	29.782	1252.575	1043.547
-8.575	29.716	1251.745	1042.441
-7.560	29.742	1251.339	1042.211
-6.546	29.764	1250.478	1041.573
-5.531	29.788	1249.260	1040.651
-4.517	29.822	1248.259	1039.970
-3.502	29.820	1247.441	1039.232
-2.487	29.781	1246.375	1038.086
-1.473	29.724	1242.451	1034.459
-0.458	27.992	1227.514	1012.398
0.556	22.433	1209.089	971.656
1.571	18.340	1214.814	953.424
2.586	17.414	1229.846	959.915
3.600	17.320	1218.827	950.705
4.615	15.022	1152.446	886.684
5.629	10.743	1084.275	812.791
6.644	8.734	1067.050	789.905
7.659	8.569	1064.866	787.406
8.673	8.481	1063.370	785.800
9.688	8.426	1061.791	784.293
10.702	8.784	1060.329	784.897
11.717	11.255	1063.326	799.175
12.731	15.377	1068.664	823.385
13.746	17.456	1071.035	835.356
14.761	17.458	1069.768	834.302
15.775	16.502	1067.768	827.991
16.790	15.361	1065.883	820.875
17.804	14.792	1064.401	816.878
18.819	14.308	1062.825	813.235
19.834	13.972	1062.320	811.133
20.848	13.754	1061.513	809.384
21.863	13.442	1060.888	807.314
22.877	13.398	1059.888	806.265
23.892	13.271	1059.602	805.360
24.907	13.357	1058.070	804.543
25.921	13.292	1057.205	803.498
26.936	13.456	1055.970	803.285
27.950	13.327	1055.116	801.935
28.965	13.459	1053.559	801.323
29.980	13.546	1051.818	800.347
30.994	13.703	1050.493	800.024
32.009	13.513	1049.919	798.599
33.023	13.592	1048.677	797.968
34.038	13.463	1047.715	796.546
35.053	13.600	1046.497	796.206
36.067	13.554	1045.562	795.203
37.082	13.430	1045.185	794.252
38.096	13.541	1044.140	793.916
39.111	13.554	1043.329	793.294
40.126	13.340	1042.596	791.642
41.140	13.261	1040.946	789.944
42.155	13.304	1039.591	789.049
43.169	13.224	1038.726	787.943
44.184	13.241	1037.588	787.088
45.199	13.325	1036.559	786.636
46.213	13.318	1035.402	785.656
47.228	13.600	1034.104	785.939
48.242	13.522	1033.298	784.888
49.257	13.458	1032.608	783.994
50.271	13.551	1031.351	783.410
51.286	13.498	1030.889	782.740
52.301	13.490	1029.743	781.760
53.315	13.387	1028.685	780.401
54.330	13.307	1027.983	779.423
55.344	13.439	1027.133	779.332
56.359	13.305	1026.457	778.118
57.374	13.405	1025.260	777.614
58.388	13.354	1024.190	776.494
59.403	13.230	1023.837	775.574
60.417	13.332	1022.742	775.158
61.432	13.249	1022.110	774.221
62.447	13.175	1021.664	773.468
63.461	13.172	1020.466	772.478
64.476	13.291	1019.417	772.169
65.490	13.091	1019.097	770.926
66.505	13.265	1018.300	771.065
67.520	13.392	1017.400	770.910
68.534	13.328	1016.975	770.222
69.549	13.323	1015.757	769.209
70.563	13.363	1014.630	768.469
71.578	13.139	1014.405	767.189
72.593	13.058	1013.565	766.115
73.607	13.111	1013.153	765.978
74.622	13.182	1011.901	765.296
75.636	13.233	1011.782	765.374
76.651	13.210	1011.132	764.709
77.666	13.202	1010.206	763.902
78.680	13.250	1009.584	763.585
79.695	13.348	1008.752	763.339
80.709	13.259	1008.343	762.553
81.724	13.145	1008.064	761.750
82.739	13.438	1007.085	762.291
83.753	13.530	1006.480	762.191
84.768	13.552	1005.386	761.395
85.782	13.544	1004.408	760.552
86.797	13.539	1003.410	759.704
87.812	13.553	1002.202	758.785
88.826	13.495	1001.565	757.971
89.841	13.665	1000.494	757.872
90.855	13.586	999.751	756.882
91.870	13.544	998.972	756.034
92.884	13.469	998.891	755.560
93.899	13.599	997.379	754.946
94.914	13.729	996.605	754.882
95.928	13.659	995.886	753.955
96.943	13.638	995.181	753.255
97.957	13.557	994.087	751.997
98.972	13.646	993.103	751.586
99.987	13.650	992.603	751.161
101.001	13.618	991.437	750.065
102.016	13.475	990.821	748.887
103.030	13.526	990.045	748.464
104.045	13.595	989.020	747.934
105.060	13.451	988.587	746.895
106.074	13.439	987.383	745.864
107.089	13.344	986.323	744.570
108.103	13.310	985.224	743.521
109.118	13.300	984.444	742.819
110.133	13.307	983.671	742.204
111.147	13.344	982.572	741.473
112.162	13.330	982.042	740.946
113.176	13.382	981.497	740.700
114.191	13.526	980.382	740.440
115.206	13.508	979.158	739.368
116.220	13.484	978.812	738.933
117.235	13.463	977.466	737.758
118.249	13.427	976.950	737.144
119.264	13.426	976.449	736.698
120.279	13.389	975.310	735.610
121.293	13.302	974.786	734.763
122.308	13.416	973.693	734.378
123.322	13.306	972.854	733.195
124.337	13.309	971.788	732.340
125.352	13.297	970.936	731.577
126.366	13.303	969.798	730.683
127.381	13.430	968.522	730.215
128.395	13.353	967.877	729.325
129.410	13.304	967.075	728.441
130.424	13.313	966.585	728.050
131.439	13.457	965.740	727.982
132.454	13.389	964.819	726.921
133.468	13.519	963.721	726.601
134.483	13.506	962.879	725.846
135.497	13.511	962.245	725.327
136.512	13.619	961.249	724.983
137.527	13.341	960.938	723.468
138.541	13.545	959.714	723.372
139.556	13.556	959.265	723.020
140.570	13.582	958.726	722.662
141.585	13.614	957.801	722.040
142.600	13.627	957.147	721.542
143.614	13.747	956.177	721.265
144.629	13.852	954.995	720.767
145.643	13.680	954.480	719.568
146.658	13.584	953.599	718.426
147.673	13.633	952.722	717.914
148.687	13.618	951.628	716.959
149.702	13.598	950.817	716.200
150.716	13.475	950.370	715.268
151.731	13.581	949.474	714.986
152.746	13.528	949.145	714.446
153.760	13.642	948.203	714.168
154.775	13.587	947.864	713.613
155.789	13.626	947.098	713.139
156.804	13.652	946.128	712.459
157.819	13.828	945.020	712.318
158.833	13.752	944.979	711.896
159.848	13.831	944.008	711.439
160.862	13.774	943.021	710.388
161.877	13.768	941.900	709.458
162.892	13.618	941.274	708.279
163.906	13.579	940.367	707.368
164.921	13.638	939.476	706.888
165.935	13.680	938.679	706.405
166.950	13.785	937.713	706.062
167.964	13.666	937.189	705.096
168.979	13.709	936.121	704.416
169.994	13.829	934.988	704.008
171.008	13.708	934.255	702.884
172.023	13.868	933.710	703.089
173.037	13.844	933.251	702.578
174.052	13.825	932.268	701.698
175.067	13.731	931.630	700.759
176.081	13.682	931.296	700.235
177.096	13.816	930.372	700.045
178.110	13.724	930.163	699.436
179.125	13.814	929.326	699.126
180.140	13.795	928.848	698.622
181.154	13.866	928.710	698.758
182.169	13.806	927.886	697.824
183.183	14.028	927.290	698.244
184.198	13.949	926.689	697.401
185.213	14.148	925.195	697.047
186.227	14.066	925.370	696.776
187.242	14.124	924.691	696.444
188.256	14.103	923.858	695.670
189.271	14.151	923.195	695.305
190.286	14.001	921.946	693.678
191.300	13.794	921.448	692.381
192.315	13.819	920.898	692.008
193.329	13.811	920.283	691.454
194.344	13.839	919.887	691.211
195.359	13.921	919.239	691.003
196.373	14.020	918.547	690.835
197.388	14.134	918.111	690.919
198.402	14.189	917.631	690.723
199.417	14.192	917.211	690.358
200.432	14.365	916.249	690.292
201.446	14.329	916.171	690.023
202.461	14.316	915.710	689.562
203.475	14.332	915.022	689.049
204.490	14.222	914.265	687.961
205.504	14.164	913.462	687.058
206.519	14.226	912.746	686.713
207.534	14.123	911.950	685.631
208.548	14.278	911.301	685.720
209.563	14.151	910.955	684.878
210.577	14.156	910.419	684.432
211.592	14.425	909.544	684.820
212.607	14.411	908.665	684.039
213.621	14.220	907.906	682.626
214.636	14.455	906.917	682.783
215.650	14.378	906.586	682.160
216.665	14.462	905.803	681.854
217.680	14.564	905.156	681.723
218.694	14.585	904.021	680.891
219.709	14.517	903.600	680.238
220.723	14.413	903.106	679.382
221.738	14.522	902.003	678.935
222.753	14.495	902.025	678.784
223.767	14.574	901.154	678.390
224.782	14.713	900.915	678.711
225.796	14.693	900.555	678.301
226.811	14.550	899.431	676.813
227.826	14.612	899.023	676.698
228.840	14.473	898.384	675.596
229.855	14.638	897.113	675.244
230.869	14.630	896.436	674.644
231.884	14.553	895.894	673.864
232.899	14.402	895.253	672.714
233.913	14.535	894.597	672.698
234.928	14.386	894.154	671.706
235.942	14.473	893.614	671.592
236.957	14.545	892.987	671.351
237.972	14.647	892.258	671.151
238.986	14.515	892.367	670.646
240.001	14.467	891.614	669.827
241.015	14.561	891.187	669.823
242.030	14.663	889.804	669.136
243.045	14.727	889.272	668.932
244.059	14.697	888.456	668.139
245.074	14.816	888.086	668.276
246.088	14.694	887.151	667.025
247.103	14.820	886.506	666.984
248.117	14.791	886.337	666.682
249.132	14.927	885.838	666.791
250.147	15.031	885.252	666.705
251.161	15.098	884.280	666.180
252.176	15.073	883.776	665.643
253.190	15.215	883.136	665.666
254.205	15.125	882.608	664.851
255.220	15.209	881.575	664.346
256.234	15.095	881.291	663.625
257.249	15.028	880.617	662.791
258.263	15.135	879.997	662.689
259.278	15.132	879.254	662.061
260.293	15.120	878.923	661.706
261.307	15.148	878.241	661.244
262.322	15.200	877.383	660.744
263.336	15.309	876.646	660.561
264.351	15.354	876.135	660.293
265.366	15.287	875.702	659.644
266.380	15.419	874.678	659.335
267.395	15.273	874.319	658.431
268.409	15.264	873.398	657.644
269.424	15.341	872.542	657.242
270.439	15.373	871.878	656.811
271.453	15.234	871.030	655.570
272.468	15.315	870.809	655.663
273.482	15.420	870.319	655.646
274.497	15.221	869.993	654.565
275.512	15.343	869.327	654.483
276.526	15.414	868.639	654.184
277.541	15.422	868.027	653.694
278.555	15.515	867.563	653.652
279.570	15.661	866.732	653.532
280.585	15.410	866.208	652.105
281.599	15.501	865.254	651.685
282.614	15.388	864.970	650.971
283.628	15.577	864.341	651.175
284.643	15.546	863.365	650.262
285.657	15.519	863.065	649.875
286.672	15.579	862.423	649.565
287.687	15.463	862.007	648.747
288.701	15.597	861.569	648.877
289.716	15.567	860.683	648.035
290.730	15.574	860.161	647.613
291.745	15.505	859.604	646.869
292.760	15.694	858.778	646.919
293.774	15.674	858.304	646.425
294.789	15.725	857.435	645.912
295.803	15.661	856.810	645.137
296.818	15.630	856.525	644.749
297.833	15.646	855.245	643.789
298.847	15.703	855.057	643.808
299.862	15.642	854.694	643.243
300.876	15.720	854.096	643.037
301.891	15.826	853.421	642.876
302.906	15.873	852.873	642.585
303.920	15.937	852.303	642.342
304.935	16.039	851.745	642.255
305.949	15.988	851.196	641.589
306.964	15.917	850.273	640.568
307.979	15.908	849.932	640.220
308.993	15.993	849.339	640.037
310.008	15.816	849.016	639.066
311.022	16.113	848.064	639.420
312.037	15.935	847.633	638.364
313.052	15.941	846.707	637.633
314.066	15.888	846.361	637.115
315.081	15.927	845.596	636.630
316.095	15.891	845.101	636.063
317.110	15.898	844.605	635.663
318.125	15.937	843.985	635.284
319.139	15.799	843.892	634.639
320.154	15.971	843.194	634.704
321.168	15.997	842.886	634.514
322.183	16.056	842.032	634.038
323.197	15.982	842.092	633.749
324.212	16.066	841.390	633.483
325.227	15.993	840.493	632.475
326.241	15.992	839.896	631.965
327.256	15.958	839.734	631.661
328.270	15.970	839.008	631.105
329.285	16.046	838.188	630.717
330.300	15.969	837.679	629.989
331.314	16.129	837.201	630.170
332.329	16.088	836.865	629.709
333.343	16.217	836.308	629.718
334.358	16.210	835.983	629.391
335.373	16.172	835.358	628.724
336.387	16.148	835.342	628.564
337.402	16.283	835.123	628.847
338.416	16.240	835.126	628.633
339.431	16.325	834.384	628.337
340.446	16.345	834.059	628.110
341.460	16.448	833.467	627.990
342.475	16.547	832.656	627.693
343.489	16.375	832.888	627.171
344.504	16.537	832.217	627.214
345.519	16.567	831.502	626.732
346.533	16.590	830.592	626.075
347.548	16.375	830.711	625.313
348.562	16.294	829.968	624.396
349.577	16.409	829.137	624.144
350.592	16.418	828.517	623.653
351.606	16.443	827.965	623.275
352.621	16.468	827.273	622.789
353.635	16.413	826.777	622.160
354.650	16.434	826.350	621.860
355.665	16.509	825.563	621.489
356.679	16.556	824.689	620.951
357.694	16.628	824.287	620.856
358.708	16.647	823.626	620.375
359.723	16.487	823.172	619.388
360.738	16.608	822.304	619.125
361.752	16.660	821.849	618.917
362.767	16.779	821.270	618.860
363.781	16.736	820.758	618.265
364.796	16.784	820.527	618.209
365.810	16.857	820.292	618.244
366.825	16.734	819.963	617.492
367.840	16.722	819.651	617.159
368.854	16.790	819.013	616.874
369.869	16.686	818.464	616.025
370.883	16.863	818.331	616.514
371.898	16.901	817.681	616.109
372.913	16.818	817.361	615.512
373.927	17.017	816.835	615.785
374.942	17.016	816.117	615.186
375.956	16.990	815.890	614.864
376.971	17.051	815.228	614.533
377.986	17.059	815.036	614.364
379.000	17.123	814.610	614.218
380.015	17.076	814.039	613.565
381.029	17.092	813.415	613.096
382.044	17.238	812.634	612.979
383.059	17.247	812.227	612.651
384.073	17.142	811.650	611.785
385.088	17.178	810.721	611.158
386.102	16.889	810.724	610.067
387.117	16.929	809.879	609.523
388.132	17.178	809.018	609.714
389.146	17.188	808.663	609.426
390.161	17.171	808.604	609.268
391.175	17.182	808.018	608.813
392.190	17.126	807.582	608.228
393.205	17.056	807.054	607.526
394.219	17.033	806.787	607.189
395.234	17.059	806.463	606.985
396.248	17.050	805.670	606.305
397.263	17.072	805.231	605.999
398.278	17.028	804.894	605.535
399.292	17.168	804.647	605.793
400.307	17.126	804.050	605.139
401.321	17.093	803.588	604.621
402.336	17.097	803.233	604.316
403.350	17.242	802.676	604.359
404.365	17.285	802.185	604.088
405.380	17.314	801.791	603.841
406.394	17.312	801.232	603.361
407.409	17.551	800.749	603.788
408.423	17.511	800.432	603.357
409.438	17.561	800.173	603.286
410.453	17.438	800.193	602.811
411.467	17.387	799.502	602.055
412.482	17.602	798.858	602.279
413.496	17.658	798.746	602.337
414.511	17.562	798.271	601.587
415.526	17.624	797.885	601.464
416.540	17.513	797.382	600.637
417.555	17.700	796.392	600.499
418.569	17.707	796.192	600.320
419.584	17.679	795.857	599.913
420.599	17.606	795.806	599.564
421.613	110.325	1292.987	1471.617
422.628	94.873	1365.387	1471.709
