DTS Sentinel unit serial number:	SN413079Multiplexer serial number:	ORYXHardware model number:	OX4-SRSoftware version number:	ORYX F/W v4.00 Oryx Data Collector v3.7.2.0data status	okinstallation	princeton_trtdifferential loss correction	single-endedforward channel	channel 1reverse channel	N/Adate	2019/09/11time	12:32:11forward acquisition time	60.00reverse acquisition time	0.00gamma	496.2192k internal	0.2294k external	0.2294temperature offset calibration	0.9946default loss term (dB/km)	0.3790temperature slope calibration	1.0000multiplexer offset coefficient	1.0000multiplexer slope coefficient	1.0000fibre end	0.00T internal ref (°C)	40.56T ext. ref 1 (°C)	0.21T ext. ref 2 (°C)	37.91length (m)	temperature (°C)	Stokes	anti-Stokes-747.200	292.655	0.126	0.235
-746.185	564.905	0.097	0.241
-745.171	800.000	0.115	0.396
-744.156	125.616	-0.126	0.163
-743.142	32.872	0.108	-0.096
-742.127	-142.461	-0.297	0.030
-741.112	-21.678	0.150	-0.093
-740.098	800.000	0.059	0.166
-739.083	10.663	0.192	0.149
-738.069	255.888	0.101	0.177
-737.054	-45.798	0.134	0.068
-736.039	291.647	-0.041	0.077
-735.025	-149.350	-0.132	-0.011
-734.010	213.325	0.125	-0.201
-732.996	580.446	0.048	-0.120
-731.981	800.000	-0.060	-0.211
-730.966	517.205	-0.157	0.375
-729.952	389.303	0.062	0.131
-728.937	-200.000	0.001	0.023
-727.923	-90.108	-0.124	0.037
-726.908	-11.056	-0.302	0.204
-725.894	-57.329	-0.101	0.045
-724.879	71.023	-0.195	-0.206
-723.864	51.834	-0.071	0.069
-722.850	633.024	-0.075	-0.195
-721.835	163.346	0.086	0.124
-720.821	-15.803	-0.414	0.270
-719.806	-200.000	0.011	-0.223
-718.791	-200.000	0.020	-0.148
-717.777	298.614	-0.118	-0.221
-716.762	-79.924	0.449	-0.154
-715.748	297.196	0.137	-0.256
-714.733	179.417	-0.187	-0.279
-713.718	124.689	0.151	-0.195
-712.704	-0.759	0.080	0.058
-711.689	-39.101	-0.123	-0.066
-710.675	-200.000	0.001	-0.286
-709.660	35.605	-0.196	-0.176
-708.645	800.000	0.054	0.223
-707.631	16.056	0.090	0.072
-706.616	-126.153	-0.089	-0.014
-705.602	-42.949	-0.180	0.093
-704.587	800.000	-0.060	-0.238
-703.572	-46.678	0.320	0.160
-702.558	-158.366	0.264	-0.016
-701.543	212.174	0.034	0.055
-700.529	-200.000	-0.016	-0.196
-699.514	-136.062	0.172	-0.021
-698.499	359.894	-0.067	-0.137
-697.485	-139.275	-0.310	0.034
-696.470	9.051	-0.157	0.121
-695.456	-81.686	-0.145	0.048
-694.441	-84.438	0.257	-0.083
-693.426	25.333	-0.144	-0.122
-692.412	-81.200	0.127	-0.043
-691.397	69.076	0.091	0.096
-690.383	-160.475	-0.322	0.018
-689.368	-10.727	-0.200	0.135
-688.354	-190.701	0.157	-0.002
-687.339	425.070	-0.050	0.110
-686.324	-44.720	0.274	0.139
-685.310	-28.980	-0.185	0.109
-684.295	107.607	-0.186	-0.226
-683.281	140.111	0.166	-0.223
-682.266	256.974	0.076	-0.134
-681.251	-73.471	0.197	-0.073
-680.237	-200.000	-0.010	0.130
-679.222	-101.255	-0.225	0.056
-678.208	-31.080	0.097	0.056
-677.193	800.000	-0.062	-0.243
-676.178	-200.000	-0.047	0.220
-675.164	-200.000	0.010	-0.215
-674.149	213.644	0.134	-0.217
-673.135	-63.652	0.111	0.047
-672.120	120.849	0.086	0.109
-671.105	-156.973	0.113	-0.007
-670.091	12.847	0.273	0.215
-669.076	-200.000	0.344	0.002
-668.062	327.847	-0.125	0.245
-667.047	-55.880	-0.224	-0.102
-666.032	346.885	-0.096	-0.192
-665.018	379.379	-0.103	0.215
-664.003	-109.811	-0.087	0.019
-662.989	-108.586	-0.048	0.010
-661.974	219.310	0.137	0.223
-660.959	20.208	-0.268	-0.221
-659.945	-37.167	-0.225	0.123
-658.930	240.195	0.108	-0.184
-657.916	29.866	0.166	-0.144
-656.901	293.147	-0.114	-0.211
-655.886	-78.293	-0.283	-0.099
-654.872	-156.308	0.405	0.026
-653.857	141.438	0.051	0.069
-652.843	-200.000	-0.029	-0.190
-651.828	-119.708	0.249	-0.044
-650.814	-200.000	0.013	-0.207
-649.799	-131.449	0.338	0.045
-648.784	-200.000	0.029	0.197
-647.770	198.934	0.106	0.166
-646.755	800.000	0.061	0.254
-645.741	40.272	-0.204	-0.187
-644.726	471.068	-0.128	-0.293
-643.711	690.778	-0.027	-0.073
-642.697	-184.182	0.392	-0.007
-641.682	-19.379	-0.202	0.128
-640.668	-21.036	-0.269	0.168
-639.653	-42.878	-0.159	0.082
-638.638	-200.000	-0.005	0.139
-637.624	-94.178	0.248	-0.069
-636.609	-103.440	-0.119	0.028
-635.595	13.204	0.226	0.178
-634.580	-90.569	0.099	-0.029
-633.565	-172.416	-0.268	0.009
-632.551	-200.000	-0.015	-0.070
-631.536	800.000	0.079	0.247
-630.522	365.922	0.085	-0.175
-629.507	411.195	-0.098	-0.213
-628.492	-103.038	-0.217	0.052
-627.478	179.789	0.064	-0.096
-626.463	-200.000	0.002	0.080
-625.449	-93.837	-0.330	-0.093
-624.434	-200.000	0.037	0.224
-623.419	-200.000	0.022	-0.116
-622.405	29.284	-0.129	-0.112
-621.390	115.542	-0.264	0.329
-620.376	800.000	-0.040	0.156
-619.361	-154.654	0.130	0.009
-618.346	-69.365	0.245	-0.096
-617.332	-95.704	0.066	0.018
-616.317	200.662	-0.099	-0.155
-615.303	800.000	0.035	0.138
-614.288	67.523	-0.274	0.285
-613.273	-75.658	0.275	0.099
-612.259	-200.000	0.027	-0.204
-611.244	-200.000	-0.360	-0.001
-610.230	-200.000	-0.027	-0.326
-609.215	417.761	0.026	0.055
-608.201	-45.924	-0.215	-0.108
-607.186	12.718	-0.142	0.111
-606.171	14.756	0.242	0.192
-605.157	-23.577	-0.145	0.089
-604.142	126.394	-0.149	-0.192
-603.128	-86.552	-0.198	-0.062
-602.113	23.194	0.400	0.334
-601.098	-37.746	0.038	0.021
-600.084	300.992	-0.078	-0.147
-599.069	-61.693	-0.149	-0.064
-598.055	210.236	0.074	-0.119
-597.040	-123.533	-0.421	-0.068
-596.025	95.340	-0.147	0.170
-595.011	-31.054	0.278	0.160
-593.996	-43.376	-0.157	-0.081
-592.982	91.249	-0.179	0.204
-591.967	800.000	-0.048	-0.210
-590.952	800.000	0.063	0.206
-589.938	-102.230	0.046	-0.011
-588.923	343.063	-0.154	-0.307
-587.909	-146.342	0.178	0.016
-586.894	33.002	0.050	0.044
-585.879	800.000	0.102	-0.375
-584.865	-46.977	0.120	0.059
-583.850	-200.000	-0.016	0.121
-582.836	144.274	-0.112	0.152
-581.821	78.615	-0.287	-0.312
-580.806	163.047	0.132	0.189
-579.792	-200.000	-0.018	0.130
-578.777	223.332	-0.073	-0.119
-577.763	45.643	-0.211	-0.198
-576.748	3.021	0.096	0.071
-575.733	-1.346	0.113	0.081
-574.719	-200.000	0.081	-0.367
-573.704	800.000	-0.093	0.276
-572.690	-85.766	-0.302	-0.095
-571.675	800.000	0.078	0.309
-570.661	-200.000	-0.021	0.279
-569.646	651.034	0.128	0.332
-568.631	62.451	0.079	-0.080
-567.617	-143.902	0.111	0.011
-566.602	-200.000	-0.001	-0.145
-565.588	256.506	0.233	0.407
-564.573	11.960	0.373	0.291
-563.558	-200.000	0.021	-0.131
-562.544	645.579	-0.071	-0.184
-561.529	-6.633	-0.114	-0.078
-560.515	1.614	-0.151	0.110
-559.500	-180.746	0.355	-0.007
-558.485	111.642	0.162	0.199
-557.471	381.601	-0.097	0.202
-556.456	800.000	0.016	-0.066
-555.442	580.094	-0.044	-0.109
-554.427	-200.000	0.059	-0.291
-553.412	66.434	-0.193	-0.199
-552.398	179.266	0.107	0.159
-551.383	-126.161	-0.440	-0.067
-550.369	-200.000	-0.026	-0.360
-549.354	-85.539	-0.128	0.040
-548.339	-44.619	0.182	-0.092
-547.325	-200.000	-0.012	-0.478
-546.310	-200.000	0.003	-0.110
-545.296	206.961	-0.110	-0.174
-544.281	387.785	0.063	0.132
-543.266	-83.086	-0.118	-0.039
-542.252	-200.000	0.002	-0.135
-541.237	-36.540	-0.142	-0.077
-540.223	-200.000	-0.068	-0.617
-539.208	-200.000	0.020	-0.143
-538.193	-9.626	-0.287	0.194
-537.179	-69.246	0.173	-0.067
-536.164	-67.226	-0.363	0.145
-535.150	-120.832	0.155	-0.027
-534.135	170.413	0.135	-0.196
-533.121	-200.000	-0.038	-0.196
-532.106	272.039	0.107	0.192
-531.091	-1.859	0.267	-0.190
-530.077	120.326	-0.163	-0.205
-529.062	-46.186	0.201	0.100
-528.048	381.477	-0.058	-0.121
-527.033	-200.000	0.023	-0.224
-526.018	-144.676	-0.112	-0.010
-525.004	-200.000	-0.047	0.322
-523.989	78.901	0.115	-0.124
-522.975	-98.904	-0.161	-0.041
-521.960	205.486	-0.143	-0.225
-520.945	290.985	0.231	0.426
-519.931	326.875	0.060	0.116
-518.916	-200.000	0.013	-0.313
-517.902	800.000	0.079	-0.311
-516.887	-68.663	0.190	0.075
-515.872	54.393	0.369	-0.360
-514.858	-200.000	0.011	0.077
-513.843	181.821	0.134	0.201
-512.829	-200.000	0.008	-0.322
-511.814	397.732	-0.059	-0.125
-510.799	34.646	0.213	0.188
-509.785	391.209	0.046	-0.096
-508.770	-31.315	0.075	-0.043
-507.756	267.484	-0.152	0.269
-506.741	81.942	-0.122	-0.134
-505.726	114.680	-0.178	0.220
-504.712	328.129	0.071	0.137
-503.697	69.623	-0.307	0.321
-502.683	-70.371	0.403	0.155
-501.668	-200.000	-0.009	0.247
-500.653	323.865	0.109	0.211
-499.639	-8.260	0.137	-0.094
-498.624	-80.868	0.207	-0.070
-497.610	-0.532	0.150	-0.108
-496.595	-82.926	-0.203	-0.066
-495.581	74.167	-0.184	-0.196
-494.566	-34.620	-0.260	-0.144
-493.551	800.000	-0.054	-0.198
-492.537	71.031	-0.015	-0.016
-491.522	-200.000	-0.026	-0.193
-490.508	58.419	0.040	-0.039
-489.493	-130.255	-0.130	0.018
-488.478	86.655	0.083	0.092
-487.464	26.647	0.085	0.072
-486.449	41.587	0.322	-0.295
-485.435	800.000	-0.068	-0.284
-484.420	111.081	0.148	-0.181
-483.405	-3.521	-0.213	-0.150
-482.391	8.049	-0.013	-0.010
-481.376	54.389	-0.110	-0.107
-480.362	37.421	-0.062	-0.056
-479.347	-170.242	0.031	0.001
-478.332	-200.000	-0.071	0.360
-477.318	-177.282	0.033	-0.001
-476.303	-10.519	-0.097	0.065
-475.289	-200.000	0.029	0.153
-474.274	-200.000	0.026	0.179
-473.259	27.905	0.264	0.225
-472.245	-59.860	-0.238	-0.103
-471.230	18.752	-0.351	0.284
-470.216	-126.783	0.070	-0.010
-469.201	-136.503	-0.149	-0.017
-468.186	55.658	-0.269	0.264
-467.172	800.000	-0.046	0.146
-466.157	-129.404	-0.127	-0.018
-465.143	69.361	0.307	0.320
-464.128	36.514	-0.213	0.190
-463.113	96.985	-0.036	0.041
-462.099	-200.000	0.016	-0.080
-461.084	-98.243	-0.280	-0.073
-460.070	744.346	0.072	0.195
-459.055	-59.547	0.172	0.075
-458.040	-42.732	0.086	0.044
-457.026	-51.091	0.236	-0.112
-456.011	-150.426	-0.186	-0.014
-454.997	57.885	-0.222	0.219
-453.982	24.912	-0.247	0.207
-452.968	800.000	0.057	0.222
-451.953	341.430	-0.109	0.215
-450.938	-155.339	-0.474	-0.031
-449.924	125.133	-0.042	0.054
-448.909	70.429	0.081	-0.085
-447.895	64.783	0.083	-0.085
-446.880	101.143	0.126	-0.148
-445.865	-200.000	0.003	0.120
-444.851	-157.215	0.246	0.015
-443.836	-148.211	-0.136	-0.011
-442.822	748.425	0.106	-0.289
-441.807	-74.814	-0.137	0.050
-440.792	76.880	0.105	-0.113
-439.778	-5.096	-0.246	-0.171
-438.763	35.724	0.103	-0.091
-437.749	-200.000	0.044	0.240
-436.734	-200.000	0.027	-0.236
-435.719	-108.720	-0.119	-0.026
-434.705	-200.000	-0.016	-0.224
-433.690	-198.532	-0.144	-0.001
-432.676	226.691	-0.090	0.148
-431.661	41.626	0.131	-0.119
-430.646	232.551	-0.235	-0.391
-429.632	243.567	-0.203	-0.344
-428.617	800.000	-0.044	0.147
-427.603	18.404	-0.144	-0.116
-426.588	-90.452	-0.129	0.038
-425.573	-180.525	0.097	-0.002
-424.559	-200.000	-0.012	0.067
-423.544	28.363	-0.242	-0.207
-422.530	-72.620	-0.080	0.030
-421.515	-72.736	0.227	-0.084
-420.500	-93.019	0.247	-0.069
-419.486	-36.742	-0.118	-0.064
-418.471	-200.000	-0.035	-0.303
-417.457	261.583	-0.287	-0.502
-416.442	800.000	0.066	0.225
-415.428	-88.862	0.048	0.014
-414.413	-3.226	0.061	0.043
-413.398	190.469	-0.111	0.169
-412.384	-8.602	-0.224	-0.152
-411.369	-113.017	0.484	-0.097
-410.355	-200.000	0.040	0.422
-409.340	-16.636	-0.113	0.072
-408.325	800.000	0.032	-0.105
-407.311	800.000	-0.079	-0.282
-406.296	-31.886	0.225	-0.127
-405.282	522.927	0.057	0.135
-404.267	148.064	-0.140	0.190
-403.252	800.000	-0.023	-0.085
-402.238	-97.369	-0.256	0.067
-401.223	-142.682	0.207	0.020
-400.209	-79.060	0.076	-0.026
-399.194	-143.462	0.338	-0.033
-398.179	-200.000	-0.058	0.261
-397.165	-44.840	-0.307	0.155
-396.150	-129.046	0.148	-0.021
-395.136	800.000	-0.077	0.244
-394.121	172.514	-0.143	-0.208
-393.106	-39.720	0.188	0.099
-392.092	371.102	0.106	0.218
-391.077	-58.231	0.132	0.058
-390.063	378.969	-0.106	0.219
-389.048	-98.108	-0.028	0.007
-388.033	800.000	-0.055	0.228
-387.019	206.850	0.154	0.241
-386.004	592.911	0.112	-0.280
-384.990	76.537	-0.096	0.103
-383.975	340.290	0.124	0.244
-382.960	112.422	0.087	0.106
-381.946	-143.218	0.122	0.012
-380.931	37.841	0.252	-0.226
-379.917	43.208	-0.204	-0.188
-378.902	-200.000	-0.004	-0.267
-377.888	-200.000	0.071	0.319
-376.873	85.375	0.072	0.080
-375.858	244.675	-0.078	-0.131
-374.844	-138.068	-0.216	0.024
-373.829	50.741	-0.268	-0.256
-372.815	-7.220	-0.074	0.051
-371.800	-78.341	0.266	-0.092
-370.785	60.270	0.044	0.044
-369.771	-200.000	0.019	-0.118
-368.756	-125.889	-0.132	0.020
-367.742	779.395	0.018	-0.050
-366.727	800.000	0.052	0.209
-365.712	800.000	-0.070	0.227
-364.698	93.076	-0.162	-0.185
-363.683	-112.859	0.145	0.029
-362.669	-133.395	-0.182	0.023
-361.654	-78.377	-0.042	-0.015
-360.639	-53.776	-0.075	0.035
-359.625	800.000	-0.042	-0.185
-358.610	-99.384	-0.165	0.042
-357.596	275.476	-0.023	-0.042
-356.581	-3.335	0.146	0.102
-355.566	310.627	0.097	0.183
-354.552	8.361	0.110	-0.083
-353.537	625.574	-0.129	0.327
-352.523	-102.122	0.138	-0.033
-351.508	21.656	0.097	-0.079
-350.493	-193.524	-0.095	-0.001
-349.479	9.472	0.473	0.360
-348.464	-101.336	-0.080	-0.020
-347.450	57.033	0.131	-0.129
-346.435	70.028	0.377	0.392
-345.420	31.638	0.051	0.044
-344.406	-64.558	0.114	0.047
-343.391	-113.191	0.162	0.032
-342.377	48.270	0.155	-0.146
-341.362	800.000	0.094	0.324
-340.348	-44.083	0.143	0.072
-339.333	169.350	-0.162	0.233
-338.318	355.308	0.111	0.222
-337.304	106.965	0.086	-0.102
-336.289	10.452	0.039	-0.030
-335.275	141.245	-0.137	-0.183
-334.260	-108.251	0.342	0.074
-333.245	-200.000	0.044	-0.243
-332.231	115.545	0.005	-0.006
-331.216	582.950	0.054	0.133
-330.202	-9.092	0.218	-0.147
-329.187	-200.000	-0.014	-0.093
-328.172	-88.251	-0.151	0.045
-327.158	-200.000	-0.068	0.385
-326.143	-132.347	-0.176	0.023
-325.129	-154.663	0.367	0.025
-324.114	-200.000	-0.002	0.239
-323.099	-67.209	0.272	0.108
-322.085	29.451	0.153	-0.131
-321.070	-200.000	-0.045	0.318
-320.056	-200.000	-0.182	-0.001
-319.041	-17.892	0.064	0.040
-318.026	7.018	0.171	0.128
-317.012	-109.158	0.176	-0.038
-315.997	-35.691	0.174	-0.095
-314.983	354.119	0.129	-0.259
-313.968	800.000	0.038	0.110
-312.953	-200.000	-0.004	0.115
-311.939	25.896	-0.031	-0.026
-310.924	-200.000	-0.006	-0.146
-309.910	73.995	0.193	0.203
-308.895	-69.767	0.143	-0.055
-307.880	-26.016	0.308	0.182
-306.866	-108.759	-0.232	0.050
-305.851	-110.344	-0.093	-0.019
-304.837	305.048	-0.190	0.354
-303.822	-103.520	-0.043	0.010
-302.807	130.886	0.119	0.153
-301.793	600.001	-0.157	0.392
-300.778	-58.260	0.446	-0.195
-299.764	-200.000	-0.052	-0.235
-298.749	-47.431	0.104	-0.051
-297.735	326.078	-0.048	-0.092
-296.720	-108.655	-0.199	0.043
-295.705	800.000	0.157	-0.687
-294.691	-200.000	0.078	-0.401
-293.676	189.208	0.044	-0.066
-292.662	-200.000	0.014	-0.114
-291.647	-200.000	-0.009	0.112
-290.632	167.224	0.122	0.174
-289.618	-8.465	-0.250	0.169
-288.603	524.577	0.009	-0.022
-287.589	800.000	-0.021	0.065
-286.574	441.884	0.135	-0.297
-285.559	-80.440	0.405	0.136
-284.545	-57.854	-0.163	-0.072
-283.530	-80.971	-0.116	0.039
-282.516	-84.757	0.208	-0.066
-281.501	69.964	-0.164	-0.170
-280.486	-179.239	-0.329	-0.007
-279.472	-121.901	0.438	-0.073
-278.457	245.781	-0.042	0.071
-277.443	-29.741	0.082	-0.047
-276.428	462.295	-0.179	0.401
-275.413	-26.993	-0.250	0.146
-274.399	800.000	0.068	0.252
-273.384	-66.383	0.161	-0.064
-272.370	55.402	0.272	-0.264
-271.355	-114.822	0.107	-0.020
-270.340	-200.000	0.026	-0.283
-269.326	-200.000	0.013	-0.276
-268.311	-1.042	-0.120	-0.085
-267.297	359.617	-0.124	-0.249
-266.282	171.304	-0.093	0.134
-265.267	-200.000	-0.006	-0.133
-264.253	360.004	0.177	-0.355
-263.238	-48.476	0.102	-0.049
-262.224	800.000	0.036	-0.123
-261.209	515.241	0.016	-0.038
-260.195	110.419	-0.229	-0.276
-259.180	-150.895	-0.273	0.021
-258.165	-88.779	-0.173	-0.052
-257.151	494.623	0.040	0.092
-256.136	116.182	0.129	-0.158
-255.122	87.247	0.015	0.017
-254.107	18.540	0.148	-0.119
-253.092	-170.297	-0.276	-0.010
-252.078	-142.412	-0.289	-0.029
-251.063	-155.729	-0.219	-0.014
-250.049	-146.529	0.288	-0.025
-249.034	-200.000	-0.005	0.071
-248.019	-24.576	0.371	0.222
-247.005	-190.387	-0.101	0.001
-245.990	-200.000	-0.005	-0.149
-244.976	104.827	-0.027	-0.032
-243.961	330.812	0.031	-0.060
-242.946	-60.307	-0.162	0.069
-241.932	-0.014	-0.054	0.039
-240.917	68.951	0.021	-0.021
-239.903	4.445	-0.240	0.177
-238.888	15.714	-0.194	0.153
-237.873	343.839	0.151	-0.297
-236.859	-54.739	-0.302	0.137
-235.844	-180.706	-0.257	-0.005
-234.830	-77.009	0.180	-0.063
-233.815	-200.000	-0.049	-0.384
-232.800	-129.575	0.234	-0.032
-231.786	78.667	-0.104	-0.112
-230.771	-56.510	-0.159	0.071
-229.757	-200.000	0.027	0.310
-228.742	191.161	-0.109	0.164
-227.727	-129.113	-0.234	-0.033
-226.713	800.000	0.054	-0.178
-225.698	218.893	-0.118	0.189
-224.684	-200.000	0.030	-0.136
-223.669	-156.575	0.183	-0.011
-222.655	224.792	-0.084	-0.137
-221.640	523.704	0.131	-0.308
-220.625	-33.749	-0.070	0.039
-219.611	-143.081	0.145	0.014
-218.596	800.000	-0.105	-0.310
-217.582	-200.000	-0.027	-0.123
-216.567	-71.609	-0.352	0.132
-215.552	-121.380	0.241	0.040
-214.538	-5.165	0.288	0.199
-213.523	-143.704	0.173	-0.016
-212.509	155.859	0.111	-0.153
-211.494	-101.352	-0.202	0.049
-210.479	157.403	0.178	0.246
-209.465	-200.000	-0.016	0.347
-208.450	-200.000	-0.053	0.325
-207.436	-77.879	-0.235	-0.081
-206.421	112.003	0.402	0.486
-205.406	-172.736	-0.116	-0.004
-204.392	-200.000	-0.017	-0.365
-203.377	-200.000	0.037	-0.278
-202.363	800.000	-0.068	-0.218
-201.348	800.000	-0.078	0.300
-200.333	-200.000	0.018	-0.344
-199.319	800.000	-0.084	0.254
-198.304	-29.419	-0.113	-0.065
-197.290	-116.350	-0.268	-0.050
-196.275	16.625	0.242	0.192
-195.260	-145.501	-0.103	0.009
-194.246	379.205	-0.210	0.431
-193.231	-200.000	0.025	0.143
-192.217	71.460	-0.118	-0.122
-191.202	-200.000	-0.014	-0.075
-190.187	-200.000	0.002	-0.055
-189.173	-34.571	0.274	-0.150
-188.158	-41.022	-0.207	-0.107
-187.144	-157.939	0.054	0.003
-186.129	800.000	0.199	0.599
-185.114	-61.958	0.259	0.108
-184.100	550.786	0.094	0.225
-183.085	-200.000	0.020	0.156
-182.071	-200.000	-0.021	-0.395
-181.056	-19.693	0.241	0.149
-180.042	800.000	-0.029	0.086
-179.027	19.786	0.022	-0.018
-178.012	438.894	0.175	-0.382
-176.998	-46.936	0.163	0.080
-175.983	-2.428	0.049	0.034
-174.969	-103.093	-0.102	0.024
-173.954	-86.029	-0.149	0.046
-172.939	111.301	-0.054	-0.066
-171.925	-200.000	0.004	-0.145
-170.910	-111.486	-0.029	-0.006
-169.896	309.745	-0.186	0.348
-168.881	90.336	-0.187	0.209
-167.866	-37.840	0.240	0.127
-166.852	-99.612	-0.287	0.072
-165.837	-17.197	-0.145	-0.091
-164.823	-12.402	-0.255	0.167
-163.808	151.702	0.256	-0.349
-162.793	-11.914	0.247	-0.162
-161.779	-99.154	0.109	0.028
-160.764	98.579	-0.183	-0.211
-159.750	-200.000	-0.014	-0.067
-158.735	-103.790	0.330	0.077
-157.720	474.487	-0.064	-0.145
-156.706	144.197	0.027	0.036
-155.691	654.939	-0.095	0.244
-154.677	-84.649	0.095	0.030
-153.662	-200.000	-0.029	-0.289
-152.647	175.521	-0.045	-0.066
-151.633	206.079	-0.104	-0.161
-150.618	800.000	0.120	-0.331
-149.604	800.000	0.017	0.046
-148.589	0.028	-0.179	0.127
-147.574	-63.485	-0.135	0.055
-146.560	-39.462	-0.320	-0.168
-145.545	-105.284	-0.237	-0.054
-144.531	800.000	0.057	0.200
-143.516	-174.176	0.233	-0.007
-142.502	-133.992	-0.164	0.020
-141.487	800.000	0.137	0.408
-140.472	-64.779	0.180	-0.073
-139.458	3.318	0.347	-0.253
-138.443	-115.919	0.256	0.048
-137.429	-200.000	-0.025	-0.255
-136.414	435.714	-0.182	-0.394
-135.399	-48.712	0.157	-0.075
-134.385	800.000	0.077	0.275
-133.370	717.915	-0.108	0.286
-132.356	42.257	0.196	0.177
-131.341	800.000	0.034	0.121
-130.326	-25.831	-0.081	0.047
-129.312	98.499	0.133	0.153
-128.297	333.122	0.108	0.208
-127.283	800.000	-0.074	-0.287
-126.268	345.002	0.093	0.182
-125.253	-193.206	-0.125	0.001
-124.239	282.494	-0.068	0.121
-123.224	22.773	0.159	-0.130
-122.210	-148.621	0.178	0.014
-121.195	505.852	0.058	0.134
-120.180	39.647	-0.190	0.170
-119.166	10.517	-0.064	0.049
-118.151	800.000	-0.037	0.102
-117.137	-71.992	0.118	0.044
-116.122	-66.566	0.419	-0.166
-115.107	-58.306	-0.077	0.034
-114.093	24.267	-0.235	-0.194
-113.078	39.063	0.133	0.119
-112.064	-200.000	0.036	0.332
-111.049	-200.000	-0.007	0.104
-110.034	-38.719	-0.301	-0.158
-109.020	12.336	-0.182	0.140
-108.005	-28.642	0.214	0.123
-106.991	30.845	0.178	0.152
-105.976	7.933	-0.109	-0.082
-104.962	161.197	-0.136	-0.189
-103.947	-200.000	-0.008	0.149
-102.932	530.220	0.115	0.271
-101.918	-86.550	0.260	-0.079
-100.903	-115.076	0.219	0.041
-99.889	-94.067	0.404	-0.111
-98.874	-26.914	0.264	0.154
-97.859	22.070	0.062	0.050
-96.845	50.700	0.214	0.202
-95.830	-140.537	0.213	-0.022
-94.816	-117.601	0.119	-0.021
-93.801	-200.000	0.018	-0.112
-92.786	196.680	0.066	-0.101
-91.772	-200.000	-0.025	-0.120
-90.757	-200.000	0.022	-0.308
-89.743	-72.327	-0.293	0.108
-88.728	6.372	0.273	-0.202
-87.713	-6.802	-0.117	0.079
-86.699	262.057	-0.161	-0.279
-85.684	-67.182	0.377	-0.148
-84.670	-14.795	-0.259	0.166
-83.655	-200.000	0.032	0.199
-82.640	578.814	0.068	0.165
-81.626	544.683	0.044	0.105
-80.611	18.768	-0.082	0.065
-79.597	69.429	-0.106	-0.109
-78.582	41.694	-0.169	-0.153
-77.567	-200.000	-0.015	0.300
-76.553	-55.897	-0.170	0.076
-75.538	0.391	0.147	-0.104
-74.524	-154.280	-0.059	-0.004
-73.509	-133.392	-0.357	0.045
-72.494	207.014	-0.095	-0.147
-71.480	231.670	0.172	-0.281
-70.465	222.951	-0.151	-0.242
-69.451	182.384	0.057	-0.084
-68.436	54.320	-0.293	-0.281
-67.422	-111.865	0.088	0.018
-66.407	254.800	0.205	-0.349
-65.392	-25.188	0.468	-0.276
-64.378	94.983	-0.211	-0.240
-63.363	-200.000	0.030	0.228
-62.349	184.427	-0.068	0.101
-61.334	-36.469	-0.603	-0.323
-60.319	526.303	-0.185	0.434
-59.305	-200.000	0.104	-0.681
-58.290	610.975	0.398	0.991
-57.276	800.000	0.497	1.680
-56.261	-200.000	75.701	508.504
-55.246	529.094	1330.818	3126.947
-54.232	143.198	2586.901	3425.971
-53.217	116.030	2249.540	2741.238
-52.203	52.630	1689.243	1606.074
-51.188	44.447	1409.318	1288.310
-50.173	40.788	1362.572	1223.054
-49.159	58.803	1398.349	1367.535
-48.144	65.779	1417.003	1429.016
-47.130	44.753	1379.904	1263.122
-46.115	40.729	1362.906	1222.791
-45.100	40.536	1358.176	1217.317
-44.086	40.275	1356.228	1213.922
-43.071	40.404	1353.342	1212.080
-42.057	40.395	1350.931	1209.819
-41.042	40.329	1349.136	1207.760
-40.027	40.422	1347.734	1207.022
-39.013	40.441	1346.253	1205.765
-37.998	40.488	1343.829	1203.832
-36.984	40.487	1342.168	1202.292
-35.969	40.607	1340.433	1201.414
-34.954	40.640	1338.297	1199.650
-33.940	40.613	1337.142	1198.406
-32.925	40.684	1335.685	1197.480
-31.911	40.576	1334.444	1195.669
-30.896	40.633	1332.763	1194.457
-29.881	40.752	1330.709	1193.286
-28.867	40.678	1330.118	1192.265
-27.852	40.724	1328.413	1190.965
-26.838	40.707	1326.974	1189.524
-25.823	40.670	1325.671	1188.088
-24.809	40.655	1323.795	1186.270
-23.794	40.629	1322.767	1185.150
-22.779	40.664	1321.076	1183.795
-21.765	40.654	1319.927	1182.660
-20.750	40.676	1318.607	1181.558
-19.736	40.566	1317.161	1179.562
-18.721	40.429	1316.273	1177.910
-17.706	40.431	1314.743	1176.500
-16.692	40.526	1313.434	1175.846
-15.677	40.587	1312.434	1175.270
-14.663	40.560	1311.101	1173.868
-13.648	40.515	1310.199	1172.746
-12.633	40.497	1309.210	1171.708
-11.619	40.529	1308.430	1171.156
-10.604	40.498	1307.396	1170.001
-9.590	40.427	1306.475	1168.712
-8.575	40.416	1305.407	1167.644
-7.560	40.440	1304.527	1166.952
-6.546	40.489	1303.612	1166.377
-5.531	40.472	1302.208	1164.970
-4.517	40.505	1301.727	1164.687
-3.502	40.534	1300.622	1163.824
-2.487	40.473	1299.933	1162.805
-1.473	40.607	1296.202	1160.202
-0.458	39.829	1281.691	1142.668
0.556	34.570	1261.767	1102.434
1.571	30.723	1265.206	1083.001
2.586	29.515	1279.862	1088.337
3.600	27.987	1268.366	1069.530
4.615	19.552	1189.014	956.036
5.629	6.559	1102.871	819.544
6.644	0.670	1077.801	770.863
7.659	0.194	1074.600	766.084
8.673	0.036	1073.735	764.594
9.688	-0.047	1072.325	763.102
10.702	0.609	1071.012	765.426
11.717	8.280	1083.724	813.667
12.731	19.583	1099.203	883.352
13.746	22.992	1103.451	904.160
14.761	22.462	1101.768	899.994
15.775	22.361	1100.854	898.652
16.790	22.118	1099.902	896.556
17.804	21.950	1099.680	895.440
18.819	22.022	1099.449	895.538
19.834	22.199	1098.535	895.618
20.848	22.155	1098.307	895.127
21.863	22.179	1097.366	894.404
22.877	22.068	1096.803	893.300
23.892	21.988	1096.236	892.352
24.907	22.039	1095.616	892.028
25.921	22.086	1094.561	891.328
26.936	22.122	1092.653	889.879
27.950	22.015	1091.511	888.331
28.965	21.873	1089.329	885.757
29.980	22.048	1087.820	885.336
30.994	22.082	1087.007	884.765
32.009	22.002	1085.992	883.457
33.023	21.979	1084.217	881.819
34.038	22.128	1083.635	882.019
35.053	22.133	1083.019	881.466
36.067	22.155	1082.203	880.834
37.082	22.201	1081.385	880.319
38.096	22.266	1081.082	880.318
39.111	22.285	1080.337	879.731
40.126	22.238	1078.742	878.120
41.140	21.919	1076.998	875.029
42.155	21.762	1075.434	872.898
43.169	21.713	1074.389	871.732
44.184	21.803	1073.226	871.160
45.199	21.786	1072.136	870.114
46.213	21.772	1071.338	869.318
47.228	22.010	1070.263	869.545
48.242	21.862	1069.701	868.283
49.257	22.141	1068.897	868.932
50.271	22.182	1067.876	868.226
51.286	22.159	1067.135	867.435
52.301	22.161	1066.530	866.874
53.315	22.118	1065.269	865.565
54.330	22.256	1064.315	865.388
55.344	22.131	1064.090	864.514
56.359	21.985	1063.250	863.041
57.374	21.936	1061.743	861.498
58.388	22.091	1060.976	861.559
59.403	21.885	1059.952	859.642
60.417	21.659	1059.352	857.974
61.432	21.777	1058.637	857.896
62.447	21.944	1058.105	858.204
63.461	21.982	1057.347	857.702
64.476	21.894	1056.022	856.122
65.490	21.796	1054.955	854.701
66.505	21.795	1054.788	854.487
67.520	21.918	1054.213	854.545
68.534	21.622	1052.785	851.870
69.549	21.379	1051.555	849.618
70.563	21.368	1051.063	849.095
71.578	21.422	1050.455	848.790
72.593	21.193	1049.253	846.630
73.607	21.422	1048.644	847.176
74.622	21.681	1048.502	848.241
75.636	21.748	1047.545	847.716
76.651	21.585	1046.505	846.009
77.666	21.580	1045.778	845.325
78.680	21.552	1045.168	844.620
79.695	21.728	1044.610	844.946
80.709	21.819	1043.478	844.391
81.724	21.667	1042.936	843.146
82.739	21.851	1042.066	843.255
83.753	22.108	1041.769	844.175
84.768	22.312	1041.036	844.486
85.782	22.529	1039.766	844.420
86.797	22.387	1038.922	842.978
87.812	22.343	1037.674	841.683
88.826	22.312	1036.819	840.766
89.841	22.240	1036.089	839.755
90.855	22.333	1035.250	839.446
91.870	22.333	1033.948	838.316
92.884	22.239	1032.898	836.943
93.899	22.208	1031.979	835.975
94.914	22.438	1030.937	836.151
95.928	22.253	1030.183	834.587
96.943	21.966	1028.850	832.071
97.957	21.747	1027.627	829.976
98.972	21.605	1026.481	828.302
99.987	21.882	1025.650	828.867
101.001	21.890	1025.911	829.044
102.016	22.107	1024.399	828.771
103.030	22.059	1023.253	827.547
104.045	21.922	1021.946	825.769
105.060	21.653	1021.424	824.012
106.074	21.774	1020.895	824.079
107.089	22.212	1020.359	825.630
108.103	22.072	1019.093	823.877
109.118	21.833	1017.785	821.626
110.133	21.955	1016.493	821.085
111.147	21.781	1015.445	819.350
112.162	21.610	1014.835	817.988
113.176	21.813	1014.136	818.300
114.191	21.733	1013.265	817.152
115.206	21.381	1012.067	814.473
116.220	21.392	1011.366	813.887
117.235	21.540	1010.495	813.801
118.249	21.611	1009.668	813.394
119.264	21.532	1008.857	812.302
120.279	21.455	1007.959	811.149
121.293	21.690	1006.889	811.308
122.308	21.607	1005.897	810.053
123.322	21.599	1004.735	809.007
124.337	21.469	1003.575	807.400
125.352	20.862	1002.118	803.362
126.366	20.974	1001.058	802.955
127.381	21.653	1001.187	806.114
128.395	21.984	1000.803	807.255
129.410	22.174	999.951	807.369
130.424	22.119	999.080	806.343
131.439	22.121	997.814	805.256
132.454	22.116	996.647	804.220
133.468	22.036	995.970	803.241
134.483	22.275	995.114	803.569
135.497	22.317	994.795	803.433
136.512	22.420	993.539	802.816
137.527	22.510	992.112	802.002
138.541	22.418	991.926	801.365
139.556	22.346	991.388	800.531
140.570	22.412	991.063	800.496
141.585	22.452	989.599	799.423
142.600	22.391	988.218	797.962
143.614	22.731	987.481	798.837
144.629	22.803	986.866	798.592
145.643	22.446	985.460	795.773
146.658	22.384	984.453	794.607
147.673	22.314	982.939	793.001
148.687	22.120	982.267	791.514
149.702	22.100	981.228	790.519
150.716	22.091	979.923	789.355
151.731	22.345	978.961	789.652
152.746	22.458	978.651	789.840
153.760	22.460	978.309	789.500
154.775	22.510	977.766	789.217
155.789	22.413	976.991	788.086
156.804	22.461	975.466	787.002
157.819	22.548	974.659	786.671
158.833	22.671	974.173	786.755
159.848	22.647	972.979	785.618
160.862	22.428	971.885	783.690
161.877	22.536	970.677	783.125
162.892	22.523	969.848	782.329
163.906	22.402	968.884	780.947
164.921	22.417	967.819	780.084
165.935	22.388	967.036	779.256
166.950	22.433	965.980	778.537
167.964	22.562	965.086	778.317
168.979	22.253	963.902	775.928
169.994	22.264	962.905	775.106
171.008	22.479	962.788	775.889
172.023	22.466	961.789	774.961
173.037	22.399	960.347	773.434
174.052	22.219	959.411	771.820
175.067	22.235	959.062	771.544
176.081	22.314	958.360	771.255
177.096	22.307	957.691	770.620
178.110	21.983	956.420	768.112
179.125	21.816	955.753	766.778
180.140	21.938	955.486	767.029
181.154	22.120	955.236	767.557
182.169	22.223	955.178	767.892
183.183	22.644	954.342	768.987
184.198	22.498	953.472	767.584
185.213	22.417	952.718	766.556
186.227	22.450	952.182	766.197
187.242	22.629	951.244	766.153
188.256	22.494	951.155	765.429
189.271	22.602	950.030	764.922
190.286	22.399	948.768	762.962
191.300	21.615	947.816	758.733
192.315	21.022	945.831	754.511
193.329	21.083	945.417	754.376
194.344	21.732	945.930	757.527
195.359	22.269	945.979	759.821
196.373	22.467	944.900	759.739
197.388	22.345	944.486	758.812
198.402	22.333	943.935	758.252
199.417	22.372	943.306	757.846
200.432	21.941	942.458	755.243
201.446	21.826	941.806	754.163
202.461	22.018	940.981	754.260
203.475	21.241	939.196	749.429
204.490	20.452	937.721	744.803
205.504	21.274	938.373	748.781
206.519	21.968	938.254	751.591
207.534	21.999	937.626	751.157
208.548	22.377	937.331	752.468
209.563	22.224	936.390	750.992
210.577	22.207	935.382	750.046
211.592	22.545	935.630	751.621
212.607	22.725	934.465	751.385
213.621	22.690	933.644	750.509
214.636	22.571	933.108	749.504
215.650	22.431	932.323	748.215
216.665	22.584	931.510	748.144
217.680	22.466	931.111	747.257
218.694	22.221	929.376	744.760
219.709	22.142	928.178	743.401
220.723	22.235	928.735	744.177
221.738	22.298	928.094	743.863
222.753	22.350	927.425	743.482
223.767	22.388	926.969	743.208
224.782	22.715	926.523	744.165
225.796	22.614	926.247	743.451
226.811	22.016	924.590	739.536
227.826	21.457	922.707	735.616
228.840	21.552	922.445	735.741
229.855	21.684	921.742	735.668
230.869	21.231	920.843	732.985
231.884	21.555	921.022	734.423
232.899	22.372	921.104	737.850
233.913	22.410	920.314	737.311
234.928	22.193	919.736	735.878
235.942	22.163	919.110	735.183
236.957	22.030	918.294	733.910
237.972	21.899	917.527	732.685
238.986	22.111	917.043	733.117
240.001	21.973	916.396	731.962
241.015	22.135	915.547	731.894
242.030	22.343	915.450	732.619
243.045	22.345	914.836	732.069
244.059	22.583	913.977	732.305
245.074	22.384	913.050	730.671
246.088	22.006	912.058	728.246
247.103	22.283	911.712	729.053
248.117	22.868	911.971	731.620
249.132	23.010	911.526	731.789
250.147	23.100	910.868	731.565
251.161	23.130	910.619	731.425
252.176	23.137	910.018	730.909
253.190	23.257	909.315	730.776
254.205	23.376	909.107	731.034
255.220	23.430	908.018	730.314
256.234	23.206	907.527	728.931
257.249	23.032	906.814	727.580
258.263	23.001	906.198	726.895
259.278	23.186	905.395	726.945
260.293	23.329	904.545	726.785
261.307	23.136	903.995	725.488
262.322	23.104	903.082	724.558
263.336	22.299	900.928	719.477
264.351	21.299	898.850	713.670
265.366	21.229	899.093	713.516
266.380	22.465	899.529	718.844
267.395	22.861	899.511	720.386
268.409	22.831	898.350	719.268
269.424	22.955	898.084	719.497
270.439	23.072	897.633	719.548
271.453	23.144	896.888	719.181
272.468	23.205	896.687	719.204
273.482	23.311	896.167	719.151
274.497	23.083	894.678	716.971
275.512	22.577	894.089	714.384
276.526	22.878	894.139	715.582
277.541	23.221	893.330	716.259
278.555	22.844	892.857	714.289
279.570	22.937	891.888	713.828
280.585	22.987	891.225	713.435
281.599	23.028	890.179	712.701
282.614	22.409	888.812	709.049
283.628	22.344	888.190	708.229
284.643	22.689	888.383	709.710
285.657	22.445	886.920	707.499
286.672	22.064	886.387	705.480
287.687	22.660	886.164	707.632
288.701	22.700	885.944	707.555
289.716	22.395	884.920	705.452
290.730	22.329	884.170	704.526
291.745	22.031	883.106	702.427
292.760	22.271	883.025	703.260
293.774	23.417	883.568	708.211
294.789	23.750	882.851	708.901
295.803	23.644	882.744	708.331
296.818	23.591	882.025	707.482
297.833	23.216	880.562	704.753
298.847	23.007	880.439	703.757
299.862	23.328	879.693	704.377
300.876	23.489	879.651	704.921
301.891	23.419	878.817	703.911
302.906	23.115	877.529	701.610
303.920	23.217	877.204	701.697
304.935	23.595	877.268	703.182
305.949	23.533	876.495	702.255
306.964	23.351	875.411	700.603
307.979	23.342	875.302	700.418
308.993	23.747	875.136	701.827
310.008	23.749	874.577	701.324
311.022	23.377	873.583	698.996
312.037	23.300	872.845	698.041
313.052	23.161	871.849	696.635
314.066	22.191	870.497	691.680
315.081	21.940	869.662	689.969
316.095	22.788	869.809	693.357
317.110	23.304	869.779	695.298
318.125	22.469	868.285	690.767
319.139	21.337	866.754	685.055
320.154	21.436	865.998	684.783
321.168	22.385	866.423	688.772
322.183	23.083	867.008	691.910
323.197	23.253	866.601	692.190
324.212	23.413	866.125	692.371
325.227	23.389	865.285	691.545
326.241	23.357	864.956	691.099
327.256	23.229	863.961	689.742
328.270	23.106	863.316	688.686
329.285	22.952	862.639	687.485
330.300	22.775	862.063	686.278
331.314	23.024	861.439	686.687
332.329	23.225	861.488	687.448
333.343	23.668	860.698	688.474
334.358	23.578	860.663	688.039
335.373	23.458	860.224	687.160
336.387	23.791	860.406	688.537
337.402	24.027	859.882	688.968
338.416	23.789	859.424	687.620
339.431	23.963	859.094	687.967
340.446	23.998	858.859	687.855
341.460	24.039	858.398	687.584
342.475	23.723	857.774	685.801
343.489	23.736	857.431	685.518
344.504	24.107	857.112	686.630
345.519	24.293	856.736	686.987
346.533	24.323	856.403	686.776
347.548	24.266	855.895	686.086
348.562	24.272	855.172	685.470
349.577	24.153	854.622	684.513
350.592	24.192	853.985	684.089
351.606	24.130	853.236	683.192
352.621	24.148	852.411	682.540
353.635	24.043	851.336	681.216
354.650	23.380	850.004	677.555
355.665	22.454	848.261	672.571
356.679	22.830	848.102	673.824
357.694	23.177	847.949	674.964
358.708	23.199	847.230	674.418
359.723	23.525	847.485	675.804
360.738	23.791	847.076	676.430
361.752	23.823	846.746	676.226
362.767	24.311	846.306	677.670
363.781	24.459	845.630	677.631
364.796	24.537	845.108	677.449
365.810	24.616	844.848	677.481
366.825	24.721	844.219	677.314
367.840	24.318	843.704	675.315
368.854	23.992	842.770	673.274
369.869	23.912	842.668	672.832
370.883	24.094	841.770	672.743
371.898	23.966	841.301	671.823
372.913	24.128	840.988	672.127
373.927	24.159	840.437	671.745
374.942	24.272	840.579	672.224
375.956	24.344	839.952	671.932
376.971	24.362	839.871	671.878
377.986	24.587	839.312	672.217
379.000	24.515	838.521	671.254
380.015	24.456	837.504	670.159
381.029	24.372	837.443	669.736
382.044	24.492	837.084	669.838
383.059	24.607	836.318	669.598
384.073	24.592	835.581	668.891
385.088	24.483	834.914	667.891
386.102	24.314	834.222	666.646
387.117	24.429	833.622	666.539
388.132	23.967	832.786	664.087
389.146	23.436	831.560	661.070
390.161	23.864	831.604	662.644
391.175	24.378	831.377	664.320
392.190	24.126	830.236	662.411
393.205	22.751	828.072	655.521
394.219	21.305	826.086	648.529
395.234	21.128	825.823	647.608
396.248	22.607	827.914	654.688
397.263	24.175	828.743	661.109
398.278	24.123	828.375	660.565
399.292	24.015	827.541	659.441
400.307	24.009	826.690	658.682
401.321	24.148	826.438	658.937
402.336	24.293	826.538	659.493
403.350	24.675	826.807	661.064
404.365	24.950	826.396	661.694
405.380	25.223	825.844	662.201
406.394	25.389	824.909	662.003
407.409	25.253	824.610	661.206
408.423	25.276	824.304	660.983
409.438	25.166	824.141	660.390
410.453	25.405	823.409	660.625
411.467	25.209	823.059	659.565
412.482	25.362	822.372	659.517
413.496	25.518	821.775	659.553
414.511	25.276	821.873	658.684
415.526	25.334	821.320	658.397
416.540	25.194	820.584	657.234
417.555	24.922	820.054	655.757
418.569	25.104	819.514	655.932
419.584	24.968	819.270	655.183
420.599	24.639	818.840	653.579
421.613	93.634	1261.923	1377.918
422.628	80.633	1326.481	1378.037
