DTS Sentinel unit serial number:	SN413079Multiplexer serial number:	ORYXHardware model number:	OX4-SRSoftware version number:	ORYX F/W v4.00 Oryx Data Collector v3.7.2.0data status	okinstallation	princeton_trtdifferential loss correction	single-endedforward channel	channel 1reverse channel	N/Adate	2019/09/17time	07:34:35forward acquisition time	60.00reverse acquisition time	0.00gamma	496.2192k internal	0.2332k external	0.2332temperature offset calibration	0.9967default loss term (dB/km)	0.3790temperature slope calibration	1.0000multiplexer offset coefficient	1.0000multiplexer slope coefficient	1.0000fibre end	0.00T internal ref (°C)	27.19T ext. ref 1 (°C)	0.12T ext. ref 2 (°C)	21.81length (m)	temperature (°C)	Stokes	anti-Stokes-747.200	-121.783	0.084	-0.014
-746.185	800.000	-0.043	0.151
-745.171	800.000	-0.119	-0.368
-744.156	800.000	0.072	0.306
-743.142	-83.178	0.170	0.055
-742.127	-95.623	-0.401	0.108
-741.112	800.000	0.125	-0.458
-740.098	-46.767	-0.112	-0.055
-739.083	800.000	0.010	-0.036
-738.069	-200.000	-0.004	0.094
-737.054	-55.222	0.345	-0.156
-736.039	45.832	-0.181	-0.168
-735.025	6.035	0.194	0.145
-734.010	638.337	-0.043	-0.109
-732.996	30.606	-0.354	-0.305
-731.981	57.697	-0.214	-0.210
-730.966	17.876	-0.082	-0.065
-729.952	800.000	-0.041	-0.152
-728.937	800.000	0.092	-0.378
-727.923	-51.252	-0.139	-0.065
-726.908	-10.220	0.411	-0.274
-725.894	800.000	0.020	-0.079
-724.879	-200.000	-0.009	-0.101
-723.864	800.000	0.096	0.373
-722.850	-178.676	-0.038	0.001
-721.835	800.000	0.033	-0.115
-720.821	502.459	-0.202	-0.468
-719.806	-200.000	0.024	0.210
-718.791	54.426	-0.209	0.202
-717.777	24.617	0.232	0.193
-716.762	-200.000	-0.020	-0.222
-715.748	141.232	-0.194	-0.258
-714.733	-200.000	-0.014	-0.089
-713.718	190.836	0.064	0.097
-712.704	115.154	0.119	0.146
-711.689	-103.937	0.201	-0.047
-710.675	69.876	-0.182	0.188
-709.660	1.557	-0.023	0.016
-708.645	-200.000	-0.006	0.054
-707.631	800.000	0.184	-0.564
-706.616	-110.745	-0.179	-0.037
-705.602	-98.908	-0.120	0.031
-704.587	-109.510	-0.323	-0.069
-703.572	187.354	-0.113	-0.169
-702.558	-200.000	-0.050	0.282
-701.543	800.000	-0.077	0.254
-700.529	-135.585	-0.320	0.038
-699.514	-200.000	-0.072	0.359
-698.499	96.560	0.129	0.149
-697.485	-89.968	-0.265	-0.078
-696.470	-92.533	-0.260	0.073
-695.456	-101.101	-0.168	0.041
-694.441	-60.448	0.137	-0.059
-693.426	800.000	0.097	-0.300
-692.412	10.427	0.092	-0.071
-691.397	227.395	0.038	-0.062
-690.383	66.905	0.197	-0.202
-689.368	800.000	-0.149	-0.412
-688.354	800.000	0.022	-0.074
-687.339	-200.000	0.019	-0.230
-686.324	66.431	0.153	-0.156
-685.310	800.000	-0.065	-0.253
-684.295	-157.605	-0.310	-0.019
-683.281	-200.000	0.021	0.287
-682.266	-74.049	0.197	0.072
-681.251	-200.000	0.027	-0.425
-680.237	192.638	-0.041	-0.062
-679.222	-153.787	-0.146	0.010
-678.208	800.000	-0.067	-0.200
-677.193	138.667	0.069	-0.091
-676.178	-200.000	-0.022	0.426
-675.164	-121.564	0.188	0.031
-674.149	-28.867	-0.150	0.087
-673.135	-200.000	-0.042	-0.467
-672.120	-90.491	-0.223	0.065
-671.105	-136.272	0.200	-0.023
-670.091	-123.005	-0.155	0.025
-669.076	800.000	-0.117	0.504
-668.062	-200.000	-0.031	-0.164
-667.047	-59.755	0.199	-0.086
-666.032	631.711	-0.012	-0.030
-665.018	-48.847	-0.253	-0.121
-664.003	204.382	0.016	0.024
-662.989	-57.500	-0.335	0.148
-661.974	-83.616	0.093	-0.030
-660.959	-5.689	0.405	-0.279
-659.945	367.971	-0.130	-0.263
-658.930	333.136	0.035	0.067
-657.916	7.435	0.048	-0.036
-656.901	-200.000	0.030	0.345
-655.886	-123.346	0.262	0.042
-654.872	-200.000	-0.000	-0.144
-653.857	-196.564	0.444	-0.003
-652.843	-52.632	-0.131	0.061
-651.828	800.000	0.076	-0.284
-650.814	30.706	-0.088	-0.075
-649.799	-66.060	0.162	-0.065
-648.784	331.437	0.096	-0.186
-647.770	-41.483	-0.226	-0.116
-646.755	169.452	-0.103	0.147
-645.741	731.554	0.020	0.054
-644.726	-200.000	-0.057	0.575
-643.711	-71.672	0.083	-0.031
-642.697	-200.000	0.027	-0.207
-641.682	-91.152	-0.281	-0.081
-640.668	142.942	0.210	-0.279
-639.653	47.884	-0.090	0.084
-638.638	800.000	0.101	-0.406
-637.624	-86.471	0.073	0.022
-636.609	-31.449	0.146	0.082
-635.595	34.978	0.156	-0.137
-634.580	-95.791	-0.224	-0.060
-633.565	-6.898	0.322	-0.219
-632.551	21.720	0.230	-0.187
-631.536	105.325	-0.172	-0.203
-630.522	-200.000	-0.006	0.045
-629.507	-200.000	0.037	-0.326
-628.492	-121.391	0.198	-0.033
-627.478	-200.000	-0.009	0.128
-626.463	171.587	0.096	0.138
-625.449	-80.641	-0.155	-0.052
-624.434	65.077	-0.075	-0.076
-623.419	-52.271	-0.083	-0.039
-622.405	-161.888	0.268	0.014
-621.390	-200.000	0.062	-0.288
-620.376	127.070	-0.098	0.124
-619.361	98.079	-0.109	-0.125
-618.346	-53.162	-0.197	-0.090
-617.332	8.397	0.149	0.112
-616.317	-61.438	0.187	0.079
-615.303	-135.232	0.194	-0.023
-614.288	800.000	0.069	0.198
-613.273	-20.827	-0.275	0.168
-612.259	318.996	-0.209	0.396
-611.244	-200.000	0.022	0.273
-610.230	-80.282	-0.032	-0.011
-609.215	33.959	0.199	0.174
-608.201	-113.542	-0.296	-0.058
-607.186	554.650	-0.040	0.095
-606.171	10.572	-0.066	0.051
-605.157	22.835	-0.262	-0.215
-604.142	19.485	-0.100	0.081
-603.128	-64.324	-0.372	0.152
-602.113	-32.459	-0.091	0.051
-601.098	9.026	0.206	-0.156
-600.084	-45.560	-0.201	-0.100
-599.069	-8.232	0.049	0.033
-598.055	145.413	0.035	-0.047
-597.040	-200.000	0.046	0.217
-596.025	37.259	-0.125	0.111
-595.011	79.561	0.115	-0.123
-593.996	-23.909	0.175	0.105
-592.982	-62.246	-0.221	-0.092
-591.967	165.529	0.113	-0.159
-590.952	236.163	-0.087	0.144
-589.938	-124.521	0.146	-0.023
-588.923	800.000	0.093	0.306
-587.909	-200.000	-0.029	-0.222
-586.894	-190.633	-0.151	0.002
-585.879	384.408	0.076	-0.156
-584.865	-130.807	-0.291	0.039
-583.850	-59.427	0.279	0.120
-582.836	-190.076	-0.162	-0.002
-581.821	76.901	-0.080	0.085
-580.806	-58.778	-0.165	0.072
-579.792	131.854	-0.205	0.264
-578.777	-31.453	-0.128	0.072
-577.763	79.521	-0.097	0.104
-576.748	-200.000	0.118	-0.604
-575.733	-93.934	-0.151	0.042
-574.719	11.192	0.039	-0.030
-573.704	112.371	-0.056	0.068
-572.690	142.762	0.012	-0.015
-571.675	6.761	-0.171	-0.127
-570.661	-142.075	0.232	-0.023
-569.646	-200.000	-0.001	0.069
-568.631	800.000	-0.115	-0.325
-567.617	-62.220	0.241	0.101
-566.602	-7.004	0.348	0.236
-565.588	338.357	0.108	0.211
-564.573	91.743	-0.259	0.291
-563.558	-123.240	-0.119	-0.019
-562.544	-14.203	0.108	0.070
-561.529	-110.019	0.398	0.083
-560.515	213.645	-0.222	-0.350
-559.500	-44.082	0.169	0.085
-558.485	-200.000	0.053	0.291
-557.471	-162.250	0.198	-0.010
-556.456	174.808	-0.037	0.053
-555.442	-200.000	0.058	-0.265
-554.427	-176.262	0.046	-0.001
-553.412	123.599	-0.252	-0.316
-552.398	14.049	0.299	0.232
-551.383	-92.917	-0.168	-0.047
-550.369	800.000	0.098	0.273
-549.354	240.119	-0.087	-0.144
-548.339	-1.920	0.345	-0.242
-547.325	10.110	-0.092	0.070
-546.310	-200.000	0.035	0.276
-545.296	-200.000	0.015	-0.083
-544.281	228.247	-0.079	0.129
-543.266	-51.500	-0.335	-0.156
-542.252	-189.336	0.163	0.002
-541.237	14.504	0.267	-0.208
-540.223	250.380	0.057	0.097
-539.208	236.012	-0.120	-0.199
-538.193	13.257	0.066	0.051
-537.179	5.645	0.151	-0.111
-536.164	320.213	-0.137	-0.259
-535.150	800.000	0.025	0.072
-534.135	-80.915	-0.120	0.040
-533.121	-116.217	0.262	-0.049
-532.106	800.000	-0.038	-0.133
-531.091	-200.000	0.005	0.266
-530.077	-200.000	0.010	0.049
-529.062	9.609	-0.263	0.199
-528.048	-200.000	0.041	-0.306
-527.033	208.226	-0.106	-0.165
-526.018	-200.000	0.035	0.396
-525.004	140.438	-0.038	-0.049
-523.989	-123.021	-0.238	-0.038
-522.975	-24.750	0.310	0.184
-521.960	800.000	0.025	0.102
-520.945	-200.000	-0.047	0.254
-519.931	57.294	-0.077	0.075
-518.916	-200.000	-0.018	-0.160
-517.902	161.368	0.130	0.181
-516.887	-45.177	0.241	0.119
-515.872	210.460	-0.183	0.286
-514.858	189.371	-0.008	-0.011
-513.843	-75.017	0.404	-0.144
-512.829	-52.490	0.292	0.135
-511.814	166.136	0.068	-0.096
-510.799	-38.682	-0.117	-0.062
-509.785	-200.000	-0.012	0.114
-508.770	-12.039	-0.168	0.110
-507.756	-45.707	-0.144	0.071
-506.741	459.617	-0.049	-0.108
-505.726	-92.037	-0.430	-0.121
-504.712	-84.739	-0.149	-0.047
-503.697	-110.135	-0.272	0.057
-502.683	219.114	0.131	0.209
-501.668	-200.000	0.005	0.069
-500.653	800.000	-0.109	-0.450
-499.639	-200.000	0.040	-0.352
-498.624	-60.780	0.229	0.097
-497.610	472.919	-0.058	-0.131
-496.595	-84.106	-0.120	-0.038
-495.581	-109.481	-0.085	-0.018
-494.566	-52.431	0.136	-0.063
-493.551	346.916	0.083	0.164
-492.537	-70.707	0.450	-0.169
-491.522	-73.224	0.279	0.102
-490.508	-43.575	-0.068	-0.034
-489.493	-91.519	-0.276	-0.078
-488.478	112.755	0.115	0.139
-487.464	-150.669	0.272	-0.021
-486.449	13.576	0.052	-0.040
-485.435	191.229	0.218	-0.326
-484.420	800.000	0.028	-0.082
-483.405	232.869	0.009	0.015
-482.391	452.770	-0.121	-0.267
-481.376	-200.000	0.050	-0.370
-480.362	-57.362	-0.229	-0.100
-479.347	800.000	-0.031	0.107
-478.332	-82.653	-0.309	0.100
-477.318	-200.000	-0.041	-0.198
-476.303	-200.000	0.021	-0.170
-475.289	115.353	-0.191	-0.233
-474.274	172.108	-0.060	-0.086
-473.259	-160.534	0.324	0.017
-472.245	71.358	0.063	0.065
-471.230	182.466	-0.276	0.405
-470.216	-22.450	0.207	-0.125
-469.201	506.352	0.087	0.200
-468.186	162.636	0.157	-0.219
-467.172	62.865	-0.134	0.133
-466.157	155.583	-0.087	0.120
-465.143	52.845	0.253	0.241
-464.128	112.342	-0.069	-0.083
-463.113	-200.000	-0.052	0.232
-462.099	34.609	-0.206	-0.179
-461.084	-111.064	0.043	0.009
-460.070	21.482	0.164	-0.133
-459.055	296.783	0.084	-0.153
-458.040	42.852	-0.224	-0.203
-457.026	-200.000	-0.039	-0.228
-456.011	-75.859	0.399	-0.141
-454.997	800.000	0.084	-0.291
-453.982	24.240	-0.303	0.249
-452.968	-200.000	0.044	-0.192
-451.953	800.000	-0.147	0.404
-450.938	-37.549	-0.059	0.031
-449.924	800.000	-0.081	-0.280
-448.909	-36.985	0.307	0.164
-447.895	-200.000	-0.043	0.197
-446.880	38.238	-0.191	-0.169
-445.865	-89.608	-0.253	-0.074
-444.851	-56.160	-0.227	-0.100
-443.836	676.761	0.072	0.186
-442.822	34.591	-0.271	0.236
-441.807	448.717	0.035	0.076
-440.792	149.128	0.067	0.090
-439.778	-200.000	-0.076	-0.390
-438.763	28.893	0.239	-0.201
-437.749	-125.045	0.199	-0.030
-436.734	367.692	-0.199	0.400
-435.719	17.745	-0.176	0.139
-434.705	120.886	-0.284	0.351
-433.690	-59.919	0.349	0.148
-432.676	-98.021	0.214	-0.055
-431.661	800.000	0.051	0.154
-430.646	688.558	0.069	-0.179
-429.632	324.212	-0.102	-0.194
-428.617	-200.000	-0.052	-0.249
-427.603	27.694	0.214	0.179
-426.588	-94.462	0.036	-0.010
-425.573	7.126	-0.158	0.117
-424.559	223.424	-0.065	-0.105
-423.544	-16.498	-0.135	-0.085
-422.530	302.536	-0.030	-0.056
-421.515	-200.000	-0.009	0.066
-420.500	110.644	0.139	-0.166
-419.486	-200.000	-0.022	0.278
-418.471	-6.750	0.172	-0.117
-417.457	-200.000	0.003	-0.273
-416.442	366.937	0.141	-0.282
-415.428	-65.269	-0.157	0.063
-414.413	51.221	0.024	-0.023
-413.398	41.487	0.081	-0.073
-412.384	-60.073	0.037	0.016
-411.369	798.106	-0.058	-0.158
-410.355	90.146	-0.073	0.081
-409.340	-15.404	-0.196	0.125
-408.325	-164.658	-0.093	-0.004
-407.311	248.384	0.018	-0.030
-406.296	-200.000	0.016	0.126
-405.282	104.066	0.043	-0.051
-404.267	800.000	0.107	-0.304
-403.252	800.000	0.054	-0.181
-402.238	314.825	0.259	-0.484
-401.223	-188.245	0.136	0.002
-400.209	-30.645	-0.242	0.136
-399.194	-200.000	0.052	0.244
-398.179	-69.493	-0.115	0.044
-397.165	-200.000	0.066	-0.541
-396.150	-72.448	0.134	-0.049
-395.136	-178.293	0.610	-0.014
-394.121	274.118	0.053	0.093
-393.106	32.459	0.428	-0.367
-392.092	137.189	-0.236	-0.306
-391.077	-88.316	-0.058	-0.017
-390.063	518.209	-0.088	0.204
-389.048	800.000	0.034	0.098
-388.033	-200.000	0.052	-0.262
-387.019	-130.111	0.232	0.031
-386.004	-200.000	0.020	-0.093
-384.990	-83.920	-0.202	0.064
-383.975	-85.730	-0.180	0.056
-382.960	153.439	-0.117	-0.158
-381.946	15.521	0.237	-0.185
-380.931	81.094	-0.040	-0.043
-379.917	-7.527	-0.115	-0.077
-378.902	507.585	-0.084	0.193
-377.888	-88.378	-0.106	-0.031
-376.873	418.256	0.038	0.080
-375.858	177.738	-0.145	0.209
-374.844	70.595	-0.248	0.254
-373.829	-47.617	-0.141	-0.068
-372.815	-200.000	-0.048	0.375
-371.800	309.018	-0.210	-0.388
-370.785	383.857	-0.074	0.151
-369.771	-85.179	0.110	0.034
-368.756	201.018	-0.098	0.150
-367.742	-200.000	0.036	0.340
-366.727	-22.891	-0.154	-0.092
-365.712	179.687	0.147	0.214
-364.698	59.903	-0.098	0.096
-363.683	230.921	-0.099	-0.160
-362.669	-27.606	0.157	0.090
-361.654	-38.732	-0.200	-0.104
-360.639	91.222	-0.211	0.235
-359.625	800.000	-0.103	0.294
-358.610	-200.000	-0.042	-0.215
-357.596	800.000	-0.032	0.121
-356.581	597.633	-0.114	-0.279
-355.566	258.686	0.192	-0.327
-354.552	-25.328	0.311	-0.182
-353.537	-116.917	0.218	-0.040
-352.523	-200.000	0.021	-0.124
-351.508	46.687	-0.070	0.064
-350.493	230.938	-0.030	-0.049
-349.479	35.679	-0.213	-0.185
-348.464	203.977	0.112	-0.172
-347.450	-200.000	0.009	-0.062
-346.435	800.000	0.092	0.340
-345.420	446.217	0.087	-0.190
-344.406	260.886	0.137	-0.234
-343.391	800.000	-0.017	-0.072
-342.377	-200.000	0.040	0.229
-341.362	-20.570	-0.123	-0.075
-340.348	-200.000	-0.001	0.094
-339.333	-138.394	0.185	0.020
-338.318	-92.984	0.255	0.070
-337.304	308.086	0.197	-0.363
-336.289	86.300	-0.083	-0.091
-335.275	-142.481	0.201	0.020
-334.260	-200.000	-0.004	-0.280
-333.245	303.202	0.078	0.143
-332.231	-52.564	0.310	-0.142
-331.216	-200.000	0.031	-0.271
-330.202	-117.808	-0.074	-0.013
-329.187	-48.266	-0.286	0.137
-328.172	-92.002	-0.152	0.043
-327.158	-50.316	0.217	-0.102
-326.143	344.761	-0.126	-0.244
-325.129	3.386	0.168	-0.121
-324.114	-128.142	-0.291	0.041
-323.099	-200.000	0.002	-0.047
-322.085	485.698	-0.006	0.013
-321.070	-92.476	-0.450	0.125
-320.056	-200.000	-0.006	0.240
-319.041	268.657	-0.041	0.071
-318.026	-200.000	-0.029	-0.313
-317.012	10.761	-0.013	-0.010
-315.997	-76.851	0.370	0.128
-314.983	36.805	0.027	0.023
-313.968	20.804	0.355	-0.284
-312.953	307.191	-0.091	0.168
-311.939	187.015	-0.065	0.096
-310.924	21.959	0.068	-0.055
-309.910	-104.787	-0.249	0.057
-308.895	22.341	-0.069	-0.056
-307.880	-87.429	-0.166	-0.050
-306.866	-128.376	-0.105	-0.015
-305.851	-70.933	-0.325	0.121
-304.837	100.277	0.259	0.297
-303.822	-200.000	0.008	0.151
-302.807	13.611	-0.202	-0.155
-301.793	-87.495	-0.129	-0.039
-300.778	149.318	-0.175	0.234
-299.764	85.869	0.149	-0.162
-298.749	800.000	0.038	-0.158
-297.735	800.000	-0.018	-0.067
-296.720	76.061	0.127	0.133
-295.705	-171.243	0.279	0.009
-294.691	117.886	-0.152	-0.185
-293.676	341.514	0.108	-0.209
-292.662	-21.055	-0.035	-0.021
-291.647	60.296	-0.268	0.262
-290.632	-200.000	0.009	0.222
-289.618	-6.709	0.130	-0.087
-288.603	-133.187	0.728	-0.091
-287.589	-40.952	-0.233	-0.119
-286.574	-200.000	-0.001	-0.043
-285.559	-200.000	0.007	-0.074
-284.545	-90.596	0.379	0.108
-283.530	-136.328	-0.172	0.020
-282.516	-70.670	-0.087	0.032
-281.501	-29.640	-0.239	-0.135
-280.486	-45.817	0.193	-0.094
-279.472	-80.026	-0.165	-0.055
-278.457	-105.028	0.179	-0.041
-277.443	153.254	0.282	-0.381
-276.428	-52.349	0.224	0.103
-275.413	217.758	0.259	-0.407
-274.399	-84.468	-0.107	0.033
-273.384	-14.611	0.284	0.181
-272.370	800.000	-0.021	0.064
-271.355	-200.000	0.022	0.135
-270.340	-200.000	0.056	0.493
-269.326	228.100	-0.104	0.168
-268.311	-200.000	0.021	0.347
-267.297	-200.000	0.011	0.195
-266.282	-164.787	0.053	0.002
-265.267	-107.161	0.135	0.029
-264.253	800.000	0.068	0.250
-263.238	166.404	0.111	0.155
-262.224	800.000	-0.100	-0.354
-261.209	800.000	-0.085	0.310
-260.195	15.891	0.367	0.285
-259.180	-93.599	-0.214	-0.058
-258.165	-200.000	0.010	0.278
-257.151	22.369	-0.069	0.056
-256.136	-200.000	0.029	-0.134
-255.122	133.891	-0.324	0.414
-254.107	-200.000	-0.083	0.364
-253.092	-8.865	0.250	0.165
-252.078	22.944	0.240	0.194
-251.063	-195.178	0.250	0.002
-250.049	-200.000	-0.045	-0.213
-249.034	-200.000	-0.011	0.107
-248.019	-138.612	-0.183	0.020
-247.005	444.328	0.027	-0.057
-245.990	61.884	-0.232	-0.228
-244.976	-0.343	-0.418	-0.293
-243.961	205.531	-0.126	0.193
-242.946	-138.595	-0.183	0.020
-241.932	288.628	0.067	0.120
-240.917	57.678	-0.134	-0.129
-239.903	-100.006	0.169	-0.041
-238.888	16.329	-0.219	-0.170
-237.873	800.000	-0.089	0.348
-236.859	-84.873	-0.116	-0.036
-235.844	560.939	0.107	0.255
-234.830	77.206	-0.286	0.300
-233.815	-63.632	0.297	-0.120
-232.800	-41.971	-0.198	0.100
-231.786	-2.226	-0.038	0.026
-230.771	-48.024	0.203	-0.097
-229.757	-89.228	0.204	0.059
-228.742	-175.304	-0.282	-0.008
-227.727	-118.371	-0.273	-0.048
-226.713	800.000	-0.046	0.141
-225.698	-18.924	0.260	-0.159
-224.684	-200.000	-0.011	-0.117
-223.669	-200.000	0.059	-0.276
-222.655	239.000	0.014	0.023
-221.640	73.480	-0.169	0.174
-220.625	37.647	0.303	0.265
-219.611	-72.828	-0.246	-0.089
-218.596	45.909	-0.030	0.028
-217.582	800.000	0.038	-0.142
-216.567	-77.288	0.157	-0.054
-215.552	49.644	-0.078	0.072
-214.538	-154.373	0.093	0.006
-213.523	-200.000	-0.022	-0.264
-212.509	-46.231	-0.099	0.048
-211.494	-200.000	-0.007	0.078
-210.479	-69.550	0.272	-0.103
-209.465	322.159	0.098	-0.183
-208.450	800.000	-0.062	0.187
-207.436	-42.513	-0.403	0.202
-206.421	800.000	-0.051	0.187
-205.406	-133.970	0.355	0.043
-204.392	-99.748	-0.111	-0.027
-203.377	107.053	0.084	-0.098
-202.363	-68.621	-0.227	-0.086
-201.348	8.775	0.038	-0.028
-200.333	313.767	-0.135	-0.250
-199.319	800.000	0.077	0.227
-198.304	-200.000	0.015	-0.173
-197.290	-130.348	-0.240	-0.032
-196.275	-57.831	-0.194	-0.084
-195.260	101.887	0.204	0.234
-194.246	-81.486	-0.372	-0.120
-193.231	356.735	-0.049	0.095
-192.217	-98.229	-0.048	0.012
-191.202	-200.000	0.038	-0.215
-190.187	-200.000	-0.020	-0.197
-189.173	-68.272	-0.148	0.057
-188.158	326.262	0.110	0.208
-187.144	-200.000	0.047	0.286
-186.129	62.947	0.212	0.209
-185.114	-200.000	0.068	-0.443
-184.100	-67.012	0.148	-0.058
-183.085	-96.613	-0.300	0.078
-182.071	-118.396	0.137	-0.024
-181.056	-200.000	0.005	0.197
-180.042	292.316	0.142	0.255
-179.027	197.436	-0.121	-0.182
-178.012	-17.874	0.356	0.220
-176.998	-45.122	-0.352	0.172
-175.983	-164.629	0.152	-0.007
-174.969	-147.773	0.382	0.031
-173.954	56.815	0.128	-0.123
-172.939	-98.157	-0.087	-0.022
-171.925	485.136	0.065	-0.146
-170.910	-173.921	0.132	0.004
-169.896	-200.000	0.016	0.283
-168.881	-109.082	-0.505	0.106
-167.866	-32.877	-0.122	-0.067
-166.852	-7.148	-0.357	-0.238
-165.837	-200.000	-0.017	0.167
-164.823	-50.009	0.223	-0.104
-163.808	-10.256	-0.248	0.162
-162.793	-62.454	-0.233	-0.095
-161.779	-200.000	0.015	-0.267
-160.764	230.706	0.051	0.083
-159.750	225.245	-0.208	0.331
-158.735	45.549	-0.200	0.182
-157.720	201.208	-0.152	0.230
-156.706	800.000	0.045	0.181
-155.691	-106.385	0.224	0.049
-154.677	-115.903	0.207	-0.038
-153.662	-65.215	0.301	0.119
-152.647	0.198	0.202	0.142
-151.633	16.151	-0.050	0.039
-150.618	-200.000	0.010	-0.363
-149.604	-47.918	-0.111	0.053
-148.589	74.841	-0.207	-0.214
-147.574	262.802	0.103	0.176
-146.560	104.942	-0.336	-0.389
-145.545	115.824	0.015	-0.018
-144.531	-200.000	0.050	-0.231
-143.516	84.660	-0.221	-0.238
-142.502	800.000	0.025	-0.074
-141.487	181.220	-0.084	0.121
-140.472	-200.000	0.060	-0.301
-139.458	-83.439	-0.358	0.113
-138.443	-47.090	-0.244	0.117
-137.429	-155.459	0.366	-0.023
-136.414	-106.700	-0.169	0.037
-135.399	82.201	-0.093	-0.099
-134.385	-84.684	0.262	0.081
-133.370	127.297	0.156	0.195
-132.356	169.667	-0.174	0.244
-131.341	800.000	-0.027	-0.100
-130.326	518.913	-0.135	0.311
-129.312	340.669	0.060	-0.116
-128.297	-200.000	-0.062	-0.285
-127.283	244.554	0.173	0.286
-126.268	-140.381	0.194	0.020
-125.253	-99.459	0.364	-0.090
-124.239	-200.000	0.003	-0.024
-123.224	800.000	0.011	-0.046
-122.210	800.000	0.051	-0.196
-121.195	68.132	-0.086	-0.086
-120.180	60.233	0.094	-0.091
-119.166	12.437	0.411	-0.311
-118.151	467.291	-0.072	0.157
-117.137	-117.540	0.161	-0.029
-116.122	-27.157	0.065	-0.037
-115.107	-200.000	-0.032	0.530
-114.093	800.000	-0.073	-0.235
-113.078	-102.016	0.245	0.058
-112.064	52.586	-0.192	0.180
-111.049	40.379	0.090	0.080
-110.034	72.200	-0.206	-0.210
-109.020	-200.000	-0.028	-0.253
-108.005	-200.000	-0.030	-0.158
-106.991	133.568	-0.174	0.221
-105.976	-113.663	0.097	-0.019
-104.962	-200.000	0.000	-0.110
-103.947	176.696	-0.232	-0.332
-102.932	-168.634	0.166	0.006
-101.918	-200.000	0.053	-0.282
-100.903	-200.000	-0.057	-0.420
-99.889	-60.659	-0.223	-0.093
-98.874	112.577	-0.013	-0.016
-97.859	-165.818	0.176	0.007
-96.845	2.117	0.127	-0.090
-95.830	-127.946	0.104	0.015
-94.816	800.000	0.079	-0.255
-93.801	-200.000	0.056	0.442
-92.786	441.973	0.074	-0.159
-91.772	-34.329	-0.311	0.167
-90.757	-76.092	0.501	-0.173
-89.743	235.688	-0.075	0.122
-88.728	-35.356	-0.178	-0.095
-87.713	-200.000	0.057	-0.276
-86.699	-200.000	0.077	-0.497
-85.684	-57.872	0.426	0.183
-84.670	-10.675	0.128	-0.083
-83.655	-200.000	-0.010	0.381
-82.640	385.433	0.117	-0.238
-81.626	-200.000	0.037	0.160
-80.611	263.357	-0.151	-0.257
-79.597	79.841	-0.298	0.313
-78.582	-94.492	0.112	0.030
-77.567	216.526	-0.154	-0.241
-76.553	-200.000	0.017	-0.105
-75.538	-88.090	0.121	0.035
-74.524	-51.347	0.085	-0.039
-73.509	598.716	-0.012	0.029
-72.494	-200.000	0.006	-0.191
-71.480	258.155	0.192	0.325
-70.465	-200.000	-0.012	0.064
-69.451	-200.000	-0.013	0.113
-68.436	-143.311	-0.104	0.010
-67.422	-101.433	-0.278	-0.066
-66.407	-200.000	-0.003	0.081
-65.392	124.359	0.086	0.105
-64.378	-132.152	0.216	0.027
-63.363	3.356	0.022	0.016
-62.349	-200.000	-0.008	-0.239
-61.334	135.594	-0.933	-1.190
-60.319	4.385	0.930	0.668
-59.305	800.000	-0.390	-1.178
-58.290	260.409	0.697	1.180
-57.276	639.296	0.635	1.582
-56.261	-200.000	115.283	649.015
-55.246	470.735	1510.986	3327.470
-54.232	147.676	2671.746	3525.606
-53.217	103.470	2146.952	2466.808
-52.203	38.572	1593.376	1391.507
-51.188	30.364	1339.801	1120.711
-50.173	27.663	1300.926	1072.290
-49.159	55.186	1357.579	1284.875
-48.144	53.482	1371.671	1287.971
-47.130	30.706	1327.205	1112.043
-46.115	27.299	1309.580	1077.099
-45.100	27.031	1304.514	1071.310
-44.086	27.073	1302.304	1069.698
-43.071	26.937	1299.665	1066.689
-42.057	27.056	1297.543	1065.602
-41.042	26.936	1296.135	1063.700
-40.027	27.039	1294.585	1062.988
-39.013	27.126	1292.533	1061.775
-37.998	27.051	1290.786	1059.859
-36.984	27.151	1288.832	1058.790
-35.969	27.172	1287.092	1057.441
-34.954	27.349	1285.074	1056.774
-33.940	27.188	1283.917	1054.843
-32.925	27.228	1283.066	1054.336
-31.911	27.256	1281.464	1053.141
-30.896	27.342	1279.495	1051.978
-29.881	27.292	1278.721	1051.008
-28.867	27.295	1277.417	1049.915
-27.852	27.352	1275.362	1048.510
-26.838	27.273	1274.352	1047.184
-25.823	27.151	1273.288	1045.570
-24.809	27.221	1271.951	1044.827
-23.794	27.292	1270.158	1043.721
-22.779	27.280	1269.186	1042.816
-21.765	27.251	1268.506	1042.050
-20.750	27.202	1266.658	1040.209
-19.736	27.238	1265.274	1039.238
-18.721	27.220	1263.847	1037.919
-17.706	27.185	1263.130	1037.090
-16.692	27.199	1261.745	1035.991
-15.677	27.155	1261.061	1035.138
-14.663	27.164	1259.743	1034.064
-13.648	27.083	1258.849	1032.828
-12.633	27.027	1258.370	1032.079
-11.619	27.069	1256.774	1030.968
-10.604	27.101	1256.118	1030.572
-9.590	27.164	1254.899	1029.887
-8.575	27.130	1254.006	1028.921
-7.560	27.116	1253.165	1028.111
-6.546	27.059	1252.414	1027.131
-5.531	27.206	1250.914	1026.690
-4.517	27.197	1250.246	1026.048
-3.502	27.091	1249.856	1025.088
-2.487	27.033	1248.809	1023.866
-1.473	27.109	1244.331	1020.581
-0.458	25.656	1229.629	1000.412
0.556	20.400	1213.107	962.626
1.571	16.657	1219.227	946.505
2.586	15.890	1233.370	953.059
3.600	15.543	1222.227	942.419
4.615	11.438	1150.262	865.136
5.629	4.107	1076.733	773.276
6.644	0.341	1058.390	741.532
7.659	-0.056	1056.831	738.426
8.673	0.097	1055.252	738.004
9.688	0.109	1053.474	736.753
10.702	0.271	1051.917	736.393
11.717	4.856	1058.082	763.149
12.731	12.677	1067.995	808.779
13.746	16.796	1072.322	832.259
14.761	16.949	1072.748	833.269
15.775	16.092	1070.227	827.036
16.790	15.099	1067.782	820.211
17.804	14.371	1066.797	815.821
18.819	14.016	1065.484	813.007
19.834	13.827	1064.289	811.098
20.848	13.623	1063.716	809.593
21.863	13.347	1062.917	807.568
22.877	13.184	1061.871	805.903
23.892	13.201	1061.440	805.590
24.907	13.024	1061.026	804.342
25.921	13.169	1060.487	804.567
26.936	13.238	1059.601	804.162
27.950	13.236	1058.423	803.186
28.965	13.258	1057.382	802.433
29.980	13.371	1056.244	802.043
30.994	13.441	1054.961	801.338
32.009	13.380	1053.967	800.219
33.023	13.388	1052.774	799.279
34.038	13.352	1052.119	798.539
35.053	13.251	1051.179	797.267
36.067	13.357	1049.817	796.672
37.082	13.553	1049.101	797.002
38.096	13.332	1048.461	795.382
39.111	13.288	1048.117	794.840
40.126	13.233	1046.621	793.372
41.140	13.143	1045.349	791.906
42.155	13.140	1044.507	791.185
43.169	13.175	1043.289	790.358
44.184	13.196	1042.310	789.646
45.199	13.201	1041.258	788.804
46.213	13.074	1040.731	787.727
47.228	13.263	1039.303	787.479
48.242	13.198	1038.202	786.268
49.257	13.282	1037.322	785.930
50.271	13.420	1036.317	785.753
51.286	13.233	1036.000	784.559
52.301	13.129	1034.924	783.179
53.315	13.285	1033.757	782.966
54.330	13.262	1032.381	781.746
55.344	13.303	1031.683	781.340
56.359	13.192	1031.280	780.444
57.374	13.213	1030.218	779.670
58.388	13.152	1029.268	778.592
59.403	13.153	1028.202	777.721
60.417	13.110	1027.537	776.950
61.432	13.206	1026.933	776.874
62.447	12.982	1026.185	775.188
63.461	13.112	1025.182	774.971
64.476	13.120	1024.287	774.264
65.490	13.110	1023.368	773.454
66.505	13.099	1023.123	773.150
67.520	13.150	1022.459	772.818
68.534	13.127	1021.907	772.222
69.549	13.054	1020.814	770.991
70.563	13.177	1019.966	770.852
71.578	13.152	1018.954	769.903
72.593	13.008	1018.202	768.598
73.607	12.880	1017.949	767.744
74.622	13.059	1017.260	767.987
75.636	13.025	1016.276	767.020
76.651	13.124	1015.863	767.098
77.666	13.085	1015.108	766.279
78.680	13.046	1014.586	765.636
79.695	13.134	1013.613	765.242
80.709	13.030	1012.871	764.136
81.724	13.206	1012.192	764.370
82.739	13.235	1011.590	763.982
83.753	13.257	1010.681	763.329
84.768	13.529	1009.179	763.377
85.782	13.383	1008.829	762.374
86.797	13.323	1008.059	761.451
87.812	13.150	1007.603	760.241
88.826	13.190	1006.414	759.461
89.841	13.355	1005.152	759.197
90.855	13.424	1004.389	758.873
91.870	13.458	1003.369	758.190
92.884	13.348	1002.643	757.070
93.899	13.249	1002.261	756.260
94.914	13.356	1001.255	755.926
95.928	13.376	1000.607	755.460
96.943	13.238	999.719	754.091
97.957	13.464	998.304	753.987
98.972	13.338	997.703	752.893
99.987	13.336	997.171	752.415
101.001	13.328	996.042	751.461
102.016	13.425	995.144	751.158
103.030	13.403	994.356	750.396
104.045	13.334	993.481	749.357
105.060	13.362	991.972	748.281
106.074	13.134	991.709	746.984
107.089	13.133	990.778	746.214
108.103	13.298	989.212	745.710
109.118	13.287	988.432	745.007
110.133	13.200	987.832	744.100
111.147	13.064	987.272	742.998
112.162	13.229	986.235	742.896
113.176	13.278	985.490	742.487
114.191	13.289	984.557	741.768
115.206	13.293	983.950	741.264
116.220	13.349	983.315	740.970
117.235	13.300	982.293	739.917
118.249	13.228	981.846	739.192
119.264	13.328	980.481	738.544
120.279	13.219	979.673	737.383
121.293	13.273	978.713	736.839
122.308	13.093	978.446	735.770
123.322	13.251	976.997	735.317
124.337	13.276	975.996	734.610
125.352	13.136	975.043	733.205
126.366	13.180	974.595	733.001
127.381	13.330	972.920	732.339
128.395	13.185	972.619	731.408
129.410	13.219	971.408	730.581
130.424	13.232	970.715	730.051
131.439	13.215	969.956	729.341
132.454	13.336	969.242	729.276
133.468	13.283	968.321	728.284
134.483	13.332	967.185	727.580
135.497	13.335	966.518	727.027
136.512	13.258	965.982	726.224
137.527	13.350	964.886	725.736
138.541	13.315	964.003	724.854
139.556	13.294	963.446	724.282
140.570	13.301	963.104	723.988
141.585	13.388	962.096	723.547
142.600	13.348	961.411	722.793
143.614	13.455	960.567	722.562
144.629	13.425	959.957	721.909
145.643	13.573	958.452	721.358
146.658	13.329	958.134	719.993
147.673	13.474	956.829	719.578
148.687	13.354	955.688	718.136
149.702	13.429	954.891	717.801
150.716	13.333	954.467	717.003
151.731	13.386	953.281	716.277
152.746	13.382	953.047	716.019
153.760	13.609	951.898	716.072
154.775	13.479	951.778	715.358
155.789	13.460	951.004	714.632
156.804	13.666	950.427	715.023
157.819	13.580	949.654	714.008
158.833	13.625	949.024	713.663
159.848	13.502	948.310	712.535
160.862	13.740	947.042	712.543
161.877	13.572	946.085	711.038
162.892	13.656	945.236	710.697
163.906	13.531	944.560	709.593
164.921	13.602	943.275	708.864
165.935	13.582	942.274	707.965
166.950	13.500	941.899	707.273
167.964	13.483	941.142	706.566
168.979	13.466	940.193	705.722
169.994	13.588	939.367	705.558
171.008	13.720	938.651	705.517
172.023	13.533	938.227	704.344
173.037	13.791	937.237	704.633
174.052	13.681	936.418	703.488
175.067	13.595	935.927	702.692
176.081	13.585	935.455	702.234
177.096	13.617	934.980	701.948
178.110	13.596	934.283	701.276
179.125	13.702	933.508	701.082
180.140	13.687	933.109	700.654
181.154	13.763	932.241	700.260
182.169	13.795	931.917	700.090
183.183	13.859	931.575	700.041
184.198	13.766	930.278	698.613
185.213	13.775	929.918	698.320
186.227	13.823	929.020	697.787
187.242	13.892	928.421	697.566
188.256	13.804	927.728	696.611
189.271	13.863	926.921	696.194
190.286	13.812	926.133	695.327
191.300	13.852	925.582	695.018
192.315	13.638	924.992	693.616
193.329	13.629	924.722	693.317
194.344	13.774	923.627	693.038
195.359	13.739	923.265	692.560
196.373	13.780	922.818	692.335
197.388	13.911	922.131	692.304
198.402	14.068	921.402	692.351
199.417	14.025	920.694	691.577
200.432	14.078	920.195	691.361
201.446	14.098	919.742	691.044
202.461	14.242	919.029	691.045
203.475	14.242	918.517	690.599
204.490	14.063	917.902	689.331
205.504	14.147	916.869	688.845
206.519	14.110	916.276	688.185
207.534	14.078	915.741	687.588
208.548	14.043	915.207	686.981
209.563	14.097	914.474	686.597
210.577	14.212	913.787	686.493
211.592	14.183	912.718	685.508
212.607	14.335	911.846	685.418
213.621	14.304	911.502	684.972
214.636	14.162	910.877	683.858
215.650	14.182	910.399	683.520
216.665	14.333	909.408	683.335
217.680	14.427	908.435	682.932
218.694	14.218	908.222	681.852
219.709	14.352	907.354	681.689
220.723	14.380	906.638	681.207
221.738	14.254	906.525	680.544
222.753	14.321	905.785	680.206
223.767	14.318	905.059	679.585
224.782	14.408	904.516	679.486
225.796	14.435	904.055	679.190
226.811	14.423	903.378	678.572
227.826	14.451	902.112	677.673
228.840	14.413	901.700	677.148
229.855	14.412	900.999	676.560
230.869	14.574	900.127	676.501
231.884	14.376	899.821	675.408
232.899	14.374	898.892	674.646
233.913	14.484	897.731	674.158
234.928	14.491	897.290	673.794
235.942	14.294	897.163	672.846
236.957	14.320	896.384	672.307
237.972	14.407	895.626	672.027
238.986	14.417	895.094	671.610
240.001	14.369	894.408	670.844
241.015	14.653	893.374	671.149
242.030	14.514	892.899	670.176
243.045	14.505	892.840	670.034
244.059	14.570	892.301	669.834
245.074	14.609	891.320	669.194
246.088	14.609	890.538	668.548
247.103	14.673	890.241	668.521
248.117	14.853	889.662	668.747
249.132	14.872	889.171	668.396
250.147	14.801	888.231	667.346
251.161	14.791	887.793	666.919
252.176	14.795	887.133	666.379
253.190	14.805	886.939	666.213
254.205	14.875	886.000	665.730
255.220	14.970	885.456	665.641
256.234	15.048	884.432	665.120
257.249	14.981	883.963	664.442
258.263	15.014	883.081	663.852
259.278	15.025	882.327	663.272
260.293	15.062	882.080	663.173
261.307	15.122	881.573	662.969
262.322	15.127	880.647	662.237
263.336	15.172	879.716	661.656
264.351	15.120	879.193	660.997
265.366	15.042	878.912	660.418
266.380	15.104	878.340	660.177
267.395	15.171	877.081	659.433
268.409	15.105	876.628	658.775
269.424	15.118	875.896	658.219
270.439	15.113	875.607	657.925
271.453	15.054	874.755	656.995
272.468	15.117	874.142	656.723
273.482	15.123	873.546	656.239
274.497	15.161	872.839	655.798
275.512	15.304	872.182	655.806
276.526	15.227	871.763	655.133
277.541	15.383	871.402	655.413
278.555	15.322	870.652	654.553
279.570	15.440	870.306	654.694
280.585	15.434	869.129	653.730
281.599	15.426	868.250	652.978
282.614	15.331	867.968	652.341
283.628	15.344	867.116	651.691
284.643	15.288	866.946	651.288
285.657	15.360	866.720	651.339
286.672	15.235	866.026	650.278
287.687	15.402	864.982	650.081
288.701	15.360	864.481	649.485
289.716	15.510	863.995	649.643
290.730	15.520	863.371	649.154
291.745	15.550	862.423	648.499
292.760	15.579	862.096	648.309
293.774	15.578	861.201	647.575
294.789	15.614	860.768	647.330
295.803	15.420	860.295	646.170
296.818	15.485	859.298	645.613
297.833	15.547	858.686	645.336
298.847	15.574	858.253	645.058
299.862	15.531	857.930	644.593
300.876	15.672	857.198	644.527
301.891	15.654	856.569	643.928
302.906	15.756	856.144	643.940
303.920	15.750	855.425	643.321
304.935	15.844	854.574	642.984
305.949	15.767	854.240	642.380
306.964	15.787	853.602	641.918
307.979	15.695	853.351	641.322
308.993	15.759	852.466	640.844
310.008	15.771	852.109	640.566
311.022	15.844	851.543	640.362
312.037	15.893	850.611	639.789
313.052	15.859	850.228	639.318
314.066	15.841	849.700	638.794
315.081	15.809	848.899	638.016
316.095	15.738	848.134	637.114
317.110	15.801	847.788	637.037
318.125	15.804	847.371	636.677
319.139	15.693	847.060	635.970
320.154	15.853	846.275	635.927
321.168	15.842	845.778	635.457
322.183	15.705	845.259	634.493
323.197	15.793	845.359	634.846
324.212	15.973	844.409	634.752
325.227	15.897	843.626	633.823
326.241	15.874	842.988	633.200
327.256	15.934	842.569	633.055
328.270	15.806	842.050	632.128
329.285	15.933	841.357	632.030
330.300	15.901	840.540	631.238
331.314	15.987	840.228	631.270
332.329	15.967	839.970	630.948
333.343	16.008	839.507	630.697
334.358	16.020	838.829	630.178
335.373	16.067	838.598	630.122
336.387	16.133	838.263	630.061
337.402	16.061	838.196	629.685
338.416	16.220	837.780	629.910
339.431	16.206	837.331	629.465
340.446	16.146	836.778	628.770
341.460	16.206	836.272	628.560
342.475	16.344	835.581	628.497
343.489	16.278	835.266	627.960
344.504	16.471	834.782	628.257
345.519	16.401	834.244	627.537
346.533	16.436	833.644	627.159
347.548	16.252	833.429	626.259
348.562	16.424	832.660	626.264
349.577	16.255	832.159	625.205
350.592	16.216	831.507	624.518
351.606	16.358	831.058	624.649
352.621	16.266	830.265	623.657
353.635	16.396	829.714	623.670
354.650	16.429	828.955	623.167
355.665	16.279	828.652	622.327
356.679	16.377	827.961	622.117
357.694	16.465	827.130	621.760
358.708	16.415	826.530	621.071
359.723	16.506	825.938	620.905
360.738	16.437	825.268	620.093
361.752	16.447	824.739	619.676
362.767	16.609	824.078	619.718
363.781	16.578	823.753	619.306
364.796	16.594	823.567	619.169
365.810	16.613	822.767	618.583
366.825	16.662	822.838	618.760
367.840	16.681	822.112	618.229
368.854	16.640	821.639	617.671
369.869	16.677	821.124	617.364
370.883	16.792	820.585	617.323
371.898	16.798	820.098	616.923
372.913	16.822	820.011	616.889
373.927	16.726	819.602	616.181
374.942	16.799	818.964	615.910
375.956	16.855	818.646	615.819
376.971	16.942	818.270	615.797
377.986	16.907	817.636	615.140
379.000	16.937	817.327	614.961
380.015	16.983	816.904	614.754
381.029	17.021	816.041	614.190
382.044	16.999	815.587	613.715
383.059	17.054	814.980	613.402
384.073	16.816	814.740	612.307
385.088	16.991	813.630	612.051
386.102	17.055	813.008	611.759
387.117	17.021	812.786	611.416
388.132	17.052	812.207	611.035
389.146	17.038	811.700	610.550
390.161	17.020	811.509	610.288
391.175	16.836	811.312	609.423
392.190	17.072	810.293	609.453
393.205	16.989	809.689	608.645
394.219	16.918	809.884	608.486
395.234	17.037	809.203	608.345
396.248	16.865	808.520	607.161
397.263	16.897	808.198	606.982
398.278	17.021	807.756	607.040
399.292	17.026	807.324	606.679
400.307	16.972	806.974	606.169
401.321	17.081	806.725	606.317
402.336	17.105	805.878	605.713
403.350	17.171	805.570	605.664
404.365	17.183	805.120	605.316
405.380	17.363	804.485	605.425
406.394	17.314	803.813	604.692
407.409	17.373	803.660	604.734
408.423	17.323	803.396	604.301
409.438	17.355	803.075	604.120
410.453	17.193	802.568	603.110
411.467	17.366	802.004	603.248
412.482	17.309	801.933	602.938
413.496	17.489	801.102	602.896
414.511	17.338	801.295	602.455
415.526	17.482	800.303	602.163
416.540	17.496	800.218	602.097
417.555	17.506	799.524	601.557
418.569	17.481	799.187	601.161
419.584	17.508	798.812	600.921
420.599	17.538	798.324	600.609
421.613	111.430	1295.070	1477.963
422.628	95.919	1367.434	1478.048
