DTS Sentinel unit serial number:	SN413079Multiplexer serial number:	ORYXHardware model number:	OX4-SRSoftware version number:	ORYX F/W v4.00 Oryx Data Collector v3.7.2.0data status	okinstallation	princeton_trtdifferential loss correction	single-endedforward channel	channel 1reverse channel	N/Adate	2019/09/14time	05:02:35forward acquisition time	60.00reverse acquisition time	0.00gamma	496.2192k internal	0.2334k external	0.2334temperature offset calibration	1.0082default loss term (dB/km)	0.3790temperature slope calibration	1.0000multiplexer offset coefficient	1.0000multiplexer slope coefficient	1.0000fibre end	0.00T internal ref (°C)	26.87T ext. ref 1 (°C)	3.37T ext. ref 2 (°C)	22.00length (m)	temperature (°C)	Stokes	anti-Stokes-747.200	-128.518	0.204	-0.029
-746.185	-102.809	-0.495	-0.119
-745.171	57.858	0.219	-0.215
-744.156	254.185	0.249	0.427
-743.142	-200.000	0.028	0.207
-742.127	73.251	0.117	0.123
-741.112	800.000	0.054	-0.175
-740.098	512.504	-0.071	-0.166
-739.083	-200.000	-0.015	0.169
-738.069	588.519	-0.073	0.180
-737.054	-133.845	-0.097	0.012
-736.039	141.939	-0.200	0.267
-735.025	-25.983	-0.069	-0.041
-734.010	-0.965	0.124	-0.088
-732.996	-81.577	-0.167	-0.055
-731.981	-200.000	0.006	-0.195
-730.966	-127.788	-0.051	0.007
-729.952	309.272	-0.106	-0.198
-728.937	792.981	-0.109	-0.302
-727.923	576.320	0.067	0.164
-726.908	80.259	0.045	0.049
-725.894	180.390	-0.182	0.269
-724.879	800.000	-0.060	0.198
-723.864	-200.000	0.028	-0.142
-722.850	-77.670	0.133	-0.046
-721.835	36.352	-0.077	0.068
-720.821	-200.000	-0.015	-0.172
-719.806	-66.518	-0.221	-0.088
-718.791	-200.000	-0.059	0.402
-717.777	-32.507	0.029	-0.016
-716.762	-12.578	-0.253	0.166
-715.748	14.340	0.187	0.147
-714.733	246.914	0.098	-0.166
-713.718	800.000	0.119	0.364
-712.704	800.000	-0.034	-0.115
-711.689	800.000	0.045	0.196
-710.675	800.000	-0.023	0.082
-709.660	-115.096	-0.059	-0.011
-708.645	569.690	0.009	-0.021
-707.631	-71.105	-0.322	0.121
-706.616	-15.368	0.116	-0.074
-705.602	-99.349	0.142	-0.036
-704.587	-32.388	-0.187	0.105
-703.572	-66.871	-0.093	-0.037
-702.558	-200.000	0.008	-0.324
-701.543	-200.000	-0.054	-0.455
-700.529	-118.855	-0.156	0.027
-699.514	-49.723	0.043	-0.021
-698.499	166.380	0.058	-0.082
-697.485	371.641	0.244	-0.497
-696.470	-144.068	0.213	0.020
-695.456	-200.000	-0.022	0.120
-694.441	-110.520	0.122	-0.025
-693.426	800.000	0.034	-0.099
-692.412	-200.000	-0.048	0.300
-691.397	-14.057	0.063	0.041
-690.383	-115.189	0.072	-0.014
-689.368	-52.621	0.324	-0.150
-688.354	-73.675	-0.277	0.101
-687.339	-200.000	-0.001	0.051
-686.324	129.864	-0.043	-0.055
-685.310	-116.773	0.305	0.056
-684.295	425.621	-0.098	-0.213
-683.281	-29.383	-0.393	-0.226
-682.266	-144.429	0.276	-0.026
-681.251	-105.153	-0.142	0.033
-680.237	278.749	-0.118	-0.211
-679.222	-126.742	-0.076	0.011
-678.208	148.545	-0.189	-0.256
-677.193	174.939	0.181	-0.263
-676.178	34.329	0.090	-0.079
-675.164	112.535	0.142	-0.172
-674.149	-200.000	-0.011	-0.098
-673.135	800.000	0.088	0.251
-672.120	97.023	0.332	-0.382
-671.105	-200.000	0.029	-0.404
-670.091	-200.000	0.010	-0.187
-669.076	-118.061	-0.362	0.065
-668.062	-100.376	0.188	0.047
-667.047	-200.000	-0.044	0.339
-666.032	80.753	-0.201	-0.218
-665.018	-200.000	0.027	-0.327
-664.003	-200.000	-0.036	-0.352
-662.989	-200.000	0.050	-0.559
-661.974	281.886	-0.070	-0.125
-660.959	104.298	-0.159	0.188
-659.945	625.473	-0.196	-0.496
-658.930	-59.647	-0.258	-0.111
-657.916	86.167	-0.224	0.247
-656.901	-101.326	0.097	0.024
-655.886	747.935	0.083	-0.225
-654.872	-10.366	-0.113	0.075
-653.857	92.880	-0.128	0.144
-652.843	-63.202	0.260	0.107
-651.828	71.582	0.246	-0.256
-650.814	570.192	0.060	-0.147
-649.799	-158.552	-0.188	-0.011
-648.784	131.710	0.058	-0.075
-647.770	-138.441	-0.245	0.027
-646.755	-200.000	-0.019	-0.101
-645.741	220.299	-0.044	0.070
-644.726	-200.000	-0.021	-0.328
-643.711	800.000	-0.090	-0.317
-642.697	210.813	-0.132	-0.207
-641.682	-200.000	0.069	-0.434
-640.668	529.676	-0.010	-0.023
-639.653	800.000	0.025	-0.108
-638.638	800.000	-0.061	-0.176
-637.624	-200.000	0.006	-0.060
-636.609	-200.000	-0.040	-0.305
-635.595	-105.538	-0.193	0.044
-634.580	-44.814	-0.236	0.118
-633.565	286.209	-0.224	-0.405
-632.551	451.489	-0.026	0.057
-631.536	-66.956	-0.294	-0.116
-630.522	360.658	0.097	0.194
-629.507	357.401	-0.226	-0.451
-628.492	43.997	0.145	-0.133
-627.478	121.864	0.142	0.178
-626.463	227.908	-0.210	0.342
-625.449	202.612	-0.095	0.147
-624.434	-200.000	-0.061	-0.289
-623.419	-91.899	-0.383	0.109
-622.405	800.000	-0.017	-0.059
-621.390	-200.000	0.023	0.213
-620.376	-129.438	-0.269	0.037
-619.361	-51.430	-0.283	-0.132
-618.346	-50.577	0.210	-0.099
-617.332	148.296	0.048	-0.064
-616.317	800.000	0.045	-0.149
-615.303	162.968	0.213	0.299
-614.288	800.000	0.121	0.493
-613.273	800.000	-0.012	-0.045
-612.259	-200.000	-0.060	0.287
-611.244	800.000	-0.092	-0.286
-610.230	598.209	0.083	0.205
-609.215	800.000	-0.042	0.135
-608.201	800.000	-0.133	0.419
-607.186	413.510	0.119	-0.254
-606.171	425.845	0.098	0.211
-605.157	-136.904	0.075	0.009
-604.142	-22.906	0.188	0.113
-603.128	405.522	0.152	0.320
-602.113	800.000	-0.048	0.141
-601.098	25.113	0.225	-0.187
-600.084	-106.432	-0.118	-0.026
-599.069	165.826	0.252	0.356
-598.055	-22.860	0.067	-0.041
-597.040	-200.000	0.060	-0.308
-596.025	205.760	0.162	0.252
-595.011	710.866	-0.104	-0.276
-593.996	-109.849	-0.178	0.037
-592.982	-73.637	0.075	-0.027
-591.967	-105.642	0.277	0.063
-590.952	582.835	-0.071	-0.173
-589.938	-108.066	-0.262	0.057
-588.923	602.791	-0.070	-0.174
-587.909	-200.000	0.027	-0.421
-586.894	116.635	-0.157	-0.193
-585.879	-47.909	-0.018	-0.009
-584.865	32.812	0.271	0.235
-583.850	49.465	0.065	-0.061
-582.836	-154.303	-0.215	-0.014
-581.821	242.737	0.124	0.208
-580.806	289.024	-0.143	0.258
-579.792	800.000	-0.042	0.125
-578.777	151.534	0.151	-0.205
-577.763	-200.000	-0.102	-0.517
-576.748	127.790	0.121	0.154
-575.733	81.546	0.233	0.251
-574.719	191.223	-0.133	-0.200
-573.704	231.625	0.120	0.197
-572.690	68.663	0.158	-0.162
-571.675	103.859	-0.330	-0.387
-570.661	91.277	0.212	-0.238
-569.646	647.673	0.120	-0.307
-568.631	54.257	-0.129	-0.124
-567.617	-9.988	0.197	0.131
-566.602	-32.032	-0.272	0.152
-565.588	637.097	-0.153	-0.388
-564.573	-200.000	-0.024	-0.133
-563.558	-137.691	0.173	0.019
-562.544	-75.467	-0.172	-0.061
-561.529	-23.260	-0.227	0.137
-560.515	-112.702	0.217	-0.043
-559.500	79.162	0.162	0.173
-558.485	-200.000	0.025	-0.110
-557.471	580.799	0.066	-0.162
-556.456	800.000	-0.061	0.267
-555.442	274.494	-0.096	0.169
-554.427	144.843	-0.137	-0.182
-553.412	-24.568	-0.223	-0.132
-552.398	-42.874	-0.289	-0.147
-551.383	102.554	-0.111	-0.129
-550.369	-43.216	0.251	-0.127
-549.354	-51.758	0.155	-0.072
-548.339	-105.490	0.058	-0.013
-547.325	800.000	0.034	-0.095
-546.310	60.085	0.327	-0.322
-545.296	-19.686	-0.258	0.159
-544.281	-200.000	0.044	0.309
-543.266	160.512	-0.302	-0.420
-542.252	-84.645	0.167	0.053
-541.237	800.000	-0.021	0.072
-540.223	-121.342	0.338	-0.056
-539.208	-200.000	0.006	-0.127
-538.193	409.303	0.070	0.148
-537.179	-200.000	0.006	0.232
-536.164	-17.822	0.107	-0.067
-535.150	583.593	-0.068	0.167
-534.135	-200.000	0.103	0.463
-533.121	109.425	0.232	-0.277
-532.106	-200.000	-0.034	-0.158
-531.091	617.319	-0.050	0.124
-530.077	261.387	-0.239	-0.412
-529.062	511.955	0.089	0.207
-528.048	779.441	0.068	-0.185
-527.033	-125.153	0.121	0.018
-526.018	-104.070	0.217	0.050
-525.004	-19.636	-0.304	0.188
-523.989	326.485	-0.122	-0.233
-522.975	800.000	-0.088	-0.277
-521.960	-113.896	0.157	0.030
-520.945	-47.769	0.066	0.032
-519.931	112.221	0.218	0.263
-518.916	27.078	-0.015	-0.013
-517.902	-200.000	0.040	-0.254
-516.887	-28.986	0.180	0.103
-515.872	-52.031	0.137	-0.064
-514.858	-196.271	0.274	-0.002
-513.843	-86.767	0.123	0.038
-512.829	-102.519	-0.031	0.007
-511.814	-136.551	0.350	0.040
-510.799	104.046	-0.056	-0.065
-509.785	-200.000	-0.018	0.255
-508.770	66.996	-0.326	-0.331
-507.756	-56.367	0.213	0.094
-506.741	-68.901	-0.189	-0.073
-505.726	792.693	0.143	0.391
-504.712	-106.934	0.210	0.046
-503.697	-42.396	-0.086	-0.044
-502.683	-149.299	-0.208	0.017
-501.668	10.999	0.113	-0.086
-500.653	658.271	0.048	-0.124
-499.639	-13.018	-0.277	0.179
-498.624	-120.983	0.086	0.014
-497.610	634.488	-0.056	0.141
-496.595	27.928	-0.106	-0.089
-495.581	-200.000	0.012	0.254
-494.566	575.424	0.150	0.365
-493.551	-200.000	-0.005	0.070
-492.537	-106.718	-0.236	0.052
-491.522	34.343	0.197	0.171
-490.508	-200.000	0.003	-0.203
-489.493	344.869	-0.048	-0.093
-488.478	-85.592	-0.106	0.033
-487.464	183.699	-0.085	0.125
-486.449	-89.600	0.048	-0.014
-485.435	323.902	0.026	-0.050
-484.420	-193.044	0.206	0.002
-483.405	-200.000	-0.025	0.303
-482.391	111.425	-0.273	0.327
-481.376	-79.610	0.135	0.045
-480.362	461.750	0.229	-0.509
-479.347	-143.198	0.138	0.013
-478.332	-174.633	-0.028	0.001
-477.318	800.000	0.022	-0.063
-476.303	-200.000	0.011	-0.339
-475.289	74.230	-0.239	0.250
-474.274	-52.040	0.041	0.019
-473.259	-0.664	0.111	0.078
-472.245	-83.100	-0.178	-0.057
-471.230	37.818	-0.117	-0.104
-470.216	-33.277	0.347	-0.191
-469.201	304.649	-0.032	0.059
-468.186	800.000	0.073	-0.272
-467.172	-97.830	-0.081	0.021
-466.157	-53.997	0.247	0.112
-465.143	109.336	0.172	-0.204
-464.128	42.977	-0.197	0.179
-463.113	-200.000	-0.001	0.430
-462.099	800.000	-0.032	0.117
-461.084	-200.000	-0.006	-0.156
-460.070	-100.770	-0.192	-0.047
-459.055	-147.427	-0.200	-0.017
-458.040	66.568	-0.238	-0.240
-457.026	-81.486	-0.090	0.030
-456.011	-103.593	-0.044	-0.010
-454.997	-3.519	0.319	0.220
-453.982	43.356	0.116	-0.106
-452.968	-166.720	-0.210	-0.009
-451.953	-109.347	-0.165	0.035
-450.938	200.061	0.162	0.247
-449.924	338.372	0.163	0.315
-448.909	214.293	0.076	0.119
-447.895	-113.932	0.093	0.018
-446.880	216.053	-0.235	-0.371
-445.865	800.000	0.067	-0.223
-444.851	-54.500	-0.274	-0.123
-443.836	-68.936	-0.190	0.073
-442.822	-88.939	-0.118	0.035
-441.807	-12.308	0.192	-0.125
-440.792	276.640	-0.014	0.025
-439.778	-200.000	-0.008	-0.221
-438.763	118.510	-0.225	-0.276
-437.749	800.000	0.107	-0.377
-436.734	545.407	0.081	-0.193
-435.719	800.000	-0.087	0.260
-434.705	129.003	-0.043	0.054
-433.690	94.722	-0.111	-0.125
-432.676	87.448	-0.388	0.427
-431.661	370.278	0.245	-0.493
-430.646	-200.000	-0.052	-0.244
-429.632	800.000	-0.052	0.200
-428.617	-142.903	0.379	-0.037
-427.603	-53.765	-0.285	0.129
-426.588	118.219	0.158	-0.194
-425.573	-200.000	0.169	-0.000
-424.559	38.128	-0.245	0.216
-423.544	-200.000	-0.032	0.226
-422.530	-39.153	-0.013	0.007
-421.515	482.439	0.032	0.072
-420.500	26.976	0.209	0.174
-419.486	-1.341	0.245	0.172
-418.471	118.856	-0.196	-0.240
-417.457	-65.937	0.202	-0.080
-416.442	-89.244	0.285	0.083
-415.428	-67.199	-0.088	-0.034
-414.413	-200.000	0.027	0.189
-413.398	-200.000	0.005	-0.237
-412.384	604.760	-0.041	0.101
-411.369	-200.000	0.051	0.404
-410.355	-200.000	-0.039	0.208
-409.340	-200.000	-0.055	-0.311
-408.325	-200.000	0.010	-0.139
-407.311	-199.674	0.313	-0.002
-406.296	-104.950	0.101	-0.023
-405.282	293.722	-0.063	-0.114
-404.267	800.000	-0.041	-0.133
-403.252	-200.000	0.044	-0.253
-402.238	79.172	-0.078	0.083
-401.223	800.000	-0.037	0.110
-400.209	-46.745	0.158	-0.077
-399.194	800.000	-0.073	0.266
-398.179	94.928	-0.309	-0.348
-397.165	-200.000	0.005	-0.295
-396.150	800.000	0.126	-0.397
-395.136	-85.404	-0.201	0.062
-394.121	-200.000	-0.021	-0.098
-393.106	717.795	-0.068	0.180
-392.092	82.703	-0.167	0.180
-391.077	-171.296	0.132	-0.004
-390.063	-200.000	-0.016	0.311
-389.048	800.000	0.047	0.148
-388.033	-167.513	-0.194	0.008
-387.019	-200.000	-0.347	-0.001
-386.004	275.610	-0.140	0.246
-384.990	-200.000	-0.004	0.061
-383.975	-74.968	-0.206	0.073
-382.960	800.000	-0.052	0.170
-381.946	341.650	-0.129	0.249
-380.931	351.238	0.088	-0.173
-379.917	541.957	0.062	0.146
-378.902	-146.390	-0.097	-0.008
-377.888	34.486	-0.198	0.171
-376.873	-200.000	-0.050	-0.281
-375.858	96.750	0.073	-0.082
-374.844	-120.751	0.274	-0.046
-373.829	406.782	-0.011	0.023
-372.815	-92.204	-0.451	-0.126
-371.800	800.000	0.085	-0.261
-370.785	-168.824	0.106	-0.004
-369.771	-200.000	0.013	-0.064
-368.756	-200.000	0.003	-0.278
-367.742	111.023	-0.198	-0.236
-366.727	800.000	0.036	0.136
-365.712	-113.968	-0.105	0.020
-364.698	89.056	0.160	0.176
-363.683	800.000	0.054	-0.205
-362.669	800.000	0.045	0.188
-361.654	-200.000	-0.025	0.189
-360.639	800.000	-0.043	0.122
-359.625	-21.464	0.191	-0.115
-358.610	-149.838	0.184	0.014
-357.596	-11.972	0.200	0.130
-356.581	-65.317	-0.195	0.078
-355.566	-130.147	0.251	-0.034
-354.552	745.411	0.031	0.083
-353.537	-200.000	-0.002	-0.087
-352.523	-179.108	-0.317	0.007
-351.508	800.000	-0.052	-0.178
-350.493	-200.000	0.013	0.224
-349.479	79.921	0.100	-0.107
-348.464	-4.885	0.280	0.191
-347.450	-200.000	-0.012	0.352
-346.435	-6.615	0.099	-0.067
-345.420	51.846	0.018	0.017
-344.406	108.203	-0.161	-0.190
-343.391	8.286	0.074	-0.055
-342.377	-66.713	-0.100	-0.039
-341.362	74.437	-0.137	0.142
-340.348	-156.794	-0.257	0.016
-339.333	-200.000	0.074	-0.353
-338.318	281.530	0.106	0.187
-337.304	-200.000	-0.025	0.113
-336.289	-16.683	0.310	0.194
-335.275	800.000	0.025	0.095
-334.260	-200.000	0.026	0.374
-333.245	-14.454	-0.080	0.051
-332.231	230.143	0.188	-0.305
-331.216	-141.904	-0.172	-0.017
-330.202	800.000	0.047	0.161
-329.187	-30.079	-0.272	0.153
-328.172	-81.293	-0.248	0.081
-327.158	800.000	-0.088	-0.249
-326.143	-81.209	0.064	-0.021
-325.129	-200.000	0.002	0.111
-324.114	-168.283	0.244	-0.009
-323.099	81.221	-0.040	-0.042
-322.085	800.000	-0.017	0.066
-321.070	2.685	-0.100	-0.072
-320.056	-59.180	0.173	0.074
-319.041	58.824	0.146	-0.142
-318.026	-86.071	0.083	-0.025
-317.012	465.787	-0.137	0.302
-315.997	64.213	0.273	-0.272
-314.983	-58.919	-0.320	0.137
-313.968	-200.000	-0.006	-0.150
-312.953	-13.907	-0.137	-0.088
-311.939	11.171	0.260	0.196
-310.924	23.649	-0.123	-0.100
-309.910	329.669	0.156	-0.297
-308.895	-36.741	-0.136	-0.072
-307.880	189.816	-0.087	-0.129
-306.866	-70.825	0.378	-0.141
-305.851	-29.330	-0.219	0.124
-304.837	33.813	-0.073	0.063
-303.822	135.190	-0.063	0.081
-302.807	-24.230	0.174	0.102
-301.793	-68.437	0.232	-0.089
-300.778	-200.000	0.020	-0.104
-299.764	-66.435	0.182	0.071
-298.749	800.000	-0.122	-0.451
-297.735	-68.762	0.286	-0.109
-296.720	-143.871	-0.099	-0.009
-295.705	67.073	0.236	0.238
-294.691	-0.630	-0.110	0.077
-293.676	51.177	-0.168	0.157
-292.662	800.000	-0.120	-0.381
-291.647	494.394	0.045	0.102
-290.632	800.000	0.034	0.112
-289.618	-200.000	-0.035	-0.215
-288.603	-200.000	0.021	0.382
-287.589	-49.993	-0.509	0.238
-286.574	-200.000	0.039	0.335
-285.559	-52.272	-0.152	-0.070
-284.545	-200.000	-0.027	0.238
-283.530	-200.000	0.015	0.131
-282.516	-26.473	0.134	0.077
-281.501	800.000	-0.019	0.062
-280.486	800.000	-0.067	-0.284
-279.472	-200.000	-0.084	0.451
-278.457	-114.470	-0.283	0.054
-277.443	-103.911	-0.155	-0.036
-276.428	-131.547	0.373	-0.048
-275.413	158.358	0.032	0.043
-274.399	-66.156	-0.461	0.182
-273.384	8.243	-0.457	0.339
-272.370	-63.765	0.342	0.138
-271.355	800.000	-0.038	0.120
-270.340	-200.000	0.078	-0.385
-269.326	-200.000	0.100	-0.491
-268.311	-200.000	0.061	0.317
-267.297	800.000	-0.039	-0.123
-266.282	-190.706	-0.256	-0.003
-265.267	-115.648	-0.199	0.037
-264.253	-200.000	0.055	0.300
-263.238	595.504	-0.140	-0.341
-262.224	561.319	0.188	0.449
-261.209	-66.694	0.173	0.067
-260.195	694.051	0.032	0.082
-259.180	424.834	-0.148	0.315
-258.165	-200.000	-0.012	-0.058
-257.151	-21.541	0.242	-0.145
-256.136	-42.865	-0.257	-0.129
-255.122	-17.334	-0.313	-0.194
-254.107	491.065	0.081	0.182
-253.092	-58.961	-0.187	0.080
-252.078	-200.000	0.010	0.072
-251.063	738.557	-0.139	-0.368
-250.049	317.051	0.104	0.194
-249.034	-115.630	-0.392	0.073
-248.019	324.214	-0.186	-0.349
-247.005	-143.557	0.200	0.019
-245.990	-49.384	0.181	0.085
-244.976	800.000	0.044	0.176
-243.961	125.506	-0.153	0.190
-242.946	238.536	-0.047	-0.076
-241.932	-186.507	-0.379	0.005
-240.917	-18.537	0.211	0.130
-239.903	464.337	0.092	-0.203
-238.888	-33.674	0.261	-0.142
-237.873	-10.634	0.215	-0.140
-236.859	211.988	-0.212	-0.329
-235.844	340.396	0.048	-0.093
-234.830	-200.000	0.001	0.132
-233.815	-171.706	0.210	0.007
-232.800	-64.446	-0.281	0.112
-231.786	-200.000	-0.016	-0.195
-230.771	-162.501	0.321	0.016
-229.757	113.349	0.102	0.122
-228.742	357.943	-0.030	-0.060
-227.727	210.610	-0.256	-0.397
-226.713	-101.161	0.247	0.059
-225.698	-147.928	0.158	-0.013
-224.684	-38.833	0.019	0.010
-223.669	-36.414	0.089	0.047
-222.655	26.404	0.122	-0.101
-221.640	54.664	0.121	-0.115
-220.625	-21.410	0.328	0.197
-219.611	-200.000	-0.008	0.168
-218.596	-44.630	0.232	0.114
-217.582	-200.000	-0.036	0.339
-216.567	547.810	-0.029	0.068
-215.552	-200.000	0.062	-0.428
-214.538	86.032	-0.247	-0.268
-213.523	-103.738	-0.242	-0.056
-212.509	-200.000	-0.002	0.156
-211.494	92.589	-0.176	-0.195
-210.479	507.080	0.038	0.087
-209.465	-96.037	0.099	-0.026
-208.450	800.000	0.004	-0.012
-207.436	555.734	0.135	0.321
-206.421	-147.594	-0.191	-0.016
-205.406	704.668	-0.105	-0.273
-204.392	-101.709	0.253	0.060
-203.377	-34.978	0.054	0.029
-202.363	497.645	-0.058	0.132
-201.348	-200.000	-0.046	0.294
-200.333	311.713	-0.073	-0.135
-199.319	-46.860	-0.029	0.014
-198.304	-200.000	0.052	0.227
-197.290	-200.000	-0.008	0.125
-196.275	4.345	0.221	-0.159
-195.260	6.104	0.184	0.134
-194.246	-26.334	0.180	0.104
-193.231	96.586	0.115	-0.130
-192.217	119.790	0.146	-0.178
-191.202	54.100	-0.130	0.123
-190.187	800.000	-0.053	-0.150
-189.173	236.645	-0.046	0.074
-188.158	800.000	-0.066	-0.255
-187.144	-89.961	-0.077	0.022
-186.129	82.515	-0.204	0.218
-185.114	777.788	0.045	-0.121
-184.100	49.595	-0.210	-0.195
-183.085	1.030	0.204	-0.144
-182.071	348.797	0.140	0.271
-181.056	-52.067	0.419	-0.192
-180.042	17.894	0.054	-0.042
-179.027	-200.000	0.060	0.361
-178.012	-146.941	-0.181	-0.015
-176.998	-200.000	0.027	-0.380
-175.983	-116.365	-0.265	-0.048
-174.969	-132.176	0.426	0.054
-173.954	231.861	0.134	-0.216
-172.939	-93.745	-0.091	0.025
-171.925	-200.000	-0.034	0.213
-170.910	-27.907	-0.221	-0.126
-169.896	-200.000	0.032	0.303
-168.881	-58.965	0.290	0.123
-167.866	800.000	-0.032	0.136
-166.852	-20.171	0.330	0.200
-165.837	-200.000	0.010	-0.097
-164.823	65.719	-0.073	0.072
-163.808	-18.915	0.104	-0.063
-162.793	-200.000	-0.008	-0.060
-161.779	172.886	-0.071	-0.100
-160.764	-200.000	0.029	0.169
-159.750	275.580	0.186	0.324
-158.735	229.663	0.121	0.194
-157.720	-200.000	-0.025	0.231
-156.706	-126.204	0.127	-0.019
-155.691	7.977	0.106	-0.078
-154.677	-100.059	-0.376	-0.092
-153.662	-5.950	0.266	0.178
-152.647	45.888	0.238	0.216
-151.633	81.517	-0.178	-0.189
-150.618	-82.466	0.315	-0.100
-149.604	-110.515	-0.150	-0.031
-148.589	159.628	-0.097	0.133
-147.574	-169.211	0.195	-0.007
-146.560	-110.400	-0.136	0.028
-145.545	-61.423	0.230	0.095
-144.531	-36.666	0.351	-0.185
-143.516	-28.304	0.196	-0.111
-142.502	167.881	-0.086	-0.120
-141.487	238.786	-0.022	0.036
-140.472	174.095	0.072	0.103
-139.458	118.801	0.237	-0.288
-138.443	164.503	-0.074	-0.102
-137.429	-12.064	-0.290	0.186
-136.414	-104.218	-0.205	-0.047
-135.399	82.753	-0.108	-0.115
-134.385	-81.583	0.195	0.063
-133.370	-123.949	-0.144	-0.022
-132.356	35.649	-0.365	0.314
-131.341	-4.561	-0.108	-0.073
-130.326	800.000	0.085	-0.246
-129.312	217.388	0.216	0.338
-128.297	-129.868	0.516	0.070
-127.283	-134.699	-0.137	0.016
-126.268	-200.000	0.023	0.417
-125.253	-50.816	0.393	0.181
-124.239	286.476	-0.141	-0.249
-123.224	-200.000	-0.015	-0.117
-122.210	-200.000	-0.029	-0.166
-121.195	23.466	-0.353	-0.285
-120.180	-98.387	-0.213	0.053
-119.166	800.000	0.107	0.299
-118.151	-114.385	-0.344	-0.065
-117.137	-200.000	-0.052	-0.226
-116.122	-200.000	0.003	-0.071
-115.107	220.837	-0.133	0.209
-114.093	-39.667	0.145	0.075
-113.078	378.220	-0.077	-0.154
-112.064	20.736	-0.099	0.079
-111.049	233.126	-0.200	-0.323
-110.034	392.692	-0.054	-0.110
-109.020	-52.220	0.349	0.159
-108.005	-200.000	0.007	0.079
-106.991	-51.870	-0.186	0.085
-105.976	-200.000	0.058	0.446
-104.962	268.964	0.105	0.181
-103.947	-200.000	0.035	-0.181
-102.932	-123.901	-0.371	-0.057
-101.918	800.000	-0.111	0.342
-100.903	431.107	-0.111	0.235
-99.889	14.291	0.253	0.194
-98.874	80.126	0.150	-0.159
-97.859	556.032	-0.097	-0.230
-96.845	33.455	-0.206	0.175
-95.830	800.000	0.076	0.254
-94.816	79.274	0.132	-0.139
-93.801	30.066	0.153	-0.128
-92.786	800.000	0.022	-0.095
-91.772	-200.000	-0.014	-0.127
-90.757	152.742	0.207	-0.277
-89.743	-200.000	0.006	-0.223
-88.728	16.551	0.175	-0.136
-87.713	-113.378	0.238	0.046
-86.699	98.769	-0.103	-0.116
-85.684	60.244	0.225	-0.218
-84.670	-77.386	0.066	0.022
-83.655	-57.795	0.177	0.076
-82.640	-151.924	-0.302	-0.022
-81.626	209.428	0.130	-0.200
-80.611	800.000	-0.073	0.243
-79.597	235.639	0.121	-0.195
-78.582	138.186	0.160	-0.205
-77.567	-103.882	0.446	-0.102
-76.553	-8.713	-0.168	0.110
-75.538	314.221	0.081	-0.149
-74.524	-152.090	-0.168	-0.012
-73.509	115.550	-0.149	-0.179
-72.494	-92.035	0.082	0.023
-71.480	-200.000	-0.038	0.342
-70.465	-58.677	-0.116	0.049
-69.451	-13.350	-0.201	0.128
-68.436	-200.000	-0.015	0.222
-67.422	-200.000	0.058	-0.303
-66.407	498.561	0.094	0.211
-65.392	-42.987	-0.185	0.092
-64.378	654.593	0.072	0.181
-63.363	20.101	0.338	0.267
-62.349	-200.000	0.020	-0.308
-61.334	137.398	-0.982	-1.257
-60.319	31.224	0.782	0.657
-59.305	-200.000	-0.238	-1.116
-58.290	192.733	0.757	1.119
-57.276	733.971	0.627	1.641
-56.261	-200.000	116.647	661.104
-55.246	531.421	1532.296	3545.752
-54.232	176.082	2705.526	3843.544
-53.217	109.176	2161.553	2530.922
-52.203	38.882	1597.892	1396.565
-51.188	30.169	1342.035	1120.524
-50.173	27.377	1303.568	1071.948
-49.159	55.510	1361.717	1289.709
-48.144	53.315	1375.168	1289.240
-47.130	30.448	1329.949	1111.926
-46.115	27.022	1311.717	1076.373
-45.100	26.835	1306.446	1070.900
-44.086	26.759	1304.174	1068.547
-43.071	26.796	1301.628	1066.634
-42.057	26.574	1300.070	1064.013
-41.042	26.697	1298.287	1063.235
-40.027	26.695	1296.710	1061.886
-39.013	26.766	1294.605	1060.536
-37.998	26.701	1293.357	1059.093
-36.984	26.773	1291.464	1057.923
-35.969	26.815	1289.305	1056.358
-34.954	26.888	1287.695	1055.416
-33.940	26.907	1286.221	1054.277
-32.925	26.899	1284.977	1053.173
-31.911	26.976	1283.459	1052.330
-30.896	26.971	1281.924	1051.005
-29.881	26.979	1280.935	1050.198
-28.867	27.025	1279.361	1049.130
-27.852	26.952	1278.015	1047.566
-26.838	27.047	1276.129	1046.525
-25.823	27.019	1275.088	1045.468
-24.809	26.924	1273.881	1043.891
-23.794	26.977	1271.900	1042.528
-22.779	26.916	1271.049	1041.440
-21.765	26.940	1269.921	1040.612
-20.750	26.965	1268.507	1039.554
-19.736	26.774	1267.924	1037.945
-18.721	26.905	1266.473	1037.461
-17.706	26.912	1264.868	1036.145
-16.692	26.897	1264.094	1035.388
-15.677	26.821	1263.213	1034.188
-14.663	26.867	1261.675	1033.154
-13.648	26.890	1260.487	1032.267
-12.633	26.824	1259.556	1031.089
-11.619	26.854	1258.822	1030.621
-10.604	26.778	1258.028	1029.497
-9.590	26.869	1257.180	1029.278
-8.575	26.783	1256.362	1028.079
-7.560	26.763	1255.702	1027.384
-6.546	26.809	1254.606	1026.708
-5.531	26.798	1253.587	1025.770
-4.517	26.818	1252.577	1025.015
-3.502	26.884	1251.729	1024.657
-2.487	26.856	1250.749	1023.656
-1.473	26.780	1246.440	1019.659
-0.458	25.425	1231.572	999.919
0.556	22.328	1214.916	962.932
1.571	18.756	1221.168	948.117
2.586	17.954	1235.569	954.735
3.600	17.606	1223.811	943.637
4.615	13.241	1152.340	865.635
5.629	6.295	1081.201	777.891
6.644	3.446	1063.149	750.974
7.659	3.290	1060.777	748.474
8.673	3.290	1059.879	747.775
9.688	3.443	1058.299	747.336
10.702	3.587	1055.911	746.280
11.717	7.278	1061.282	767.918
12.731	14.499	1071.541	810.487
13.746	18.970	1076.760	836.151
14.761	19.642	1077.183	839.675
15.775	18.837	1075.514	834.389
16.790	17.739	1073.691	827.577
17.804	16.973	1072.062	822.536
18.819	16.815	1071.072	820.938
19.834	16.645	1070.071	819.273
20.848	16.362	1069.329	817.265
21.863	16.232	1068.281	815.763
22.877	16.027	1068.066	814.537
23.892	16.096	1067.095	814.056
24.907	16.117	1066.311	813.485
25.921	16.118	1065.255	812.617
26.936	16.022	1064.092	811.196
27.950	16.186	1062.578	810.755
28.965	16.322	1060.941	810.088
29.980	16.391	1059.760	809.444
30.994	16.377	1058.363	808.241
32.009	16.370	1057.923	807.797
33.023	16.353	1056.570	806.612
34.038	16.305	1055.239	805.297
35.053	16.221	1054.525	804.280
36.067	16.170	1053.359	803.078
37.082	16.202	1053.303	803.117
38.096	16.326	1051.862	802.535
39.111	16.259	1051.624	801.965
40.126	16.273	1049.727	800.511
41.140	16.031	1048.708	798.519
42.155	15.915	1047.217	796.765
43.169	15.970	1045.933	795.975
44.184	15.878	1045.145	794.874
45.199	15.872	1044.656	794.401
46.213	16.037	1043.233	794.025
47.228	16.214	1042.617	794.321
48.242	16.265	1041.105	793.339
49.257	16.160	1040.450	792.274
50.271	16.241	1039.751	792.055
51.286	16.323	1038.731	791.593
52.301	16.221	1037.855	790.373
53.315	16.165	1036.782	789.226
54.330	16.048	1036.087	788.081
55.344	16.050	1034.718	786.980
56.359	15.984	1034.274	786.261
57.374	16.017	1033.278	785.590
58.388	16.067	1031.940	784.735
59.403	15.969	1030.944	783.454
60.417	15.932	1030.402	782.799
61.432	15.903	1029.661	782.034
62.447	15.886	1028.747	781.191
63.461	15.714	1028.209	779.916
64.476	15.840	1026.786	779.351
65.490	15.725	1026.444	778.493
66.505	15.850	1025.340	778.161
67.520	15.799	1024.633	777.320
68.534	15.931	1023.635	777.105
69.549	15.792	1023.297	776.137
70.563	15.725	1022.546	775.192
71.578	15.676	1021.411	774.036
72.593	15.614	1020.853	773.261
73.607	15.666	1020.279	772.994
74.622	15.635	1019.804	772.425
75.636	15.799	1019.263	772.702
76.651	15.712	1018.307	771.510
77.666	15.639	1017.778	770.703
78.680	15.703	1016.993	770.334
79.695	15.766	1016.546	770.216
80.709	15.841	1016.178	770.210
81.724	15.877	1015.458	769.762
82.739	15.996	1014.105	769.213
83.753	16.097	1013.483	769.136
84.768	16.326	1012.497	769.362
85.782	16.478	1011.929	769.555
86.797	16.390	1010.948	768.340
87.812	15.998	1010.247	765.955
88.826	16.152	1009.006	765.648
89.841	16.341	1007.929	765.620
90.855	16.384	1007.230	765.216
91.870	16.450	1006.238	764.693
92.884	16.350	1005.638	763.719
93.899	16.394	1004.519	762.998
94.914	16.459	1003.961	762.802
95.928	16.376	1003.231	761.804
96.943	16.240	1002.417	760.506
97.957	16.223	1001.410	759.596
98.972	16.307	1000.146	758.949
99.987	16.284	1000.126	758.762
101.001	16.287	998.677	757.608
102.016	16.225	998.077	756.808
103.030	16.343	997.298	756.680
104.045	16.198	996.811	755.597
105.060	16.158	995.263	754.176
106.074	16.074	994.441	753.111
107.089	16.001	992.773	751.457
108.103	15.888	991.973	750.280
109.118	15.887	991.535	749.877
110.133	15.747	990.639	748.509
111.147	16.006	989.279	748.567
112.162	15.987	988.835	748.080
113.176	16.138	988.193	748.199
114.191	16.094	987.539	747.443
115.206	16.096	986.621	746.694
116.220	15.954	986.124	745.620
117.235	16.087	984.762	745.113
118.249	16.031	983.885	744.138
119.264	15.870	984.053	743.486
120.279	15.834	982.439	742.044
121.293	15.881	981.621	741.566
122.308	15.884	980.502	740.669
123.322	15.824	979.710	739.739
124.337	15.701	978.983	738.587
125.352	15.779	977.514	737.755
126.366	15.818	976.282	736.931
127.381	15.824	975.335	736.175
128.395	15.816	974.595	735.516
129.410	15.862	973.706	734.985
130.424	15.870	972.936	734.373
131.439	15.911	972.540	734.186
132.454	15.878	971.803	733.422
133.468	15.903	971.001	732.861
134.483	15.979	970.004	732.371
135.497	16.004	968.998	731.659
136.512	16.023	967.959	730.891
137.527	15.949	967.588	730.225
138.541	16.059	966.615	729.901
139.556	16.147	966.124	729.848
140.570	16.230	965.353	729.557
141.585	16.278	964.570	729.108
142.600	16.299	963.865	728.605
143.614	16.400	962.774	728.148
144.629	16.461	961.944	727.721
145.643	16.355	961.085	726.552
146.658	16.331	960.083	725.625
147.673	16.254	958.913	724.348
148.687	16.145	957.988	723.116
149.702	16.078	957.140	722.125
150.716	16.158	956.439	721.874
151.731	16.169	955.578	721.209
152.746	16.146	955.162	720.731
153.760	16.306	954.249	720.661
154.775	16.237	954.267	720.317
155.789	16.315	953.178	719.766
156.804	16.367	952.768	719.613
157.819	16.533	951.784	719.513
158.833	16.448	951.509	718.881
159.848	16.525	950.385	718.292
160.862	16.470	949.645	717.438
161.877	16.317	948.421	715.802
162.892	16.309	947.082	714.691
163.906	16.016	946.518	712.962
164.921	16.088	945.311	712.296
165.935	16.187	944.897	712.339
166.950	16.254	943.765	711.704
167.964	16.173	943.170	710.853
168.979	16.246	942.170	710.344
169.994	16.330	941.055	709.794
171.008	16.363	940.695	709.596
172.023	16.419	939.998	709.243
173.037	16.576	939.293	709.307
174.052	16.552	938.153	708.282
175.067	16.217	937.793	706.548
176.081	16.188	937.371	706.047
177.096	16.202	936.837	705.636
178.110	16.241	936.273	705.312
179.125	16.315	935.455	704.943
180.140	16.320	934.959	704.527
181.154	16.420	934.525	704.559
182.169	16.526	933.944	704.497
183.183	16.663	933.562	704.717
184.198	16.630	932.635	703.819
185.213	16.516	932.132	702.901
186.227	16.588	931.255	702.478
187.242	16.796	930.323	702.575
188.256	16.771	930.273	702.372
189.271	16.769	929.463	701.690
190.286	16.513	928.421	699.781
191.300	16.292	927.264	697.935
192.315	16.121	926.462	696.565
193.329	16.310	926.374	697.215
194.344	16.337	926.042	697.017
195.359	16.288	925.016	695.980
196.373	16.616	924.394	696.800
197.388	16.630	924.697	697.026
198.402	16.767	923.789	696.841
199.417	16.905	923.016	696.766
200.432	16.958	922.738	696.710
201.446	16.875	922.714	696.293
202.461	17.038	921.703	696.133
203.475	16.832	921.532	695.098
204.490	16.862	920.191	694.150
205.504	16.754	919.436	693.076
206.519	16.634	918.936	692.146
207.534	16.767	918.013	691.936
208.548	16.825	917.062	691.394
209.563	16.692	916.748	690.553
210.577	16.733	916.197	690.245
211.592	16.950	915.641	690.647
212.607	16.978	914.538	689.866
213.621	16.835	914.090	688.887
214.636	16.913	913.386	688.613
215.650	17.051	912.742	688.629
216.665	17.235	911.732	688.551
217.680	17.231	911.431	688.245
218.694	17.029	910.999	687.042
219.709	17.057	910.309	686.570
220.723	17.059	909.522	685.925
221.738	17.130	909.058	685.801
222.753	17.111	908.355	685.135
223.767	17.199	907.434	684.735
224.782	17.162	907.169	684.325
225.796	17.305	906.646	684.446
226.811	17.260	906.020	683.729
227.826	17.112	904.732	682.103
228.840	17.095	904.341	681.682
229.855	17.195	903.121	681.099
230.869	17.168	902.844	680.725
231.884	17.066	901.914	679.556
232.899	17.077	901.070	678.900
233.913	16.814	901.058	677.782
234.928	16.950	900.245	677.654
235.942	16.858	899.687	676.806
236.957	16.983	898.626	676.447
237.972	17.117	898.024	676.469
238.986	17.068	897.429	675.764
240.001	17.090	896.979	675.451
241.015	17.057	896.460	674.870
242.030	17.081	896.276	674.768
243.045	17.123	895.323	674.156
244.059	17.181	895.050	674.124
245.074	17.195	894.012	673.336
246.088	17.237	893.363	672.954
247.103	17.377	892.701	672.950
248.117	17.577	892.548	673.567
249.132	17.731	891.832	673.574
250.147	17.818	891.386	673.520
251.161	17.671	890.794	672.437
252.176	17.740	890.319	672.289
253.190	17.844	889.602	672.096
254.205	17.825	888.887	671.422
255.220	17.898	888.010	670.990
256.234	17.814	887.783	670.427
257.249	17.807	886.970	669.725
258.263	17.929	886.310	669.649
259.278	17.762	885.700	668.475
260.293	17.908	885.350	668.722
261.307	17.988	884.442	668.290
262.322	17.935	883.945	667.647
263.336	18.028	883.156	667.358
264.351	17.973	882.800	666.813
265.366	18.116	881.681	666.467
266.380	18.146	881.196	666.157
267.395	17.938	880.526	664.784
268.409	17.949	879.601	664.070
269.424	17.969	879.209	663.792
270.439	17.810	878.347	662.466
271.453	17.816	877.445	661.749
272.468	17.874	877.036	661.608
273.482	17.891	876.499	661.208
274.497	17.781	876.311	660.581
275.512	17.819	875.629	660.158
276.526	17.885	875.312	660.113
277.541	17.958	874.736	659.903
278.555	18.049	873.921	659.581
279.570	18.069	873.528	659.303
280.585	18.219	872.876	659.334
281.599	18.258	870.966	657.983
282.614	18.042	871.095	657.191
283.628	18.018	870.620	656.683
284.643	17.894	870.485	656.043
285.657	17.987	869.443	655.558
286.672	18.120	868.734	655.476
287.687	18.075	867.856	654.583
288.701	18.125	867.581	654.509
289.716	18.147	867.051	654.137
290.730	18.220	866.415	653.876
291.745	18.136	865.884	653.098
292.760	18.103	865.643	652.732
293.774	18.482	864.388	653.171
294.789	18.198	864.388	652.032
295.803	18.171	863.447	651.162
296.818	18.041	862.546	649.930
297.833	18.161	862.098	649.992
298.847	18.183	861.282	649.401
299.862	18.082	860.801	648.598
300.876	18.349	860.532	649.349
301.891	18.378	859.672	648.754
302.906	18.413	859.220	648.489
303.920	18.543	858.932	648.705
304.935	18.604	858.148	648.287
305.949	18.521	857.684	647.564
306.964	18.448	856.883	646.627
307.979	18.416	856.217	645.949
308.993	18.630	855.737	646.333
310.008	18.647	854.970	645.761
311.022	18.598	854.385	645.077
312.037	18.372	854.018	643.895
313.052	18.359	853.401	643.325
314.066	18.332	852.655	642.603
315.081	18.315	852.022	642.005
316.095	18.348	851.630	641.775
317.110	18.215	851.142	640.856
318.125	18.158	850.364	640.000
319.139	18.356	849.767	640.233
320.154	18.534	849.161	640.386
321.168	18.442	849.089	639.929
322.183	18.520	848.538	639.748
323.197	18.362	848.251	638.888
324.212	18.502	847.554	638.828
325.227	18.548	846.433	638.096
326.241	18.383	845.963	637.072
327.256	18.331	845.885	636.764
328.270	18.477	845.086	636.649
329.285	18.443	844.505	636.029
330.300	18.502	843.651	635.549
331.314	18.487	843.496	635.320
332.329	18.624	843.180	635.531
333.343	18.585	842.874	635.099
334.358	18.576	842.324	634.598
335.373	18.622	842.004	634.471
336.387	18.837	841.355	634.718
337.402	18.879	841.217	634.715
338.416	18.892	840.861	634.438
339.431	18.901	840.629	634.239
340.446	18.904	840.353	633.984
341.460	18.906	840.152	633.787
342.475	19.019	839.543	633.687
343.489	19.008	839.325	633.424
344.504	19.122	838.686	633.305
345.519	19.162	837.702	632.654
346.533	19.135	837.370	632.250
347.548	19.013	836.555	631.129
348.562	18.965	835.775	630.310
349.577	18.864	835.541	629.706
350.592	18.873	834.511	628.909
351.606	18.743	834.372	628.271
352.621	18.840	833.472	627.893
353.635	18.836	833.000	627.468
354.650	18.806	832.560	626.972
355.665	18.859	831.903	626.615
356.679	19.033	831.040	626.543
357.694	19.183	829.978	626.231
358.708	19.058	829.964	625.712
359.723	18.997	829.651	625.197
360.738	19.095	828.549	624.668
361.752	19.166	828.433	624.782
362.767	19.317	827.696	624.717
363.781	19.333	827.060	624.242
364.796	19.505	826.706	624.542
365.810	19.434	826.766	624.274
366.825	19.305	826.325	623.421
367.840	19.539	825.284	623.423
368.854	19.192	825.421	622.221
369.869	19.268	825.034	622.148
370.883	19.386	824.526	622.133
371.898	19.572	823.438	621.927
372.913	19.497	823.452	621.613
373.927	19.616	822.622	621.359
374.942	19.313	822.719	620.290
375.956	19.455	822.141	620.308
376.971	19.747	821.730	620.991
377.986	19.626	821.511	620.338
379.000	19.771	820.985	620.408
380.015	19.678	820.324	619.519
381.029	19.676	819.832	619.083
382.044	19.507	819.045	617.829
383.059	19.742	818.150	617.941
384.073	19.628	817.817	617.227
385.088	19.514	817.020	616.164
386.102	19.556	816.588	615.932
387.117	19.509	815.938	615.221
388.132	19.425	815.894	614.834
389.146	19.424	815.173	614.232
390.161	19.679	814.915	614.892
391.175	19.765	814.002	614.452
392.190	19.691	813.248	613.567
393.205	19.501	812.839	612.529
394.219	19.628	812.490	612.665
395.234	19.482	812.362	611.997
396.248	19.375	812.119	611.379
397.263	19.452	811.139	610.859
398.278	19.554	810.976	611.044
399.292	19.443	810.364	610.135
400.307	19.345	810.095	609.534
401.321	19.442	809.669	609.502
402.336	19.531	809.061	609.306
403.350	19.603	808.750	609.270
404.365	19.658	808.247	609.031
405.380	19.707	807.738	608.768
406.394	19.795	807.161	608.589
407.409	19.973	806.892	608.957
408.423	19.975	806.614	608.698
409.438	19.921	806.572	608.425
410.453	19.967	806.240	608.280
411.467	20.006	805.110	607.511
412.482	20.034	805.198	607.622
413.496	20.198	804.644	607.725
414.511	20.130	804.213	607.109
415.526	19.967	804.234	606.500
416.540	20.126	803.329	606.320
417.555	20.201	802.722	606.070
418.569	20.280	802.525	606.144
419.584	20.100	802.373	605.347
420.599	20.263	801.361	605.097
421.613	162.102	1371.959	1797.423
422.628	140.790	1455.114	1797.527
