DTS Sentinel unit serial number:	SN413079Multiplexer serial number:	ORYXHardware model number:	OX4-SRSoftware version number:	ORYX F/W v4.00 Oryx Data Collector v3.7.2.0data status	okinstallation	princeton_trtdifferential loss correction	single-endedforward channel	channel 1reverse channel	N/Adate	2019/09/13time	09:46:35forward acquisition time	60.00reverse acquisition time	0.00gamma	496.2192k internal	0.2325k external	0.2325temperature offset calibration	1.0160default loss term (dB/km)	0.3790temperature slope calibration	1.0000multiplexer offset coefficient	1.0000multiplexer slope coefficient	1.0000fibre end	0.00T internal ref (°C)	29.83T ext. ref 1 (°C)	4.45T ext. ref 2 (°C)	26.54length (m)	temperature (°C)	Stokes	anti-Stokes-747.200	-200.000	0.000	-0.262
-746.185	-43.752	0.204	0.104
-745.171	-200.000	0.064	-0.533
-744.156	-200.000	0.018	0.297
-743.142	330.020	0.128	0.249
-742.127	472.972	0.136	0.310
-741.112	37.705	0.383	0.343
-740.098	139.584	-0.077	0.102
-739.083	-152.619	-0.260	0.019
-738.069	65.880	-0.182	0.186
-737.054	-200.000	0.008	0.092
-736.039	495.942	0.092	-0.214
-735.025	-7.202	0.121	0.083
-734.010	-16.586	-0.258	0.165
-732.996	-11.764	-0.265	0.176
-731.981	-14.232	-0.134	0.087
-730.966	572.595	-0.115	-0.282
-729.952	-200.000	0.024	0.194
-728.937	-114.003	-0.018	-0.004
-727.923	143.793	-0.095	-0.128
-726.908	299.214	-0.203	0.377
-725.894	800.000	0.097	-0.301
-724.879	-58.952	0.185	0.080
-723.864	-200.000	-0.012	-0.407
-722.850	-92.911	0.188	-0.053
-721.835	-200.000	0.046	-0.206
-720.821	64.746	-0.002	-0.002
-719.806	-200.000	0.023	0.201
-718.791	-65.150	-0.171	-0.070
-717.777	-160.543	-0.187	-0.010
-716.762	-200.000	0.015	-0.123
-715.748	87.773	0.166	0.186
-714.733	13.402	-0.271	0.212
-713.718	151.527	0.081	0.111
-712.704	-1.172	-0.131	0.093
-711.689	138.343	-0.150	0.198
-710.675	-76.442	0.144	0.051
-709.660	-50.616	0.226	-0.107
-708.645	-112.354	0.200	0.040
-707.631	-25.294	0.006	0.003
-706.616	237.438	-0.199	0.332
-705.602	-114.373	-0.189	-0.037
-704.587	-200.000	0.009	0.088
-703.572	-67.261	-0.221	0.088
-702.558	276.620	0.125	-0.225
-701.543	-7.894	-0.166	0.113
-700.529	88.814	-0.153	0.172
-699.514	611.559	-0.124	-0.312
-698.499	-68.048	0.251	-0.099
-697.485	236.073	0.179	0.299
-696.470	-200.000	-0.022	-0.110
-695.456	132.482	-0.207	-0.269
-694.441	-80.793	-0.135	0.045
-693.426	800.000	-0.047	-0.146
-692.412	-174.046	-0.343	0.010
-691.397	-16.163	-0.061	-0.039
-690.383	-60.761	0.096	0.041
-689.368	149.900	-0.169	-0.231
-688.354	46.384	-0.231	0.216
-687.339	-8.303	-0.212	-0.144
-686.324	-41.806	0.242	-0.125
-685.310	-10.871	-0.210	-0.140
-684.295	-106.142	-0.160	0.036
-683.281	800.000	-0.073	-0.283
-682.266	284.014	-0.222	0.402
-681.251	-49.904	0.190	0.091
-680.237	-68.522	0.218	-0.085
-679.222	800.000	0.060	-0.205
-678.208	-64.749	-0.248	-0.101
-677.193	800.000	-0.076	-0.264
-676.178	-33.353	-0.129	-0.072
-675.164	-46.366	-0.381	-0.188
-674.149	326.720	-0.133	-0.256
-673.135	800.000	-0.060	0.205
-672.120	-200.000	-0.049	-0.324
-671.105	-200.000	0.033	0.313
-670.091	-63.972	0.189	-0.078
-669.076	379.341	-0.124	-0.256
-668.062	-111.315	0.241	-0.050
-667.047	787.624	0.018	0.048
-666.032	-60.464	0.259	0.111
-665.018	-33.415	-0.008	-0.004
-664.003	69.148	-0.176	0.182
-662.989	800.000	0.025	0.082
-661.974	-200.000	0.018	-0.311
-660.959	84.871	0.107	0.118
-659.945	-27.687	0.210	-0.122
-658.930	800.000	-0.062	-0.194
-657.916	39.668	0.163	0.147
-656.901	800.000	-0.026	0.077
-655.886	27.020	-0.103	-0.087
-654.872	208.184	-0.149	-0.234
-653.857	800.000	0.038	0.115
-652.843	300.469	0.205	0.380
-651.828	537.051	0.096	0.228
-650.814	-105.119	0.138	0.032
-649.799	-200.000	0.020	0.339
-648.784	-91.194	-0.073	-0.021
-647.770	-200.000	-0.041	-0.199
-646.755	-103.431	-0.202	0.048
-645.741	-55.217	0.088	0.040
-644.726	-95.238	-0.112	-0.030
-643.711	82.859	0.226	0.247
-642.697	-121.217	0.241	0.041
-641.682	68.832	0.325	-0.335
-640.668	-200.000	0.077	-0.535
-639.653	-200.000	0.024	0.115
-638.638	-37.480	-0.251	-0.135
-637.624	-200.000	0.009	0.078
-636.609	-200.000	-0.006	0.189
-635.595	-94.617	-0.153	-0.042
-634.580	-92.660	-0.224	-0.063
-633.565	-2.833	-0.099	-0.070
-632.551	531.377	-0.047	0.113
-631.536	53.100	-0.174	-0.168
-630.522	88.201	-0.045	-0.050
-629.507	-137.449	0.254	-0.029
-628.492	165.814	-0.154	0.219
-627.478	560.500	0.057	0.139
-626.463	114.389	0.138	0.168
-625.449	-163.675	0.137	-0.006
-624.434	87.049	0.070	-0.078
-623.419	-200.000	-0.029	0.198
-622.405	289.120	-0.026	0.048
-621.390	311.226	-0.171	-0.322
-620.376	-143.811	0.466	0.044
-619.361	-24.724	0.155	0.093
-618.346	3.678	-0.121	0.089
-617.332	-200.000	0.002	-0.172
-616.317	-64.023	0.085	-0.035
-615.303	-200.000	0.018	0.257
-614.288	128.932	-0.156	-0.200
-613.273	-103.730	0.134	0.031
-612.259	-200.000	0.027	0.172
-611.244	259.998	-0.070	0.121
-610.230	-200.000	0.022	0.302
-609.215	-105.794	0.185	0.042
-608.201	-200.000	-0.009	0.700
-607.186	468.496	0.016	-0.037
-606.171	56.111	0.315	-0.307
-605.157	-50.062	-0.298	0.142
-604.142	-108.129	-0.047	0.010
-603.128	-93.095	-0.152	-0.042
-602.113	242.027	0.119	-0.199
-601.098	800.000	0.017	-0.060
-600.084	140.674	-0.289	0.383
-599.069	-46.916	0.326	0.160
-598.055	-36.923	0.101	-0.054
-597.040	1.840	0.172	-0.124
-596.025	112.075	0.064	0.078
-595.011	-124.138	-0.167	0.026
-593.996	91.578	0.082	0.093
-592.982	-25.329	-0.313	0.186
-591.967	800.000	-0.043	-0.141
-590.952	-7.191	-0.075	0.051
-589.938	250.635	-0.088	0.149
-588.923	-32.085	0.231	-0.129
-587.909	-86.253	-0.043	-0.013
-586.894	65.159	0.196	-0.199
-585.879	-119.464	-0.252	-0.044
-584.865	736.704	0.083	0.222
-583.850	-115.257	-0.108	-0.020
-582.836	-200.000	0.007	0.044
-581.821	-76.758	0.118	-0.041
-580.806	74.639	0.167	0.176
-579.792	511.046	0.157	0.365
-578.777	438.253	-0.067	0.146
-577.763	800.000	0.075	-0.214
-576.748	64.135	0.188	-0.189
-575.733	-185.031	-0.140	-0.002
-574.719	60.985	-0.224	-0.223
-573.704	-155.096	-0.124	-0.008
-572.690	-99.204	-0.170	0.043
-571.675	103.485	-0.263	-0.309
-570.661	-200.000	0.046	-0.328
-569.646	-200.000	0.001	0.102
-568.631	-200.000	0.045	0.233
-567.617	-88.357	-0.108	0.032
-566.602	116.378	0.184	0.226
-565.588	-63.878	0.188	0.077
-564.573	18.674	-0.111	-0.089
-563.558	154.491	-0.132	0.181
-562.544	-14.892	0.254	-0.164
-561.529	800.000	-0.022	0.075
-560.515	-130.142	0.122	0.017
-559.500	243.829	0.211	-0.355
-558.485	-46.397	0.132	0.065
-557.471	-200.000	-0.000	-0.444
-556.456	800.000	0.036	0.104
-555.442	37.761	-0.389	-0.346
-554.427	800.000	-0.042	-0.148
-553.412	800.000	-0.028	-0.079
-552.398	724.769	-0.119	-0.318
-551.383	-94.366	0.323	-0.088
-550.369	-46.352	0.294	0.145
-549.354	-121.623	0.381	0.063
-548.339	-16.212	0.059	0.037
-547.325	414.767	-0.194	0.414
-546.310	-148.706	0.250	0.020
-545.296	655.888	0.041	0.105
-544.281	800.000	-0.041	0.175
-543.266	-93.443	-0.199	-0.055
-542.252	-200.000	-0.019	-0.145
-541.237	90.669	-0.126	-0.141
-540.223	800.000	0.035	0.120
-539.208	29.988	0.039	0.034
-538.193	133.120	-0.176	0.228
-537.179	-200.000	-0.003	-0.190
-536.164	-105.415	-0.296	-0.067
-535.150	800.000	-0.053	0.190
-534.135	-172.025	-0.417	0.014
-533.121	-48.962	0.070	-0.034
-532.106	-40.324	-0.196	0.102
-531.091	-200.000	0.001	-0.126
-530.077	-20.565	0.291	0.179
-529.062	800.000	0.046	-0.128
-528.048	120.432	0.276	-0.343
-527.033	64.544	0.137	0.138
-526.018	-144.469	-0.106	0.010
-525.004	-61.492	-0.349	-0.147
-523.989	388.920	0.042	0.086
-522.975	-117.679	-0.111	0.020
-521.960	153.282	-0.135	-0.186
-520.945	-172.468	0.285	-0.009
-519.931	238.984	-0.163	0.272
-518.916	229.433	-0.157	-0.257
-517.902	156.420	0.091	0.126
-516.887	50.252	-0.121	0.114
-515.872	-193.895	0.350	-0.003
-514.858	52.964	-0.027	0.026
-513.843	-200.000	0.020	-0.126
-512.829	800.000	0.062	-0.184
-511.814	111.020	0.197	0.237
-510.799	559.700	-0.124	-0.301
-509.785	76.062	0.252	0.267
-508.770	58.285	-0.159	-0.156
-507.756	-50.325	0.208	0.098
-506.741	220.416	-0.080	0.129
-505.726	78.663	-0.238	0.254
-504.712	-30.259	-0.102	0.058
-503.697	-72.677	0.442	0.163
-502.683	305.967	0.151	0.281
-501.668	463.575	0.154	0.345
-500.653	14.077	0.123	0.096
-499.639	800.000	0.032	0.141
-498.624	448.580	-0.049	0.109
-497.610	0.773	0.134	-0.096
-496.595	37.239	0.426	-0.377
-495.581	-167.730	0.162	0.006
-494.566	-200.000	-0.053	-0.236
-493.551	-125.593	-0.275	0.042
-492.537	-43.099	0.110	-0.056
-491.522	34.471	-0.218	-0.191
-490.508	-98.067	0.322	-0.083
-489.493	359.699	-0.022	-0.044
-488.478	508.158	0.070	0.163
-487.464	154.909	0.082	0.113
-486.449	-67.069	-0.383	0.151
-485.435	-147.472	-0.085	0.007
-484.420	144.135	-0.115	0.153
-483.405	374.271	0.047	-0.095
-482.391	76.897	-0.257	-0.273
-481.376	11.282	0.087	-0.066
-480.362	28.443	-0.153	-0.129
-479.347	165.293	-0.082	0.115
-478.332	64.711	-0.083	0.084
-477.318	-31.085	-0.216	0.122
-476.303	-40.308	0.117	-0.061
-475.289	-41.087	0.184	-0.095
-474.274	130.708	-0.096	-0.123
-473.259	-17.311	0.107	-0.068
-472.245	300.144	-0.067	-0.124
-471.230	28.824	-0.189	0.160
-470.216	-200.000	0.003	-0.079
-469.201	-46.321	0.129	-0.063
-468.186	352.675	-0.029	-0.057
-467.172	-200.000	0.027	0.167
-466.157	240.583	-0.122	0.203
-465.143	-115.265	0.149	0.028
-464.128	800.000	-0.085	0.246
-463.113	531.010	0.153	-0.361
-462.099	-80.360	0.140	0.047
-461.084	-200.000	-0.000	-0.035
-460.070	-195.910	-0.123	-0.001
-459.055	-200.000	0.007	-0.057
-458.040	-78.641	0.298	-0.102
-457.026	-100.403	-0.103	0.025
-456.011	800.000	-0.087	0.305
-454.997	-144.659	-0.455	-0.042
-453.982	-41.426	0.250	0.129
-452.968	-92.805	0.229	-0.064
-451.953	-89.404	-0.247	-0.073
-450.938	346.631	-0.129	-0.253
-449.924	-19.830	-0.196	0.121
-448.909	278.967	-0.143	-0.255
-447.895	-200.000	-0.065	-0.321
-446.880	-200.000	0.004	0.043
-445.865	419.619	-0.132	-0.281
-444.851	-43.330	-0.284	0.143
-443.836	-89.955	0.392	-0.114
-442.822	51.778	-0.255	-0.242
-441.807	-170.393	-0.199	-0.007
-440.792	435.679	0.035	0.076
-439.778	467.218	0.072	0.162
-438.763	83.068	-0.144	-0.156
-437.749	-200.000	0.237	0.000
-436.734	115.704	0.144	0.176
-435.719	81.830	-0.045	-0.048
-434.705	83.996	0.187	-0.204
-433.690	-22.591	-0.173	0.104
-432.676	-71.798	0.084	0.031
-431.661	-193.124	0.165	-0.001
-430.646	-62.834	0.043	0.018
-429.632	56.350	0.076	0.074
-428.617	-93.411	-0.015	-0.004
-427.603	-200.000	-0.037	0.347
-426.588	251.122	-0.146	-0.248
-425.573	446.706	0.053	0.117
-424.559	-200.000	0.013	-0.089
-423.544	-144.265	-0.110	0.010
-422.530	94.753	0.146	-0.165
-421.515	800.000	0.068	-0.292
-420.500	302.936	0.185	-0.342
-419.486	-134.087	-0.199	0.024
-418.471	146.640	-0.040	-0.053
-417.457	567.868	-0.110	-0.267
-416.442	-68.310	0.172	0.066
-415.428	-200.000	0.009	0.095
-414.413	-77.989	0.097	-0.033
-413.398	228.400	-0.147	-0.239
-412.384	4.008	-0.044	0.032
-411.369	408.116	-0.020	0.042
-410.355	800.000	0.015	0.046
-409.340	142.482	-0.184	-0.244
-408.325	-2.629	-0.288	-0.201
-407.311	-13.182	0.037	-0.024
-406.296	-70.971	0.190	-0.071
-405.282	-27.578	-0.298	-0.173
-404.267	-200.000	-0.018	0.241
-403.252	54.597	-0.166	0.160
-402.238	-62.736	0.200	-0.083
-401.223	100.853	-0.107	-0.124
-400.209	-75.926	-0.313	-0.110
-399.194	-200.000	0.014	0.162
-398.179	58.192	0.149	0.145
-397.165	112.242	-0.128	0.154
-396.150	-29.894	-0.253	-0.143
-395.136	-8.536	0.240	0.160
-394.121	-200.000	0.001	-0.069
-393.106	88.837	-0.139	-0.154
-392.092	291.124	-0.118	-0.214
-391.077	-76.319	0.213	0.075
-390.063	4.106	-0.167	0.121
-389.048	671.477	0.158	0.406
-388.033	-60.387	0.283	0.120
-387.019	-114.533	-0.227	0.043
-386.004	271.920	-0.120	-0.211
-384.990	800.000	-0.024	0.095
-383.975	265.447	-0.228	0.395
-382.960	96.216	0.111	0.126
-381.946	-101.244	-0.181	0.044
-380.931	491.194	0.092	0.209
-379.917	-200.000	-0.002	-0.048
-378.902	-68.764	-0.105	-0.040
-377.888	473.596	0.119	0.266
-376.873	5.337	-0.071	0.052
-375.858	-66.478	-0.332	0.131
-374.844	42.427	0.055	-0.050
-373.829	-200.000	0.019	0.125
-372.815	-200.000	-0.063	-0.419
-371.800	-200.000	0.001	-0.477
-370.785	800.000	0.084	-0.239
-369.771	-8.576	-0.131	-0.088
-368.756	-5.129	0.286	-0.196
-367.742	-110.390	-0.396	-0.082
-366.727	-50.465	0.106	0.050
-365.712	-111.904	-0.146	0.029
-364.698	-120.048	-0.179	-0.031
-363.683	289.804	-0.020	0.037
-362.669	-62.628	-0.321	-0.132
-361.654	-165.359	-0.322	-0.014
-360.639	800.000	-0.091	0.279
-359.625	-200.000	0.018	0.080
-358.610	800.000	-0.051	0.170
-357.596	533.215	0.100	-0.234
-356.581	89.357	0.250	0.277
-355.566	4.262	-0.405	0.295
-354.552	-114.134	-0.340	0.065
-353.537	-200.000	-0.017	-0.155
-352.523	800.000	0.102	0.390
-351.508	32.823	-0.140	-0.120
-350.493	-50.766	0.142	0.066
-349.479	-4.364	-0.278	0.191
-348.464	800.000	0.113	-0.316
-347.450	90.412	-0.099	0.110
-346.435	208.138	-0.091	0.141
-345.420	43.698	-0.124	-0.113
-344.406	800.000	0.077	-0.263
-343.391	339.711	-0.074	-0.143
-342.377	-58.209	0.097	-0.042
-341.362	30.212	-0.169	0.143
-340.348	21.612	-0.186	0.151
-339.333	746.530	-0.076	-0.204
-338.318	425.959	0.160	0.342
-337.304	410.100	0.083	0.176
-336.289	-131.503	-0.207	0.027
-335.275	-2.893	-0.004	-0.003
-334.260	254.941	0.068	-0.115
-333.245	-117.774	-0.111	0.020
-332.231	302.036	-0.064	0.118
-331.216	351.338	-0.176	0.346
-330.202	800.000	0.077	-0.243
-329.187	-38.446	-0.076	-0.040
-328.172	-65.346	0.204	0.081
-327.158	280.918	0.092	-0.164
-326.143	-200.000	-0.021	-0.217
-325.129	-133.106	-0.152	0.019
-324.114	-86.083	-0.148	-0.045
-323.099	-137.598	0.184	-0.021
-322.085	-200.000	0.038	0.185
-321.070	-71.356	0.174	-0.065
-320.056	164.878	0.023	-0.032
-319.041	-65.105	-0.357	0.143
-318.026	113.120	0.192	0.232
-317.012	111.315	0.063	0.076
-315.997	-68.645	0.247	-0.095
-314.983	-200.000	0.031	-0.174
-313.968	-200.000	-0.041	0.320
-312.953	-47.294	-0.565	-0.273
-311.939	800.000	-0.032	-0.100
-310.924	-86.699	-0.185	-0.056
-309.910	-36.049	-0.195	0.105
-308.895	71.051	0.229	0.236
-307.880	169.215	-0.082	0.117
-306.866	41.138	0.268	0.240
-305.851	-114.013	0.226	-0.043
-304.837	-32.220	0.116	0.064
-303.822	62.218	-0.262	-0.259
-302.807	628.950	0.058	-0.146
-301.793	101.313	-0.055	-0.064
-300.778	512.389	0.133	0.308
-299.764	-56.549	-0.251	-0.110
-298.749	41.775	-0.154	0.139
-297.735	13.504	-0.019	0.014
-296.720	271.197	0.067	-0.118
-295.705	-47.567	0.291	-0.140
-294.691	274.305	-0.048	0.084
-293.676	-35.309	0.188	-0.101
-292.662	-130.482	0.125	0.017
-291.647	658.957	0.012	-0.031
-290.632	-200.000	-0.006	-0.401
-289.618	-117.149	0.066	-0.012
-288.603	-200.000	0.005	-0.314
-287.589	-0.734	0.193	-0.135
-286.574	-113.436	0.096	0.019
-285.559	800.000	-0.111	0.398
-284.545	-44.786	-0.253	-0.125
-283.530	66.962	-0.292	-0.295
-282.516	522.635	0.013	-0.031
-281.501	22.205	0.033	0.026
-280.486	547.362	0.066	-0.157
-279.472	60.464	-0.071	-0.070
-278.457	59.073	-0.114	0.111
-277.443	-47.507	0.202	-0.097
-276.428	-89.493	0.202	0.059
-275.413	-29.433	-0.058	0.033
-274.399	-71.541	0.173	-0.064
-273.384	-85.412	0.392	-0.121
-272.370	27.364	0.120	-0.100
-271.355	59.289	0.183	0.179
-270.340	-200.000	-0.033	0.366
-269.326	-145.513	-0.050	-0.004
-268.311	-200.000	0.090	-0.402
-267.297	-200.000	0.053	-0.310
-266.282	-134.495	-0.165	-0.020
-265.267	-102.652	0.275	-0.065
-264.253	88.470	0.212	-0.233
-263.238	-200.000	-0.004	-0.059
-262.224	-200.000	-0.058	0.340
-261.209	-10.573	0.380	-0.249
-260.195	-106.909	0.310	0.068
-259.180	800.000	0.099	0.394
-258.165	150.973	0.148	0.199
-257.151	-56.804	-0.240	0.105
-256.136	-171.329	-0.158	0.005
-255.122	800.000	-0.068	-0.257
-254.107	81.904	0.147	0.158
-253.092	-97.771	-0.257	0.066
-252.078	-59.333	0.120	0.051
-251.063	42.555	0.120	0.108
-250.049	117.745	-0.156	0.190
-249.034	75.085	0.065	-0.067
-248.019	435.673	-0.092	-0.197
-247.005	95.452	-0.251	0.283
-245.990	608.213	0.025	-0.061
-244.976	1.766	0.150	-0.107
-243.961	-163.964	0.352	0.016
-242.946	-200.000	0.006	-0.219
-241.932	-81.461	-0.414	0.135
-240.917	-41.331	-0.270	-0.138
-239.903	41.106	0.258	-0.231
-238.888	31.820	0.163	-0.139
-237.873	437.796	0.074	-0.160
-236.859	47.502	0.109	0.100
-235.844	-41.848	-0.112	-0.057
-234.830	141.708	-0.199	-0.260
-233.815	230.340	0.118	0.191
-232.800	-108.701	-0.102	-0.022
-231.786	31.951	-0.224	-0.191
-230.771	800.000	-0.040	-0.116
-229.757	-6.757	0.291	-0.195
-228.742	-55.670	-0.383	0.169
-227.727	304.618	0.093	0.171
-226.713	370.788	-0.144	-0.289
-225.698	794.111	-0.048	-0.130
-224.684	260.220	0.082	0.139
-223.669	-84.476	-0.059	-0.019
-222.655	-163.807	0.441	-0.020
-221.640	-60.502	-0.141	0.059
-220.625	-50.640	0.120	-0.056
-219.611	-117.188	-0.139	0.025
-218.596	-41.246	-0.336	0.171
-217.582	64.846	0.124	-0.124
-216.567	74.669	0.281	-0.292
-215.552	85.386	0.056	-0.061
-214.538	800.000	0.059	-0.214
-213.523	148.743	0.293	0.391
-212.509	8.835	-0.224	0.167
-211.494	130.275	-0.086	0.109
-210.479	565.359	0.140	0.336
-209.465	-167.575	0.199	-0.008
-208.450	800.000	0.027	0.091
-207.436	-200.000	-0.052	-0.280
-206.421	721.673	-0.038	-0.100
-205.406	-66.702	0.178	0.070
-204.392	183.328	0.161	0.235
-203.377	293.901	-0.129	0.232
-202.363	800.000	0.130	-0.477
-201.348	27.905	0.059	0.049
-200.333	-200.000	0.035	0.334
-199.319	351.338	0.058	-0.113
-198.304	-6.896	0.277	0.186
-197.290	800.000	0.030	0.115
-196.275	384.307	-0.094	-0.191
-195.260	756.321	0.024	-0.065
-194.246	162.956	0.171	-0.237
-193.231	-136.246	0.043	-0.005
-192.217	65.739	0.156	-0.156
-191.202	-200.000	-0.008	-0.178
-190.187	-158.685	0.241	0.014
-189.173	800.000	-0.092	0.272
-188.158	-124.683	0.100	0.015
-187.144	800.000	0.111	-0.309
-186.129	-40.568	0.151	0.077
-185.114	-21.408	0.422	0.254
-184.100	800.000	0.175	0.491
-183.085	-106.172	0.372	-0.082
-182.071	-7.685	-0.255	-0.170
-181.056	-200.000	-0.046	0.288
-180.042	258.039	-0.260	0.442
-179.027	-110.039	0.139	-0.029
-178.012	800.000	-0.058	-0.181
-176.998	-170.407	-0.403	-0.014
-175.983	71.732	0.315	0.324
-174.969	483.876	-0.049	-0.110
-173.954	-40.917	0.235	0.120
-172.939	-69.412	-0.330	-0.125
-171.925	-89.107	-0.114	-0.033
-170.910	164.379	-0.069	0.096
-169.896	-12.822	-0.230	0.148
-168.881	76.524	-0.164	0.171
-167.866	800.000	-0.062	0.175
-166.852	-200.000	0.031	-0.288
-165.837	-61.456	0.200	0.083
-164.823	-51.904	0.132	-0.060
-163.808	-43.610	0.151	0.075
-162.793	0.297	-0.200	-0.141
-161.779	358.190	-0.088	-0.172
-160.764	-74.267	-0.341	0.122
-159.750	-100.503	0.171	0.042
-158.735	-122.922	-0.118	0.019
-157.720	124.086	-0.179	0.221
-156.706	800.000	0.072	-0.201
-155.691	52.543	-0.114	0.107
-154.677	146.264	0.048	0.064
-153.662	227.156	0.088	0.141
-152.647	-111.477	0.132	-0.027
-151.633	-200.000	0.107	-0.540
-150.618	-68.372	-0.111	0.042
-149.604	-38.366	-0.131	-0.069
-148.589	-200.000	-0.035	0.258
-147.574	-93.896	-0.157	-0.043
-146.560	-15.534	-0.209	-0.132
-145.545	223.250	-0.281	0.446
-144.531	-200.000	0.007	-0.088
-143.516	-140.077	-0.186	-0.019
-142.502	-50.810	0.198	-0.092
-141.487	-200.000	0.146	0.000
-140.472	40.196	0.165	-0.147
-139.458	-130.705	-0.375	0.050
-138.443	250.329	-0.228	-0.382
-137.429	14.771	0.181	-0.139
-136.414	-59.277	0.361	0.153
-135.399	-200.000	-0.032	-0.187
-134.385	469.691	0.096	-0.213
-133.370	15.257	-0.202	0.156
-132.356	279.886	0.103	-0.182
-131.341	323.829	-0.111	0.209
-130.326	800.000	-0.034	-0.109
-129.312	93.001	-0.044	-0.050
-128.297	120.299	0.215	-0.263
-127.283	635.518	-0.095	-0.238
-126.268	208.193	-0.040	0.061
-125.253	176.992	0.099	-0.141
-124.239	201.013	-0.095	0.145
-123.224	-136.298	-0.327	0.038
-122.210	72.649	-0.160	0.164
-121.195	-200.000	0.019	0.468
-120.180	-152.120	0.118	-0.008
-119.166	-105.244	0.149	0.033
-118.151	-127.191	0.084	-0.012
-117.137	-200.000	-0.008	-0.116
-116.122	800.000	0.056	0.235
-115.107	44.938	0.166	-0.150
-114.093	-27.631	-0.198	-0.113
-113.078	-25.225	-0.138	0.080
-112.064	-200.000	0.300	-0.000
-111.049	293.928	0.040	-0.072
-110.034	-200.000	0.031	-0.206
-109.020	138.310	-0.026	-0.034
-108.005	-62.830	-0.210	0.086
-106.991	-76.708	0.201	0.069
-105.976	-121.520	-0.226	0.037
-104.962	-200.000	-0.008	-0.067
-103.947	107.367	0.075	-0.088
-102.932	93.833	-0.208	0.232
-101.918	4.587	0.319	0.231
-100.903	30.061	0.174	0.146
-99.889	-79.363	-0.167	0.056
-98.874	434.087	-0.146	0.312
-97.859	116.360	-0.172	-0.207
-96.845	296.926	-0.073	0.132
-95.830	-200.000	-0.006	-0.108
-94.816	-58.818	-0.514	-0.219
-93.801	-200.000	0.007	-0.269
-92.786	-132.255	-0.395	0.050
-91.772	208.607	-0.109	0.168
-90.757	-102.486	0.177	0.042
-89.743	89.870	-0.094	-0.103
-88.728	-169.354	-0.148	0.005
-87.713	312.267	0.016	0.030
-86.699	-87.013	-0.214	0.064
-85.684	48.792	0.232	-0.214
-84.670	244.862	-0.180	0.298
-83.655	220.635	0.240	-0.379
-82.640	-200.000	0.053	-0.255
-81.626	-200.000	-0.053	-0.238
-80.611	800.000	0.114	-0.354
-79.597	-116.727	-0.039	-0.007
-78.582	800.000	0.013	-0.035
-77.567	46.345	-0.078	0.071
-76.553	-200.000	-0.039	0.395
-75.538	800.000	0.105	-0.381
-74.524	0.683	-0.209	0.147
-73.509	-200.000	-0.287	0.001
-72.494	7.387	0.287	-0.211
-71.480	-200.000	0.025	0.264
-70.465	-148.830	0.231	0.018
-69.451	386.134	0.091	-0.184
-68.436	-28.889	0.161	0.091
-67.422	-200.000	0.028	-0.178
-66.407	-124.506	-0.259	-0.040
-65.392	-14.022	-0.228	0.145
-64.378	-200.000	-0.023	0.161
-63.363	-112.162	0.136	-0.027
-62.349	-30.245	0.137	-0.077
-61.334	106.353	-0.892	-1.039
-60.319	100.979	0.564	0.645
-59.305	-200.000	-0.015	-1.158
-58.290	531.774	0.456	1.059
-57.276	730.870	0.558	1.466
-56.261	-200.000	103.759	574.695
-55.246	509.265	1467.138	3349.244
-54.232	179.570	2671.529	3842.657
-53.217	113.247	2170.467	2586.429
-52.203	41.714	1606.780	1430.134
-51.188	33.212	1339.660	1141.309
-50.173	30.185	1298.018	1088.058
-49.159	53.387	1349.950	1271.025
-48.144	54.197	1365.863	1290.804
-47.130	33.456	1321.949	1127.495
-46.115	29.931	1304.651	1091.948
-45.100	29.775	1299.031	1086.283
-44.086	29.701	1296.600	1083.777
-43.071	29.665	1294.504	1081.773
-42.057	29.648	1292.200	1079.701
-41.042	29.676	1290.840	1078.689
-40.027	29.634	1289.163	1077.000
-39.013	29.731	1287.570	1076.189
-37.998	29.866	1285.425	1075.139
-36.984	29.860	1284.068	1073.926
-35.969	29.769	1282.133	1071.735
-34.954	29.822	1280.230	1070.413
-33.940	29.834	1278.864	1069.294
-32.925	29.847	1277.760	1068.406
-31.911	29.954	1275.982	1067.494
-30.896	30.011	1274.782	1066.776
-29.881	29.931	1273.549	1065.244
-28.867	29.958	1271.639	1063.755
-27.852	29.921	1270.460	1062.518
-26.838	30.019	1269.047	1061.852
-25.823	30.003	1267.496	1060.424
-24.809	29.911	1266.549	1059.061
-23.794	29.859	1265.520	1057.863
-22.779	29.864	1264.203	1056.749
-21.765	29.837	1262.835	1055.408
-20.750	29.985	1261.357	1054.973
-19.736	29.841	1260.414	1053.326
-18.721	29.787	1258.736	1051.573
-17.706	29.765	1257.902	1050.711
-16.692	29.781	1256.736	1049.787
-15.677	29.777	1255.566	1048.740
-14.663	29.751	1254.248	1047.452
-13.648	29.693	1253.411	1046.384
-12.633	29.772	1252.423	1045.962
-11.619	29.733	1251.428	1044.873
-10.604	29.755	1250.771	1044.406
-9.590	29.810	1249.629	1043.718
-8.575	29.646	1248.529	1041.838
-7.560	29.811	1247.419	1041.799
-6.546	29.684	1246.765	1040.494
-5.531	29.787	1245.839	1040.259
-4.517	29.598	1245.599	1038.958
-3.502	29.753	1243.867	1038.340
-2.487	29.711	1243.384	1037.660
-1.473	29.728	1239.592	1034.550
-0.458	28.574	1224.431	1015.472
0.556	26.966	1206.913	978.033
1.571	23.134	1212.050	961.329
2.586	22.109	1226.055	966.715
3.600	21.136	1213.571	951.487
4.615	16.119	1142.015	869.502
5.629	8.197	1069.447	775.785
6.644	4.836	1050.119	745.629
7.659	4.449	1047.833	742.091
8.673	4.266	1046.460	740.177
9.688	4.260	1045.263	739.235
10.702	4.700	1043.721	740.173
11.717	9.950	1050.039	769.664
12.731	17.791	1061.575	815.682
13.746	21.600	1065.679	837.014
14.761	21.793	1066.656	838.630
15.775	21.253	1063.720	833.670
16.790	20.266	1061.846	827.424
17.804	19.518	1061.021	823.143
18.819	19.259	1059.586	820.720
19.834	19.097	1059.555	819.854
20.848	19.017	1058.486	818.575
21.863	18.758	1057.412	816.437
22.877	18.703	1056.921	815.727
23.892	18.714	1056.422	815.323
24.907	18.693	1055.802	814.671
25.921	18.721	1054.379	813.635
26.936	18.707	1053.075	812.489
27.950	18.684	1052.091	811.550
28.965	18.803	1050.305	810.663
29.980	19.014	1049.200	810.730
30.994	19.141	1047.955	810.294
32.009	19.097	1046.851	809.162
33.023	19.138	1045.918	808.561
34.038	18.981	1044.749	806.853
35.053	18.754	1044.060	805.185
36.067	18.666	1043.324	804.131
37.082	18.901	1042.479	804.511
38.096	19.102	1041.721	804.795
39.111	19.022	1040.822	803.657
40.126	18.783	1039.875	801.739
41.140	18.439	1038.631	799.103
42.155	18.342	1037.145	797.438
43.169	18.342	1035.973	796.466
44.184	18.376	1034.643	795.530
45.199	18.413	1034.031	795.159
46.213	18.565	1033.259	795.201
47.228	18.789	1032.325	795.450
48.242	18.908	1031.550	795.332
49.257	18.873	1030.438	794.243
50.271	18.903	1029.649	793.703
51.286	18.975	1028.945	793.422
52.301	18.787	1028.268	791.965
53.315	18.560	1027.285	790.092
54.330	18.468	1026.343	788.875
55.344	18.518	1024.953	787.964
56.359	18.665	1024.233	788.019
57.374	18.586	1022.987	786.625
58.388	18.262	1022.516	784.709
59.403	18.331	1021.698	784.326
60.417	18.379	1020.741	783.744
61.432	18.369	1020.024	783.076
62.447	18.184	1019.267	781.582
63.461	18.183	1018.384	780.829
64.476	18.169	1017.543	780.052
65.490	18.045	1016.655	778.737
66.505	18.265	1016.046	779.204
67.520	18.219	1015.417	778.445
68.534	18.281	1014.437	777.908
69.549	18.092	1013.994	776.640
70.563	18.166	1013.037	776.172
71.578	17.863	1012.639	774.423
72.593	17.818	1011.533	773.307
73.607	17.976	1010.546	773.198
74.622	17.946	1010.280	772.792
75.636	17.908	1009.737	772.137
76.651	18.003	1009.026	771.956
77.666	18.002	1008.593	771.549
78.680	18.287	1007.142	771.655
79.695	18.219	1006.602	770.867
80.709	18.359	1006.088	771.034
81.724	18.414	1005.719	770.933
82.739	18.449	1005.195	770.619
83.753	18.635	1005.044	771.271
84.768	19.031	1003.975	772.162
85.782	19.163	1003.514	772.329
86.797	19.073	1002.983	771.450
87.812	18.913	1001.486	769.512
88.826	18.840	1000.406	768.292
89.841	18.985	999.863	768.452
90.855	19.094	998.843	768.086
91.870	19.208	997.964	767.852
92.884	19.034	997.429	766.596
93.899	18.999	996.422	765.598
94.914	19.120	995.675	765.494
95.928	19.130	994.672	764.700
96.943	18.906	993.735	762.920
97.957	18.989	992.817	762.517
98.972	19.041	991.856	761.938
99.987	19.081	991.382	761.684
101.001	18.940	990.270	760.138
102.016	18.950	989.625	759.622
103.030	19.055	988.930	759.484
104.045	18.959	988.130	758.379
105.060	18.913	986.934	757.194
106.074	18.621	985.806	754.977
107.089	18.361	984.649	752.878
108.103	18.328	983.631	751.889
109.118	18.373	982.720	751.325
110.133	18.369	981.904	750.614
111.147	18.289	981.034	749.533
112.162	18.307	980.553	749.180
113.176	18.369	980.107	749.046
114.191	18.508	979.377	749.027
115.206	18.450	978.609	748.122
116.220	18.492	977.083	747.068
117.235	18.354	976.638	746.063
118.249	18.231	975.647	744.703
119.264	18.310	974.993	744.483
120.279	18.263	973.866	743.353
121.293	18.119	973.193	742.147
122.308	18.075	972.303	741.214
123.322	17.963	971.225	739.841
124.337	17.943	970.049	738.790
125.352	17.957	969.601	738.447
126.366	18.024	968.120	737.541
127.381	18.165	967.456	737.580
128.395	18.145	966.245	736.507
129.410	18.237	965.565	736.318
130.424	18.205	965.074	735.739
131.439	18.394	964.076	735.727
132.454	18.379	963.704	735.311
133.468	18.456	962.914	734.976
134.483	18.437	962.455	734.477
135.497	18.431	961.201	733.432
136.512	18.537	960.278	733.117
137.527	18.500	959.862	732.575
138.541	18.560	958.976	732.090
139.556	18.662	958.288	731.935
140.570	18.701	958.013	731.824
141.585	18.931	957.105	732.046
142.600	18.935	956.125	731.250
143.614	19.027	955.633	731.202
144.629	19.170	954.696	731.026
145.643	18.994	953.998	729.681
146.658	18.745	953.035	727.823
147.673	18.648	952.007	726.563
148.687	18.566	951.186	725.524
149.702	18.464	950.043	724.159
150.716	18.446	949.447	723.565
151.731	18.432	948.679	722.856
152.746	18.525	947.956	722.632
153.760	18.613	947.639	722.696
154.775	18.667	947.187	722.517
155.789	18.762	946.110	722.032
156.804	18.780	945.370	721.479
157.819	18.872	944.991	721.509
158.833	19.029	944.449	721.690
159.848	19.153	943.408	721.350
160.862	19.185	942.143	720.457
161.877	18.673	941.099	717.453
162.892	18.540	939.780	715.830
163.906	18.417	939.079	714.719
164.921	18.498	938.423	714.492
165.935	18.620	937.548	714.273
166.950	18.730	936.680	714.003
167.964	18.741	935.763	713.290
168.979	18.682	934.657	712.139
169.994	18.654	934.094	711.529
171.008	18.736	933.637	711.459
172.023	18.913	932.977	711.623
173.037	19.033	932.586	711.761
174.052	18.979	931.609	710.729
175.067	18.642	930.333	708.302
176.081	18.484	929.816	707.194
177.096	18.617	929.617	707.528
178.110	18.697	928.993	707.319
179.125	18.621	928.182	706.329
180.140	18.783	928.217	706.958
181.154	18.860	927.918	706.984
182.169	18.975	927.687	707.218
183.183	19.101	926.494	706.765
184.198	19.180	925.748	706.459
185.213	18.909	925.590	705.160
186.227	19.103	924.655	705.182
187.242	19.146	924.122	704.891
188.256	19.278	923.562	704.938
189.271	19.298	922.641	704.258
190.286	18.876	921.630	701.698
191.300	18.591	920.536	699.644
192.315	18.317	920.225	698.229
193.329	18.530	919.736	698.664
194.344	18.558	919.180	698.293
195.359	18.705	918.799	698.539
196.373	18.823	918.018	698.362
197.388	19.109	917.857	699.342
198.402	19.355	917.307	699.858
199.417	19.320	917.086	699.485
200.432	19.410	916.359	699.236
201.446	19.552	916.227	699.648
202.461	19.683	915.400	699.483
203.475	19.461	914.514	697.845
204.490	19.209	913.889	696.290
205.504	19.149	912.546	694.963
206.519	19.075	912.222	694.355
207.534	19.154	911.371	693.967
208.548	18.986	910.948	692.907
209.563	19.267	910.000	693.253
210.577	19.432	909.265	693.297
211.592	19.331	909.292	692.848
212.607	19.460	908.068	692.374
213.621	19.397	907.382	691.538
214.636	19.420	906.423	690.834
215.650	19.491	905.885	690.648
216.665	19.514	905.559	690.432
217.680	19.635	905.198	690.579
218.694	19.640	904.361	689.897
219.709	19.686	903.237	689.165
220.723	19.498	903.137	688.276
221.738	19.450	902.582	687.603
222.753	19.491	901.885	687.174
223.767	19.717	901.178	687.472
224.782	19.675	901.281	687.321
225.796	19.862	900.292	687.252
226.811	19.721	899.371	685.926
227.826	19.415	898.838	684.247
228.840	19.451	898.084	683.756
229.855	19.401	897.212	682.834
230.869	19.468	896.385	682.409
231.884	19.365	895.863	681.541
232.899	19.185	895.232	680.292
233.913	19.124	894.499	679.434
234.928	19.291	893.535	679.299
235.942	19.158	893.126	678.407
236.957	19.124	892.890	678.030
237.972	19.293	892.026	677.979
238.986	19.157	891.552	677.027
240.001	19.288	890.855	676.949
241.015	19.427	890.259	676.982
242.030	19.479	889.664	676.674
243.045	19.473	889.531	676.489
244.059	19.432	888.836	675.743
245.074	19.583	888.229	675.812
246.088	19.698	887.559	675.692
247.103	19.849	886.813	675.654
248.117	19.802	886.934	675.502
249.132	20.119	886.697	676.501
250.147	20.402	885.906	676.940
251.161	20.437	885.496	676.701
252.176	20.413	884.584	675.854
253.190	20.514	883.834	675.614
254.205	20.539	883.634	675.498
255.220	20.437	883.039	674.585
256.234	20.344	882.331	673.626
257.249	20.396	881.634	673.236
258.263	20.290	880.681	672.038
259.278	20.298	880.317	671.732
260.293	20.617	879.456	672.245
261.307	20.699	879.299	672.383
262.322	20.551	878.661	671.268
263.336	20.499	878.034	670.525
264.351	20.662	876.794	670.146
265.366	20.674	876.315	669.770
266.380	20.585	876.009	669.135
267.395	20.337	875.463	667.704
268.409	20.329	874.435	666.830
269.424	20.373	873.730	666.401
270.439	20.411	872.583	665.613
271.453	20.192	872.589	664.721
272.468	20.250	871.569	664.108
273.482	20.219	871.153	663.611
274.497	20.068	870.825	662.727
275.512	20.169	870.285	662.642
276.526	20.373	869.452	662.727
277.541	20.167	869.375	661.825
278.555	20.509	868.858	662.675
279.570	20.782	868.365	663.282
280.585	20.632	867.589	662.060
281.599	20.500	866.405	660.598
282.614	20.382	865.676	659.535
283.628	20.382	865.031	658.982
284.643	20.214	864.761	658.084
285.657	20.331	863.964	657.861
286.672	20.330	863.621	657.538
287.687	20.451	862.634	657.186
288.701	20.553	861.933	656.978
289.716	20.439	861.762	656.362
290.730	20.554	860.977	656.138
291.745	20.596	860.467	655.852
292.760	20.584	860.152	655.508
293.774	20.898	859.038	655.782
294.789	20.592	858.867	654.440
295.803	20.473	857.830	653.146
296.818	20.470	857.244	652.630
297.833	20.440	856.328	651.765
298.847	20.604	855.952	652.033
299.862	20.546	855.635	651.519
300.876	20.578	855.202	651.250
301.891	20.977	854.256	651.964
302.906	20.875	854.396	651.633
303.920	21.009	853.716	651.556
304.935	21.064	853.005	651.161
305.949	20.993	852.226	650.245
306.964	20.846	852.064	649.517
307.979	20.901	850.970	648.827
308.993	21.077	850.822	649.313
310.008	20.973	850.230	648.419
311.022	20.884	849.648	647.584
312.037	20.556	849.223	645.988
313.052	20.626	847.987	645.248
314.066	20.652	847.057	644.580
315.081	20.541	846.841	643.946
316.095	20.606	845.987	643.483
317.110	20.610	845.428	643.012
318.125	20.526	845.425	642.646
319.139	20.424	845.071	641.940
320.154	20.469	844.629	641.716
321.168	20.674	843.994	641.933
322.183	20.736	843.314	641.588
323.197	20.836	842.676	641.414
324.212	20.659	842.677	640.706
325.227	20.731	841.434	639.969
326.241	20.658	841.148	639.427
327.256	20.595	840.657	638.766
328.270	20.592	840.084	638.261
329.285	20.485	839.623	637.463
330.300	20.514	838.690	636.805
331.314	20.661	838.355	637.031
332.329	20.769	838.103	637.180
333.343	21.041	837.482	637.643
334.358	20.960	837.108	637.008
335.373	21.044	836.851	637.061
336.387	20.995	836.664	636.686
337.402	21.088	836.180	636.599
338.416	21.360	836.187	637.542
339.431	21.299	835.954	637.083
340.446	21.306	835.506	636.714
341.460	21.424	835.323	636.946
342.475	21.493	835.011	636.902
343.489	21.540	834.489	636.620
344.504	21.595	833.950	636.353
345.519	21.561	833.481	635.814
346.533	21.534	832.810	635.148
347.548	21.363	831.944	633.811
348.562	21.181	831.490	632.750
349.577	20.978	830.478	631.190
350.592	20.867	830.420	630.687
351.606	21.054	829.129	630.327
352.621	21.101	828.385	629.876
353.635	21.173	828.115	629.873
354.650	21.174	827.229	629.148
355.665	21.236	826.893	629.059
356.679	21.407	826.606	629.401
357.694	21.292	825.615	628.180
358.708	21.262	825.096	627.620
359.723	21.359	824.769	627.662
360.738	21.301	824.136	626.919
361.752	21.510	823.505	627.132
362.767	21.625	822.790	626.945
363.781	21.701	822.493	626.933
364.796	21.825	822.237	627.127
365.810	21.936	822.323	627.533
366.825	21.940	821.433	626.813
367.840	21.993	820.797	626.461
368.854	21.811	820.308	625.383
369.869	21.698	820.189	624.836
370.883	21.773	819.518	624.536
371.898	21.805	819.679	624.715
372.913	22.033	818.886	624.871
373.927	21.826	818.125	623.497
374.942	21.895	817.779	623.426
375.956	21.956	817.405	623.301
376.971	22.081	817.338	623.636
377.986	22.175	816.524	623.293
379.000	22.145	816.239	622.914
380.015	22.137	815.489	622.258
381.029	22.066	814.817	621.441
382.044	22.227	814.274	621.541
383.059	22.153	813.906	620.944
384.073	21.945	813.178	619.600
385.088	21.836	812.468	618.618
386.102	21.680	811.740	617.461
387.117	21.991	810.921	617.876
388.132	21.695	810.794	616.683
389.146	21.834	810.472	616.873
390.161	22.109	809.616	617.132
391.175	22.025	809.475	616.676
392.190	21.771	809.001	615.369
393.205	21.613	808.593	614.450
394.219	21.771	808.140	614.604
395.234	21.629	807.686	613.706
396.248	21.482	806.816	612.477
397.263	21.510	806.317	612.142
398.278	21.616	805.906	612.147
399.292	21.587	805.590	611.750
400.307	21.514	805.436	611.325
401.321	21.513	805.042	610.968
402.336	21.708	804.308	611.039
403.350	21.775	803.988	610.974
404.365	21.975	803.509	611.253
405.380	22.291	803.115	611.999
406.394	22.388	802.790	612.035
407.409	22.321	802.419	611.465
408.423	22.326	802.375	611.395
409.438	22.421	802.053	611.425
410.453	22.403	801.518	610.900
411.467	22.433	800.853	610.441
412.482	22.484	800.993	610.672
413.496	22.809	800.111	611.070
414.511	22.566	800.178	610.228
415.526	22.587	799.195	609.495
416.540	22.485	798.683	608.701
417.555	22.448	798.526	608.397
418.569	22.511	797.696	607.929
419.584	22.652	797.554	608.254
420.599	22.532	797.087	607.431
421.613	163.991	1369.215	1795.880
422.628	142.414	1452.565	1795.996
