DTS Sentinel unit serial number:	SN413079Multiplexer serial number:	ORYXHardware model number:	OX4-SRSoftware version number:	ORYX F/W v4.00 Oryx Data Collector v3.7.2.0data status	okinstallation	princeton_trtdifferential loss correction	single-endedforward channel	channel 1reverse channel	N/Adate	2019/09/16time	22:22:35forward acquisition time	60.00reverse acquisition time	0.00gamma	496.2192k internal	0.2324k external	0.2324temperature offset calibration	0.9953default loss term (dB/km)	0.3790temperature slope calibration	1.0000multiplexer offset coefficient	1.0000multiplexer slope coefficient	1.0000fibre end	0.00T internal ref (°C)	30.89T ext. ref 1 (°C)	0.08T ext. ref 2 (°C)	24.71length (m)	temperature (°C)	Stokes	anti-Stokes-747.200	12.189	0.193	0.150
-746.185	564.349	0.138	0.337
-745.171	789.805	0.058	0.161
-744.156	-58.601	-0.310	0.136
-743.142	139.033	0.157	0.208
-742.127	-27.140	-0.341	0.201
-741.112	-77.873	-0.203	-0.071
-740.098	-171.125	-0.303	-0.010
-739.083	21.870	0.109	-0.089
-738.069	99.649	-0.200	0.234
-737.054	-182.026	0.072	-0.001
-736.039	380.693	0.171	-0.354
-735.025	556.813	0.058	-0.142
-734.010	-200.000	0.025	0.140
-732.996	-200.000	0.031	-0.316
-731.981	11.096	-0.168	0.130
-730.966	515.479	-0.063	-0.148
-729.952	800.000	-0.027	-0.114
-728.937	-161.915	-0.174	0.009
-727.923	7.262	0.187	-0.141
-726.908	756.808	0.012	0.034
-725.894	-7.300	0.082	-0.056
-724.879	-119.689	-0.468	-0.082
-723.864	549.706	0.087	-0.210
-722.850	-117.002	-0.296	0.054
-721.835	-200.000	-0.008	-0.075
-720.821	-200.000	-0.014	0.066
-719.806	-91.905	-0.104	-0.030
-718.791	800.000	0.075	-0.245
-717.777	93.583	0.092	-0.105
-716.762	493.169	-0.087	-0.201
-715.748	-200.000	-0.024	0.208
-714.733	-79.485	-0.267	0.091
-713.718	-200.000	0.028	-0.221
-712.704	-49.980	-0.134	0.064
-711.689	-200.000	-0.035	-0.212
-710.675	800.000	0.071	0.220
-709.660	-24.456	0.187	-0.112
-708.645	-200.000	0.042	-0.273
-707.631	40.458	0.297	-0.270
-706.616	-68.831	-0.104	-0.041
-705.602	-188.401	0.230	-0.003
-704.587	-19.359	-0.265	-0.166
-703.572	78.840	0.184	0.198
-702.558	800.000	-0.006	-0.019
-701.543	-95.067	-0.149	-0.040
-700.529	-200.000	0.008	0.208
-699.514	357.840	-0.190	0.382
-698.499	138.042	-0.325	-0.429
-697.485	334.761	0.047	-0.091
-696.470	-132.055	0.157	0.021
-695.456	-200.000	0.018	0.281
-694.441	38.669	-0.188	-0.169
-693.426	-200.000	0.005	0.203
-692.412	157.851	0.212	-0.296
-691.397	-66.618	-0.251	0.100
-690.383	10.798	-0.025	0.019
-689.368	-122.469	-0.187	-0.031
-688.354	800.000	0.078	0.224
-687.339	-200.000	-0.023	-0.228
-686.324	-200.000	0.002	-0.013
-685.310	800.000	-0.128	-0.426
-684.295	800.000	0.025	0.073
-683.281	205.587	0.053	0.083
-682.266	82.698	0.198	-0.216
-681.251	-200.000	-0.040	-0.317
-680.237	336.675	0.019	-0.037
-679.222	117.510	-0.160	-0.198
-678.208	-42.323	0.124	0.064
-677.193	800.000	-0.066	-0.226
-676.178	-200.000	-0.008	-0.293
-675.164	141.557	-0.088	0.118
-674.149	20.083	0.148	-0.120
-673.135	45.864	0.213	-0.198
-672.120	-118.113	-0.173	-0.031
-671.105	-66.503	0.360	0.144
-670.091	198.429	0.133	0.204
-669.076	-200.000	0.016	-0.435
-668.062	245.142	-0.255	-0.431
-667.047	-150.564	-0.256	-0.020
-666.032	293.485	-0.052	0.096
-665.018	200.819	0.113	0.175
-664.003	-200.000	-0.000	-0.157
-662.989	-63.928	0.094	0.039
-661.974	60.362	0.188	0.187
-660.959	-169.017	0.200	-0.008
-659.945	-200.000	-0.064	-0.373
-658.930	-147.178	0.235	-0.020
-657.916	-94.566	-0.246	-0.067
-656.901	60.982	-0.176	-0.176
-655.886	727.224	-0.157	0.421
-654.872	800.000	0.034	0.104
-653.857	142.385	-0.179	-0.239
-652.843	800.000	-0.042	0.150
-651.828	-54.779	-0.233	0.106
-650.814	257.985	-0.157	0.272
-649.799	83.917	0.148	0.163
-648.784	-111.925	0.285	0.058
-647.770	52.234	-0.023	0.022
-646.755	-95.825	0.271	0.073
-645.741	28.760	-0.122	-0.104
-644.726	78.403	-0.273	-0.293
-643.711	-73.697	0.014	0.005
-642.697	632.132	0.046	0.117
-641.682	421.734	0.101	-0.219
-640.668	-200.000	0.040	-0.410
-639.653	102.699	-0.319	-0.376
-638.638	13.219	0.201	-0.156
-637.624	-129.205	-0.110	-0.015
-636.609	-92.961	0.033	0.009
-635.595	-32.406	-0.152	0.085
-634.580	-29.183	0.206	-0.118
-633.565	26.770	-0.174	-0.147
-632.551	616.930	-0.050	0.127
-631.536	-26.607	-0.204	0.120
-630.522	-200.000	0.050	0.258
-629.507	58.161	0.227	0.224
-628.492	45.089	-0.211	0.195
-627.478	-174.734	0.233	0.007
-626.463	49.702	-0.084	-0.079
-625.449	-1.835	0.253	-0.179
-624.434	-145.418	0.113	-0.010
-623.419	-61.939	0.132	-0.056
-622.405	18.264	-0.161	0.129
-621.390	351.421	-0.083	0.165
-620.376	-200.000	0.006	-0.153
-619.361	800.000	0.100	0.305
-618.346	15.126	0.114	0.090
-617.332	-174.026	0.243	-0.007
-616.317	72.765	-0.100	0.105
-615.303	36.346	0.090	0.080
-614.288	-140.117	-0.334	-0.035
-613.273	800.000	0.065	0.222
-612.259	-52.186	-0.055	-0.026
-611.244	-67.431	-0.187	-0.074
-610.230	-19.404	0.105	0.065
-609.215	800.000	0.080	0.241
-608.201	216.789	-0.066	-0.106
-607.186	-59.201	-0.309	-0.134
-606.171	105.079	0.358	-0.424
-605.157	423.197	-0.074	0.160
-604.142	800.000	0.069	-0.258
-603.128	-46.056	-0.103	-0.051
-602.113	53.519	0.284	-0.273
-601.098	-200.000	-0.026	-0.363
-600.084	-120.584	0.203	-0.035
-599.069	800.000	-0.095	0.364
-598.055	-200.000	-0.041	0.252
-597.040	-90.737	-0.290	-0.084
-596.025	445.143	-0.103	0.227
-595.011	-65.124	-0.127	0.051
-593.996	-200.000	0.048	0.265
-592.982	112.646	-0.156	-0.190
-591.967	800.000	0.053	0.171
-590.952	-27.498	0.058	-0.034
-589.938	6.002	-0.384	-0.285
-588.923	-71.396	0.153	-0.057
-587.909	-162.782	-0.268	0.013
-586.894	-107.994	-0.289	-0.063
-585.879	169.556	-0.195	0.280
-584.865	800.000	-0.118	0.337
-583.850	-200.000	0.040	-0.220
-582.836	800.000	-0.054	0.208
-581.821	391.400	0.090	0.189
-580.806	48.903	0.074	0.070
-579.792	260.419	-0.108	-0.187
-578.777	119.049	-0.124	0.153
-577.763	-200.000	-0.018	0.110
-576.748	-16.729	0.196	0.124
-575.733	549.989	-0.151	0.364
-574.719	-149.489	-0.315	0.025
-573.704	192.977	-0.150	0.228
-572.690	-99.565	-0.053	0.013
-571.675	-39.500	0.194	0.102
-570.661	315.388	-0.181	-0.343
-569.646	215.941	0.176	-0.281
-568.631	0.016	-0.200	-0.143
-567.617	800.000	0.014	-0.047
-566.602	106.882	0.136	0.162
-565.588	-101.135	0.491	0.120
-564.573	-91.277	-0.357	-0.103
-563.558	91.970	0.103	0.116
-562.544	-59.960	0.114	0.049
-561.529	-150.770	0.258	0.020
-560.515	-57.327	0.361	-0.159
-559.500	-27.274	-0.157	-0.092
-558.485	72.391	-0.126	0.132
-557.471	-200.000	0.016	-0.245
-556.456	-18.959	0.221	-0.138
-555.442	-70.989	0.188	0.071
-554.427	-200.000	-0.014	-0.206
-553.412	520.330	0.114	0.268
-552.398	-121.743	0.146	-0.024
-551.383	800.000	0.075	0.266
-550.369	-112.319	0.151	0.030
-549.354	313.207	-0.116	-0.219
-548.339	152.403	0.050	0.069
-547.325	68.273	0.097	0.099
-546.310	-32.077	-0.121	-0.068
-545.296	20.992	0.243	-0.198
-544.281	-107.812	-0.211	-0.046
-543.266	-65.301	0.144	-0.058
-542.252	800.000	0.112	0.324
-541.237	456.115	0.140	0.311
-540.223	-29.795	0.207	0.118
-539.208	-200.000	0.038	-0.331
-538.193	-103.364	0.367	0.087
-537.179	-200.000	-0.020	-0.333
-536.164	143.846	-0.292	0.389
-535.150	331.137	0.086	0.165
-534.135	-121.253	-0.048	0.008
-533.121	382.060	0.109	-0.224
-532.106	-200.000	0.059	0.291
-531.091	-95.168	-0.214	-0.058
-530.077	800.000	-0.142	0.436
-529.062	43.228	-0.180	0.164
-528.048	-200.000	0.053	0.266
-527.033	-66.351	0.209	-0.083
-526.018	-129.791	-0.379	0.052
-525.004	-200.000	0.005	-0.203
-523.989	-200.000	0.001	-0.138
-522.975	-47.464	0.182	-0.089
-521.960	5.790	0.332	0.246
-520.945	-186.971	-0.186	0.003
-519.931	-182.373	-0.203	-0.004
-518.916	-130.400	-0.336	0.045
-517.902	-200.000	-0.004	-0.094
-516.887	-200.000	-0.027	0.187
-515.872	59.930	0.042	0.042
-514.858	-115.669	0.163	0.030
-513.843	188.151	-0.142	0.212
-512.829	-19.316	-0.218	-0.136
-511.814	-139.601	0.236	-0.025
-510.799	-170.718	0.119	-0.004
-509.785	-36.745	-0.210	0.113
-508.770	-200.000	-0.080	-0.403
-507.756	248.630	-0.079	-0.133
-506.741	306.952	0.052	0.098
-505.726	59.298	-0.102	0.100
-504.712	-61.125	0.137	-0.058
-503.697	-3.946	-0.345	-0.240
-502.683	97.764	-0.207	-0.238
-501.668	-160.078	-0.308	0.017
-500.653	-1.414	0.139	0.098
-499.639	-185.039	0.135	-0.002
-498.624	-200.000	0.046	0.212
-497.610	-108.219	0.206	0.045
-496.595	-200.000	-0.013	0.252
-495.581	319.880	-0.103	0.195
-494.566	-78.280	0.152	-0.052
-493.551	-75.532	-0.118	0.042
-492.537	-21.025	-0.197	0.121
-491.522	-91.484	0.137	0.039
-490.508	304.784	0.078	-0.146
-489.493	-200.000	-0.007	-0.067
-488.478	83.952	0.207	0.226
-487.464	263.015	-0.147	-0.256
-486.449	-200.000	-0.002	-0.160
-485.435	-136.463	0.203	-0.024
-484.420	107.642	0.367	-0.436
-483.405	269.205	-0.055	-0.097
-482.391	30.423	0.091	-0.078
-481.376	-200.000	0.007	-0.138
-480.362	-47.779	-0.565	-0.274
-479.347	800.000	0.088	-0.262
-478.332	-200.000	-0.017	0.232
-477.318	-200.000	-0.015	0.283
-476.303	483.836	0.089	0.203
-475.289	223.116	0.136	0.219
-474.274	-200.000	0.005	0.153
-473.259	-118.506	0.102	-0.018
-472.245	-38.265	0.048	-0.025
-471.230	66.390	0.223	-0.227
-470.216	3.112	-0.160	-0.117
-469.201	-38.131	0.255	0.135
-468.186	184.789	-0.027	0.040
-467.172	800.000	0.047	0.163
-466.157	164.285	-0.049	0.069
-465.143	442.487	-0.167	-0.365
-464.128	158.146	-0.081	0.112
-463.113	543.250	-0.100	-0.239
-462.099	759.374	-0.056	0.150
-461.084	-200.000	-0.007	0.076
-460.070	800.000	-0.034	0.126
-459.055	-31.720	0.109	0.061
-458.040	132.538	-0.084	-0.108
-457.026	-43.846	0.175	-0.088
-456.011	-8.155	-0.111	-0.074
-454.997	800.000	0.033	-0.098
-453.982	-104.297	-0.215	-0.050
-452.968	427.113	-0.039	-0.084
-451.953	-14.931	0.072	0.046
-450.938	-103.732	0.030	0.007
-449.924	225.418	-0.085	-0.138
-448.909	-144.723	-0.278	0.025
-447.895	-200.000	-0.098	0.490
-446.880	-92.679	-0.070	0.020
-445.865	104.963	-0.093	0.110
-444.851	136.669	-0.173	-0.226
-443.836	-110.588	-0.048	-0.010
-442.822	-46.128	0.344	-0.169
-441.807	535.142	0.048	0.113
-440.792	596.839	-0.022	0.054
-439.778	-47.571	0.125	-0.060
-438.763	138.669	-0.158	-0.207
-437.749	800.000	-0.018	0.075
-436.734	-127.453	-0.141	-0.020
-435.719	340.078	-0.094	-0.184
-434.705	64.879	-0.125	0.126
-433.690	52.466	-0.192	0.183
-432.676	-134.432	-0.237	-0.029
-431.661	-54.176	0.204	0.092
-430.646	800.000	-0.055	-0.187
-429.632	21.184	-0.153	-0.124
-428.617	-46.706	-0.154	-0.075
-427.603	-69.741	-0.169	-0.064
-426.588	-170.055	0.154	0.005
-425.573	-116.271	0.459	-0.085
-424.559	-156.194	0.106	0.007
-423.544	219.698	0.257	-0.410
-422.530	94.664	0.154	0.175
-421.515	-200.000	0.224	0.001
-420.500	110.736	0.185	0.222
-419.486	-93.631	0.407	-0.112
-418.471	14.312	0.090	-0.070
-417.457	-74.977	0.073	0.026
-416.442	-200.000	0.030	-0.233
-415.428	8.305	-0.223	0.167
-414.413	-80.258	-0.386	0.129
-413.398	-56.536	-0.043	0.019
-412.384	60.227	0.229	0.226
-411.369	-122.570	-0.118	0.019
-410.355	800.000	0.045	0.140
-409.340	-200.000	-0.003	0.201
-408.325	-200.000	-0.017	-0.177
-407.311	221.353	-0.118	0.188
-406.296	251.799	-0.052	0.089
-405.282	36.962	-0.275	-0.242
-404.267	-183.549	-0.210	-0.004
-403.252	-27.122	-0.066	-0.038
-402.238	-174.710	0.312	-0.009
-401.223	-22.985	-0.169	-0.102
-400.209	694.651	0.127	-0.331
-399.194	-200.000	0.033	0.000
-398.179	520.394	-0.132	0.307
-397.165	-200.000	0.046	-0.333
-396.150	67.378	-0.261	-0.265
-395.136	-19.118	-0.161	0.100
-394.121	-56.977	0.262	0.115
-393.106	13.251	-0.197	0.152
-392.092	-124.457	-0.117	-0.018
-391.077	-2.350	0.235	0.164
-390.063	-200.000	0.012	-0.069
-389.048	-87.598	-0.338	0.102
-388.033	-200.000	-0.010	0.208
-387.019	-83.164	0.185	0.059
-386.004	-200.000	0.006	-0.030
-384.990	-31.135	0.273	0.153
-383.975	247.624	0.136	-0.229
-382.960	17.274	0.242	0.191
-381.946	-103.655	-0.186	0.043
-380.931	205.063	0.046	0.070
-379.917	-24.009	0.254	-0.151
-378.902	78.904	-0.201	-0.214
-377.888	593.294	-0.057	-0.139
-376.873	49.591	0.103	-0.097
-375.858	125.532	0.148	-0.185
-374.844	-25.025	0.219	-0.129
-373.829	218.174	0.104	-0.166
-372.815	221.829	-0.169	0.270
-371.800	18.052	-0.106	0.084
-370.785	256.063	-0.232	-0.396
-369.771	-200.000	0.051	0.287
-368.756	144.173	-0.075	0.099
-367.742	-200.000	0.024	-0.130
-366.727	-27.079	-0.110	0.064
-365.712	800.000	0.140	0.404
-364.698	-96.682	-0.109	-0.029
-363.683	-55.733	-0.088	0.039
-362.669	139.810	0.219	0.287
-361.654	117.928	0.074	0.090
-360.639	115.648	0.142	-0.173
-359.625	-87.603	0.247	-0.074
-358.610	-200.000	0.027	0.252
-357.596	42.954	-0.097	0.088
-356.581	800.000	0.011	-0.042
-355.566	-51.526	-0.179	-0.083
-354.552	160.548	-0.161	0.223
-353.537	-76.038	-0.258	0.091
-352.523	-167.493	-0.293	0.012
-351.508	-200.000	0.002	-0.201
-350.493	-8.766	0.139	-0.093
-349.479	76.321	0.054	-0.057
-348.464	677.331	0.043	0.111
-347.450	149.223	0.104	-0.140
-346.435	388.000	-0.006	-0.013
-345.420	228.802	0.104	-0.168
-344.406	69.557	-0.183	-0.187
-343.391	-55.107	-0.258	-0.115
-342.377	-85.063	-0.316	-0.098
-341.362	38.497	0.151	-0.133
-340.348	196.127	0.154	0.233
-339.333	-112.825	0.384	0.076
-338.318	-64.345	0.412	0.167
-337.304	-99.962	0.164	-0.041
-336.289	-200.000	0.014	0.223
-335.275	-73.907	-0.347	0.125
-334.260	576.762	0.058	0.140
-333.245	-132.267	0.034	-0.004
-332.231	16.858	-0.273	0.215
-331.216	-0.944	0.216	-0.152
-330.202	-6.605	0.140	0.094
-329.187	82.217	0.051	-0.055
-328.172	261.637	0.162	-0.279
-327.158	160.554	-0.229	-0.317
-326.143	89.241	0.138	0.153
-325.129	-131.984	-0.363	0.047
-324.114	153.061	0.230	0.312
-323.099	800.000	0.059	-0.241
-322.085	47.109	0.119	0.110
-321.070	-149.075	-0.293	-0.023
-320.056	30.704	-0.433	-0.368
-319.041	-140.008	0.339	0.035
-318.026	-31.037	-0.171	-0.096
-317.012	-134.748	0.197	0.024
-315.997	11.698	-0.137	0.104
-314.983	-159.231	0.118	-0.007
-313.968	24.401	-0.156	-0.128
-312.953	101.548	-0.095	-0.110
-311.939	470.812	0.071	-0.158
-310.924	-61.101	-0.220	-0.092
-309.910	-200.000	-0.050	0.261
-308.895	182.289	0.204	0.299
-307.880	533.249	0.077	-0.181
-306.866	96.321	0.224	0.254
-305.851	230.224	-0.097	0.157
-304.837	-200.000	-0.019	-0.407
-303.822	88.659	0.061	-0.067
-302.807	50.965	-0.084	-0.079
-301.793	-200.000	-0.030	-0.256
-300.778	512.790	0.040	0.092
-299.764	233.212	0.108	0.176
-298.749	140.356	0.362	0.475
-297.735	29.027	0.013	0.011
-296.720	-200.000	0.001	-0.022
-295.705	-134.605	0.139	0.017
-294.691	350.276	-0.070	-0.138
-293.676	800.000	-0.104	0.380
-292.662	199.297	0.188	0.286
-291.647	32.115	0.306	0.261
-290.632	33.659	0.050	-0.043
-289.618	-48.929	0.150	-0.071
-288.603	115.928	0.155	-0.188
-287.589	31.084	-0.128	0.109
-286.574	94.800	0.137	-0.155
-285.559	800.000	0.071	-0.202
-284.545	-171.646	0.142	-0.005
-283.530	-200.000	0.006	-0.148
-282.516	170.381	0.108	0.153
-281.501	20.774	0.035	-0.028
-280.486	-30.274	-0.433	0.244
-279.472	652.482	0.100	-0.254
-278.457	-0.391	-0.124	-0.087
-277.443	-93.199	0.331	-0.091
-276.428	-96.904	0.408	-0.106
-275.413	-200.000	-0.009	0.058
-274.399	80.001	-0.053	-0.056
-273.384	-17.161	0.192	-0.120
-272.370	-200.000	0.029	0.164
-271.355	51.824	0.198	-0.186
-270.340	439.220	-0.074	0.161
-269.326	115.924	-0.146	-0.177
-268.311	96.865	-0.107	-0.121
-267.297	167.745	-0.092	-0.129
-266.282	-200.000	0.079	-0.345
-265.267	124.766	0.136	0.169
-264.253	3.659	-0.131	0.095
-263.238	-13.851	-0.166	-0.107
-262.224	-43.145	0.144	-0.072
-261.209	-96.569	-0.108	-0.028
-260.195	-13.156	0.073	-0.047
-259.180	800.000	-0.023	0.083
-258.165	-57.083	-0.352	0.154
-257.151	143.340	-0.130	-0.172
-256.136	104.404	-0.111	0.129
-255.122	-24.121	-0.191	0.113
-254.107	-43.898	0.308	0.153
-253.092	-200.000	-0.038	0.305
-252.078	42.447	-0.221	-0.199
-251.063	307.904	0.100	-0.185
-250.049	-33.548	-0.148	0.081
-249.034	332.412	0.212	-0.406
-248.019	-24.932	-0.195	0.115
-247.005	-157.070	0.279	0.017
-245.990	424.402	-0.055	-0.118
-244.976	160.182	-0.218	-0.301
-243.961	-86.342	-0.211	-0.064
-242.946	-134.077	-0.123	0.015
-241.932	13.009	0.407	0.311
-240.917	-103.183	-0.219	0.051
-239.903	-200.000	-0.005	-0.275
-238.888	195.729	-0.015	0.022
-237.873	-98.515	-0.265	-0.067
-236.859	-13.835	0.374	0.239
-235.844	123.879	-0.097	-0.120
-234.830	52.803	0.129	-0.122
-233.815	361.242	0.074	0.146
-232.800	54.842	-0.300	-0.287
-231.786	169.486	0.055	0.078
-230.771	39.233	-0.207	-0.183
-229.757	367.498	0.130	-0.261
-228.742	-7.697	-0.396	0.265
-227.727	-130.079	0.091	0.012
-226.713	-87.523	-0.236	-0.071
-225.698	-200.000	0.038	-0.300
-224.684	800.000	0.046	0.131
-223.669	24.638	0.152	0.124
-222.655	800.000	-0.051	0.191
-221.640	-200.000	-0.005	-0.044
-220.625	53.070	-0.164	-0.156
-219.611	483.468	0.037	-0.082
-218.596	62.129	-0.144	0.142
-217.582	-200.000	-0.004	-0.093
-216.567	30.361	-0.108	-0.091
-215.552	-112.889	0.084	0.016
-214.538	-170.382	-0.131	-0.005
-213.523	-14.282	0.114	0.073
-212.509	-123.319	0.353	0.056
-211.494	-26.870	-0.121	-0.070
-210.479	-200.000	0.031	0.247
-209.465	800.000	0.067	0.204
-208.450	294.567	-0.171	-0.309
-207.436	226.336	-0.075	0.121
-206.421	-8.262	0.107	-0.071
-205.406	-200.000	0.153	0.000
-204.392	37.154	0.199	-0.175
-203.377	-48.757	0.117	-0.056
-202.363	-67.976	0.305	-0.118
-201.348	-188.413	-0.088	-0.001
-200.333	-200.000	-0.001	0.055
-199.319	-200.000	-0.064	-0.287
-198.304	64.842	0.058	0.057
-197.290	-18.078	-0.175	-0.108
-196.275	99.625	-0.119	-0.136
-195.260	-70.544	0.192	-0.072
-194.246	119.454	-0.165	0.202
-193.231	-200.000	-0.035	-0.153
-192.217	251.872	0.163	0.274
-191.202	445.184	0.145	-0.314
-190.187	6.203	0.078	0.057
-189.173	215.135	-0.169	0.265
-188.158	4.224	-0.109	-0.079
-187.144	-200.000	0.003	0.045
-186.129	162.332	-0.176	0.244
-185.114	-200.000	0.001	-0.187
-184.100	105.941	-0.119	0.140
-183.085	711.883	-0.170	0.445
-182.071	-200.000	-0.022	-0.275
-181.056	236.858	0.130	0.212
-180.042	-101.295	-0.133	0.032
-179.027	800.000	0.101	0.288
-178.012	-109.896	-0.277	-0.057
-176.998	-11.886	0.142	-0.092
-175.983	150.451	0.163	-0.219
-174.969	-180.040	0.232	0.005
-173.954	185.835	-0.185	-0.271
-172.939	800.000	-0.020	-0.070
-171.925	73.702	0.345	0.357
-170.910	401.792	0.121	0.250
-169.896	316.611	0.053	0.099
-168.881	-24.587	0.159	-0.094
-167.866	99.772	-0.367	-0.419
-166.852	305.608	-0.170	-0.312
-165.837	58.587	-0.229	-0.222
-164.823	800.000	0.011	0.036
-163.808	-46.125	0.210	0.102
-162.793	-200.000	-0.067	-0.308
-161.779	800.000	-0.033	0.140
-160.764	-96.055	-0.169	-0.044
-159.750	8.833	0.379	-0.282
-158.735	287.558	0.103	0.183
-157.720	-73.032	-0.190	0.069
-156.706	216.665	-0.200	0.314
-155.691	-62.794	-0.309	-0.126
-154.677	-200.000	-0.005	0.128
-153.662	-200.000	0.086	0.385
-152.647	800.000	0.039	-0.168
-151.633	494.857	-0.093	0.210
-150.618	800.000	-0.078	0.221
-149.604	436.744	0.035	0.074
-148.589	103.523	0.102	-0.118
-147.574	31.587	0.230	-0.195
-146.560	-94.057	-0.308	-0.083
-145.545	65.087	0.042	0.042
-144.531	83.223	0.147	0.158
-143.516	263.057	-0.005	0.008
-142.502	-19.986	-0.212	0.129
-141.487	-3.102	0.176	0.121
-140.472	-34.214	0.192	0.104
-139.458	5.802	-0.070	0.051
-138.443	-19.896	-0.187	-0.114
-137.429	40.257	0.152	0.135
-136.414	-5.005	0.217	-0.147
-135.399	-86.852	0.125	0.037
-134.385	800.000	0.045	-0.131
-133.370	-30.372	0.176	0.098
-132.356	152.120	0.039	-0.052
-131.341	-200.000	0.029	0.389
-130.326	71.919	0.238	-0.244
-129.312	34.167	0.108	-0.093
-128.297	-86.105	-0.193	-0.059
-127.283	-200.000	-0.027	0.251
-126.268	-200.000	0.071	0.310
-125.253	481.400	0.140	0.312
-124.239	243.936	-0.143	0.236
-123.224	-200.000	-0.010	0.169
-122.210	15.168	-0.264	-0.204
-121.195	22.114	-0.161	-0.129
-120.180	-21.811	0.218	0.131
-119.166	-0.720	0.054	0.037
-118.151	147.458	0.168	0.223
-117.137	-200.000	-0.024	0.157
-116.122	-100.366	-0.056	-0.014
-115.107	-33.462	-0.082	0.045
-114.093	-45.203	0.086	-0.042
-113.078	-4.987	0.184	-0.125
-112.064	-13.138	0.106	-0.068
-111.049	468.084	0.040	0.089
-110.034	-61.253	-0.143	0.059
-109.020	268.166	-0.144	0.249
-108.005	-49.813	0.222	-0.104
-106.991	140.304	0.170	0.221
-105.976	-200.000	-0.025	0.146
-104.962	-80.562	0.290	0.095
-103.947	57.121	-0.161	0.155
-102.932	-165.940	0.136	-0.006
-101.918	-50.796	0.121	-0.056
-100.903	385.534	0.134	0.272
-99.889	-125.597	0.214	0.032
-98.874	-124.233	-0.296	0.046
-97.859	800.000	-0.075	-0.313
-96.845	-107.995	0.263	0.056
-95.830	61.916	-0.136	-0.133
-94.816	60.105	-0.094	0.091
-93.801	87.051	-0.418	0.454
-92.786	800.000	-0.062	0.171
-91.772	-83.989	-0.128	-0.040
-90.757	-102.735	0.227	-0.053
-89.743	117.717	0.305	0.370
-88.728	800.000	-0.092	0.345
-87.713	305.306	0.169	0.309
-86.699	-40.755	0.219	0.112
-85.684	-128.183	0.292	0.041
-84.670	800.000	-0.072	0.250
-83.655	-8.386	0.261	-0.173
-82.640	-200.000	0.010	-0.212
-81.626	673.706	0.054	-0.137
-80.611	24.256	-0.248	0.202
-79.597	-85.876	0.234	-0.071
-78.582	37.194	-0.107	-0.093
-77.567	-162.903	-0.223	0.011
-76.553	27.367	-0.256	-0.212
-75.538	205.167	-0.115	-0.176
-74.524	-200.000	0.041	-0.190
-73.509	800.000	0.059	-0.185
-72.494	570.443	-0.075	-0.180
-71.480	-200.000	0.002	-0.259
-70.465	-200.000	-0.002	0.266
-69.451	-200.000	0.064	0.391
-68.436	-200.000	-0.012	-0.325
-67.422	-70.263	-0.274	-0.102
-66.407	-200.000	-0.012	-0.106
-65.392	131.078	0.223	-0.281
-64.378	-4.897	0.213	-0.145
-63.363	-149.852	-0.024	-0.002
-62.349	50.869	-0.104	0.097
-61.334	95.249	-1.027	-1.150
-60.319	46.605	0.591	0.539
-59.305	-200.000	-0.105	-0.908
-58.290	318.386	0.557	1.037
-57.276	473.481	0.830	1.838
-56.261	-200.000	101.637	574.101
-55.246	492.907	1422.519	3204.490
-54.232	155.532	2595.455	3511.548
-53.217	110.958	2138.931	2530.038
-52.203	42.741	1592.480	1425.040
-51.188	34.508	1329.664	1140.829
-50.173	31.297	1287.860	1086.280
-49.159	54.016	1338.456	1264.200
-48.144	55.736	1355.468	1290.414
-47.130	34.563	1311.957	1125.782
-46.115	31.201	1294.052	1090.773
-45.100	30.938	1289.110	1085.030
-44.086	30.795	1287.067	1082.435
-43.071	30.807	1284.491	1080.296
-42.057	30.764	1282.477	1078.310
-41.042	30.759	1281.433	1077.362
-40.027	30.852	1279.592	1076.306
-39.013	30.870	1277.145	1074.311
-37.998	30.814	1275.984	1072.968
-36.984	30.938	1273.868	1071.862
-35.969	30.922	1272.296	1070.405
-34.954	30.890	1270.540	1068.698
-33.940	30.931	1269.146	1067.723
-32.925	30.796	1268.358	1066.244
-31.911	30.971	1266.771	1065.867
-30.896	30.960	1265.438	1064.640
-29.881	31.000	1263.953	1063.576
-28.867	31.020	1261.978	1061.984
-27.852	31.036	1261.047	1061.251
-26.838	31.174	1259.327	1060.544
-25.823	31.016	1257.780	1058.305
-24.809	30.977	1256.569	1057.025
-23.794	30.946	1255.941	1056.274
-22.779	30.936	1254.291	1054.793
-21.765	30.974	1252.886	1053.784
-20.750	30.972	1251.545	1052.602
-19.736	30.804	1250.585	1050.802
-18.721	30.832	1249.470	1049.982
-17.706	30.859	1248.567	1049.335
-16.692	30.927	1246.858	1048.237
-15.677	30.813	1245.843	1046.706
-14.663	30.838	1244.677	1045.820
-13.648	30.709	1243.874	1044.383
-12.633	30.797	1242.432	1043.625
-11.619	30.854	1241.524	1043.137
-10.604	30.794	1241.027	1042.345
-9.590	30.883	1240.066	1041.995
-8.575	30.828	1239.072	1040.808
-7.560	30.856	1237.809	1039.864
-6.546	30.805	1237.373	1039.174
-5.531	30.770	1236.886	1038.529
-4.517	30.901	1235.469	1038.024
-3.502	30.881	1235.046	1037.514
-2.487	30.725	1233.962	1035.695
-1.473	30.831	1229.711	1032.675
-0.458	29.373	1214.777	1012.098
0.556	23.767	1197.742	973.505
1.571	20.018	1203.604	957.499
2.586	19.067	1218.259	963.750
3.600	18.711	1207.158	952.910
4.615	13.693	1135.251	869.811
5.629	4.675	1059.949	767.702
6.644	0.331	1040.139	732.216
7.659	0.029	1037.483	728.817
8.673	0.034	1036.604	728.158
9.688	-0.084	1035.432	726.703
10.702	0.210	1033.642	726.801
11.717	5.315	1040.782	756.516
12.731	13.920	1051.808	806.407
13.746	17.508	1055.360	826.510
14.761	17.048	1053.635	822.855
15.775	15.958	1051.410	815.770
16.790	14.969	1049.201	809.198
17.804	14.230	1048.090	804.698
18.819	13.799	1047.605	802.175
19.834	13.656	1046.075	800.241
20.848	13.476	1044.865	798.375
21.863	13.151	1044.336	796.337
22.877	12.981	1043.781	795.022
23.892	12.919	1043.377	794.346
24.907	13.028	1042.462	794.102
25.921	13.106	1041.431	793.623
26.936	13.031	1040.473	792.462
27.950	13.116	1039.651	792.172
28.965	13.117	1038.604	791.311
29.980	13.231	1036.969	790.538
30.994	13.245	1036.485	790.170
32.009	13.142	1035.783	789.069
33.023	13.174	1034.721	788.344
34.038	13.128	1033.977	787.489
35.053	13.110	1032.853	786.476
36.067	13.140	1031.992	785.893
37.082	13.207	1030.764	785.208
38.096	13.316	1029.666	784.819
39.111	13.335	1029.408	784.645
40.126	13.047	1028.330	782.391
41.140	13.028	1027.302	781.447
42.155	13.011	1025.759	780.122
43.169	12.862	1025.162	778.897
44.184	12.995	1024.489	778.945
45.199	12.965	1023.244	777.788
46.213	12.997	1021.822	776.786
47.228	13.038	1020.957	776.256
48.242	12.818	1020.583	774.866
49.257	13.009	1019.174	774.624
50.271	13.025	1018.156	773.860
51.286	13.100	1017.400	773.566
52.301	13.066	1016.369	772.558
53.315	13.068	1015.423	771.780
54.330	13.041	1014.493	770.878
55.344	12.949	1013.664	769.750
56.359	13.014	1012.837	769.356
57.374	13.010	1011.806	768.486
58.388	12.988	1011.041	767.733
59.403	12.886	1010.551	766.820
60.417	12.939	1009.474	766.183
61.432	12.856	1008.653	765.104
62.447	12.930	1007.884	764.797
63.461	12.848	1007.006	763.684
64.476	12.770	1006.269	762.696
65.490	12.752	1005.278	761.794
66.505	12.983	1004.221	761.995
67.520	12.855	1003.941	761.123
68.534	12.822	1003.595	760.642
69.549	12.963	1002.250	760.205
70.563	13.066	1001.251	759.852
71.578	12.830	1001.134	758.612
72.593	12.823	1000.443	757.986
73.607	12.772	999.400	756.895
74.622	12.792	999.037	756.646
75.636	12.836	998.323	756.237
76.651	12.804	998.003	755.784
77.666	12.777	997.338	755.089
78.680	12.926	996.005	754.696
79.695	12.910	995.670	754.303
80.709	12.966	994.881	753.895
81.724	12.933	994.641	753.494
82.739	13.084	993.649	753.365
83.753	13.157	992.618	752.850
84.768	13.101	992.371	752.340
85.782	13.087	991.666	751.675
86.797	13.200	990.050	750.895
87.812	13.193	989.501	750.383
88.826	13.023	988.737	748.964
89.841	13.154	987.885	748.849
90.855	13.209	986.894	748.279
91.870	13.201	986.253	747.692
92.884	13.229	985.787	747.396
93.899	13.317	984.425	746.697
94.914	13.224	984.065	745.937
95.928	13.236	983.254	745.312
96.943	13.218	982.210	744.373
97.957	13.173	981.582	743.627
98.972	13.106	980.905	742.746
99.987	13.204	979.865	742.337
101.001	13.207	978.590	741.318
102.016	13.250	977.451	740.581
103.030	13.127	977.526	740.023
104.045	13.146	976.284	739.099
105.060	13.181	975.852	738.866
106.074	13.098	974.613	737.489
107.089	13.129	973.625	736.818
108.103	13.063	972.614	735.694
109.118	13.056	972.072	735.186
110.133	13.010	971.035	734.131
111.147	13.092	970.215	733.811
112.162	13.057	969.716	733.213
113.176	13.126	968.321	732.400
114.191	13.115	968.271	732.251
115.206	13.133	967.593	731.752
116.220	13.180	966.387	730.981
117.235	13.196	965.360	730.210
118.249	13.114	964.831	729.382
119.264	13.174	963.885	728.872
120.279	13.105	963.193	727.977
121.293	13.106	962.590	727.460
122.308	12.981	961.750	726.212
123.322	13.050	960.680	725.644
124.337	12.939	959.835	724.454
125.352	13.002	958.821	723.899
126.366	13.040	957.658	723.123
127.381	12.974	956.914	722.209
128.395	13.213	955.633	722.224
129.410	13.080	955.036	721.127
130.424	13.066	954.157	720.340
131.439	13.111	953.411	719.909
132.454	13.173	952.419	719.366
133.468	13.209	951.814	719.004
134.483	13.323	950.728	718.615
135.497	13.225	949.865	717.474
136.512	13.087	949.372	716.436
137.527	13.065	948.636	715.725
138.541	13.174	947.836	715.530
139.556	13.140	947.372	714.969
140.570	13.317	946.060	714.680
141.585	13.342	945.523	714.320
142.600	13.388	944.559	713.726
143.614	13.255	943.970	712.645
144.629	13.406	942.962	712.469
145.643	13.304	942.325	711.485
146.658	13.161	941.734	710.364
147.673	13.169	940.340	709.283
148.687	13.345	939.558	709.384
149.702	13.205	939.164	708.424
150.716	13.185	938.126	707.493
151.731	13.230	937.539	707.180
152.746	13.317	936.846	706.967
153.760	13.282	936.321	706.361
154.775	13.215	935.882	705.679
155.789	13.244	935.296	705.299
156.804	13.344	934.466	705.036
157.819	13.413	933.643	704.649
158.833	13.390	933.099	704.075
159.848	13.487	932.061	703.641
160.862	13.621	930.581	703.031
161.877	13.335	930.188	701.462
162.892	13.332	929.148	700.601
163.906	13.322	928.295	699.854
164.921	13.290	927.945	699.394
165.935	13.429	926.777	699.040
166.950	13.313	926.352	698.166
167.964	13.441	924.951	697.586
168.979	13.461	924.597	697.343
169.994	13.451	923.517	696.426
171.008	13.568	922.743	696.273
172.023	13.496	921.842	695.228
173.037	13.471	921.537	694.830
174.052	13.439	920.981	694.216
175.067	13.419	920.026	693.350
176.081	13.408	919.920	693.162
177.096	13.457	918.940	692.567
178.110	13.328	918.757	691.831
179.125	13.475	917.671	691.564
180.140	13.505	917.357	691.391
181.154	13.674	916.961	691.739
182.169	13.508	916.751	690.827
183.183	13.680	915.907	690.848
184.198	13.763	914.835	690.323
185.213	13.631	914.294	689.303
186.227	13.769	913.481	689.203
187.242	13.778	913.167	688.941
188.256	13.722	912.265	687.966
189.271	13.677	911.970	687.499
190.286	13.518	911.335	686.299
191.300	13.552	910.233	685.548
192.315	13.446	909.567	684.548
193.329	13.402	909.240	684.061
194.344	13.560	908.577	684.155
195.359	13.597	907.673	683.565
196.373	13.740	907.343	683.846
197.388	13.737	906.958	683.484
198.402	13.880	906.478	683.649
199.417	13.805	905.764	682.741
200.432	13.946	905.001	682.684
201.446	13.853	904.861	682.140
202.461	13.944	904.141	681.907
203.475	13.942	903.518	681.368
204.490	13.856	903.005	680.570
205.504	13.842	902.166	679.819
206.519	13.929	901.229	679.409
207.534	13.927	900.293	678.636
208.548	13.898	899.716	678.022
209.563	13.853	899.526	677.637
210.577	13.994	899.233	677.931
211.592	13.928	898.398	676.974
212.607	14.012	897.153	676.316
213.621	14.110	896.603	676.238
214.636	14.008	896.064	675.361
215.650	14.068	895.350	675.003
216.665	14.035	894.480	674.157
217.680	14.231	893.903	674.455
218.694	14.218	893.275	673.869
219.709	14.116	892.837	673.065
220.723	14.194	892.220	672.856
221.738	14.061	891.522	671.733
222.753	14.197	890.730	671.628
223.767	14.304	890.287	671.665
224.782	14.178	890.058	670.922
225.796	14.339	889.347	670.977
226.811	14.218	888.751	669.982
227.826	14.224	887.505	669.008
228.840	14.100	887.266	668.270
229.855	14.287	886.184	668.146
230.869	14.223	885.636	667.418
231.884	14.235	884.997	666.926
232.899	14.282	883.932	666.252
233.913	14.195	883.642	665.625
234.928	14.140	883.142	664.971
235.942	14.280	882.243	664.795
236.957	14.259	881.658	664.209
237.972	14.227	881.354	663.793
238.986	14.385	880.284	663.561
240.001	14.138	880.286	662.518
241.015	14.351	879.012	662.350
242.030	14.370	878.633	662.077
243.045	14.289	878.269	661.425
244.059	14.416	877.668	661.418
245.074	14.331	877.233	660.696
246.088	14.274	876.958	660.203
247.103	14.651	875.551	660.577
248.117	14.660	874.802	659.990
249.132	14.644	874.664	659.762
250.147	14.798	873.707	659.592
251.161	14.654	873.726	658.978
252.176	14.714	873.052	658.649
253.190	14.822	872.305	658.451
254.205	14.876	871.327	657.868
255.220	14.720	870.619	656.663
256.234	14.791	870.418	656.733
257.249	14.746	869.516	655.816
258.263	14.808	868.991	655.604
259.278	14.852	868.161	655.094
260.293	14.921	867.576	654.863
261.307	15.029	867.078	654.852
262.322	14.936	866.676	654.128
263.336	14.985	866.021	653.768
264.351	14.902	865.356	652.882
265.366	14.915	864.673	652.360
266.380	14.919	863.870	651.712
267.395	14.965	863.261	651.376
268.409	14.990	862.700	650.992
269.424	14.869	861.855	649.825
270.439	14.879	861.389	649.458
271.453	15.111	860.167	649.379
272.468	14.982	860.183	648.830
273.482	14.946	859.284	647.954
274.497	15.101	858.558	647.951
275.512	14.938	858.466	647.193
276.526	14.969	857.535	646.557
277.541	15.022	857.035	646.325
278.555	15.065	856.661	646.150
279.570	15.152	856.076	645.988
280.585	15.166	855.090	645.242
281.599	15.026	854.701	644.353
282.614	15.173	853.853	644.223
283.628	15.195	853.298	643.828
284.643	15.368	852.455	643.801
285.657	15.236	852.023	642.910
286.672	15.222	851.344	642.287
287.687	15.331	850.646	642.121
288.701	15.252	850.353	641.543
289.716	15.145	850.141	640.916
290.730	15.308	849.320	640.862
291.745	15.310	848.590	640.265
292.760	15.334	847.833	639.726
293.774	15.429	847.441	639.736
294.789	15.348	847.112	639.124
295.803	15.195	846.246	637.831
296.818	15.314	845.171	637.417
297.833	15.335	845.198	637.462
298.847	15.486	844.145	637.181
299.862	15.485	843.802	636.863
300.876	15.462	843.528	636.514
301.891	15.495	842.804	636.036
302.906	15.552	842.416	635.904
303.920	15.575	841.729	635.415
304.935	15.618	841.236	635.147
305.949	15.421	840.528	633.815
306.964	15.507	840.210	633.842
307.979	15.510	839.402	633.189
308.993	15.672	838.798	633.288
310.008	15.679	838.568	633.083
311.022	15.466	837.949	631.760
312.037	15.618	837.021	631.574
313.052	15.676	836.279	631.177
314.066	15.669	836.181	631.019
315.081	15.592	835.451	630.127
316.095	15.620	834.977	629.817
317.110	15.548	834.630	629.229
318.125	15.595	833.883	628.789
319.139	15.598	833.431	628.401
320.154	15.575	833.124	628.029
321.168	15.645	832.640	627.869
322.183	15.683	832.345	627.735
323.197	15.817	831.411	627.475
324.212	15.666	831.346	626.805
325.227	15.710	830.387	626.190
326.241	15.770	829.685	625.830
327.256	15.687	829.387	625.242
328.270	15.824	828.368	624.925
329.285	15.723	828.346	624.479
330.300	15.643	827.681	623.626
331.314	15.700	827.037	623.295
332.329	15.786	826.651	623.269
333.343	15.783	826.749	623.276
334.358	15.885	825.694	622.803
335.373	15.806	825.299	622.160
336.387	15.829	825.244	622.148
337.402	15.937	824.474	621.911
338.416	16.147	824.158	622.390
339.431	16.086	823.931	621.941
340.446	16.002	823.584	621.315
341.460	16.028	823.299	621.140
342.475	16.197	822.693	621.250
343.489	16.179	822.345	620.865
344.504	16.121	821.710	620.116
345.519	16.296	821.172	620.302
346.533	16.098	820.971	619.368
347.548	16.148	820.447	619.098
348.562	16.174	819.672	618.557
349.577	16.110	819.045	617.793
350.592	16.100	818.433	617.240
351.606	16.150	817.693	616.809
352.621	16.109	817.113	616.167
353.635	16.217	816.636	616.150
354.650	16.291	816.250	616.071
355.665	16.179	815.459	615.012
356.679	16.154	815.051	614.560
357.694	16.340	813.994	614.386
358.708	16.330	813.612	614.007
359.723	16.350	813.095	613.634
360.738	16.303	812.697	613.110
361.752	16.298	812.163	612.634
362.767	16.390	811.273	612.242
363.781	16.325	810.883	611.658
364.796	16.481	810.454	611.843
365.810	16.509	810.200	611.702
366.825	16.570	809.578	611.395
367.840	16.428	809.302	610.622
368.854	16.464	808.728	610.265
369.869	16.415	808.386	609.776
370.883	16.429	807.913	609.414
371.898	16.504	808.061	609.744
372.913	16.614	807.536	609.690
373.927	16.676	806.266	608.900
374.942	16.660	806.140	608.692
375.956	16.565	805.883	608.104
376.971	16.856	805.029	608.449
377.986	16.860	804.663	608.133
379.000	16.657	804.632	607.328
380.015	16.770	804.403	607.506
381.029	16.779	803.112	606.510
382.044	16.648	803.109	605.986
383.059	16.847	802.452	606.150
384.073	16.832	801.742	605.505
385.088	16.760	801.271	604.839
386.102	16.793	800.545	604.353
387.117	16.651	800.306	603.615
388.132	16.817	799.277	603.376
389.146	16.786	798.812	602.861
390.161	16.688	798.771	602.426
391.175	17.028	798.024	603.020
392.190	16.773	797.700	601.815
393.205	16.780	797.189	601.400
394.219	16.886	796.765	601.406
395.234	16.940	796.419	601.281
396.248	16.792	796.099	600.463
397.263	16.756	795.770	600.033
398.278	16.863	795.059	599.823
399.292	16.933	794.862	599.868
400.307	16.835	794.332	599.071
401.321	16.767	793.967	598.500
402.336	16.981	793.365	598.750
403.350	16.987	792.901	598.367
404.365	17.117	792.746	598.658
405.380	17.058	792.023	597.850
406.394	17.121	791.477	597.607
407.409	17.042	791.200	597.066
408.423	17.098	790.847	596.943
409.438	17.125	790.357	596.617
410.453	17.085	790.254	596.344
411.467	17.034	789.933	595.872
412.482	17.389	788.876	596.264
413.496	17.398	788.789	596.176
414.511	17.266	788.545	595.479
415.526	17.234	788.050	594.939
416.540	17.271	787.617	594.692
417.555	17.286	787.321	594.467
418.569	17.435	786.474	594.294
419.584	17.441	786.119	593.996
420.599	17.365	785.895	593.506
421.613	108.350	1289.665	1463.576
422.628	92.824	1363.048	1463.681
