DTS Sentinel unit serial number:	SN413079Multiplexer serial number:	ORYXHardware model number:	OX4-SRSoftware version number:	ORYX F/W v4.00 Oryx Data Collector v3.7.2.0data status	okinstallation	princeton_trtdifferential loss correction	single-endedforward channel	channel 1reverse channel	N/Adate	2019/09/12time	20:04:34forward acquisition time	15.00reverse acquisition time	0.00gamma	496.2192k internal	0.2323k external	0.2323temperature offset calibration	1.0143default loss term (dB/km)	0.3790temperature slope calibration	1.0000multiplexer offset coefficient	1.0000multiplexer slope coefficient	1.0000fibre end	0.00T internal ref (°C)	31.69T ext. ref 1 (°C)	3.44T ext. ref 2 (°C)	26.31length (m)	temperature (°C)	Stokes	anti-Stokes-747.200	-186.814	-0.650	-0.009
-746.185	-200.000	-0.004	0.432
-745.171	-81.817	-0.165	0.055
-744.156	-73.007	-0.186	-0.069
-743.142	-54.139	0.817	-0.375
-742.127	-139.589	-0.563	0.061
-741.112	7.153	-0.506	-0.381
-740.098	-96.935	0.569	0.151
-739.083	-128.351	0.341	-0.049
-738.069	-77.645	0.609	-0.213
-737.054	-27.147	-0.643	0.378
-736.039	261.008	-0.497	-0.868
-735.025	800.000	-0.220	0.902
-734.010	61.687	-0.146	-0.147
-732.996	800.000	-0.062	-0.264
-731.981	-80.326	-0.958	-0.323
-730.966	-167.854	0.053	-0.002
-729.952	-40.771	-1.148	0.600
-728.937	800.000	0.081	0.350
-727.923	10.590	0.223	0.171
-726.908	-27.565	0.173	0.101
-725.894	800.000	-0.065	0.225
-724.879	6.910	-0.104	0.078
-723.864	-91.863	0.630	-0.180
-722.850	-39.878	0.461	-0.243
-721.835	-200.000	-1.040	0.005
-720.821	7.490	0.427	-0.322
-719.806	800.000	0.179	0.499
-718.791	234.583	0.280	-0.466
-717.777	-77.665	0.782	-0.273
-716.762	800.000	0.051	-0.187
-715.748	-200.000	0.061	-0.592
-714.733	-11.383	-0.480	-0.318
-713.718	-101.956	0.360	0.088
-712.704	18.274	-0.505	0.407
-711.689	20.877	-0.221	-0.180
-710.675	2.485	-0.341	0.249
-709.660	-82.525	-0.296	-0.097
-708.645	-200.000	0.064	-0.825
-707.631	-78.343	0.243	-0.084
-706.616	-101.072	0.788	-0.195
-705.602	423.138	0.115	0.249
-704.587	47.990	1.188	1.119
-703.572	50.327	-0.322	0.307
-702.558	-51.313	0.248	0.117
-701.543	28.641	-0.284	-0.242
-700.529	800.000	0.051	-0.160
-699.514	-38.550	-0.147	-0.078
-698.499	118.816	-0.696	-0.867
-697.485	109.252	-0.430	0.518
-696.470	-200.000	0.030	0.544
-695.456	-200.000	-0.003	0.438
-694.441	266.109	0.405	-0.713
-693.426	193.819	0.407	0.620
-692.412	-200.000	0.063	0.422
-691.397	800.000	-0.052	-0.221
-690.383	-144.982	-1.142	0.105
-689.368	-89.893	-0.332	0.098
-688.354	800.000	-0.267	-1.160
-687.339	-70.464	-0.067	0.026
-686.324	-146.030	0.625	-0.056
-685.310	372.676	0.146	-0.298
-684.295	19.016	-0.269	-0.217
-683.281	221.124	0.352	0.569
-682.266	464.239	0.302	0.681
-681.251	95.642	0.527	0.606
-680.237	-200.000	0.023	-0.119
-679.222	14.197	0.350	0.275
-678.208	58.769	-0.117	-0.116
-677.193	800.000	0.346	1.314
-676.178	89.362	-0.584	0.656
-675.164	-95.847	0.417	-0.112
-674.149	-157.295	0.427	0.026
-673.135	-102.599	-0.208	-0.050
-672.120	-8.011	-0.630	-0.428
-671.105	-59.622	-0.143	-0.062
-670.091	-200.000	-0.078	-0.599
-669.076	445.418	0.072	0.159
-668.062	-15.486	-0.610	0.392
-667.047	800.000	0.268	-0.923
-666.032	-77.047	-0.286	-0.100
-665.018	27.415	0.655	0.554
-664.003	-119.347	-0.988	-0.173
-662.989	-192.209	-0.452	0.004
-661.974	-200.000	-0.012	-0.127
-660.959	57.262	0.121	-0.119
-659.945	-38.531	0.604	-0.322
-658.930	-178.023	-0.298	-0.007
-657.916	161.022	0.568	-0.799
-656.901	800.000	-0.235	0.702
-655.886	-200.000	-0.011	0.207
-654.872	800.000	0.116	-0.488
-653.857	-200.000	-0.009	0.243
-652.843	-200.000	-0.027	-0.441
-651.828	-59.327	0.599	-0.259
-650.814	301.387	0.218	0.405
-649.799	-200.000	-0.071	0.489
-648.784	-56.869	-0.142	-0.063
-647.770	276.527	-0.268	-0.479
-646.755	-92.300	0.743	0.211
-645.741	-200.000	0.066	0.306
-644.726	315.295	-0.280	-0.531
-643.711	219.121	-0.344	0.553
-642.697	7.404	-0.167	0.126
-641.682	-200.000	0.064	-0.307
-640.668	-37.238	-0.603	0.324
-639.653	-200.000	-0.139	0.855
-638.638	-108.829	-0.139	-0.030
-637.624	-110.796	-0.361	0.075
-636.609	65.403	-0.112	0.114
-635.595	123.193	0.073	0.092
-634.580	54.716	-0.472	-0.457
-633.565	800.000	-0.129	-0.370
-632.551	-65.662	-0.542	0.219
-631.536	-77.931	-0.406	-0.141
-630.522	-167.966	-0.424	0.017
-629.507	-200.000	0.107	-0.692
-628.492	-42.758	-0.253	0.129
-627.478	173.249	0.049	0.071
-626.463	-187.928	0.228	-0.003
-625.449	738.725	-0.082	0.222
-624.434	0.345	-1.206	-0.866
-623.419	-200.000	-0.097	0.574
-622.405	800.000	-0.075	0.212
-621.390	-98.305	-0.768	-0.198
-620.376	459.493	-0.114	0.255
-619.361	227.051	-0.506	-0.827
-618.346	21.264	-0.363	-0.296
-617.332	-5.894	0.649	0.446
-616.317	72.815	0.278	0.291
-615.303	800.000	0.102	-0.327
-614.288	-200.000	0.006	-0.124
-613.273	544.679	0.321	-0.769
-612.259	-200.000	-0.167	-0.807
-611.244	-200.000	-0.021	0.312
-610.230	195.071	0.276	0.420
-609.215	105.456	0.669	-0.794
-608.201	54.624	0.153	0.148
-607.186	7.057	-0.426	0.319
-606.171	-42.553	0.567	-0.290
-605.157	-88.647	0.441	0.132
-604.142	-120.037	-1.201	0.207
-603.128	-200.000	0.033	-0.379
-602.113	-35.803	0.843	-0.458
-601.098	126.690	-0.663	-0.843
-600.084	-151.317	-0.037	-0.003
-599.069	800.000	-0.121	-0.373
-598.055	-107.488	-0.492	0.108
-597.040	25.024	-0.751	0.626
-596.025	800.000	-0.189	0.799
-595.011	-180.719	-0.468	0.010
-593.996	7.283	0.211	-0.158
-592.982	17.900	0.182	0.145
-591.967	-85.908	0.344	0.107
-590.952	172.851	-0.212	-0.306
-589.938	369.172	-0.032	-0.065
-588.923	-200.000	-0.086	-0.667
-587.909	-22.343	0.391	0.238
-586.894	4.841	-0.642	-0.474
-585.879	134.291	0.021	0.027
-584.865	-44.707	0.513	0.257
-583.850	-27.598	0.479	-0.279
-582.836	-200.000	-0.034	-0.844
-581.821	71.427	-0.439	-0.457
-580.806	-200.000	0.075	-0.513
-579.792	-200.000	-0.028	0.519
-578.777	800.000	0.237	-0.957
-577.763	64.449	-0.502	-0.507
-576.748	91.945	-0.292	-0.329
-575.733	44.856	0.645	0.596
-574.719	-131.639	0.196	-0.026
-573.704	-125.340	0.749	-0.115
-572.690	-100.104	0.870	0.217
-571.675	-46.800	-1.040	0.510
-570.661	-153.357	0.233	-0.016
-569.646	-155.280	0.433	0.028
-568.631	-121.208	0.656	0.110
-567.617	-65.281	0.372	-0.150
-566.602	-118.482	-0.383	0.068
-565.588	-8.616	-0.308	-0.208
-564.573	-200.000	0.026	-0.596
-563.558	-3.908	-0.757	-0.527
-562.544	610.618	0.303	-0.759
-561.529	43.576	0.294	-0.269
-560.515	214.993	-0.742	1.179
-559.500	-107.003	-0.596	-0.132
-558.485	-85.792	-0.687	-0.213
-557.471	-200.000	-0.019	0.651
-556.456	-116.107	0.299	0.056
-555.442	-146.738	0.570	-0.049
-554.427	-143.673	0.295	0.028
-553.412	800.000	-0.154	-0.495
-552.398	40.599	0.414	0.374
-551.383	800.000	-0.238	-0.673
-550.369	-115.540	-0.367	0.069
-549.354	193.642	0.180	0.273
-548.339	-88.217	-0.381	-0.114
-547.325	68.096	0.149	0.153
-546.310	-200.000	-0.187	-0.912
-545.296	-87.686	0.818	-0.247
-544.281	-200.000	0.005	-0.296
-543.266	-108.117	-0.244	-0.053
-542.252	-200.000	-0.047	0.372
-541.237	-140.618	-0.476	-0.049
-540.223	182.305	-0.103	-0.152
-539.208	-169.376	-0.087	0.003
-538.193	221.469	0.291	-0.468
-537.179	-107.307	-0.846	0.186
-536.164	800.000	-0.076	-0.221
-535.150	660.180	-0.251	-0.646
-534.135	-119.693	-0.632	-0.109
-533.121	-13.966	0.181	-0.117
-532.106	-200.000	0.056	-0.744
-531.091	244.717	-0.352	0.593
-530.077	800.000	0.118	-0.377
-529.062	800.000	-0.066	0.278
-528.048	43.373	0.740	0.677
-527.033	-156.449	-0.156	-0.010
-526.018	800.000	0.207	0.826
-525.004	16.615	0.500	0.396
-523.989	-200.000	-0.105	0.815
-522.975	633.328	-0.108	-0.274
-521.960	-200.000	0.076	-0.937
-520.945	800.000	-0.124	-0.483
-519.931	217.641	-0.144	0.229
-518.916	-200.000	0.021	0.629
-517.902	-200.000	-0.234	1.098
-516.887	-200.000	-0.021	0.105
-515.872	240.010	-0.550	-0.917
-514.858	-200.000	0.037	-0.201
-513.843	-200.000	0.212	-1.020
-512.829	128.606	-0.150	-0.191
-511.814	-200.000	-0.145	-0.968
-510.799	333.622	0.144	-0.278
-509.785	261.833	-0.570	0.989
-508.770	-200.000	0.019	0.514
-507.756	-200.000	0.115	-0.510
-506.741	144.338	0.292	0.390
-505.726	-200.000	-0.059	-0.303
-504.712	-92.936	0.892	0.249
-503.697	246.798	0.407	0.688
-502.683	-43.465	-0.233	-0.118
-501.668	-107.551	0.265	-0.058
-500.653	-45.579	-0.198	0.098
-499.639	-200.000	0.015	0.951
-498.624	-200.000	-0.076	-0.938
-497.610	145.000	0.146	-0.195
-496.595	332.113	0.075	0.145
-495.581	403.442	-0.272	-0.573
-494.566	-2.293	0.628	0.441
-493.551	-200.000	0.062	0.348
-492.537	-200.000	-0.012	0.091
-491.522	-35.343	-0.581	0.316
-490.508	-0.678	-0.692	0.491
-489.493	-61.279	0.743	-0.313
-488.478	376.096	-0.249	0.508
-487.464	-23.629	-0.160	-0.096
-486.449	738.466	-0.444	-1.190
-485.435	57.883	0.917	-0.897
-484.420	-167.212	-0.579	-0.023
-483.405	0.475	-0.118	0.085
-482.391	-45.792	-0.182	0.090
-481.376	268.245	0.773	1.353
-480.362	487.658	0.482	-1.099
-479.347	-89.570	-1.070	0.314
-478.332	256.276	-0.305	0.523
-477.318	-63.902	0.703	-0.288
-476.303	251.094	-0.194	-0.330
-475.289	18.482	0.572	0.457
-474.274	800.000	0.104	0.449
-473.259	-37.307	0.541	0.289
-472.245	68.711	-0.438	0.449
-471.230	-200.000	-0.070	0.315
-470.216	-165.422	0.960	0.042
-469.201	115.535	0.647	-0.790
-468.186	800.000	0.127	-0.532
-467.172	-108.344	0.195	-0.042
-466.157	800.000	0.130	-0.445
-465.143	800.000	0.306	-0.862
-464.128	800.000	0.270	-0.964
-463.113	-200.000	0.003	0.293
-462.099	-200.000	0.079	0.391
-461.084	-183.795	-0.486	0.008
-460.070	407.117	-0.253	-0.534
-459.055	74.810	-0.681	0.716
-458.040	-200.000	0.073	0.608
-457.026	-120.375	-0.467	-0.079
-456.011	-88.954	0.448	0.132
-454.997	-200.000	0.081	0.402
-453.982	-200.000	-0.008	0.612
-452.968	800.000	-0.253	0.953
-451.953	58.530	-1.027	1.006
-450.938	153.571	0.232	-0.318
-449.924	-166.169	0.373	-0.016
-448.909	26.796	-0.185	0.155
-447.895	19.953	0.576	0.463
-446.880	-105.213	-0.468	0.107
-445.865	-91.705	0.545	-0.155
-444.851	800.000	0.103	-0.410
-443.836	25.451	-0.530	-0.440
-442.822	171.236	-0.476	0.681
-441.807	97.779	-0.513	0.589
-440.792	-35.264	0.846	0.459
-439.778	-200.000	0.670	0.002
-438.763	-76.664	0.422	0.148
-437.749	-200.000	0.045	-0.281
-436.734	213.864	-0.271	-0.427
-435.719	356.542	-0.148	-0.294
-434.705	-126.482	0.556	-0.083
-433.690	-51.295	-0.212	0.099
-432.676	86.996	-0.334	-0.368
-431.661	800.000	-0.107	0.362
-430.646	90.105	0.583	-0.650
-429.632	522.899	0.095	-0.223
-428.617	-200.000	0.014	0.632
-427.603	-48.408	-0.464	-0.223
-426.588	-200.000	-0.036	0.640
-425.573	800.000	0.244	0.677
-424.559	47.651	-0.151	-0.141
-423.544	800.000	-0.030	0.133
-422.530	-200.000	-0.142	-0.661
-421.515	34.743	-0.344	0.300
-420.500	166.100	0.697	0.984
-419.486	235.674	-0.178	-0.294
-418.471	-25.119	-0.143	-0.084
-417.457	412.528	-0.244	0.517
-416.442	263.592	-0.200	0.346
-415.428	-146.041	-0.604	0.053
-414.413	-45.125	-0.265	0.131
-413.398	-47.986	0.610	-0.294
-412.384	-122.927	0.460	0.074
-411.369	322.413	-0.336	0.639
-410.355	144.096	-0.232	-0.309
-409.340	99.327	0.920	-1.060
-408.325	57.386	0.442	0.431
-407.311	354.044	-0.239	-0.474
-406.296	-100.687	-0.716	0.176
-405.282	280.489	-0.476	-0.847
-404.267	305.411	-0.034	-0.062
-403.252	43.809	0.685	0.625
-402.238	367.382	0.379	-0.763
-401.223	47.774	0.185	-0.172
-400.209	13.536	-0.672	0.519
-399.194	-6.918	1.190	0.806
-398.179	-17.116	0.845	-0.531
-397.165	-66.766	0.545	-0.215
-396.150	32.403	-0.273	0.235
-395.136	-124.253	-0.351	-0.055
-394.121	-154.229	-0.225	-0.015
-393.106	800.000	-0.272	0.793
-392.092	438.879	0.227	-0.493
-391.077	-85.651	0.059	0.018
-390.063	47.381	0.196	0.182
-389.048	-200.000	-0.066	0.331
-388.033	137.083	0.915	-1.191
-387.019	-77.198	-0.944	0.327
-386.004	343.456	-0.198	0.387
-384.990	550.594	0.025	-0.061
-383.975	101.961	-0.332	-0.385
-382.960	-6.223	-0.515	-0.350
-381.946	-126.271	-0.760	-0.113
-380.931	361.873	-0.171	-0.342
-379.917	436.445	-0.349	0.757
-378.902	-53.105	0.572	-0.261
-377.888	-138.019	-0.779	-0.086
-376.873	141.128	0.169	-0.223
-375.858	36.883	0.247	-0.217
-374.844	-172.544	-0.348	-0.011
-373.829	800.000	-0.080	-0.341
-372.815	253.359	0.415	-0.705
-371.800	800.000	-0.215	-0.739
-370.785	-83.054	0.403	0.129
-369.771	800.000	-0.130	0.429
-368.756	-78.941	0.936	-0.317
-367.742	33.336	-0.225	0.194
-366.727	18.215	0.379	-0.301
-365.712	17.599	-0.631	-0.499
-364.698	-0.840	0.473	0.334
-363.683	235.378	0.210	-0.344
-362.669	-49.219	-0.331	-0.157
-361.654	-131.012	0.759	0.101
-360.639	617.116	-0.093	-0.233
-359.625	-92.248	-0.102	-0.029
-358.610	-200.000	0.061	-1.347
-357.596	0.011	0.470	0.333
-356.581	-200.000	0.035	0.289
-355.566	56.358	0.312	-0.301
-354.552	800.000	-0.023	0.079
-353.537	-32.670	-0.524	0.290
-352.523	-64.333	0.992	-0.401
-351.508	-46.374	0.504	-0.246
-350.493	-200.000	-0.156	-1.130
-349.479	148.979	-0.344	-0.463
-348.464	-143.779	-1.095	-0.103
-347.450	-200.000	0.027	0.606
-346.435	296.822	-0.182	-0.332
-345.420	-74.443	-0.290	-0.104
-344.406	163.382	0.247	0.345
-343.391	-160.945	-0.512	0.027
-342.377	-164.753	0.283	0.013
-341.362	-128.014	0.776	-0.111
-340.348	-81.355	-0.437	-0.143
-339.333	-22.325	0.397	0.239
-338.318	-200.000	-0.005	0.086
-337.304	800.000	0.132	0.441
-336.289	-200.000	-0.123	0.604
-335.275	-175.745	0.684	0.018
-334.260	52.812	-0.564	0.535
-333.245	-55.686	0.504	-0.224
-332.231	-32.352	0.653	-0.362
-331.216	36.140	0.100	-0.087
-330.202	-176.942	-0.451	0.011
-329.187	-85.419	0.197	-0.061
-328.172	26.814	0.931	0.775
-327.158	-57.044	-0.698	0.306
-326.143	201.670	-0.177	0.270
-325.129	-200.000	-0.012	0.326
-324.114	-3.025	-0.574	-0.398
-323.099	-85.471	-0.356	0.110
-322.085	293.067	-0.162	-0.294
-321.070	-200.000	-0.048	-0.858
-320.056	-200.000	-0.082	-0.841
-319.041	-34.853	-1.029	-0.558
-318.026	29.716	0.788	0.667
-317.012	800.000	0.209	0.574
-315.997	66.836	0.506	0.511
-314.983	52.857	-0.109	0.104
-313.968	-200.000	0.058	-0.298
-312.953	785.607	-0.089	0.242
-311.939	46.873	0.544	0.502
-310.924	-107.725	0.379	-0.082
-309.910	477.751	0.015	0.034
-308.895	-200.000	-0.029	-0.190
-307.880	-52.456	-0.519	-0.238
-306.866	-200.000	-0.042	0.322
-305.851	-150.337	0.616	0.047
-304.837	406.619	-0.274	0.574
-303.822	-97.476	0.392	0.101
-302.807	800.000	-0.164	-0.489
-301.793	-20.982	-0.483	0.293
-300.778	-35.380	0.496	0.268
-299.764	-37.787	-0.367	0.194
-298.749	-111.322	-0.836	-0.169
-297.735	101.064	0.355	0.410
-296.720	577.799	0.077	-0.186
-295.705	-172.371	-0.926	-0.029
-294.691	268.253	0.222	0.386
-293.676	-200.000	-0.058	0.438
-292.662	138.431	0.096	-0.126
-291.647	-37.053	-0.476	-0.253
-290.632	-200.000	0.052	-0.603
-289.618	21.084	0.912	0.734
-288.603	-156.754	-0.558	-0.034
-287.589	-133.633	0.453	0.056
-286.574	-31.289	0.254	-0.142
-285.559	-42.123	-0.324	0.164
-284.545	218.280	-0.404	-0.640
-283.530	-200.000	0.023	-0.634
-282.516	84.212	-0.023	0.025
-281.501	-200.000	0.059	0.333
-280.486	378.558	-0.340	-0.690
-279.472	-8.999	-0.475	-0.315
-278.457	-200.000	0.006	0.099
-277.443	80.268	-0.363	0.388
-276.428	-136.057	0.511	0.059
-275.413	-108.050	0.328	0.071
-274.399	284.984	0.111	0.199
-273.384	-119.132	-0.371	0.064
-272.370	800.000	-0.089	-0.383
-271.355	-200.000	0.043	0.429
-270.340	-69.596	0.391	0.148
-269.326	-200.000	0.002	0.167
-268.311	50.481	0.335	0.314
-267.297	77.805	0.345	0.364
-266.282	421.353	0.286	0.607
-265.267	-49.276	-0.563	0.266
-264.253	800.000	0.027	-0.109
-263.238	-200.000	-0.030	0.278
-262.224	152.777	0.245	0.332
-261.209	207.549	0.107	0.165
-260.195	43.755	-0.528	-0.478
-259.180	-144.213	-0.618	0.057
-258.165	35.058	0.200	0.173
-257.151	-143.281	0.584	0.056
-256.136	-7.251	-0.658	0.442
-255.122	800.000	-0.152	-0.434
-254.107	3.487	-0.171	0.123
-253.092	-200.000	0.022	-0.220
-252.078	189.443	0.254	0.377
-251.063	445.809	-0.348	-0.757
-250.049	-29.017	0.439	0.249
-249.034	45.462	0.360	0.329
-248.019	-140.238	-0.310	-0.032
-247.005	40.770	-0.551	0.492
-245.990	-16.794	1.236	0.774
-244.976	-40.171	0.471	-0.243
-243.961	795.692	-0.413	1.125
-242.946	-73.241	-0.618	-0.224
-241.932	132.720	0.341	0.435
-240.917	61.756	0.619	0.611
-239.903	-38.832	-0.515	0.269
-238.888	-94.466	0.873	-0.236
-237.873	-15.423	0.213	0.135
-236.859	-158.919	-0.194	-0.011
-235.844	-200.000	0.023	0.269
-234.830	-200.000	0.099	-0.435
-233.815	-55.294	0.332	-0.147
-232.800	-4.141	0.425	-0.291
-231.786	-26.775	0.300	0.173
-230.771	-45.059	-0.362	0.178
-229.757	800.000	-0.126	-0.484
-228.742	96.992	-0.647	-0.734
-227.727	-200.000	-0.056	1.095
-226.713	-40.610	0.997	0.512
-225.698	-200.000	0.150	0.944
-224.684	800.000	0.138	-0.396
-223.669	593.552	-0.276	0.675
-222.655	-169.030	0.160	-0.006
-221.640	97.602	0.263	0.299
-220.625	141.055	-0.246	0.322
-219.611	800.000	0.152	-0.637
-218.596	40.557	0.468	0.417
-217.582	-70.269	-1.285	-0.483
-216.567	166.691	0.287	0.402
-215.552	-50.514	0.761	0.355
-214.538	-155.774	-0.283	-0.018
-213.523	161.290	0.299	0.413
-212.509	202.740	0.279	0.426
-211.494	-147.424	-0.933	-0.078
-210.479	-89.015	0.202	-0.059
-209.465	-13.835	-1.063	-0.679
-208.450	-140.306	-0.382	0.040
-207.436	-200.000	-0.016	0.969
-206.421	-200.000	0.706	0.001
-205.406	-18.672	0.200	0.123
-204.392	-99.353	0.365	0.091
-203.377	-5.793	0.262	0.177
-202.363	110.595	-0.370	-0.440
-201.348	-200.000	0.161	1.012
-200.333	295.126	-0.228	0.412
-199.319	325.968	-0.151	-0.286
-198.304	558.656	-0.096	-0.229
-197.290	-200.000	-0.200	-1.197
-196.275	157.401	-0.340	0.464
-195.260	-200.000	0.017	-0.086
-194.246	137.992	0.523	0.677
-193.231	67.287	-0.453	-0.457
-192.217	-166.904	-0.351	0.014
-191.202	19.395	0.528	0.420
-190.187	450.804	-0.237	-0.517
-189.173	800.000	-0.048	0.189
-188.158	72.759	0.197	0.203
-187.144	-106.824	-0.151	0.033
-186.129	413.979	0.215	0.453
-185.114	145.743	0.350	0.463
-184.100	-116.845	-0.371	0.067
-183.085	800.000	-0.297	0.916
-182.071	-22.352	0.606	-0.363
-181.056	800.000	0.076	-0.265
-180.042	-200.000	-0.049	-0.257
-179.027	-13.225	-0.443	-0.284
-178.012	-115.997	0.801	0.147
-176.998	-26.468	0.903	-0.523
-175.983	-200.000	0.001	-0.729
-174.969	-160.553	-0.864	-0.046
-173.954	-108.927	-0.718	-0.151
-172.939	-119.469	0.329	0.056
-171.925	-111.193	-0.869	0.176
-170.910	-29.962	-0.454	-0.255
-169.896	-200.000	-0.006	0.461
-168.881	-71.609	1.056	-0.389
-167.866	-140.379	0.447	0.046
-166.852	800.000	0.267	0.833
-165.837	306.374	-0.190	-0.349
-164.823	-50.914	0.770	-0.357
-163.808	-84.580	-0.423	-0.132
-162.793	135.650	-0.374	0.480
-161.779	800.000	-0.106	-0.318
-160.764	46.119	0.324	-0.296
-159.750	72.226	0.261	-0.269
-158.735	-8.677	0.359	-0.238
-157.720	136.187	0.169	0.217
-156.706	103.173	-0.210	-0.243
-155.691	44.250	-0.297	-0.269
-154.677	671.608	0.109	0.279
-153.662	299.535	-0.249	-0.452
-152.647	800.000	0.172	-0.570
-151.633	-138.940	1.317	0.141
-150.618	781.298	-0.210	-0.566
-149.604	255.324	0.347	-0.586
-148.589	81.628	0.404	-0.432
-147.574	137.163	-0.312	-0.402
-146.560	-200.000	0.019	-0.492
-145.545	800.000	-0.006	0.021
-144.531	-181.574	-0.565	0.011
-143.516	-98.771	-0.568	-0.143
-142.502	138.144	-0.329	-0.425
-141.487	-200.000	-0.088	0.380
-140.472	-89.752	0.126	0.036
-139.458	301.962	0.262	-0.479
-138.443	-200.000	0.005	0.207
-137.429	373.942	0.236	-0.473
-136.414	2.708	-0.337	0.241
-135.399	-52.220	0.129	0.059
-134.385	5.369	0.295	-0.214
-133.370	-96.506	-0.109	0.028
-132.356	800.000	0.218	0.785
-131.341	800.000	-0.553	1.510
-130.326	-42.870	0.225	-0.113
-129.312	-200.000	0.036	-0.791
-128.297	-38.040	-0.197	-0.103
-127.283	-85.803	-0.127	0.039
-126.268	-141.520	-0.797	0.079
-125.253	-146.376	0.543	0.047
-124.239	-200.000	0.001	0.544
-123.224	-200.000	-0.011	0.462
-122.210	-200.000	-0.096	-0.648
-121.195	296.340	-0.239	-0.431
-120.180	-92.789	-0.696	0.192
-119.166	-200.000	0.145	0.906
-118.151	70.417	0.396	0.403
-117.137	0.324	-0.573	0.403
-116.122	86.303	-0.659	-0.715
-115.107	800.000	0.117	-0.501
-114.093	800.000	-0.050	0.155
-113.078	672.109	0.162	-0.415
-112.064	461.071	-0.175	-0.385
-111.049	51.130	0.601	-0.562
-110.034	-200.000	0.039	1.002
-109.020	345.793	-0.318	0.617
-108.005	321.739	0.260	-0.487
-106.991	-200.000	0.120	-0.568
-105.976	-84.840	0.761	0.235
-104.962	-200.000	-0.023	0.423
-103.947	125.445	-0.142	0.176
-102.932	358.580	0.364	-0.716
-101.918	132.730	0.297	-0.377
-100.903	-149.662	1.358	-0.105
-99.889	-163.097	-0.853	0.040
-98.874	-159.528	-0.108	-0.006
-97.859	-46.067	-1.276	-0.619
-96.845	96.387	-0.789	-0.889
-95.830	80.924	-0.577	0.613
-94.816	-95.196	-0.628	-0.167
-93.801	127.744	0.516	0.645
-92.786	800.000	0.178	0.765
-91.772	84.583	-0.269	-0.290
-90.757	84.763	0.428	-0.461
-89.743	-143.459	-0.419	0.039
-88.728	587.819	0.074	-0.178
-87.713	44.165	-0.547	0.494
-86.699	120.562	-0.213	-0.261
-85.684	-200.000	0.017	1.135
-84.670	23.466	0.207	0.167
-83.655	512.097	0.136	0.312
-82.640	-90.081	-0.714	0.205
-81.626	207.559	0.408	0.627
-80.611	-138.925	0.498	0.053
-79.597	377.352	-0.290	0.582
-78.582	-64.437	0.177	0.071
-77.567	-76.278	0.664	0.230
-76.553	-59.102	0.151	0.064
-75.538	-22.933	0.652	-0.386
-74.524	-173.431	-0.622	0.018
-73.509	-126.629	0.129	0.019
-72.494	-10.791	0.206	-0.134
-71.480	-148.046	-0.610	0.050
-70.465	-147.196	0.484	-0.041
-69.451	6.255	0.575	-0.419
-68.436	332.307	-0.039	0.074
-67.422	-200.000	-0.101	0.795
-66.407	374.443	-0.143	0.286
-65.392	-4.818	-0.576	-0.391
-64.378	-63.730	-0.302	0.122
-63.363	141.973	-0.322	0.419
-62.349	-139.506	0.633	0.067
-61.334	65.636	-0.750	-0.747
-60.319	-32.220	0.915	0.503
-59.305	800.000	-0.350	-1.079
-58.290	65.905	0.380	0.379
-57.276	800.000	0.550	1.721
-56.261	-200.000	98.308	601.351
-55.246	618.596	1373.532	3390.735
-54.232	200.678	2541.922	3841.043
-53.217	118.368	2118.434	2568.429
-52.203	43.676	1584.295	1424.639
-51.188	35.210	1323.710	1140.172
-50.173	31.909	1282.227	1085.333
-49.159	55.574	1334.639	1269.993
-48.144	56.451	1349.825	1289.562
-47.130	35.536	1305.583	1126.294
-46.115	32.030	1288.630	1091.279
-45.100	31.858	1283.501	1085.897
-44.086	31.589	1281.719	1082.791
-43.071	31.690	1279.277	1081.271
-42.057	31.425	1277.244	1077.980
-41.042	31.472	1275.799	1076.989
-40.027	31.569	1274.356	1076.286
-39.013	31.521	1273.210	1074.996
-37.998	31.456	1271.297	1072.971
-36.984	31.530	1270.059	1072.304
-35.969	31.494	1267.828	1070.171
-34.954	31.783	1265.724	1070.006
-33.940	31.854	1263.501	1068.490
-32.925	31.676	1263.767	1067.655
-31.911	31.602	1262.000	1065.700
-30.896	31.764	1261.005	1065.739
-29.881	31.724	1258.966	1063.747
-28.867	31.818	1257.494	1062.990
-27.852	31.770	1256.178	1061.564
-26.838	32.022	1253.508	1060.695
-25.823	32.006	1252.901	1060.049
-24.809	31.623	1252.373	1057.393
-23.794	31.817	1250.277	1056.679
-22.779	31.677	1249.547	1055.227
-21.765	31.627	1247.892	1053.510
-20.750	31.518	1247.798	1052.772
-19.736	31.459	1245.778	1050.697
-18.721	31.971	1244.276	1052.259
-17.706	31.714	1243.850	1050.416
-16.692	31.509	1242.981	1048.493
-15.677	31.669	1240.709	1047.428
-14.663	31.774	1239.389	1046.863
-13.648	31.746	1238.646	1046.033
-12.633	31.622	1237.312	1044.175
-11.619	31.602	1236.236	1043.116
-10.604	31.593	1235.673	1042.546
-9.590	31.463	1234.948	1041.169
-8.575	31.965	1233.290	1042.522
-7.560	31.663	1232.994	1040.552
-6.546	31.573	1232.710	1039.771
-5.531	32.006	1230.521	1040.284
-4.517	31.878	1230.515	1039.530
-3.502	31.703	1229.962	1038.052
-2.487	31.455	1228.798	1035.653
-1.473	31.500	1226.147	1033.626
-0.458	30.027	1210.065	1011.989
0.556	28.049	1192.456	974.125
1.571	24.040	1197.582	956.726
2.586	22.875	1212.332	962.082
3.600	22.732	1200.183	951.582
4.615	17.365	1129.066	867.811
5.629	7.732	1055.979	765.386
6.644	3.808	1036.603	732.703
7.659	3.591	1032.951	729.037
8.673	3.228	1031.714	726.383
9.688	3.136	1031.743	725.905
10.702	3.934	1029.186	727.798
11.717	9.787	1036.438	760.520
12.731	18.497	1050.252	812.027
13.746	23.397	1055.570	839.336
14.761	24.351	1056.211	844.289
15.775	23.996	1053.771	840.587
16.790	23.348	1053.990	837.625
17.804	23.274	1051.784	835.447
18.819	23.032	1052.347	834.680
19.834	23.195	1050.306	833.756
20.848	23.129	1051.790	834.544
21.863	22.898	1050.827	832.619
22.877	22.815	1050.201	831.657
23.892	22.836	1049.063	830.783
24.907	22.934	1047.902	830.251
25.921	22.874	1046.860	829.069
26.936	22.731	1045.848	827.523
27.950	22.839	1043.638	826.208
28.965	22.673	1042.643	824.571
29.980	22.658	1042.108	824.007
30.994	23.064	1040.019	824.171
32.009	22.954	1039.597	823.252
33.023	23.178	1037.893	822.872
34.038	22.669	1038.183	820.659
35.053	22.734	1037.744	820.542
36.067	22.408	1036.721	818.149
37.082	22.628	1035.332	818.002
38.096	22.938	1035.152	819.223
39.111	23.169	1033.324	818.774
40.126	22.985	1032.038	816.831
41.140	22.362	1031.018	813.076
42.155	22.430	1029.262	811.930
43.169	22.087	1028.842	809.949
44.184	22.175	1027.866	809.511
45.199	21.933	1027.737	808.223
46.213	22.272	1026.861	809.023
47.228	22.820	1026.133	810.898
48.242	23.086	1025.631	811.652
49.257	22.628	1025.439	809.324
50.271	22.973	1024.058	809.745
51.286	23.143	1023.343	809.883
52.301	23.101	1023.443	809.700
53.315	23.069	1021.593	808.018
54.330	23.029	1019.306	805.957
55.344	22.721	1019.162	804.365
56.359	22.784	1017.251	803.072
57.374	22.557	1017.925	802.501
58.388	22.416	1016.845	800.939
59.403	22.096	1015.788	798.581
60.417	22.338	1014.441	798.548
61.432	22.580	1013.671	798.969
62.447	22.331	1012.801	797.087
63.461	22.097	1012.961	796.080
64.476	22.072	1011.932	795.089
65.490	21.931	1010.806	793.495
66.505	22.202	1010.327	794.272
67.520	22.320	1009.289	793.921
68.534	21.959	1008.571	791.656
69.549	21.737	1008.843	790.797
70.563	21.833	1006.878	789.619
71.578	21.721	1006.133	788.463
72.593	21.462	1004.718	786.121
73.607	21.764	1005.084	787.692
74.622	21.702	1003.610	786.191
75.636	22.033	1002.724	786.913
76.651	21.854	1002.666	785.992
77.666	22.030	1001.139	785.515
78.680	21.692	1001.735	784.399
79.695	22.155	1000.017	785.053
80.709	21.977	1000.612	784.657
81.724	22.103	999.777	784.495
82.739	22.448	998.784	785.183
83.753	22.792	998.648	786.542
84.768	23.391	997.623	788.330
85.782	23.493	996.692	787.978
86.797	23.470	996.223	787.433
87.812	23.302	995.929	786.388
88.826	23.504	994.027	785.711
89.841	23.296	994.108	784.785
90.855	23.210	993.120	783.554
91.870	23.460	991.683	783.457
92.884	22.967	992.365	781.743
93.899	22.854	989.927	779.257
94.914	23.211	988.972	780.007
95.928	23.345	987.781	779.590
96.943	23.260	987.353	778.809
97.957	23.122	986.018	777.080
98.972	23.053	985.139	776.019
99.987	23.248	984.246	776.100
101.001	22.636	985.040	773.973
102.016	23.060	982.998	774.156
103.030	23.121	983.376	774.652
104.045	23.302	981.504	773.898
105.060	22.966	980.950	771.925
106.074	22.774	979.691	770.031
107.089	22.938	977.890	769.259
108.103	22.552	977.348	767.088
109.118	22.042	976.086	763.811
110.133	22.240	974.126	763.066
111.147	21.609	975.330	761.200
112.162	22.001	973.198	761.169
113.176	22.301	972.905	762.173
114.191	22.315	972.731	762.029
115.206	22.489	970.464	760.939
116.220	22.027	970.422	758.842
117.235	22.118	969.618	758.541
118.249	21.828	968.678	756.486
119.264	21.774	967.661	755.395
120.279	21.625	967.821	754.807
121.293	21.527	966.706	753.451
122.308	21.533	965.695	752.619
123.322	21.676	963.869	751.744
124.337	21.505	963.517	750.670
125.352	21.631	962.220	750.135
126.366	21.696	961.479	749.768
127.381	21.671	960.262	748.646
128.395	21.998	960.374	750.063
129.410	22.259	958.877	749.942
130.424	22.048	959.037	749.101
131.439	22.351	958.351	749.788
132.454	22.613	956.714	749.558
133.468	22.648	955.706	748.850
134.483	22.387	955.673	747.648
135.497	22.259	956.185	747.438
136.512	22.248	954.610	746.097
137.527	22.652	953.378	746.779
138.541	22.736	952.637	746.488
139.556	22.336	952.385	744.531
140.570	22.838	951.678	746.034
141.585	23.302	950.882	747.304
142.600	23.188	950.732	746.638
143.614	23.395	948.594	745.764
144.629	23.421	948.716	745.905
145.643	23.454	947.784	745.242
146.658	22.768	946.418	741.223
147.673	22.474	945.481	739.190
148.687	22.970	943.636	739.761
149.702	22.625	942.517	737.372
150.716	22.302	942.836	736.207
151.731	22.768	942.062	737.484
152.746	23.004	940.814	737.429
153.760	23.101	939.660	736.861
154.775	22.826	940.896	736.618
155.789	22.828	939.607	735.554
156.804	23.234	938.328	736.173
157.819	23.063	937.991	735.134
158.833	23.244	937.451	735.400
159.848	23.304	936.631	734.938
160.862	23.222	935.340	733.521
161.877	22.742	934.399	730.731
162.892	22.336	933.483	728.270
163.906	22.304	931.214	726.304
164.921	22.434	931.644	727.111
165.935	22.354	930.906	726.139
166.950	22.623	929.412	726.017
167.964	22.856	928.865	726.485
168.979	22.558	927.158	723.863
169.994	22.666	926.652	723.846
171.008	22.988	925.766	724.409
172.023	22.993	926.132	724.655
173.037	23.067	925.381	724.304
174.052	22.461	925.516	721.864
175.067	22.476	922.954	719.863
176.081	21.993	922.808	717.709
177.096	22.137	922.292	717.832
178.110	22.442	920.136	717.336
179.125	22.730	920.245	718.531
180.140	22.636	920.287	718.115
181.154	22.765	919.982	718.343
182.169	23.287	919.427	719.966
183.183	22.738	920.175	718.254
184.198	22.783	919.195	717.609
185.213	23.082	918.255	718.026
186.227	23.299	917.138	717.967
187.242	23.237	916.648	717.269
188.256	23.271	916.330	717.097
189.271	23.288	915.032	716.085
190.286	23.164	913.926	714.657
191.300	21.986	914.131	709.989
192.315	21.858	912.388	708.058
193.329	22.028	912.093	708.453
194.344	22.374	911.427	709.266
195.359	22.331	911.794	709.314
196.373	22.913	910.092	710.269
197.388	23.231	910.165	711.542
198.402	23.102	910.944	711.569
199.417	23.582	910.001	712.700
200.432	23.496	909.849	712.173
201.446	23.670	908.889	712.055
202.461	23.859	908.991	712.829
203.475	23.531	906.829	709.759
204.490	22.718	906.150	705.912
205.504	22.765	906.115	706.011
206.519	23.153	904.317	706.096
207.534	22.847	904.351	704.839
208.548	23.395	903.120	706.002
209.563	23.013	903.034	704.351
210.577	23.004	902.048	703.482
211.592	23.600	901.649	705.481
212.607	23.716	900.889	705.281
213.621	23.409	899.967	703.280
214.636	23.569	899.865	703.775
215.650	23.009	899.497	701.201
216.665	23.356	898.411	701.669
217.680	23.793	896.844	702.109
218.694	23.406	896.607	700.334
219.709	23.389	896.153	699.849
220.723	23.467	895.065	699.245
221.738	22.849	896.025	697.495
222.753	22.920	894.971	696.889
223.767	23.050	894.484	696.963
224.782	23.515	893.480	697.950
225.796	23.392	893.749	697.611
226.811	23.433	892.932	697.074
227.826	22.857	891.870	693.922
228.840	22.717	890.600	692.323
229.855	23.247	889.693	693.634
230.869	22.995	889.512	692.442
231.884	22.790	889.473	691.549
232.899	22.874	888.482	691.044
233.913	22.928	886.772	689.865
234.928	22.590	886.581	688.336
235.942	22.681	885.586	687.857
236.957	22.700	884.673	687.161
237.972	22.673	883.990	686.464
238.986	22.766	883.440	686.338
240.001	22.217	884.353	684.851
241.015	22.146	884.830	684.883
242.030	22.845	882.460	685.701
243.045	22.797	881.764	684.915
244.059	22.972	881.071	684.992
245.074	23.132	881.440	685.841
246.088	23.340	880.340	685.727
247.103	23.326	880.881	686.035
248.117	23.762	880.607	687.449
249.132	24.238	880.140	688.864
250.147	24.693	879.975	690.431
251.161	24.441	879.472	689.003
252.176	24.515	878.229	688.253
253.190	24.356	878.388	687.704
254.205	24.433	877.872	687.534
255.220	24.203	876.606	685.598
256.234	24.254	876.046	685.297
257.249	24.167	875.561	684.524
258.263	24.042	874.793	683.382
259.278	24.049	874.355	683.007
260.293	24.230	873.732	683.152
261.307	24.202	873.457	682.771
262.322	24.342	872.604	682.580
263.336	24.129	871.145	680.562
264.351	24.253	870.900	680.783
265.366	23.923	871.016	679.553
266.380	24.108	870.613	679.887
267.395	23.889	870.044	678.544
268.409	24.046	868.718	678.050
269.424	24.074	867.375	677.047
270.439	24.211	866.569	676.879
271.453	23.937	866.473	675.706
272.468	24.039	866.291	675.892
273.482	23.980	865.106	674.682
274.497	23.850	864.258	673.470
275.512	23.828	864.818	673.762
276.526	24.120	862.883	673.298
277.541	23.764	863.979	672.747
278.555	24.318	863.767	674.618
279.570	24.365	863.214	674.305
280.585	24.601	861.053	673.447
281.599	23.891	860.688	670.427
282.614	23.839	859.057	668.900
283.628	23.838	858.855	668.681
284.643	23.802	859.296	668.828
285.657	23.742	858.865	668.209
286.672	23.883	857.443	667.573
287.687	24.159	857.352	668.476
288.701	23.933	855.932	666.466
289.716	24.174	856.053	667.403
290.730	23.919	856.686	666.881
291.745	24.021	855.383	666.191
292.760	24.724	853.343	667.166
293.774	24.647	854.895	668.032
294.789	24.547	854.176	667.039
295.803	24.356	852.444	664.915
296.818	23.959	852.201	663.189
297.833	24.131	851.621	663.319
298.847	23.924	851.125	662.100
299.862	24.119	850.291	662.120
300.876	24.206	850.578	662.608
301.891	24.445	848.925	662.149
302.906	24.130	849.887	661.669
303.920	24.784	849.538	663.769
304.935	24.984	848.448	663.600
305.949	25.284	845.817	662.592
306.964	24.642	845.965	660.277
307.979	24.290	845.694	658.705
308.993	24.655	845.845	660.114
310.008	24.610	845.321	659.481
311.022	24.599	844.782	658.959
312.037	24.059	844.350	656.575
313.052	23.864	843.719	655.307
314.066	23.718	841.718	653.159
315.081	23.525	842.438	652.949
316.095	24.033	841.165	653.770
317.110	23.536	841.447	652.107
318.125	24.054	839.974	652.806
319.139	23.358	839.599	649.906
320.154	23.556	839.684	650.640
321.168	23.527	838.763	649.764
322.183	23.391	838.932	649.339
323.197	23.665	837.645	649.285
324.212	23.929	836.938	649.645
325.227	23.768	836.656	648.781
326.241	23.689	835.879	647.833
327.256	23.515	835.916	647.168
328.270	23.997	834.525	647.789
329.285	23.229	834.164	644.657
330.300	23.432	833.775	645.039
331.314	23.406	833.171	644.421
332.329	23.782	832.575	645.266
333.343	24.043	832.978	646.468
334.358	23.906	833.415	646.255
335.373	23.953	832.088	645.339
336.387	24.515	830.937	646.423
337.402	24.488	832.231	647.277
338.416	24.539	831.611	646.921
339.431	25.042	831.738	648.783
340.446	25.022	831.248	648.273
341.460	24.857	831.313	647.666
342.475	24.722	831.721	647.440
343.489	24.931	830.615	647.277
344.504	25.134	829.940	647.428
345.519	25.290	829.427	647.534
346.533	25.288	828.266	646.561
347.548	24.726	828.252	644.469
348.562	24.521	827.081	642.761
349.577	24.471	825.902	641.609
350.592	24.335	824.787	640.197
351.606	24.214	824.339	639.359
352.621	24.058	824.697	639.022
353.635	24.446	823.544	639.461
354.650	24.355	821.881	637.787
355.665	24.287	821.374	637.094
356.679	24.423	822.520	638.415
357.694	24.495	820.998	637.435
358.708	24.336	820.832	636.682
359.723	24.017	820.131	634.944
360.738	24.220	819.587	635.188
361.752	24.280	820.064	635.719
362.767	24.711	819.082	636.434
363.781	25.052	818.892	637.442
364.796	25.375	818.313	638.085
365.810	25.407	817.860	637.788
366.825	25.190	817.561	636.727
367.840	25.253	816.473	636.047
368.854	24.994	815.486	634.306
369.869	24.993	814.892	633.782
370.883	24.901	815.266	633.693
371.898	24.846	815.420	633.561
372.913	25.191	814.839	634.274
373.927	24.658	814.146	631.794
374.942	25.070	813.390	632.606
375.956	25.617	812.214	633.564
376.971	25.433	812.380	632.990
377.986	25.499	812.288	633.093
379.000	25.083	812.547	631.775
380.015	25.407	811.427	631.986
381.029	25.382	810.446	631.079
382.044	25.515	810.425	631.474
383.059	25.713	809.808	631.633
384.073	25.098	809.369	629.077
385.088	25.129	807.488	627.669
386.102	24.633	807.293	625.723
387.117	24.782	806.367	625.474
388.132	24.553	805.505	623.949
389.146	24.891	805.294	624.909
390.161	25.270	805.709	626.498
391.175	25.309	804.699	625.797
392.190	25.151	803.911	624.576
393.205	24.680	803.808	622.801
394.219	24.158	802.381	619.825
395.234	24.067	802.153	619.278
396.248	24.519	802.250	620.871
397.263	24.250	802.379	619.980
398.278	24.391	800.785	619.182
399.292	24.580	800.153	619.294
400.307	24.285	799.478	617.693
401.321	24.380	799.523	618.002
402.336	24.840	799.548	619.561
403.350	25.193	798.135	619.630
404.365	25.759	798.596	621.888
405.380	25.891	798.453	622.179
406.394	25.989	798.702	622.655
407.409	25.766	798.460	621.644
408.423	25.481	798.179	620.385
409.438	25.839	797.659	621.160
410.453	25.877	796.160	620.068
411.467	25.608	795.912	618.898
412.482	25.901	796.448	620.267
413.496	26.199	795.320	620.358
414.511	25.753	795.923	619.240
415.526	25.842	794.463	618.353
416.540	25.715	793.525	617.135
417.555	25.791	794.353	617.982
418.569	25.605	793.557	616.672
419.584	25.590	792.799	615.978
420.599	25.709	791.924	615.649
421.613	162.798	1369.691	1794.695
422.628	141.126	1453.900	1794.748
