DTS Sentinel unit serial number:	SN413079Multiplexer serial number:	ORYXHardware model number:	OX4-SRSoftware version number:	ORYX F/W v4.00 Oryx Data Collector v3.7.2.0data status	okinstallation	princeton_trtdifferential loss correction	single-endedforward channel	channel 1reverse channel	N/Adate	2019/09/11time	23:08:11forward acquisition time	60.00reverse acquisition time	0.00gamma	496.2192k internal	0.2317k external	0.2317temperature offset calibration	1.0062default loss term (dB/km)	0.3790temperature slope calibration	1.0000multiplexer offset coefficient	1.0000multiplexer slope coefficient	1.0000fibre end	0.00T internal ref (°C)	34.52T ext. ref 1 (°C)	1.84T ext. ref 2 (°C)	29.09length (m)	temperature (°C)	Stokes	anti-Stokes-747.200	67.800	0.144	-0.149
-746.185	-200.000	0.002	0.162
-745.171	-200.000	-0.037	-0.304
-744.156	16.337	-0.172	0.137
-743.142	-99.944	0.108	0.027
-742.127	130.837	0.154	0.201
-741.112	-103.835	-0.086	0.020
-740.098	800.000	-0.097	-0.300
-739.083	552.303	0.119	0.289
-738.069	39.174	0.163	0.148
-737.054	800.000	-0.031	0.086
-736.039	25.343	-0.382	0.321
-735.025	-73.129	0.329	0.122
-734.010	46.425	-0.245	0.230
-732.996	224.070	-0.113	-0.185
-731.981	-200.000	-0.052	0.271
-730.966	9.008	-0.035	0.026
-729.952	199.273	-0.153	0.237
-728.937	800.000	-0.071	-0.314
-727.923	-81.467	0.171	0.057
-726.908	-200.000	0.034	-0.367
-725.894	-35.666	-0.082	-0.045
-724.879	62.882	0.144	-0.145
-723.864	-155.323	-0.445	-0.029
-722.850	-87.812	0.187	0.057
-721.835	-47.164	-0.034	-0.017
-720.821	800.000	-0.066	0.289
-719.806	-200.000	-0.006	0.159
-718.791	-105.883	-0.360	0.082
-717.777	-88.936	0.174	0.052
-716.762	74.009	-0.392	0.416
-715.748	-200.000	0.036	-0.198
-714.733	-182.874	-0.144	-0.003
-713.718	32.363	-0.171	-0.149
-712.704	-74.992	0.273	-0.099
-711.689	783.925	0.074	0.204
-710.675	-80.561	0.496	0.167
-709.660	-78.708	-0.102	0.035
-708.645	170.178	-0.089	0.128
-707.631	800.000	-0.049	0.166
-706.616	-200.000	0.019	0.118
-705.602	-131.934	0.267	-0.035
-704.587	-106.116	-0.436	0.099
-703.572	800.000	-0.020	0.077
-702.558	-200.000	-0.023	0.164
-701.543	-45.327	0.182	0.091
-700.529	-200.000	-0.018	0.128
-699.514	404.352	-0.090	-0.193
-698.499	-144.995	-0.167	-0.015
-697.485	800.000	0.055	0.241
-696.470	170.443	0.144	-0.209
-695.456	21.375	-0.106	0.087
-694.441	-9.628	-0.356	0.240
-693.426	290.224	-0.181	-0.333
-692.412	-200.000	-0.007	-0.116
-691.397	208.248	0.101	-0.160
-690.383	711.145	-0.139	-0.372
-689.368	-61.931	0.045	0.019
-688.354	36.866	0.224	0.200
-687.339	800.000	0.064	-0.235
-686.324	107.382	0.079	-0.095
-685.310	179.267	0.325	0.480
-684.295	55.857	0.166	-0.163
-683.281	-200.000	-0.014	-0.144
-682.266	-200.000	0.018	0.098
-681.251	800.000	-0.047	0.145
-680.237	142.432	0.220	-0.295
-679.222	-103.904	0.088	-0.021
-678.208	-200.000	0.013	0.408
-677.193	-180.736	0.058	-0.001
-676.178	-163.008	0.120	-0.006
-675.164	-33.464	-0.180	-0.100
-674.149	-27.943	-0.239	0.140
-673.135	-35.004	0.186	0.102
-672.120	-200.000	0.028	0.134
-671.105	-127.668	0.097	-0.014
-670.091	-95.490	-0.170	-0.046
-669.076	390.788	-0.157	-0.329
-668.062	800.000	0.038	-0.120
-667.047	-85.200	0.206	0.065
-666.032	-96.741	0.184	-0.049
-665.018	-40.222	-0.174	0.092
-664.003	80.844	-0.080	0.087
-662.989	433.422	0.168	-0.368
-661.974	-117.352	-0.291	-0.053
-660.959	-181.449	-0.270	0.005
-659.945	-43.534	0.226	-0.115
-658.930	-35.789	0.201	0.110
-657.916	697.819	0.140	0.373
-656.901	800.000	-0.039	0.129
-655.886	-200.000	-0.062	-0.287
-654.872	-200.000	0.005	-0.045
-653.857	223.476	0.104	0.170
-652.843	-200.000	0.039	-0.206
-651.828	377.996	-0.109	0.225
-650.814	113.868	0.155	0.190
-649.799	-61.401	-0.239	-0.101
-648.784	800.000	0.053	-0.191
-647.770	293.617	-0.149	-0.273
-646.755	-200.000	-0.017	-0.267
-645.741	43.057	-0.195	-0.180
-644.726	52.436	-0.235	0.227
-643.711	-200.000	-0.069	0.375
-642.697	800.000	0.040	-0.126
-641.682	499.358	0.036	-0.085
-640.668	15.341	-0.056	-0.044
-639.653	800.000	-0.028	-0.083
-638.638	-51.934	0.040	-0.019
-637.624	-40.033	0.137	-0.072
-636.609	-19.995	0.052	-0.032
-635.595	-35.213	0.180	0.099
-634.580	-38.177	-0.044	0.024
-633.565	-15.779	0.249	0.160
-632.551	-159.353	0.108	0.006
-631.536	54.769	-0.141	-0.137
-630.522	-89.103	0.207	0.062
-629.507	800.000	0.040	-0.127
-628.492	800.000	0.053	-0.171
-627.478	-30.853	0.233	0.132
-626.463	256.964	0.138	0.239
-625.449	56.938	0.248	-0.244
-624.434	40.452	0.097	-0.088
-623.419	-50.936	0.225	0.106
-622.405	171.688	-0.097	0.140
-621.390	677.282	-0.035	0.091
-620.376	-76.018	-0.322	-0.115
-619.361	-44.994	-0.209	-0.105
-618.346	-88.843	0.337	0.101
-617.332	105.321	-0.109	-0.130
-616.317	708.134	-0.096	-0.255
-615.303	270.581	0.106	0.188
-614.288	-35.888	-0.236	-0.129
-613.273	-186.824	0.142	0.002
-612.259	-115.379	-0.064	0.012
-611.244	-193.966	0.329	-0.003
-610.230	-77.965	-0.238	-0.083
-609.215	113.733	-0.057	0.070
-608.201	-139.952	-0.103	-0.011
-607.186	800.000	0.090	0.297
-606.171	-118.005	-0.325	0.059
-605.157	800.000	-0.035	-0.099
-604.142	130.584	-0.211	-0.272
-603.128	-123.722	-0.221	-0.035
-602.113	324.484	-0.111	-0.213
-601.098	-65.340	-0.191	0.077
-600.084	-78.488	0.186	0.064
-599.069	-200.000	-0.002	0.391
-598.055	69.050	0.180	0.186
-597.040	366.615	0.113	0.229
-596.025	211.868	0.035	0.056
-595.011	-108.282	-0.337	0.073
-593.996	537.941	0.072	-0.171
-592.982	-2.531	-0.237	-0.167
-591.967	800.000	-0.073	0.299
-590.952	-85.984	0.136	-0.042
-589.938	-173.713	0.287	-0.009
-588.923	-200.000	-0.010	-0.152
-587.909	130.257	-0.040	-0.051
-586.894	800.000	-0.007	0.030
-585.879	20.913	0.333	-0.272
-584.865	213.188	-0.203	0.322
-583.850	20.154	0.187	-0.152
-582.836	-48.663	0.451	0.218
-581.821	84.198	0.134	0.148
-580.806	-55.016	-0.097	-0.044
-579.792	388.726	0.176	-0.367
-578.777	-200.000	0.020	0.124
-577.763	210.816	0.206	-0.325
-576.748	49.054	-0.043	0.041
-575.733	-136.514	-0.182	0.021
-574.719	117.580	0.020	0.025
-573.704	268.271	0.126	-0.222
-572.690	556.406	0.095	-0.229
-571.675	456.764	-0.100	0.223
-570.661	87.727	-0.083	0.093
-569.646	-97.518	0.181	0.047
-568.631	-169.883	0.130	-0.005
-567.617	340.611	-0.098	-0.192
-566.602	73.919	-0.158	-0.166
-565.588	150.084	-0.176	0.240
-564.573	9.016	-0.048	-0.036
-563.558	650.547	-0.156	-0.401
-562.544	260.674	0.012	0.020
-561.529	-98.052	0.291	0.075
-560.515	724.249	-0.042	0.112
-559.500	791.494	0.065	-0.180
-558.485	800.000	-0.022	0.063
-557.471	235.033	0.223	-0.369
-556.456	-56.276	-0.143	-0.064
-555.442	-190.678	-0.374	-0.004
-554.427	525.306	0.020	0.048
-553.412	82.894	0.104	-0.114
-552.398	-0.300	0.086	0.062
-551.383	376.340	0.085	-0.175
-550.369	-55.566	-0.576	-0.259
-549.354	-200.000	0.002	-0.100
-548.339	190.001	0.053	-0.080
-547.325	-89.731	0.088	-0.026
-546.310	48.031	0.146	-0.137
-545.296	-60.479	-0.041	-0.017
-544.281	-13.815	-0.180	0.117
-543.266	458.885	-0.162	0.361
-542.252	-200.000	0.025	-0.297
-541.237	-100.593	-0.209	0.052
-540.223	-135.383	0.182	-0.022
-539.208	-200.000	0.037	0.264
-538.193	342.198	0.133	0.262
-537.179	-150.963	-0.327	-0.025
-536.164	-88.114	0.080	-0.024
-535.150	-1.965	-0.323	-0.228
-534.135	800.000	0.106	0.435
-533.121	298.340	0.021	-0.039
-532.106	-15.548	-0.207	-0.133
-531.091	800.000	-0.115	0.374
-530.077	33.113	-0.208	0.181
-529.062	158.882	0.054	0.076
-528.048	731.648	0.078	0.210
-527.033	-200.000	0.016	-0.110
-526.018	-200.000	0.031	0.188
-525.004	-36.588	0.138	-0.075
-523.989	800.000	-0.106	-0.368
-522.975	-32.384	-0.252	-0.141
-521.960	-1.661	-0.227	-0.161
-520.945	-128.422	0.139	-0.020
-519.931	800.000	0.070	-0.229
-518.916	-58.113	-0.109	0.047
-517.902	-79.715	0.218	-0.074
-516.887	-200.000	-0.032	-0.179
-515.872	387.971	0.099	-0.206
-514.858	404.051	-0.065	-0.138
-513.843	-200.000	0.003	-0.098
-512.829	-91.143	-0.316	-0.091
-511.814	-97.346	0.160	0.042
-510.799	800.000	0.082	0.282
-509.785	659.391	-0.063	0.163
-508.770	-164.594	0.235	0.011
-507.756	-71.945	-0.129	0.048
-506.741	-200.000	0.023	0.106
-505.726	-26.234	0.283	-0.167
-504.712	115.646	0.115	0.141
-503.697	132.166	-0.081	-0.104
-502.683	257.273	-0.171	0.295
-501.668	82.436	0.066	-0.071
-500.653	-37.739	0.346	0.185
-499.639	-186.362	-0.068	-0.001
-498.624	123.676	0.193	0.243
-497.610	-172.474	0.025	0.001
-496.595	176.322	0.226	0.329
-495.581	-200.000	-0.044	-0.203
-494.566	-95.367	0.208	-0.056
-493.551	800.000	-0.059	-0.251
-492.537	-106.451	0.418	0.094
-491.522	-70.327	-0.079	-0.030
-490.508	-12.921	-0.054	0.035
-489.493	64.318	-0.249	-0.251
-488.478	166.683	0.119	0.169
-487.464	-39.161	-0.267	-0.141
-486.449	259.318	0.148	0.255
-485.435	-62.320	-0.060	-0.025
-484.420	-91.805	-0.072	0.021
-483.405	-200.000	0.009	-0.187
-482.391	800.000	0.029	-0.122
-481.376	-143.342	0.035	0.003
-480.362	800.000	-0.026	-0.111
-479.347	-62.818	-0.232	-0.096
-478.332	-161.709	-0.377	0.019
-477.318	730.577	0.085	0.228
-476.303	-107.434	0.317	-0.070
-475.289	-13.321	-0.304	0.198
-474.274	576.583	0.109	0.268
-473.259	-90.141	-0.238	-0.070
-472.245	-89.337	-0.137	-0.041
-471.230	-29.549	0.225	0.129
-470.216	-83.608	-0.273	0.087
-469.201	-59.312	0.115	-0.049
-468.186	337.000	-0.166	-0.323
-467.172	656.044	-0.059	-0.153
-466.157	132.847	0.227	-0.294
-465.143	-200.000	0.068	0.319
-464.128	-74.056	-0.573	-0.208
-463.113	-85.402	0.143	0.045
-462.099	-200.000	0.021	-0.186
-461.084	173.263	-0.233	0.337
-460.070	-182.605	0.186	0.003
-459.055	-117.830	-0.077	-0.014
-458.040	800.000	-0.102	-0.299
-457.026	8.932	-0.082	0.062
-456.011	99.987	0.077	-0.089
-454.997	-50.812	-0.151	-0.071
-453.982	-200.000	0.039	-0.241
-452.968	-75.126	-0.187	-0.067
-451.953	-200.000	-0.001	-0.394
-450.938	800.000	0.117	-0.478
-449.924	-84.792	0.058	0.018
-448.909	-200.000	-0.012	-0.192
-447.895	-75.422	-0.145	-0.052
-446.880	800.000	0.064	-0.267
-445.865	163.859	-0.113	0.159
-444.851	89.372	0.268	0.299
-443.836	-30.707	-0.238	-0.135
-442.822	-200.000	0.017	0.192
-441.807	6.445	-0.167	-0.124
-440.792	-142.916	0.164	0.016
-439.778	-200.000	0.003	0.029
-438.763	1.682	0.092	-0.067
-437.749	-51.293	-0.068	0.032
-436.734	28.241	-0.132	0.112
-435.719	-200.000	0.094	0.575
-434.705	172.502	0.076	-0.110
-433.690	11.512	0.218	0.167
-432.676	-141.661	0.291	0.029
-431.661	-95.264	0.103	-0.028
-430.646	223.027	0.116	-0.187
-429.632	-200.000	0.015	-0.124
-428.617	800.000	-0.036	0.107
-427.603	237.069	0.093	0.154
-426.588	-102.632	0.427	-0.102
-425.573	144.637	0.119	0.159
-424.559	-98.090	-0.024	-0.006
-423.544	-71.307	-0.396	0.148
-422.530	645.969	-0.019	-0.048
-421.515	-54.513	-0.166	0.075
-420.500	-35.933	0.230	0.124
-419.486	800.000	-0.033	0.123
-418.471	27.159	0.125	-0.105
-417.457	800.000	0.020	0.076
-416.442	-115.475	-0.299	0.056
-415.428	800.000	0.048	-0.204
-414.413	-200.000	0.011	0.056
-413.398	-61.109	-0.332	-0.140
-412.384	4.048	0.123	0.090
-411.369	-122.089	0.051	-0.008
-410.355	491.941	0.085	0.196
-409.340	800.000	-0.120	-0.401
-408.325	-41.746	0.469	-0.241
-407.311	-12.263	0.169	0.111
-406.296	-81.376	-0.095	-0.031
-405.282	-47.566	0.049	-0.024
-404.267	-39.982	0.152	0.079
-403.252	231.501	-0.107	-0.175
-402.238	800.000	-0.053	-0.149
-401.223	75.902	0.148	-0.156
-400.209	197.076	-0.094	0.144
-399.194	-102.920	0.265	0.063
-398.179	99.530	-0.240	-0.277
-397.165	-200.000	0.001	0.006
-396.150	-200.000	0.005	-0.036
-395.136	-179.335	-0.088	-0.002
-394.121	-200.000	0.019	0.282
-393.106	-141.118	0.177	-0.018
-392.092	78.618	-0.116	-0.124
-391.077	268.179	-0.049	0.085
-390.063	-95.338	-0.312	0.084
-389.048	800.000	0.062	-0.193
-388.033	-75.481	-0.173	-0.061
-387.019	-200.000	0.032	-0.173
-386.004	-86.933	-0.281	0.086
-384.990	-200.000	0.014	-0.195
-383.975	-123.254	-0.195	-0.031
-382.960	442.141	-0.024	0.052
-381.946	800.000	-0.017	-0.072
-380.931	6.786	0.093	-0.069
-379.917	-92.155	-0.080	0.023
-378.902	100.921	-0.082	0.095
-377.888	-200.000	-0.056	-0.406
-376.873	-145.791	-0.242	0.022
-375.858	-82.777	-0.199	-0.064
-374.844	-39.540	-0.382	-0.199
-373.829	800.000	0.058	-0.213
-372.815	6.387	0.327	-0.242
-371.800	235.102	0.052	-0.085
-370.785	183.584	0.029	0.042
-369.771	-116.051	-0.153	0.028
-368.756	8.801	-0.205	0.154
-367.742	800.000	-0.098	0.308
-366.727	-200.000	-0.036	0.205
-365.712	212.446	0.260	0.410
-364.698	-44.404	0.234	-0.117
-363.683	714.864	-0.138	-0.365
-362.669	-146.583	0.192	-0.017
-361.654	620.128	0.178	-0.446
-360.639	-88.951	0.142	-0.042
-359.625	-9.294	-0.083	-0.055
-358.610	225.003	-0.060	0.097
-357.596	-200.000	-0.014	-0.176
-356.581	38.282	-0.089	-0.079
-355.566	8.005	-0.019	0.014
-354.552	-37.303	0.100	-0.053
-353.537	800.000	0.017	0.073
-352.523	800.000	-0.088	0.252
-351.508	-126.907	0.217	0.032
-350.493	67.179	-0.356	0.362
-349.479	-73.658	-0.216	-0.078
-348.464	-115.863	-0.395	0.074
-347.450	67.904	0.039	-0.040
-346.435	800.000	0.027	0.114
-345.420	-200.000	-0.006	0.050
-344.406	800.000	-0.098	-0.322
-343.391	79.742	0.148	-0.158
-342.377	-200.000	-0.013	-0.134
-341.362	185.157	-0.077	0.114
-340.348	69.273	-0.233	0.239
-339.333	75.863	-0.096	0.102
-338.318	-64.279	-0.070	-0.029
-337.304	-109.167	-0.054	-0.011
-336.289	-11.813	-0.055	-0.036
-335.275	-172.068	-0.067	-0.002
-334.260	140.283	-0.084	-0.110
-333.245	-163.756	0.039	0.002
-332.231	-74.164	-0.126	0.046
-331.216	-99.670	0.056	-0.014
-330.202	-200.000	-0.005	0.041
-329.187	-179.621	-0.106	0.002
-328.172	-66.905	0.051	0.020
-327.158	-200.000	0.008	0.273
-326.143	-141.518	-0.263	-0.026
-325.129	-172.957	0.065	-0.002
-324.114	-30.238	0.252	0.143
-323.099	316.219	0.123	-0.232
-322.085	304.784	-0.105	-0.194
-321.070	123.279	-0.218	0.272
-320.056	-41.688	0.034	-0.018
-319.041	-112.572	0.249	-0.050
-318.026	283.898	0.178	0.319
-317.012	-74.790	0.138	0.049
-315.997	-200.000	-0.021	-0.105
-314.983	123.749	-0.046	-0.058
-313.968	-200.000	-0.040	0.240
-312.953	-130.545	0.039	0.005
-311.939	348.031	0.042	-0.082
-310.924	-45.559	-0.260	0.128
-309.910	-55.679	0.663	0.295
-308.895	-64.553	0.151	0.061
-307.880	12.860	0.347	-0.267
-306.866	-9.539	-0.042	-0.028
-305.851	-41.708	0.141	0.072
-304.837	-200.000	-0.044	0.411
-303.822	-105.991	-0.164	0.037
-302.807	-8.033	-0.054	-0.036
-301.793	65.056	0.223	0.224
-300.778	-59.286	0.285	-0.122
-299.764	85.615	-0.200	-0.218
-298.749	-4.172	0.292	0.201
-297.735	-200.000	-0.085	0.423
-296.720	-200.000	0.024	-0.197
-295.705	-44.642	-0.420	-0.209
-294.691	80.370	0.355	-0.381
-293.676	800.000	-0.047	0.166
-292.662	256.395	0.027	-0.046
-291.647	359.937	0.168	0.334
-290.632	-50.854	-0.293	0.137
-289.618	800.000	-0.098	0.335
-288.603	-164.935	0.152	-0.007
-287.589	-129.369	0.147	-0.020
-286.574	-124.722	-0.274	0.042
-285.559	230.648	-0.071	0.115
-284.545	-126.837	-0.252	0.037
-283.530	4.314	0.230	-0.168
-282.516	-100.298	-0.393	-0.097
-281.501	46.686	0.160	-0.148
-280.486	475.015	-0.114	-0.255
-279.472	14.926	-0.093	-0.072
-278.457	688.524	-0.112	-0.291
-277.443	129.196	0.211	0.267
-276.428	20.964	0.123	0.099
-275.413	-40.718	-0.049	-0.025
-274.399	-22.361	-0.165	0.099
-273.384	-102.590	0.109	0.026
-272.370	346.226	-0.189	-0.369
-271.355	-200.000	-0.020	-0.261
-270.340	285.332	0.171	-0.307
-269.326	-143.651	0.143	-0.014
-268.311	-137.341	0.168	-0.019
-267.297	-57.760	0.067	0.029
-266.282	-200.000	0.011	0.314
-265.267	-123.770	-0.108	0.017
-264.253	137.673	0.303	-0.394
-263.238	-200.000	0.049	-0.254
-262.224	-121.334	0.077	-0.013
-261.209	-200.000	0.008	-0.118
-260.195	310.595	-0.133	0.247
-259.180	-171.396	-0.058	0.002
-258.165	-200.000	-0.021	-0.209
-257.151	-26.452	-0.344	0.200
-256.136	-200.000	-0.029	-0.498
-255.122	210.292	-0.139	-0.217
-254.107	-200.000	0.047	-0.345
-253.092	317.823	0.176	-0.330
-252.078	-192.606	-0.136	0.001
-251.063	-9.558	-0.179	0.119
-250.049	179.503	-0.132	0.192
-249.034	23.276	0.053	0.043
-248.019	395.956	-0.193	-0.399
-247.005	-14.123	-0.079	0.051
-245.990	65.503	-0.198	0.199
-244.976	-7.465	0.132	-0.088
-243.961	-63.118	0.186	-0.076
-242.946	800.000	0.096	0.402
-241.932	-22.000	-0.107	0.064
-240.917	-88.129	-0.422	-0.126
-239.903	-135.550	0.167	-0.020
-238.888	-22.420	-0.178	-0.107
-237.873	142.010	0.125	-0.165
-236.859	-200.000	0.032	-0.142
-235.844	-200.000	0.092	0.618
-234.830	-200.000	-0.025	0.311
-233.815	-171.825	0.058	-0.002
-232.800	-148.255	0.100	-0.008
-231.786	-13.286	0.100	-0.064
-230.771	31.365	0.193	0.164
-229.757	41.077	-0.122	0.109
-228.742	-22.204	0.262	-0.157
-227.727	800.000	-0.022	0.082
-226.713	-57.438	0.287	0.125
-225.698	-200.000	-0.066	0.383
-224.684	800.000	-0.096	0.283
-223.669	-44.593	0.112	-0.055
-222.655	-7.563	-0.256	-0.172
-221.640	501.812	0.183	0.418
-220.625	800.000	-0.045	-0.171
-219.611	-200.000	-0.035	0.366
-218.596	-117.391	-0.210	0.038
-217.582	619.456	0.127	0.317
-216.567	-29.035	0.016	0.009
-215.552	800.000	0.056	-0.227
-214.538	-200.000	-0.037	0.493
-213.523	614.937	0.048	0.118
-212.509	-165.893	-0.185	-0.008
-211.494	-200.000	-0.024	0.156
-210.479	-82.883	0.169	0.054
-209.465	3.469	-0.177	-0.128
-208.450	11.625	-0.293	0.223
-207.436	-200.000	-0.044	0.225
-206.421	-49.418	-0.104	-0.049
-205.406	-91.455	0.283	0.080
-204.392	-89.772	-0.294	-0.085
-203.377	179.350	0.014	-0.020
-202.363	186.481	0.126	-0.186
-201.348	-200.000	0.077	0.366
-200.333	89.614	-0.249	0.275
-199.319	-148.231	-0.315	-0.026
-198.304	-92.307	0.345	0.096
-197.290	-31.299	-0.072	0.040
-196.275	742.702	-0.117	-0.311
-195.260	706.464	-0.062	0.163
-194.246	248.020	0.038	-0.064
-193.231	-200.000	0.023	0.325
-192.217	169.832	-0.067	-0.095
-191.202	-166.434	-0.187	0.008
-190.187	-16.976	-0.063	-0.039
-189.173	800.000	-0.036	-0.113
-188.158	-200.000	-0.033	0.160
-187.144	21.659	0.116	0.093
-186.129	76.617	0.133	-0.139
-185.114	-200.000	0.028	-0.212
-184.100	352.781	0.115	-0.227
-183.085	-55.714	-0.165	0.073
-182.071	378.295	0.041	0.084
-181.056	144.837	0.120	0.159
-180.042	800.000	-0.045	0.149
-179.027	-200.000	0.059	0.513
-178.012	182.986	-0.080	0.116
-176.998	-56.759	0.192	-0.084
-175.983	-15.328	0.180	-0.114
-174.969	-152.597	0.240	-0.017
-173.954	-129.533	-0.098	-0.013
-172.939	349.354	0.140	0.274
-171.925	-200.000	0.023	0.216
-170.910	256.810	0.070	-0.119
-169.896	89.964	0.132	0.146
-168.881	83.095	0.177	-0.191
-167.866	-200.000	0.007	0.033
-166.852	-200.000	-0.057	0.254
-165.837	27.726	0.214	0.178
-164.823	331.842	-0.054	0.103
-163.808	789.062	0.046	0.125
-162.793	-73.538	0.048	0.017
-161.779	293.317	0.169	0.305
-160.764	-45.725	0.189	-0.092
-159.750	-92.951	-0.098	-0.027
-158.735	-200.000	-0.017	-0.103
-157.720	-16.354	0.214	-0.134
-156.706	-74.314	0.126	-0.045
-155.691	-41.669	0.183	-0.093
-154.677	-62.584	0.331	-0.136
-153.662	-45.504	0.219	0.107
-152.647	60.617	-0.052	-0.051
-151.633	800.000	0.076	0.254
-150.618	249.899	0.045	0.076
-149.604	-200.000	0.006	0.062
-148.589	191.309	-0.047	0.070
-147.574	197.510	-0.236	-0.357
-146.560	34.250	-0.137	-0.118
-145.545	196.283	-0.104	0.157
-144.531	-200.000	-0.012	0.187
-143.516	39.081	0.238	-0.211
-142.502	800.000	0.096	0.404
-141.487	65.745	0.150	0.150
-140.472	121.545	-0.116	-0.142
-139.458	-64.993	0.244	-0.098
-138.443	71.394	0.101	0.104
-137.429	11.279	0.220	0.167
-136.414	135.815	0.100	0.129
-135.399	800.000	0.124	-0.360
-134.385	-19.020	-0.258	-0.159
-133.370	-87.449	0.136	-0.041
-132.356	-137.495	0.179	0.020
-131.341	77.093	0.271	0.285
-130.326	-160.701	0.259	-0.014
-129.312	26.650	-0.146	0.121
-128.297	-14.973	0.295	0.187
-127.283	-61.436	0.459	0.191
-126.268	-200.000	0.061	-0.311
-125.253	152.931	0.134	0.180
-124.239	9.420	0.072	-0.054
-123.224	-128.098	0.086	-0.012
-122.210	72.065	0.119	0.123
-121.195	427.800	-0.108	-0.230
-120.180	-200.000	0.024	-0.218
-119.166	-200.000	0.268	0.001
-118.151	30.939	-0.136	-0.116
-117.137	-200.000	0.003	0.168
-116.122	174.461	0.327	0.467
-115.107	-157.303	0.030	-0.002
-114.093	253.880	-0.093	0.157
-113.078	128.139	-0.174	-0.218
-112.064	-19.334	0.286	-0.175
-111.049	153.827	0.084	-0.114
-110.034	-200.000	0.005	-0.119
-109.020	-200.000	0.016	-0.111
-108.005	101.563	-0.155	0.178
-106.991	108.373	0.127	-0.150
-105.976	251.969	-0.163	0.275
-104.962	132.430	-0.124	0.158
-103.947	26.381	0.160	-0.132
-102.932	-42.811	-0.110	0.055
-101.918	-8.895	-0.181	-0.120
-100.903	-105.926	0.252	-0.056
-99.889	227.723	0.099	-0.159
-98.874	-133.558	0.464	0.057
-97.859	-116.151	-0.131	0.024
-96.845	293.371	-0.096	0.173
-95.830	121.802	0.044	-0.054
-94.816	800.000	-0.077	-0.250
-93.801	800.000	-0.065	0.203
-92.786	800.000	0.129	0.360
-91.772	153.760	-0.141	0.191
-90.757	-60.712	-0.073	-0.030
-89.743	800.000	-0.024	-0.104
-88.728	-200.000	-0.031	0.159
-87.713	-200.000	-0.006	0.260
-86.699	166.836	0.110	-0.154
-85.684	62.395	-0.073	0.071
-84.670	402.772	-0.175	0.364
-83.655	52.370	-0.284	-0.267
-82.640	166.933	0.098	0.137
-81.626	700.249	0.008	-0.022
-80.611	14.216	0.080	-0.062
-79.597	-118.593	0.097	-0.017
-78.582	-59.843	-0.172	-0.072
-77.567	800.000	-0.053	0.225
-76.553	-200.000	-0.039	-0.220
-75.538	8.422	-0.125	-0.093
-74.524	-110.313	-0.216	-0.044
-73.509	-128.742	-0.201	0.028
-72.494	112.775	-0.098	-0.117
-71.480	128.595	-0.117	0.147
-70.465	101.508	0.076	-0.087
-69.451	8.421	0.067	-0.050
-68.436	-10.343	0.288	0.188
-67.422	-200.000	0.048	-0.221
-66.407	-200.000	0.020	-0.177
-65.392	-147.388	-0.257	-0.021
-64.378	-21.934	0.336	0.202
-63.363	115.573	-0.184	0.221
-62.349	-200.000	0.004	0.209
-61.334	305.509	-0.549	-1.006
-60.319	63.091	0.507	0.500
-59.305	-200.000	-0.109	-0.924
-58.290	275.594	0.384	0.672
-57.276	800.000	0.461	1.421
-56.261	-200.000	98.110	590.266
-55.246	560.828	1386.831	3303.455
-54.232	153.870	2586.519	3494.434
-53.217	115.724	2157.932	2601.220
-52.203	46.330	1614.677	1475.147
-51.188	38.045	1351.119	1184.312
-50.173	34.758	1308.244	1127.333
-49.159	58.583	1358.677	1314.404
-48.144	62.410	1376.708	1354.708
-47.130	38.276	1330.580	1167.504
-46.115	34.723	1312.532	1130.642
-45.100	34.463	1308.204	1125.333
-44.086	34.444	1305.717	1123.037
-43.071	34.440	1303.299	1120.888
-42.057	34.310	1301.056	1118.152
-41.042	34.312	1299.943	1117.165
-40.027	34.390	1298.205	1116.082
-39.013	34.433	1296.061	1114.450
-37.998	34.404	1294.305	1112.725
-36.984	34.534	1292.495	1111.882
-35.969	34.546	1290.662	1110.331
-34.954	34.537	1289.242	1109.011
-33.940	34.690	1287.432	1108.301
-32.925	34.680	1286.557	1107.446
-31.911	34.571	1285.520	1105.877
-30.896	34.677	1283.668	1104.850
-29.881	34.580	1282.434	1103.187
-28.867	34.574	1281.256	1102.094
-27.852	34.689	1279.242	1100.980
-26.838	34.746	1277.721	1099.958
-25.823	34.675	1276.559	1098.501
-24.809	34.582	1275.672	1097.163
-23.794	34.458	1274.576	1095.464
-22.779	34.578	1272.728	1094.522
-21.765	34.617	1271.638	1093.762
-20.750	34.559	1270.270	1092.214
-19.736	34.429	1269.253	1090.552
-18.721	34.470	1268.014	1089.677
-17.706	34.533	1266.678	1088.843
-16.692	34.480	1265.475	1087.467
-15.677	34.475	1264.782	1086.796
-14.663	34.387	1263.759	1085.374
-13.648	34.445	1262.276	1084.388
-12.633	34.520	1261.026	1083.698
-11.619	34.427	1260.618	1082.778
-10.604	34.488	1259.547	1082.161
-9.590	34.480	1258.629	1081.283
-8.575	34.347	1258.038	1079.978
-7.560	34.376	1256.480	1078.762
-6.546	34.374	1255.891	1078.204
-5.531	34.403	1255.025	1077.578
-4.517	34.476	1254.050	1077.112
-3.502	34.427	1253.242	1076.097
-2.487	34.399	1253.129	1075.800
-1.473	34.338	1248.520	1071.458
-0.458	32.966	1233.536	1050.928
0.556	29.649	1215.501	1012.626
1.571	26.032	1220.566	996.806
2.586	24.960	1236.642	1003.843
3.600	24.205	1225.564	990.565
4.615	17.640	1152.250	896.797
5.629	6.954	1073.997	783.141
6.644	2.142	1052.524	744.012
7.659	1.752	1049.773	740.108
8.673	1.741	1048.505	739.095
9.688	1.726	1046.923	737.843
10.702	2.215	1045.549	739.174
11.717	8.797	1056.048	778.607
12.731	19.047	1070.161	839.186
13.746	24.053	1075.932	868.114
14.761	24.917	1076.684	872.860
15.775	24.732	1076.777	871.958
16.790	24.643	1075.226	870.191
17.804	24.553	1074.641	869.201
18.819	24.721	1074.407	869.750
19.834	24.897	1073.749	869.999
20.848	24.819	1073.309	869.185
21.863	24.843	1073.265	869.191
22.877	24.812	1072.290	868.172
23.892	24.675	1071.645	866.907
24.907	24.752	1071.127	866.787
25.921	24.842	1069.662	865.960
26.936	24.756	1068.877	864.833
27.950	24.683	1066.932	862.827
28.965	24.583	1065.084	860.777
29.980	24.581	1063.756	859.617
30.994	24.848	1063.018	860.227
32.009	24.719	1062.089	858.780
33.023	24.632	1060.800	857.247
34.038	24.645	1060.160	856.716
35.053	24.699	1059.973	856.745
36.067	24.751	1058.762	855.939
37.082	24.917	1057.384	855.542
38.096	25.152	1057.123	856.381
39.111	25.085	1056.750	855.681
40.126	24.968	1054.710	853.398
41.140	24.411	1053.933	850.042
42.155	24.335	1051.653	847.764
43.169	24.413	1051.047	847.572
44.184	24.468	1050.128	847.016
45.199	24.366	1049.309	845.796
46.213	24.506	1048.473	845.714
47.228	24.552	1047.508	845.075
48.242	24.606	1046.994	844.841
49.257	24.786	1046.124	844.915
50.271	24.881	1045.206	844.551
51.286	24.948	1044.406	844.145
52.301	24.862	1044.010	843.344
53.315	24.772	1042.668	841.763
54.330	24.707	1041.736	840.630
55.344	24.666	1041.388	840.081
56.359	24.733	1039.634	838.905
57.374	24.603	1038.944	837.668
58.388	24.601	1038.266	837.037
59.403	24.604	1037.354	836.240
60.417	24.340	1036.741	834.435
61.432	24.458	1035.972	834.295
62.447	24.596	1035.483	834.472
63.461	24.714	1034.590	834.229
64.476	24.590	1033.506	832.705
65.490	24.463	1032.594	831.305
66.505	24.524	1032.035	831.066
67.520	24.539	1031.554	830.672
68.534	24.229	1030.707	828.476
69.549	23.993	1029.417	826.271
70.563	24.062	1028.424	825.719
71.578	23.985	1028.264	825.162
72.593	23.848	1027.049	823.481
73.607	24.028	1026.440	823.754
74.622	24.382	1025.686	824.712
75.636	24.418	1025.354	824.538
76.651	24.237	1024.287	822.770
77.666	24.096	1023.483	821.403
78.680	24.283	1022.773	821.623
79.695	24.204	1022.515	820.977
80.709	24.325	1021.966	821.019
81.724	24.369	1020.736	820.160
82.739	24.424	1020.188	819.904
83.753	24.818	1019.667	821.220
84.768	25.095	1018.583	821.542
85.782	25.146	1017.903	821.158
86.797	25.027	1016.913	819.741
87.812	24.962	1015.730	818.418
88.826	24.977	1015.259	818.032
89.841	24.893	1014.357	816.853
90.855	24.971	1013.494	816.442
91.870	25.014	1012.751	815.963
92.884	24.908	1011.856	814.687
93.899	24.864	1010.304	813.168
94.914	25.008	1009.701	813.265
95.928	24.991	1008.350	812.025
96.943	24.644	1007.605	809.782
97.957	24.399	1005.967	807.286
98.972	24.330	1004.810	805.977
99.987	24.683	1004.638	807.359
101.001	24.731	1003.678	806.737
102.016	24.796	1002.750	806.211
103.030	24.747	1001.595	804.991
104.045	24.540	1000.606	803.191
105.060	24.484	999.164	801.710
106.074	24.548	999.217	801.971
107.089	24.775	999.222	802.922
108.103	24.782	997.779	801.725
109.118	24.515	996.178	799.174
110.133	24.590	995.452	798.852
111.147	24.287	994.225	796.446
112.162	24.239	993.592	795.653
113.176	24.448	993.294	796.277
114.191	24.309	992.158	794.679
115.206	24.013	990.738	792.153
116.220	24.058	990.100	791.774
117.235	24.142	989.462	791.565
118.249	24.105	989.009	790.967
119.264	24.160	987.730	790.119
120.279	24.256	986.900	789.811
121.293	24.278	986.806	789.762
122.308	24.378	985.424	789.030
123.322	24.259	984.408	787.620
124.337	24.102	983.324	785.990
125.352	23.586	981.715	782.362
126.366	23.507	981.006	781.379
127.381	24.421	980.459	784.896
128.395	24.708	980.173	785.858
129.410	24.748	979.283	785.252
130.424	24.763	978.320	784.474
131.439	24.757	977.506	783.728
132.454	24.725	976.506	782.715
133.468	24.633	975.821	781.697
134.483	24.825	974.788	781.638
135.497	25.092	974.182	782.247
136.512	24.889	973.647	780.864
137.527	25.136	972.637	781.060
138.541	25.040	972.056	780.107
139.556	25.000	970.902	778.937
140.570	25.151	970.231	778.987
141.585	25.046	969.351	777.755
142.600	24.966	968.272	776.473
143.614	25.221	967.486	776.879
144.629	25.300	966.680	776.504
145.643	25.252	965.299	775.122
146.658	25.040	964.148	773.213
147.673	24.890	963.040	771.610
148.687	24.748	962.198	770.255
149.702	24.870	960.824	769.610
150.716	24.730	960.665	768.814
151.731	24.999	960.025	769.391
152.746	25.112	959.258	769.193
153.760	25.221	958.640	769.097
154.775	25.161	958.074	768.316
155.789	25.177	957.212	767.626
156.804	25.050	956.818	766.699
157.819	25.293	955.408	766.539
158.833	25.317	954.824	766.103
159.848	25.327	953.809	765.263
160.862	25.054	952.663	763.115
161.877	25.109	951.910	762.677
162.892	25.147	950.885	761.954
163.906	25.189	949.456	760.916
164.921	25.219	948.603	760.292
165.935	25.170	947.850	759.416
166.950	25.108	947.473	758.782
167.964	25.162	945.889	757.675
168.979	25.021	945.005	756.307
169.994	24.918	944.339	755.270
171.008	25.224	943.534	755.852
172.023	25.223	942.912	755.283
173.037	24.990	941.857	753.391
174.052	24.730	941.379	751.848
175.067	24.999	940.234	751.995
176.081	25.052	939.810	751.811
177.096	24.907	938.916	750.421
178.110	24.683	938.218	748.859
179.125	24.448	937.463	747.207
180.140	24.533	936.984	747.115
181.154	24.705	936.866	747.673
182.169	25.010	936.774	748.810
183.183	25.125	936.319	748.859
184.198	25.038	935.284	747.604
185.213	24.955	934.421	746.499
186.227	25.091	933.958	746.633
187.242	25.117	933.102	745.991
188.256	25.339	932.214	746.135
189.271	25.263	931.705	745.348
190.286	24.941	930.416	742.914
191.300	24.309	928.920	739.036
192.315	23.566	927.757	734.967
193.329	23.438	927.447	734.126
194.344	24.297	927.718	737.835
195.359	24.968	927.868	740.664
196.373	24.992	927.293	740.239
197.388	24.920	926.315	739.097
198.402	25.000	925.420	738.646
199.417	25.136	925.115	738.898
200.432	24.772	923.945	736.401
201.446	24.694	923.440	735.612
202.461	24.724	922.553	734.964
203.475	23.788	921.021	729.835
204.490	23.032	919.612	725.553
205.504	23.962	920.087	729.677
206.519	24.634	919.950	732.262
207.534	24.656	919.826	732.185
208.548	24.999	919.091	732.941
209.563	24.859	918.196	731.588
210.577	24.838	917.722	731.060
211.592	25.299	917.602	732.786
212.607	25.241	916.490	731.593
213.621	25.103	916.095	730.651
214.636	25.226	915.235	730.403
215.650	25.144	914.691	729.571
216.665	25.189	914.131	729.244
217.680	25.143	913.170	728.222
218.694	24.910	911.928	726.222
219.709	24.667	911.521	724.851
220.723	24.929	911.193	725.586
221.738	25.098	910.653	725.776
222.753	24.995	909.814	724.628
223.767	25.097	909.527	724.748
224.782	25.275	909.178	725.124
225.796	25.408	908.383	724.962
226.811	24.680	907.024	720.881
227.826	24.176	905.440	717.527
228.840	24.321	904.989	717.692
229.855	24.282	904.566	717.136
230.869	23.891	903.685	714.803
231.884	24.357	903.615	716.553
232.899	25.205	903.699	719.965
233.913	24.971	902.770	718.220
234.928	25.020	902.000	717.741
235.942	24.893	901.937	717.117
236.957	24.589	900.498	714.695
237.972	24.604	900.340	714.569
238.986	24.748	899.777	714.630
240.001	24.785	898.934	714.049
241.015	24.847	898.337	713.757
242.030	25.041	898.407	714.523
243.045	25.124	897.487	714.058
244.059	25.265	897.317	714.422
245.074	24.972	896.334	712.413
246.088	24.682	895.227	710.317
247.103	25.048	895.067	711.579
248.117	25.492	895.622	713.722
249.132	25.733	895.044	714.153
250.147	25.845	894.044	713.738
251.161	26.001	893.620	713.953
252.176	25.966	893.012	713.267
253.190	26.140	892.496	713.478
254.205	26.059	892.747	713.295
255.220	26.050	891.369	712.095
256.234	25.887	890.771	710.913
257.249	25.703	890.310	709.757
258.263	25.917	889.432	709.834
259.278	26.022	888.593	709.516
260.293	25.919	888.073	708.633
261.307	25.892	887.662	708.137
262.322	25.642	886.756	706.371
263.336	24.933	884.723	701.908
264.351	23.891	882.991	696.394
265.366	24.055	882.694	696.740
266.380	25.250	883.342	701.867
267.395	25.525	883.165	702.738
268.409	25.453	882.292	701.702
269.424	25.732	881.549	702.138
270.439	25.798	880.907	701.820
271.453	25.787	880.899	701.710
272.468	26.020	880.315	702.091
273.482	26.005	879.512	701.328
274.497	25.553	878.670	698.840
275.512	25.226	877.968	696.950
276.526	25.544	878.426	698.485
277.541	25.808	877.438	698.661
278.555	25.521	876.506	696.747
279.570	25.527	875.888	696.217
280.585	25.639	875.147	696.001
281.599	25.612	874.393	695.235
282.614	24.955	873.213	691.699
283.628	24.985	872.891	691.499
284.643	25.420	872.938	693.151
285.657	24.984	871.603	690.351
286.672	24.710	870.519	688.378
287.687	25.368	870.468	690.806
288.701	25.273	869.869	689.907
289.716	24.898	869.338	687.982
290.730	24.811	868.897	687.240
291.745	24.606	867.406	685.215
292.760	25.015	867.347	686.673
293.774	26.023	867.961	690.961
294.789	26.318	867.535	691.690
295.803	26.375	866.609	691.109
296.818	26.520	865.989	691.109
297.833	25.795	865.322	687.747
298.847	25.647	864.550	686.509
299.862	26.042	864.243	687.710
300.876	26.202	864.038	688.096
301.891	26.240	863.094	687.427
302.906	25.904	862.065	685.270
303.920	26.047	861.723	685.480
304.935	26.306	861.791	686.457
305.949	26.300	860.851	685.627
306.964	26.081	860.012	684.067
307.979	26.040	859.805	683.685
308.993	26.318	859.540	684.467
310.008	26.350	859.306	684.344
311.022	26.150	858.434	682.830
312.037	25.992	857.678	681.570
313.052	25.581	856.888	679.333
314.066	24.760	855.085	674.747
315.081	24.536	854.433	673.329
316.095	25.556	854.516	677.178
317.110	25.968	854.394	678.571
318.125	25.045	852.906	673.861
319.139	24.005	851.381	668.690
320.154	24.067	851.219	668.738
321.168	25.032	851.474	672.503
322.183	25.646	851.751	674.966
323.197	25.682	851.765	675.053
324.212	25.968	851.031	675.480
325.227	25.908	850.803	675.017
326.241	25.829	849.880	673.930
327.256	25.921	849.071	673.572
328.270	25.753	848.263	672.244
329.285	25.490	847.231	670.385
330.300	25.361	846.497	669.266
331.314	25.682	845.989	669.998
332.329	26.069	846.389	671.696
333.343	25.993	846.302	671.287
334.358	26.016	845.392	670.588
335.373	26.208	845.404	671.253
336.387	26.320	845.198	671.446
337.402	26.673	844.853	672.425
338.416	26.482	844.719	671.550
339.431	26.618	844.652	671.941
340.446	26.568	844.106	671.264
341.460	26.569	843.604	670.807
342.475	26.449	842.840	669.696
343.489	26.600	842.306	669.773
344.504	26.808	842.116	670.329
345.519	27.011	841.914	670.862
346.533	26.951	841.578	670.311
347.548	27.001	841.036	670.003
348.562	26.981	840.262	669.255
349.577	26.920	839.801	668.604
350.592	26.745	839.414	667.593
351.606	26.932	837.776	666.919
352.621	26.816	837.220	665.992
353.635	26.488	836.723	664.332
354.650	25.950	835.215	661.105
355.665	25.115	833.635	656.738
356.679	25.651	833.315	658.388
357.694	25.926	833.125	659.185
358.708	25.884	832.494	658.476
359.723	26.168	832.488	659.450
360.738	26.652	831.939	660.721
361.752	26.748	831.664	660.796
362.767	27.210	831.069	661.947
363.781	27.181	831.173	661.866
364.796	27.159	830.724	661.368
365.810	27.414	830.064	661.712
366.825	27.235	829.888	660.865
367.840	26.986	829.163	659.325
368.854	26.503	828.033	656.612
369.869	26.611	827.836	656.794
370.883	26.762	827.311	656.863
371.898	26.651	826.756	655.963
372.913	26.713	826.358	655.813
373.927	26.872	826.061	656.097
374.942	26.802	825.605	655.421
375.956	26.991	825.389	655.876
376.971	27.245	824.854	656.309
377.986	27.381	824.771	656.675
379.000	27.299	823.951	655.668
380.015	26.995	823.606	654.240
381.029	27.216	822.804	654.343
382.044	27.230	821.884	653.604
383.059	27.226	821.878	653.527
384.073	27.328	821.464	653.506
385.088	27.279	820.576	652.565
386.102	26.918	819.936	650.704
387.117	27.033	819.232	650.501
388.132	26.693	818.173	648.384
389.146	25.925	817.712	645.214
390.161	26.433	817.538	646.837
391.175	27.055	817.260	648.782
392.190	26.648	816.220	646.449
393.205	25.254	813.917	639.603
394.219	23.818	812.258	633.130
395.234	23.839	811.852	632.834
396.248	25.374	812.924	639.078
397.263	26.898	813.840	645.165
398.278	26.722	813.696	644.368
399.292	26.493	813.128	643.048
400.307	26.651	812.384	642.963
401.321	26.658	812.496	643.020
402.336	26.905	812.536	643.871
403.350	27.527	812.099	645.674
404.365	27.781	811.940	646.389
405.380	28.075	811.489	647.015
406.394	28.121	810.871	646.629
407.409	27.811	810.595	645.254
408.423	27.825	810.517	645.184
409.438	28.175	809.794	645.787
410.453	27.950	809.356	644.586
411.467	27.912	808.733	643.899
412.482	27.901	808.571	643.676
413.496	27.863	808.588	643.500
414.511	27.986	807.847	643.286
415.526	28.048	807.081	642.835
416.540	27.762	806.550	641.349
417.555	27.544	806.113	640.181
418.569	27.746	805.634	640.453
419.584	27.617	804.949	639.400
420.599	27.552	804.028	638.384
421.613	109.007	1281.649	1446.426
422.628	94.090	1351.284	1446.538
