DTS Sentinel unit serial number:	SN413079Multiplexer serial number:	ORYXHardware model number:	OX4-SRSoftware version number:	ORYX F/W v4.00 Oryx Data Collector v3.7.2.0data status	okinstallation	princeton_trtdifferential loss correction	single-endedforward channel	channel 1reverse channel	N/Adate	2019/09/16time	02:26:35forward acquisition time	60.00reverse acquisition time	0.00gamma	496.2192k internal	0.2331k external	0.2331temperature offset calibration	0.9976default loss term (dB/km)	0.3790temperature slope calibration	1.0000multiplexer offset coefficient	1.0000multiplexer slope coefficient	1.0000fibre end	0.00T internal ref (°C)	27.62T ext. ref 1 (°C)	10.24T ext. ref 2 (°C)	22.65length (m)	temperature (°C)	Stokes	anti-Stokes-747.200	18.032	0.238	0.191
-746.185	97.941	-0.273	0.317
-745.171	-141.767	0.262	0.026
-744.156	1.809	-0.083	0.060
-743.142	-96.536	-0.046	0.012
-742.127	283.269	-0.166	0.301
-741.112	-200.000	-0.017	0.192
-740.098	-7.260	0.107	0.073
-739.083	-136.482	0.011	-0.001
-738.069	-53.025	-0.075	-0.035
-737.054	-162.615	0.609	-0.030
-736.039	56.579	-0.176	0.172
-735.025	100.885	0.220	0.257
-734.010	234.329	-0.155	0.257
-732.996	44.049	-0.206	-0.190
-731.981	103.311	-0.207	-0.244
-730.966	800.000	-0.079	0.279
-729.952	145.841	0.101	0.136
-728.937	31.022	0.137	-0.118
-727.923	246.674	0.074	-0.125
-726.908	-143.736	-0.238	-0.023
-725.894	159.410	-0.017	-0.023
-724.879	-82.448	0.313	-0.102
-723.864	-200.000	-0.033	0.296
-722.850	33.181	-0.237	0.207
-721.835	-12.848	0.085	-0.056
-720.821	-200.000	0.026	0.246
-719.806	-25.077	-0.187	0.112
-718.791	18.012	0.090	0.072
-717.777	513.841	0.031	-0.072
-716.762	-10.957	0.026	-0.017
-715.748	-24.125	0.237	-0.142
-714.733	368.571	-0.204	0.415
-713.718	33.891	-0.180	-0.158
-712.704	-81.772	0.031	-0.010
-711.689	105.999	0.154	-0.183
-710.675	-78.124	0.173	-0.060
-709.660	-40.727	0.178	0.093
-708.645	800.000	-0.078	0.225
-707.631	-198.809	-0.221	0.001
-706.616	-200.000	-0.002	-0.115
-705.602	-127.691	0.144	-0.021
-704.587	439.216	-0.019	-0.042
-703.572	88.501	0.207	-0.231
-702.558	28.945	-0.171	-0.145
-701.543	52.999	-0.215	-0.206
-700.529	-5.693	0.211	-0.146
-699.514	63.384	-0.086	-0.087
-698.499	-29.670	0.220	-0.126
-697.485	-178.410	-0.151	-0.004
-696.470	-198.610	-0.029	0.000
-695.456	58.509	-0.238	-0.235
-694.441	-161.555	0.417	-0.022
-693.426	800.000	-0.025	-0.094
-692.412	-50.822	0.236	0.111
-691.397	-69.562	-0.140	0.054
-690.383	237.010	0.122	0.203
-689.368	-200.000	-0.039	-0.240
-688.354	-72.771	-0.064	0.024
-687.339	-143.418	0.340	-0.033
-686.324	-15.764	-0.240	0.154
-685.310	-200.000	0.012	0.157
-684.295	-97.725	0.314	0.082
-683.281	-16.260	-0.180	0.115
-682.266	-130.542	-0.107	-0.015
-681.251	266.590	0.105	0.184
-680.237	-132.213	0.262	0.034
-679.222	-152.136	-0.135	0.010
-678.208	-36.676	0.186	-0.100
-677.193	67.497	-0.140	-0.143
-676.178	800.000	-0.078	-0.273
-675.164	-200.000	0.005	0.287
-674.149	179.657	-0.097	-0.142
-673.135	363.379	0.078	0.157
-672.120	-51.428	-0.289	-0.135
-671.105	-133.885	0.373	0.047
-670.091	800.000	0.102	-0.285
-669.076	143.375	0.247	0.331
-668.062	800.000	0.088	0.272
-667.047	-100.279	-0.196	-0.049
-666.032	660.221	-0.116	-0.299
-665.018	273.306	-0.014	-0.025
-664.003	-156.394	0.123	0.008
-662.989	-17.169	0.067	0.042
-661.974	-51.021	0.263	-0.124
-660.959	192.640	-0.093	0.141
-659.945	190.597	0.170	-0.256
-658.930	-139.238	-0.160	-0.017
-657.916	692.518	0.101	0.264
-656.901	95.601	0.183	-0.210
-655.886	-11.350	0.210	0.139
-654.872	12.841	-0.223	-0.173
-653.857	-97.836	0.308	-0.080
-652.843	-200.000	-0.010	-0.067
-651.828	-70.825	0.173	-0.065
-650.814	-134.560	0.251	-0.031
-649.799	260.319	0.027	0.046
-648.784	-37.417	0.327	-0.175
-647.770	-200.000	0.049	-0.244
-646.755	-44.153	-0.381	0.192
-645.741	-118.638	0.107	0.019
-644.726	19.367	0.281	0.227
-643.711	-200.000	0.005	-0.095
-642.697	-104.638	-0.249	-0.057
-641.682	-60.370	-0.223	0.095
-640.668	-111.180	-0.157	-0.032
-639.653	13.574	0.252	0.196
-638.638	689.568	-0.059	-0.155
-637.624	59.125	0.133	-0.131
-636.609	-37.339	0.113	0.060
-635.595	158.472	-0.039	0.055
-634.580	-146.442	0.100	-0.009
-633.565	-88.006	-0.457	-0.138
-632.551	-98.552	-0.171	0.044
-631.536	-102.339	0.072	0.017
-630.522	-34.968	-0.357	0.195
-629.507	-13.229	0.051	-0.033
-628.492	32.582	0.214	-0.186
-627.478	-132.685	-0.113	-0.015
-626.463	-200.000	-0.031	0.242
-625.449	140.084	-0.166	-0.219
-624.434	90.535	0.195	-0.219
-623.419	-172.307	0.149	0.005
-622.405	-111.234	-0.267	-0.055
-621.390	5.704	0.336	-0.249
-620.376	-200.000	-0.020	-0.316
-619.361	-45.490	-0.352	0.175
-618.346	-120.342	-0.409	-0.070
-617.332	-112.352	-0.226	0.045
-616.317	-41.264	-0.365	-0.188
-615.303	9.877	0.138	0.105
-614.288	-68.046	-0.164	-0.064
-613.273	43.398	0.122	0.112
-612.259	-80.849	-0.219	0.073
-611.244	800.000	0.055	0.175
-610.230	-0.509	-0.228	0.162
-609.215	27.235	-0.237	0.199
-608.201	-155.686	-0.394	0.025
-607.186	117.350	-0.147	-0.180
-606.171	117.312	0.163	0.201
-605.157	357.834	-0.199	-0.397
-604.142	800.000	-0.043	-0.129
-603.128	170.816	-0.233	-0.334
-602.113	-200.000	0.007	-0.108
-601.098	140.868	0.169	0.223
-600.084	-43.674	-0.315	-0.159
-599.069	226.296	-0.069	-0.112
-598.055	-5.872	0.186	-0.128
-597.040	-101.259	0.211	-0.052
-596.025	61.586	-0.174	0.173
-595.011	366.946	-0.115	-0.232
-593.996	-1.595	0.134	-0.094
-592.982	-28.241	0.047	0.027
-591.967	-200.000	-0.045	0.343
-590.952	-200.000	0.002	-0.054
-589.938	-200.000	0.007	0.095
-588.923	88.771	-0.264	0.294
-587.909	7.370	0.202	-0.151
-586.894	800.000	0.050	-0.190
-585.879	-59.669	-0.283	-0.121
-584.865	-200.000	-0.052	0.298
-583.850	-123.006	0.166	0.027
-582.836	800.000	-0.112	0.325
-581.821	251.950	0.067	0.114
-580.806	39.972	-0.136	-0.122
-579.792	-22.012	0.106	-0.064
-578.777	-76.699	-0.051	-0.018
-577.763	74.634	0.065	0.068
-576.748	97.719	-0.112	0.129
-575.733	206.529	0.116	-0.181
-574.719	472.314	0.071	-0.159
-573.704	518.047	0.130	0.304
-572.690	552.422	-0.118	-0.284
-571.675	-200.000	-0.029	-0.145
-570.661	122.417	-0.189	-0.236
-569.646	-25.856	0.045	0.026
-568.631	42.304	0.287	0.261
-567.617	-3.548	-0.261	0.181
-566.602	79.579	0.192	-0.206
-565.588	139.663	0.077	-0.102
-564.573	-55.676	-0.179	-0.080
-563.558	800.000	-0.062	0.217
-562.544	-91.459	0.207	0.059
-561.529	-132.919	-0.316	0.040
-560.515	-52.664	0.034	0.016
-559.500	-19.056	-0.074	-0.046
-558.485	-200.000	0.017	0.076
-557.471	36.069	-0.019	-0.017
-556.456	179.110	0.210	-0.307
-555.442	-200.000	-0.080	0.352
-554.427	168.940	-0.211	0.301
-553.412	253.399	-0.191	-0.325
-552.398	-34.069	0.125	-0.068
-551.383	250.736	-0.117	-0.198
-550.369	-12.135	-0.137	-0.089
-549.354	-173.237	0.089	0.003
-548.339	634.214	-0.023	-0.058
-547.325	-200.000	0.006	0.275
-546.310	-200.000	-0.043	0.208
-545.296	-50.962	0.309	0.145
-544.281	-117.315	0.429	0.078
-543.266	-97.887	-0.380	0.098
-542.252	-41.894	0.149	-0.076
-541.237	800.000	0.091	0.279
-540.223	-108.826	-0.339	0.072
-539.208	-58.274	-0.161	-0.070
-538.193	-3.325	-0.296	-0.206
-537.179	-39.358	-0.363	-0.190
-536.164	184.122	-0.092	0.137
-535.150	715.192	0.068	-0.181
-534.135	-112.228	0.523	-0.105
-533.121	90.323	0.143	-0.159
-532.106	-200.000	-0.026	-0.240
-531.091	-148.543	0.136	-0.011
-530.077	-200.000	-0.018	-0.173
-529.062	-47.438	-0.216	-0.105
-528.048	-200.000	0.020	-0.161
-527.033	-82.916	0.134	-0.043
-526.018	-176.667	-0.337	-0.009
-525.004	-36.054	-0.169	-0.091
-523.989	414.423	0.050	-0.106
-522.975	-60.650	0.166	-0.070
-521.960	20.301	0.152	0.123
-520.945	-114.774	0.141	-0.027
-519.931	204.173	-0.100	0.154
-518.916	352.941	-0.090	-0.179
-517.902	28.729	-0.208	-0.175
-516.887	-200.000	0.002	0.114
-515.872	-38.700	-0.280	-0.147
-514.858	155.395	0.258	0.355
-513.843	-200.000	0.045	0.208
-512.829	-74.580	-0.107	-0.039
-511.814	123.106	-0.248	-0.310
-510.799	42.877	0.251	-0.228
-509.785	800.000	0.021	0.092
-508.770	298.700	-0.106	0.194
-507.756	101.590	-0.105	-0.122
-506.741	800.000	0.073	-0.229
-505.726	-200.000	-0.013	0.168
-504.712	-200.000	-0.066	0.327
-503.697	-200.000	-0.014	-0.102
-502.683	-200.000	-0.001	0.189
-501.668	167.527	0.069	-0.098
-500.653	143.930	0.238	-0.316
-499.639	800.000	0.028	0.089
-498.624	-109.885	-0.253	-0.053
-497.610	800.000	-0.066	-0.227
-496.595	-77.131	-0.246	-0.086
-495.581	213.511	-0.016	-0.025
-494.566	-7.333	0.247	-0.166
-493.551	-103.310	0.074	0.017
-492.537	217.917	0.081	-0.128
-491.522	-63.215	0.131	0.054
-490.508	11.318	-0.103	-0.078
-489.493	303.550	0.096	-0.178
-488.478	-1.971	0.140	0.098
-487.464	-200.000	0.005	-0.257
-486.449	-200.000	0.028	-0.240
-485.435	-61.592	0.193	0.081
-484.420	-78.286	-0.056	-0.019
-483.405	-9.606	-0.064	-0.043
-482.391	124.169	0.122	0.152
-481.376	-200.000	-0.012	-0.478
-480.362	800.000	0.047	0.189
-479.347	800.000	0.057	-0.227
-478.332	800.000	0.075	-0.252
-477.318	-200.000	-0.009	0.058
-476.303	235.983	-0.189	-0.311
-475.289	-98.944	0.321	0.081
-474.274	732.256	0.104	0.276
-473.259	-200.000	-0.026	0.166
-472.245	-85.192	0.142	0.044
-471.230	-188.448	-0.142	-0.002
-470.216	-200.000	-0.023	0.115
-469.201	268.400	-0.138	-0.240
-468.186	800.000	0.020	0.058
-467.172	-18.531	0.376	-0.233
-466.157	-160.116	0.381	-0.021
-465.143	-78.982	0.098	-0.033
-464.128	46.792	-0.263	0.244
-463.113	187.862	0.083	0.124
-462.099	221.339	0.039	0.062
-461.084	17.729	-0.338	-0.268
-460.070	-73.911	0.142	-0.051
-459.055	-95.359	0.364	-0.097
-458.040	-144.963	0.166	-0.015
-457.026	728.193	-0.135	0.360
-456.011	800.000	-0.088	-0.289
-454.997	-134.144	0.397	-0.049
-453.982	9.655	0.237	-0.179
-452.968	-152.962	-0.178	0.012
-451.953	548.864	-0.116	0.276
-450.938	235.522	0.193	-0.317
-449.924	-131.198	-0.308	0.041
-448.909	-120.374	-0.123	-0.021
-447.895	225.124	0.113	-0.181
-446.880	-93.238	0.141	-0.039
-445.865	-198.559	-0.416	-0.002
-444.851	171.404	-0.136	0.194
-443.836	-191.341	-0.092	0.001
-442.822	-57.407	-0.206	-0.090
-441.807	-37.021	0.011	-0.006
-440.792	687.029	0.132	0.342
-439.778	-125.173	0.177	-0.027
-438.763	70.597	-0.108	-0.111
-437.749	282.123	-0.205	-0.366
-436.734	-123.337	0.255	0.040
-435.719	800.000	-0.106	-0.371
-434.705	22.771	0.272	0.221
-433.690	-200.000	-0.036	0.231
-432.676	-165.956	-0.241	0.010
-431.661	-20.810	0.169	0.103
-430.646	-178.374	0.102	-0.002
-429.632	69.115	-0.226	-0.231
-428.617	-8.041	0.172	0.115
-427.603	549.286	0.039	-0.092
-426.588	-200.000	0.118	0.542
-425.573	698.141	-0.164	0.429
-424.559	-200.000	0.037	-0.295
-423.544	243.412	-0.077	-0.128
-422.530	-71.792	0.408	-0.151
-421.515	158.832	0.043	-0.060
-420.500	800.000	0.016	-0.062
-419.486	-200.000	-0.078	-0.519
-418.471	242.192	-0.142	0.237
-417.457	-113.069	0.268	0.053
-416.442	17.697	0.030	0.024
-415.428	19.805	-0.060	-0.048
-414.413	-200.000	0.000	-0.111
-413.398	-200.000	0.038	-0.191
-412.384	-200.000	-0.066	0.325
-411.369	253.983	-0.122	-0.208
-410.355	-29.307	-0.184	-0.105
-409.340	800.000	-0.055	0.163
-408.325	-82.934	-0.286	-0.092
-407.311	-66.028	-0.288	-0.114
-406.296	48.819	-0.247	-0.230
-405.282	73.617	0.285	0.296
-404.267	-99.719	-0.536	0.133
-403.252	-7.827	0.319	-0.214
-402.238	-136.606	-0.165	-0.019
-401.223	-61.958	-0.182	0.076
-400.209	53.326	0.095	0.091
-399.194	800.000	-0.095	0.314
-398.179	-140.971	0.165	0.017
-397.165	-24.398	0.120	0.071
-396.150	-200.000	-0.014	-0.204
-395.136	375.954	-0.007	-0.014
-394.121	-86.819	0.141	-0.043
-393.106	-97.984	-0.172	-0.044
-392.092	-54.882	0.101	0.045
-391.077	-200.000	-0.047	0.446
-390.063	-17.714	-0.180	0.112
-389.048	-200.000	0.004	-0.156
-388.033	409.033	-0.129	-0.271
-387.019	-111.615	0.151	0.030
-386.004	64.520	-0.080	0.080
-384.990	-119.232	0.464	0.080
-383.975	-69.193	0.116	-0.044
-382.960	-41.043	-0.294	-0.151
-381.946	-62.248	-0.175	-0.072
-380.931	-200.000	-0.030	-0.153
-379.917	-200.000	0.022	-0.159
-378.902	661.013	0.053	0.136
-377.888	800.000	-0.115	0.472
-376.873	-167.674	-0.192	-0.008
-375.858	800.000	0.075	0.234
-374.844	449.089	-0.105	0.229
-373.829	-80.766	-0.083	-0.027
-372.815	99.555	0.273	0.313
-371.800	447.847	0.175	-0.382
-370.785	-13.074	-0.235	-0.151
-369.771	-30.579	0.288	-0.162
-368.756	-63.352	-0.055	-0.022
-367.742	-30.634	-0.198	-0.111
-366.727	317.011	-0.145	-0.272
-365.712	52.125	-0.213	0.202
-364.698	50.090	0.023	-0.022
-363.683	-200.000	-0.013	0.080
-362.669	800.000	-0.099	0.291
-361.654	-200.000	-0.028	0.399
-360.639	-200.000	-0.016	-0.107
-359.625	-37.762	-0.174	-0.092
-358.610	-148.733	0.312	0.025
-357.596	-74.293	0.089	-0.032
-356.581	800.000	0.106	-0.315
-355.566	462.702	0.127	-0.282
-354.552	-135.370	0.188	-0.022
-353.537	283.423	0.060	0.107
-352.523	-118.958	0.061	-0.011
-351.508	4.227	-0.119	-0.086
-350.493	-131.647	-0.133	-0.017
-349.479	117.880	0.151	0.184
-348.464	135.487	0.307	0.396
-347.450	-64.589	0.266	0.107
-346.435	-74.635	-0.155	0.055
-345.420	800.000	0.062	-0.243
-344.406	-200.000	-0.002	0.334
-343.391	159.799	-0.085	0.117
-342.377	87.590	0.056	0.061
-341.362	46.667	-0.276	0.254
-340.348	37.910	0.110	0.097
-339.333	-200.000	-0.019	-0.166
-338.318	-135.697	0.405	0.048
-337.304	-43.416	0.221	-0.111
-336.289	-162.431	0.328	0.016
-335.275	-9.047	-0.169	0.112
-334.260	108.480	-0.192	0.227
-333.245	-200.000	0.007	0.182
-332.231	19.388	0.220	0.175
-331.216	-35.020	0.043	0.023
-330.202	320.999	0.092	0.174
-329.187	-102.867	-0.327	0.077
-328.172	-113.292	0.392	0.076
-327.158	363.368	-0.112	0.223
-326.143	-200.000	0.051	-0.225
-325.129	102.914	0.096	0.111
-324.114	191.306	-0.166	-0.248
-323.099	170.965	-0.198	0.281
-322.085	493.923	0.115	0.261
-321.070	192.452	-0.179	-0.267
-320.056	216.912	0.059	0.093
-319.041	161.038	0.110	-0.152
-318.026	522.904	-0.067	-0.156
-317.012	-120.697	0.230	-0.038
-315.997	-65.815	0.107	0.042
-314.983	-120.110	-0.120	-0.020
-313.968	338.624	-0.201	-0.387
-312.953	262.413	0.062	-0.106
-311.939	-200.000	-0.004	0.032
-310.924	376.016	-0.095	-0.191
-309.910	21.154	-0.141	0.113
-308.895	132.387	-0.098	0.125
-307.880	348.074	0.062	-0.121
-306.866	-73.964	0.127	-0.045
-305.851	150.254	-0.162	-0.218
-304.837	-35.972	-0.304	0.163
-303.822	81.677	0.121	0.130
-302.807	-118.029	0.123	0.022
-301.793	800.000	0.065	0.218
-300.778	179.911	-0.122	0.176
-299.764	-200.000	0.021	-0.151
-298.749	5.767	0.066	0.048
-297.735	166.448	0.154	0.216
-296.720	-133.167	0.284	0.036
-295.705	-200.000	0.082	-0.561
-294.691	-24.721	-0.311	0.183
-293.676	53.865	0.103	0.097
-292.662	-200.000	-0.040	-0.200
-291.647	-200.000	-0.017	-0.180
-290.632	-126.369	-0.102	0.015
-289.618	-77.950	0.267	0.091
-288.603	-200.000	0.017	-0.264
-287.589	-36.480	0.023	-0.012
-286.574	27.025	0.044	-0.036
-285.559	-25.298	0.334	0.196
-284.545	-200.000	-0.013	-0.117
-283.530	277.303	-0.075	-0.132
-282.516	-166.310	-0.293	0.012
-281.501	-111.159	-0.099	0.020
-280.486	63.569	0.356	0.353
-279.472	523.389	-0.060	-0.139
-278.457	-161.189	0.061	0.003
-277.443	-200.000	0.014	-0.099
-276.428	324.505	-0.075	-0.142
-275.413	336.852	-0.122	0.235
-274.399	-200.000	0.003	-0.205
-273.384	185.090	0.039	-0.057
-272.370	-44.850	0.148	0.073
-271.355	-81.914	-0.022	0.007
-270.340	-200.000	-0.001	0.060
-269.326	-200.000	0.003	0.040
-268.311	209.015	0.164	0.253
-267.297	-14.774	0.274	-0.174
-266.282	-61.673	-0.187	0.077
-265.267	-71.227	0.299	0.111
-264.253	-92.068	-0.332	0.093
-263.238	-109.644	-0.167	-0.035
-262.224	-200.000	0.039	0.323
-261.209	-54.584	0.136	0.061
-260.195	-172.848	-0.237	0.007
-259.180	-200.000	-0.044	0.246
-258.165	-200.000	0.021	0.221
-257.151	-74.723	-0.222	0.079
-256.136	-107.237	0.226	-0.049
-255.122	-177.445	-0.268	-0.006
-254.107	58.623	0.264	-0.256
-253.092	13.378	0.119	-0.091
-252.078	114.778	0.048	0.058
-251.063	-200.000	-0.048	0.222
-250.049	173.526	0.130	-0.185
-249.034	-200.000	-0.032	0.317
-248.019	145.020	0.261	0.345
-247.005	-151.615	-0.244	-0.018
-245.990	-200.000	-0.006	0.091
-244.976	-125.970	0.406	0.060
-243.961	-200.000	0.009	-0.090
-242.946	74.116	-0.146	-0.152
-241.932	292.902	0.186	0.335
-240.917	459.619	0.032	0.071
-239.903	104.881	0.187	-0.217
-238.888	125.468	-0.142	0.177
-237.873	-97.101	0.034	0.009
-236.859	800.000	0.052	0.190
-235.844	601.787	-0.108	-0.264
-234.830	800.000	0.056	0.179
-233.815	-17.882	0.285	0.176
-232.800	800.000	-0.069	-0.221
-231.786	-200.000	-0.019	-0.135
-230.771	55.284	-0.063	-0.060
-229.757	156.726	-0.187	0.255
-228.742	800.000	0.036	0.099
-227.727	565.296	0.162	-0.388
-226.713	-200.000	0.024	-0.107
-225.698	-52.386	-0.107	0.049
-224.684	717.892	0.041	0.106
-223.669	-126.603	0.303	-0.044
-222.655	14.887	0.142	-0.110
-221.640	-94.974	-0.286	-0.076
-220.625	187.677	-0.065	-0.095
-219.611	-92.848	-0.181	0.050
-218.596	-42.474	-0.228	-0.115
-217.582	167.698	-0.086	-0.121
-216.567	-122.124	-0.132	0.021
-215.552	-76.499	0.283	-0.098
-214.538	294.537	-0.195	-0.352
-213.523	370.038	-0.037	0.073
-212.509	-200.000	0.016	0.125
-211.494	-128.300	0.261	0.037
-210.479	-115.798	-0.126	0.023
-209.465	95.204	-0.249	-0.280
-208.450	-17.634	0.133	-0.082
-207.436	-153.973	0.066	-0.004
-206.421	-200.000	-0.008	0.259
-205.406	86.614	0.126	0.137
-204.392	-200.000	-0.002	0.090
-203.377	-52.652	0.237	0.108
-202.363	-200.000	-0.062	0.297
-201.348	-200.000	-0.091	0.525
-200.333	45.246	-0.225	-0.205
-199.319	103.512	-0.123	0.142
-198.304	558.178	-0.016	-0.039
-197.290	265.714	-0.014	-0.024
-196.275	-200.000	0.029	0.144
-195.260	671.815	-0.148	0.377
-194.246	208.410	0.185	-0.285
-193.231	19.469	0.263	0.208
-192.217	116.846	-0.175	-0.212
-191.202	800.000	0.077	-0.223
-190.187	-200.000	0.058	0.326
-189.173	106.744	-0.114	-0.134
-188.158	-200.000	-0.017	-0.114
-187.144	-120.154	0.163	0.027
-186.129	-130.931	0.145	0.019
-185.114	-62.645	-0.181	0.074
-184.100	-12.502	0.261	0.168
-183.085	-13.660	-0.179	0.114
-182.071	-200.000	0.023	0.112
-181.056	-146.449	-0.282	0.024
-180.042	800.000	0.074	-0.300
-179.027	-53.300	-0.185	0.083
-178.012	334.221	0.090	0.171
-176.998	-96.118	0.195	0.051
-175.983	-200.000	-0.025	-0.305
-174.969	-96.484	0.158	-0.041
-173.954	-6.438	-0.217	0.146
-172.939	230.446	0.069	0.111
-171.925	447.519	0.121	0.261
-170.910	-155.638	0.153	0.010
-169.896	48.616	-0.189	-0.174
-168.881	-200.000	0.048	-0.333
-167.866	-32.189	0.073	-0.040
-166.852	800.000	0.055	0.189
-165.837	-49.488	0.110	0.052
-164.823	-86.666	0.042	-0.013
-163.808	-200.000	-0.003	0.255
-162.793	-122.428	0.230	-0.037
-161.779	364.321	-0.177	-0.351
-160.764	-61.781	0.161	0.066
-159.750	-30.269	0.279	-0.156
-158.735	-200.000	0.075	0.459
-157.720	800.000	0.155	0.468
-156.706	-99.200	0.399	0.099
-155.691	85.249	0.225	-0.243
-154.677	-108.214	-0.247	0.052
-153.662	-93.892	0.330	-0.089
-152.647	303.067	-0.103	-0.188
-151.633	48.822	-0.137	-0.127
-150.618	-105.526	0.232	0.052
-149.604	384.616	0.075	-0.153
-148.589	-200.000	0.016	-0.140
-147.574	-200.000	0.037	-0.196
-146.560	-156.841	0.086	-0.005
-145.545	-19.303	-0.116	-0.071
-144.531	-152.450	0.532	-0.038
-143.516	532.079	-0.056	0.130
-142.502	-113.593	0.131	-0.025
-141.487	-114.819	0.228	0.043
-140.472	20.566	-0.069	0.055
-139.458	-86.804	-0.173	-0.052
-138.443	100.848	0.228	0.261
-137.429	-51.903	-0.274	0.125
-136.414	283.777	0.127	0.224
-135.399	-54.812	-0.270	-0.120
-134.385	-200.000	-0.003	0.033
-133.370	-200.000	0.004	-0.202
-132.356	251.925	-0.129	0.215
-131.341	66.039	0.119	0.119
-130.326	-91.234	0.044	-0.012
-129.312	-158.869	-0.133	0.007
-128.297	-39.214	0.240	0.124
-127.283	679.210	0.149	0.382
-126.268	-175.129	0.164	0.004
-125.253	-126.120	0.239	0.035
-124.239	800.000	-0.057	-0.180
-123.224	15.989	0.055	0.042
-122.210	-121.151	0.352	0.058
-121.195	800.000	-0.047	0.156
-120.180	-36.153	0.120	0.064
-119.166	57.486	0.277	0.265
-118.151	-157.320	0.291	0.017
-117.137	-200.000	0.025	0.111
-116.122	800.000	0.030	-0.083
-115.107	50.840	-0.150	-0.140
-114.093	140.659	0.115	-0.150
-113.078	-200.000	-0.027	-0.187
-112.064	-153.653	0.103	-0.007
-111.049	337.851	-0.163	-0.311
-110.034	-200.000	0.021	0.318
-109.020	800.000	0.016	-0.056
-108.005	158.257	0.215	-0.293
-106.991	-77.953	-0.234	0.079
-105.976	-47.579	0.229	0.109
-104.962	-110.724	0.106	0.022
-103.947	44.507	-0.125	0.113
-102.932	-200.000	-0.001	0.271
-101.918	307.506	-0.045	0.083
-100.903	94.405	-0.089	-0.099
-99.889	-144.991	0.232	0.021
-98.874	67.797	-0.320	0.321
-97.859	800.000	0.075	0.261
-96.845	319.294	-0.053	0.098
-95.830	-108.051	-0.040	-0.009
-94.816	13.634	0.309	0.236
-93.801	-92.391	-0.167	0.046
-92.786	256.454	0.079	0.133
-91.772	-200.000	0.011	0.329
-90.757	723.843	-0.078	-0.204
-89.743	-200.000	-0.001	0.178
-88.728	-129.279	0.077	0.011
-87.713	800.000	0.101	0.415
-86.699	-120.327	0.196	0.033
-85.684	-142.168	0.501	-0.049
-84.670	-200.000	0.031	0.219
-83.655	-90.475	0.270	0.077
-82.640	159.238	-0.061	0.083
-81.626	-142.267	0.349	-0.034
-80.611	-200.000	-0.002	-0.046
-79.597	-161.969	-0.135	0.007
-78.582	103.670	-0.111	-0.128
-77.567	-200.000	0.002	0.229
-76.553	-60.659	0.126	-0.053
-75.538	12.464	-0.035	-0.027
-74.524	-16.543	-0.218	-0.136
-73.509	-200.000	0.051	-0.238
-72.494	-200.000	0.001	0.105
-71.480	800.000	-0.079	0.305
-70.465	800.000	0.105	-0.328
-69.451	274.826	0.072	0.125
-68.436	530.511	-0.070	-0.161
-67.422	301.831	-0.157	-0.285
-66.407	561.558	0.027	-0.065
-65.392	-35.502	0.157	0.084
-64.378	800.000	-0.082	-0.327
-63.363	124.955	0.101	-0.125
-62.349	206.617	-0.111	0.170
-61.334	44.900	-1.041	-0.939
-60.319	-13.043	0.575	0.366
-59.305	256.579	-0.776	-1.306
-58.290	800.000	0.419	1.339
-57.276	363.852	0.950	1.871
-56.261	-200.000	111.940	640.980
-55.246	475.853	1500.186	3320.157
-54.232	148.457	2663.598	3524.000
-53.217	104.582	2150.152	2481.116
-52.203	38.967	1601.138	1401.683
-51.188	30.962	1348.465	1132.061
-50.173	27.893	1311.312	1082.665
-49.159	55.541	1366.009	1295.507
-48.144	54.365	1380.950	1302.546
-47.130	31.170	1336.966	1123.482
-46.115	27.652	1319.541	1087.851
-45.100	27.563	1314.323	1082.976
-44.086	27.526	1312.033	1080.826
-43.071	27.502	1309.617	1078.649
-42.057	27.453	1307.856	1076.868
-41.042	27.487	1306.671	1076.049
-40.027	27.495	1304.724	1074.451
-39.013	27.489	1302.490	1072.534
-37.998	27.521	1300.760	1071.252
-36.984	27.551	1298.929	1069.880
-35.969	27.575	1297.201	1068.555
-34.954	27.642	1295.519	1067.519
-33.940	27.559	1294.149	1065.862
-32.925	27.674	1292.993	1065.540
-31.911	27.713	1291.269	1064.307
-30.896	27.711	1290.093	1063.283
-29.881	27.728	1288.813	1062.284
-28.867	27.686	1287.522	1060.931
-27.852	27.807	1285.601	1060.010
-26.838	27.784	1284.536	1058.957
-25.823	27.670	1283.140	1057.102
-24.809	27.641	1282.115	1056.049
-23.794	27.780	1280.219	1055.249
-22.779	27.741	1278.971	1053.954
-21.765	27.680	1277.783	1052.578
-20.750	27.836	1276.394	1052.291
-19.736	27.659	1275.018	1050.100
-18.721	27.598	1274.137	1048.981
-17.706	27.602	1273.137	1048.139
-16.692	27.565	1272.010	1046.955
-15.677	27.593	1270.595	1045.909
-14.663	27.581	1269.721	1045.082
-13.648	27.609	1268.433	1044.142
-12.633	27.524	1267.882	1043.156
-11.619	27.527	1266.855	1042.286
-10.604	27.548	1266.039	1041.698
-9.590	27.576	1264.999	1040.961
-8.575	27.595	1264.017	1040.219
-7.560	27.622	1262.722	1039.263
-6.546	27.581	1262.086	1038.466
-5.531	27.520	1261.450	1037.553
-4.517	27.460	1260.889	1036.710
-3.502	27.548	1259.722	1036.210
-2.487	27.546	1258.381	1035.053
-1.473	27.562	1254.133	1031.608
-0.458	26.113	1239.554	1011.465
0.556	21.412	1223.842	976.371
1.571	18.097	1230.578	963.015
2.586	17.281	1245.429	969.899
3.600	17.274	1234.890	961.567
4.615	15.537	1167.744	899.902
5.629	12.094	1100.120	830.308
6.644	10.395	1083.224	809.006
7.659	10.248	1080.791	806.387
8.673	10.150	1080.081	805.294
9.688	10.157	1078.431	804.031
10.702	10.429	1076.049	803.531
11.717	12.476	1078.617	815.542
12.731	15.956	1082.628	835.796
13.746	17.660	1085.039	846.051
14.761	17.557	1083.954	844.622
15.775	16.534	1082.316	838.203
16.790	15.556	1079.938	831.448
17.804	14.776	1078.443	826.366
18.819	14.314	1077.188	823.047
19.834	13.996	1076.224	820.666
20.848	13.944	1075.247	819.596
21.863	13.639	1074.623	817.540
22.877	13.536	1073.799	816.333
23.892	13.565	1073.101	815.877
24.907	13.382	1072.574	814.500
25.921	13.389	1071.752	813.839
26.936	13.612	1070.019	813.545
27.950	13.577	1068.592	812.217
28.965	13.581	1066.955	810.919
29.980	13.764	1065.307	810.491
30.994	13.799	1064.143	809.707
32.009	13.721	1063.294	808.609
33.023	13.731	1062.203	807.752
34.038	13.750	1061.094	806.930
35.053	13.588	1060.648	805.735
36.067	13.567	1059.583	804.750
37.082	13.710	1058.475	804.532
38.096	13.769	1057.786	804.223
39.111	13.733	1057.053	803.422
40.126	13.561	1055.747	801.523
41.140	13.488	1054.442	800.111
42.155	13.438	1053.452	799.047
43.169	13.323	1052.416	797.638
44.184	13.411	1051.131	797.014
45.199	13.457	1050.346	796.571
46.213	13.467	1049.099	795.603
47.228	13.467	1047.915	794.636
48.242	13.487	1047.387	794.258
49.257	13.457	1046.130	793.092
50.271	13.544	1045.522	792.980
51.286	13.686	1044.212	792.594
52.301	13.687	1043.222	791.776
53.315	13.575	1042.561	790.669
54.330	13.457	1041.678	789.366
55.344	13.532	1040.397	788.683
56.359	13.520	1039.920	788.197
57.374	13.569	1038.530	787.306
58.388	13.421	1037.725	785.924
59.403	13.488	1037.036	785.649
60.417	13.406	1036.114	784.494
61.432	13.362	1035.580	783.811
62.447	13.401	1034.227	782.903
63.461	13.403	1033.456	782.258
64.476	13.298	1032.853	781.239
65.490	13.425	1031.603	780.822
66.505	13.423	1031.243	780.470
67.520	13.470	1030.491	780.055
68.534	13.408	1029.817	779.182
69.549	13.388	1029.504	778.783
70.563	13.335	1028.491	777.698
71.578	13.281	1027.617	776.714
72.593	13.282	1026.655	775.924
73.607	13.216	1026.370	775.330
74.622	13.279	1025.856	775.168
75.636	13.236	1024.753	774.063
76.651	13.236	1023.749	773.239
77.666	13.198	1023.426	772.746
78.680	13.211	1022.960	772.391
79.695	13.385	1021.849	772.292
80.709	13.471	1021.156	772.102
81.724	13.269	1020.913	770.907
82.739	13.571	1019.908	771.490
83.753	13.697	1018.984	771.305
84.768	13.754	1018.127	770.855
85.782	13.672	1017.699	770.084
86.797	13.656	1016.602	769.110
87.812	13.546	1015.640	767.802
88.826	13.576	1014.475	766.994
89.841	13.479	1014.013	766.127
90.855	13.718	1012.678	766.156
91.870	13.645	1012.091	765.306
92.884	13.762	1011.173	765.086
93.899	13.873	1010.017	764.654
94.914	13.729	1009.677	763.667
95.928	13.684	1008.905	762.808
96.943	13.680	1007.921	761.976
97.957	13.809	1006.577	761.486
98.972	13.776	1006.269	761.033
99.987	13.754	1005.311	760.142
101.001	13.735	1004.224	759.164
102.016	13.726	1003.673	758.641
103.030	13.688	1002.951	757.855
104.045	13.707	1002.386	757.444
105.060	13.776	1001.005	756.653
106.074	13.534	1000.202	754.877
107.089	13.401	999.705	753.825
108.103	13.513	998.453	753.327
109.118	13.626	997.264	752.875
110.133	13.471	996.727	751.701
111.147	13.459	995.800	750.879
112.162	13.577	994.840	750.621
113.176	13.440	994.089	749.371
114.191	13.650	992.877	749.341
115.206	13.567	992.651	748.728
116.220	13.466	992.015	747.725
117.235	13.542	990.830	747.110
118.249	13.410	990.105	745.901
119.264	13.461	989.206	745.388
120.279	13.479	987.949	744.457
121.293	13.505	987.400	744.091
122.308	13.471	986.503	743.200
123.322	13.457	985.515	742.326
124.337	13.565	984.591	742.048
125.352	13.464	983.607	740.789
126.366	13.473	982.457	739.897
127.381	13.541	981.304	739.268
128.395	13.605	980.024	738.524
129.410	13.507	979.618	737.714
130.424	13.454	979.255	737.138
131.439	13.506	978.295	736.583
132.454	13.597	977.158	736.065
133.468	13.628	976.274	735.471
134.483	13.636	975.292	734.702
135.497	13.619	974.397	733.888
136.512	13.695	973.888	733.776
137.527	13.642	973.061	732.854
138.541	13.611	972.701	732.380
139.556	13.632	971.640	731.610
140.570	13.700	970.987	731.356
141.585	13.703	970.404	730.864
142.600	13.771	969.549	730.454
143.614	13.892	968.325	729.998
144.629	13.946	967.634	729.650
145.643	13.758	967.079	728.342
146.658	13.751	965.213	726.841
147.673	13.687	964.987	726.329
148.687	13.730	963.679	725.467
149.702	13.628	963.390	724.741
150.716	13.616	962.523	723.969
151.731	13.585	961.650	723.115
152.746	13.671	960.979	722.921
153.760	13.802	959.757	722.510
154.775	13.883	959.119	722.315
155.789	13.861	958.731	721.866
156.804	13.959	957.988	721.666
157.819	13.801	957.520	720.566
158.833	13.838	957.327	720.515
159.848	14.047	955.726	720.154
160.862	13.957	955.282	719.367
161.877	13.839	954.301	718.053
162.892	13.651	953.497	716.570
163.906	13.767	952.195	716.031
164.921	13.647	951.677	715.060
165.935	13.860	950.497	715.028
166.950	13.882	949.327	714.180
167.964	13.754	948.830	713.190
168.979	13.806	947.822	712.592
169.994	13.896	946.924	712.241
171.008	13.860	946.459	711.674
172.023	13.974	945.470	711.355
173.037	14.085	944.735	711.215
174.052	14.100	944.343	710.921
175.067	13.912	943.497	709.419
176.081	13.940	943.135	709.203
177.096	13.738	942.940	708.131
178.110	14.006	941.735	708.304
179.125	13.938	941.297	707.626
180.140	13.939	940.906	707.271
181.154	13.987	940.240	706.914
182.169	14.041	939.722	706.692
183.183	14.208	938.724	706.587
184.198	14.087	938.387	705.755
185.213	14.211	937.741	705.734
186.227	14.101	937.172	704.778
187.242	14.217	936.369	704.604
188.256	14.187	935.993	704.129
189.271	14.193	934.838	703.226
190.286	14.156	934.109	702.457
191.300	14.082	933.139	701.356
192.315	13.979	932.983	700.738
193.329	14.088	932.117	700.489
194.344	14.064	931.774	700.065
195.359	14.198	930.729	699.783
196.373	14.029	930.824	699.081
197.388	14.323	929.986	699.626
198.402	14.383	929.683	699.588
199.417	14.426	928.952	699.157
200.432	14.354	928.352	698.342
201.446	14.490	927.754	698.400
202.461	14.542	927.173	698.119
203.475	14.293	926.959	696.850
204.490	14.382	925.929	696.390
205.504	14.438	925.021	695.879
206.519	14.228	924.623	694.641
207.534	14.384	923.643	694.492
208.548	14.311	923.355	693.910
209.563	14.431	922.386	693.619
210.577	14.472	921.398	692.986
211.592	14.536	921.151	693.005
212.607	14.499	920.272	692.131
213.621	14.475	919.604	691.465
214.636	14.433	919.001	690.779
215.650	14.514	918.134	690.401
216.665	14.631	917.624	690.440
217.680	14.707	916.584	689.911
218.694	14.628	915.975	689.063
219.709	14.621	915.562	688.665
220.723	14.713	914.852	688.450
221.738	14.577	914.367	687.463
222.753	14.692	913.304	687.075
223.767	14.669	913.199	686.841
224.782	14.672	912.458	686.234
225.796	14.764	911.748	686.016
226.811	14.783	910.733	685.273
227.826	14.818	910.107	684.885
228.840	14.570	909.481	683.337
229.855	14.643	908.551	682.876
230.869	14.617	908.084	682.360
231.884	14.772	907.080	682.178
232.899	14.751	906.360	681.490
233.913	14.551	905.934	680.293
234.928	14.631	905.389	680.150
235.942	14.483	904.793	679.039
236.957	14.698	904.547	679.667
237.972	14.633	903.344	678.439
238.986	14.713	902.695	678.217
240.001	14.860	901.853	678.120
241.015	14.742	901.473	677.296
242.030	14.710	901.051	676.791
243.045	14.747	900.600	676.542
244.059	14.779	900.086	676.227
245.074	14.922	899.060	675.974
246.088	14.985	898.242	675.553
247.103	15.000	897.817	675.233
248.117	15.076	896.990	674.860
249.132	15.065	896.866	674.663
250.147	15.108	895.726	673.917
251.161	15.223	895.394	674.071
252.176	15.202	894.684	673.391
253.190	15.228	894.354	673.187
254.205	15.246	893.433	672.506
255.220	15.149	892.924	671.675
256.234	15.299	891.806	671.375
257.249	15.317	891.511	671.168
258.263	15.279	890.767	670.394
259.278	15.262	889.987	669.679
260.293	15.404	889.720	669.990
261.307	15.427	888.953	669.444
262.322	15.473	888.091	668.917
263.336	15.403	887.655	668.253
264.351	15.431	886.931	667.759
265.366	15.498	886.340	667.522
266.380	15.632	885.635	667.463
267.395	15.387	884.920	665.893
268.409	15.432	884.188	665.463
269.424	15.463	883.439	664.960
270.439	15.468	882.504	664.220
271.453	15.424	881.938	663.562
272.468	15.415	881.542	663.168
273.482	15.289	881.054	662.243
274.497	15.407	880.618	662.324
275.512	15.383	879.852	661.594
276.526	15.454	879.193	661.319
277.541	15.541	878.669	661.209
278.555	15.673	877.918	661.107
279.570	15.765	877.680	661.232
280.585	15.737	876.310	660.031
281.599	15.514	875.984	658.850
282.614	15.579	875.153	658.420
283.628	15.589	874.805	658.143
284.643	15.523	874.344	657.477
285.657	15.571	873.580	657.031
286.672	15.669	872.473	656.524
287.687	15.705	871.987	656.242
288.701	15.742	871.537	655.990
289.716	15.698	870.825	655.222
290.730	15.836	870.477	655.442
291.745	15.659	870.047	654.369
292.760	15.745	869.201	654.012
293.774	16.015	868.458	654.440
294.789	15.820	868.054	653.325
295.803	15.836	867.080	652.594
296.818	15.886	866.543	652.327
297.833	15.675	866.017	651.057
298.847	15.843	865.292	651.102
299.862	15.789	865.069	650.668
300.876	15.874	864.441	650.466
301.891	16.053	863.536	650.418
302.906	15.900	863.065	649.415
303.920	16.055	862.709	649.688
304.935	16.018	862.346	649.216
305.949	15.947	861.402	648.176
306.964	16.180	860.752	648.524
307.979	16.019	860.313	647.515
308.993	16.114	859.774	647.418
310.008	16.257	858.856	647.219
311.022	16.192	858.492	646.637
312.037	16.019	858.158	645.668
313.052	16.030	857.286	644.994
314.066	16.093	856.614	644.672
315.081	16.102	856.254	644.380
316.095	15.972	855.723	643.425
317.110	16.211	854.539	643.390
318.125	16.014	854.281	642.389
319.139	15.922	854.351	642.033
320.154	16.184	853.659	642.454
321.168	15.996	853.426	641.508
322.183	16.067	852.577	641.082
323.197	16.172	851.686	640.753
324.212	16.158	851.419	640.444
325.227	16.220	850.731	640.106
326.241	16.174	850.294	639.545
327.256	16.048	849.997	638.787
328.270	16.203	849.519	638.960
329.285	16.275	848.666	638.531
330.300	16.175	848.159	637.715
331.314	16.218	847.638	637.432
332.329	16.267	847.172	637.210
333.343	16.287	846.580	636.785
334.358	16.416	846.196	636.924
335.373	16.298	846.015	636.287
336.387	16.230	845.900	635.887
337.402	16.443	845.261	636.152
338.416	16.365	844.961	635.578
339.431	16.635	844.112	635.899
340.446	16.569	843.948	635.467
341.460	16.608	843.707	635.377
342.475	16.509	843.382	634.704
343.489	16.585	843.054	634.689
344.504	16.545	842.769	634.268
345.519	16.694	842.134	634.291
346.533	16.549	841.966	633.564
347.548	16.668	840.800	633.078
348.562	16.582	840.125	632.193
349.577	16.664	839.165	631.719
350.592	16.574	838.952	631.167
351.606	16.591	838.353	630.723
352.621	16.529	838.078	630.229
353.635	16.685	836.917	629.881
354.650	16.687	836.572	629.575
355.665	16.686	835.747	628.892
356.679	16.790	835.072	628.715
357.694	16.680	834.586	627.886
358.708	16.728	833.780	627.401
359.723	16.653	833.533	626.884
360.738	16.900	832.347	626.849
361.752	16.916	831.975	626.572
362.767	16.667	832.119	625.705
363.781	16.755	831.061	625.178
364.796	16.921	830.456	625.280
365.810	17.053	830.032	625.393
366.825	17.096	829.885	625.385
367.840	16.986	829.483	624.622
368.854	16.929	828.815	623.854
369.869	16.957	828.539	623.694
370.883	16.996	828.336	623.629
371.898	17.008	827.632	623.090
372.913	17.141	827.259	623.238
373.927	17.050	826.713	622.439
374.942	17.076	826.419	622.259
375.956	17.270	826.137	622.701
376.971	17.198	825.439	621.860
377.986	17.185	824.929	621.372
379.000	17.290	824.178	621.133
380.015	17.345	823.640	620.874
381.029	17.288	823.326	620.376
382.044	17.262	822.534	619.627
383.059	17.419	822.083	619.805
384.073	17.317	821.422	618.881
385.088	17.191	821.020	618.067
386.102	17.361	820.355	618.127
387.117	17.185	819.526	616.808
388.132	17.227	819.164	616.634
389.146	17.407	818.476	616.714
390.161	17.260	818.551	616.185
391.175	17.443	817.919	616.316
392.190	17.397	817.044	615.438
393.205	17.230	816.772	614.574
394.219	17.096	816.941	614.161
395.234	17.163	816.406	613.948
396.248	17.142	815.669	613.262
397.263	17.208	815.209	613.099
398.278	17.305	814.964	613.213
399.292	17.257	814.478	612.618
400.307	17.177	814.090	611.986
401.321	17.323	813.354	611.903
402.336	17.369	812.843	611.629
403.350	17.360	812.740	611.466
404.365	17.573	812.019	611.633
405.380	17.465	811.604	610.878
406.394	17.582	811.050	610.827
407.409	17.542	810.818	610.455
408.423	17.646	810.480	610.519
409.438	17.806	809.700	610.452
410.453	17.716	809.431	609.873
411.467	17.693	808.830	609.282
412.482	17.522	808.976	608.729
413.496	17.582	809.267	609.108
414.511	17.732	807.987	608.624
415.526	17.783	807.540	608.417
416.540	17.797	806.927	607.950
417.555	17.990	806.336	608.138
418.569	17.807	806.227	607.352
419.584	17.811	805.896	607.064
420.599	17.776	805.204	606.364
421.613	111.242	1294.957	1476.257
422.628	95.961	1366.257	1476.349
