DTS Sentinel unit serial number:	SN413079Multiplexer serial number:	ORYXHardware model number:	OX4-SRSoftware version number:	ORYX F/W v4.00 Oryx Data Collector v3.7.2.0data status	okinstallation	princeton_trtdifferential loss correction	single-endedforward channel	channel 1reverse channel	N/Adate	2019/09/15time	17:46:35forward acquisition time	60.00reverse acquisition time	0.00gamma	496.2192k internal	0.2291k external	0.2291temperature offset calibration	0.9928default loss term (dB/km)	0.3790temperature slope calibration	1.0000multiplexer offset coefficient	1.0000multiplexer slope coefficient	1.0000fibre end	0.00T internal ref (°C)	44.87T ext. ref 1 (°C)	6.31T ext. ref 2 (°C)	39.76length (m)	temperature (°C)	Stokes	anti-Stokes-747.200	271.058	-0.111	-0.199
-746.185	-200.000	-0.003	0.041
-745.171	37.966	0.081	-0.073
-744.156	-58.698	0.170	0.075
-743.142	-200.000	-0.044	0.277
-742.127	-26.434	0.141	0.084
-741.112	-200.000	0.004	-0.198
-740.098	-57.416	0.317	0.143
-739.083	-56.139	-0.115	0.052
-738.069	319.054	-0.243	0.472
-737.054	-200.000	-0.003	0.133
-736.039	215.741	0.080	-0.130
-735.025	134.811	0.100	0.133
-734.010	50.431	0.152	-0.147
-732.996	-177.449	0.134	0.003
-731.981	800.000	-0.099	0.315
-730.966	-200.000	-0.003	0.031
-729.952	-200.000	-0.019	-0.143
-728.937	337.378	0.127	-0.253
-727.923	14.487	0.146	-0.116
-726.908	-22.637	-0.307	0.190
-725.894	800.000	-0.070	0.220
-724.879	800.000	0.099	-0.280
-723.864	-200.000	-0.025	0.227
-722.850	-200.000	0.007	0.041
-721.835	-200.000	-0.032	-0.177
-720.821	-139.041	-0.142	-0.016
-719.806	-4.287	-0.108	0.076
-718.791	-122.547	-0.335	0.056
-717.777	-11.166	0.048	-0.032
-716.762	-111.005	0.246	0.052
-715.748	7.626	0.209	0.160
-714.733	90.541	-0.313	0.359
-713.718	-200.000	0.035	0.176
-712.704	16.823	-0.055	0.044
-711.689	48.145	-0.170	0.163
-710.675	25.231	-0.063	0.054
-709.660	606.704	-0.063	-0.161
-708.645	-193.582	-0.105	0.001
-707.631	424.396	-0.038	0.084
-706.616	25.464	-0.291	-0.247
-705.602	435.361	0.124	0.277
-704.587	15.247	-0.214	-0.171
-703.572	-92.963	0.431	-0.123
-702.558	163.096	0.132	0.190
-701.543	-141.958	0.044	-0.004
-700.529	12.889	-0.027	-0.021
-699.514	-98.332	0.049	-0.013
-698.499	309.844	-0.125	-0.240
-697.485	-122.745	0.098	-0.016
-696.470	-200.000	-0.018	-0.093
-695.456	100.296	0.141	-0.167
-694.441	668.077	-0.176	-0.465
-693.426	32.069	-0.248	0.219
-692.412	-126.303	-0.363	0.055
-691.397	246.847	0.104	-0.180
-690.383	-200.000	0.025	0.305
-689.368	-54.807	0.320	0.148
-688.354	99.943	0.057	-0.067
-687.339	-200.000	-0.005	0.332
-686.324	112.663	-0.169	-0.209
-685.310	-200.000	0.008	0.143
-684.295	800.000	-0.091	-0.355
-683.281	16.621	0.182	-0.147
-682.266	-66.992	0.142	-0.057
-681.251	305.555	0.093	-0.176
-680.237	154.176	0.136	-0.190
-679.222	-200.000	0.033	0.299
-678.208	-200.000	0.021	-0.313
-677.193	-200.000	-0.032	-0.201
-676.178	800.000	0.026	-0.092
-675.164	26.535	-0.121	0.104
-674.149	411.454	-0.215	-0.466
-673.135	-200.000	-0.056	-0.272
-672.120	-21.691	-0.356	0.222
-671.105	59.943	0.183	-0.184
-670.091	-137.573	0.292	-0.034
-669.076	-105.542	-0.167	-0.039
-668.062	-75.320	0.207	-0.075
-667.047	83.303	0.060	0.067
-666.032	-110.717	0.122	-0.026
-665.018	-200.000	-0.001	-0.190
-664.003	545.722	-0.078	0.189
-662.989	72.426	0.085	-0.090
-661.974	-200.000	0.012	-0.107
-660.959	-68.488	-0.277	0.110
-659.945	-81.901	-0.295	0.099
-658.930	-123.935	-0.201	-0.032
-657.916	-200.000	-0.004	-0.145
-656.901	800.000	0.114	-0.458
-655.886	-62.245	0.152	-0.065
-654.872	-32.757	0.136	-0.077
-653.857	-200.000	-0.016	-0.258
-652.843	-15.961	0.043	-0.028
-651.828	-87.097	-0.315	-0.098
-650.814	-200.000	0.022	0.268
-649.799	20.692	-0.206	0.170
-648.784	-130.774	0.123	0.017
-647.770	18.759	-0.147	-0.120
-646.755	-49.568	-0.174	0.084
-645.741	-200.000	-0.098	0.515
-644.726	772.496	-0.023	-0.064
-643.711	80.178	-0.135	0.148
-642.697	107.031	-0.124	0.150
-641.682	-169.585	-0.193	0.007
-640.668	235.437	0.104	-0.175
-639.653	140.841	-0.198	0.266
-638.638	-166.608	-0.232	0.010
-637.624	253.344	-0.158	0.276
-636.609	-200.000	-0.058	-0.314
-635.595	-200.000	-0.003	0.122
-634.580	-200.000	0.031	-0.331
-633.565	-67.581	0.077	0.031
-632.551	-178.055	0.347	0.008
-631.536	-92.450	-0.214	-0.061
-630.522	77.871	-0.055	0.059
-629.507	-80.362	-0.145	0.050
-628.492	-200.000	0.013	0.070
-627.478	190.777	0.129	0.197
-626.463	-52.658	-0.252	-0.118
-625.449	118.371	0.150	0.188
-624.434	800.000	-0.040	0.113
-623.419	-102.456	0.308	-0.075
-622.405	-83.226	-0.263	0.086
-621.390	144.428	0.143	-0.195
-620.376	156.488	-0.232	-0.327
-619.361	423.653	0.126	-0.275
-618.346	-82.787	-0.199	-0.065
-617.332	-200.000	0.005	0.066
-616.317	-78.508	-0.160	-0.056
-615.303	-24.964	0.377	0.228
-614.288	42.960	-0.104	-0.097
-613.273	-200.000	0.035	0.354
-612.259	-16.140	0.082	0.053
-611.244	135.915	-0.081	0.107
-610.230	22.101	0.174	-0.145
-609.215	-200.000	0.004	0.057
-608.201	40.907	-0.216	0.199
-607.186	-60.013	0.247	-0.107
-606.171	-141.389	0.289	-0.030
-605.157	-30.751	-0.221	0.127
-604.142	-82.472	-0.297	0.098
-603.128	208.316	-0.088	-0.141
-602.113	-166.773	-0.195	-0.008
-601.098	-72.445	0.140	-0.053
-600.084	59.042	0.251	0.252
-599.069	-200.000	-0.127	0.648
-598.055	-200.000	0.033	-0.294
-597.040	-200.000	-0.054	-0.349
-596.025	29.226	-0.237	0.205
-595.011	764.892	-0.080	0.220
-593.996	333.659	-0.011	0.022
-592.982	-32.484	0.140	-0.080
-591.967	29.076	0.219	0.189
-590.952	209.731	0.082	-0.130
-589.938	0.904	0.105	-0.077
-588.923	312.705	-0.085	-0.163
-587.909	-125.630	0.239	0.037
-586.894	199.505	0.070	0.110
-585.879	800.000	0.056	-0.218
-584.865	255.223	-0.127	-0.222
-583.850	55.202	-0.220	0.216
-582.836	-200.000	-0.017	-0.305
-581.821	-28.933	-0.283	-0.165
-580.806	800.000	0.020	0.087
-579.792	-103.533	-0.155	-0.037
-578.777	20.224	-0.350	0.287
-577.763	800.000	-0.137	-0.551
-576.748	-200.000	-0.024	-0.168
-575.733	351.441	-0.227	-0.458
-574.719	-200.000	0.027	0.201
-573.704	709.552	0.119	0.321
-572.690	-68.364	0.172	-0.068
-571.675	-200.000	0.044	0.277
-570.661	-24.344	0.484	-0.293
-569.646	-200.000	-0.030	-0.157
-568.631	-118.092	-0.222	0.040
-567.617	-109.593	0.303	-0.065
-566.602	-84.367	0.166	0.053
-565.588	140.478	-0.240	0.322
-564.573	82.429	0.171	0.188
-563.558	6.510	-0.047	-0.035
-562.544	93.646	0.146	0.168
-561.529	-64.482	0.136	0.056
-560.515	-200.000	0.004	-0.117
-559.500	173.101	-0.050	-0.074
-558.485	245.294	-0.137	-0.234
-557.471	28.588	0.045	0.039
-556.456	-107.043	-0.340	0.076
-555.442	-200.000	-0.059	0.293
-554.427	-148.641	-0.323	-0.027
-553.412	-46.638	-0.168	0.084
-552.398	-200.000	0.006	0.298
-551.383	-76.310	-0.112	-0.040
-550.369	80.645	0.103	-0.113
-549.354	-69.696	-0.224	-0.087
-548.339	-102.468	-0.400	0.097
-547.325	146.402	0.086	-0.117
-546.310	-51.022	-0.248	-0.118
-545.296	-26.639	-0.374	-0.223
-544.281	-109.017	0.206	-0.045
-543.266	-70.605	0.141	0.054
-542.252	30.255	-0.215	-0.186
-541.237	121.835	-0.419	-0.531
-540.223	18.171	0.118	-0.096
-539.208	517.994	0.041	-0.098
-538.193	-85.812	0.189	-0.059
-537.179	-81.347	-0.288	0.096
-536.164	-101.162	-0.154	0.038
-535.150	-58.959	0.283	0.124
-534.135	-103.857	0.396	0.094
-533.121	-172.464	-0.147	-0.005
-532.106	85.224	0.140	0.156
-531.091	-200.000	0.005	-0.033
-530.077	-200.000	-0.025	-0.252
-529.062	17.866	0.272	-0.220
-528.048	-123.737	-0.364	-0.058
-527.033	-100.427	-0.135	-0.034
-526.018	-78.835	-0.327	-0.113
-525.004	-200.000	-0.042	0.243
-523.989	-82.063	0.108	-0.036
-522.975	233.658	-0.101	-0.169
-521.960	-89.094	-0.082	-0.025
-520.945	-200.000	-0.009	-0.077
-519.931	-20.518	0.179	0.112
-518.916	90.436	-0.094	0.106
-517.902	53.714	0.036	-0.035
-516.887	-66.793	-0.087	-0.035
-515.872	221.958	-0.056	-0.091
-514.858	800.000	0.058	-0.185
-513.843	44.592	-0.114	-0.107
-512.829	800.000	-0.028	-0.079
-511.814	-59.329	-0.136	-0.060
-510.799	133.048	0.207	-0.271
-509.785	189.642	0.122	0.186
-508.770	-114.300	0.198	-0.039
-507.756	-90.550	0.402	-0.118
-506.741	275.431	-0.023	-0.042
-505.726	85.293	0.181	0.201
-504.712	-73.700	0.173	0.064
-503.697	-39.418	0.194	-0.103
-502.683	467.394	0.054	-0.122
-501.668	-200.000	0.007	-0.337
-500.653	-66.789	0.392	0.157
-499.639	-81.592	-0.421	-0.140
-498.624	378.555	-0.081	0.168
-497.610	-200.000	0.053	-0.292
-496.595	60.018	0.077	-0.077
-495.581	-50.951	-0.508	0.242
-494.566	72.686	-0.203	0.214
-493.551	39.015	0.199	-0.181
-492.537	-105.293	-0.506	0.117
-491.522	17.139	-0.139	-0.112
-490.508	786.029	0.148	-0.411
-489.493	7.407	-0.126	-0.095
-488.478	-200.000	0.040	-0.577
-487.464	637.235	0.056	0.143
-486.449	-32.829	-0.229	0.129
-485.435	-200.000	0.042	-0.327
-484.420	-200.000	-0.009	0.166
-483.405	800.000	-0.062	-0.184
-482.391	-200.000	0.009	0.093
-481.376	-134.914	0.316	-0.039
-480.362	-133.923	0.246	0.031
-479.347	-61.210	0.349	0.149
-478.332	64.257	-0.267	0.272
-477.318	-200.000	0.002	-0.187
-476.303	-200.000	0.011	0.135
-475.289	-34.347	0.266	0.148
-474.274	76.127	-0.046	-0.050
-473.259	800.000	-0.035	-0.144
-472.245	800.000	-0.075	-0.241
-471.230	164.007	0.166	-0.237
-470.216	-62.124	-0.360	0.152
-469.201	-6.935	0.135	0.093
-468.186	-5.750	0.224	-0.155
-467.172	17.305	-0.037	0.030
-466.157	-200.000	0.035	0.274
-465.143	800.000	0.064	-0.243
-464.128	800.000	-0.143	0.522
-463.113	-98.631	-0.199	-0.051
-462.099	674.997	0.120	0.315
-461.084	-50.822	0.101	-0.048
-460.070	-80.276	-0.188	0.064
-459.055	265.102	0.175	0.309
-458.040	-102.121	0.182	0.044
-457.026	800.000	-0.042	0.130
-456.011	267.127	-0.090	0.160
-454.997	-90.831	-0.110	-0.032
-453.982	-34.313	0.217	0.120
-452.968	-152.414	0.209	-0.015
-451.953	-200.000	0.009	-0.077
-450.938	-200.000	-0.084	-0.644
-449.924	800.000	-0.036	-0.103
-448.909	-32.742	0.110	0.062
-447.895	-7.043	0.263	-0.181
-446.880	-200.000	-0.014	-0.285
-445.865	34.136	-0.042	-0.037
-444.851	-116.856	-0.137	-0.025
-443.836	-95.843	-0.220	0.060
-442.822	-200.000	0.008	-0.186
-441.807	-86.483	-0.060	-0.019
-440.792	-31.492	-0.206	0.117
-439.778	800.000	-0.049	-0.210
-438.763	-168.417	-0.097	-0.004
-437.749	765.809	-0.112	0.309
-436.734	587.138	-0.042	0.106
-435.719	101.410	0.113	0.134
-434.705	800.000	0.058	-0.252
-433.690	-93.201	-0.248	-0.070
-432.676	800.000	0.011	-0.038
-431.661	7.031	0.121	-0.091
-430.646	353.708	-0.058	-0.116
-429.632	-80.926	0.104	-0.035
-428.617	150.155	0.067	-0.092
-427.603	112.772	-0.200	0.245
-426.588	-200.000	-0.041	0.227
-425.573	800.000	-0.048	0.181
-424.559	800.000	0.033	-0.114
-423.544	-26.334	-0.163	0.097
-422.530	-184.151	0.294	0.005
-421.515	-200.000	0.028	-0.488
-420.500	73.315	0.185	0.196
-419.486	800.000	-0.085	-0.254
-418.471	192.431	-0.124	0.189
-417.457	-115.688	-0.147	-0.028
-416.442	-171.344	0.084	0.003
-415.428	-200.000	0.011	0.139
-414.413	117.843	-0.118	-0.147
-413.398	-149.037	0.309	-0.025
-412.384	54.852	0.111	-0.108
-411.369	6.407	0.063	0.047
-410.355	106.767	0.114	0.137
-409.340	-26.659	0.088	-0.052
-408.325	9.794	-0.125	-0.096
-407.311	17.621	-0.074	-0.059
-406.296	800.000	0.138	-0.398
-405.282	14.348	0.113	-0.089
-404.267	30.446	0.115	-0.099
-403.252	-200.000	-0.048	0.296
-402.238	-14.490	-0.201	0.131
-401.223	296.498	0.045	-0.083
-400.209	-12.326	0.057	-0.037
-399.194	-79.938	0.422	-0.143
-398.179	-138.980	-0.241	0.026
-397.165	-77.624	-0.287	0.100
-396.150	133.036	-0.071	0.093
-395.136	-20.335	0.336	0.209
-394.121	21.119	0.124	-0.101
-393.106	-98.694	-0.140	0.036
-392.092	-118.466	-0.184	-0.033
-391.077	800.000	-0.027	0.084
-390.063	-136.313	0.180	0.021
-389.048	-83.609	0.030	-0.010
-388.033	241.784	0.154	0.259
-387.019	-110.784	-0.384	-0.080
-386.004	-67.537	0.111	0.044
-384.990	800.000	0.158	0.576
-383.975	-200.000	0.014	0.116
-382.960	10.538	-0.195	-0.150
-381.946	800.000	-0.058	-0.187
-380.931	-134.467	0.328	0.041
-379.917	800.000	0.080	-0.346
-378.902	92.275	-0.142	-0.162
-377.888	-200.000	-0.015	0.245
-376.873	800.000	-0.084	-0.281
-375.858	296.966	0.085	0.157
-374.844	-29.524	0.203	-0.117
-373.829	-185.991	0.202	-0.003
-372.815	-200.000	-0.033	0.375
-371.800	586.178	-0.069	0.172
-370.785	23.616	-0.281	0.234
-369.771	138.214	0.157	-0.208
-368.756	83.077	0.099	-0.109
-367.742	-200.000	-0.005	-0.067
-366.727	-43.689	0.304	0.155
-365.712	-100.591	0.150	0.037
-364.698	-200.000	0.050	-0.307
-363.683	-200.000	0.006	-0.121
-362.669	206.016	-0.095	-0.148
-361.654	800.000	0.034	0.097
-360.639	373.665	-0.112	-0.229
-359.625	-200.000	-0.009	0.089
-358.610	12.460	-0.242	-0.188
-357.596	-200.000	0.009	0.124
-356.581	113.926	-0.064	0.079
-355.566	-200.000	-0.068	-0.464
-354.552	-103.975	-0.301	0.071
-353.537	232.396	-0.091	0.151
-352.523	-126.314	-0.282	-0.042
-351.508	8.958	-0.277	0.211
-350.493	108.625	0.211	-0.254
-349.479	-200.000	0.056	0.342
-348.464	-200.000	-0.058	-0.319
-347.450	44.753	-0.168	-0.156
-346.435	261.162	0.073	-0.128
-345.420	24.023	0.099	0.083
-344.406	-2.255	0.077	0.055
-343.391	-177.674	0.417	0.010
-342.377	75.524	-0.145	0.155
-341.362	800.000	-0.037	-0.108
-340.348	13.009	0.255	-0.199
-339.333	126.190	0.123	0.157
-338.318	13.903	-0.131	-0.103
-337.304	163.376	0.094	-0.133
-336.289	472.838	-0.125	0.284
-335.275	800.000	0.036	0.141
-334.260	182.684	-0.077	0.114
-333.245	-200.000	0.076	0.418
-332.231	26.313	-0.206	-0.174
-331.216	-83.793	-0.209	-0.067
-330.202	800.000	-0.071	0.199
-329.187	-8.337	-0.349	-0.236
-328.172	25.188	0.120	0.101
-327.158	-111.095	0.085	0.017
-326.143	-99.315	0.067	0.017
-325.129	800.000	0.085	0.339
-324.114	-20.232	0.212	0.131
-323.099	-25.789	-0.145	-0.086
-322.085	-17.269	0.242	-0.154
-321.070	439.935	0.037	-0.082
-320.056	150.301	0.229	0.312
-319.041	-112.464	0.137	-0.028
-318.026	71.383	0.196	-0.204
-317.012	-200.000	0.016	-0.487
-315.997	-200.000	-0.035	0.273
-314.983	800.000	0.085	-0.360
-313.968	508.580	0.068	-0.160
-312.953	-17.469	-0.116	-0.073
-311.939	-97.343	0.115	-0.030
-310.924	-55.606	-0.257	0.116
-309.910	-200.000	0.015	0.095
-308.895	-200.000	-0.030	0.171
-307.880	58.197	-0.032	-0.032
-306.866	35.690	0.226	-0.200
-305.851	218.492	0.085	-0.137
-304.837	-156.610	-0.280	-0.017
-303.822	-200.000	-0.017	0.176
-302.807	-30.111	0.138	-0.079
-301.793	80.735	0.130	0.141
-300.778	586.301	0.074	0.183
-299.764	53.630	-0.050	-0.048
-298.749	800.000	0.076	0.240
-297.735	279.752	-0.100	-0.180
-296.720	-200.000	-0.001	0.199
-295.705	800.000	0.097	0.387
-294.691	-3.351	-0.222	-0.156
-293.676	49.451	0.074	0.070
-292.662	139.265	-0.148	0.196
-291.647	55.908	0.045	-0.044
-290.632	-52.068	0.245	-0.114
-289.618	800.000	0.044	0.140
-288.603	32.117	0.414	0.359
-287.589	-41.557	-0.012	-0.006
-286.574	621.269	-0.047	0.119
-285.559	6.132	0.194	0.144
-284.545	39.119	0.161	0.145
-283.530	267.602	-0.034	0.060
-282.516	72.963	0.181	0.190
-281.501	800.000	-0.060	0.169
-280.486	136.253	0.034	0.045
-279.472	-165.106	0.265	0.012
-278.457	5.474	0.192	0.142
-277.443	-200.000	-0.044	0.305
-276.428	90.981	0.065	0.073
-275.413	-22.703	-0.195	-0.119
-274.399	-45.634	0.070	-0.035
-273.384	-79.262	0.105	-0.036
-272.370	-3.351	-0.171	0.120
-271.355	89.886	0.228	0.256
-270.340	-24.384	0.144	0.086
-269.326	684.029	0.043	-0.112
-268.311	-20.455	-0.121	0.075
-267.297	75.955	0.074	-0.079
-266.282	-111.424	-0.559	0.115
-265.267	255.257	-0.105	-0.181
-264.253	-200.000	-0.041	-0.282
-263.238	163.748	0.153	0.217
-262.224	-200.000	-0.002	0.080
-261.209	-132.273	0.260	-0.034
-260.195	-147.889	0.308	0.026
-259.180	-200.000	-0.063	0.297
-258.165	-12.754	0.123	0.081
-257.151	180.542	0.225	0.332
-256.136	380.826	-0.037	0.076
-255.122	-32.872	-0.254	0.141
-254.107	-17.761	0.263	0.166
-253.092	-54.079	-0.119	-0.054
-252.078	-200.000	0.007	0.145
-251.063	780.927	-0.143	0.393
-250.049	423.886	0.129	-0.278
-249.034	-130.095	0.083	-0.011
-248.019	64.537	-0.291	0.295
-247.005	224.805	-0.211	-0.342
-245.990	263.332	-0.211	-0.369
-244.976	83.568	-0.114	-0.124
-243.961	664.462	-0.175	0.453
-242.946	425.178	0.119	-0.256
-241.932	-61.018	-0.113	-0.048
-240.917	-155.911	0.278	0.018
-239.903	6.775	-0.261	-0.195
-238.888	-55.600	0.183	-0.082
-237.873	800.000	-0.041	-0.147
-236.859	-200.000	-0.046	-0.369
-235.844	800.000	0.053	0.234
-234.830	-151.504	-0.300	-0.022
-233.815	-172.193	-0.364	0.012
-232.800	-162.892	-0.190	0.009
-231.786	-200.000	-0.005	0.393
-230.771	15.661	0.192	0.151
-229.757	90.175	0.149	0.167
-228.742	102.723	-0.165	0.194
-227.727	102.826	-0.128	0.150
-226.713	-59.703	0.152	-0.065
-225.698	-200.000	0.019	-0.138
-224.684	-19.305	0.311	0.193
-223.669	620.446	-0.075	-0.190
-222.655	739.388	-0.018	0.048
-221.640	-24.978	-0.084	0.050
-220.625	800.000	0.096	-0.272
-219.611	303.279	0.179	-0.333
-218.596	7.188	0.109	0.082
-217.582	266.024	0.047	-0.083
-216.567	-48.417	-0.286	-0.138
-215.552	179.822	0.079	-0.116
-214.538	-59.165	-0.227	-0.098
-213.523	30.530	-0.111	-0.095
-212.509	136.056	0.196	0.256
-211.494	157.395	-0.180	0.249
-210.479	-172.746	0.307	-0.010
-209.465	-7.918	-0.123	-0.083
-208.450	800.000	0.006	-0.019
-207.436	140.793	-0.165	0.218
-206.421	800.000	-0.035	-0.104
-205.406	-200.000	-0.001	0.316
-204.392	94.909	0.235	-0.268
-203.377	-81.949	0.172	-0.056
-202.363	-11.700	-0.146	-0.096
-201.348	51.411	-0.173	-0.165
-200.333	-5.370	0.159	0.109
-199.319	-200.000	0.018	0.184
-198.304	-43.170	0.165	0.084
-197.290	800.000	0.047	-0.182
-196.275	-82.944	-0.137	0.044
-195.260	-58.365	0.124	0.054
-194.246	-14.236	0.269	0.174
-193.231	146.746	0.153	-0.206
-192.217	198.726	-0.120	-0.185
-191.202	-8.187	-0.265	-0.179
-190.187	636.284	-0.137	-0.349
-189.173	800.000	-0.021	0.090
-188.158	13.922	0.173	0.135
-187.144	-136.389	0.400	0.047
-186.129	129.458	-0.141	-0.180
-185.114	-200.000	-0.009	-0.320
-184.100	-156.096	0.478	-0.030
-183.085	16.564	0.123	-0.097
-182.071	-161.740	0.071	-0.004
-181.056	-34.569	-0.142	0.078
-180.042	-173.241	-0.203	-0.006
-179.027	800.000	0.063	-0.182
-178.012	258.663	0.218	0.376
-176.998	101.547	-0.097	0.113
-175.983	-200.000	-0.014	0.104
-174.969	-99.447	-0.330	0.083
-173.954	-157.614	0.266	0.016
-172.939	-200.000	-0.018	-0.321
-171.925	-106.011	-0.281	0.063
-170.910	-104.499	0.090	0.021
-169.896	-200.000	0.042	0.473
-168.881	-54.101	-0.175	0.080
-167.866	-16.719	0.182	-0.115
-166.852	-111.456	-0.222	-0.045
-165.837	84.912	0.089	-0.098
-164.823	238.558	-0.033	-0.055
-163.808	12.514	0.034	0.026
-162.793	-200.000	-0.002	0.135
-161.779	-200.000	0.029	-0.128
-160.764	-136.690	0.102	0.012
-159.750	20.881	-0.019	0.015
-158.735	-98.285	0.076	0.020
-157.720	44.948	0.175	-0.161
-156.706	-21.418	0.131	-0.080
-155.691	775.562	-0.081	-0.222
-154.677	786.203	0.080	-0.220
-153.662	-0.873	0.142	-0.101
-152.647	-111.263	-0.072	-0.015
-151.633	162.553	0.133	0.186
-150.618	-200.000	0.072	0.559
-149.604	125.128	0.067	-0.085
-148.589	-75.282	0.131	0.047
-147.574	800.000	0.128	-0.362
-146.560	122.586	-0.169	-0.212
-145.545	-162.215	0.183	0.009
-144.531	-109.050	-0.105	-0.022
-143.516	800.000	0.109	-0.350
-142.502	-33.965	0.180	-0.099
-141.487	139.841	-0.174	0.230
-140.472	364.328	0.079	-0.158
-139.458	-110.532	0.171	0.035
-138.443	-200.000	0.062	-0.311
-137.429	-200.000	0.007	0.053
-136.414	800.000	0.056	0.177
-135.399	789.679	-0.092	-0.253
-134.385	-200.000	-0.033	-0.159
-133.370	-200.000	0.018	0.213
-132.356	800.000	-0.108	-0.342
-131.341	164.996	-0.120	0.169
-130.326	92.808	-0.077	-0.087
-129.312	102.955	0.203	-0.237
-128.297	-102.668	-0.465	-0.111
-127.283	-200.000	-0.019	-0.291
-126.268	-200.000	-0.012	-0.139
-125.253	101.033	-0.065	-0.076
-124.239	38.235	-0.247	0.220
-123.224	-99.601	-0.210	-0.053
-122.210	244.421	0.194	0.325
-121.195	-11.183	-0.268	-0.177
-120.180	-147.485	0.107	-0.009
-119.166	-111.400	-0.074	0.015
-118.151	-31.199	-0.140	0.079
-117.137	12.364	-0.115	-0.089
-116.122	137.703	0.287	-0.376
-115.107	-39.495	-0.293	-0.153
-114.093	111.867	0.080	0.096
-113.078	-67.865	0.207	-0.081
-112.064	3.886	-0.157	-0.115
-111.049	-139.251	0.123	-0.013
-110.034	604.505	0.035	-0.087
-109.020	-122.419	0.032	0.005
-108.005	558.950	0.102	0.245
-106.991	800.000	-0.095	-0.327
-105.976	69.928	0.109	0.112
-104.962	76.229	-0.199	0.210
-103.947	55.177	0.181	0.175
-102.932	-200.000	0.037	-0.167
-101.918	245.240	-0.207	-0.348
-100.903	-149.201	0.445	0.036
-99.889	-148.419	-0.229	-0.019
-98.874	166.949	0.080	-0.114
-97.859	195.632	0.114	0.173
-96.845	-200.000	-0.015	0.000
-95.830	-47.105	0.271	-0.132
-94.816	800.000	0.027	0.092
-93.801	-176.146	-0.109	-0.003
-92.786	29.356	0.175	-0.148
-91.772	174.723	-0.146	0.211
-90.757	-138.380	0.293	0.032
-89.743	800.000	-0.058	-0.226
-88.728	-200.000	0.030	-0.239
-87.713	-9.516	0.382	0.254
-86.699	-46.045	-0.213	0.105
-85.684	800.000	-0.030	-0.092
-84.670	152.618	-0.127	-0.173
-83.655	83.297	-0.041	0.045
-82.640	249.071	-0.100	0.169
-81.626	264.944	-0.097	-0.169
-80.611	-200.000	-0.002	-0.082
-79.597	-79.928	0.088	-0.030
-78.582	-3.631	-0.291	-0.202
-77.567	48.966	-0.194	0.182
-76.553	216.239	-0.169	0.268
-75.538	145.660	-0.197	0.263
-74.524	-73.489	-0.319	0.116
-73.509	-174.219	-0.024	0.001
-72.494	-78.931	0.152	-0.052
-71.480	-17.312	0.317	0.199
-70.465	-124.772	0.296	-0.046
-69.451	519.747	-0.028	-0.066
-68.436	-200.000	-0.040	-0.217
-67.422	186.238	-0.088	-0.131
-66.407	206.387	-0.186	-0.289
-65.392	77.055	0.041	0.043
-64.378	180.061	0.115	0.168
-63.363	-200.000	-0.019	-0.121
-62.349	39.254	0.249	-0.222
-61.334	60.852	-0.560	-0.553
-60.319	-98.350	0.452	0.116
-59.305	-200.000	0.123	-0.921
-58.290	-200.000	0.108	0.747
-57.276	800.000	0.472	1.543
-56.261	-200.000	69.915	524.846
-55.246	586.225	1252.228	3070.016
-54.232	136.537	2505.061	3258.397
-53.217	120.288	2243.388	2775.540
-52.203	58.450	1689.852	1652.453
-51.188	49.125	1404.722	1315.373
-50.173	45.181	1355.568	1245.308
-49.159	62.215	1386.608	1378.727
-48.144	71.587	1406.062	1455.393
-47.130	49.282	1370.246	1283.845
-46.115	45.113	1353.330	1242.640
-45.100	44.868	1349.039	1237.167
-44.086	44.770	1346.641	1234.320
-43.071	44.663	1344.472	1231.640
-42.057	44.651	1342.354	1229.579
-41.042	44.709	1340.384	1228.072
-40.027	44.774	1339.117	1227.257
-39.013	44.741	1337.125	1225.183
-37.998	44.760	1335.322	1223.595
-36.984	44.832	1333.496	1222.307
-35.969	44.965	1331.471	1221.200
-34.954	44.989	1329.976	1219.924
-33.940	45.033	1328.347	1218.640
-32.925	45.015	1326.797	1217.062
-31.911	44.914	1325.878	1215.572
-30.896	44.833	1324.435	1213.716
-29.881	44.959	1322.301	1212.465
-28.867	44.984	1320.706	1211.101
-27.852	44.954	1319.614	1209.875
-26.838	45.009	1317.686	1208.384
-25.823	45.070	1316.561	1207.665
-24.809	44.938	1314.930	1205.338
-23.794	44.983	1313.676	1204.408
-22.779	44.828	1312.691	1202.542
-21.765	44.933	1311.540	1202.063
-20.750	44.937	1309.934	1200.564
-19.736	44.842	1308.458	1198.605
-18.721	44.864	1306.964	1197.319
-17.706	44.820	1305.889	1196.028
-16.692	44.786	1304.834	1194.812
-15.677	44.791	1303.907	1193.948
-14.663	44.771	1302.856	1192.822
-13.648	44.885	1301.416	1192.121
-12.633	44.805	1300.590	1190.852
-11.619	44.848	1299.945	1190.464
-10.604	44.870	1298.919	1189.607
-9.590	44.880	1297.819	1188.609
-8.575	44.763	1297.167	1187.286
-7.560	44.883	1295.697	1186.588
-6.546	44.724	1295.363	1185.309
-5.531	44.801	1294.228	1184.673
-4.517	44.798	1293.385	1183.835
-3.502	44.833	1292.658	1183.329
-2.487	44.795	1291.875	1182.340
-1.473	44.900	1287.796	1179.171
-0.458	43.840	1272.863	1159.383
0.556	37.118	1250.589	1110.768
1.571	31.792	1250.443	1079.944
2.586	29.463	1263.326	1077.399
3.600	27.680	1253.131	1058.273
4.615	21.691	1178.886	962.683
5.629	11.762	1098.042	845.511
6.644	6.746	1073.475	801.123
7.659	6.304	1070.293	796.439
8.673	6.181	1068.800	794.639
9.688	6.012	1067.478	792.730
10.702	6.415	1067.082	794.402
11.717	11.959	1075.162	828.452
12.731	18.977	1084.323	871.110
13.746	19.503	1083.858	873.322
14.761	17.429	1080.372	859.964
15.775	16.189	1078.148	851.858
16.790	15.117	1075.796	844.523
17.804	14.353	1074.316	839.436
18.819	13.976	1072.973	836.419
19.834	13.612	1072.048	833.792
20.848	13.352	1071.183	831.735
21.863	13.191	1069.615	829.636
22.877	13.091	1069.285	828.808
23.892	12.980	1068.973	827.934
24.907	12.954	1068.065	827.029
25.921	12.938	1067.410	826.366
26.936	13.131	1065.706	825.940
27.950	13.098	1064.708	824.929
28.965	13.212	1062.586	823.778
29.980	13.191	1061.549	822.800
30.994	13.444	1059.620	822.485
32.009	13.386	1058.686	821.404
33.023	13.333	1057.800	820.380
34.038	13.235	1056.591	818.884
35.053	13.127	1055.562	817.481
36.067	13.132	1055.126	817.093
37.082	13.138	1054.154	816.297
38.096	13.228	1052.898	815.699
39.111	13.195	1052.648	815.268
40.126	13.110	1051.496	813.883
41.140	13.013	1049.971	812.155
42.155	13.049	1048.415	811.057
43.169	12.995	1047.627	810.110
44.184	12.915	1046.718	808.942
45.199	12.919	1045.673	808.085
46.213	13.010	1044.687	807.697
47.228	13.049	1043.263	806.715
48.242	13.202	1042.173	806.547
49.257	13.180	1041.650	805.963
50.271	13.200	1040.427	805.045
51.286	13.149	1039.659	804.131
52.301	13.048	1039.004	803.062
53.315	13.102	1037.740	802.273
54.330	13.118	1036.322	801.188
55.344	13.014	1035.986	800.350
56.359	12.944	1034.822	799.043
57.374	13.050	1033.844	798.727
58.388	13.004	1032.980	797.769
59.403	12.940	1032.360	796.910
60.417	12.887	1031.627	796.016
61.432	13.023	1030.375	795.637
62.447	12.972	1029.580	794.707
63.461	12.832	1028.880	793.421
64.476	12.789	1027.730	792.259
65.490	12.962	1027.068	792.510
66.505	12.981	1026.427	792.037
67.520	12.934	1025.611	791.110
68.534	12.879	1024.802	790.153
69.549	12.933	1024.028	789.743
70.563	12.875	1023.266	788.810
71.578	12.769	1022.669	787.774
72.593	12.751	1021.925	787.046
73.607	12.673	1021.588	786.344
74.622	12.720	1020.665	785.786
75.636	12.864	1019.851	785.777
76.651	12.815	1019.251	785.011
77.666	12.823	1018.591	784.472
78.680	12.791	1018.293	784.020
79.695	12.817	1017.497	783.460
80.709	13.069	1016.643	783.934
81.724	13.011	1015.848	782.972
82.739	12.967	1015.428	782.374
83.753	13.178	1014.313	782.442
84.768	13.283	1012.972	781.838
85.782	13.234	1012.536	781.200
86.797	13.181	1011.843	780.343
87.812	13.149	1010.314	778.946
88.826	13.108	1009.582	778.119
89.841	13.077	1009.204	777.614
90.855	13.200	1008.122	777.291
91.870	13.306	1007.063	776.902
92.884	13.231	1006.103	775.739
93.899	13.244	1005.784	775.488
94.914	13.296	1005.145	775.170
95.928	13.352	1004.143	774.592
96.943	13.326	1002.956	773.484
97.957	13.224	1002.179	772.341
98.972	13.267	1001.352	771.835
99.987	13.244	1000.196	770.771
101.001	13.247	999.702	770.336
102.016	13.192	998.712	769.247
103.030	13.271	998.079	769.059
104.045	13.306	997.149	768.439
105.060	13.276	996.156	767.464
106.074	12.944	995.569	765.402
107.089	13.054	994.075	764.696
108.103	13.130	992.926	764.097
109.118	12.978	992.292	762.838
110.133	12.993	991.378	762.140
111.147	12.931	990.330	760.978
112.162	13.048	989.940	761.151
113.176	13.082	989.272	760.726
114.191	13.174	988.397	760.410
115.206	13.223	987.597	759.952
116.220	13.077	986.685	758.513
117.235	13.038	985.808	757.591
118.249	12.979	985.218	756.804
119.264	13.049	984.058	756.165
120.279	13.043	983.132	755.360
121.293	12.939	982.711	754.494
122.308	12.923	981.675	753.558
123.322	12.952	980.459	752.689
124.337	13.030	979.576	752.301
125.352	13.024	978.770	751.587
126.366	13.025	977.311	750.405
127.381	12.931	976.952	749.635
128.395	13.057	975.496	749.027
129.410	13.100	974.882	748.681
130.424	13.036	974.383	747.941
131.439	13.105	973.509	747.516
132.454	13.188	972.883	747.347
133.468	13.208	971.755	746.505
134.483	13.259	970.955	746.055
135.497	13.255	969.985	745.225
136.512	13.294	969.186	744.719
137.527	13.291	968.401	744.039
138.541	13.237	967.995	743.419
139.556	13.223	966.879	742.432
140.570	13.421	966.162	742.703
141.585	13.401	965.700	742.193
142.600	13.436	964.584	741.426
143.614	13.621	963.293	741.197
144.629	13.506	962.825	740.255
145.643	13.359	961.848	738.784
146.658	13.360	960.557	737.732
147.673	13.447	959.839	737.503
148.687	13.323	959.012	736.250
149.702	13.251	957.845	734.969
150.716	13.230	957.396	734.466
151.731	13.269	956.800	734.116
152.746	13.312	955.708	733.406
153.760	13.322	955.200	732.995
154.775	13.229	955.027	732.385
155.789	13.469	953.854	732.483
156.804	13.416	952.922	731.465
157.819	13.469	952.709	731.473
158.833	13.416	952.203	730.786
159.848	13.602	950.899	730.541
160.862	13.526	950.079	729.512
161.877	13.266	949.069	727.526
162.892	13.365	947.949	727.039
163.906	13.366	947.061	726.299
164.921	13.298	946.509	725.512
165.935	13.257	945.702	724.648
166.950	13.268	945.028	724.115
167.964	13.320	944.421	723.818
168.979	13.343	943.022	722.779
169.994	13.339	942.207	722.073
171.008	13.382	941.584	721.722
172.023	13.565	940.592	721.695
173.037	13.590	939.863	721.181
174.052	13.556	939.267	720.510
175.067	13.407	938.980	719.580
176.081	13.401	938.148	718.851
177.096	13.342	937.569	718.089
178.110	13.321	937.122	717.591
179.125	13.457	936.291	717.480
180.140	13.530	935.786	717.345
181.154	13.565	935.448	717.173
182.169	13.662	934.849	717.071
183.183	13.586	934.436	716.361
184.198	13.584	933.969	715.934
185.213	13.614	932.735	715.053
186.227	13.672	932.088	714.745
187.242	13.700	931.530	714.373
188.256	13.675	930.946	713.753
189.271	13.806	930.120	713.621
190.286	13.501	929.737	711.953
191.300	13.366	928.583	710.425
192.315	13.469	928.209	710.522
193.329	13.455	927.488	709.843
194.344	13.541	926.833	709.649
195.359	13.587	926.171	709.276
196.373	13.566	925.868	708.894
197.388	13.710	925.502	709.165
198.402	13.873	924.610	709.115
199.417	13.796	924.013	708.267
200.432	13.857	923.627	708.168
201.446	13.958	923.040	708.087
202.461	14.099	922.561	708.257
203.475	13.907	922.031	706.970
204.490	13.931	921.259	706.417
205.504	13.800	921.001	705.598
206.519	13.805	919.932	704.738
207.534	13.878	919.252	704.465
208.548	13.818	918.230	703.367
209.563	13.990	917.551	703.512
210.577	13.943	917.173	702.960
211.592	13.910	916.381	702.153
212.607	14.227	915.288	702.590
213.621	14.135	914.389	701.452
214.636	13.964	914.143	700.477
215.650	13.992	913.600	700.119
216.665	14.205	912.769	700.318
217.680	14.270	912.063	699.985
218.694	14.221	911.308	699.140
219.709	14.117	910.978	698.386
220.723	14.063	910.489	697.725
221.738	14.126	909.566	697.221
222.753	14.098	908.905	696.535
223.767	14.206	908.158	696.353
224.782	14.241	907.968	696.292
225.796	14.301	907.264	695.941
226.811	14.315	906.706	695.510
227.826	14.195	905.807	694.257
228.840	14.253	905.017	693.833
229.855	14.333	903.847	693.207
230.869	14.248	903.486	692.514
231.884	14.185	903.014	691.830
232.899	14.222	902.313	691.383
233.913	14.207	901.463	690.611
234.928	14.113	900.742	689.608
235.942	14.129	900.376	689.332
236.957	14.251	899.326	688.970
237.972	14.230	899.227	688.747
238.986	14.138	898.653	687.869
240.001	14.271	897.661	687.595
241.015	14.228	897.336	687.111
242.030	14.421	896.308	687.056
243.045	14.417	896.127	686.843
244.059	14.306	895.469	685.819
245.074	14.364	894.945	685.596
246.088	14.397	894.151	685.064
247.103	14.488	893.532	684.903
248.117	14.479	893.414	684.711
249.132	14.620	892.625	684.627
250.147	14.587	892.156	684.070
251.161	14.770	891.368	684.157
252.176	14.638	890.794	683.114
253.190	14.775	890.003	683.008
254.205	14.856	889.262	682.710
255.220	14.817	888.800	682.135
256.234	14.947	888.323	682.239
257.249	14.851	887.583	681.218
258.263	14.850	886.695	680.473
259.278	14.868	886.342	680.217
260.293	14.893	885.872	679.897
261.307	15.023	884.811	679.550
262.322	15.020	884.363	679.132
263.336	14.957	883.559	678.201
264.351	15.074	882.723	677.972
265.366	15.227	882.113	678.064
266.380	15.023	881.917	677.029
267.395	14.992	880.979	676.124
268.409	15.173	879.862	675.936
269.424	15.010	879.554	674.982
270.439	14.994	878.918	674.368
271.453	14.893	878.044	673.232
272.468	15.074	877.872	673.768
273.482	15.124	877.152	673.357
274.497	14.994	876.636	672.379
275.512	14.919	876.192	671.677
276.526	14.929	875.475	671.111
277.541	14.945	874.893	670.669
278.555	15.130	874.529	671.072
279.570	15.226	873.816	670.847
280.585	15.251	872.974	670.243
281.599	15.267	872.085	669.565
282.614	15.220	871.249	668.676
283.628	15.188	871.058	668.344
284.643	15.233	870.001	667.651
285.657	15.154	869.919	667.215
286.672	15.134	869.113	666.457
287.687	15.205	868.384	666.125
288.701	15.256	868.004	665.976
289.716	15.288	867.415	665.591
290.730	15.337	866.761	665.225
291.745	15.207	866.351	664.336
292.760	15.342	865.876	664.450
293.774	15.347	864.887	663.652
294.789	15.484	864.115	663.539
295.803	15.433	863.394	662.728
296.818	15.285	862.807	661.632
297.833	15.254	862.333	661.089
298.847	15.246	861.826	660.609
299.862	15.388	861.181	660.618
300.876	15.514	860.581	660.594
301.891	15.548	859.951	660.186
302.906	15.418	859.387	659.182
303.920	15.750	859.031	660.154
304.935	15.630	859.015	659.616
305.949	15.674	857.912	658.879
306.964	15.552	857.176	657.779
307.979	15.599	856.526	657.406
308.993	15.612	855.983	656.982
310.008	15.683	855.312	656.685
311.022	15.652	854.692	656.030
312.037	15.654	854.269	655.658
313.052	15.542	853.556	654.616
314.066	15.565	853.043	654.252
315.081	15.524	852.748	653.808
316.095	15.501	852.167	653.216
317.110	15.332	851.881	652.282
318.125	15.597	850.996	652.575
319.139	15.566	850.457	651.984
320.154	15.572	850.124	651.694
321.168	15.721	849.223	651.525
322.183	15.624	848.723	650.706
323.197	15.678	848.533	650.713
324.212	15.618	847.850	649.901
325.227	15.697	847.463	649.851
326.241	15.656	846.988	649.269
327.256	15.639	846.469	648.751
328.270	15.568	845.910	647.990
329.285	15.636	844.949	647.459
330.300	15.749	844.544	647.524
331.314	15.715	843.684	646.679
332.329	15.842	843.400	646.890
333.343	15.910	842.691	646.554
334.358	15.869	842.584	646.255
335.373	15.848	842.246	645.859
336.387	15.833	841.936	645.506
337.402	15.890	841.894	645.635
338.416	15.903	841.378	645.230
339.431	15.998	840.925	645.191
340.446	15.930	840.648	644.663
341.460	16.033	840.134	644.603
342.475	16.162	839.656	644.674
343.489	16.134	839.041	644.039
344.504	16.133	838.748	643.753
345.519	16.163	838.416	643.554
346.533	16.216	837.471	642.973
347.548	16.156	837.055	642.367
348.562	16.043	836.810	641.694
349.577	16.060	835.930	641.027
350.592	16.051	835.239	640.405
351.606	15.971	834.759	639.679
352.621	16.018	833.984	639.205
353.635	16.100	833.399	639.011
354.650	16.096	832.772	638.459
355.665	16.178	832.003	638.122
356.679	16.169	831.513	637.659
357.694	16.336	830.866	637.734
358.708	16.193	830.491	636.851
359.723	16.347	829.913	636.934
360.738	16.326	829.666	636.608
361.752	16.259	828.986	635.776
362.767	16.381	828.121	635.514
363.781	16.568	827.325	635.554
364.796	16.519	827.234	635.243
365.810	16.527	826.729	634.826
366.825	16.509	826.782	634.743
367.840	16.475	826.252	634.152
368.854	16.432	825.674	633.491
369.869	16.543	825.185	633.477
370.883	16.692	823.998	633.069
371.898	16.584	824.612	633.080
372.913	16.432	824.225	632.158
373.927	16.533	823.719	632.089
374.942	16.567	822.826	631.477
375.956	16.671	822.389	631.472
376.971	16.779	821.947	631.482
377.986	16.826	821.591	631.325
379.000	16.914	821.210	631.305
380.015	16.820	820.600	630.431
381.029	16.807	820.204	630.023
382.044	16.783	819.779	629.553
383.059	16.829	819.147	629.181
384.073	16.689	818.462	628.080
385.088	16.770	817.744	627.775
386.102	16.655	817.118	626.812
387.117	16.698	816.858	626.714
388.132	16.801	816.005	626.385
389.146	16.740	815.638	625.826
390.161	16.913	814.953	625.883
391.175	16.799	814.729	625.231
392.190	16.915	813.954	625.011
393.205	16.692	813.708	623.945
394.219	16.773	813.499	624.026
395.234	16.879	812.585	623.661
396.248	16.777	812.341	623.045
397.263	16.704	811.768	622.280
398.278	16.694	811.906	622.294
399.292	16.692	811.365	621.819
400.307	16.675	810.647	621.152
401.321	16.746	810.364	621.141
402.336	16.779	810.061	620.973
403.350	16.972	809.298	621.038
404.365	16.798	809.416	620.439
405.380	17.157	808.191	620.759
406.394	17.165	807.744	620.386
407.409	17.093	807.413	619.816
408.423	17.262	807.066	620.112
409.438	17.194	806.919	619.695
410.453	17.063	807.002	619.228
411.467	17.183	806.415	619.157
412.482	17.157	805.949	618.652
413.496	17.306	805.419	618.730
414.511	17.309	805.026	618.386
415.526	17.389	804.372	618.119
416.540	17.396	803.859	617.696
417.555	17.461	803.321	617.465
418.569	17.284	802.865	616.416
419.584	17.378	802.781	616.638
420.599	17.390	802.140	616.134
421.613	68.205	1222.015	1210.266
422.628	57.148	1283.219	1210.414
