DTS Sentinel unit serial number:	SN413079Multiplexer serial number:	ORYXHardware model number:	OX4-SRSoftware version number:	ORYX F/W v4.00 Oryx Data Collector v3.7.2.0data status	okinstallation	princeton_trtdifferential loss correction	single-endedforward channel	channel 1reverse channel	N/Adate	2019/09/15time	22:10:35forward acquisition time	60.00reverse acquisition time	0.00gamma	496.2192k internal	0.2329k external	0.2329temperature offset calibration	0.9971default loss term (dB/km)	0.3790temperature slope calibration	1.0000multiplexer offset coefficient	1.0000multiplexer slope coefficient	1.0000fibre end	0.00T internal ref (°C)	29.56T ext. ref 1 (°C)	8.60T ext. ref 2 (°C)	22.93length (m)	temperature (°C)	Stokes	anti-Stokes-747.200	535.221	0.086	0.206
-746.185	138.594	-0.196	0.259
-745.171	-165.607	-0.267	0.012
-744.156	-200.000	0.017	0.345
-743.142	-200.000	0.046	0.259
-742.127	-94.103	-0.323	0.089
-741.112	485.848	-0.140	0.321
-740.098	658.242	0.080	0.208
-739.083	-174.262	0.110	0.003
-738.069	526.148	-0.055	-0.131
-737.054	62.447	0.050	0.050
-736.039	-159.008	-0.158	0.009
-735.025	160.366	-0.166	0.233
-734.010	69.587	0.081	-0.084
-732.996	-137.401	-0.206	-0.024
-731.981	-44.563	0.147	-0.074
-730.966	37.963	-0.195	0.174
-729.952	800.000	-0.147	0.435
-728.937	63.544	0.257	-0.260
-727.923	-23.213	-0.262	0.159
-726.908	-200.000	0.008	-0.229
-725.894	-100.186	-0.396	0.099
-724.879	-43.896	-0.018	-0.009
-723.864	-87.148	-0.293	0.090
-722.850	-30.098	-0.268	-0.153
-721.835	-36.172	-0.141	-0.077
-720.821	-200.000	-0.063	0.298
-719.806	-30.023	-0.056	-0.032
-718.791	-0.503	-0.155	-0.111
-717.777	156.675	-0.025	0.034
-716.762	488.187	-0.041	-0.095
-715.748	-200.000	0.012	-0.419
-714.733	92.975	-0.150	-0.171
-713.718	-200.000	0.003	-0.074
-712.704	313.937	-0.119	0.226
-711.689	459.323	0.050	-0.112
-710.675	9.854	-0.228	-0.174
-709.660	800.000	0.083	-0.248
-708.645	88.129	0.214	0.239
-707.631	-200.000	0.087	0.460
-706.616	800.000	-0.044	0.170
-705.602	800.000	0.044	0.135
-704.587	3.040	-0.262	0.192
-703.572	-119.343	-0.332	0.058
-702.558	-136.366	0.094	-0.011
-701.543	-91.641	0.210	-0.060
-700.529	800.000	-0.028	-0.104
-699.514	51.372	0.065	-0.062
-698.499	747.810	-0.060	-0.161
-697.485	-128.786	-0.298	-0.042
-696.470	602.490	0.051	-0.129
-695.456	110.413	0.163	0.197
-694.441	-30.397	-0.086	-0.049
-693.426	-200.000	0.039	0.205
-692.412	-41.750	0.100	0.052
-691.397	159.208	-0.059	0.082
-690.383	-0.656	-0.311	0.222
-689.368	-126.686	0.029	-0.004
-688.354	-19.137	-0.190	0.119
-687.339	172.853	0.086	0.124
-686.324	644.074	0.105	0.270
-685.310	18.063	-0.123	0.098
-684.295	-105.802	-0.158	0.036
-683.281	-44.239	0.454	-0.229
-682.266	-92.707	-0.127	0.036
-681.251	-131.772	0.190	0.025
-680.237	54.380	0.143	-0.138
-679.222	-6.685	0.295	0.202
-678.208	76.099	-0.222	0.236
-677.193	-164.954	-0.216	-0.010
-676.178	-83.409	-0.296	-0.095
-675.164	-89.353	-0.089	-0.026
-674.149	-139.549	-0.272	0.029
-673.135	295.001	-0.070	0.128
-672.120	-40.689	0.233	0.121
-671.105	185.679	0.027	0.041
-670.091	-200.000	-0.025	-0.328
-669.076	800.000	-0.056	-0.185
-668.062	302.346	-0.162	-0.301
-667.047	-149.721	0.248	0.020
-666.032	577.654	0.091	-0.223
-665.018	800.000	0.024	0.092
-664.003	53.451	-0.311	-0.300
-662.989	-48.471	0.309	-0.149
-661.974	0.220	-0.272	0.195
-660.959	800.000	-0.063	-0.196
-659.945	-200.000	0.065	-0.485
-658.930	-200.000	0.006	0.264
-657.916	725.071	-0.006	0.015
-656.901	-200.000	-0.007	0.223
-655.886	-98.936	-0.154	0.039
-654.872	-43.103	-0.164	-0.083
-653.857	800.000	0.076	0.277
-652.843	14.697	0.012	0.009
-651.828	-106.851	-0.013	-0.003
-650.814	82.028	0.160	-0.174
-649.799	48.785	-0.197	0.185
-648.784	34.497	-0.251	0.220
-647.770	441.172	-0.120	-0.264
-646.755	-200.000	-0.031	0.217
-645.741	72.152	-0.270	-0.282
-644.726	-28.116	-0.209	-0.121
-643.711	243.113	0.123	-0.207
-642.697	-200.000	0.026	-0.119
-641.682	-200.000	0.032	-0.281
-640.668	19.663	-0.066	-0.053
-639.653	-125.957	0.126	0.019
-638.638	-154.468	-0.336	0.023
-637.624	-200.000	0.035	-0.413
-636.609	-47.993	0.214	0.104
-635.595	758.741	-0.157	-0.425
-634.580	307.574	0.078	-0.146
-633.565	30.710	-0.127	0.109
-632.551	-64.721	-0.166	-0.067
-631.536	561.147	0.103	0.249
-630.522	-200.000	-0.024	0.146
-629.507	100.628	-0.088	-0.103
-628.492	-200.000	-0.007	0.167
-627.478	-62.744	0.155	-0.065
-626.463	-181.926	0.554	-0.011
-625.449	-6.820	-0.108	-0.073
-624.434	-97.790	0.398	0.103
-623.419	289.841	0.171	-0.311
-622.405	26.050	-0.260	-0.218
-621.390	56.779	0.082	-0.080
-620.376	185.161	0.170	0.253
-619.361	-73.357	-0.220	-0.081
-618.346	-129.449	-0.224	0.031
-617.332	-129.209	-0.229	-0.032
-616.317	27.926	-0.108	0.092
-615.303	-112.780	0.194	0.039
-614.288	-108.143	-0.114	-0.025
-613.273	-171.492	-0.104	-0.003
-612.259	400.053	0.073	-0.153
-611.244	323.841	0.047	0.090
-610.230	244.946	0.077	-0.130
-609.215	-18.282	-0.251	0.157
-608.201	502.084	-0.106	-0.246
-607.186	-153.248	-0.158	0.011
-606.171	-125.824	-0.081	-0.012
-605.157	77.265	-0.044	-0.046
-604.142	397.078	-0.032	-0.066
-603.128	237.796	-0.126	-0.209
-602.113	21.500	0.163	-0.133
-601.098	45.744	0.157	-0.145
-600.084	-86.012	0.221	0.068
-599.069	-66.464	0.253	-0.101
-598.055	-103.922	-0.068	0.016
-597.040	-200.000	0.001	-0.033
-596.025	800.000	-0.093	-0.364
-595.011	182.723	0.040	-0.059
-593.996	21.433	0.228	0.186
-592.982	-7.772	0.079	0.054
-591.967	-104.016	-0.073	-0.017
-590.952	-125.828	0.389	-0.059
-589.938	-23.443	-0.113	0.068
-588.923	162.619	-0.067	0.094
-587.909	-200.000	-0.042	-0.391
-586.894	-46.138	0.144	-0.071
-585.879	-191.822	0.062	-0.001
-584.865	-31.394	-0.026	-0.015
-583.850	800.000	0.024	0.092
-582.836	199.227	-0.103	-0.157
-581.821	596.502	-0.117	0.290
-580.806	3.446	0.081	-0.059
-579.792	-186.318	-0.053	-0.001
-578.777	800.000	0.027	-0.083
-577.763	-24.020	0.244	0.146
-576.748	-200.000	-0.027	-0.416
-575.733	80.610	-0.165	0.178
-574.719	-139.332	0.205	-0.022
-573.704	23.497	-0.162	-0.133
-572.690	212.129	-0.041	-0.065
-571.675	800.000	0.052	0.192
-570.661	-138.140	-0.458	0.051
-569.646	800.000	0.021	0.064
-568.631	99.390	0.111	-0.129
-567.617	-200.000	0.048	0.230
-566.602	-70.301	0.107	-0.040
-565.588	33.671	0.066	-0.057
-564.573	-88.578	0.062	-0.018
-563.558	32.627	-0.170	0.147
-562.544	-33.188	-0.178	-0.099
-561.529	253.992	-0.062	-0.107
-560.515	-60.628	0.190	-0.081
-559.500	-200.000	-0.047	-0.267
-558.485	7.475	0.148	0.110
-557.471	-200.000	-0.028	-0.229
-556.456	-200.000	-0.065	-0.327
-555.442	-46.269	0.126	0.062
-554.427	88.121	0.092	-0.102
-553.412	-55.302	-0.071	-0.032
-552.398	8.630	0.260	-0.196
-551.383	88.979	-0.127	-0.141
-550.369	-10.756	-0.046	-0.031
-549.354	250.606	-0.055	-0.093
-548.339	800.000	-0.051	0.160
-547.325	578.662	-0.070	-0.172
-546.310	-164.127	0.224	0.010
-545.296	-67.641	0.103	0.040
-544.281	-147.613	-0.091	0.008
-543.266	-55.982	0.106	-0.047
-542.252	-117.456	-0.051	-0.009
-541.237	256.244	0.140	0.240
-540.223	110.489	0.145	0.174
-539.208	-59.528	0.122	0.053
-538.193	79.873	0.042	-0.045
-537.179	-22.224	0.357	0.216
-536.164	117.262	0.203	0.249
-535.150	-23.063	-0.297	-0.179
-534.135	40.394	0.024	0.021
-533.121	493.255	0.110	-0.252
-532.106	-48.333	-0.222	-0.107
-531.091	-23.492	0.123	0.074
-530.077	-200.000	0.019	0.388
-529.062	-81.901	0.427	-0.139
-528.048	-1.577	0.257	0.181
-527.033	274.340	0.199	0.351
-526.018	800.000	0.043	-0.171
-525.004	-88.705	-0.202	-0.060
-523.989	-200.000	0.029	0.266
-522.975	-118.219	0.241	-0.043
-521.960	-200.000	-0.017	-0.088
-520.945	800.000	-0.059	-0.230
-519.931	9.689	-0.330	-0.250
-518.916	346.559	-0.133	-0.261
-517.902	445.650	0.090	0.198
-516.887	-200.000	0.299	-0.001
-515.872	800.000	-0.051	-0.172
-514.858	-173.526	-0.436	-0.013
-513.843	197.712	0.154	-0.234
-512.829	800.000	0.026	-0.087
-511.814	-61.125	0.244	0.103
-510.799	-19.491	-0.174	0.107
-509.785	473.805	0.077	-0.174
-508.770	-78.773	-0.183	-0.062
-507.756	800.000	0.104	0.349
-506.741	-95.862	-0.345	0.092
-505.726	800.000	-0.102	0.292
-504.712	19.283	-0.194	0.156
-503.697	-93.593	-0.110	0.030
-502.683	800.000	-0.041	0.119
-501.668	13.528	0.027	-0.021
-500.653	-183.701	0.175	-0.003
-499.639	-200.000	-0.099	0.438
-498.624	-200.000	-0.077	0.352
-497.610	-81.979	0.183	0.060
-496.595	679.881	0.130	-0.339
-495.581	-172.654	0.210	-0.007
-494.566	-11.510	-0.104	0.068
-493.551	-200.000	-0.048	0.401
-492.537	239.650	-0.113	-0.187
-491.522	-200.000	-0.024	0.218
-490.508	520.722	0.124	0.290
-489.493	32.348	-0.099	-0.085
-488.478	-193.627	-0.085	0.001
-487.464	-161.870	0.213	-0.011
-486.449	-118.299	-0.074	-0.013
-485.435	57.753	-0.112	0.110
-484.420	195.703	-0.144	-0.218
-483.405	800.000	0.077	0.215
-482.391	-200.000	0.033	-0.344
-481.376	-136.157	0.357	0.042
-480.362	-200.000	-0.031	-0.211
-479.347	-200.000	0.016	-0.261
-478.332	176.295	0.131	0.190
-477.318	767.036	-0.035	0.095
-476.303	-0.233	0.123	-0.087
-475.289	-28.938	-0.077	0.044
-474.274	-78.878	0.124	-0.042
-473.259	298.007	-0.190	0.347
-472.245	-41.210	0.185	0.095
-471.230	-68.363	-0.279	0.108
-470.216	282.606	-0.060	0.108
-469.201	-41.844	0.234	0.119
-468.186	800.000	0.048	-0.147
-467.172	144.263	-0.150	-0.200
-466.157	-9.735	0.115	0.076
-465.143	406.034	0.028	-0.058
-464.128	181.002	-0.172	-0.252
-463.113	456.110	-0.041	-0.092
-462.099	23.477	0.179	-0.147
-461.084	-200.000	0.053	0.244
-460.070	180.116	-0.061	0.089
-459.055	-42.900	-0.152	0.077
-458.040	97.048	-0.136	-0.155
-457.026	800.000	0.074	0.254
-456.011	800.000	0.125	-0.504
-454.997	-200.000	0.015	-0.145
-453.982	465.391	0.044	-0.098
-452.968	-200.000	0.198	-0.000
-451.953	43.101	-0.044	-0.040
-450.938	294.536	-0.076	-0.139
-449.924	-32.919	0.356	0.197
-448.909	-77.016	0.025	0.009
-447.895	800.000	-0.022	0.074
-446.880	-137.244	0.157	-0.018
-445.865	-133.116	0.202	0.026
-444.851	638.972	-0.047	-0.120
-443.836	-200.000	-0.051	0.241
-442.822	-200.000	-0.017	0.243
-441.807	307.542	-0.064	0.119
-440.792	-200.000	0.286	0.001
-439.778	-60.903	-0.040	0.017
-438.763	109.240	-0.104	-0.124
-437.749	-200.000	-0.001	-0.118
-436.734	-36.725	-0.237	-0.127
-435.719	159.075	0.120	-0.166
-434.705	64.315	0.128	-0.128
-433.690	-13.372	-0.180	-0.116
-432.676	-128.736	0.182	-0.026
-431.661	-126.543	-0.121	0.018
-430.646	4.147	0.208	-0.152
-429.632	-158.234	-0.301	0.018
-428.617	150.617	0.070	-0.094
-427.603	526.324	-0.174	0.408
-426.588	-200.000	-0.006	0.587
-425.573	800.000	-0.079	0.264
-424.559	-111.386	-0.125	-0.025
-423.544	112.916	-0.365	-0.439
-422.530	800.000	0.084	0.243
-421.515	125.996	-0.010	0.012
-420.500	281.128	0.109	-0.193
-419.486	61.998	0.240	0.238
-418.471	106.094	-0.140	-0.165
-417.457	96.714	-0.210	0.239
-416.442	-200.000	-0.034	0.251
-415.428	-70.401	-0.356	-0.134
-414.413	-27.995	0.141	-0.081
-413.398	-88.618	-0.210	0.062
-412.384	-66.690	0.108	0.043
-411.369	-21.826	0.246	0.149
-410.355	-105.102	0.128	0.029
-409.340	-2.908	-0.102	-0.071
-408.325	20.678	0.048	-0.039
-407.311	-4.779	0.086	-0.059
-406.296	800.000	0.102	-0.325
-405.282	-28.855	0.203	-0.116
-404.267	134.896	0.123	0.159
-403.252	-158.184	-0.429	-0.025
-402.238	-111.606	-0.362	-0.073
-401.223	203.374	-0.100	-0.154
-400.209	346.511	0.078	0.153
-399.194	115.609	0.102	-0.124
-398.179	-200.000	-0.004	-0.094
-397.165	43.574	0.449	-0.408
-396.150	-200.000	0.058	0.324
-395.136	-121.317	-0.377	0.062
-394.121	-86.662	0.248	0.076
-393.106	15.196	-0.226	-0.176
-392.092	-200.000	-0.022	-0.254
-391.077	31.479	0.063	0.054
-390.063	800.000	-0.070	-0.196
-389.048	800.000	-0.026	-0.087
-388.033	-9.506	-0.345	0.228
-387.019	305.111	0.228	0.420
-386.004	531.583	0.037	-0.087
-384.990	200.614	0.152	-0.232
-383.975	-103.291	-0.132	-0.031
-382.960	-200.000	0.027	-0.126
-381.946	81.912	-0.153	-0.165
-380.931	800.000	0.114	0.323
-379.917	-135.182	-0.064	0.008
-378.902	-200.000	-0.096	0.000
-377.888	-20.729	0.233	-0.142
-376.873	-73.372	-0.054	0.020
-375.858	114.341	0.068	0.082
-374.844	6.043	-0.071	-0.052
-373.829	33.829	0.127	-0.109
-372.815	-113.257	0.290	-0.057
-371.800	365.086	-0.029	-0.059
-370.785	227.859	-0.072	0.117
-369.771	388.990	-0.176	0.362
-368.756	800.000	-0.102	0.317
-367.742	-8.122	-0.150	0.100
-366.727	-98.849	-0.360	-0.091
-365.712	20.161	-0.124	-0.100
-364.698	-200.000	-0.026	-0.162
-363.683	14.733	-0.083	-0.065
-362.669	-117.396	0.268	0.048
-361.654	-180.714	-0.223	-0.005
-360.639	-5.228	0.105	0.072
-359.625	-83.402	-0.397	0.126
-358.610	264.183	0.017	-0.029
-357.596	44.828	-0.071	-0.065
-356.581	-200.000	0.002	-0.220
-355.566	543.239	0.137	-0.324
-354.552	-200.000	0.022	-0.102
-353.537	117.920	0.063	0.078
-352.523	71.216	-0.140	-0.144
-351.508	-54.655	0.091	-0.041
-350.493	-133.277	0.181	-0.023
-349.479	33.488	-0.289	-0.249
-348.464	-87.477	-0.395	0.118
-347.450	-200.000	0.003	-0.291
-346.435	-198.161	-0.233	-0.001
-345.420	295.414	0.138	0.251
-344.406	119.587	-0.131	0.160
-343.391	-200.000	0.032	-0.153
-342.377	-104.763	0.046	-0.011
-341.362	-164.034	0.443	-0.020
-340.348	334.541	0.105	-0.201
-339.333	-146.031	-0.270	0.024
-338.318	800.000	0.030	-0.091
-337.304	-200.000	0.046	0.277
-336.289	400.840	0.219	0.456
-335.275	-72.861	-0.172	-0.063
-334.260	800.000	0.097	0.297
-333.245	-54.419	-0.139	0.063
-332.231	-200.000	0.012	-0.091
-331.216	180.033	-0.069	0.100
-330.202	-139.908	0.234	-0.025
-329.187	-142.760	-0.216	0.021
-328.172	-5.152	0.181	0.124
-327.158	703.667	0.115	0.302
-326.143	800.000	-0.030	-0.095
-325.129	800.000	-0.056	-0.164
-324.114	-144.496	-0.267	-0.025
-323.099	-200.000	-0.009	-0.256
-322.085	74.060	0.207	-0.215
-321.070	20.578	0.135	-0.108
-320.056	71.713	0.037	-0.038
-319.041	-75.177	0.125	0.044
-318.026	-102.243	0.147	0.035
-317.012	-59.556	0.149	-0.063
-315.997	-84.905	-0.245	-0.076
-314.983	-0.103	0.266	-0.187
-313.968	705.615	-0.034	0.089
-312.953	163.000	0.257	-0.358
-311.939	-50.502	0.249	0.116
-310.924	125.559	-0.158	0.198
-309.910	487.144	0.085	0.192
-308.895	-34.836	0.135	-0.073
-307.880	49.641	0.306	0.286
-306.866	-200.000	0.024	0.218
-305.851	800.000	0.029	0.125
-304.837	800.000	-0.118	0.333
-303.822	129.782	-0.104	0.132
-302.807	800.000	-0.067	0.222
-301.793	-200.000	0.010	0.262
-300.778	-115.280	0.200	-0.037
-299.764	-200.000	-0.003	-0.024
-298.749	30.266	-0.067	-0.057
-297.735	477.567	0.049	-0.110
-296.720	162.809	0.175	-0.243
-295.705	800.000	-0.021	-0.060
-294.691	119.031	-0.248	-0.303
-293.676	-65.818	-0.108	-0.043
-292.662	-200.000	0.055	0.265
-291.647	800.000	-0.078	0.245
-290.632	591.460	-0.092	0.225
-289.618	34.225	-0.099	0.085
-288.603	30.358	-0.108	-0.092
-287.589	-88.247	-0.356	0.105
-286.574	7.570	0.242	0.179
-285.559	800.000	0.145	0.575
-284.545	-200.000	0.004	0.168
-283.530	84.483	0.161	0.174
-282.516	800.000	0.025	0.101
-281.501	-200.000	-0.024	-0.184
-280.486	-200.000	-0.017	-0.238
-279.472	462.878	0.067	0.148
-278.457	75.616	-0.194	-0.202
-277.443	481.990	-0.034	-0.077
-276.428	-114.397	-0.405	-0.077
-275.413	267.008	0.104	-0.180
-274.399	518.191	0.111	-0.256
-273.384	-135.021	-0.380	-0.045
-272.370	-200.000	-0.116	0.503
-271.355	39.490	0.200	-0.177
-270.340	-200.000	-0.025	0.334
-269.326	-2.130	-0.230	0.160
-268.311	-177.910	-0.010	0.000
-267.297	-200.000	-0.014	-0.276
-266.282	-200.000	0.029	-0.147
-265.267	-152.140	0.313	-0.022
-264.253	241.444	0.095	0.157
-263.238	-134.958	0.346	-0.041
-262.224	340.746	-0.146	0.282
-261.209	51.742	-0.233	-0.219
-260.195	131.542	0.098	-0.125
-259.180	209.720	-0.123	0.191
-258.165	800.000	-0.062	-0.232
-257.151	25.221	0.237	-0.194
-256.136	-51.537	-0.135	-0.062
-255.122	-200.000	0.024	-0.117
-254.107	542.764	-0.086	0.202
-253.092	46.784	-0.277	-0.254
-252.078	-200.000	-0.002	-0.085
-251.063	120.122	-0.045	0.055
-250.049	-67.251	-0.219	0.085
-249.034	-135.060	-0.025	-0.003
-248.019	-100.616	-0.153	0.037
-247.005	-102.922	0.478	-0.112
-245.990	-124.178	0.188	0.029
-244.976	-200.000	0.029	-0.183
-243.961	116.026	-0.068	-0.082
-242.946	649.007	0.046	0.115
-241.932	-81.317	0.278	0.091
-240.917	-91.180	0.497	-0.141
-239.903	-124.865	-0.263	0.040
-238.888	-200.000	-0.036	0.198
-237.873	-109.102	-0.183	0.039
-236.859	216.048	-0.146	0.229
-235.844	276.586	-0.025	0.045
-234.830	800.000	0.085	0.333
-233.815	209.336	-0.221	-0.341
-232.800	800.000	0.039	-0.148
-231.786	-16.635	0.098	0.061
-230.771	-160.940	-0.186	-0.010
-229.757	-30.736	-0.064	0.036
-228.742	9.396	0.181	0.135
-227.727	25.459	0.200	-0.164
-226.713	-200.000	-0.020	0.192
-225.698	-115.461	-0.076	-0.014
-224.684	29.182	-0.366	-0.307
-223.669	-168.464	0.426	-0.016
-222.655	431.482	-0.112	0.240
-221.640	-200.000	0.032	0.380
-220.625	800.000	-0.035	0.102
-219.611	42.892	-0.128	0.115
-218.596	-98.034	0.200	0.051
-217.582	-200.000	0.011	0.127
-216.567	-200.000	-0.034	0.186
-215.552	90.607	0.121	-0.134
-214.538	800.000	-0.022	-0.086
-213.523	797.489	0.032	-0.087
-212.509	-149.854	-0.094	-0.007
-211.494	-83.838	-0.147	0.046
-210.479	800.000	0.027	0.098
-209.465	-200.000	-0.013	0.107
-208.450	-64.123	-0.373	0.150
-207.436	800.000	0.122	0.339
-206.421	-3.468	0.375	-0.257
-205.406	-200.000	-0.069	0.341
-204.392	-200.000	0.004	-0.100
-203.377	64.112	0.212	-0.210
-202.363	-36.680	-0.242	0.128
-201.348	800.000	-0.130	-0.357
-200.333	300.811	0.073	-0.133
-199.319	74.452	-0.225	-0.233
-198.304	-149.450	0.127	0.010
-197.290	48.015	-0.173	0.160
-196.275	-200.000	0.008	0.241
-195.260	-31.601	-0.300	0.166
-194.246	30.031	0.292	0.246
-193.231	800.000	-0.008	0.028
-192.217	194.202	0.226	-0.338
-191.202	263.458	0.125	-0.214
-190.187	-13.407	-0.050	-0.032
-189.173	-200.000	-0.037	0.224
-188.158	49.175	-0.212	0.196
-187.144	-116.732	0.353	0.064
-186.129	164.470	0.063	-0.087
-185.114	800.000	-0.132	-0.395
-184.100	800.000	-0.050	-0.205
-183.085	-200.000	-0.015	0.175
-182.071	497.147	0.116	0.262
-181.056	800.000	-0.090	0.269
-180.042	-31.307	-0.385	0.213
-179.027	-74.123	-0.386	0.138
-178.012	9.366	0.048	0.036
-176.998	40.408	-0.263	0.233
-175.983	177.606	-0.122	-0.175
-174.969	-123.055	0.358	-0.057
-173.954	-53.344	-0.092	0.042
-172.939	800.000	0.077	-0.319
-171.925	76.345	-0.037	0.038
-170.910	144.428	-0.093	0.123
-169.896	335.750	-0.116	0.222
-168.881	118.737	0.143	0.174
-167.866	-200.000	-0.004	0.154
-166.852	-200.000	0.008	-0.159
-165.837	-120.975	0.523	-0.087
-164.823	5.825	0.337	0.246
-163.808	73.203	-0.206	-0.212
-162.793	-0.350	0.086	0.060
-161.779	800.000	-0.050	0.173
-160.764	477.336	-0.041	0.092
-159.750	-200.000	-0.002	-0.123
-158.735	-200.000	-0.014	0.146
-157.720	151.438	0.268	-0.359
-156.706	287.083	-0.235	-0.418
-155.691	272.685	0.195	-0.339
-154.677	-43.824	-0.036	0.018
-153.662	-122.580	0.189	0.030
-152.647	-17.490	-0.082	0.051
-151.633	-120.123	-0.292	-0.049
-150.618	-200.000	0.051	-0.540
-149.604	27.950	0.144	0.119
-148.589	-152.067	0.227	0.016
-147.574	15.037	0.287	0.221
-146.560	182.259	-0.144	0.209
-145.545	429.723	-0.037	-0.079
-144.531	-43.198	0.021	0.011
-143.516	-61.276	0.119	0.049
-142.502	-70.193	-0.170	-0.063
-141.487	-47.392	0.403	-0.193
-140.472	379.169	-0.155	0.312
-139.458	162.321	0.161	-0.222
-138.443	-125.320	0.241	0.036
-137.429	-200.000	0.005	0.183
-136.414	800.000	-0.156	-0.439
-135.399	800.000	0.086	-0.268
-134.385	119.939	-0.139	-0.170
-133.370	-53.011	0.203	0.092
-132.356	458.967	-0.137	-0.299
-131.341	-200.000	0.030	-0.276
-130.326	800.000	-0.038	-0.126
-129.312	-117.231	0.235	0.042
-128.297	-44.702	0.079	-0.039
-127.283	30.854	0.340	0.287
-126.268	800.000	0.029	-0.089
-125.253	21.609	0.183	-0.147
-124.239	-156.637	-0.313	0.019
-123.224	213.481	0.034	-0.053
-122.210	-18.731	-0.180	-0.111
-121.195	-94.579	0.243	0.065
-120.180	-121.968	0.194	-0.031
-119.166	-200.000	0.009	-0.527
-118.151	-63.080	0.264	-0.107
-117.137	95.998	0.109	0.122
-116.122	-162.467	-0.053	-0.003
-115.107	341.264	0.105	-0.202
-114.093	529.320	-0.162	0.376
-113.078	211.974	0.060	-0.092
-112.064	800.000	-0.101	0.281
-111.049	-14.351	-0.146	-0.092
-110.034	800.000	-0.013	-0.045
-109.020	-60.756	0.126	-0.053
-108.005	800.000	0.083	-0.261
-106.991	71.474	0.143	-0.146
-105.976	-118.162	0.524	-0.092
-104.962	800.000	-0.034	0.113
-103.947	-73.594	0.371	0.133
-102.932	-128.910	0.090	0.012
-101.918	-200.000	-0.016	-0.207
-100.903	-200.000	-0.047	0.241
-99.889	57.414	-0.112	0.107
-98.874	800.000	0.068	0.188
-97.859	-200.000	0.034	0.267
-96.845	227.313	0.046	0.074
-95.830	-73.460	0.104	0.037
-94.816	8.099	0.260	0.192
-93.801	-118.527	-0.018	-0.003
-92.786	-9.514	0.102	0.067
-91.772	800.000	0.048	-0.182
-90.757	-106.494	-0.151	-0.033
-89.743	-128.059	0.105	-0.015
-88.728	117.424	0.178	0.214
-87.713	-105.776	0.263	0.058
-86.699	-200.000	0.046	-0.202
-85.684	-200.000	0.012	0.242
-84.670	800.000	-0.052	-0.198
-83.655	-154.712	-0.170	-0.011
-82.640	-52.971	0.131	-0.059
-81.626	142.535	0.195	-0.254
-80.611	123.832	0.105	0.129
-79.597	30.508	-0.201	-0.169
-78.582	19.875	0.428	-0.339
-77.567	-200.000	-0.033	0.334
-76.553	103.873	0.204	-0.235
-75.538	-200.000	0.024	0.173
-74.524	-61.187	-0.066	-0.027
-73.509	305.779	0.120	-0.219
-72.494	-19.084	0.319	-0.195
-71.480	-200.000	0.040	-0.193
-70.465	132.587	-0.029	-0.037
-69.451	-200.000	-0.019	-0.172
-68.436	-158.149	0.103	0.006
-67.422	-2.232	0.272	-0.187
-66.407	14.197	0.171	0.131
-65.392	182.905	0.196	-0.284
-64.378	7.498	0.299	-0.219
-63.363	220.160	0.159	0.250
-62.349	-105.948	-0.052	-0.011
-61.334	132.160	-0.765	-0.967
-60.319	194.290	0.588	0.874
-59.305	333.723	-0.410	-0.778
-58.290	411.067	0.705	1.466
-57.276	322.203	0.775	1.448
-56.261	-200.000	108.876	608.989
-55.246	461.567	1484.070	3244.703
-54.232	148.732	2656.905	3520.281
-53.217	107.567	2140.684	2497.499
-52.203	40.972	1595.078	1411.599
-51.188	33.050	1338.826	1137.333
-50.173	29.927	1299.022	1085.202
-49.159	55.550	1353.646	1284.724
-48.144	55.790	1368.700	1300.394
-47.130	33.158	1323.563	1124.832
-46.115	29.762	1306.145	1090.005
-45.100	29.523	1301.233	1084.458
-44.086	29.399	1298.731	1081.602
-43.071	29.408	1296.467	1079.728
-42.057	29.414	1294.306	1077.924
-41.042	29.391	1292.530	1076.267
-40.027	29.447	1291.431	1075.637
-39.013	29.489	1289.267	1074.035
-37.998	29.518	1287.306	1072.526
-36.984	29.606	1285.690	1071.650
-35.969	29.657	1283.744	1070.276
-34.954	29.540	1282.508	1068.531
-33.940	29.628	1280.984	1067.724
-32.925	29.638	1280.011	1066.927
-31.911	29.688	1278.493	1065.909
-30.896	29.586	1277.146	1064.158
-29.881	29.692	1275.572	1063.413
-28.867	29.767	1274.002	1062.493
-27.852	29.722	1272.491	1060.931
-26.838	29.624	1271.565	1059.558
-25.823	29.618	1269.743	1057.962
-24.809	29.593	1268.705	1056.912
-23.794	29.535	1267.588	1055.606
-22.779	29.675	1266.316	1055.306
-21.765	29.697	1264.868	1054.181
-20.750	29.587	1263.523	1052.391
-19.736	29.522	1262.463	1051.100
-18.721	29.506	1261.083	1049.819
-17.706	29.540	1259.828	1048.923
-16.692	29.582	1258.909	1048.357
-15.677	29.544	1257.642	1047.041
-14.663	29.475	1256.896	1045.987
-13.648	29.555	1255.298	1045.071
-12.633	29.450	1254.626	1043.877
-11.619	29.484	1254.009	1043.511
-10.604	29.561	1252.768	1042.874
-9.590	29.416	1252.342	1041.661
-8.575	29.506	1251.176	1041.155
-7.560	29.531	1249.799	1040.112
-6.546	29.408	1249.732	1039.318
-5.531	29.400	1248.988	1038.615
-4.517	29.519	1247.939	1038.370
-3.502	29.594	1246.578	1037.621
-2.487	29.532	1246.098	1036.828
-1.473	29.448	1241.676	1032.638
-0.458	27.707	1226.678	1010.491
0.556	22.239	1209.009	970.221
1.571	18.391	1214.434	953.117
2.586	17.368	1228.732	958.493
3.600	17.221	1218.127	949.311
4.615	15.000	1152.262	886.156
5.629	10.997	1083.987	813.596
6.644	8.773	1066.825	789.688
7.659	8.602	1064.891	787.347
8.673	8.571	1062.643	785.459
9.688	8.474	1061.913	784.378
10.702	8.774	1060.116	784.449
11.717	11.380	1062.845	799.178
12.731	15.584	1068.386	823.930
13.746	17.730	1070.374	835.924
14.761	17.357	1070.012	833.738
15.775	16.499	1067.497	827.511
16.790	15.470	1065.697	821.010
17.804	14.626	1064.293	815.732
18.819	14.314	1062.718	812.932
19.834	13.934	1061.901	810.378
20.848	13.830	1060.987	809.103
21.863	13.542	1060.628	807.352
22.877	13.393	1059.652	805.813
23.892	13.459	1058.732	805.363
24.907	13.331	1058.319	804.359
25.921	13.443	1057.038	803.854
26.936	13.381	1056.016	802.705
27.950	13.435	1054.624	801.838
28.965	13.502	1053.207	801.014
29.980	13.497	1051.897	799.923
30.994	13.630	1050.323	799.299
32.009	13.571	1049.527	798.339
33.023	13.651	1048.462	797.840
34.038	13.543	1047.062	796.184
35.053	13.561	1045.962	795.364
36.067	13.375	1045.570	794.106
37.082	13.478	1044.840	793.975
38.096	13.660	1043.990	794.128
39.111	13.647	1043.011	793.255
40.126	13.482	1041.797	791.470
41.140	13.345	1040.720	789.929
42.155	13.249	1039.465	788.449
43.169	13.280	1038.604	787.873
44.184	13.210	1037.754	786.823
45.199	13.310	1036.359	786.175
46.213	13.323	1035.537	785.544
47.228	13.435	1034.508	785.225
48.242	13.464	1033.241	784.329
49.257	13.375	1032.434	783.227
50.271	13.509	1031.330	782.954
51.286	13.529	1030.490	782.339
52.301	13.480	1029.643	781.395
53.315	13.438	1028.700	780.412
54.330	13.520	1027.086	779.508
55.344	13.394	1026.930	778.725
56.359	13.389	1025.909	777.860
57.374	13.382	1025.332	777.321
58.388	13.170	1024.344	775.506
59.403	13.386	1023.485	775.803
60.417	13.387	1022.296	774.836
61.432	13.260	1022.097	774.020
62.447	13.252	1021.004	773.089
63.461	13.232	1020.147	772.277
64.476	13.160	1019.480	771.370
65.490	13.198	1018.574	770.791
66.505	13.299	1017.590	770.451
67.520	13.363	1016.837	770.109
68.534	13.325	1016.004	769.235
69.549	13.315	1015.430	768.683
70.563	13.337	1014.955	768.358
71.578	13.187	1014.016	766.886
72.593	13.261	1013.085	766.454
73.607	13.163	1012.604	765.571
74.622	13.062	1012.270	764.781
75.636	13.299	1010.997	764.848
76.651	13.151	1010.666	763.844
77.666	13.219	1009.495	763.209
78.680	13.284	1009.139	763.172
79.695	13.251	1008.642	762.575
80.709	13.233	1008.139	762.044
81.724	13.386	1007.298	762.047
82.739	13.434	1006.521	761.612
83.753	13.455	1006.083	761.310
84.768	13.571	1004.596	760.652
85.782	13.644	1004.003	760.466
86.797	13.574	1003.352	759.586
87.812	13.469	1002.330	758.267
88.826	13.552	1000.849	757.457
89.841	13.561	1000.203	756.942
90.855	13.442	999.601	755.876
91.870	13.629	998.651	755.943
92.884	13.595	998.133	755.329
93.899	13.619	997.566	754.945
94.914	13.733	996.260	754.405
95.928	13.770	995.535	753.960
96.943	13.534	994.815	752.275
97.957	13.462	994.315	751.502
98.972	13.659	992.725	751.128
99.987	13.725	991.791	750.653
101.001	13.445	991.406	749.030
102.016	13.583	990.084	748.588
103.030	13.564	989.401	747.918
104.045	13.616	988.818	747.646
105.060	13.545	987.855	746.532
106.074	13.585	986.629	745.722
107.089	13.467	985.794	744.492
108.103	13.277	984.942	742.929
109.118	13.394	983.590	742.371
110.133	13.357	983.391	741.989
111.147	13.337	982.406	741.087
112.162	13.307	982.090	740.651
113.176	13.522	980.348	740.234
114.191	13.439	979.872	739.435
115.206	13.484	979.222	739.080
116.220	13.431	978.055	737.901
117.235	13.457	977.599	737.606
118.249	13.443	976.593	736.718
119.264	13.375	976.183	736.042
120.279	13.368	974.805	734.906
121.293	13.289	974.327	734.132
122.308	13.302	973.523	733.519
123.322	13.304	972.361	732.588
124.337	13.369	971.185	731.922
125.352	13.398	969.907	731.022
126.366	13.353	969.197	730.226
127.381	13.339	968.345	729.456
128.395	13.308	967.455	728.587
129.410	13.365	966.497	728.052
130.424	13.533	965.392	727.891
131.439	13.438	964.820	726.980
132.454	13.553	964.051	726.841
133.468	13.547	962.954	725.921
134.483	13.454	962.385	725.021
135.497	13.513	961.530	724.572
136.512	13.445	960.727	723.604
137.527	13.514	959.713	723.081
138.541	13.375	959.374	722.155
139.556	13.440	958.791	721.933
140.570	13.542	957.649	721.452
141.585	13.715	956.864	721.553
142.600	13.678	955.929	720.621
143.614	13.602	955.528	719.925
144.629	13.802	954.667	720.080
145.643	13.607	953.410	718.224
146.658	13.662	952.266	717.535
147.673	13.450	952.108	716.439
148.687	13.498	951.145	715.858
149.702	13.425	949.882	714.528
150.716	13.701	949.074	715.046
151.731	13.517	948.586	713.822
152.746	13.634	947.611	713.530
153.760	13.607	947.033	712.917
154.775	13.738	946.430	712.960
155.789	13.792	945.587	712.496
156.804	13.822	945.091	712.186
157.819	13.707	944.429	711.134
158.833	13.671	943.943	710.549
159.848	13.769	943.198	710.344
160.862	13.759	942.261	709.536
161.877	13.703	940.994	708.279
162.892	13.656	939.990	707.260
163.906	13.667	938.812	706.358
164.921	13.566	938.645	705.739
165.935	13.597	937.754	705.138
166.950	13.649	936.855	704.622
167.964	13.681	935.699	703.826
168.979	13.823	934.364	703.362
169.994	13.741	933.793	702.522
171.008	13.816	932.970	702.157
172.023	13.939	932.459	702.231
173.037	13.869	932.177	701.659
174.052	13.800	931.597	700.867
175.067	13.836	930.560	700.178
176.081	13.776	929.884	699.357
177.096	13.796	929.521	699.103
178.110	13.819	928.863	698.647
179.125	13.785	928.234	697.967
180.140	13.805	927.893	697.734
181.154	13.969	927.330	697.936
182.169	13.849	926.687	696.887
183.183	13.877	926.130	696.525
184.198	13.993	924.903	696.028
185.213	13.854	924.757	695.273
186.227	14.156	923.381	695.441
187.242	14.115	923.119	695.010
188.256	14.168	922.824	694.946
189.271	13.997	922.129	693.650
190.286	14.005	920.909	692.704
191.300	13.805	920.460	691.468
192.315	13.682	919.908	690.483
193.329	13.794	919.707	690.736
194.344	13.759	919.117	690.084
195.359	13.855	918.293	689.806
196.373	14.071	917.252	689.861
197.388	14.141	917.225	690.069
198.402	14.264	916.510	689.978
199.417	14.189	916.082	689.286
200.432	14.293	915.339	689.096
201.446	14.284	914.902	688.668
202.461	14.291	914.634	688.436
203.475	14.245	914.096	687.779
204.490	14.276	913.064	687.069
205.504	14.226	912.510	686.384
206.519	14.154	911.538	685.299
207.534	14.226	910.902	685.056
208.548	14.232	910.439	684.672
209.563	14.306	909.758	684.403
210.577	14.256	909.196	683.711
211.592	14.464	907.752	683.420
212.607	14.475	907.680	683.349
213.621	14.510	906.254	682.358
214.636	14.520	905.914	682.084
215.650	14.362	905.687	681.207
216.665	14.408	904.610	680.523
217.680	14.463	904.196	680.376
218.694	14.561	903.130	679.914
219.709	14.572	902.621	679.516
220.723	14.564	902.286	679.169
221.738	14.483	901.704	678.342
222.753	14.545	900.999	678.003
223.767	14.591	900.178	677.514
224.782	14.617	899.829	677.298
225.796	14.740	898.916	677.049
226.811	14.639	898.534	676.291
227.826	14.629	898.042	675.822
228.840	14.620	896.953	674.904
229.855	14.674	896.116	674.432
230.869	14.612	895.754	673.849
231.884	14.556	894.881	672.909
232.899	14.616	893.983	672.417
233.913	14.583	893.362	671.755
234.928	14.462	892.961	670.909
235.942	14.573	892.337	670.828
236.957	14.519	892.005	670.300
237.972	14.579	891.172	669.856
238.986	14.532	890.919	669.416
240.001	14.463	890.277	668.601
241.015	14.673	889.238	668.601
242.030	14.728	888.278	668.041
243.045	14.747	888.086	667.915
244.059	14.655	887.494	667.040
245.074	14.708	886.819	666.685
246.088	14.855	886.133	666.696
247.103	14.897	885.711	666.488
248.117	15.084	884.949	666.599
249.132	15.076	884.548	666.207
250.147	14.954	884.101	665.328
251.161	14.986	883.732	665.116
252.176	14.965	883.129	664.523
253.190	15.062	882.409	664.307
254.205	15.055	881.835	663.789
255.220	15.177	880.950	663.547
256.234	15.102	880.499	662.848
257.249	15.235	879.682	662.704
258.263	15.097	879.306	661.816
259.278	15.247	877.985	661.354
260.293	15.175	877.998	661.023
261.307	15.320	877.015	660.796
262.322	15.290	876.444	660.189
263.336	15.357	875.917	659.998
264.351	15.382	874.966	659.321
265.366	15.459	874.359	659.105
266.380	15.367	873.806	658.271
267.395	15.295	872.884	657.235
268.409	15.506	872.064	657.387
269.424	15.237	871.611	655.931
270.439	15.316	870.904	655.650
271.453	15.360	870.186	655.225
272.468	15.339	869.534	654.594
273.482	15.397	869.138	654.464
274.497	15.375	868.685	653.981
275.512	15.391	868.049	653.504
276.526	15.364	867.809	653.159
277.541	15.438	867.103	652.862
278.555	15.499	866.799	652.812
279.570	15.527	865.748	652.069
280.585	15.570	865.192	651.761
281.599	15.449	864.337	650.589
282.614	15.459	863.781	650.154
283.628	15.567	863.237	650.103
284.643	15.516	862.437	649.248
285.657	15.443	862.365	648.853
286.672	15.452	861.401	648.105
287.687	15.573	860.786	648.051
288.701	15.471	860.311	647.243
289.716	15.634	859.703	647.357
290.730	15.628	858.994	646.744
291.745	15.624	858.523	646.314
292.760	15.636	857.774	645.741
293.774	15.658	857.253	645.375
294.789	15.701	856.623	645.010
295.803	15.578	856.021	644.026
296.818	15.605	855.137	643.409
297.833	15.742	854.645	643.506
298.847	15.812	853.674	642.986
299.862	15.607	853.640	642.118
300.876	15.833	852.999	642.441
301.891	15.877	852.108	641.883
302.906	15.881	851.883	641.670
303.920	15.874	851.396	641.222
304.935	15.988	850.402	640.850
305.949	15.813	850.146	639.933
306.964	16.033	849.301	640.076
307.979	16.064	848.867	639.813
308.993	16.046	848.274	639.239
310.008	16.016	847.666	638.609
311.022	15.945	847.099	637.860
312.037	16.029	846.456	637.634
313.052	15.987	845.989	637.069
314.066	15.833	845.465	636.036
315.081	15.838	844.749	635.459
316.095	15.896	844.407	635.364
317.110	15.853	843.791	634.683
318.125	15.857	843.367	634.325
319.139	15.842	842.915	633.869
320.154	15.989	842.336	633.932
321.168	15.983	841.992	633.595
322.183	16.064	841.116	633.185
323.197	16.037	840.914	632.875
324.212	16.073	840.145	632.375
325.227	15.781	839.781	630.952
326.241	16.055	839.032	631.358
327.256	15.984	838.752	630.825
328.270	16.038	837.845	630.288
329.285	15.969	837.485	629.704
330.300	15.977	836.934	629.265
331.314	16.121	836.139	629.150
332.329	16.058	835.948	628.713
333.343	16.193	835.452	628.790
334.358	16.190	834.964	628.354
335.373	16.172	834.930	628.207
336.387	16.200	834.692	628.075
337.402	16.309	833.947	627.865
338.416	16.333	833.774	627.768
339.431	16.496	833.025	627.754
340.446	16.521	832.683	627.532
341.460	16.440	832.558	627.082
342.475	16.335	832.347	626.478
343.489	16.403	831.556	626.080
344.504	16.531	831.121	626.171
345.519	16.522	830.768	625.819
346.533	16.730	829.889	625.869
347.548	16.469	829.655	624.671
348.562	16.514	828.912	624.223
349.577	16.306	828.556	623.132
350.592	16.476	827.610	622.994
351.606	16.464	827.264	622.635
352.621	16.355	826.851	621.866
353.635	16.438	826.089	621.542
354.650	16.579	825.138	621.288
355.665	16.557	824.758	620.867
356.679	16.535	823.936	620.114
357.694	16.599	823.649	620.078
358.708	16.564	822.895	619.325
359.723	16.516	822.378	618.707
360.738	16.563	821.788	618.382
361.752	16.659	821.200	618.234
362.767	16.807	820.364	618.089
363.781	16.631	820.172	617.250
364.796	16.699	819.942	617.268
365.810	16.831	819.413	617.297
366.825	16.860	819.015	617.048
367.840	16.851	818.594	616.644
368.854	16.770	818.271	616.050
369.869	16.798	817.489	615.511
370.883	17.040	816.926	615.911
371.898	16.916	816.704	615.239
372.913	16.804	816.741	614.807
373.927	17.003	815.863	614.811
374.942	17.030	815.386	614.496
375.956	17.083	814.982	614.329
376.971	17.095	814.725	614.122
377.986	16.988	814.336	613.387
379.000	17.268	813.929	614.037
380.015	17.253	813.132	613.328
381.029	17.131	812.302	612.210
382.044	17.185	812.004	612.126
383.059	17.268	811.360	611.886
384.073	17.079	810.613	610.589
385.088	17.145	810.199	610.459
386.102	16.952	809.982	609.546
387.117	16.995	809.411	609.219
388.132	16.976	808.607	608.489
389.146	17.106	807.856	608.338
390.161	17.045	807.875	608.078
391.175	17.182	807.531	608.259
392.190	17.022	806.993	607.224
393.205	17.121	806.202	606.932
394.219	17.065	806.015	606.538
395.234	17.051	805.776	606.252
396.248	17.182	804.987	606.072
397.263	17.020	804.385	604.989
398.278	16.992	804.453	604.886
399.292	17.091	803.991	604.837
400.307	17.096	803.326	604.304
401.321	17.081	802.916	603.889
402.336	17.163	802.285	603.649
403.350	17.161	801.766	603.200
404.365	17.232	801.367	603.100
405.380	17.423	801.166	603.570
406.394	17.441	800.687	603.219
407.409	17.341	799.999	602.293
408.423	17.341	800.119	602.330
409.438	17.556	799.589	602.642
410.453	17.628	799.196	602.545
411.467	17.499	798.604	601.589
412.482	17.489	798.378	601.331
413.496	17.551	797.884	601.123
414.511	17.628	797.568	601.106
415.526	17.641	796.654	600.407
416.540	17.666	796.161	600.072
417.555	17.646	795.882	599.738
418.569	17.830	795.562	600.091
419.584	17.634	795.159	599.046
420.599	17.735	794.814	599.086
421.613	110.539	1293.139	1472.401
422.628	95.035	1365.731	1472.503
