DTS Sentinel unit serial number:	SN413079Multiplexer serial number:	ORYXHardware model number:	OX4-SRSoftware version number:	ORYX F/W v4.00 Oryx Data Collector v3.7.2.0data status	okinstallation	princeton_trtdifferential loss correction	single-endedforward channel	channel 1reverse channel	N/Adate	2019/09/12time	18:38:34forward acquisition time	15.00reverse acquisition time	0.00gamma	496.2192k internal	0.2318k external	0.2318temperature offset calibration	1.0103default loss term (dB/km)	0.3790temperature slope calibration	1.0000multiplexer offset coefficient	1.0000multiplexer slope coefficient	1.0000fibre end	0.00T internal ref (°C)	33.12T ext. ref 1 (°C)	2.95T ext. ref 2 (°C)	27.71length (m)	temperature (°C)	Stokes	anti-Stokes-747.200	106.122	0.390	0.468
-746.185	800.000	-0.081	-0.255
-745.171	800.000	-0.041	-0.173
-744.156	6.489	0.232	0.175
-743.142	247.374	0.426	-0.728
-742.127	-141.666	-0.379	0.039
-741.112	-21.024	0.555	0.344
-740.098	-200.000	-0.100	0.821
-739.083	800.000	-0.197	-0.586
-738.069	397.998	0.047	-0.099
-737.054	241.498	0.067	0.113
-736.039	179.601	0.292	-0.432
-735.025	800.000	-0.081	0.300
-734.010	241.439	-0.487	0.823
-732.996	-150.131	-0.375	0.029
-731.981	507.646	-0.225	0.528
-730.966	-200.000	-0.023	-0.340
-729.952	31.621	0.737	-0.641
-728.937	-126.959	0.546	0.081
-727.923	-73.875	0.496	-0.182
-726.908	98.901	-0.193	-0.225
-725.894	800.000	-0.241	-0.698
-724.879	-33.972	0.393	0.219
-723.864	92.798	-0.441	-0.504
-722.850	-137.891	0.783	0.088
-721.835	-114.170	0.576	0.113
-720.821	-62.484	-0.398	0.167
-719.806	-28.022	0.620	-0.363
-718.791	430.113	0.121	-0.264
-717.777	119.785	-0.197	-0.247
-716.762	710.516	-0.309	0.825
-715.748	-200.000	0.129	-0.693
-714.733	250.162	-0.277	0.476
-713.718	-200.000	-0.023	-0.394
-712.704	-86.099	0.522	0.163
-711.689	800.000	0.135	-0.518
-710.675	-153.148	0.656	0.046
-709.660	-11.020	-0.783	0.522
-708.645	-200.000	0.021	0.408
-707.631	-129.997	0.409	0.057
-706.616	-200.000	-0.061	0.754
-705.602	-69.429	0.523	0.203
-704.587	-200.000	0.162	1.022
-703.572	-87.660	0.147	-0.045
-702.558	361.199	0.013	0.025
-701.543	800.000	-0.084	-0.331
-700.529	-94.047	0.380	-0.105
-699.514	135.351	-0.865	1.137
-698.499	-200.000	0.019	0.117
-697.485	-5.659	-0.317	0.219
-696.470	225.998	-0.233	0.382
-695.456	800.000	-0.128	-0.492
-694.441	44.662	0.401	-0.372
-693.426	121.149	0.412	-0.518
-692.412	-200.000	0.037	0.244
-691.397	-200.000	0.145	-0.908
-690.383	-200.000	-0.081	-0.511
-689.368	73.390	0.012	0.013
-688.354	-76.147	0.659	0.235
-687.339	-200.000	-0.064	0.418
-686.324	-52.970	-0.562	-0.261
-685.310	-153.157	-0.352	0.025
-684.295	-15.675	-0.239	-0.154
-683.281	-2.687	0.793	0.560
-682.266	27.644	0.592	0.503
-681.251	1.325	-0.893	0.648
-680.237	73.921	-0.243	0.257
-679.222	-176.382	-0.256	-0.007
-678.208	-119.336	-0.257	-0.045
-677.193	-200.000	0.053	-0.923
-676.178	800.000	-0.107	0.339
-675.164	-200.000	0.451	0.000
-674.149	-112.051	-0.460	0.093
-673.135	-200.000	0.070	-0.908
-672.120	-200.000	-0.025	0.881
-671.105	-200.000	-0.052	-0.375
-670.091	-75.815	0.600	0.215
-669.076	107.771	0.549	-0.660
-668.062	-27.468	0.264	0.155
-667.047	74.081	-0.179	0.190
-666.032	800.000	0.249	0.753
-665.018	-181.541	-0.375	0.007
-664.003	-200.000	0.078	-0.546
-662.989	-200.000	0.199	-1.530
-661.974	800.000	-0.218	0.754
-660.959	118.368	0.135	-0.168
-659.945	-200.000	0.046	0.369
-658.930	-71.243	-0.163	-0.062
-657.916	800.000	0.219	-0.695
-656.901	-118.360	-0.468	0.084
-655.886	457.910	0.189	0.424
-654.872	-82.968	-0.559	-0.182
-653.857	800.000	0.299	-1.088
-652.843	71.574	-0.638	-0.669
-651.828	-125.075	-0.717	-0.111
-650.814	67.110	-0.160	0.164
-649.799	79.987	-0.314	-0.340
-648.784	164.073	-0.486	-0.691
-647.770	-69.569	-0.671	-0.259
-646.755	49.632	0.473	0.449
-645.741	82.316	-0.299	0.327
-644.726	-200.000	0.035	0.417
-643.711	140.249	-0.336	-0.447
-642.697	139.992	-0.389	-0.517
-641.682	-106.162	0.201	0.045
-640.668	26.698	-0.278	0.234
-639.653	58.061	0.684	-0.675
-638.638	-141.414	0.404	0.041
-637.624	711.012	-0.160	-0.428
-636.609	-60.952	0.226	-0.096
-635.595	26.863	0.317	-0.268
-634.580	309.988	-0.233	-0.439
-633.565	-51.476	-0.312	0.147
-632.551	42.764	-0.264	0.243
-631.536	-7.799	0.199	0.135
-630.522	800.000	-0.077	0.263
-629.507	-123.990	-0.417	-0.066
-628.492	-200.000	0.002	0.200
-627.478	133.048	-0.529	0.689
-626.463	-87.895	0.678	0.205
-625.449	-62.202	0.350	-0.147
-624.434	675.377	-0.237	0.621
-623.419	-116.708	0.552	-0.102
-622.405	300.809	-0.330	-0.614
-621.390	-145.810	0.203	0.018
-620.376	-51.994	0.543	0.254
-619.361	776.400	-0.124	-0.342
-618.346	-64.340	0.343	-0.141
-617.332	313.169	0.137	0.259
-616.317	-200.000	0.072	0.899
-615.303	-132.096	0.584	0.076
-614.288	800.000	-0.069	0.223
-613.273	376.507	-0.442	0.909
-612.259	656.435	-0.057	0.147
-611.244	-66.073	0.861	0.346
-610.230	-126.912	0.665	0.099
-609.215	800.000	0.102	0.434
-608.201	-103.483	0.277	0.065
-607.186	652.195	-0.326	0.840
-606.171	50.847	-0.419	0.400
-605.157	20.436	-0.655	0.533
-604.142	95.065	0.430	-0.493
-603.128	-92.026	-0.544	0.155
-602.113	287.200	-0.277	-0.504
-601.098	-78.181	-0.329	-0.114
-600.084	-200.000	0.107	-0.937
-599.069	-12.475	0.230	-0.151
-598.055	-60.431	0.397	0.170
-597.040	243.058	0.054	-0.091
-596.025	-96.218	0.209	0.056
-595.011	507.972	-0.187	0.436
-593.996	-46.429	-0.394	-0.194
-592.982	-16.246	0.933	-0.596
-591.967	64.007	0.405	0.409
-590.952	182.812	0.199	-0.296
-589.938	800.000	-0.160	0.552
-588.923	66.143	0.268	-0.273
-587.909	-76.020	0.631	0.225
-586.894	-7.568	-0.553	0.376
-585.879	532.295	0.411	-0.979
-584.865	800.000	0.197	-0.826
-583.850	-50.510	-0.483	-0.229
-582.836	99.617	-0.226	-0.264
-581.821	567.991	0.145	-0.354
-580.806	-200.000	-0.048	-0.288
-579.792	-73.498	-1.000	0.367
-578.777	-34.176	-0.339	-0.187
-577.763	800.000	-0.245	-0.831
-576.748	-42.718	-0.533	-0.272
-575.733	800.000	0.201	0.567
-574.719	-97.453	-0.058	0.015
-573.704	-60.795	0.162	0.069
-572.690	800.000	-0.135	0.580
-571.675	236.489	-0.235	0.390
-570.661	-33.580	-0.299	-0.166
-569.646	-46.502	0.277	0.137
-568.631	194.161	-0.152	-0.232
-567.617	753.037	0.138	0.374
-566.602	-200.000	0.105	0.508
-565.588	-102.932	-0.553	-0.132
-564.573	-70.284	-0.395	0.151
-563.558	-76.088	0.429	-0.152
-562.544	-80.554	0.414	0.139
-561.529	-44.929	0.237	0.119
-560.515	179.528	-0.101	0.149
-559.500	-46.983	0.323	0.159
-558.485	358.029	-0.248	-0.497
-557.471	-200.000	-0.007	0.279
-556.456	168.792	0.184	0.264
-555.442	-200.000	-0.070	0.768
-554.427	-115.278	0.346	0.066
-553.412	-200.000	-0.037	0.325
-552.398	17.165	-0.733	0.584
-551.383	30.453	0.559	-0.480
-550.369	800.000	0.148	0.415
-549.354	-109.246	0.863	-0.184
-548.339	9.627	0.371	0.282
-547.325	145.818	0.461	-0.620
-546.310	80.801	0.259	-0.281
-545.296	800.000	0.071	-0.292
-544.281	63.950	-0.313	0.316
-543.266	33.303	0.496	0.433
-542.252	-55.430	-0.284	-0.128
-541.237	800.000	-0.163	-0.492
-540.223	-155.513	-0.220	0.014
-539.208	98.233	-0.150	0.173
-538.193	147.087	-0.590	-0.796
-537.179	169.278	-0.381	0.546
-536.164	-55.767	0.167	0.075
-535.150	421.450	-0.238	-0.512
-534.135	-200.000	-0.079	-0.589
-533.121	-200.000	-0.035	-0.531
-532.106	800.000	0.209	-0.846
-531.091	-200.000	0.082	-0.629
-530.077	149.563	0.399	-0.543
-529.062	-22.037	-0.506	0.308
-528.048	25.899	1.020	0.853
-527.033	-27.138	-0.750	-0.439
-526.018	800.000	0.136	0.412
-525.004	-81.856	-0.612	0.201
-523.989	560.607	-0.233	-0.565
-522.975	-102.687	0.590	-0.141
-521.960	70.736	-0.466	-0.484
-520.945	311.994	0.196	-0.369
-519.931	800.000	0.146	0.560
-518.916	-37.174	-0.246	0.132
-517.902	-183.332	-0.569	-0.010
-516.887	-200.000	-0.042	-0.436
-515.872	268.688	-0.216	0.381
-514.858	-86.112	-0.448	-0.139
-513.843	462.664	-0.143	0.320
-512.829	130.575	-0.071	-0.091
-511.814	-177.943	0.675	0.016
-510.799	578.802	-0.095	0.233
-509.785	800.000	-0.237	0.668
-508.770	-41.453	-0.281	-0.145
-507.756	-200.000	0.008	0.596
-506.741	44.867	-0.363	0.335
-505.726	-40.257	0.583	0.304
-504.712	-7.813	0.462	0.313
-503.697	-86.117	-0.627	-0.194
-502.683	-94.396	-0.101	-0.027
-501.668	800.000	0.110	-0.306
-500.653	11.315	0.216	-0.166
-499.639	788.856	-0.216	0.595
-498.624	-200.000	-0.065	-0.578
-497.610	137.303	0.408	-0.534
-496.595	12.922	-0.344	-0.266
-495.581	-93.663	0.872	0.241
-494.566	126.915	0.541	0.687
-493.551	-151.121	-0.828	-0.062
-492.537	800.000	0.228	0.656
-491.522	153.210	0.561	0.769
-490.508	-90.436	-0.768	-0.223
-489.493	-109.710	-0.466	0.098
-488.478	-91.590	-0.635	-0.181
-487.464	-200.000	0.015	1.122
-486.449	-106.479	1.090	-0.244
-485.435	563.307	0.417	-1.010
-484.420	-186.382	-0.458	-0.007
-483.405	-144.282	-0.151	0.014
-482.391	-113.653	-1.175	-0.230
-481.376	20.881	-0.758	-0.616
-480.362	110.113	-0.181	-0.218
-479.347	27.883	-0.439	-0.371
-478.332	497.790	0.083	0.190
-477.318	-108.678	0.530	-0.114
-476.303	-105.870	-0.689	0.156
-475.289	-29.578	-0.451	0.258
-474.274	-48.361	-0.062	0.030
-473.259	-44.887	0.084	0.042
-472.245	637.474	0.465	-1.182
-471.230	800.000	-0.303	-0.871
-470.216	800.000	-0.232	-0.843
-469.201	50.364	-0.388	-0.367
-468.186	32.568	-0.694	-0.601
-467.172	365.064	0.162	0.326
-466.157	800.000	-0.186	-0.582
-465.143	800.000	-0.078	-0.235
-464.128	800.000	-0.135	0.445
-463.113	-88.099	-0.407	-0.122
-462.099	-200.000	-0.021	-0.224
-461.084	-200.000	-0.073	-0.550
-460.070	-108.693	-0.746	0.160
-459.055	50.653	-0.292	0.277
-458.040	685.126	0.241	0.630
-457.026	98.495	0.705	0.813
-456.011	-144.544	0.379	-0.035
-454.997	515.949	-0.107	-0.250
-453.982	-66.115	0.468	-0.187
-452.968	800.000	0.233	-0.766
-451.953	-121.372	-0.397	-0.066
-450.938	18.410	-0.192	0.153
-449.924	370.391	-0.295	-0.598
-448.909	-200.000	-0.013	0.155
-447.895	-33.701	0.616	0.340
-446.880	24.124	-0.536	-0.442
-445.865	-86.504	0.824	0.253
-444.851	-95.297	-0.816	0.220
-443.836	-153.513	1.140	-0.079
-442.822	-26.979	0.380	0.222
-441.807	2.599	0.284	-0.206
-440.792	85.549	0.335	0.368
-439.778	-175.597	0.611	0.017
-438.763	-86.175	-0.799	0.246
-437.749	-36.757	-0.428	0.230
-436.734	664.305	0.373	-0.963
-435.719	800.000	0.193	0.797
-434.705	-105.611	-0.799	0.181
-433.690	-146.089	-0.449	-0.040
-432.676	245.704	0.339	-0.571
-431.661	95.107	0.107	-0.122
-430.646	800.000	0.202	-0.703
-429.632	-79.445	0.456	0.154
-428.617	-54.422	0.410	0.186
-427.603	-112.913	-0.908	-0.180
-426.588	-64.013	0.335	-0.137
-425.573	340.481	0.248	0.484
-424.559	-200.000	0.086	-0.548
-423.544	-200.000	-0.100	0.855
-422.530	-15.058	0.870	0.557
-421.515	800.000	-0.188	-0.564
-420.500	-200.000	0.080	0.432
-419.486	84.155	0.761	-0.831
-418.471	-65.090	0.413	0.167
-417.457	130.410	-0.387	-0.496
-416.442	-30.901	0.775	0.438
-415.428	339.641	-0.160	-0.311
-414.413	-129.365	-0.319	0.044
-413.398	25.881	-0.457	-0.380
-412.384	-70.108	-0.302	-0.115
-411.369	-106.519	0.392	0.087
-410.355	-200.000	-0.000	-0.375
-409.340	631.155	-0.300	-0.758
-408.325	156.637	-0.641	-0.885
-407.311	800.000	-0.128	0.483
-406.296	-200.000	-0.036	-0.401
-405.282	-200.000	-0.031	-0.534
-404.267	-123.209	-0.887	0.142
-403.252	-9.919	-0.797	0.529
-402.238	714.585	0.252	-0.666
-401.223	-200.000	-0.017	-0.592
-400.209	-158.158	1.539	-0.090
-399.194	285.607	-0.265	0.476
-398.179	-69.567	-0.486	0.186
-397.165	800.000	0.180	0.584
-396.150	84.451	0.245	0.267
-395.136	480.065	0.367	-0.830
-394.121	-26.356	0.381	0.223
-393.106	573.370	-0.092	-0.223
-392.092	-95.121	-0.274	-0.074
-391.077	-12.067	0.601	-0.393
-390.063	155.019	-0.136	0.186
-389.048	800.000	-0.103	-0.432
-388.033	-56.095	-0.370	0.165
-387.019	201.938	0.413	-0.635
-386.004	249.745	-0.367	-0.621
-384.990	705.981	-0.172	-0.452
-383.975	-128.962	0.393	0.055
-382.960	-149.434	-0.192	0.015
-381.946	570.169	-0.174	-0.422
-380.931	-64.639	-0.228	-0.092
-379.917	-17.525	-0.475	0.298
-378.902	33.600	-0.206	0.179
-377.888	-44.578	-0.782	0.390
-376.873	379.956	-0.339	-0.694
-375.858	-109.681	-0.611	-0.128
-374.844	800.000	0.098	-0.286
-373.829	-96.316	-0.684	-0.181
-372.815	90.279	0.093	0.104
-371.800	-69.241	0.292	-0.112
-370.785	800.000	0.375	1.058
-369.771	49.606	-0.558	-0.524
-368.756	-193.348	0.334	-0.003
-367.742	103.493	-0.366	-0.428
-366.727	800.000	0.085	0.295
-365.712	284.903	0.148	0.265
-364.698	800.000	0.234	-0.723
-363.683	-161.650	0.695	-0.035
-362.669	-57.190	0.567	-0.249
-361.654	-36.662	-0.436	-0.233
-360.639	-2.578	0.624	0.435
-359.625	-200.000	0.034	-0.441
-358.610	-87.468	-1.236	-0.373
-357.596	228.845	0.500	-0.812
-356.581	-103.561	-1.038	-0.243
-355.566	-139.325	0.381	-0.041
-354.552	800.000	0.195	0.646
-353.537	162.971	0.549	-0.768
-352.523	1.733	0.693	0.498
-351.508	306.191	-0.245	0.454
-350.493	611.267	0.164	-0.409
-349.479	-200.000	0.017	-0.861
-348.464	-200.000	0.106	-0.727
-347.450	800.000	0.349	1.142
-346.435	-200.000	0.036	0.680
-345.420	800.000	0.102	0.292
-344.406	15.382	0.189	0.148
-343.391	-200.000	-0.025	-0.326
-342.377	-200.000	0.079	0.563
-341.362	-200.000	-0.078	0.533
-340.348	-145.995	-0.538	0.047
-339.333	800.000	-0.098	-0.326
-338.318	213.206	0.539	0.848
-337.304	260.695	0.320	-0.552
-336.289	208.933	0.715	-1.115
-335.275	653.576	0.307	-0.784
-334.260	800.000	-0.114	-0.379
-333.245	1.735	0.291	0.209
-332.231	-19.152	0.161	0.100
-331.216	-10.990	0.386	-0.254
-330.202	251.919	-0.136	0.231
-329.187	-85.855	0.516	-0.159
-328.172	7.094	-0.099	0.074
-327.158	227.443	0.377	0.610
-326.143	800.000	0.217	-0.893
-325.129	-46.115	0.147	-0.072
-324.114	-200.000	0.038	-0.177
-323.099	-0.060	0.273	0.193
-322.085	166.787	0.572	-0.807
-321.070	45.302	0.741	0.681
-320.056	4.033	-0.335	0.244
-319.041	-112.037	-0.522	-0.105
-318.026	449.308	-0.074	0.162
-317.012	-113.030	-0.104	-0.020
-315.997	-79.334	0.524	-0.176
-314.983	74.930	0.533	-0.559
-313.968	-16.361	0.119	-0.075
-312.953	-76.482	0.173	0.061
-311.939	453.135	-0.267	-0.587
-310.924	82.926	-0.087	0.094
-309.910	800.000	0.243	-0.917
-308.895	707.430	-0.255	-0.671
-307.880	-163.673	-0.901	0.042
-306.866	45.545	-0.591	0.543
-305.851	800.000	0.199	0.705
-304.837	-47.687	-1.155	-0.557
-303.822	351.494	0.202	0.398
-302.807	-200.000	0.048	0.836
-301.793	-200.000	-0.077	0.754
-300.778	34.636	0.174	0.152
-299.764	203.043	0.200	0.308
-298.749	-112.386	0.835	0.166
-297.735	-46.917	-0.923	-0.449
-296.720	23.145	0.493	-0.402
-295.705	-70.821	0.249	0.094
-294.691	585.440	0.394	0.964
-293.676	-150.537	-0.261	0.020
-292.662	51.806	0.324	0.307
-291.647	493.358	0.300	0.684
-290.632	-200.000	-0.053	0.681
-289.618	103.808	-0.295	-0.344
-288.603	2.135	-0.710	-0.510
-287.589	-200.000	0.081	-0.786
-286.574	-64.402	0.549	0.222
-285.559	-137.469	-1.067	0.120
-284.545	136.405	0.359	-0.466
-283.530	-103.113	-0.164	0.039
-282.516	0.723	0.260	0.185
-281.501	8.621	-1.112	0.832
-280.486	80.822	0.510	0.547
-279.472	491.898	0.181	-0.412
-278.457	-63.407	-0.545	0.223
-277.443	-93.957	1.286	0.351
-276.428	346.655	0.237	0.463
-275.413	492.864	0.195	0.444
-274.399	-180.263	-1.128	-0.023
-273.384	-200.000	0.002	-0.266
-272.370	-37.994	-0.191	-0.101
-271.355	-154.105	-0.449	0.030
-270.340	563.592	0.278	-0.669
-269.326	554.128	0.188	0.448
-268.311	152.787	0.302	-0.410
-267.297	800.000	0.165	0.664
-266.282	-200.000	-0.017	-0.288
-265.267	225.913	0.418	-0.673
-264.253	19.329	-0.346	-0.276
-263.238	126.073	-0.351	-0.441
-262.224	92.117	-0.253	0.283
-261.209	77.271	-0.673	0.711
-260.195	231.812	0.208	-0.338
-259.180	120.956	0.300	0.370
-258.165	-200.000	0.084	-0.395
-257.151	800.000	-0.190	0.648
-256.136	800.000	-0.090	-0.385
-255.122	-200.000	0.080	0.890
-254.107	800.000	0.220	0.755
-253.092	-84.355	0.347	0.109
-252.078	-85.522	0.417	-0.129
-251.063	-101.104	0.371	-0.090
-250.049	195.567	-0.655	0.988
-249.034	35.271	-0.317	0.275
-248.019	-200.000	-0.110	-0.592
-247.005	59.949	-0.600	0.588
-245.990	-200.000	-0.157	0.001
-244.976	66.809	0.824	0.832
-243.961	7.087	-0.563	0.417
-242.946	-200.000	0.031	0.314
-241.932	161.667	-0.342	0.474
-240.917	327.025	0.252	0.480
-239.903	-73.449	0.404	-0.147
-238.888	589.504	0.107	0.263
-237.873	-200.000	-0.006	-0.042
-236.859	-95.527	-0.327	0.087
-235.844	-200.000	0.030	0.729
-234.830	-200.000	0.083	-0.671
-233.815	95.704	-0.327	-0.370
-232.800	-111.748	0.812	-0.163
-231.786	-126.093	-0.129	0.019
-230.771	41.799	-0.389	-0.350
-229.757	-108.685	-0.267	0.057
-228.742	-0.649	-0.849	-0.597
-227.727	1.472	0.438	0.313
-226.713	251.167	0.252	0.425
-225.698	-24.068	0.553	-0.328
-224.684	-1.775	0.528	0.369
-223.669	479.272	-0.266	-0.598
-222.655	94.147	0.053	-0.060
-221.640	-8.958	0.428	0.284
-220.625	271.303	-0.491	0.857
-219.611	-200.000	0.050	-0.240
-218.596	-127.018	-0.375	0.055
-217.582	-46.882	0.635	-0.308
-216.567	-45.609	0.713	0.350
-215.552	-200.000	0.144	-0.660
-214.538	137.518	-0.225	0.292
-213.523	538.922	0.255	-0.600
-212.509	800.000	-0.082	-0.303
-211.494	-110.328	0.315	0.065
-210.479	96.505	-0.529	0.600
-209.465	256.537	0.174	0.296
-208.450	417.836	-0.083	0.176
-207.436	-11.661	-0.818	-0.532
-206.421	19.161	0.810	-0.644
-205.406	42.102	0.446	-0.401
-204.392	-28.197	-0.054	-0.031
-203.377	-75.471	-0.082	-0.029
-202.363	-33.827	-0.334	0.182
-201.348	-16.285	0.086	-0.054
-200.333	-121.676	-0.914	0.150
-199.319	-26.228	0.498	0.290
-198.304	438.361	0.170	0.367
-197.290	274.215	0.173	0.302
-196.275	-200.000	-0.011	0.355
-195.260	242.091	0.592	0.981
-194.246	577.807	0.344	0.833
-193.231	81.046	-0.279	-0.298
-192.217	-26.246	-0.617	-0.359
-191.202	361.526	0.263	0.523
-190.187	300.877	-0.275	0.503
-189.173	12.694	-0.515	0.394
-188.158	-74.599	-0.733	0.261
-187.144	-200.000	-0.070	-0.407
-186.129	800.000	-0.147	0.557
-185.114	755.231	0.198	0.530
-184.100	29.442	0.228	-0.192
-183.085	58.764	0.284	0.276
-182.071	-155.738	0.988	-0.063
-181.056	-119.408	1.040	0.179
-180.042	206.087	-0.162	0.249
-179.027	71.078	-0.304	0.312
-178.012	187.983	-0.449	-0.664
-176.998	490.266	-0.485	1.099
-175.983	-136.671	0.220	0.025
-174.969	-87.019	-0.222	0.067
-173.954	-200.000	-0.076	0.482
-172.939	-57.412	0.379	0.165
-171.925	800.000	0.059	-0.253
-170.910	-200.000	-0.084	0.445
-169.896	720.760	-0.158	-0.416
-168.881	-157.209	0.833	-0.050
-167.866	-7.718	-0.183	0.122
-166.852	-35.833	-0.643	0.344
-165.837	67.377	0.296	0.299
-164.823	-105.875	-0.936	0.209
-163.808	22.459	-0.309	-0.250
-162.793	-125.025	0.341	-0.052
-161.779	800.000	-0.198	0.605
-160.764	791.077	-0.170	-0.462
-159.750	-141.060	0.485	-0.049
-158.735	-200.000	0.071	0.375
-157.720	-135.977	0.797	-0.093
-156.706	-200.000	0.105	-0.484
-155.691	-200.000	-0.091	-0.463
-154.677	-200.000	-0.020	0.893
-153.662	-200.000	-0.021	-0.407
-152.647	-115.878	-0.906	-0.167
-151.633	453.190	0.388	-0.849
-150.618	-96.375	-1.014	0.265
-149.604	-4.819	-0.801	-0.546
-148.589	247.957	0.142	-0.238
-147.574	-200.000	-0.021	0.291
-146.560	303.546	0.342	0.627
-145.545	800.000	-0.198	-0.831
-144.531	166.783	0.464	-0.651
-143.516	-12.915	-0.430	-0.277
-142.502	-85.243	0.740	0.229
-141.487	-27.850	-0.600	-0.344
-140.472	-113.009	-0.504	-0.098
-139.458	-81.555	0.735	-0.239
-138.443	-104.107	0.070	-0.016
-137.429	133.647	0.572	0.731
-136.414	-54.994	-0.556	0.248
-135.399	-200.000	0.087	0.624
-134.385	426.072	0.131	-0.278
-133.370	276.498	-0.233	0.409
-132.356	8.621	0.215	-0.160
-131.341	484.049	-0.348	0.781
-130.326	140.155	0.319	-0.415
-129.312	-30.258	0.487	0.273
-128.297	800.000	-0.046	0.185
-127.283	123.699	-0.260	-0.322
-126.268	-200.000	-0.009	-0.240
-125.253	381.911	0.079	0.161
-124.239	-52.971	0.644	-0.292
-123.224	800.000	0.124	0.397
-122.210	82.006	-0.427	-0.457
-121.195	147.029	0.610	-0.810
-120.180	-56.146	0.499	0.219
-119.166	-200.000	-0.419	-0.002
-118.151	-72.398	0.667	0.244
-117.137	302.378	0.615	1.124
-116.122	-51.713	-0.263	-0.121
-115.107	-200.000	0.012	0.404
-114.093	-88.543	-0.110	-0.032
-113.078	-147.995	-0.082	0.007
-112.064	-200.000	0.068	-0.557
-111.049	-173.191	0.270	-0.008
-110.034	-200.000	-0.031	-0.664
-109.020	-116.066	-0.739	0.136
-108.005	-85.525	-0.315	0.097
-106.991	-200.000	0.014	0.248
-105.976	-200.000	0.052	-0.469
-104.962	-150.221	0.165	-0.013
-103.947	-118.781	-0.721	-0.125
-102.932	-94.474	-0.498	-0.134
-101.918	-99.744	-0.922	0.228
-100.903	-104.715	0.780	-0.177
-99.889	139.076	0.325	0.422
-98.874	465.133	0.129	0.285
-97.859	126.437	0.071	0.089
-96.845	106.506	0.426	-0.499
-95.830	557.166	0.097	0.232
-94.816	156.659	0.762	1.038
-93.801	-200.000	-0.027	-0.212
-92.786	9.186	-0.418	0.311
-91.772	-200.000	-0.016	0.135
-90.757	31.211	-0.141	0.119
-89.743	130.788	-0.553	-0.700
-88.728	-167.025	0.244	-0.010
-87.713	-96.376	-1.010	0.264
-86.699	136.162	-0.655	0.843
-85.684	800.000	0.096	0.383
-84.670	72.923	0.242	0.250
-83.655	-200.000	0.141	-0.691
-82.640	-137.784	-0.130	0.014
-81.626	386.818	-0.297	0.606
-80.611	800.000	-0.187	0.645
-79.597	-36.496	0.365	-0.193
-78.582	-14.373	-0.542	0.344
-77.567	499.945	-0.202	0.458
-76.553	-43.426	0.416	0.207
-75.538	-200.000	0.027	-0.427
-74.524	29.088	-0.378	-0.316
-73.509	-200.000	-0.085	0.742
-72.494	-151.723	-0.590	0.043
-71.480	44.274	-0.610	-0.552
-70.465	33.144	0.419	0.359
-69.451	36.206	-0.648	0.563
-68.436	800.000	-0.136	-0.551
-67.422	-126.872	0.924	0.134
-66.407	800.000	-0.214	-0.815
-65.392	77.270	-0.081	0.085
-64.378	-139.148	-0.529	-0.056
-63.363	-16.656	-0.515	0.321
-62.349	55.919	0.719	0.687
-61.334	-8.731	-1.694	-1.119
-60.319	85.177	0.821	0.888
-59.305	-200.000	-0.169	-1.202
-58.290	800.000	0.267	0.860
-57.276	133.259	1.345	1.712
-56.261	-200.000	95.922	571.976
-55.246	636.820	1368.110	3422.927
-54.232	201.102	2532.681	3839.328
-53.217	117.221	2129.169	2577.664
-52.203	44.672	1596.813	1446.229
-51.188	36.857	1336.360	1163.577
-50.173	33.469	1295.442	1108.129
-49.159	56.255	1344.722	1286.492
-48.144	57.626	1361.708	1310.846
-47.130	36.468	1319.751	1146.627
-46.115	33.309	1301.266	1111.999
-45.100	33.016	1296.545	1106.205
-44.086	32.864	1294.955	1103.912
-43.071	32.937	1292.841	1102.493
-42.057	32.799	1290.096	1099.306
-41.042	33.163	1287.567	1099.221
-40.027	33.315	1286.170	1098.871
-39.013	33.079	1284.754	1096.246
-37.998	33.160	1284.318	1096.302
-36.984	33.046	1282.669	1094.191
-35.969	32.994	1280.827	1092.274
-34.954	33.311	1276.923	1090.727
-33.940	33.276	1277.156	1090.681
-32.925	33.294	1275.574	1089.390
-31.911	33.193	1273.976	1087.402
-30.896	33.141	1273.006	1086.234
-29.881	33.277	1271.271	1085.489
-28.867	33.298	1269.969	1084.457
-27.852	33.147	1268.807	1082.558
-26.838	33.349	1266.440	1081.648
-25.823	33.286	1264.807	1079.848
-24.809	33.187	1264.980	1079.393
-23.794	33.289	1263.145	1078.362
-22.779	33.173	1262.407	1077.029
-21.765	33.216	1260.588	1075.677
-20.750	33.252	1259.572	1074.973
-19.736	32.980	1258.459	1072.437
-18.721	33.068	1257.511	1072.086
-17.706	33.134	1256.471	1071.533
-16.692	33.160	1254.745	1070.165
-15.677	32.806	1255.112	1068.430
-14.663	33.123	1252.421	1067.887
-13.648	33.199	1250.621	1066.741
-12.633	33.144	1250.017	1065.871
-11.619	33.063	1249.610	1065.025
-10.604	33.049	1249.607	1064.905
-9.590	33.018	1247.951	1063.276
-8.575	32.853	1247.664	1062.061
-7.560	33.050	1246.992	1062.552
-6.546	32.945	1245.313	1060.491
-5.531	32.928	1244.652	1059.792
-4.517	33.044	1243.617	1059.517
-3.502	32.955	1243.942	1059.251
-2.487	33.127	1242.046	1058.561
-1.473	33.135	1237.144	1054.387
-0.458	31.594	1222.774	1033.596
0.556	28.495	1205.245	993.153
1.571	24.950	1209.624	977.364
2.586	23.764	1225.637	983.655
3.600	23.222	1213.614	970.945
4.615	17.092	1143.500	882.988
5.629	7.885	1066.422	778.545
6.644	3.446	1046.764	742.779
7.659	2.921	1044.670	738.701
8.673	2.606	1042.661	735.705
9.688	2.829	1041.003	735.537
10.702	3.228	1039.794	736.527
11.717	9.300	1047.876	771.395
12.731	18.709	1061.587	826.953
13.746	24.058	1068.273	857.943
14.761	25.012	1069.371	863.348
15.775	24.952	1068.882	862.583
16.790	24.688	1068.716	861.104
17.804	24.658	1066.895	859.417
18.819	24.593	1068.242	860.111
19.834	24.961	1065.826	859.857
20.848	24.954	1066.309	860.138
21.863	24.757	1065.449	858.424
22.877	24.528	1065.877	857.592
23.892	24.778	1064.738	857.798
24.907	24.762	1063.262	856.457
25.921	24.580	1062.664	855.029
26.936	24.784	1060.843	854.463
27.950	24.399	1060.561	852.321
28.965	24.514	1058.124	850.835
29.980	24.485	1056.418	849.252
30.994	24.863	1055.843	850.508
32.009	24.717	1055.112	849.153
33.023	24.873	1054.093	848.995
34.038	24.693	1052.796	847.023
35.053	24.550	1052.735	846.221
36.067	24.868	1051.558	846.708
37.082	24.361	1051.323	844.045
38.096	24.760	1049.481	844.376
39.111	24.876	1050.247	845.467
40.126	24.753	1048.441	843.358
41.140	24.538	1046.108	840.394
42.155	24.658	1045.137	840.101
43.169	24.329	1044.824	838.233
44.184	24.441	1044.161	838.153
45.199	24.267	1043.593	836.803
46.213	24.462	1042.199	836.524
47.228	24.780	1040.836	836.844
48.242	25.025	1040.157	837.371
49.257	25.050	1039.731	837.069
50.271	24.934	1039.029	835.893
51.286	25.074	1038.373	835.940
52.301	24.784	1037.939	834.168
53.315	24.947	1036.446	833.653
54.330	24.851	1035.418	832.307
55.344	24.738	1034.730	831.151
56.359	24.589	1034.270	830.016
57.374	24.668	1033.165	829.423
58.388	24.793	1032.212	829.163
59.403	24.354	1031.818	826.741
60.417	24.540	1030.855	826.758
61.432	24.502	1031.079	826.688
62.447	24.570	1030.772	826.681
63.461	24.920	1028.991	826.797
64.476	24.450	1028.335	824.028
65.490	24.589	1027.224	823.706
66.505	24.490	1026.582	822.664
67.520	24.807	1025.625	823.281
68.534	24.375	1024.935	820.667
69.549	24.186	1024.372	819.277
70.563	24.422	1022.397	818.704
71.578	24.418	1022.241	818.492
72.593	24.212	1021.274	816.700
73.607	24.144	1020.823	815.958
74.622	24.595	1020.618	817.785
75.636	24.250	1019.939	815.588
76.651	24.516	1018.637	815.690
77.666	24.053	1018.918	813.728
78.680	24.683	1017.187	815.150
79.695	24.294	1016.363	812.641
80.709	24.513	1016.991	814.072
81.724	24.507	1015.841	813.050
82.739	24.745	1015.266	813.601
83.753	25.013	1014.425	814.075
84.768	25.485	1013.351	815.284
85.782	25.349	1013.629	814.819
86.797	25.277	1012.061	813.160
87.812	25.055	1010.964	811.202
88.826	25.259	1009.498	810.873
89.841	25.464	1008.865	811.218
90.855	25.371	1008.120	810.129
91.870	24.983	1008.280	808.435
92.884	25.154	1007.345	808.386
93.899	25.184	1006.324	807.629
94.914	25.290	1004.320	806.426
95.928	25.224	1003.512	805.407
96.943	24.748	1003.900	803.509
97.957	24.582	1002.486	801.564
98.972	24.812	1000.929	801.277
99.987	25.178	1000.703	802.666
101.001	24.931	999.787	800.752
102.016	24.934	999.269	800.284
103.030	24.891	999.022	799.820
104.045	24.908	997.855	798.893
105.060	24.667	997.297	797.298
106.074	25.149	995.836	798.206
107.089	25.252	995.665	798.460
108.103	25.005	993.461	795.522
109.118	24.707	992.700	793.523
110.133	24.722	991.488	792.548
111.147	24.707	990.172	791.359
112.162	24.606	989.533	790.333
113.176	24.686	990.143	791.103
114.191	24.766	988.561	790.122
115.206	24.574	987.488	788.347
116.220	24.404	987.424	787.476
117.235	24.465	986.099	786.618
118.249	24.465	985.200	785.834
119.264	24.361	985.099	785.227
120.279	24.225	984.416	784.014
121.293	24.299	983.447	783.496
122.308	24.607	981.569	783.283
123.322	24.237	980.490	780.731
124.337	24.337	979.170	780.050
125.352	24.370	978.180	779.335
126.366	23.955	978.284	777.538
127.381	24.461	977.506	779.060
128.395	24.851	977.061	780.336
129.410	24.806	976.272	779.441
130.424	24.773	975.402	778.534
131.439	25.024	973.974	778.415
132.454	25.086	973.051	777.879
133.468	24.765	972.266	775.790
134.483	24.776	972.541	775.988
135.497	25.259	971.609	777.267
136.512	24.982	971.218	775.686
137.527	25.173	969.456	775.036
138.541	25.048	968.427	773.606
139.556	24.799	968.572	772.579
140.570	25.251	967.049	773.244
141.585	25.083	967.114	772.501
142.600	25.129	965.582	771.409
143.614	25.333	964.549	771.393
144.629	25.367	964.449	771.388
145.643	25.195	963.312	769.673
146.658	25.240	961.406	768.276
147.673	25.379	960.152	767.799
148.687	25.006	960.237	766.204
149.702	25.066	957.842	764.480
150.716	25.140	958.234	765.041
151.731	24.972	957.433	763.621
152.746	25.281	955.381	763.229
153.760	25.364	955.594	763.686
154.775	25.476	955.223	763.796
155.789	25.273	954.783	762.516
156.804	25.133	954.027	761.250
157.819	25.304	952.480	760.672
158.833	25.355	952.895	761.154
159.848	25.729	951.387	761.461
160.862	25.428	949.527	758.636
161.877	25.320	948.637	757.403
162.892	25.378	947.328	756.534
163.906	25.455	946.614	756.223
164.921	25.312	946.835	755.731
165.935	25.202	944.953	753.698
166.950	25.037	945.033	753.001
167.964	25.250	942.724	751.988
168.979	25.227	943.094	752.120
169.994	25.512	940.827	751.439
171.008	25.658	940.176	751.463
172.023	25.729	939.979	751.532
173.037	25.352	939.820	749.766
174.052	25.279	938.501	748.342
175.067	25.363	937.949	748.188
176.081	25.128	937.309	746.631
177.096	24.804	936.379	744.478
178.110	24.710	936.007	743.726
179.125	24.689	935.100	742.849
180.140	24.920	934.495	743.262
181.154	24.877	934.615	743.114
182.169	25.184	934.254	744.037
183.183	25.373	933.303	743.995
184.198	25.199	933.024	742.987
185.213	25.095	932.404	741.997
186.227	25.251	931.395	741.772
187.242	25.483	930.950	742.311
188.256	25.458	930.074	741.442
189.271	25.584	929.517	741.455
190.286	25.385	928.161	739.487
191.300	24.862	926.867	736.241
192.315	23.902	926.336	731.802
193.329	23.884	925.906	731.327
194.344	24.687	926.415	734.967
195.359	25.374	924.951	736.560
196.373	25.303	925.748	736.837
197.388	25.348	924.751	736.162
198.402	25.647	924.491	737.116
199.417	25.650	924.060	736.719
200.432	25.255	923.622	734.687
201.446	25.282	922.322	733.698
202.461	25.530	922.541	734.823
203.475	24.727	920.080	729.523
204.490	23.810	918.507	724.475
205.504	24.822	918.899	728.843
206.519	25.122	919.400	730.399
207.534	25.047	918.635	729.423
208.548	25.507	917.325	730.186
209.563	25.316	917.271	729.303
210.577	25.116	916.956	728.175
211.592	25.637	916.179	729.609
212.607	25.540	914.615	727.906
213.621	25.708	914.072	728.089
214.636	25.503	914.146	727.252
215.650	25.625	913.358	727.055
216.665	25.231	913.287	725.342
217.680	25.416	911.606	724.690
218.694	25.315	910.939	723.685
219.709	25.246	910.536	723.025
220.723	25.245	909.987	722.520
221.738	25.247	909.080	721.742
222.753	25.317	909.341	722.169
223.767	25.542	908.219	722.118
224.782	25.723	907.806	722.454
225.796	25.815	907.185	722.264
226.811	25.336	906.328	719.599
227.826	24.753	904.797	715.984
228.840	24.744	905.046	716.083
229.855	25.246	903.444	716.757
230.869	24.723	903.709	714.815
231.884	24.703	903.261	714.317
232.899	25.469	903.001	717.107
233.913	25.252	902.377	715.681
234.928	25.067	901.242	713.983
235.942	25.305	900.577	714.337
236.957	24.900	900.736	712.790
237.972	24.899	899.594	711.820
238.986	24.939	898.926	711.388
240.001	25.055	897.810	710.902
241.015	25.239	897.448	711.281
242.030	25.645	896.073	711.735
243.045	25.446	896.589	711.295
244.059	25.336	896.593	710.798
245.074	25.317	894.813	709.249
246.088	25.515	894.071	709.381
247.103	25.707	894.208	710.181
248.117	25.920	894.800	711.433
249.132	26.226	894.550	712.376
250.147	26.284	893.536	711.733
251.161	25.866	893.557	710.041
252.176	26.217	891.663	709.854
253.190	26.543	891.414	710.874
254.205	26.248	891.438	709.672
255.220	26.425	890.099	709.234
256.234	26.167	889.819	707.938
257.249	26.330	888.318	707.318
258.263	26.177	888.406	706.727
259.278	26.033	888.286	706.009
260.293	26.133	887.404	705.635
261.307	26.357	886.884	706.032
262.322	25.871	886.108	703.455
263.336	25.852	884.379	701.946
264.351	24.889	883.123	697.141
265.366	25.685	882.364	699.576
266.380	26.007	882.731	701.057
267.395	26.314	881.588	701.278
268.409	25.874	882.323	700.090
269.424	25.975	880.773	699.190
270.439	26.209	880.385	699.728
271.453	25.831	880.495	698.288
272.468	26.355	879.617	699.559
273.482	26.226	879.559	698.952
274.497	25.990	877.639	696.454
275.512	25.642	877.502	694.940
276.526	25.901	877.676	696.013
277.541	26.055	877.709	696.574
278.555	25.838	877.481	695.493
279.570	25.908	876.120	694.622
280.585	26.093	874.932	694.331
281.599	26.008	874.770	693.815
282.614	25.655	873.598	691.466
283.628	25.477	872.318	689.710
284.643	25.767	872.586	690.975
285.657	25.813	871.373	690.127
286.672	25.449	871.140	688.490
287.687	25.785	870.456	689.173
288.701	26.007	869.424	689.143
289.716	25.898	869.121	688.425
290.730	25.580	869.355	687.334
291.745	25.502	868.232	686.090
292.760	25.859	868.328	687.465
293.774	26.232	868.226	688.747
294.789	26.483	866.570	688.327
295.803	26.620	865.915	688.267
296.818	26.134	865.378	685.933
297.833	26.236	863.954	685.133
298.847	25.928	864.795	684.567
299.862	26.221	863.695	684.748
300.876	26.254	863.514	684.669
301.891	26.229	863.201	684.264
302.906	26.167	862.691	683.567
303.920	26.398	861.892	683.745
304.935	26.682	860.913	683.980
305.949	26.503	859.983	682.505
306.964	26.361	859.480	681.514
307.979	26.160	859.419	680.646
308.993	26.433	858.836	681.153
310.008	26.652	857.579	680.919
311.022	26.521	857.970	680.675
312.037	26.319	857.123	679.183
313.052	26.126	856.354	677.792
314.066	25.762	854.703	675.059
315.081	25.493	854.359	673.719
316.095	25.908	854.837	675.592
317.110	25.640	854.833	674.526
318.125	25.491	853.533	672.883
319.139	25.041	852.357	670.212
320.154	24.875	850.762	668.281
321.168	25.383	850.963	670.273
322.183	25.793	850.812	671.625
323.197	25.996	851.732	673.051
324.212	25.998	850.176	671.769
325.227	26.151	850.656	672.659
326.241	25.891	849.277	670.540
327.256	25.563	849.304	669.281
328.270	25.743	848.382	669.165
329.285	25.792	846.953	668.160
330.300	25.303	846.784	666.155
331.314	25.568	846.533	666.882
332.329	26.321	845.608	668.882
333.343	26.170	845.601	668.259
334.358	26.243	845.032	668.020
335.373	26.556	843.718	668.078
336.387	26.504	844.192	668.202
337.402	26.842	844.314	669.488
338.416	26.564	843.819	668.009
339.431	26.646	843.525	668.018
340.446	26.713	843.586	668.257
341.460	26.609	842.911	667.278
342.475	26.688	841.891	666.702
343.489	26.758	842.397	667.302
344.504	26.924	842.029	667.562
345.519	26.867	841.133	666.585
346.533	26.740	840.801	665.794
347.548	26.752	840.399	665.460
348.562	26.740	839.919	664.979
349.577	26.855	839.633	665.115
350.592	26.422	838.654	662.695
351.606	26.455	837.295	661.683
352.621	26.633	836.952	662.003
353.635	26.787	836.116	661.846
354.650	26.282	835.840	659.725
355.665	25.967	833.498	656.673
356.679	26.321	833.190	657.659
357.694	26.038	833.821	657.070
358.708	25.958	832.730	655.860
359.723	26.296	831.766	656.272
360.738	26.405	830.686	655.756
361.752	26.351	831.863	656.429
362.767	26.842	831.324	657.729
363.781	26.797	830.196	656.614
364.796	26.760	829.683	656.018
365.810	26.815	829.156	655.740
366.825	26.694	829.937	655.862
367.840	26.483	829.312	654.546
368.854	26.482	828.424	653.787
369.869	26.354	827.666	652.669
370.883	26.441	827.357	652.680
371.898	26.607	827.293	653.170
372.913	26.714	826.037	652.505
373.927	26.764	825.037	651.840
374.942	26.939	824.430	651.930
375.956	26.540	825.103	650.970
376.971	26.797	825.023	651.774
377.986	26.563	824.493	650.456
379.000	26.857	824.342	651.334
380.015	26.626	823.035	649.417
381.029	26.840	821.912	649.239
382.044	27.075	821.421	649.632
383.059	26.600	822.197	648.491
384.073	27.136	819.998	648.613
385.088	26.600	819.351	646.130
386.102	26.311	819.147	644.881
387.117	26.537	818.437	645.072
388.132	26.238	817.929	643.550
389.146	26.337	817.716	643.677
390.161	26.711	815.811	643.447
391.175	27.171	816.359	645.458
392.190	26.598	815.887	642.994
393.205	25.853	814.416	639.136
394.219	25.003	813.004	634.960
395.234	24.857	813.251	634.579
396.248	26.025	813.450	638.817
397.263	26.654	812.417	640.174
398.278	26.187	813.219	639.096
399.292	26.004	812.274	637.650
400.307	25.913	811.855	636.943
401.321	25.736	811.999	636.372
402.336	26.123	811.901	637.606
403.350	26.806	811.283	639.477
404.365	26.860	811.546	639.816
405.380	27.378	810.108	640.451
406.394	26.941	810.061	638.818
407.409	27.009	809.869	638.850
408.423	27.147	809.527	639.008
409.438	27.328	808.537	638.808
410.453	26.940	808.566	637.412
411.467	26.694	808.433	636.387
412.482	26.860	808.091	636.643
413.496	27.092	806.820	636.398
414.511	26.904	807.106	635.910
415.526	27.077	805.269	635.008
416.540	27.043	805.866	635.305
417.555	27.048	804.564	634.238
418.569	27.269	803.893	634.425
419.584	27.510	802.801	634.347
420.599	27.001	803.307	632.915
421.613	159.782	1371.044	1793.438
422.628	138.779	1453.709	1793.470
