DTS Sentinel unit serial number:	SN413079Multiplexer serial number:	ORYXHardware model number:	OX4-SRSoftware version number:	ORYX F/W v4.00 Oryx Data Collector v3.7.2.0data status	okinstallation	princeton_trtdifferential loss correction	single-endedforward channel	channel 1reverse channel	N/Adate	2019/09/14time	08:26:35forward acquisition time	60.00reverse acquisition time	0.00gamma	496.2192k internal	0.2327k external	0.2327temperature offset calibration	1.0072default loss term (dB/km)	0.3790temperature slope calibration	1.0000multiplexer offset coefficient	1.0000multiplexer slope coefficient	1.0000fibre end	0.00T internal ref (°C)	28.23T ext. ref 1 (°C)	3.62T ext. ref 2 (°C)	25.89length (m)	temperature (°C)	Stokes	anti-Stokes-747.200	304.087	0.125	0.234
-746.185	-115.083	0.296	0.057
-745.171	-200.000	0.031	-0.415
-744.156	-200.000	0.029	0.383
-743.142	-139.217	0.364	0.040
-742.127	93.435	-0.174	0.199
-741.112	-61.118	0.059	0.025
-740.098	-64.385	-0.207	0.085
-739.083	62.026	-0.062	0.062
-738.069	-168.183	-0.106	-0.004
-737.054	-60.085	0.125	0.054
-736.039	398.560	-0.061	-0.128
-735.025	18.047	0.086	0.069
-734.010	-200.000	0.001	-0.023
-732.996	-61.612	-0.075	0.032
-731.981	-79.812	0.136	0.046
-730.966	359.827	0.105	-0.212
-729.952	-51.443	-0.167	-0.079
-728.937	405.636	0.104	0.221
-727.923	-88.397	-0.318	-0.096
-726.908	72.518	-0.124	0.130
-725.894	800.000	0.149	0.448
-724.879	-57.557	0.204	-0.090
-723.864	-105.897	-0.082	0.019
-722.850	-181.349	0.159	0.003
-721.835	125.201	-0.182	-0.231
-720.821	-147.658	0.207	0.018
-719.806	800.000	0.028	0.124
-718.791	270.450	-0.168	-0.298
-717.777	253.001	0.125	-0.215
-716.762	-200.000	0.006	0.113
-715.748	-200.000	-0.041	0.360
-714.733	-28.840	-0.286	0.166
-713.718	73.307	-0.137	-0.144
-712.704	473.243	-0.055	-0.126
-711.689	653.282	0.152	0.391
-710.675	-179.780	0.172	0.004
-709.660	-198.977	0.216	0.001
-708.645	226.328	0.033	0.054
-707.631	5.339	0.255	-0.189
-706.616	16.615	-0.088	-0.070
-705.602	-200.000	0.014	-0.068
-704.587	-82.244	0.332	0.109
-703.572	209.497	0.132	-0.207
-702.558	210.004	-0.133	-0.211
-701.543	-77.921	0.085	0.029
-700.529	4.644	-0.259	-0.192
-699.514	800.000	0.044	-0.173
-698.499	-86.627	-0.128	-0.039
-697.485	800.000	0.082	-0.284
-696.470	191.482	0.088	-0.134
-695.456	164.320	-0.054	0.077
-694.441	466.402	0.055	0.125
-693.426	66.005	0.171	0.174
-692.412	-79.766	-0.224	0.076
-691.397	800.000	-0.127	-0.554
-690.383	-76.974	-0.204	-0.072
-689.368	-127.928	-0.365	-0.053
-688.354	800.000	-0.039	-0.148
-687.339	-44.475	-0.446	-0.224
-686.324	-200.000	-0.004	-0.222
-685.310	-15.074	-0.346	-0.223
-684.295	-115.685	-0.115	0.022
-683.281	410.351	-0.095	-0.203
-682.266	800.000	-0.187	-0.557
-681.251	0.431	-0.357	0.256
-680.237	-77.570	0.140	0.049
-679.222	174.004	0.152	-0.221
-678.208	-200.000	0.001	-0.031
-677.193	-21.225	0.072	-0.044
-676.178	800.000	0.032	-0.110
-675.164	-65.604	-0.132	-0.053
-674.149	-31.174	-0.143	-0.081
-673.135	-200.000	-0.034	-0.300
-672.120	-200.000	-0.010	-0.073
-671.105	-159.754	-0.190	0.011
-670.091	800.000	-0.073	0.219
-669.076	-132.042	-0.142	-0.019
-668.062	-179.026	-0.106	0.002
-667.047	332.660	-0.180	-0.350
-666.032	-76.126	0.175	0.062
-665.018	-167.933	0.166	0.007
-664.003	140.517	-0.244	-0.324
-662.989	-5.383	0.197	0.136
-661.974	-200.000	0.099	-0.440
-660.959	165.076	0.240	-0.341
-659.945	170.993	0.219	0.316
-658.930	800.000	0.125	0.435
-657.916	463.933	0.137	-0.307
-656.901	-200.000	-0.012	-0.337
-655.886	-25.669	-0.429	-0.254
-654.872	-80.102	-0.310	0.104
-653.857	154.402	0.101	0.140
-652.843	-98.895	-0.188	-0.048
-651.828	321.185	-0.164	-0.312
-650.814	-115.217	-0.302	-0.057
-649.799	-114.992	0.026	0.005
-648.784	800.000	0.038	-0.147
-647.770	-78.713	0.402	-0.138
-646.755	59.506	-0.248	0.246
-645.741	800.000	0.072	0.213
-644.726	-125.279	0.303	0.046
-643.711	-53.839	-0.394	-0.180
-642.697	176.058	-0.198	-0.289
-641.682	58.591	0.260	-0.257
-640.668	151.410	-0.085	0.117
-639.653	169.797	-0.172	0.247
-638.638	53.462	0.117	-0.112
-637.624	139.460	-0.166	0.219
-636.609	800.000	-0.085	0.320
-635.595	-34.865	-0.186	-0.102
-634.580	-130.719	0.028	-0.004
-633.565	-200.000	-0.058	-0.337
-632.551	234.172	-0.271	-0.449
-631.536	800.000	0.048	0.205
-630.522	-200.000	-0.010	-0.114
-629.507	-137.885	0.053	-0.006
-628.492	256.814	-0.146	-0.252
-627.478	304.832	-0.048	0.089
-626.463	-200.000	-0.054	-0.273
-625.449	-129.703	0.075	-0.010
-624.434	-60.378	-0.170	-0.073
-623.419	27.311	-0.269	0.227
-622.405	310.303	0.115	-0.216
-621.390	109.037	-0.105	0.126
-620.376	-82.003	-0.229	-0.075
-619.361	-171.232	0.346	-0.012
-618.346	426.104	-0.066	0.142
-617.332	350.048	0.049	-0.097
-616.317	-26.106	0.092	-0.054
-615.303	-5.698	0.050	0.034
-614.288	508.610	0.129	0.300
-613.273	302.086	-0.137	0.254
-612.259	517.818	-0.064	-0.150
-611.244	800.000	-0.074	0.296
-610.230	330.552	0.107	0.207
-609.215	800.000	0.081	-0.265
-608.201	-83.370	0.102	-0.033
-607.186	3.527	-0.108	-0.079
-606.171	800.000	-0.043	-0.137
-605.157	800.000	-0.059	0.204
-604.142	81.500	0.121	0.131
-603.128	-200.000	0.010	-0.117
-602.113	197.252	0.276	-0.422
-601.098	800.000	0.119	-0.364
-600.084	85.990	0.132	0.146
-599.069	184.636	-0.161	0.239
-598.055	-17.770	-0.276	0.174
-597.040	89.272	-0.126	0.140
-596.025	-59.146	-0.335	-0.145
-595.011	108.772	0.150	0.180
-593.996	300.581	-0.113	0.210
-592.982	-200.000	0.036	-0.388
-591.967	-174.249	0.260	-0.008
-590.952	145.758	-0.235	0.315
-589.938	-95.577	-0.260	-0.070
-588.923	361.082	0.069	0.138
-587.909	-200.000	0.025	-0.117
-586.894	-200.000	0.034	-0.344
-585.879	113.106	-0.248	0.302
-584.865	100.735	0.069	-0.080
-583.850	122.486	-0.140	-0.175
-582.836	30.819	0.261	-0.224
-581.821	100.166	0.070	0.082
-580.806	235.136	-0.091	-0.150
-579.792	-132.488	-0.296	0.038
-578.777	-195.303	0.103	0.001
-577.763	-200.000	0.011	-0.204
-576.748	21.373	-0.182	-0.148
-575.733	-200.000	0.015	0.532
-574.719	40.199	-0.153	-0.138
-573.704	-200.000	-0.008	0.085
-572.690	-142.417	0.176	0.017
-571.675	-33.287	-0.363	0.201
-570.661	-26.029	0.052	-0.031
-569.646	60.267	0.113	0.112
-568.631	94.729	-0.170	-0.194
-567.617	56.748	0.107	-0.105
-566.602	-77.405	-0.153	-0.053
-565.588	-54.580	-0.041	0.018
-564.573	88.865	0.117	0.130
-563.558	-200.000	0.103	-0.509
-562.544	-200.000	-0.034	-0.183
-561.529	469.907	0.143	0.322
-560.515	-147.907	-0.278	0.023
-559.500	800.000	0.059	-0.197
-558.485	-200.000	-0.046	0.238
-557.471	800.000	0.034	-0.138
-556.456	-79.465	0.256	-0.087
-555.442	342.597	0.092	0.179
-554.427	177.998	-0.046	-0.067
-553.412	33.515	0.120	-0.104
-552.398	-112.996	-0.519	0.103
-551.383	-61.427	-0.265	-0.111
-550.369	-200.000	0.020	-0.347
-549.354	-71.929	0.067	0.025
-548.339	-199.243	0.413	-0.002
-547.325	800.000	-0.080	-0.225
-546.310	113.837	-0.049	-0.059
-545.296	283.270	-0.046	-0.082
-544.281	-1.297	-0.140	0.099
-543.266	-33.782	-0.107	0.059
-542.252	-200.000	0.001	0.068
-541.237	711.552	-0.099	0.263
-540.223	-110.129	-0.144	0.030
-539.208	-117.861	0.329	-0.059
-538.193	47.562	0.070	0.065
-537.179	-1.147	-0.141	0.100
-536.164	-58.213	0.317	0.138
-535.150	-200.000	0.099	-0.543
-534.135	800.000	0.022	-0.092
-533.121	156.586	0.173	-0.238
-532.106	-99.464	0.307	-0.077
-531.091	-7.281	-0.212	-0.144
-530.077	166.089	0.057	-0.080
-529.062	-200.000	0.032	0.331
-528.048	35.484	-0.187	-0.164
-527.033	35.888	0.123	-0.108
-526.018	-200.000	-0.052	-0.408
-525.004	-18.123	0.169	0.106
-523.989	102.888	-0.182	-0.213
-522.975	561.490	0.153	-0.370
-521.960	-200.000	0.014	-0.247
-520.945	800.000	0.117	0.377
-519.931	-29.875	-0.411	-0.234
-518.916	-73.203	0.045	-0.016
-517.902	-129.962	-0.312	-0.043
-516.887	13.993	-0.245	-0.190
-515.872	128.492	0.126	0.160
-514.858	-139.896	-0.090	-0.009
-513.843	-200.000	-0.001	-0.214
-512.829	-200.000	-0.011	-0.197
-511.814	31.228	-0.259	-0.222
-510.799	-200.000	0.022	-0.112
-509.785	-200.000	-0.041	-0.312
-508.770	391.245	-0.011	0.023
-507.756	745.312	-0.216	0.579
-506.741	-104.687	0.611	-0.141
-505.726	-200.000	0.005	0.368
-504.712	12.682	0.106	-0.082
-503.697	-2.820	-0.187	0.130
-502.683	236.390	0.060	-0.099
-501.668	198.499	0.144	-0.220
-500.653	-139.148	-0.135	0.015
-499.639	91.301	-0.226	-0.254
-498.624	-66.654	-0.126	-0.050
-497.610	303.773	0.055	-0.101
-496.595	-157.890	-0.721	-0.043
-495.581	151.212	0.083	-0.112
-494.566	378.628	-0.089	0.181
-493.551	-55.324	0.214	0.096
-492.537	-148.435	0.281	0.023
-491.522	-30.019	-0.084	-0.048
-490.508	-200.000	-0.021	0.326
-489.493	800.000	-0.075	0.218
-488.478	-42.881	0.342	0.173
-487.464	-25.200	0.240	0.142
-486.449	60.974	0.020	0.020
-485.435	112.252	0.117	0.142
-484.420	-10.122	-0.236	0.157
-483.405	-137.747	-0.232	-0.026
-482.391	85.258	-0.346	0.379
-481.376	-200.000	0.002	0.032
-480.362	47.072	-0.219	-0.203
-479.347	800.000	-0.056	-0.212
-478.332	-57.678	0.157	-0.069
-477.318	-60.507	0.049	0.021
-476.303	-57.949	0.096	-0.042
-475.289	-25.035	-0.041	0.024
-474.274	-56.710	0.040	0.018
-473.259	-148.949	-0.138	-0.011
-472.245	736.219	-0.175	-0.467
-471.230	-84.262	-0.079	-0.025
-470.216	32.462	0.158	-0.136
-469.201	800.000	-0.182	0.515
-468.186	213.181	0.200	0.314
-467.172	228.305	0.233	-0.378
-466.157	-129.238	-0.211	0.029
-465.143	371.372	0.068	0.137
-464.128	50.961	-0.080	0.076
-463.113	-19.368	0.222	-0.137
-462.099	322.891	-0.139	-0.264
-461.084	-17.589	-0.149	0.094
-460.070	-16.849	0.273	0.172
-459.055	-47.386	-0.192	0.093
-458.040	67.908	-0.322	-0.328
-457.026	-200.000	0.014	-0.078
-456.011	728.164	0.070	0.187
-454.997	42.208	0.082	-0.074
-453.982	13.257	-0.038	-0.030
-452.968	3.638	0.171	0.124
-451.953	716.727	0.047	-0.124
-450.938	-200.000	-0.048	0.225
-449.924	-64.293	-0.213	0.087
-448.909	-21.803	0.125	-0.076
-447.895	-125.085	0.098	-0.015
-446.880	-176.086	-0.242	-0.006
-445.865	-108.296	-0.331	-0.071
-444.851	-200.000	-0.064	-0.286
-443.836	12.932	-0.262	-0.202
-442.822	-157.718	0.072	-0.004
-441.807	-120.328	-0.130	0.022
-440.792	686.645	-0.060	0.155
-439.778	-200.000	-0.019	0.094
-438.763	147.283	0.247	-0.331
-437.749	55.390	0.124	0.120
-436.734	134.781	-0.112	0.145
-435.719	-62.520	-0.023	-0.009
-434.705	-103.042	-0.355	0.084
-433.690	-136.661	-0.139	-0.016
-432.676	-200.000	-0.021	-0.183
-431.661	-60.033	-0.127	-0.054
-430.646	279.958	-0.087	-0.155
-429.632	-83.930	-0.092	0.029
-428.617	-34.544	0.167	0.091
-427.603	285.274	0.018	0.033
-426.588	101.015	-0.079	0.091
-425.573	91.276	0.015	0.016
-424.559	253.570	-0.076	-0.129
-423.544	305.682	0.124	0.229
-422.530	310.560	0.147	-0.274
-421.515	43.110	0.119	0.108
-420.500	800.000	-0.024	0.103
-419.486	-200.000	0.044	0.320
-418.471	93.622	-0.247	0.279
-417.457	-157.765	-0.115	0.007
-416.442	-200.000	0.271	0.001
-415.428	-2.745	0.139	0.097
-414.413	53.573	0.279	-0.267
-413.398	133.491	0.258	0.332
-412.384	-200.000	-0.011	0.072
-411.369	-41.921	0.283	0.144
-410.355	133.111	-0.062	0.080
-409.340	37.451	-0.148	-0.131
-408.325	98.886	0.123	-0.141
-407.311	-161.458	-0.136	-0.007
-406.296	-200.000	-0.038	0.376
-405.282	755.101	0.083	0.224
-404.267	398.600	-0.057	-0.118
-403.252	22.638	-0.121	0.099
-402.238	323.025	0.112	-0.213
-401.223	92.630	0.152	0.171
-400.209	-200.000	-0.031	-0.159
-399.194	162.948	-0.133	-0.186
-398.179	207.286	0.080	0.123
-397.165	-166.773	-0.177	-0.007
-396.150	-137.285	0.087	0.010
-395.136	-46.302	-0.185	0.090
-394.121	395.138	0.075	-0.156
-393.106	800.000	0.070	0.192
-392.092	800.000	0.055	0.160
-391.077	157.628	0.093	-0.128
-390.063	120.444	0.062	0.076
-389.048	463.337	-0.054	0.119
-388.033	67.011	0.143	0.145
-387.019	-172.062	0.314	-0.010
-386.004	-156.964	-0.113	0.007
-384.990	188.872	0.036	-0.054
-383.975	142.967	-0.123	0.163
-382.960	-34.421	0.190	-0.103
-381.946	92.487	-0.396	-0.444
-380.931	-140.618	-0.292	-0.030
-379.917	400.831	-0.047	0.097
-378.902	201.611	0.187	-0.286
-377.888	550.711	0.124	-0.297
-376.873	800.000	-0.047	0.166
-375.858	527.170	-0.104	0.244
-374.844	172.751	0.061	-0.087
-373.829	0.966	0.145	0.103
-372.815	-24.743	0.091	-0.054
-371.800	-159.237	0.252	-0.014
-370.785	73.179	0.068	0.070
-369.771	-93.581	-0.122	0.033
-368.756	133.568	0.126	-0.162
-367.742	-200.000	-0.011	0.334
-366.727	47.223	0.372	-0.344
-365.712	-200.000	-0.024	0.290
-364.698	-130.097	-0.314	0.043
-363.683	-150.179	-0.194	-0.015
-362.669	501.304	-0.050	-0.115
-361.654	25.806	0.224	0.186
-360.639	32.581	0.117	-0.100
-359.625	-130.912	0.211	-0.028
-358.610	-144.470	-0.127	-0.012
-357.596	-200.000	0.031	0.233
-356.581	542.986	0.048	-0.113
-355.566	-200.000	0.056	-0.330
-354.552	-71.165	0.095	-0.035
-353.537	-177.546	-0.225	-0.005
-352.523	-200.000	-0.018	0.094
-351.508	85.850	-0.057	0.062
-350.493	444.300	-0.109	-0.237
-349.479	800.000	-0.042	-0.155
-348.464	-5.846	-0.153	0.104
-347.450	-53.623	0.222	0.101
-346.435	-86.288	-0.307	-0.094
-345.420	17.900	-0.193	-0.153
-344.406	228.976	0.154	0.249
-343.391	-126.128	-0.101	0.015
-342.377	26.719	0.136	0.113
-341.362	143.771	0.062	0.082
-340.348	-200.000	0.019	-0.107
-339.333	436.301	0.112	0.241
-338.318	-28.946	0.096	0.055
-337.304	-200.000	0.123	-0.642
-336.289	800.000	0.017	0.047
-335.275	-77.797	0.202	-0.069
-334.260	-200.000	0.001	-0.097
-333.245	-110.485	0.239	-0.049
-332.231	800.000	0.032	-0.138
-331.216	-133.500	0.140	0.017
-330.202	-156.399	-0.050	0.003
-329.187	-77.731	0.152	0.052
-328.172	-200.000	0.081	-0.363
-327.158	108.444	0.143	-0.169
-326.143	-115.105	0.118	0.022
-325.129	77.879	-0.164	0.173
-324.114	90.131	0.136	-0.151
-323.099	205.622	0.157	-0.242
-322.085	-117.496	0.145	0.026
-321.070	-42.227	0.188	-0.095
-320.056	-172.928	-0.193	-0.006
-319.041	106.976	0.240	0.283
-318.026	800.000	-0.042	-0.117
-317.012	595.970	0.074	0.182
-315.997	-38.501	-0.438	-0.229
-314.983	-69.635	0.416	-0.158
-313.968	-200.000	0.028	0.246
-312.953	-200.000	0.002	0.029
-311.939	800.000	0.035	-0.117
-310.924	-72.005	0.240	-0.089
-309.910	-38.603	0.463	-0.242
-308.895	-91.211	0.120	-0.034
-307.880	-144.983	0.315	0.028
-306.866	-189.856	-0.373	0.004
-305.851	-39.203	-0.307	-0.160
-304.837	800.000	-0.051	-0.174
-303.822	36.855	0.236	-0.207
-302.807	69.236	-0.184	-0.187
-301.793	-85.623	0.215	-0.066
-300.778	239.298	0.077	0.127
-299.764	100.706	-0.313	0.360
-298.749	-200.000	-0.001	0.139
-297.735	-139.772	-0.301	0.032
-296.720	45.729	-0.324	-0.297
-295.705	-1.073	-0.221	0.155
-294.691	292.989	0.155	-0.280
-293.676	171.815	0.070	0.100
-292.662	-20.242	-0.215	-0.131
-291.647	-98.021	-0.130	0.033
-290.632	-98.417	0.229	0.058
-289.618	112.498	-0.112	-0.134
-288.603	44.081	-0.171	0.155
-287.589	161.407	0.048	0.066
-286.574	20.575	0.137	-0.110
-285.559	67.043	-0.155	-0.156
-284.545	23.486	0.082	0.067
-283.530	800.000	0.151	0.434
-282.516	-56.006	0.344	0.152
-281.501	-200.000	-0.002	0.233
-280.486	-96.911	-0.307	-0.080
-279.472	-46.131	-0.211	-0.103
-278.457	-30.647	-0.107	0.060
-277.443	-200.000	-0.039	-0.200
-276.428	112.905	0.087	-0.104
-275.413	-200.000	0.013	0.499
-274.399	5.466	0.425	0.311
-273.384	-154.026	0.121	-0.008
-272.370	227.610	0.108	0.174
-271.355	-114.261	0.382	-0.073
-270.340	-46.581	-0.059	0.029
-269.326	-50.085	-0.194	0.091
-268.311	-200.000	0.000	0.162
-267.297	-39.150	0.213	-0.111
-266.282	800.000	0.113	-0.325
-265.267	-54.097	0.199	0.090
-264.253	98.520	0.134	0.153
-263.238	800.000	0.043	-0.129
-262.224	-109.570	0.492	0.103
-261.209	27.812	0.141	0.118
-260.195	800.000	0.026	0.097
-259.180	-146.666	-0.298	-0.026
-258.165	-200.000	0.039	0.209
-257.151	-84.192	-0.347	-0.109
-256.136	672.170	-0.084	-0.214
-255.122	178.111	0.152	-0.219
-254.107	-200.000	-0.011	0.263
-253.092	636.292	0.024	-0.061
-252.078	308.793	-0.110	0.203
-251.063	106.975	-0.106	0.124
-250.049	-200.000	0.045	0.201
-249.034	-200.000	0.010	-0.085
-248.019	171.694	-0.067	0.095
-247.005	255.762	-0.143	0.242
-245.990	124.279	0.110	0.137
-244.976	-23.215	-0.139	0.083
-243.961	401.954	-0.075	0.156
-242.946	584.746	-0.078	-0.189
-241.932	-32.019	0.266	0.147
-240.917	-200.000	-0.003	0.045
-239.903	250.888	0.120	0.202
-238.888	120.804	0.113	0.139
-237.873	45.962	-0.244	-0.223
-236.859	231.671	-0.012	-0.020
-235.844	164.988	-0.082	0.114
-234.830	88.844	0.286	0.315
-233.815	317.113	-0.152	0.284
-232.800	-92.556	-0.216	0.060
-231.786	-200.000	-0.026	0.301
-230.771	41.566	0.079	0.071
-229.757	5.851	0.211	0.154
-228.742	-200.000	-0.013	-0.254
-227.727	524.767	-0.085	-0.198
-226.713	-200.000	0.005	0.210
-225.698	158.820	0.270	0.371
-224.684	186.625	-0.128	0.188
-223.669	-24.680	0.256	0.150
-222.655	53.562	0.245	0.232
-221.640	-104.054	0.139	-0.032
-220.625	-154.817	-0.070	-0.005
-219.611	-47.849	-0.334	0.160
-218.596	-11.344	-0.064	0.042
-217.582	-29.794	-0.580	0.326
-216.567	-112.874	-0.281	0.055
-215.552	-71.916	0.379	0.139
-214.538	-104.407	0.035	-0.008
-213.523	-127.664	0.141	-0.020
-212.509	-103.193	0.331	-0.077
-211.494	-41.119	0.229	-0.116
-210.479	89.716	0.106	-0.117
-209.465	-14.163	-0.233	-0.148
-208.450	-63.828	-0.135	-0.055
-207.436	800.000	0.021	-0.064
-206.421	800.000	0.096	0.263
-205.406	-66.633	-0.320	-0.125
-204.392	-200.000	-0.044	-0.195
-203.377	800.000	-0.027	-0.096
-202.363	800.000	-0.116	-0.333
-201.348	-60.892	0.042	-0.017
-200.333	-78.492	0.344	-0.116
-199.319	-161.834	-0.349	-0.017
-198.304	440.529	-0.107	0.231
-197.290	-193.274	0.038	0.000
-196.275	20.742	0.207	-0.165
-195.260	-30.717	0.142	0.079
-194.246	-126.299	0.369	0.054
-193.231	800.000	-0.052	0.167
-192.217	12.894	-0.307	-0.234
-191.202	298.174	-0.141	-0.256
-190.187	216.465	0.082	0.129
-189.173	474.144	-0.105	0.233
-188.158	-200.000	-0.026	-0.196
-187.144	284.637	0.023	0.042
-186.129	-98.952	0.189	0.047
-185.114	-122.493	0.225	-0.036
-184.100	800.000	0.196	0.548
-183.085	-152.506	-0.135	0.010
-182.071	190.546	0.159	0.236
-181.056	458.949	0.104	-0.229
-180.042	402.527	-0.087	0.180
-179.027	11.873	-0.246	0.186
-178.012	-75.494	-0.251	0.088
-176.998	-200.000	0.010	0.081
-175.983	-200.000	0.001	-0.057
-174.969	-77.922	-0.340	0.116
-173.954	29.859	-0.176	-0.148
-172.939	-200.000	-0.010	-0.325
-171.925	-135.778	0.358	0.042
-170.910	237.817	-0.075	-0.123
-169.896	800.000	-0.026	0.098
-168.881	58.327	-0.155	0.150
-167.866	-200.000	-0.032	-0.353
-166.852	221.526	-0.083	-0.131
-165.837	644.040	0.148	0.371
-164.823	-8.405	0.198	-0.131
-163.808	10.011	0.344	0.258
-162.793	-46.593	-0.419	-0.203
-161.779	-131.789	-0.277	-0.036
-160.764	-200.000	0.057	-0.255
-159.750	281.322	0.205	0.361
-158.735	-156.812	-0.305	-0.019
-157.720	800.000	0.044	-0.149
-156.706	-143.838	0.353	0.033
-155.691	-48.182	0.295	0.140
-154.677	73.568	-0.075	0.077
-153.662	332.878	-0.063	-0.121
-152.647	-76.629	0.128	-0.044
-151.633	131.893	0.136	-0.172
-150.618	301.548	0.178	0.325
-149.604	-32.642	0.184	0.101
-148.589	105.443	-0.151	0.175
-147.574	800.000	0.065	-0.265
-146.560	-200.000	-0.005	0.072
-145.545	-19.038	-0.173	-0.106
-144.531	-50.920	0.235	0.109
-143.516	800.000	-0.044	-0.151
-142.502	23.581	-0.140	-0.113
-141.487	42.430	-0.154	-0.138
-140.472	-109.044	0.117	-0.024
-139.458	-67.913	-0.348	0.134
-138.443	-110.308	-0.134	-0.027
-137.429	-150.128	-0.404	0.031
-136.414	-22.790	-0.144	-0.085
-135.399	480.376	-0.106	-0.237
-134.385	-50.202	0.319	0.149
-133.370	-200.000	-0.028	0.172
-132.356	-200.000	-0.010	0.123
-131.341	-22.551	-0.077	-0.046
-130.326	-200.000	-0.001	-0.126
-129.312	-200.000	-0.006	-0.197
-128.297	104.502	0.219	0.254
-127.283	-200.000	0.000	0.223
-126.268	-61.040	0.262	0.109
-125.253	-200.000	-0.010	-0.371
-124.239	-36.028	0.268	-0.142
-123.224	800.000	-0.150	0.574
-122.210	-151.009	-0.292	-0.022
-121.195	79.113	0.198	0.208
-120.180	88.962	-0.231	0.253
-119.166	-124.165	-0.087	0.013
-118.151	-200.000	0.007	0.261
-117.137	-77.878	-0.275	0.093
-116.122	-146.011	-0.066	-0.006
-115.107	-101.332	0.271	0.065
-114.093	0.346	0.057	-0.040
-113.078	248.010	0.046	-0.077
-112.064	442.301	0.064	-0.138
-111.049	-42.513	-0.339	0.170
-110.034	-200.000	0.020	-0.191
-109.020	66.110	-0.124	0.124
-108.005	-114.038	-0.413	-0.079
-106.991	603.315	-0.055	0.136
-105.976	-67.182	0.181	0.070
-104.962	796.351	-0.104	0.282
-103.947	100.558	0.101	0.115
-102.932	440.747	-0.109	-0.234
-101.918	800.000	-0.043	0.175
-100.903	103.534	0.150	-0.174
-99.889	-19.306	-0.273	0.167
-98.874	87.955	-0.093	-0.101
-97.859	800.000	0.059	-0.164
-96.845	245.324	0.094	-0.155
-95.830	164.862	-0.155	0.214
-94.816	-157.800	-0.084	0.005
-93.801	92.409	-0.072	-0.080
-92.786	-152.954	-0.199	0.014
-91.772	-182.151	-0.272	-0.005
-90.757	800.000	0.043	-0.126
-89.743	-21.784	0.151	-0.090
-88.728	266.102	0.170	0.292
-87.713	-40.045	0.349	0.179
-86.699	8.025	0.140	-0.103
-85.684	4.028	0.252	0.181
-84.670	-74.386	0.060	0.021
-83.655	50.261	-0.094	-0.087
-82.640	-128.867	0.261	0.036
-81.626	120.882	0.119	0.146
-80.611	594.859	-0.051	0.125
-79.597	-108.748	0.095	-0.020
-78.582	-200.000	-0.011	-0.341
-77.567	-122.443	-0.257	-0.041
-76.553	-15.093	0.159	0.100
-75.538	184.224	-0.050	0.073
-74.524	-200.000	-0.048	0.243
-73.509	-24.451	0.313	0.183
-72.494	-72.937	0.136	-0.049
-71.480	335.517	-0.087	0.165
-70.465	91.441	0.180	0.198
-69.451	-177.702	-0.151	0.004
-68.436	-33.113	0.184	-0.100
-67.422	800.000	-0.052	0.153
-66.407	44.968	-0.292	0.264
-65.392	-19.639	-0.181	0.110
-64.378	95.754	0.150	0.168
-63.363	-200.000	0.074	0.392
-62.349	-200.000	0.040	0.210
-61.334	14.713	-1.105	-0.848
-60.319	79.206	0.392	0.413
-59.305	800.000	-0.370	-1.249
-58.290	515.623	0.544	1.246
-57.276	800.000	0.506	1.635
-56.261	-200.000	109.437	604.600
-55.246	496.131	1518.006	3424.135
-54.232	173.578	2713.210	3841.260
-53.217	109.431	2178.149	2559.626
-52.203	39.962	1614.316	1422.601
-51.188	31.580	1352.169	1140.713
-50.173	28.574	1311.284	1088.378
-49.159	53.277	1367.036	1284.982
-48.144	52.680	1382.666	1296.011
-47.130	31.811	1336.686	1128.866
-46.115	28.496	1318.131	1093.423
-45.100	28.212	1313.914	1088.191
-44.086	28.257	1310.725	1085.773
-43.071	28.022	1308.745	1082.700
-42.057	28.078	1306.366	1081.021
-41.042	28.062	1304.721	1079.524
-40.027	28.073	1303.330	1078.392
-39.013	28.149	1301.683	1077.436
-37.998	28.189	1299.668	1075.963
-36.984	28.265	1297.558	1074.619
-35.969	28.239	1296.076	1073.197
-34.954	28.264	1294.279	1071.808
-33.940	28.271	1292.806	1070.590
-32.925	28.251	1291.892	1069.671
-31.911	28.324	1290.412	1068.830
-30.896	28.239	1289.231	1067.314
-29.881	28.323	1287.644	1066.450
-28.867	28.382	1285.957	1065.353
-27.852	28.320	1284.763	1063.961
-26.838	28.441	1283.082	1063.225
-25.823	28.367	1282.061	1061.908
-24.809	28.296	1280.674	1060.310
-23.794	28.263	1279.747	1059.309
-22.779	28.317	1277.761	1057.931
-21.765	28.362	1276.768	1057.329
-20.750	28.232	1275.293	1055.316
-19.736	28.255	1274.343	1054.622
-18.721	28.198	1272.965	1053.109
-17.706	28.200	1271.656	1051.995
-16.692	28.179	1270.810	1051.134
-15.677	28.287	1269.598	1050.712
-14.663	28.200	1268.822	1049.528
-13.648	28.204	1267.385	1048.319
-12.633	28.176	1266.651	1047.512
-11.619	27.982	1266.222	1046.005
-10.604	28.238	1264.826	1046.274
-9.590	28.138	1263.963	1044.947
-8.575	28.156	1263.219	1044.393
-7.560	28.185	1261.652	1043.219
-6.546	28.197	1261.082	1042.775
-5.531	28.107	1260.633	1041.852
-4.517	28.187	1259.349	1041.203
-3.502	28.203	1258.881	1040.868
-2.487	28.172	1257.905	1039.843
-1.473	28.250	1253.790	1036.843
-0.458	27.394	1239.734	1020.379
0.556	25.081	1223.150	988.304
1.571	21.821	1230.008	975.652
2.586	20.984	1245.250	982.936
3.600	20.229	1232.474	968.550
4.615	14.985	1159.350	883.389
5.629	7.156	1086.100	788.641
6.644	3.837	1067.515	758.806
7.659	3.444	1065.474	755.368
8.673	3.608	1064.201	755.197
9.688	3.592	1062.725	754.006
10.702	3.768	1060.954	753.541
11.717	8.202	1067.210	779.629
12.731	15.886	1078.003	825.243
13.746	19.458	1082.177	845.909
14.761	19.505	1081.627	845.635
15.775	18.593	1079.347	839.317
16.790	17.697	1077.469	833.403
17.804	16.856	1076.099	828.163
18.819	16.651	1074.446	825.815
19.834	16.459	1074.111	824.550
20.848	16.309	1073.401	823.200
21.863	15.937	1072.914	820.939
22.877	15.848	1072.349	820.001
23.892	15.825	1071.415	819.105
24.907	15.981	1070.023	818.727
25.921	15.906	1069.225	817.676
26.936	15.918	1067.851	816.615
27.950	16.028	1066.263	815.862
28.965	15.934	1065.263	814.570
29.980	16.335	1063.524	815.099
30.994	16.348	1062.257	814.122
32.009	16.332	1062.038	813.803
33.023	16.166	1060.392	811.674
34.038	16.163	1059.119	810.614
35.053	16.029	1058.731	809.598
36.067	16.040	1057.822	808.884
37.082	16.003	1057.223	808.176
38.096	16.165	1056.332	808.201
39.111	16.224	1055.717	807.942
40.126	16.071	1053.830	805.696
41.140	15.867	1052.832	803.889
42.155	15.689	1052.016	802.345
43.169	15.649	1050.960	801.275
44.184	15.698	1049.310	800.181
45.199	15.666	1048.687	799.484
46.213	15.905	1047.571	799.696
47.228	15.974	1046.962	799.488
48.242	15.968	1045.913	798.588
49.257	15.941	1044.623	797.404
50.271	16.083	1043.501	797.150
51.286	15.984	1042.977	796.211
52.301	16.034	1041.984	795.619
53.315	15.889	1040.999	794.110
54.330	15.936	1039.576	793.177
55.344	15.789	1039.004	791.980
56.359	15.856	1037.797	791.303
57.374	15.826	1037.271	790.693
58.388	15.672	1036.568	789.361
59.403	15.616	1035.480	788.200
60.417	15.761	1034.691	788.212
61.432	15.578	1034.364	787.035
62.447	15.581	1033.253	786.133
63.461	15.565	1032.308	785.271
64.476	15.622	1031.181	784.611
65.490	15.530	1030.279	783.425
66.505	15.666	1029.525	783.418
67.520	15.630	1029.161	782.901
68.534	15.698	1028.457	782.613
69.549	15.594	1027.552	781.372
70.563	15.622	1026.916	780.950
71.578	15.444	1026.093	779.429
72.593	15.285	1025.212	777.952
73.607	15.503	1024.311	778.210
74.622	15.580	1024.058	778.306
75.636	15.528	1023.495	777.570
76.651	15.571	1022.355	776.831
77.666	15.567	1022.462	776.828
78.680	15.529	1021.417	775.787
79.695	15.500	1020.980	775.255
80.709	15.583	1019.996	774.818
81.724	15.689	1019.842	775.125
82.739	15.778	1018.897	774.748
83.753	15.973	1017.674	774.645
84.768	16.165	1016.714	774.727
85.782	16.274	1016.236	774.795
86.797	16.155	1015.381	773.529
87.812	16.041	1014.390	772.184
88.826	16.057	1013.442	771.468
89.841	16.098	1012.049	770.526
90.855	16.141	1011.903	770.543
91.870	16.210	1010.994	770.096
92.884	16.095	1010.112	768.833
93.899	16.122	1009.098	768.117
94.914	16.264	1009.022	768.635
95.928	16.352	1007.399	767.731
96.943	16.243	1006.310	766.338
97.957	16.205	1005.676	765.616
98.972	16.139	1004.875	764.639
99.987	16.126	1003.800	763.694
101.001	16.079	1002.811	762.662
102.016	15.994	1002.419	761.914
103.030	16.184	1001.456	761.972
104.045	16.112	1000.526	760.874
105.060	16.061	999.845	760.057
106.074	15.967	998.546	758.579
107.089	15.754	997.502	756.761
108.103	15.730	996.120	755.535
109.118	15.699	995.536	754.888
110.133	15.659	994.604	753.936
111.147	15.638	994.037	753.347
112.162	15.738	993.307	753.175
113.176	15.836	992.481	752.919
114.191	15.847	991.769	752.362
115.206	15.788	990.962	751.420
116.220	15.768	990.307	750.768
117.235	15.923	988.584	750.084
118.249	15.801	988.077	749.088
119.264	15.630	987.794	748.046
120.279	15.779	986.626	747.758
121.293	15.748	985.475	746.682
122.308	15.614	984.967	745.639
123.322	15.615	983.992	744.836
124.337	15.658	982.598	743.905
125.352	15.666	981.510	743.052
126.366	15.503	980.667	741.630
127.381	15.689	979.742	741.687
128.395	15.576	978.978	740.541
129.410	15.638	978.206	740.168
130.424	15.791	977.058	739.903
131.439	15.757	976.566	739.317
132.454	15.802	975.734	738.818
133.468	15.928	974.880	738.659
134.483	15.837	974.318	737.772
135.497	15.780	973.089	736.526
136.512	15.696	972.679	735.783
137.527	15.864	971.253	735.371
138.541	15.948	970.871	735.387
139.556	15.863	970.147	734.400
140.570	16.077	969.476	734.760
141.585	16.174	968.654	734.493
142.600	16.196	967.565	733.700
143.614	16.210	967.022	733.284
144.629	16.255	966.287	732.859
145.643	16.099	965.369	731.420
146.658	16.037	964.474	730.407
147.673	16.059	963.166	729.447
148.687	15.986	962.217	728.348
149.702	15.949	961.254	727.398
150.716	15.870	960.875	726.705
151.731	15.899	960.164	726.226
152.746	15.876	959.428	725.508
153.760	15.927	959.144	725.448
154.775	16.025	958.269	725.145
155.789	16.087	957.664	724.886
156.804	16.082	956.824	724.166
157.819	16.153	956.052	723.825
158.833	16.201	955.834	723.801
159.848	16.417	954.482	723.636
160.862	16.302	953.511	722.346
161.877	16.140	952.426	720.766
162.892	15.989	951.888	719.649
163.906	16.012	950.770	718.839
164.921	16.092	949.775	718.365
165.935	16.040	948.803	717.347
166.950	16.185	947.780	717.124
167.964	16.195	946.907	716.443
168.979	15.986	946.386	715.100
169.994	16.071	945.661	714.848
171.008	16.100	945.327	714.657
172.023	16.312	944.519	714.877
173.037	16.266	943.992	714.224
174.052	16.308	943.047	713.622
175.067	16.096	942.201	712.024
176.081	15.972	941.658	711.024
177.096	16.090	941.070	711.016
178.110	16.058	940.780	710.601
179.125	16.104	939.798	709.990
180.140	16.252	939.263	710.145
181.154	16.300	939.039	710.116
182.169	16.292	938.740	709.792
183.183	16.406	937.459	709.240
184.198	16.350	937.377	708.879
185.213	16.474	936.261	708.491
186.227	16.463	935.807	708.041
187.242	16.434	935.284	707.459
188.256	16.503	934.508	707.099
189.271	16.552	933.651	706.595
190.286	16.314	932.968	705.020
191.300	16.011	932.084	703.026
192.315	15.963	931.223	702.113
193.329	15.985	930.985	701.963
194.344	16.138	930.468	702.149
195.359	16.346	929.514	702.232
196.373	16.452	928.740	702.026
197.388	16.614	928.381	702.363
198.402	16.605	927.902	701.902
199.417	16.742	927.386	702.019
200.432	16.773	926.710	701.571
201.446	16.782	926.525	701.409
202.461	16.895	925.854	701.306
203.475	16.774	925.204	700.252
204.490	16.704	924.311	699.222
205.504	16.561	923.788	698.177
206.519	16.608	922.854	697.603
207.534	16.627	921.827	696.841
208.548	16.566	921.902	696.585
209.563	16.621	920.871	695.970
210.577	16.621	920.209	695.411
211.592	16.784	919.704	695.638
212.607	16.880	918.580	695.117
213.621	16.853	917.878	694.416
214.636	16.690	917.504	693.403
215.650	16.783	916.781	693.176
216.665	16.866	915.777	692.695
217.680	16.840	915.818	692.557
218.694	16.752	915.079	691.577
219.709	16.864	914.374	691.443
220.723	16.794	913.649	690.547
221.738	16.811	912.817	689.927
222.753	16.971	911.799	689.747
223.767	16.891	911.916	689.448
224.782	17.055	911.184	689.502
225.796	17.006	910.589	688.791
226.811	16.956	910.027	688.099
227.826	16.932	908.873	687.071
228.840	16.978	908.372	686.818
229.855	16.966	907.328	685.918
230.869	16.909	906.603	685.080
231.884	16.816	906.075	684.242
232.899	16.920	905.065	683.841
233.913	16.788	904.613	682.907
234.928	16.805	903.541	682.104
235.942	16.775	903.076	681.575
236.957	16.634	903.048	680.925
237.972	16.680	902.088	680.325
238.986	16.769	901.143	679.909
240.001	16.820	901.090	680.014
241.015	16.900	900.406	679.759
242.030	16.925	899.413	679.047
243.045	16.900	899.259	678.771
244.059	16.981	898.274	678.293
245.074	17.049	897.688	678.063
246.088	17.088	897.341	677.894
247.103	17.155	896.437	677.420
248.117	17.119	896.614	677.350
249.132	17.287	896.219	677.663
250.147	17.582	895.149	677.967
251.161	17.467	894.920	677.274
252.176	17.596	893.810	676.888
253.190	17.659	892.840	676.343
254.205	17.655	892.294	675.856
255.220	17.583	891.808	675.140
256.234	17.637	891.287	674.900
257.249	17.597	890.743	674.271
258.263	17.544	889.833	673.311
259.278	17.580	889.543	673.177
260.293	17.620	888.927	672.807
261.307	17.669	888.222	672.409
262.322	17.705	887.877	672.231
263.336	17.734	886.819	671.482
264.351	17.770	886.188	671.089
265.366	17.814	885.890	670.978
266.380	17.868	884.575	670.132
267.395	17.696	884.540	669.373
268.409	17.759	883.378	668.679
269.424	17.743	882.565	667.944
270.439	17.649	881.995	667.085
271.453	17.592	881.522	666.445
272.468	17.611	881.099	666.138
273.482	17.724	880.157	665.812
274.497	17.745	879.556	665.379
275.512	17.668	878.854	664.489
276.526	17.671	878.464	664.146
277.541	17.678	878.410	664.075
278.555	17.764	877.876	663.946
279.570	17.957	877.165	664.102
280.585	17.871	876.488	663.193
281.599	17.826	875.462	662.188
282.614	17.726	874.767	661.215
283.628	17.797	874.245	661.035
284.643	17.737	873.887	660.475
285.657	17.882	873.251	660.495
286.672	17.906	872.157	659.703
287.687	17.936	871.594	659.337
288.701	17.864	871.305	658.780
289.716	17.945	870.827	658.671
290.730	17.873	870.244	657.897
291.745	18.006	869.274	657.615
292.760	17.971	869.056	657.257
293.774	18.093	868.172	657.000
294.789	18.088	867.818	656.654
295.803	17.939	866.775	655.237
296.818	17.889	866.323	654.644
297.833	17.998	865.615	654.472
298.847	17.923	864.639	653.388
299.862	18.117	864.331	653.839
300.876	18.184	863.561	653.455
301.891	18.222	863.482	653.481
302.906	18.189	863.202	653.084
303.920	18.165	862.776	652.613
304.935	18.358	861.825	652.573
305.949	18.353	860.784	651.707
306.964	18.165	860.616	650.808
307.979	18.365	859.613	650.751
308.993	18.386	859.509	650.695
310.008	18.296	858.713	649.692
311.022	18.205	858.511	649.139
312.037	18.213	857.670	648.474
313.052	17.979	857.125	647.118
314.066	18.106	856.744	647.254
315.081	18.125	856.037	646.735
316.095	18.082	855.333	645.983
317.110	17.961	854.734	645.015
318.125	17.994	854.364	644.807
319.139	18.022	853.779	644.412
320.154	18.217	853.250	644.689
321.168	18.084	852.895	643.866
322.183	18.206	851.912	643.523
323.197	18.110	851.894	643.093
324.212	18.337	850.868	643.115
325.227	18.269	850.348	642.408
326.241	18.323	849.702	642.067
327.256	18.311	849.078	641.493
328.270	18.260	848.500	640.810
329.285	18.192	847.907	640.050
330.300	18.233	847.622	639.932
331.314	18.252	847.160	639.597
332.329	18.337	846.523	639.378
333.343	18.531	846.022	639.667
334.358	18.499	845.450	639.059
335.373	18.440	845.330	638.691
336.387	18.410	845.076	638.329
337.402	18.548	844.747	638.539
338.416	18.755	844.319	638.928
339.431	18.651	844.179	638.380
340.446	18.725	843.713	638.244
341.460	18.801	843.406	638.240
342.475	18.867	842.929	638.067
343.489	18.820	842.409	637.444
344.504	18.909	842.099	637.482
345.519	18.952	841.859	637.402
346.533	18.917	840.600	636.264
347.548	18.789	840.056	635.324
348.562	18.593	839.550	634.159
349.577	18.634	838.832	633.712
350.592	18.603	838.357	633.181
351.606	18.595	837.403	632.378
352.621	18.619	837.095	632.176
353.635	18.512	836.788	631.493
354.650	18.687	836.005	631.492
355.665	18.779	835.107	631.097
356.679	18.883	834.492	630.956
357.694	18.721	834.272	630.140
358.708	18.653	833.664	629.375
359.723	18.766	832.910	629.166
360.738	18.970	832.093	629.239
361.752	18.883	831.901	628.719
362.767	18.954	831.354	628.509
363.781	19.043	830.608	628.214
364.796	19.206	830.226	628.464
365.810	19.329	829.635	628.410
366.825	19.215	829.835	628.090
367.840	19.180	829.058	627.321
368.854	19.010	828.643	626.332
369.869	19.210	827.711	626.298
370.883	19.040	827.541	625.498
371.898	19.186	827.159	625.684
372.913	19.291	826.887	625.805
373.927	19.194	826.451	625.065
374.942	19.222	825.631	624.492
375.956	19.272	825.399	624.441
376.971	19.470	824.971	624.780
377.986	19.371	824.450	623.971
379.000	19.467	824.132	624.024
380.015	19.283	823.982	623.191
381.029	19.381	822.959	622.715
382.044	19.378	822.455	622.267
383.059	19.550	821.701	622.261
384.073	19.305	821.234	620.970
385.088	19.459	820.126	620.630
386.102	19.360	820.132	620.226
387.117	19.175	819.408	618.958
388.132	19.292	818.968	618.991
389.146	19.227	818.282	618.185
390.161	19.475	817.730	618.601
391.175	19.511	817.281	618.335
392.190	19.402	817.006	617.685
393.205	19.421	816.231	617.112
394.219	19.318	816.051	616.552
395.234	19.263	815.584	615.946
396.248	19.120	815.369	615.220
397.263	19.236	814.700	615.075
398.278	19.146	814.527	614.570
399.292	19.146	813.645	613.848
400.307	19.180	813.262	613.627
401.321	19.135	812.897	613.137
402.336	19.529	811.954	613.774
403.350	19.497	811.767	613.465
404.365	19.509	811.852	613.515
405.380	19.776	810.906	613.696
406.394	19.710	810.674	613.231
407.409	19.494	810.474	612.259
408.423	19.636	809.922	612.290
409.438	19.795	809.560	612.527
410.453	19.874	809.090	612.394
411.467	19.797	808.544	611.657
412.482	19.861	808.328	611.665
413.496	20.052	808.009	612.043
414.511	19.887	807.986	611.388
415.526	19.847	807.491	610.821
416.540	19.955	806.326	610.263
417.555	19.950	805.734	609.745
418.569	19.915	805.714	609.552
419.584	20.069	805.287	609.720
420.599	19.874	804.741	608.563
421.613	160.219	1371.936	1795.231
422.628	139.205	1454.564	1795.306
