DTS Sentinel unit serial number:	SN413079Multiplexer serial number:	ORYXHardware model number:	OX4-SRSoftware version number:	ORYX F/W v4.00 Oryx Data Collector v3.7.2.0data status	okinstallation	princeton_trtdifferential loss correction	single-endedforward channel	channel 1reverse channel	N/Adate	2019/09/13time	05:38:35forward acquisition time	60.00reverse acquisition time	0.00gamma	496.2192k internal	0.2336k external	0.2336temperature offset calibration	1.0154default loss term (dB/km)	0.3790temperature slope calibration	1.0000multiplexer offset coefficient	1.0000multiplexer slope coefficient	1.0000fibre end	0.00T internal ref (°C)	26.25T ext. ref 1 (°C)	4.03T ext. ref 2 (°C)	20.86length (m)	temperature (°C)	Stokes	anti-Stokes-747.200	148.949	0.145	-0.198
-746.185	-198.431	-0.606	-0.003
-745.171	-59.546	-0.435	0.188
-744.156	23.440	0.229	0.189
-743.142	-7.722	0.104	-0.071
-742.127	-44.038	-0.418	0.211
-741.112	-147.337	-0.136	-0.012
-740.098	800.000	0.060	0.216
-739.083	-141.016	-0.293	-0.030
-738.069	-2.317	-0.085	-0.060
-737.054	-155.756	-0.287	-0.018
-736.039	-200.000	0.001	0.248
-735.025	260.311	-0.106	0.184
-734.010	-200.000	-0.027	-0.225
-732.996	48.025	-0.131	-0.123
-731.981	107.449	0.250	-0.299
-730.966	-30.061	-0.199	-0.113
-729.952	-172.545	-0.250	-0.008
-728.937	-150.030	-0.334	-0.026
-727.923	-200.000	0.014	-0.303
-726.908	102.779	-0.059	-0.069
-725.894	-122.741	-0.100	-0.016
-724.879	112.548	-0.207	-0.251
-723.864	192.287	0.109	-0.165
-722.850	-10.898	-0.243	-0.161
-721.835	800.000	-0.057	0.166
-720.821	103.010	-0.250	0.294
-719.806	-200.000	-0.023	0.126
-718.791	-105.570	0.209	0.047
-717.777	-200.000	0.022	0.104
-716.762	534.496	-0.079	-0.187
-715.748	-34.939	0.367	-0.201
-714.733	800.000	-0.072	0.295
-713.718	-72.706	-0.228	0.084
-712.704	-200.000	0.022	-0.335
-711.689	-19.257	0.028	-0.017
-710.675	192.977	-0.129	0.195
-709.660	-108.869	-0.174	0.037
-708.645	289.682	-0.142	-0.259
-707.631	-200.000	0.010	0.160
-706.616	-90.921	-0.197	-0.057
-705.602	467.064	-0.150	0.338
-704.587	-200.000	0.006	-0.140
-703.572	-200.000	0.018	-0.083
-702.558	29.036	0.221	-0.188
-701.543	169.970	-0.139	0.199
-700.529	504.519	-0.062	0.144
-699.514	-156.071	0.099	0.006
-698.499	167.502	0.198	-0.281
-697.485	133.959	-0.078	-0.101
-696.470	182.529	-0.093	-0.138
-695.456	-3.884	0.178	-0.123
-694.441	-200.000	-0.062	-0.273
-693.426	-61.558	-0.455	0.192
-692.412	-142.779	-0.117	0.011
-691.397	-79.057	-0.096	0.033
-690.383	7.474	-0.100	0.075
-689.368	800.000	-0.106	0.416
-688.354	800.000	-0.046	0.168
-687.339	-200.000	0.004	-0.052
-686.324	137.455	-0.183	-0.240
-685.310	199.769	0.082	-0.127
-684.295	337.924	0.100	-0.194
-683.281	800.000	-0.024	-0.077
-682.266	-200.000	-0.018	0.160
-681.251	16.824	-0.042	-0.033
-680.237	35.170	0.078	-0.069
-679.222	800.000	0.070	-0.221
-678.208	-124.123	0.469	0.074
-677.193	346.500	0.142	-0.279
-676.178	-96.723	-0.071	0.019
-675.164	-152.221	-0.110	0.008
-674.149	-93.984	-0.306	0.084
-673.135	-200.000	-0.048	-0.287
-672.120	-64.073	-0.256	0.105
-671.105	29.831	-0.071	0.060
-670.091	800.000	-0.086	0.308
-669.076	800.000	-0.051	-0.170
-668.062	-76.289	-0.274	-0.097
-667.047	456.634	0.019	0.043
-666.032	120.002	0.166	0.207
-665.018	-200.000	-0.012	-0.118
-664.003	659.098	-0.126	-0.325
-662.989	-200.000	0.001	0.027
-661.974	-200.000	-0.057	0.437
-660.959	-200.000	-0.000	-0.182
-659.945	-200.000	0.003	-0.079
-658.930	-200.000	-0.040	0.448
-657.916	-111.740	0.248	-0.050
-656.901	442.437	-0.098	-0.214
-655.886	269.684	0.088	0.156
-654.872	82.885	-0.135	0.147
-653.857	-200.000	0.039	-0.247
-652.843	-85.249	-0.042	0.013
-651.828	-99.289	0.269	0.068
-650.814	-18.579	-0.050	-0.032
-649.799	-200.000	0.002	-0.089
-648.784	686.448	0.067	-0.176
-647.770	259.653	-0.049	-0.084
-646.755	177.864	-0.071	0.103
-645.741	321.535	0.009	-0.018
-644.726	51.759	0.291	-0.277
-643.711	19.146	0.121	0.097
-642.697	-41.980	-0.280	0.143
-641.682	116.327	-0.123	0.151
-640.668	-82.190	0.333	0.109
-639.653	-52.139	0.142	-0.066
-638.638	28.356	-0.135	-0.114
-637.624	-200.000	0.000	-0.021
-636.609	800.000	-0.069	0.244
-635.595	-17.403	0.154	0.097
-634.580	11.046	0.204	-0.156
-633.565	-57.861	0.210	0.092
-632.551	-200.000	-0.034	0.253
-631.536	-200.000	0.040	0.229
-630.522	-61.213	0.079	0.033
-629.507	-139.578	-0.223	-0.024
-628.492	-200.000	0.012	0.242
-627.478	4.324	0.150	0.110
-626.463	479.633	0.112	-0.254
-625.449	-34.880	-0.155	-0.085
-624.434	184.436	-0.094	-0.139
-623.419	248.997	-0.177	-0.301
-622.405	-119.397	0.267	-0.046
-621.390	464.366	-0.080	-0.178
-620.376	-128.742	0.116	-0.016
-619.361	-1.531	0.031	-0.022
-618.346	-80.402	-0.307	0.102
-617.332	136.946	0.084	0.110
-616.317	5.770	0.186	-0.137
-615.303	73.827	0.141	-0.148
-614.288	800.000	0.061	0.219
-613.273	-200.000	-0.002	-0.188
-612.259	-200.000	-0.016	-0.169
-611.244	16.003	0.270	0.213
-610.230	-137.818	-0.185	-0.021
-609.215	-62.695	-0.189	-0.078
-608.201	-200.000	0.067	-0.422
-607.186	800.000	0.030	0.094
-606.171	800.000	0.073	-0.229
-605.157	-147.020	0.357	0.031
-604.142	-200.000	-0.026	0.146
-603.128	-96.730	0.298	-0.078
-602.113	-149.980	0.108	0.008
-601.098	155.076	0.076	-0.104
-600.084	103.969	0.233	-0.274
-599.069	84.127	0.102	-0.111
-598.055	87.143	-0.120	0.133
-597.040	-200.000	-0.028	-0.242
-596.025	190.335	0.155	-0.232
-595.011	-0.554	0.128	0.090
-593.996	-147.835	-0.131	0.011
-592.982	395.930	0.058	0.120
-591.967	-168.265	-0.067	0.003
-590.952	-48.733	-0.209	-0.100
-589.938	-95.585	-0.416	0.111
-588.923	340.956	0.154	-0.300
-587.909	564.614	0.098	-0.236
-586.894	-55.131	-0.140	-0.063
-585.879	496.625	0.040	0.091
-584.865	150.309	-0.180	-0.243
-583.850	11.102	0.092	0.070
-582.836	4.383	0.189	-0.138
-581.821	417.536	0.126	0.269
-580.806	-78.103	-0.136	-0.047
-579.792	-200.000	0.001	-0.170
-578.777	130.524	-0.092	-0.118
-577.763	-59.868	-0.204	0.087
-576.748	-119.213	0.310	-0.054
-575.733	-162.755	-0.187	-0.009
-574.719	-41.231	-0.319	-0.164
-573.704	-200.000	-0.026	-0.148
-572.690	18.279	-0.110	-0.088
-571.675	511.017	-0.062	0.144
-570.661	-200.000	-0.015	0.464
-569.646	-102.404	0.208	0.050
-568.631	-132.095	-0.301	-0.039
-567.617	-83.341	0.164	0.052
-566.602	800.000	-0.031	0.106
-565.588	474.752	-0.047	0.105
-564.573	-200.000	0.013	-0.101
-563.558	36.030	-0.174	-0.152
-562.544	-128.867	-0.199	-0.028
-561.529	-92.110	0.431	0.121
-560.515	-106.959	0.096	-0.021
-559.500	-200.000	0.061	-0.453
-558.485	-42.606	-0.190	-0.096
-557.471	86.624	-0.192	0.211
-556.456	-3.755	-0.426	-0.295
-555.442	-185.483	0.190	0.003
-554.427	-9.598	-0.115	-0.076
-553.412	-95.632	-0.085	-0.023
-552.398	-75.332	-0.196	-0.070
-551.383	145.675	0.074	-0.099
-550.369	-155.072	-0.127	0.008
-549.354	-200.000	-0.053	0.295
-548.339	-175.542	0.171	-0.005
-547.325	22.412	-0.314	-0.256
-546.310	-7.386	-0.141	0.095
-545.296	-174.834	0.304	-0.009
-544.281	17.732	-0.223	0.177
-543.266	102.575	-0.255	-0.298
-542.252	-200.000	0.007	-0.384
-541.237	151.141	-0.256	0.347
-540.223	316.103	-0.141	0.265
-539.208	-104.653	0.353	0.081
-538.193	800.000	-0.027	0.082
-537.179	-86.938	-0.163	-0.049
-536.164	0.182	0.153	-0.109
-535.150	335.493	0.030	0.058
-534.135	74.936	-0.074	-0.078
-533.121	-200.000	-0.020	0.107
-532.106	800.000	0.044	-0.176
-531.091	-11.755	0.290	-0.190
-530.077	-22.508	-0.407	0.245
-529.062	-72.428	-0.420	0.155
-528.048	-150.720	-0.122	-0.009
-527.033	222.631	-0.164	-0.263
-526.018	-109.950	0.096	0.020
-525.004	-200.000	0.004	-0.170
-523.989	-104.534	-0.191	-0.044
-522.975	-126.070	-0.276	0.041
-521.960	17.432	0.176	-0.139
-520.945	73.317	0.021	-0.021
-519.931	-54.638	-0.217	0.098
-518.916	567.558	0.080	0.192
-517.902	800.000	-0.055	-0.185
-516.887	313.679	-0.095	-0.177
-515.872	107.105	-0.149	-0.176
-514.858	171.234	-0.116	0.166
-513.843	-145.864	0.243	0.021
-512.829	385.985	0.041	0.085
-511.814	11.080	-0.206	-0.157
-510.799	-143.025	-0.320	-0.031
-509.785	-68.430	-0.271	-0.105
-508.770	-200.000	-0.018	0.198
-507.756	-65.358	-0.328	-0.131
-506.741	37.956	0.200	-0.177
-505.726	-138.942	-0.111	0.012
-504.712	-200.000	-0.014	0.281
-503.697	-200.000	-0.018	0.216
-502.683	-27.171	-0.179	0.104
-501.668	-129.967	0.245	0.033
-500.653	-36.024	0.016	0.009
-499.639	-14.984	0.157	-0.100
-498.624	-58.262	-0.151	0.065
-497.610	-195.475	-0.063	-0.000
-496.595	-71.874	-0.285	0.105
-495.581	74.365	0.163	-0.170
-494.566	-17.985	-0.289	0.180
-493.551	-55.346	0.211	0.094
-492.537	-118.351	-0.237	0.042
-491.522	-34.470	-0.289	0.158
-490.508	-126.732	0.181	-0.027
-489.493	13.009	0.227	0.175
-488.478	63.738	0.163	-0.163
-487.464	-200.000	0.021	0.331
-486.449	261.669	0.061	0.105
-485.435	-200.000	0.014	0.095
-484.420	-5.412	0.078	0.053
-483.405	-58.949	-0.042	0.018
-482.391	239.827	-0.118	0.196
-481.376	-200.000	0.004	0.162
-480.362	-152.488	0.240	-0.017
-479.347	-200.000	0.014	-0.174
-478.332	341.143	0.089	0.173
-477.318	432.849	-0.044	-0.095
-476.303	-106.877	0.056	0.012
-475.289	800.000	-0.030	0.102
-474.274	-70.439	-0.261	0.098
-473.259	-200.000	-0.002	0.010
-472.245	124.278	-0.144	0.180
-471.230	362.003	0.075	0.150
-470.216	-153.238	0.426	0.030
-469.201	-49.530	-0.361	0.171
-468.186	797.202	-0.083	-0.228
-467.172	-24.837	0.173	0.102
-466.157	658.028	-0.166	-0.425
-465.143	102.657	-0.130	-0.151
-464.128	-25.767	0.321	-0.188
-463.113	421.213	-0.135	-0.287
-462.099	-29.944	0.057	0.032
-461.084	-31.622	0.300	-0.167
-460.070	-37.134	-0.152	0.081
-459.055	260.233	-0.074	0.127
-458.040	-200.000	-0.011	0.169
-457.026	663.285	-0.059	-0.151
-456.011	-142.813	0.368	-0.036
-454.997	98.972	-0.231	0.265
-453.982	-200.000	0.055	-0.247
-452.968	-141.854	-0.336	-0.033
-451.953	-194.641	-0.218	0.002
-450.938	-200.000	0.038	0.304
-449.924	196.620	-0.218	-0.330
-448.909	498.241	-0.069	0.158
-447.895	-3.287	-0.281	-0.195
-446.880	-9.030	-0.125	0.083
-445.865	317.741	0.066	0.123
-444.851	-160.872	0.170	0.009
-443.836	304.391	0.103	0.190
-442.822	3.488	-0.464	0.336
-441.807	0.607	-0.156	-0.111
-440.792	-147.272	0.078	-0.007
-439.778	155.012	0.100	0.137
-438.763	60.483	0.073	-0.072
-437.749	70.867	0.399	0.410
-436.734	95.618	-0.205	-0.232
-435.719	395.918	0.056	-0.117
-434.705	84.856	-0.101	0.110
-433.690	-200.000	0.040	-0.229
-432.676	98.381	0.091	0.104
-431.661	-200.000	0.009	0.332
-430.646	536.053	0.056	-0.133
-429.632	-53.463	-0.409	-0.186
-428.617	-149.722	-0.220	0.017
-427.603	-200.000	-0.003	0.045
-426.588	-120.069	0.098	-0.017
-425.573	800.000	0.066	0.203
-424.559	-109.255	-0.337	-0.071
-423.544	-200.000	0.025	-0.225
-422.530	-200.000	0.009	0.272
-421.515	47.567	-0.069	-0.064
-420.500	-70.108	-0.183	-0.069
-419.486	-200.000	-0.003	0.091
-418.471	-200.000	0.001	0.082
-417.457	-161.994	-0.283	-0.014
-416.442	800.000	0.044	0.128
-415.428	-79.054	0.251	-0.084
-414.413	293.111	-0.162	-0.293
-413.398	96.841	0.245	-0.278
-412.384	-115.569	-0.404	0.075
-411.369	67.403	0.124	0.125
-410.355	-11.760	-0.229	-0.149
-409.340	-112.682	0.170	0.033
-408.325	-166.621	0.105	-0.004
-407.311	77.377	0.087	-0.091
-406.296	800.000	-0.049	0.178
-405.282	86.619	-0.211	-0.231
-404.267	-200.000	-0.030	0.204
-403.252	-200.000	0.003	0.185
-402.238	-68.678	-0.183	0.070
-401.223	-200.000	0.017	-0.292
-400.209	-131.410	0.212	0.028
-399.194	640.758	-0.034	-0.085
-398.179	-101.904	-0.242	0.058
-397.165	-200.000	0.005	0.078
-396.150	61.984	0.294	-0.290
-395.136	238.357	0.274	-0.451
-394.121	91.219	0.225	0.251
-393.106	-142.969	0.035	0.003
-392.092	-15.447	0.336	-0.213
-391.077	55.375	-0.060	0.057
-390.063	800.000	-0.090	0.337
-389.048	-112.532	-0.133	0.026
-388.033	45.938	0.190	0.174
-387.019	800.000	0.056	0.159
-386.004	42.591	0.133	-0.120
-384.990	-200.000	-0.009	0.200
-383.975	-109.230	0.040	0.008
-382.960	-115.035	-0.172	-0.032
-381.946	-109.995	-0.045	0.009
-380.931	-64.219	-0.479	-0.194
-379.917	602.785	-0.015	-0.038
-378.902	424.381	0.086	0.183
-377.888	63.313	-0.235	0.234
-376.873	-102.452	-0.299	-0.071
-375.858	800.000	0.058	-0.169
-374.844	-124.026	0.417	-0.065
-373.829	70.427	0.408	0.418
-372.815	26.691	-0.087	0.072
-371.800	-75.996	-0.095	0.033
-370.785	-200.000	0.033	0.232
-369.771	650.207	-0.042	-0.106
-368.756	-73.632	-0.252	0.091
-367.742	-37.985	0.382	-0.201
-366.727	-18.848	-0.081	-0.050
-365.712	88.511	-0.270	-0.297
-364.698	-175.772	0.310	-0.008
-363.683	98.201	0.078	-0.089
-362.669	78.103	-0.365	-0.386
-361.654	432.055	0.068	0.146
-360.639	-129.699	0.171	-0.023
-359.625	351.649	-0.207	-0.405
-358.610	46.195	0.422	-0.387
-357.596	-112.069	0.343	0.068
-356.581	-141.650	0.330	0.033
-355.566	342.791	-0.084	0.163
-354.552	-95.555	-0.281	0.075
-353.537	92.631	0.277	0.310
-352.523	-75.413	0.264	0.093
-351.508	-200.000	0.013	-0.175
-350.493	-83.558	0.295	0.093
-349.479	-114.216	0.276	0.053
-348.464	587.740	-0.063	0.154
-347.450	124.161	0.204	-0.253
-346.435	84.886	0.145	-0.157
-345.420	289.611	0.214	0.384
-344.406	45.062	0.125	0.114
-343.391	-157.950	0.284	0.017
-342.377	102.991	-0.214	0.248
-341.362	800.000	-0.030	-0.104
-340.348	-1.028	0.134	-0.094
-339.333	17.439	0.054	-0.043
-338.318	-104.990	-0.495	0.112
-337.304	-21.381	-0.179	0.108
-336.289	-159.928	-0.470	-0.025
-335.275	-200.000	-0.008	0.148
-334.260	679.453	0.118	0.304
-333.245	-68.618	-0.095	0.036
-332.231	-40.156	-0.043	-0.022
-331.216	800.000	-0.043	0.140
-330.202	-58.532	0.423	-0.182
-329.187	-167.874	0.240	0.009
-328.172	51.558	0.218	0.205
-327.158	74.580	-0.085	0.088
-326.143	70.220	-0.304	-0.311
-325.129	164.129	0.152	0.212
-324.114	535.591	-0.038	-0.090
-323.099	309.027	-0.195	-0.360
-322.085	-42.671	-0.098	-0.049
-321.070	-158.668	0.100	-0.006
-320.056	-38.659	-0.106	0.055
-319.041	776.135	-0.071	-0.191
-318.026	-21.835	0.116	0.070
-317.012	-26.748	-0.034	-0.020
-315.997	-200.000	-0.001	0.079
-314.983	-59.979	0.060	0.025
-313.968	380.973	0.012	-0.024
-312.953	162.815	0.128	-0.178
-311.939	130.995	0.087	-0.111
-310.924	-200.000	0.000	0.264
-309.910	-23.194	-0.277	0.165
-308.895	-76.102	0.241	0.084
-307.880	-84.871	-0.364	0.113
-306.866	-142.142	-0.188	0.018
-305.851	800.000	0.082	0.234
-304.837	67.599	-0.294	-0.296
-303.822	123.474	-0.196	0.243
-302.807	527.459	0.155	0.360
-301.793	-48.554	0.173	0.082
-300.778	-123.005	-0.234	0.037
-299.764	-26.633	0.314	0.181
-298.749	120.122	0.195	0.239
-297.735	62.117	0.050	-0.049
-296.720	800.000	-0.077	-0.230
-295.705	800.000	-0.091	-0.307
-294.691	-55.973	-0.130	0.057
-293.676	-7.021	0.146	-0.098
-292.662	-47.242	-0.180	0.086
-291.647	15.827	0.175	0.136
-290.632	-29.916	-0.132	-0.074
-289.618	311.494	0.068	0.126
-288.603	279.625	0.146	-0.257
-287.589	800.000	0.073	0.279
-286.574	186.749	0.143	-0.210
-285.559	-200.000	-0.014	-0.143
-284.545	350.454	0.064	0.125
-283.530	389.488	0.058	0.118
-282.516	-19.610	-0.099	-0.061
-281.501	257.410	0.162	-0.274
-280.486	63.414	-0.175	0.173
-279.472	-200.000	0.016	-0.069
-278.457	800.000	-0.074	-0.252
-277.443	76.573	-0.273	-0.286
-276.428	-200.000	0.026	-0.315
-275.413	-53.003	0.075	-0.034
-274.399	-101.440	-0.317	-0.076
-273.384	3.012	-0.114	-0.082
-272.370	90.924	0.201	0.223
-271.355	800.000	-0.072	0.229
-270.340	48.790	0.163	0.151
-269.326	-137.349	0.115	0.013
-268.311	-128.245	0.287	0.040
-267.297	-200.000	0.031	-0.160
-266.282	20.502	0.093	0.074
-265.267	253.622	-0.026	0.044
-264.253	41.023	-0.061	0.055
-263.238	-59.859	-0.212	-0.089
-262.224	88.055	-0.125	-0.137
-261.209	565.272	0.076	-0.182
-260.195	-200.000	0.006	-0.174
-259.180	-69.903	-0.306	-0.115
-258.165	29.021	0.376	-0.315
-257.151	-200.000	0.041	0.277
-256.136	152.387	0.074	-0.100
-255.122	202.492	-0.063	-0.096
-254.107	-200.000	-0.039	-0.371
-253.092	-19.344	0.214	-0.131
-252.078	800.000	0.029	-0.110
-251.063	395.927	0.101	0.207
-250.049	185.725	-0.264	0.387
-249.034	281.425	-0.183	0.322
-248.019	-15.976	0.071	-0.044
-247.005	-200.000	0.032	-0.195
-245.990	42.026	0.312	0.279
-244.976	-152.339	-0.321	0.023
-243.961	-63.432	0.168	-0.068
-242.946	-200.000	0.031	0.287
-241.932	-21.465	0.200	-0.120
-240.917	-151.413	-0.183	-0.013
-239.903	26.851	-0.154	0.127
-238.888	-200.000	-0.015	0.162
-237.873	-95.856	0.196	0.051
-236.859	241.402	0.059	-0.097
-235.844	744.455	-0.099	0.263
-234.830	51.493	0.067	0.063
-233.815	49.968	-0.395	-0.366
-232.800	800.000	-0.080	-0.263
-231.786	642.800	-0.045	0.113
-230.771	-88.504	-0.134	-0.039
-229.757	795.453	-0.011	0.031
-228.742	-32.807	0.156	-0.085
-227.727	31.698	0.204	0.173
-226.713	-200.000	0.008	-0.117
-225.698	11.235	0.055	0.041
-224.684	-54.814	-0.203	0.090
-223.669	73.246	-0.230	0.236
-222.655	275.799	0.039	-0.068
-221.640	117.203	-0.094	-0.114
-220.625	-93.760	0.165	0.045
-219.611	291.159	-0.049	0.088
-218.596	68.690	0.134	-0.136
-217.582	695.655	0.096	-0.247
-216.567	-74.520	0.210	0.074
-215.552	-101.536	-0.492	-0.118
-214.538	164.593	0.146	0.202
-213.523	90.887	-0.097	0.107
-212.509	69.739	-0.161	-0.163
-211.494	-67.437	0.313	0.121
-210.479	800.000	0.078	0.234
-209.465	148.189	0.199	-0.264
-208.450	-200.000	0.058	0.311
-207.436	-200.000	0.005	0.356
-206.421	-200.000	0.050	0.298
-205.406	-200.000	-0.013	-0.080
-204.392	-83.593	-0.248	-0.078
-203.377	-99.500	-0.450	-0.111
-202.363	-200.000	-0.048	0.314
-201.348	-121.134	0.330	0.054
-200.333	-83.513	0.138	0.044
-199.319	34.019	0.054	-0.046
-198.304	-123.100	0.349	0.055
-197.290	-200.000	0.011	-0.055
-196.275	800.000	-0.026	-0.101
-195.260	-69.813	0.143	0.054
-194.246	68.022	-0.432	-0.435
-193.231	-35.264	0.326	0.174
-192.217	-160.704	-0.257	-0.013
-191.202	-151.729	0.224	-0.016
-190.187	342.505	-0.033	-0.064
-189.173	210.182	-0.105	0.163
-188.158	168.342	0.136	0.190
-187.144	293.929	0.075	-0.135
-186.129	-147.640	-0.137	0.011
-185.114	800.000	0.025	0.089
-184.100	172.822	-0.022	-0.031
-183.085	-35.520	0.169	0.090
-182.071	102.472	0.108	-0.125
-181.056	-200.000	-0.020	-0.355
-180.042	35.716	0.249	-0.215
-179.027	800.000	0.030	-0.085
-178.012	-200.000	0.015	-0.148
-176.998	30.395	-0.062	0.052
-175.983	-155.590	-0.043	-0.003
-174.969	-29.276	0.285	-0.160
-173.954	-151.369	0.145	0.011
-172.939	-78.163	0.164	-0.055
-171.925	58.114	0.331	-0.318
-170.910	-78.003	0.397	0.134
-169.896	-96.835	-0.148	-0.038
-168.881	214.181	-0.127	0.198
-167.866	600.780	-0.083	-0.203
-166.852	88.725	-0.175	-0.191
-165.837	-12.356	-0.074	0.047
-164.823	522.719	0.113	0.260
-163.808	66.623	0.132	0.132
-162.793	-91.364	0.180	0.051
-161.779	-200.000	-0.015	0.273
-160.764	410.993	-0.070	-0.147
-159.750	36.318	-0.134	0.116
-158.735	-200.000	0.018	0.266
-157.720	-77.029	0.309	-0.106
-156.706	370.488	0.015	-0.030
-155.691	-200.000	0.025	0.307
-154.677	-86.687	0.457	0.137
-153.662	17.254	0.157	0.122
-152.647	800.000	-0.033	0.090
-151.633	-200.000	-0.002	-0.144
-150.618	151.696	0.218	0.292
-149.604	229.628	0.124	-0.199
-148.589	116.553	-0.315	0.379
-147.574	-200.000	-0.022	0.137
-146.560	-120.193	0.434	0.073
-145.545	-75.198	-0.219	-0.077
-144.531	800.000	0.069	0.255
-143.516	800.000	-0.095	-0.261
-142.502	104.230	0.258	-0.298
-141.487	-129.526	-0.224	-0.030
-140.472	524.066	-0.075	0.172
-139.458	-149.663	0.285	0.022
-138.443	-59.651	0.199	-0.084
-137.429	-105.686	-0.149	0.033
-136.414	364.661	0.127	0.251
-135.399	-34.195	0.211	-0.114
-134.385	433.853	0.134	0.286
-133.370	244.853	0.140	0.231
-132.356	-200.000	0.019	0.232
-131.341	-200.000	-0.065	-0.313
-130.326	-31.306	0.316	0.175
-129.312	283.251	0.094	-0.165
-128.297	371.204	-0.026	0.052
-127.283	-149.143	0.175	0.014
-126.268	675.486	-0.048	-0.123
-125.253	-132.580	0.263	0.033
-124.239	161.299	-0.215	0.295
-123.224	750.701	-0.035	-0.094
-122.210	-200.000	0.033	-0.154
-121.195	-200.000	-0.026	0.151
-120.180	-47.295	0.218	0.104
-119.166	-200.000	0.009	0.077
-118.151	-47.193	0.214	-0.102
-117.137	-43.407	-0.036	0.018
-116.122	415.263	-0.093	-0.193
-115.107	86.711	0.298	-0.323
-114.093	-63.484	-0.236	0.095
-113.078	163.178	0.316	0.435
-112.064	-200.000	-0.010	0.458
-111.049	49.058	0.215	-0.198
-110.034	-200.000	0.002	-0.190
-109.020	319.422	-0.053	0.099
-108.005	800.000	-0.013	-0.055
-106.991	-70.588	-0.165	0.061
-105.976	800.000	-0.045	-0.167
-104.962	800.000	-0.010	-0.042
-103.947	-22.845	-0.268	0.158
-102.932	373.326	-0.096	-0.192
-101.918	-33.658	-0.271	-0.146
-100.903	-70.839	-0.110	0.041
-99.889	-2.526	-0.289	-0.198
-98.874	-35.545	-0.199	-0.106
-97.859	-51.389	-0.221	-0.101
-96.845	-200.000	0.029	-0.301
-95.830	795.269	0.143	-0.385
-94.816	185.176	-0.161	0.235
-93.801	49.773	0.272	-0.251
-92.786	492.915	0.022	0.049
-91.772	-60.556	-0.120	0.050
-90.757	-30.201	0.035	-0.019
-89.743	-200.000	0.008	-0.223
-88.728	380.933	0.087	0.174
-87.713	26.086	-0.131	-0.107
-86.699	-70.029	0.076	-0.028
-85.684	-22.763	-0.063	-0.037
-84.670	-200.000	-0.028	-0.446
-83.655	800.000	-0.073	0.243
-82.640	71.455	-0.075	-0.076
-81.626	-34.252	0.221	0.119
-80.611	-105.426	-0.268	0.060
-79.597	-51.675	-0.197	-0.090
-78.582	-152.509	0.280	0.020
-77.567	-93.480	-0.215	0.058
-76.553	719.877	-0.057	0.149
-75.538	-200.000	-0.060	-0.344
-74.524	30.987	0.110	0.092
-73.509	-188.997	0.099	0.001
-72.494	800.000	0.045	0.175
-71.480	-51.320	-0.154	0.070
-70.465	359.885	0.149	-0.292
-69.451	-163.340	0.137	-0.006
-68.436	-96.477	0.107	-0.028
-67.422	-7.443	0.161	0.106
-66.407	-200.000	-0.004	-0.041
-65.392	-26.965	-0.022	0.013
-64.378	-57.875	0.067	0.029
-63.363	-0.225	-0.278	0.193
-62.349	71.021	-0.145	0.147
-61.334	6.900	-1.086	-0.791
-60.319	135.024	0.375	0.476
-59.305	215.970	-0.611	-0.949
-58.290	40.709	1.125	0.992
-57.276	633.894	0.643	1.593
-56.261	-200.000	117.729	643.629
-55.246	484.964	1551.440	3453.979
-54.232	174.156	2718.339	3840.179
-53.217	103.996	2151.411	2472.455
-52.203	37.828	1584.499	1376.252
-51.188	29.690	1327.801	1104.838
-50.173	26.847	1289.354	1056.279
-49.159	52.096	1349.040	1256.551
-48.144	50.728	1361.603	1260.056
-47.130	29.765	1315.492	1094.870
-46.115	26.264	1298.247	1059.974
-45.100	26.110	1292.942	1054.700
-44.086	26.025	1290.464	1052.142
-43.071	26.064	1287.906	1050.243
-42.057	26.054	1285.908	1048.515
-41.042	26.045	1283.960	1046.831
-40.027	26.009	1283.010	1045.806
-39.013	26.148	1280.491	1044.515
-37.998	26.071	1278.704	1042.571
-36.984	26.168	1277.306	1041.949
-35.969	26.224	1275.457	1040.723
-34.954	26.276	1273.495	1039.378
-33.940	26.259	1272.138	1038.133
-32.925	26.288	1271.124	1037.430
-31.911	26.289	1269.700	1036.230
-30.896	26.248	1268.234	1034.761
-29.881	26.336	1266.904	1034.138
-28.867	26.406	1265.169	1033.078
-27.852	26.285	1264.271	1031.613
-26.838	26.471	1262.120	1030.878
-25.823	26.388	1261.149	1029.574
-24.809	26.317	1260.357	1028.480
-23.794	26.402	1258.614	1027.501
-22.779	26.374	1257.336	1026.260
-21.765	26.301	1256.060	1024.760
-20.750	26.467	1254.317	1024.239
-19.736	26.161	1254.048	1022.244
-18.721	26.266	1252.112	1021.220
-17.706	26.312	1251.190	1020.690
-16.692	26.206	1250.315	1019.337
-15.677	26.200	1249.150	1018.314
-14.663	26.269	1247.495	1017.309
-13.648	26.169	1246.933	1016.250
-12.633	26.179	1245.786	1015.330
-11.619	26.187	1245.160	1014.827
-10.604	26.118	1244.659	1013.989
-9.590	26.229	1243.044	1013.254
-8.575	26.265	1242.071	1012.627
-7.560	26.183	1241.667	1011.797
-6.546	26.122	1240.850	1010.748
-5.531	26.153	1239.920	1010.122
-4.517	26.210	1238.778	1009.471
-3.502	26.191	1237.715	1008.459
-2.487	26.240	1237.237	1008.304
-1.473	26.150	1232.747	1004.103
-0.458	24.686	1217.989	983.991
0.556	22.713	1201.967	947.201
1.571	19.079	1207.528	931.860
2.586	18.241	1222.246	938.544
3.600	18.075	1210.411	928.471
4.615	13.983	1140.166	853.528
5.629	7.189	1070.042	768.113
6.644	4.261	1052.237	741.281
7.659	4.023	1049.381	738.072
8.673	3.901	1048.526	736.821
9.688	3.956	1047.022	735.963
10.702	4.255	1045.044	735.926
11.717	8.609	1050.675	760.560
12.731	16.286	1061.865	805.347
13.746	21.270	1067.443	833.345
14.761	22.292	1068.513	838.984
15.775	21.452	1067.360	833.999
16.790	20.543	1064.973	827.737
17.804	20.002	1063.224	823.729
18.819	19.631	1062.761	821.535
19.834	19.541	1062.186	820.590
20.848	19.591	1061.730	820.402
21.863	19.382	1061.107	818.856
22.877	19.224	1060.091	817.249
23.892	19.328	1058.891	816.746
24.907	19.215	1058.599	815.915
25.921	19.246	1057.471	815.118
26.936	19.119	1056.074	813.371
27.950	19.182	1055.051	812.805
28.965	19.406	1053.083	812.276
29.980	19.475	1052.454	812.043
30.994	19.515	1051.525	811.440
32.009	19.621	1050.147	810.804
33.023	19.439	1049.545	809.414
34.038	19.593	1047.984	808.859
35.053	19.264	1047.162	806.613
36.067	19.291	1046.294	806.002
37.082	19.387	1045.477	805.749
38.096	19.425	1045.297	805.714
39.111	19.515	1044.383	805.359
40.126	19.242	1042.965	802.925
41.140	18.964	1041.367	800.329
42.155	18.784	1040.148	798.482
43.169	18.788	1039.359	797.825
44.184	18.786	1038.450	797.051
45.199	18.811	1037.395	796.283
46.213	19.061	1036.304	796.535
47.228	19.317	1036.124	797.507
48.242	19.324	1035.384	796.899
49.257	19.263	1034.216	795.650
50.271	19.363	1033.392	795.405
51.286	19.322	1032.826	794.713
52.301	19.257	1031.969	793.684
53.315	19.072	1030.288	791.468
54.330	19.061	1029.103	790.438
55.344	18.981	1028.182	789.293
56.359	19.023	1027.330	788.761
57.374	19.020	1026.527	788.062
58.388	18.591	1026.048	785.660
59.403	18.795	1024.733	785.515
60.417	18.812	1024.237	785.146
61.432	18.780	1023.469	784.339
62.447	18.606	1022.669	782.862
63.461	18.632	1021.642	782.126
64.476	18.571	1020.645	781.016
65.490	18.500	1019.971	780.111
66.505	18.521	1019.397	779.696
67.520	18.716	1018.457	779.793
68.534	18.652	1017.780	778.917
69.549	18.566	1016.981	777.845
70.563	18.487	1016.261	776.870
71.578	18.207	1015.608	775.034
72.593	18.264	1014.635	774.480
73.607	18.189	1014.312	773.825
74.622	18.355	1013.416	773.825
75.636	18.394	1012.586	773.295
76.651	18.481	1011.961	773.146
77.666	18.475	1011.237	772.493
78.680	18.508	1010.501	772.011
79.695	18.475	1010.361	771.689
80.709	18.738	1009.587	772.212
81.724	18.921	1009.144	772.626
82.739	19.005	1008.311	772.301
83.753	19.294	1008.027	773.312
84.768	19.670	1007.225	774.313
85.782	19.722	1006.421	773.859
86.797	19.646	1005.489	772.734
87.812	19.443	1004.571	771.053
88.826	19.515	1003.503	770.484
89.841	19.558	1002.714	770.003
90.855	19.701	1001.795	769.868
91.870	19.714	1001.251	769.439
92.884	19.601	1000.409	768.219
93.899	19.538	999.855	767.449
94.914	19.805	998.947	767.866
95.928	19.588	997.972	766.088
96.943	19.475	996.777	764.603
97.957	19.385	996.383	763.835
98.972	19.503	995.093	763.298
99.987	19.487	994.320	762.569
101.001	19.552	992.900	761.697
102.016	19.521	992.330	761.055
103.030	19.513	991.679	760.454
104.045	19.511	990.862	759.752
105.060	19.385	989.839	758.349
106.074	19.080	988.385	755.828
107.089	18.828	987.269	753.799
108.103	18.810	985.872	752.589
109.118	18.646	985.074	751.196
110.133	18.545	984.233	750.043
111.147	18.596	983.713	749.806
112.162	18.749	983.064	749.915
113.176	18.900	982.194	749.842
114.191	18.916	981.827	749.564
115.206	18.845	981.159	748.681
116.220	18.795	979.698	747.281
117.235	18.750	978.982	746.472
118.249	18.663	978.284	745.495
119.264	18.598	977.595	744.622
120.279	18.576	977.104	744.086
121.293	18.394	975.909	742.326
122.308	18.412	974.924	741.589
123.322	18.455	973.450	740.585
124.337	18.436	972.319	739.578
125.352	18.466	971.524	739.036
126.366	18.429	970.623	738.126
127.381	18.379	969.807	737.227
128.395	18.518	969.077	737.203
129.410	18.574	968.014	736.570
130.424	18.635	967.497	736.371
131.439	18.873	966.877	736.856
132.454	18.876	965.770	735.962
133.468	18.842	965.241	735.346
134.483	18.860	964.615	734.881
135.497	18.984	963.078	734.178
136.512	18.910	962.676	733.487
137.527	18.905	961.769	732.709
138.541	18.920	961.066	732.173
139.556	19.004	960.792	732.260
140.570	19.139	960.298	732.393
141.585	19.451	959.663	733.171
142.600	19.534	958.717	732.733
143.614	19.537	958.183	732.275
144.629	19.548	957.417	731.669
145.643	19.390	956.490	730.230
146.658	19.247	955.044	728.454
147.673	19.109	953.820	726.872
148.687	19.018	953.065	725.851
149.702	18.916	951.902	724.469
150.716	18.855	951.095	723.534
151.731	18.965	950.703	723.637
152.746	19.123	950.064	723.751
153.760	19.096	949.448	723.104
154.775	19.103	949.154	722.845
155.789	19.261	948.824	723.191
156.804	19.228	947.738	722.164
157.819	19.285	947.119	721.867
158.833	19.512	946.336	722.154
159.848	19.635	946.129	722.446
160.862	19.353	944.646	720.075
161.877	19.069	942.973	717.552
162.892	18.960	941.948	716.254
163.906	18.881	941.378	715.429
164.921	18.918	940.820	715.095
165.935	19.060	939.385	714.530
166.950	19.001	938.992	713.924
167.964	19.164	937.761	713.598
168.979	19.030	936.672	712.153
169.994	19.041	935.848	711.508
171.008	19.158	935.609	711.750
172.023	19.431	935.345	712.612
173.037	19.589	934.488	712.547
174.052	19.440	933.146	710.847
175.067	19.023	932.512	708.584
176.081	18.818	932.113	707.373
177.096	18.860	931.335	706.893
178.110	18.769	931.154	706.319
179.125	18.989	930.262	706.485
180.140	19.086	930.014	706.634
181.154	19.433	929.710	707.763
182.169	19.329	929.549	707.153
183.183	19.593	928.410	707.304
184.198	19.504	927.627	706.281
185.213	19.437	927.027	705.487
186.227	19.571	926.482	705.556
187.242	19.664	926.218	705.675
188.256	19.833	925.365	705.649
189.271	19.851	924.555	705.043
190.286	19.281	923.548	701.892
191.300	18.772	922.377	698.868
192.315	18.607	922.050	697.890
193.329	18.900	921.294	698.447
194.344	19.068	920.907	698.774
195.359	19.231	920.063	698.731
196.373	19.231	919.901	698.546
197.388	19.501	919.324	699.139
198.402	19.804	919.017	700.072
199.417	19.986	918.348	700.237
200.432	20.023	917.983	700.046
201.446	20.131	917.410	699.983
202.461	20.238	917.373	700.326
203.475	20.011	916.152	698.414
204.490	19.852	915.133	696.936
205.504	19.616	914.346	695.325
206.519	19.495	913.441	694.091
207.534	19.602	912.880	694.031
208.548	19.480	912.536	693.220
209.563	19.590	912.034	693.219
210.577	19.607	911.694	692.967
211.592	20.063	910.450	693.785
212.607	19.998	910.229	693.297
213.621	19.887	909.258	692.051
214.636	19.692	908.824	690.880
215.650	19.884	908.094	691.030
216.665	20.056	907.463	691.174
217.680	20.139	907.096	691.166
218.694	20.158	906.344	690.607
219.709	19.972	905.745	689.347
220.723	20.123	904.829	689.193
221.738	19.851	904.223	687.588
222.753	19.997	903.273	687.384
223.767	19.964	903.212	687.145
224.782	20.237	902.713	687.788
225.796	20.361	901.963	687.648
226.811	20.081	901.553	686.164
227.826	19.772	900.823	684.328
228.840	19.791	899.889	683.631
229.855	19.977	898.931	683.575
230.869	19.779	898.242	682.212
231.884	19.761	897.741	681.699
232.899	19.729	896.658	680.693
233.913	19.658	895.824	679.718
234.928	19.537	895.378	678.845
235.942	19.521	894.922	678.374
236.957	19.601	894.108	678.012
237.972	19.567	893.768	677.563
238.986	19.536	892.952	676.761
240.001	19.672	892.506	676.896
241.015	19.856	891.457	676.761
242.030	19.717	891.609	676.274
243.045	19.751	890.862	675.778
244.059	19.853	890.571	675.897
245.074	20.023	889.342	675.566
246.088	19.947	889.158	675.070
247.103	20.226	888.599	675.673
248.117	20.351	888.760	676.225
249.132	20.616	888.513	677.006
250.147	20.746	888.441	677.398
251.161	20.757	887.722	676.832
252.176	20.988	886.694	676.887
253.190	21.041	886.279	676.715
254.205	21.067	885.763	676.363
255.220	20.942	884.665	674.980
256.234	20.915	884.047	674.346
257.249	20.933	883.561	673.982
258.263	20.855	882.965	673.168
259.278	20.798	882.379	672.441
260.293	20.968	881.693	672.515
261.307	21.043	880.995	672.213
262.322	21.085	880.832	672.190
263.336	21.147	879.936	671.688
264.351	21.168	879.006	670.998
265.366	21.018	878.746	670.162
266.380	21.029	877.928	669.523
267.395	20.843	877.313	668.280
268.409	20.761	876.661	667.410
269.424	20.830	875.705	666.889
270.439	20.752	875.169	666.121
271.453	20.657	874.400	665.114
272.468	20.739	873.802	664.916
273.482	20.626	873.291	664.033
274.497	20.720	872.426	663.678
275.512	20.588	872.390	663.086
276.526	20.634	871.346	662.410
277.541	20.813	871.413	663.085
278.555	21.148	870.936	663.936
279.570	21.201	870.579	663.808
280.585	21.114	869.682	662.735
281.599	20.983	868.143	661.006
282.614	20.881	867.144	659.803
283.628	20.716	867.390	659.307
284.643	20.795	866.655	658.988
285.657	20.885	865.975	658.753
286.672	20.868	865.316	658.128
287.687	20.953	864.855	658.041
288.701	20.829	864.688	657.388
289.716	20.953	863.776	657.101
290.730	21.016	863.184	656.832
291.745	21.056	862.529	656.425
292.760	21.044	862.398	656.223
293.774	21.317	861.537	656.534
294.789	21.243	860.860	655.682
295.803	20.893	860.340	653.917
296.818	20.840	859.353	652.910
297.833	20.901	858.773	652.639
298.847	20.915	858.094	652.118
299.862	20.968	857.950	652.148
300.876	21.130	857.403	652.282
301.891	21.289	856.984	652.497
302.906	21.582	856.573	653.220
303.920	21.468	856.591	652.751
304.935	21.629	855.901	652.769
305.949	21.444	855.112	651.420
306.964	21.298	854.315	650.213
307.979	21.224	853.670	649.389
308.993	21.486	853.338	650.051
310.008	21.440	852.810	649.422
311.022	21.284	851.796	648.013
312.037	21.307	851.161	647.558
313.052	21.012	850.537	645.936
314.066	20.830	849.948	644.756
315.081	20.743	849.456	644.004
316.095	20.999	848.768	644.373
317.110	20.877	847.893	643.200
318.125	20.829	847.595	642.739
319.139	20.768	847.623	642.479
320.154	20.963	846.873	642.571
321.168	20.959	846.291	642.060
322.183	21.138	845.675	642.194
323.197	21.055	845.479	641.683
324.212	21.115	844.678	641.238
325.227	21.138	843.901	640.677
326.241	21.006	843.362	639.727
327.256	21.097	842.566	639.400
328.270	20.995	842.451	638.882
329.285	20.945	841.611	638.005
330.300	20.877	840.959	637.207
331.314	21.041	840.466	637.375
332.329	21.208	840.522	637.973
333.343	21.235	840.135	637.719
334.358	21.428	839.222	637.673
335.373	21.507	838.786	637.575
336.387	21.520	838.537	637.375
337.402	21.521	838.805	637.527
338.416	21.632	838.856	637.912
339.431	21.825	838.365	638.184
340.446	22.046	837.679	638.411
341.460	21.895	837.525	637.687
342.475	21.969	837.525	637.902
343.489	21.915	837.066	637.298
344.504	22.183	836.125	637.498
345.519	22.143	835.817	637.062
346.533	22.053	835.100	636.134
347.548	21.719	834.349	634.295
348.562	21.538	833.783	633.154
349.577	21.539	832.613	632.213
350.592	21.485	831.937	631.451
351.606	21.498	831.148	630.840
352.621	21.529	830.872	630.686
353.635	21.453	830.414	630.012
354.650	21.543	829.535	629.614
355.665	21.771	828.935	629.921
356.679	21.933	828.233	629.913
357.694	21.685	828.066	628.841
358.708	21.724	827.265	628.315
359.723	21.596	826.871	627.500
360.738	21.721	826.082	627.296
361.752	21.760	825.591	627.007
362.767	22.058	825.182	627.707
363.781	22.200	824.647	627.753
364.796	22.269	824.829	628.079
365.810	22.459	824.137	628.175
366.825	22.594	823.846	628.381
367.840	22.436	823.234	627.293
368.854	22.256	822.418	625.977
369.869	22.225	822.117	625.582
370.883	22.217	821.607	625.111
371.898	22.290	821.537	625.260
372.913	22.232	821.564	625.019
373.927	22.149	820.743	624.045
374.942	22.224	820.029	623.712
375.956	22.428	820.019	624.374
376.971	22.615	818.930	624.150
377.986	22.667	818.982	624.321
379.000	22.578	818.435	623.533
380.015	22.530	818.074	623.033
381.029	22.471	817.208	622.108
382.044	22.489	816.636	621.682
383.059	22.512	816.157	621.343
384.073	22.583	815.212	620.819
385.088	22.246	814.698	619.189
386.102	22.054	814.222	618.095
387.117	22.105	813.220	617.459
388.132	22.152	812.572	617.076
389.146	22.193	812.488	617.103
390.161	22.375	812.256	617.511
391.175	22.431	811.769	617.280
392.190	22.323	810.744	616.070
393.205	22.108	810.443	615.035
394.219	22.143	810.043	614.799
395.234	21.930	809.427	613.530
396.248	21.960	808.751	613.068
397.263	21.866	808.427	612.443
398.278	21.969	807.809	612.280
399.292	21.875	807.652	611.778
400.307	21.900	807.245	611.504
401.321	21.954	806.713	611.232
402.336	22.077	806.395	611.368
403.350	22.246	805.619	611.313
404.365	22.360	805.477	611.547
405.380	22.668	805.270	612.404
406.394	22.678	804.886	612.094
407.409	22.730	804.454	611.890
408.423	22.665	804.765	611.847
409.438	22.751	804.044	611.542
410.453	22.945	803.363	611.642
411.467	22.952	803.380	611.624
412.482	22.972	802.795	611.197
413.496	23.098	802.356	611.242
414.511	23.038	801.826	610.578
415.526	22.904	801.431	609.761
416.540	22.877	800.689	609.050
417.555	22.877	800.460	608.821
418.569	22.872	800.227	608.571
419.584	22.812	799.911	608.072
420.599	23.061	799.443	608.520
421.613	165.038	1371.130	1795.792
422.628	143.395	1454.415	1795.866
