DTS Sentinel unit serial number:	SN413079Multiplexer serial number:	ORYXHardware model number:	OX4-SRSoftware version number:	ORYX F/W v4.00 Oryx Data Collector v3.7.2.0data status	okinstallation	princeton_trtdifferential loss correction	single-endedforward channel	channel 1reverse channel	N/Adate	2019/09/18time	21:26:35forward acquisition time	60.00reverse acquisition time	0.00gamma	496.2192k internal	0.2341k external	0.2341temperature offset calibration	1.0012default loss term (dB/km)	0.3790temperature slope calibration	1.0000multiplexer offset coefficient	1.0000multiplexer slope coefficient	1.0000fibre end	0.00T internal ref (°C)	25.41T ext. ref 1 (°C)	0.82T ext. ref 2 (°C)	18.16length (m)	temperature (°C)	Stokes	anti-Stokes-747.200	8.333	0.224	0.169
-746.185	348.517	-0.174	0.344
-745.171	-114.076	0.232	-0.045
-744.156	629.341	-0.128	0.325
-743.142	800.000	0.113	0.330
-742.127	800.000	-0.065	0.206
-741.112	-200.000	0.014	0.099
-740.098	138.247	-0.192	0.252
-739.083	-119.759	0.263	0.045
-738.069	-200.000	0.010	0.164
-737.054	-38.706	0.107	-0.057
-736.039	-67.324	-0.216	-0.085
-735.025	800.000	-0.026	-0.074
-734.010	-14.312	-0.442	-0.286
-732.996	-134.251	0.107	-0.013
-731.981	637.846	-0.049	-0.125
-730.966	12.384	0.389	0.301
-729.952	-200.000	0.019	-0.191
-728.937	-100.346	-0.242	0.060
-727.923	800.000	-0.060	0.192
-726.908	-200.000	0.058	0.535
-725.894	137.201	0.090	-0.118
-724.879	60.291	-0.310	0.307
-723.864	154.582	-0.014	0.019
-722.850	-200.000	-0.002	0.153
-721.835	-63.056	-0.263	0.109
-720.821	121.251	-0.094	-0.117
-719.806	-128.844	0.469	-0.066
-718.791	-55.308	0.175	-0.079
-717.777	-200.000	0.058	-0.295
-716.762	800.000	0.092	-0.282
-715.748	47.749	0.051	-0.047
-714.733	-156.963	-0.075	-0.005
-713.718	153.641	-0.058	-0.080
-712.704	111.840	0.158	-0.191
-711.689	-21.737	0.355	-0.216
-710.675	-88.334	-0.284	-0.085
-709.660	578.591	0.045	0.110
-708.645	-65.371	-0.418	0.168
-707.631	-200.000	-0.020	0.183
-706.616	111.723	-0.152	0.183
-705.602	91.762	-0.199	0.224
-704.587	746.383	-0.091	-0.246
-703.572	-19.929	0.274	-0.169
-702.558	22.472	-0.225	0.184
-701.543	800.000	-0.090	-0.279
-700.529	-51.132	-0.062	-0.029
-699.514	800.000	0.106	0.434
-698.499	-21.058	-0.123	0.075
-697.485	-124.777	0.138	-0.021
-696.470	-200.000	-0.026	0.116
-695.456	800.000	-0.111	0.337
-694.441	79.756	-0.137	0.147
-693.426	-200.000	-0.001	-0.309
-692.412	209.949	-0.069	0.109
-691.397	-54.000	-0.311	-0.142
-690.383	14.441	0.302	0.236
-689.368	66.623	-0.155	-0.157
-688.354	-200.000	-0.045	0.386
-687.339	-200.000	0.073	0.550
-686.324	276.810	-0.070	-0.125
-685.310	-200.000	0.012	0.316
-684.295	800.000	0.034	0.101
-683.281	800.000	0.036	0.133
-682.266	-104.680	-0.195	0.045
-681.251	50.407	0.026	-0.024
-680.237	-21.953	0.065	-0.040
-679.222	-64.720	0.190	0.077
-678.208	285.936	-0.151	0.272
-677.193	-200.000	0.004	-0.045
-676.178	74.957	0.095	0.100
-675.164	-95.323	-0.170	0.046
-674.149	-4.237	0.135	0.093
-673.135	43.274	0.050	-0.046
-672.120	-21.976	-0.381	0.231
-671.105	-31.049	-0.083	-0.047
-670.091	-31.192	0.504	0.284
-669.076	-18.036	-0.164	0.102
-668.062	35.325	-0.206	0.180
-667.047	-137.580	0.194	0.022
-666.032	1.300	-0.117	-0.084
-665.018	-167.045	0.110	0.005
-664.003	-200.000	0.033	-0.232
-662.989	-81.414	0.265	0.087
-661.974	39.878	0.182	-0.163
-660.959	800.000	0.076	-0.271
-659.945	427.223	-0.148	-0.319
-658.930	8.712	0.033	-0.025
-657.916	-200.000	-0.036	0.287
-656.901	-133.254	0.043	0.005
-655.886	-62.627	-0.033	0.014
-654.872	-33.125	-0.230	0.127
-653.857	-137.755	-0.522	0.058
-652.843	36.720	-0.051	0.045
-651.828	-93.533	-0.368	0.102
-650.814	70.049	-0.058	-0.059
-649.799	52.503	-0.247	-0.235
-648.784	145.600	0.243	-0.326
-647.770	-108.369	0.121	-0.026
-646.755	243.550	0.041	-0.069
-645.741	800.000	-0.046	-0.155
-644.726	800.000	-0.102	-0.359
-643.711	-91.934	-0.411	0.116
-642.697	-200.000	-0.003	-0.357
-641.682	-112.028	-0.108	0.022
-640.668	-111.418	0.154	0.031
-639.653	9.394	-0.161	0.122
-638.638	-200.000	0.020	0.104
-637.624	-57.516	0.131	-0.057
-636.609	138.799	-0.193	-0.253
-635.595	800.000	0.041	-0.139
-634.580	41.193	0.119	-0.107
-633.565	52.195	0.059	0.056
-632.551	318.089	0.037	0.070
-631.536	21.403	0.212	-0.172
-630.522	-21.682	-0.129	0.078
-629.507	-200.000	0.005	-0.132
-628.492	111.874	-0.079	0.096
-627.478	-200.000	-0.006	0.216
-626.463	111.425	-0.056	-0.068
-625.449	172.359	0.212	-0.304
-624.434	-200.000	0.010	0.058
-623.419	118.541	0.192	0.236
-622.405	39.858	0.220	0.197
-621.390	-200.000	-0.014	0.166
-620.376	-10.591	-0.211	-0.139
-619.361	-86.275	0.372	-0.114
-618.346	800.000	0.049	-0.175
-617.332	1.118	-0.106	0.076
-616.317	168.781	0.045	0.064
-615.303	-91.445	-0.099	-0.028
-614.288	-123.770	-0.293	0.046
-613.273	-200.000	-0.030	0.417
-612.259	-47.375	0.426	-0.207
-611.244	-110.777	0.349	0.072
-610.230	-88.784	0.310	0.092
-609.215	-61.094	-0.201	-0.085
-608.201	-200.000	-0.027	0.216
-607.186	-32.997	0.090	0.050
-606.171	37.603	-0.215	0.190
-605.157	46.624	-0.317	-0.293
-604.142	90.449	-0.032	-0.036
-603.128	313.752	0.094	0.177
-602.113	-108.229	-0.379	-0.082
-601.098	-200.000	0.003	-0.113
-600.084	-66.753	0.250	-0.099
-599.069	-25.997	-0.301	0.176
-598.055	393.363	-0.218	-0.451
-597.040	-147.458	0.282	0.024
-596.025	-140.582	0.196	-0.020
-595.011	-200.000	-0.064	0.312
-593.996	-170.627	-0.291	-0.010
-592.982	132.110	0.276	-0.354
-591.967	-200.000	-0.087	0.472
-590.952	-64.886	-0.374	-0.151
-589.938	-200.000	-0.097	0.490
-588.923	676.579	-0.118	-0.304
-587.909	50.407	0.166	-0.157
-586.894	-22.902	-0.288	0.173
-585.879	-200.000	-0.018	0.102
-584.865	-117.945	0.121	0.022
-583.850	79.634	-0.006	-0.006
-582.836	113.476	0.114	-0.138
-581.821	4.196	0.047	-0.035
-580.806	229.761	0.117	-0.191
-579.792	363.185	0.021	0.043
-578.777	255.954	0.023	-0.039
-577.763	199.163	0.026	-0.039
-576.748	-64.878	0.109	-0.044
-575.733	-54.040	0.308	-0.139
-574.719	-80.060	-0.056	0.019
-573.704	124.278	-0.115	-0.144
-572.690	-90.482	0.105	0.030
-571.675	-135.466	-0.107	-0.013
-570.661	-97.679	0.157	-0.040
-569.646	-153.946	0.399	0.027
-568.631	-166.493	0.536	0.022
-567.617	-200.000	-0.024	0.122
-566.602	145.711	0.051	-0.069
-565.588	151.416	-0.155	-0.210
-564.573	-148.662	0.081	0.007
-563.558	36.959	0.124	-0.110
-562.544	-169.227	-0.222	-0.008
-561.529	-107.010	-0.208	-0.046
-560.515	74.822	-0.233	0.244
-559.500	-99.928	-0.210	0.052
-558.485	392.955	0.052	0.108
-557.471	-148.969	-0.164	0.013
-556.456	-6.000	0.353	-0.240
-555.442	800.000	0.088	-0.283
-554.427	534.501	-0.127	0.300
-553.412	-176.172	-0.445	0.012
-552.398	197.988	0.102	-0.156
-551.383	-84.834	-0.285	0.089
-550.369	-200.000	-0.044	-0.342
-549.354	178.083	0.122	0.177
-548.339	-200.000	0.041	0.191
-547.325	-101.121	-0.349	-0.085
-546.310	-200.000	-0.009	0.060
-545.296	800.000	0.053	0.231
-544.281	-129.189	0.184	0.026
-543.266	800.000	-0.101	0.360
-542.252	-30.210	-0.093	-0.052
-541.237	-200.000	-0.069	-0.342
-540.223	-200.000	-0.048	-0.484
-539.208	-197.512	-0.281	-0.002
-538.193	-62.851	-0.279	-0.115
-537.179	-76.539	-0.337	-0.118
-536.164	-10.887	-0.575	0.378
-535.150	-43.386	0.191	-0.096
-534.135	28.055	0.324	-0.272
-533.121	-200.000	0.024	0.196
-532.106	-97.510	-0.240	-0.062
-531.091	112.756	0.088	0.106
-530.077	146.990	-0.275	0.368
-529.062	-80.010	-0.329	0.110
-528.048	12.180	0.443	-0.339
-527.033	203.042	0.189	-0.290
-526.018	-200.000	-0.010	0.062
-525.004	-18.093	-0.252	0.157
-523.989	11.283	0.208	0.158
-522.975	-200.000	-0.015	-0.170
-521.960	-46.120	-0.141	0.069
-520.945	800.000	-0.061	0.221
-519.931	316.457	0.146	-0.274
-518.916	-98.466	-0.278	-0.071
-517.902	29.855	-0.387	-0.327
-516.887	-24.313	0.258	0.153
-515.872	301.238	0.159	-0.292
-514.858	600.326	-0.135	0.334
-513.843	-87.758	0.186	-0.056
-512.829	346.423	-0.039	0.077
-511.814	25.006	-0.162	0.134
-510.799	-48.186	0.181	0.087
-509.785	-200.000	-0.015	0.156
-508.770	163.393	0.124	-0.172
-507.756	71.002	0.152	-0.157
-506.741	159.876	-0.182	-0.251
-505.726	21.515	-0.095	0.076
-504.712	-200.000	0.147	-0.000
-503.697	800.000	-0.085	-0.262
-502.683	302.450	-0.164	0.301
-501.668	264.606	-0.032	-0.056
-500.653	103.736	-0.134	-0.156
-499.639	-112.346	-0.167	0.033
-498.624	800.000	-0.048	0.204
-497.610	8.803	-0.241	0.181
-496.595	-200.000	0.044	-0.284
-495.581	-89.905	0.210	-0.061
-494.566	152.035	-0.279	0.377
-493.551	-92.115	-0.121	-0.034
-492.537	-200.000	-0.064	0.289
-491.522	130.457	0.076	-0.096
-490.508	-62.232	0.097	0.040
-489.493	333.757	0.093	-0.179
-488.478	191.662	-0.055	0.083
-487.464	-200.000	0.011	0.226
-486.449	351.419	-0.059	0.116
-485.435	-130.157	-0.084	0.011
-484.420	-200.000	-0.032	-0.155
-483.405	-1.748	-0.155	-0.108
-482.391	7.416	-0.298	-0.221
-481.376	-87.573	0.063	-0.019
-480.362	-200.000	0.044	-0.209
-479.347	69.890	-0.191	0.195
-478.332	-79.941	-0.218	-0.073
-477.318	195.781	-0.090	-0.136
-476.303	-148.364	0.480	0.039
-475.289	-11.201	-0.115	-0.075
-474.274	113.912	-0.029	0.035
-473.259	-97.472	-0.290	0.075
-472.245	-110.046	0.055	0.011
-471.230	800.000	0.095	-0.379
-470.216	-200.000	0.002	-0.163
-469.201	-56.459	0.169	0.075
-468.186	-108.776	-0.232	-0.049
-467.172	555.926	0.033	0.078
-466.157	49.348	-0.101	-0.095
-465.143	42.302	-0.127	0.114
-464.128	328.552	-0.035	0.066
-463.113	-200.000	0.040	-0.354
-462.099	51.283	-0.102	0.096
-461.084	-200.000	-0.009	0.141
-460.070	755.109	0.070	-0.187
-459.055	485.337	0.089	-0.201
-458.040	-135.334	0.126	0.015
-457.026	-200.000	-0.041	0.295
-456.011	250.254	-0.078	-0.131
-454.997	800.000	0.079	0.230
-453.982	145.497	0.167	-0.221
-452.968	-200.000	0.016	-0.228
-451.953	-200.000	-0.032	-0.193
-450.938	-86.836	0.226	0.068
-449.924	-158.523	0.204	-0.012
-448.909	89.167	0.152	0.167
-447.895	352.194	-0.130	0.254
-446.880	800.000	-0.145	0.444
-445.865	-29.300	0.071	0.040
-444.851	30.219	0.195	0.165
-443.836	-95.936	-0.117	-0.031
-442.822	800.000	0.027	0.087
-441.807	800.000	0.094	-0.391
-440.792	-119.166	-0.462	-0.080
-439.778	-131.843	-0.327	-0.042
-438.763	80.866	0.082	-0.087
-437.749	-87.998	-0.069	-0.020
-436.734	-69.371	-0.248	0.094
-435.719	107.630	0.308	-0.363
-434.705	289.384	-0.014	-0.025
-433.690	-14.675	0.127	-0.081
-432.676	176.683	0.060	-0.087
-431.661	345.210	-0.215	-0.419
-430.646	-83.057	0.130	0.041
-429.632	800.000	0.018	0.056
-428.617	311.358	0.129	0.240
-427.603	-104.901	0.287	0.065
-426.588	296.707	-0.106	-0.192
-425.573	800.000	-0.092	0.267
-424.559	-200.000	-0.102	0.625
-423.544	112.308	-0.118	-0.141
-422.530	-200.000	-0.021	-0.123
-421.515	-200.000	0.044	0.251
-420.500	-79.351	-0.255	0.086
-419.486	78.131	0.073	-0.077
-418.471	800.000	0.086	-0.274
-417.457	800.000	0.023	0.082
-416.442	182.428	-0.059	0.086
-415.428	-83.110	-0.059	-0.019
-414.413	-77.972	-0.293	0.100
-413.398	-100.416	0.037	0.009
-412.384	485.972	0.162	0.365
-411.369	21.397	-0.181	0.145
-410.355	428.806	0.053	0.114
-409.340	-103.987	-0.464	-0.107
-408.325	-142.743	0.243	-0.023
-407.311	800.000	0.021	0.066
-406.296	-200.000	-0.009	0.277
-405.282	129.742	-0.108	0.137
-404.267	-136.373	-0.266	-0.031
-403.252	20.525	0.305	0.244
-402.238	800.000	-0.052	-0.223
-401.223	-200.000	-0.018	-0.104
-400.209	-200.000	-0.006	-0.135
-399.194	-102.439	-0.258	-0.061
-398.179	-200.000	0.035	0.258
-397.165	-4.339	0.204	0.139
-396.150	-87.094	0.141	-0.042
-395.136	205.440	0.096	0.147
-394.121	800.000	0.039	0.109
-393.106	167.859	0.070	0.098
-392.092	-113.016	0.210	0.041
-391.077	412.022	0.082	-0.171
-390.063	561.820	-0.103	-0.246
-389.048	283.770	0.155	0.275
-388.033	-25.547	-0.280	0.163
-387.019	27.184	0.265	0.220
-386.004	-140.906	-0.164	-0.017
-384.990	471.947	-0.021	0.047
-383.975	53.541	0.243	-0.231
-382.960	629.734	-0.057	-0.141
-381.946	-5.586	-0.247	-0.167
-380.931	800.000	0.088	0.336
-379.917	-200.000	-0.017	-0.152
-378.902	-55.230	0.355	0.158
-377.888	469.107	-0.101	0.223
-376.873	-189.150	0.181	0.002
-375.858	-49.765	-0.116	-0.054
-374.844	-10.443	0.210	0.137
-373.829	800.000	-0.020	0.065
-372.815	242.700	-0.089	0.148
-371.800	-124.042	-0.391	0.061
-370.785	-197.767	-0.231	0.001
-369.771	-89.423	-0.080	0.023
-368.756	7.248	0.098	-0.072
-367.742	800.000	0.062	0.187
-366.727	172.477	-0.139	-0.197
-365.712	36.647	-0.170	-0.148
-364.698	762.334	-0.129	-0.344
-363.683	-71.600	0.239	0.088
-362.669	219.367	-0.068	0.108
-361.654	-155.079	0.353	-0.023
-360.639	306.417	0.181	-0.333
-359.625	-21.310	0.143	0.086
-358.610	66.303	0.293	0.294
-357.596	13.048	-0.075	-0.057
-356.581	-200.000	-0.010	0.265
-355.566	54.357	-0.188	-0.179
-354.552	-157.640	-0.157	0.009
-353.537	144.140	-0.177	-0.233
-352.523	-22.559	-0.347	-0.207
-351.508	26.895	-0.206	0.170
-350.493	-66.321	0.211	-0.083
-349.479	-200.000	-0.081	-0.450
-348.464	-1.252	-0.110	-0.077
-347.450	-50.166	-0.102	0.048
-346.435	-200.000	-0.034	0.342
-345.420	-146.880	0.059	-0.005
-344.406	-200.000	0.005	-0.248
-343.391	-9.909	-0.124	0.081
-342.377	-152.685	0.217	-0.015
-341.362	10.992	-0.179	0.135
-340.348	30.488	0.188	0.159
-339.333	491.952	-0.046	0.103
-338.318	-159.757	0.247	0.013
-337.304	158.959	-0.162	-0.223
-336.289	-200.000	0.012	-0.210
-335.275	289.300	0.068	-0.121
-334.260	-51.903	0.087	0.040
-333.245	-80.639	0.203	0.067
-332.231	-93.951	-0.327	-0.089
-331.216	-89.583	0.455	-0.132
-330.202	61.030	-0.168	-0.165
-329.187	-90.088	0.368	0.106
-328.172	-200.000	-0.028	0.141
-327.158	80.104	0.253	-0.268
-326.143	-200.000	0.044	0.237
-325.129	-128.066	-0.268	0.038
-324.114	-143.221	0.335	-0.032
-323.099	-200.000	-0.029	0.166
-322.085	54.722	0.063	0.060
-321.070	680.892	0.010	0.026
-320.056	-48.689	0.186	-0.088
-319.041	197.376	-0.227	-0.341
-318.026	-80.524	-0.101	-0.033
-317.012	-132.009	0.261	0.034
-315.997	-200.000	0.004	0.132
-314.983	-111.499	0.194	-0.039
-313.968	539.877	-0.126	-0.294
-312.953	-127.876	-0.253	-0.036
-311.939	-120.684	0.110	0.018
-310.924	-96.806	-0.137	0.035
-309.910	-47.205	0.222	0.107
-308.895	168.460	0.034	0.048
-307.880	800.000	0.025	-0.099
-306.866	-112.859	-0.146	0.029
-305.851	-147.911	0.313	0.026
-304.837	74.554	-0.180	0.186
-303.822	-112.355	-0.350	-0.069
-302.807	36.143	-0.069	0.060
-301.793	-9.916	0.070	-0.046
-300.778	-72.740	0.220	-0.080
-299.764	-16.025	0.379	0.237
-298.749	-46.805	0.120	-0.058
-297.735	145.668	0.138	-0.182
-296.720	-121.419	0.125	-0.020
-295.705	-105.446	0.255	0.057
-294.691	-129.972	-0.459	0.062
-293.676	107.229	0.369	0.432
-292.662	339.364	0.202	0.388
-291.647	-200.000	-0.035	0.180
-290.632	40.914	0.008	0.007
-289.618	460.800	-0.135	-0.296
-288.603	-200.000	-0.035	0.396
-287.589	-69.851	0.089	-0.033
-286.574	-137.976	0.045	0.005
-285.559	-200.000	-0.064	-0.409
-284.545	-200.000	0.008	-0.158
-283.530	-200.000	-0.008	-0.089
-282.516	284.348	0.028	0.050
-281.501	57.964	0.311	-0.299
-280.486	319.005	0.114	-0.213
-279.472	-200.000	0.053	0.250
-278.457	-75.397	-0.103	-0.036
-277.443	-73.778	0.147	-0.053
-276.428	-50.866	-0.100	0.046
-275.413	-70.376	0.182	0.068
-274.399	108.508	-0.140	-0.164
-273.384	347.247	-0.048	0.093
-272.370	26.771	-0.217	-0.179
-271.355	205.431	0.042	-0.064
-270.340	-58.446	-0.162	-0.069
-269.326	-47.833	0.151	-0.072
-268.311	162.926	-0.144	-0.199
-267.297	-116.944	0.120	-0.022
-266.282	90.291	0.060	0.066
-265.267	-80.859	0.193	0.063
-264.253	61.224	0.299	0.292
-263.238	-200.000	-0.005	-0.227
-262.224	-99.765	0.087	-0.021
-261.209	-139.852	0.163	-0.017
-260.195	800.000	0.017	0.068
-259.180	331.268	-0.089	0.168
-258.165	800.000	0.069	-0.203
-257.151	239.115	0.014	-0.022
-256.136	253.402	0.160	-0.268
-255.122	-78.496	0.134	-0.045
-254.107	-99.521	-0.348	0.086
-253.092	-200.000	0.040	0.403
-252.078	800.000	0.131	0.377
-251.063	-61.149	-0.171	0.071
-250.049	-137.832	0.125	-0.014
-249.034	290.186	-0.156	0.279
-248.019	63.428	0.119	0.117
-247.005	179.890	-0.035	-0.050
-245.990	216.560	0.218	-0.341
-244.976	-200.000	-0.009	0.189
-243.961	572.403	0.067	-0.160
-242.946	27.890	-0.215	-0.178
-241.932	262.559	0.227	-0.387
-240.917	232.544	-0.174	0.281
-239.903	71.969	-0.163	0.167
-238.888	-200.000	0.022	0.108
-237.873	77.330	0.075	0.079
-236.859	747.709	-0.020	-0.053
-235.844	3.192	0.186	0.133
-234.830	-189.894	-0.111	0.001
-233.815	70.951	-0.197	0.201
-232.800	-95.643	-0.287	-0.076
-231.786	247.660	-0.050	0.083
-230.771	-94.126	0.285	0.077
-229.757	671.048	0.082	-0.209
-228.742	426.986	0.046	0.098
-227.727	-76.292	0.205	-0.071
-226.713	-200.000	0.022	0.419
-225.698	-200.000	0.030	0.223
-224.684	-142.312	0.139	-0.013
-223.669	36.615	0.171	-0.148
-222.655	357.044	-0.067	-0.130
-221.640	423.180	0.007	-0.015
-220.625	-19.597	-0.177	0.108
-219.611	-58.258	0.252	0.107
-218.596	-200.000	-0.060	-0.398
-217.582	-125.660	0.181	0.027
-216.567	2.830	0.427	0.304
-215.552	800.000	-0.027	0.115
-214.538	324.652	0.124	0.232
-213.523	48.071	0.262	-0.240
-212.509	3.851	0.294	0.211
-211.494	13.790	0.102	0.077
-210.479	800.000	0.061	0.201
-209.465	-6.205	-0.150	-0.100
-208.450	284.176	-0.107	-0.190
-207.436	-200.000	-0.020	0.213
-206.421	44.555	-0.236	-0.213
-205.406	-49.839	0.263	-0.122
-204.392	-200.000	0.063	-0.474
-203.377	-200.000	0.008	0.203
-202.363	-193.129	-0.312	0.003
-201.348	-200.000	-0.002	0.194
-200.333	5.766	-0.064	0.047
-199.319	-8.134	-0.162	0.107
-198.304	-127.059	-0.167	0.024
-197.290	386.324	0.132	0.266
-196.275	460.808	0.135	-0.294
-195.260	52.136	-0.313	-0.293
-194.246	800.000	-0.052	0.166
-193.231	76.357	0.075	0.078
-192.217	240.860	0.119	-0.195
-191.202	-200.000	-0.049	-0.539
-190.187	-85.364	-0.147	-0.045
-189.173	88.528	-0.183	0.199
-188.158	-200.000	-0.042	0.284
-187.144	7.214	0.175	-0.128
-186.129	264.497	0.042	0.072
-185.114	35.665	-0.093	-0.080
-184.100	77.230	-0.266	-0.278
-183.085	70.291	0.171	0.173
-182.071	800.000	0.013	-0.051
-181.056	-200.000	0.021	-0.201
-180.042	50.449	-0.174	0.161
-179.027	-22.852	0.173	0.103
-178.012	55.043	0.057	-0.054
-176.998	478.590	-0.105	0.232
-175.983	-200.000	0.054	0.304
-174.969	232.683	-0.076	-0.122
-173.954	-122.004	0.200	0.032
-172.939	-200.000	0.080	0.539
-171.925	-3.236	0.215	-0.147
-170.910	78.537	-0.259	0.272
-169.896	-75.699	-0.363	-0.126
-168.881	135.341	0.087	-0.111
-167.866	352.584	0.053	-0.103
-166.852	-108.935	-0.140	-0.029
-165.837	-200.000	-0.002	0.233
-164.823	11.348	0.033	0.025
-163.808	-58.987	0.263	0.111
-162.793	-52.019	0.249	-0.113
-161.779	800.000	0.103	-0.423
-160.764	73.656	0.078	0.080
-159.750	-124.803	-0.330	-0.050
-158.735	224.244	-0.099	0.157
-157.720	-200.000	0.018	-0.250
-156.706	293.770	0.141	0.253
-155.691	-20.958	-0.153	0.092
-154.677	-7.360	-0.141	-0.093
-153.662	-93.820	-0.048	0.013
-152.647	73.462	0.175	-0.179
-151.633	-200.000	-0.009	0.282
-150.618	66.440	0.195	-0.194
-149.604	153.886	0.115	-0.155
-148.589	-200.000	-0.017	-0.197
-147.574	-57.814	-0.446	0.191
-146.560	3.231	0.225	0.160
-145.545	-107.566	-0.231	-0.049
-144.531	170.592	-0.255	0.358
-143.516	-146.410	0.278	0.024
-142.502	80.461	0.230	0.242
-141.487	110.184	0.072	-0.085
-140.472	-43.818	0.226	0.111
-139.458	-80.607	0.378	-0.123
-138.443	-14.267	0.034	-0.022
-137.429	-78.239	-0.158	0.053
-136.414	211.041	-0.218	0.335
-135.399	-166.383	0.637	0.026
-134.385	-100.966	0.167	0.040
-133.370	-200.000	0.006	-0.129
-132.356	43.624	0.115	0.103
-131.341	-200.000	0.029	-0.179
-130.326	729.112	-0.089	-0.233
-129.312	159.743	0.279	0.380
-128.297	800.000	-0.046	-0.194
-127.283	-181.455	0.096	0.002
-126.268	316.570	-0.108	0.200
-125.253	112.131	-0.016	0.019
-124.239	800.000	0.015	0.040
-123.224	-38.769	0.202	-0.104
-122.210	-113.128	-0.255	0.049
-121.195	-200.000	0.078	-0.417
-120.180	300.957	-0.175	0.316
-119.166	251.710	0.068	0.113
-118.151	-200.000	0.013	0.075
-117.137	-200.000	0.009	0.162
-116.122	-113.607	0.410	0.078
-115.107	-42.684	-0.221	-0.110
-114.093	-41.184	0.142	-0.072
-113.078	800.000	0.057	0.157
-112.064	-200.000	0.012	0.072
-111.049	-48.424	0.154	0.072
-110.034	-73.497	0.046	0.016
-109.020	800.000	-0.042	0.150
-108.005	-200.000	-0.006	0.188
-106.991	-200.000	-0.017	0.085
-105.976	-200.000	0.028	0.143
-104.962	-200.000	0.026	0.256
-103.947	-139.471	-0.260	-0.027
-102.932	-59.295	-0.336	0.141
-101.918	-200.000	-0.053	0.248
-100.903	-200.000	0.324	-0.001
-99.889	51.419	-0.055	0.051
-98.874	95.624	-0.122	0.136
-97.859	-77.264	-0.147	0.050
-96.845	37.354	0.262	-0.227
-95.830	-31.682	0.167	0.092
-94.816	151.714	0.184	-0.245
-93.801	-200.000	0.024	0.116
-92.786	101.871	-0.115	0.131
-91.772	277.222	0.092	0.160
-90.757	153.648	0.086	0.115
-89.743	4.979	0.060	0.043
-88.728	-130.018	-0.123	0.016
-87.713	27.999	-0.169	-0.139
-86.699	126.494	-0.165	0.205
-85.684	725.118	0.046	0.119
-84.670	800.000	0.120	0.443
-83.655	800.000	0.043	-0.122
-82.640	344.387	0.119	-0.228
-81.626	64.725	-0.214	0.211
-80.611	554.107	-0.026	-0.062
-79.597	170.744	-0.179	0.250
-78.582	-115.176	0.199	-0.037
-77.567	-189.134	-0.228	-0.003
-76.553	800.000	0.061	0.193
-75.538	800.000	-0.081	-0.254
-74.524	-200.000	-0.051	-0.302
-73.509	800.000	0.071	0.208
-72.494	214.779	0.160	-0.247
-71.480	258.979	-0.111	0.187
-70.465	-155.721	0.196	0.012
-69.451	800.000	-0.141	0.540
-68.436	800.000	-0.040	0.168
-67.422	75.919	-0.122	-0.126
-66.407	-177.204	0.247	0.006
-65.392	-22.740	0.060	-0.035
-64.378	800.000	-0.056	0.215
-63.363	2.513	0.192	0.136
-62.349	228.683	-0.150	0.239
-61.334	99.159	-0.842	-0.950
-60.319	141.748	0.622	0.804
-59.305	370.692	-0.558	-1.104
-58.290	386.285	0.704	1.418
-57.276	154.509	0.939	1.257
-56.261	-200.000	119.581	623.771
-55.246	414.625	1536.215	3191.209
-54.232	148.735	2682.160	3535.834
-53.217	98.692	2128.145	2394.669
-52.203	36.401	1574.716	1354.578
-51.188	28.713	1321.321	1091.094
-50.173	26.082	1283.942	1044.972
-49.159	50.285	1350.174	1244.010
-48.144	48.535	1363.130	1245.462
-47.130	28.695	1312.504	1083.533
-46.115	25.636	1293.296	1049.817
-45.100	25.371	1288.518	1044.356
-44.086	25.317	1286.762	1042.577
-43.071	25.424	1283.607	1040.600
-42.057	25.212	1282.577	1038.495
-41.042	25.450	1279.792	1037.573
-40.027	25.323	1278.850	1036.035
-39.013	25.321	1276.400	1033.997
-37.998	25.201	1275.363	1032.430
-36.984	25.315	1273.356	1031.417
-35.969	25.268	1272.108	1030.095
-34.954	25.506	1269.844	1029.585
-33.940	25.397	1268.762	1028.044
-32.925	25.472	1267.481	1027.392
-31.911	25.574	1265.727	1026.513
-30.896	25.597	1264.127	1025.305
-29.881	25.393	1263.336	1023.459
-28.867	25.483	1261.666	1022.577
-27.852	25.526	1260.453	1021.799
-26.838	25.569	1259.056	1020.868
-25.823	25.653	1257.718	1020.221
-24.809	25.399	1256.523	1017.775
-23.794	25.504	1255.000	1017.091
-22.779	25.483	1254.142	1016.238
-21.765	25.468	1252.851	1015.069
-20.750	25.466	1251.426	1013.863
-19.736	25.313	1250.474	1012.189
-18.721	25.518	1248.872	1012.003
-17.706	25.293	1248.371	1010.294
-16.692	25.436	1246.805	1009.788
-15.677	25.437	1245.326	1008.555
-14.663	25.429	1244.440	1007.756
-13.648	25.366	1243.695	1006.758
-12.633	25.304	1243.527	1006.232
-11.619	25.311	1241.947	1004.958
-10.604	25.336	1240.787	1004.119
-9.590	25.244	1240.266	1003.142
-8.575	25.407	1238.647	1002.699
-7.560	25.460	1238.040	1002.466
-6.546	25.267	1237.537	1000.941
-5.531	25.320	1236.681	1000.508
-4.517	25.352	1235.745	999.884
-3.502	25.409	1234.659	999.286
-2.487	25.463	1233.901	998.932
-1.473	25.207	1229.640	994.025
-0.458	23.370	1214.208	971.451
0.556	18.410	1197.511	931.434
1.571	14.400	1204.471	914.789
2.586	13.444	1219.829	921.057
3.600	13.644	1208.259	913.342
4.615	10.440	1137.929	843.452
5.629	4.042	1067.410	759.797
6.644	0.953	1049.923	732.360
7.659	0.737	1047.993	729.903
8.673	0.818	1046.960	729.513
9.688	0.762	1045.779	728.356
10.702	0.854	1044.073	727.546
11.717	4.848	1048.042	749.497
12.731	11.920	1056.902	789.983
13.746	16.471	1062.658	816.240
14.761	17.257	1063.868	820.892
15.775	16.607	1061.953	816.208
16.790	15.533	1060.362	809.740
17.804	14.869	1058.477	805.032
18.819	14.602	1057.565	802.982
19.834	14.391	1056.233	800.885
20.848	14.122	1055.516	798.979
21.863	13.869	1054.778	797.135
22.877	13.668	1054.008	795.514
23.892	13.642	1053.585	795.003
24.907	13.598	1053.065	794.329
25.921	13.710	1052.009	794.000
26.936	13.803	1051.027	793.632
27.950	13.873	1049.512	792.750
28.965	13.940	1048.588	792.303
29.980	13.876	1047.330	790.977
30.994	13.959	1046.419	790.615
32.009	13.990	1045.541	790.030
33.023	13.863	1044.483	788.554
34.038	13.844	1043.662	787.779
35.053	13.927	1042.752	787.411
36.067	13.811	1042.279	786.439
37.082	13.760	1041.786	785.753
38.096	13.832	1040.760	785.252
39.111	13.903	1040.003	784.947
40.126	13.713	1038.983	783.212
41.140	13.734	1037.521	782.137
42.155	13.770	1036.612	781.554
43.169	13.618	1035.894	780.225
44.184	13.772	1034.265	779.655
45.199	13.643	1033.637	778.506
46.213	13.781	1032.208	778.010
47.228	13.812	1031.476	777.534
48.242	13.812	1030.141	776.460
49.257	13.804	1029.411	775.802
50.271	13.833	1028.717	775.347
51.286	13.916	1027.760	774.941
52.301	13.961	1026.803	774.362
53.315	13.778	1025.958	772.805
54.330	13.867	1024.891	772.346
55.344	13.726	1024.139	771.055
56.359	13.831	1023.285	770.834
57.374	13.672	1022.455	769.399
58.388	13.596	1021.303	768.114
59.403	13.697	1020.549	767.949
60.417	13.621	1020.096	767.186
61.432	13.753	1018.736	766.707
62.447	13.601	1018.448	765.718
63.461	13.545	1018.053	765.095
64.476	13.564	1017.136	764.426
65.490	13.615	1015.909	763.669
66.505	13.686	1015.241	763.430
67.520	13.715	1014.847	763.199
68.534	13.645	1013.993	762.166
69.549	13.800	1012.913	762.001
70.563	13.660	1012.634	761.081
71.578	13.513	1011.685	759.625
72.593	13.524	1011.002	759.096
73.607	13.535	1010.427	758.647
74.622	13.630	1009.638	758.423
75.636	13.652	1008.637	757.702
76.651	13.487	1008.264	756.603
77.666	13.654	1007.502	756.727
78.680	13.600	1007.024	756.051
79.695	13.595	1006.327	755.441
80.709	13.694	1005.418	755.143
81.724	13.594	1004.992	754.298
82.739	13.725	1003.912	754.016
83.753	13.636	1003.159	752.981
84.768	13.847	1002.046	753.036
85.782	13.829	1001.773	752.684
86.797	13.921	1000.543	752.108
87.812	13.811	999.846	751.021
88.826	13.709	998.979	749.841
89.841	13.822	997.601	749.253
90.855	13.678	997.855	748.727
91.870	13.867	996.264	748.318
92.884	13.844	995.493	747.570
93.899	13.831	994.833	746.948
94.914	13.959	993.775	746.664
95.928	13.992	992.917	746.103
96.943	14.007	992.104	745.493
97.957	13.852	991.196	744.050
98.972	13.908	990.099	743.411
99.987	13.775	989.729	742.471
101.001	13.777	988.692	741.635
102.016	13.917	987.803	741.530
103.030	13.789	987.265	740.489
104.045	13.897	986.576	740.389
105.060	13.765	985.572	738.981
106.074	13.839	984.250	738.252
107.089	13.846	983.559	737.702
108.103	13.685	983.256	736.692
109.118	13.776	982.115	736.175
110.133	13.656	981.728	735.287
111.147	13.864	980.198	735.000
112.162	13.906	979.618	734.686
113.176	13.722	979.095	733.413
114.191	13.907	977.799	733.197
115.206	13.875	976.998	732.389
116.220	13.857	976.443	731.830
117.235	13.799	975.483	730.791
118.249	13.975	974.524	730.780
119.264	13.986	973.811	730.231
120.279	13.838	973.276	729.115
121.293	13.702	972.570	727.921
122.308	13.731	971.901	727.485
123.322	13.862	970.281	726.783
124.337	13.741	969.620	725.691
125.352	13.842	968.505	725.234
126.366	13.701	967.818	724.042
127.381	13.801	966.204	723.208
128.395	13.838	965.152	722.516
129.410	13.759	964.876	721.899
130.424	13.864	963.903	721.568
131.439	13.794	963.312	720.754
132.454	13.876	962.211	720.225
133.468	13.882	961.588	719.719
134.483	13.847	960.326	718.560
135.497	13.903	959.459	718.091
136.512	13.913	958.402	717.277
137.527	13.844	958.149	716.727
138.541	13.977	957.042	716.410
139.556	13.903	956.475	715.604
140.570	14.040	955.621	715.491
141.585	14.028	954.880	714.820
142.600	13.984	954.047	713.945
143.614	14.070	953.129	713.562
144.629	13.971	952.516	712.618
145.643	14.013	951.959	712.317
146.658	13.977	950.893	711.302
147.673	14.014	949.865	710.631
148.687	13.925	949.486	709.902
149.702	13.954	948.329	709.098
150.716	13.970	947.723	708.651
151.731	14.035	947.031	708.348
152.746	14.090	946.160	707.869
153.760	14.000	945.503	706.929
154.775	14.138	944.980	707.062
155.789	14.230	944.559	707.078
156.804	14.126	943.731	705.954
157.819	14.266	942.816	705.802
158.833	14.087	942.398	704.666
159.848	14.283	941.682	704.897
160.862	14.051	940.301	702.820
161.877	14.077	939.718	702.433
162.892	14.148	938.294	701.607
163.906	14.185	937.720	701.272
164.921	14.109	937.033	700.377
165.935	14.070	936.246	699.561
166.950	14.258	935.000	699.357
167.964	14.232	934.038	698.466
168.979	14.190	933.467	697.803
169.994	14.166	932.423	696.860
171.008	14.216	932.069	696.741
172.023	14.319	931.088	696.377
173.037	14.422	930.159	696.052
174.052	14.419	929.587	695.549
175.067	14.236	929.065	694.336
176.081	14.221	928.477	693.772
177.096	14.210	927.824	693.177
178.110	14.194	927.506	692.809
179.125	14.321	926.577	692.584
180.140	14.253	926.164	691.932
181.154	14.323	925.628	691.762
182.169	14.204	925.463	691.082
183.183	14.421	924.435	691.151
184.198	14.457	923.470	690.519
185.213	14.345	923.161	689.763
186.227	14.494	922.271	689.654
187.242	14.516	921.695	689.252
188.256	14.591	920.805	688.837
189.271	14.371	920.365	687.539
190.286	14.402	919.636	687.062
191.300	14.263	919.295	686.171
192.315	14.331	918.475	685.780
193.329	14.323	918.222	685.496
194.344	14.343	917.508	684.986
195.359	14.524	916.202	684.691
196.373	14.607	915.428	684.396
197.388	14.494	915.349	683.811
198.402	14.651	915.058	684.178
199.417	14.716	914.113	683.675
200.432	14.709	913.723	683.296
201.446	14.772	913.060	682.997
202.461	14.658	912.869	682.325
203.475	14.697	911.879	681.686
204.490	14.729	911.011	681.105
205.504	14.736	910.460	680.665
206.519	14.780	909.812	680.299
207.534	14.751	909.064	679.560
208.548	14.662	908.775	678.923
209.563	14.702	907.878	678.354
210.577	14.847	907.054	678.267
211.592	14.742	906.608	677.447
212.607	14.827	906.139	677.382
213.621	14.856	905.204	676.740
214.636	14.903	904.177	676.101
215.650	14.764	904.180	675.482
216.665	14.795	903.511	675.051
217.680	15.029	902.034	674.830
218.694	14.795	902.117	673.887
219.709	14.723	901.419	673.016
220.723	15.003	900.354	673.290
221.738	14.841	899.965	672.286
222.753	14.904	899.617	672.221
223.767	14.976	898.699	671.765
224.782	15.138	898.400	672.131
225.796	15.010	897.341	670.766
226.811	15.118	896.567	670.562
227.826	14.998	896.057	669.642
228.840	15.097	895.106	669.265
229.855	15.058	894.550	668.636
230.869	15.070	893.681	667.973
231.884	14.996	893.012	667.122
232.899	15.043	892.178	666.624
233.913	15.157	891.918	666.827
234.928	14.983	891.154	665.503
235.942	15.064	890.601	665.354
236.957	15.194	889.903	665.290
237.972	14.975	889.749	664.246
238.986	14.974	889.154	663.739
240.001	14.947	888.570	663.137
241.015	15.044	887.740	662.845
242.030	15.076	886.945	662.320
243.045	15.201	886.083	662.112
244.059	15.232	885.800	661.964
245.074	15.152	884.994	660.988
246.088	15.043	884.827	660.374
247.103	15.280	883.775	660.465
248.117	15.273	883.407	660.101
249.132	15.416	882.492	659.920
250.147	15.273	882.558	659.350
251.161	15.475	881.303	659.149
252.176	15.364	880.871	658.330
253.190	15.485	880.120	658.186
254.205	15.458	879.620	657.649
255.220	15.524	878.691	657.151
256.234	15.495	878.366	656.737
257.249	15.535	877.618	656.279
258.263	15.561	876.833	655.736
259.278	15.567	876.233	655.252
260.293	15.574	875.608	654.752
261.307	15.607	875.050	654.408
262.322	15.603	874.723	654.087
263.336	15.797	873.556	653.911
264.351	15.749	872.915	653.186
265.366	15.637	872.402	652.311
266.380	15.720	871.828	652.144
267.395	15.708	871.001	651.423
268.409	15.699	870.152	650.696
269.424	15.818	869.309	650.467
270.439	15.848	868.910	650.228
271.453	15.753	868.483	649.485
272.468	15.747	867.790	648.887
273.482	15.927	867.126	649.024
274.497	15.840	866.424	648.106
275.512	15.686	866.239	647.318
276.526	15.846	865.453	647.289
277.541	15.897	865.154	647.204
278.555	16.005	864.319	646.938
279.570	15.741	864.200	645.776
280.585	15.886	863.506	645.756
281.599	16.000	862.177	645.142
282.614	15.920	861.304	644.125
283.628	15.937	861.118	643.998
284.643	16.059	860.445	643.901
285.657	15.989	859.858	643.137
286.672	16.003	859.069	642.543
287.687	16.001	858.516	642.066
288.701	16.048	858.120	641.893
289.716	16.123	857.505	641.660
290.730	16.036	857.144	641.004
291.745	16.024	856.308	640.276
292.760	16.216	855.433	640.292
293.774	16.150	855.152	639.777
294.789	16.073	854.617	639.029
295.803	16.195	853.574	638.654
296.818	16.090	853.257	637.960
297.833	16.042	852.697	637.305
298.847	16.118	852.113	637.101
299.862	16.265	851.298	636.990
300.876	16.262	850.543	636.358
301.891	16.298	850.258	636.223
302.906	16.294	849.755	635.774
303.920	16.299	849.034	635.199
304.935	16.452	848.102	635.018
305.949	16.445	847.927	634.805
306.964	16.311	847.470	633.904
307.979	16.391	846.923	633.739
308.993	16.330	846.506	633.144
310.008	16.397	845.780	632.796
311.022	16.377	845.256	632.271
312.037	16.472	844.379	631.914
313.052	16.478	843.636	631.326
314.066	16.353	843.690	630.843
315.081	16.474	842.585	630.412
316.095	16.430	842.039	629.784
317.110	16.460	841.801	629.661
318.125	16.454	841.173	629.114
319.139	16.499	840.856	628.989
320.154	16.497	840.490	628.651
321.168	16.450	839.515	627.694
322.183	16.636	838.994	627.936
323.197	16.381	838.865	626.841
324.212	16.507	838.184	626.743
325.227	16.476	837.733	626.235
326.241	16.478	837.134	625.740
327.256	16.513	836.643	625.447
328.270	16.526	835.604	624.661
329.285	16.605	834.866	624.348
330.300	16.470	834.526	623.537
331.314	16.621	834.071	623.700
332.329	16.641	833.784	623.503
333.343	16.608	833.411	623.048
334.358	16.686	832.594	622.669
335.373	16.632	832.514	622.356
336.387	16.741	832.346	622.574
337.402	16.719	832.045	622.213
338.416	16.851	831.381	622.148
339.431	16.851	831.009	621.814
340.446	16.870	830.824	621.692
341.460	16.792	830.444	621.065
342.475	16.960	829.855	621.184
343.489	16.849	829.765	620.656
344.504	16.916	829.506	620.651
345.519	16.861	828.688	619.784
346.533	16.897	828.028	619.367
347.548	17.010	827.497	619.327
348.562	16.834	827.469	618.610
349.577	16.816	826.477	617.748
350.592	17.026	825.704	617.879
351.606	16.894	825.259	617.014
352.621	16.968	824.136	616.389
353.635	17.003	823.852	616.248
354.650	17.140	823.107	616.133
355.665	17.073	822.695	615.526
356.679	17.133	821.900	615.094
357.694	16.958	821.463	614.081
358.708	17.121	820.917	614.206
359.723	17.335	820.047	614.276
360.738	17.126	819.786	613.272
361.752	17.067	819.290	612.633
362.767	17.151	818.420	612.230
363.781	17.125	818.357	612.033
364.796	17.339	817.485	612.100
365.810	17.497	816.877	612.157
366.825	17.420	816.639	611.648
367.840	17.242	816.366	610.753
368.854	17.181	816.036	610.231
369.869	17.278	815.712	610.284
370.883	17.163	815.349	609.546
371.898	17.360	815.134	610.036
372.913	17.338	814.618	609.518
373.927	17.498	813.584	609.264
374.942	17.452	813.860	609.250
375.956	17.421	812.960	608.413
376.971	17.487	812.696	608.395
377.986	17.600	811.949	608.185
379.000	17.590	811.533	607.787
380.015	17.638	811.159	607.623
381.029	17.544	810.661	606.860
382.044	17.504	810.068	606.222
383.059	17.634	809.357	606.096
384.073	17.706	808.699	605.808
385.088	17.638	808.363	605.259
386.102	17.707	807.859	605.074
387.117	17.678	807.157	604.393
388.132	17.569	806.676	603.591
389.146	17.739	805.838	603.513
390.161	17.525	805.759	602.642
391.175	17.547	805.582	602.537
392.190	17.486	805.101	601.908
393.205	17.673	804.378	601.973
394.219	17.646	803.893	601.462
395.234	17.585	803.799	601.123
396.248	17.540	803.094	600.383
397.263	17.787	802.204	600.536
398.278	17.631	802.501	600.155
399.292	17.639	802.116	599.843
400.307	17.764	801.158	599.513
401.321	17.795	800.604	599.153
402.336	17.762	800.415	598.845
403.350	17.802	799.917	598.558
404.365	17.799	799.726	598.353
405.380	17.846	799.080	597.980
406.394	17.766	798.675	597.345
407.409	17.954	798.090	597.512
408.423	17.961	797.622	597.132
409.438	17.951	797.186	596.720
410.453	18.014	796.912	596.681
411.467	18.124	796.339	596.582
412.482	17.973	796.167	595.873
413.496	18.179	795.311	595.898
414.511	18.181	795.235	595.796
415.526	18.155	795.015	595.488
416.540	18.091	794.261	594.649
417.555	18.076	793.917	594.287
418.569	17.938	793.738	593.621
419.584	18.122	793.214	593.813
420.599	18.085	792.619	593.189
421.613	115.850	1296.476	1488.765
422.628	99.785	1369.870	1488.804
