DTS Sentinel unit serial number:	SN413079Multiplexer serial number:	ORYXHardware model number:	OX4-SRSoftware version number:	ORYX F/W v4.00 Oryx Data Collector v3.7.2.0data status	okinstallation	princeton_trtdifferential loss correction	single-endedforward channel	channel 1reverse channel	N/Adate	2019/09/19time	03:06:35forward acquisition time	60.00reverse acquisition time	0.00gamma	496.2192k internal	0.2344k external	0.2344temperature offset calibration	1.0020default loss term (dB/km)	0.3790temperature slope calibration	1.0000multiplexer offset coefficient	1.0000multiplexer slope coefficient	1.0000fibre end	0.00T internal ref (°C)	20.81T ext. ref 1 (°C)	0.65T ext. ref 2 (°C)	14.45length (m)	temperature (°C)	Stokes	anti-Stokes-747.200	-200.000	0.015	0.283
-746.185	-27.627	-0.182	0.106
-745.171	60.636	0.358	0.355
-744.156	-200.000	0.099	0.548
-743.142	100.424	0.015	0.018
-742.127	-27.490	0.246	-0.143
-741.112	-200.000	0.051	0.222
-740.098	800.000	0.079	0.244
-739.083	-25.737	0.447	0.264
-738.069	608.164	-0.083	0.208
-737.054	-120.188	0.239	-0.041
-736.039	-200.000	-0.063	-0.374
-735.025	186.925	-0.079	0.118
-734.010	-100.651	-0.214	0.053
-732.996	-78.635	-0.316	-0.108
-731.981	-30.730	0.202	-0.114
-730.966	-93.742	0.107	-0.030
-729.952	310.179	0.142	-0.265
-728.937	314.095	-0.063	-0.119
-727.923	-128.319	0.325	-0.046
-726.908	175.131	0.098	-0.142
-725.894	87.662	0.245	0.271
-724.879	-200.000	-0.002	0.417
-723.864	506.382	-0.063	-0.147
-722.850	50.860	0.072	0.069
-721.835	601.327	-0.030	0.074
-720.821	153.969	0.127	0.175
-719.806	367.331	-0.098	-0.198
-718.791	258.264	-0.169	-0.291
-717.777	-200.000	-0.062	-0.304
-716.762	-109.632	-0.174	-0.037
-715.748	102.204	-0.082	-0.095
-714.733	800.000	-0.050	-0.165
-713.718	-200.000	-0.004	-0.047
-712.704	-42.713	-0.081	-0.041
-711.689	399.402	0.052	-0.109
-710.675	109.132	-0.129	0.154
-709.660	525.431	-0.002	0.004
-708.645	-200.000	-0.050	-0.377
-707.631	241.033	0.238	0.397
-706.616	26.575	-0.189	0.158
-705.602	46.119	0.169	0.156
-704.587	-120.557	-0.087	0.015
-703.572	92.377	-0.121	-0.137
-702.558	182.670	0.112	-0.164
-701.543	800.000	0.044	-0.137
-700.529	-187.002	0.084	-0.001
-699.514	-42.044	-0.261	-0.134
-698.499	-24.801	0.184	0.110
-697.485	-200.000	-0.061	-0.339
-696.470	-152.570	0.005	0.000
-695.456	-119.699	0.176	-0.030
-694.441	-92.819	-0.093	-0.026
-693.426	-7.505	0.139	-0.094
-692.412	800.000	0.063	-0.230
-691.397	-81.905	-0.264	-0.086
-690.383	800.000	-0.017	0.053
-689.368	236.345	-0.099	-0.164
-688.354	546.846	0.087	-0.209
-687.339	-96.644	0.222	0.059
-686.324	-35.511	-0.132	-0.072
-685.310	-39.740	0.116	-0.061
-684.295	299.557	-0.069	0.127
-683.281	-28.151	-0.077	0.045
-682.266	97.020	0.185	-0.212
-681.251	-19.976	0.025	0.016
-680.237	-40.386	0.321	-0.166
-679.222	-143.764	-0.096	0.009
-678.208	-42.183	-0.338	-0.173
-677.193	-200.000	0.022	0.174
-676.178	-88.391	-0.380	0.113
-675.164	153.575	0.127	-0.174
-674.149	247.447	0.081	0.136
-673.135	800.000	0.070	-0.234
-672.120	99.744	-0.100	-0.115
-671.105	61.831	0.088	0.087
-670.091	142.168	-0.133	-0.176
-669.076	61.121	-0.194	-0.192
-668.062	800.000	-0.013	0.040
-667.047	285.799	-0.092	-0.166
-666.032	-29.529	0.025	-0.014
-665.018	-41.809	0.253	-0.130
-664.003	79.025	-0.076	0.081
-662.989	-200.000	-0.042	0.194
-661.974	17.525	0.145	0.115
-660.959	-23.794	-0.061	-0.037
-659.945	-200.000	-0.009	-0.195
-658.930	43.166	-0.051	0.046
-657.916	50.699	-0.161	0.152
-656.901	-25.310	-0.122	0.072
-655.886	-200.000	0.054	0.326
-654.872	9.550	0.140	0.106
-653.857	-93.169	0.100	0.028
-652.843	-99.873	0.137	0.034
-651.828	-200.000	-0.033	-0.188
-650.814	89.766	-0.165	0.184
-649.799	208.168	-0.273	0.426
-648.784	-200.000	-0.027	-0.138
-647.770	-101.412	-0.119	0.029
-646.755	-20.863	0.103	-0.063
-645.741	-200.000	-0.046	0.334
-644.726	-99.843	-0.352	0.088
-643.711	800.000	0.050	0.215
-642.697	-3.118	-0.120	-0.083
-641.682	-63.435	0.339	-0.139
-640.668	-16.129	0.123	0.078
-639.653	130.312	-0.068	0.087
-638.638	-101.407	-0.339	0.082
-637.624	-123.338	-0.194	0.031
-636.609	-152.177	-0.224	-0.016
-635.595	-200.000	0.011	0.213
-634.580	367.605	0.093	-0.186
-633.565	395.559	0.042	-0.087
-632.551	-189.267	0.164	-0.002
-631.536	-200.000	-0.044	-0.262
-630.522	-28.197	-0.153	-0.088
-629.507	-200.000	-0.000	-0.613
-628.492	-148.876	0.059	0.005
-627.478	-200.000	0.012	0.111
-626.463	-200.000	-0.049	-0.380
-625.449	40.707	-0.075	-0.068
-624.434	-110.251	-0.120	-0.025
-623.419	40.113	-0.122	0.110
-622.405	-118.163	-0.285	0.051
-621.390	-200.000	0.021	-0.159
-620.376	-163.622	-0.357	0.017
-619.361	-165.698	0.187	0.008
-618.346	11.354	-0.176	-0.134
-617.332	-65.969	-0.092	0.037
-616.317	7.646	-0.147	-0.109
-615.303	5.642	0.221	-0.162
-614.288	581.031	0.115	-0.280
-613.273	-162.791	0.152	-0.007
-612.259	-119.755	0.246	-0.042
-611.244	-104.974	0.112	-0.026
-610.230	-39.356	-0.061	0.032
-609.215	-200.000	-0.002	-0.164
-608.201	-18.834	-0.052	0.032
-607.186	-99.311	-0.119	-0.030
-606.171	800.000	-0.061	0.187
-605.157	-40.575	-0.207	0.107
-604.142	199.832	-0.056	0.086
-603.128	-140.918	-0.222	0.023
-602.113	-88.091	0.253	-0.076
-601.098	222.565	-0.099	-0.158
-600.084	-146.287	0.146	0.013
-599.069	169.382	0.111	0.158
-598.055	-200.000	0.014	-0.101
-597.040	-164.420	0.081	-0.004
-596.025	-111.858	-0.143	0.029
-595.011	66.911	-0.153	0.155
-593.996	236.361	-0.109	-0.179
-592.982	-22.093	-0.275	0.166
-591.967	-133.241	0.076	0.010
-590.952	-21.129	-0.079	0.048
-589.938	-200.000	-0.004	-0.280
-588.923	-200.000	0.003	-0.019
-587.909	-138.510	-0.118	0.013
-586.894	-18.296	-0.087	0.054
-585.879	-25.326	0.130	-0.077
-584.865	-148.119	-0.282	0.023
-583.850	-200.000	0.011	0.069
-582.836	-200.000	-0.014	-0.163
-581.821	-200.000	0.026	-0.345
-580.806	-200.000	0.058	0.281
-579.792	-160.784	0.220	-0.012
-578.777	15.830	0.111	-0.087
-577.763	-200.000	-0.060	0.298
-576.748	-200.000	-0.072	0.440
-575.733	-200.000	-0.013	0.101
-574.719	-200.000	0.069	-0.358
-573.704	-116.432	-0.331	-0.061
-572.690	604.711	-0.043	0.106
-571.675	286.164	0.083	-0.149
-570.661	800.000	0.017	0.057
-569.646	-200.000	-0.004	0.029
-568.631	-49.078	0.135	-0.064
-567.617	800.000	0.031	0.096
-566.602	-111.285	-0.527	0.107
-565.588	-66.515	0.157	-0.062
-564.573	49.072	0.320	-0.299
-563.558	135.327	-0.064	0.082
-562.544	219.349	0.179	-0.285
-561.529	110.654	-0.195	0.233
-560.515	800.000	0.090	-0.297
-559.500	253.176	-0.038	0.065
-558.485	-123.459	0.243	-0.038
-557.471	-200.000	0.032	-0.447
-556.456	-95.644	0.194	-0.052
-555.442	-200.000	-0.239	-0.001
-554.427	33.325	-0.190	0.164
-553.412	301.388	-0.117	0.214
-552.398	800.000	-0.085	-0.260
-551.383	-200.000	-0.091	0.508
-550.369	800.000	0.019	-0.062
-549.354	176.929	0.194	-0.281
-548.339	-200.000	0.034	0.207
-547.325	-165.566	0.375	-0.016
-546.310	7.298	-0.171	-0.127
-545.296	-200.000	-0.029	0.264
-544.281	-75.685	-0.231	-0.082
-543.266	599.473	-0.088	-0.217
-542.252	106.823	-0.073	0.086
-541.237	-117.094	-0.204	-0.037
-540.223	800.000	-0.062	-0.266
-539.208	-200.000	0.006	-0.336
-538.193	-200.000	0.000	0.156
-537.179	-98.703	0.117	0.030
-536.164	-0.548	-0.177	0.125
-535.150	136.394	0.206	-0.266
-534.135	-69.186	0.130	-0.050
-533.121	-44.652	0.330	-0.164
-532.106	460.616	-0.037	0.082
-531.091	-11.249	-0.229	0.150
-530.077	-200.000	-0.015	-0.136
-529.062	-200.000	-0.006	-0.164
-528.048	-115.435	0.277	0.052
-527.033	559.873	-0.047	-0.113
-526.018	800.000	-0.075	-0.273
-525.004	281.062	0.099	-0.177
-523.989	90.389	0.090	-0.100
-522.975	-58.157	-0.187	0.081
-521.960	19.252	-0.342	-0.273
-520.945	-85.161	0.048	-0.015
-519.931	154.094	0.212	-0.288
-518.916	594.924	0.149	-0.366
-517.902	-200.000	0.015	-0.146
-516.887	-200.000	0.002	-0.034
-515.872	73.534	-0.152	0.158
-514.858	17.324	-0.099	0.078
-513.843	-200.000	0.034	0.272
-512.829	-200.000	0.010	-0.054
-511.814	291.763	-0.137	0.248
-510.799	255.821	-0.047	-0.081
-509.785	-171.714	0.277	-0.009
-508.770	-8.296	-0.049	0.033
-507.756	-200.000	-0.024	0.317
-506.741	-35.802	-0.183	0.098
-505.726	158.962	-0.218	-0.300
-504.712	-200.000	0.014	0.108
-503.697	-200.000	-0.004	0.236
-502.683	176.740	-0.189	0.273
-501.668	238.516	-0.015	0.025
-500.653	135.781	-0.097	0.125
-499.639	-149.875	0.309	0.024
-498.624	-162.719	0.122	-0.006
-497.610	800.000	0.076	0.212
-496.595	213.158	-0.188	0.294
-495.581	-200.000	-0.005	-0.187
-494.566	331.871	-0.070	-0.134
-493.551	702.608	0.113	0.296
-492.537	-33.632	0.269	-0.147
-491.522	-47.301	-0.251	-0.121
-490.508	578.904	-0.050	0.122
-489.493	-172.914	0.110	-0.003
-488.478	800.000	0.063	-0.233
-487.464	173.504	-0.127	0.182
-486.449	-138.883	0.452	-0.049
-485.435	10.905	0.085	0.064
-484.420	384.340	-0.265	-0.542
-483.405	117.929	0.146	-0.178
-482.391	133.360	0.133	0.170
-481.376	155.308	-0.176	-0.240
-480.362	147.882	0.129	-0.172
-479.347	-155.691	-0.290	-0.018
-478.332	-49.958	0.420	-0.198
-477.318	204.047	-0.232	0.356
-476.303	800.000	0.066	0.216
-475.289	-74.560	0.188	-0.067
-474.274	-2.453	-0.265	-0.184
-473.259	-39.164	-0.178	-0.093
-472.245	67.714	-0.127	-0.129
-471.230	-200.000	-0.048	0.215
-470.216	-150.579	0.098	0.007
-469.201	-138.734	0.166	-0.018
-468.186	800.000	-0.055	0.180
-467.172	-68.869	-0.194	-0.074
-466.157	314.338	0.167	-0.312
-465.143	23.577	-0.148	-0.121
-464.128	316.871	0.049	0.092
-463.113	492.435	-0.099	0.224
-462.099	-116.296	-0.471	0.086
-461.084	-152.381	0.495	0.035
-460.070	201.079	0.225	0.342
-459.055	-65.161	-0.155	0.062
-458.040	58.397	0.253	-0.246
-457.026	-90.992	0.159	-0.045
-456.011	800.000	-0.005	-0.019
-454.997	-125.751	-0.039	-0.006
-453.982	0.516	-0.173	0.123
-452.968	800.000	0.056	-0.172
-451.953	800.000	0.080	-0.331
-450.938	53.926	-0.155	0.148
-449.924	76.762	0.281	-0.295
-448.909	41.820	0.277	-0.249
-447.895	-9.775	0.234	0.154
-446.880	-69.377	-0.322	-0.122
-445.865	-200.000	0.033	0.263
-444.851	96.120	-0.051	0.058
-443.836	-30.505	0.514	-0.288
-442.822	79.637	0.167	0.177
-441.807	10.010	-0.373	-0.280
-440.792	0.176	0.152	0.107
-439.778	-1.571	-0.207	0.144
-438.763	-200.000	-0.021	0.091
-437.749	-108.838	0.069	0.015
-436.734	-23.843	0.183	0.108
-435.719	144.189	0.110	0.146
-434.705	457.641	0.047	0.104
-433.690	-112.733	0.353	-0.069
-432.676	-200.000	0.018	-0.340
-431.661	-21.109	-0.150	0.091
-430.646	-200.000	-0.055	0.390
-429.632	-49.332	-0.168	-0.079
-428.617	-200.000	0.004	-0.020
-427.603	250.591	0.092	0.154
-426.588	-200.000	0.044	-0.284
-425.573	-68.850	-0.227	-0.087
-424.559	800.000	-0.062	-0.176
-423.544	-86.237	0.362	0.110
-422.530	-3.624	0.131	-0.090
-421.515	-80.102	-0.214	-0.071
-420.500	99.440	0.078	-0.089
-419.486	-36.564	0.243	0.129
-418.471	-145.926	0.299	0.026
-417.457	-25.895	-0.165	-0.096
-416.442	328.690	0.071	-0.135
-415.428	-161.548	0.064	-0.003
-414.413	-137.352	0.035	0.004
-413.398	-200.000	0.024	0.311
-412.384	337.226	-0.136	-0.261
-411.369	131.873	0.110	-0.140
-410.355	-48.058	-0.306	-0.146
-409.340	800.000	0.027	0.079
-408.325	11.031	0.048	0.036
-407.311	-118.543	-0.334	-0.058
-406.296	-49.575	0.174	0.082
-405.282	64.372	0.280	-0.279
-404.267	-127.106	-0.281	-0.041
-403.252	-153.438	0.228	-0.016
-402.238	-84.439	-0.312	-0.097
-401.223	-159.794	-0.139	0.008
-400.209	800.000	0.075	0.318
-399.194	57.757	0.307	-0.297
-398.179	800.000	0.101	-0.302
-397.165	-200.000	-0.017	0.142
-396.150	-53.116	-0.118	-0.054
-395.136	-200.000	0.021	-0.121
-394.121	-84.904	0.193	0.060
-393.106	-200.000	0.046	0.460
-392.092	-76.995	-0.267	0.092
-391.077	9.900	-0.240	0.180
-390.063	-47.328	-0.110	0.053
-389.048	-50.611	0.011	-0.005
-388.033	378.216	0.052	0.106
-387.019	78.302	0.120	0.127
-386.004	-132.147	-0.174	0.022
-384.990	-200.000	0.061	-0.297
-383.975	71.183	0.316	-0.324
-382.960	301.199	0.040	0.073
-381.946	284.882	-0.096	-0.170
-380.931	219.810	0.066	-0.105
-379.917	-141.863	0.275	-0.027
-378.902	800.000	-0.039	0.115
-377.888	40.425	0.118	-0.105
-376.873	-95.490	-0.157	-0.042
-375.858	-82.216	-0.271	-0.087
-374.844	432.623	0.078	0.166
-373.829	-12.902	-0.266	0.171
-372.815	800.000	0.031	0.088
-371.800	-81.942	0.273	0.088
-370.785	74.282	0.023	0.024
-369.771	-154.496	-0.516	0.034
-368.756	800.000	-0.119	0.492
-367.742	96.778	0.026	0.029
-366.727	-200.000	-0.025	0.250
-365.712	-39.317	0.450	-0.233
-364.698	-200.000	-0.004	-0.131
-363.683	2.999	-0.203	-0.145
-362.669	-155.264	-0.051	-0.003
-361.654	-200.000	-0.032	-0.250
-360.639	-105.397	-0.177	0.040
-359.625	-114.089	0.265	-0.051
-358.610	-36.427	0.264	-0.140
-357.596	-117.262	-0.286	-0.051
-356.581	-60.132	-0.159	-0.067
-355.566	-53.308	0.364	-0.165
-354.552	-200.000	0.028	-0.270
-353.537	283.835	0.262	-0.464
-352.523	-145.835	-0.475	-0.042
-351.508	234.433	-0.032	0.052
-350.493	-66.585	0.170	-0.066
-349.479	-200.000	0.023	0.168
-348.464	-174.909	0.204	0.006
-347.450	2.163	0.122	0.087
-346.435	12.130	-0.168	0.128
-345.420	174.219	0.146	-0.208
-344.406	800.000	0.061	-0.241
-343.391	-200.000	-0.026	-0.124
-342.377	95.267	-0.073	0.082
-341.362	-39.483	0.148	0.077
-340.348	-123.879	-0.085	-0.013
-339.333	244.818	-0.085	0.141
-338.318	328.020	-0.063	0.119
-337.304	-94.709	0.163	0.044
-336.289	-154.459	0.092	0.006
-335.275	-200.000	-0.013	0.154
-334.260	119.881	-0.066	-0.081
-333.245	681.768	0.092	-0.236
-332.231	631.980	-0.070	-0.174
-331.216	-19.980	-0.241	-0.147
-330.202	-200.000	0.000	-0.079
-329.187	-20.086	-0.065	0.040
-328.172	71.710	-0.242	0.248
-327.158	-45.866	0.275	-0.134
-326.143	-200.000	-0.013	0.306
-325.129	-155.110	0.281	-0.018
-324.114	-22.785	0.006	0.004
-323.099	800.000	0.121	-0.443
-322.085	-85.265	0.033	0.010
-321.070	9.224	0.208	0.155
-320.056	75.691	-0.168	-0.175
-319.041	-200.000	0.017	0.281
-318.026	39.394	0.317	0.279
-317.012	43.102	0.172	-0.155
-315.997	-1.808	0.114	-0.079
-314.983	-5.573	0.123	-0.083
-313.968	-14.681	-0.052	0.033
-312.953	-200.000	-0.019	-0.164
-311.939	-28.748	-0.091	0.052
-310.924	11.875	-0.132	0.100
-309.910	800.000	-0.045	0.179
-308.895	-93.593	0.311	0.085
-307.880	-52.447	0.424	0.193
-306.866	-200.000	0.025	0.228
-305.851	19.011	-0.178	-0.140
-304.837	-170.183	-0.396	-0.014
-303.822	109.632	0.083	-0.098
-302.807	-54.015	0.096	0.043
-301.793	177.769	0.060	-0.086
-300.778	-200.000	-0.046	0.227
-299.764	41.893	-0.153	-0.136
-298.749	-200.000	0.010	0.102
-297.735	800.000	-0.030	-0.097
-296.720	87.056	0.242	0.263
-295.705	1.239	0.156	0.110
-294.691	239.092	0.045	0.074
-293.676	226.649	0.101	0.162
-292.662	788.252	-0.125	-0.337
-291.647	-111.206	0.284	-0.057
-290.632	-144.392	0.516	0.047
-289.618	-200.000	-0.018	-0.208
-288.603	173.452	0.058	0.082
-287.589	-200.000	-0.085	0.000
-286.574	-106.742	-0.306	0.067
-285.559	118.932	0.193	-0.235
-284.545	-200.000	-0.027	0.242
-283.530	133.182	-0.299	-0.379
-282.516	-200.000	0.004	0.142
-281.501	800.000	-0.067	0.200
-280.486	170.601	0.223	-0.314
-279.472	800.000	0.052	-0.219
-278.457	-45.226	-0.238	-0.116
-277.443	237.491	0.196	0.319
-276.428	-158.646	-0.115	-0.007
-275.413	-200.000	-0.270	0.000
-274.399	800.000	-0.043	-0.146
-273.384	-60.639	0.256	-0.107
-272.370	-170.778	0.500	-0.017
-271.355	74.680	-0.085	0.088
-270.340	115.509	-0.155	0.186
-269.326	-72.952	-0.174	0.063
-268.311	-158.158	0.291	-0.017
-267.297	-200.000	0.015	-0.176
-266.282	-12.238	0.132	-0.085
-265.267	-200.000	0.061	0.466
-264.253	-164.420	0.073	0.003
-263.238	-125.578	-0.306	0.046
-262.224	-200.000	0.011	0.155
-261.209	-80.088	-0.268	-0.088
-260.195	-86.988	0.200	0.060
-259.180	800.000	0.055	-0.207
-258.165	800.000	-0.065	0.271
-257.151	79.539	0.062	0.066
-256.136	-69.832	0.084	-0.032
-255.122	-99.458	-0.246	0.061
-254.107	-25.229	0.103	0.060
-253.092	800.000	0.082	0.280
-252.078	-55.303	-0.420	-0.185
-251.063	-93.787	0.215	0.058
-250.049	-42.230	-0.102	-0.051
-249.034	228.886	0.141	0.226
-248.019	-200.000	-0.021	-0.263
-247.005	800.000	-0.096	-0.355
-245.990	21.302	-0.216	0.172
-244.976	20.470	0.195	0.155
-243.961	-138.889	0.124	-0.013
-242.946	-188.787	-0.149	0.002
-241.932	3.998	-0.044	-0.032
-240.917	-4.246	0.223	-0.152
-239.903	-115.902	-0.270	0.050
-238.888	177.443	0.383	0.548
-237.873	-36.204	0.117	0.062
-236.859	-200.000	0.026	-0.126
-235.844	40.452	-0.271	-0.240
-234.830	-200.000	0.028	0.514
-233.815	-135.822	0.096	0.011
-232.800	-106.261	-0.167	0.037
-231.786	60.801	0.151	0.147
-230.771	-200.000	0.040	0.395
-229.757	-200.000	-0.006	0.153
-228.742	-19.355	-0.152	-0.093
-227.727	-31.898	0.120	-0.066
-226.713	-57.890	0.145	-0.062
-225.698	94.368	-0.176	0.196
-224.684	239.183	0.079	0.129
-223.669	70.108	-0.219	-0.222
-222.655	-65.098	0.297	-0.118
-221.640	-200.000	-0.021	-0.111
-220.625	-42.424	-0.126	-0.063
-219.611	403.236	-0.116	-0.239
-218.596	-101.773	-0.355	0.084
-217.582	-69.232	0.115	-0.044
-216.567	595.817	0.038	0.091
-215.552	-200.000	0.434	-0.002
-214.538	-95.035	0.141	0.037
-213.523	800.000	-0.070	0.231
-212.509	800.000	0.016	-0.055
-211.494	-68.762	-0.222	0.084
-210.479	-200.000	0.099	0.483
-209.465	-53.236	0.145	-0.065
-208.450	29.526	-0.227	-0.189
-207.436	800.000	-0.013	-0.055
-206.421	-33.757	0.317	-0.171
-205.406	141.653	-0.077	-0.101
-204.392	-200.000	0.012	0.096
-203.377	-44.034	-0.291	0.143
-202.363	800.000	0.042	-0.156
-201.348	-119.291	-0.225	-0.038
-200.333	-200.000	0.005	0.288
-199.319	-200.000	0.014	0.258
-198.304	-106.820	0.145	-0.031
-197.290	87.278	-0.074	0.081
-196.275	-200.000	0.001	0.168
-195.260	-123.226	-0.341	0.054
-194.246	800.000	0.105	-0.347
-193.231	170.628	0.094	-0.132
-192.217	73.810	0.053	0.054
-191.202	-124.243	0.157	-0.024
-190.187	-130.475	-0.182	-0.024
-189.173	-200.000	0.064	0.378
-188.158	172.092	-0.035	-0.050
-187.144	-6.204	-0.065	-0.044
-186.129	67.345	-0.127	0.127
-185.114	54.979	0.174	0.165
-184.100	185.481	-0.161	0.234
-183.085	-165.923	-0.118	0.005
-182.071	41.866	-0.265	0.235
-181.056	47.671	0.225	0.205
-180.042	26.013	0.013	0.011
-179.027	70.363	0.339	-0.343
-178.012	-200.000	-0.042	-0.209
-176.998	-53.681	-0.345	0.154
-175.983	160.781	0.178	0.244
-174.969	800.000	-0.083	0.250
-173.954	-200.000	0.027	0.364
-172.939	-200.000	0.055	0.265
-171.925	21.883	-0.062	-0.050
-170.910	14.272	-0.324	0.247
-169.896	-200.000	-0.049	-0.441
-168.881	24.028	0.112	0.090
-167.866	-67.860	0.150	-0.057
-166.852	216.518	-0.095	0.148
-165.837	-33.510	0.078	-0.042
-164.823	-147.581	0.301	0.025
-163.808	63.256	-0.214	0.210
-162.793	-34.419	0.136	0.073
-161.779	-96.137	0.270	-0.070
-160.764	301.126	-0.182	0.328
-159.750	74.013	-0.192	0.197
-158.735	-61.357	-0.265	-0.109
-157.720	-200.000	0.005	0.160
-156.706	749.871	-0.039	-0.103
-155.691	-79.874	0.116	-0.038
-154.677	-55.225	0.058	-0.026
-153.662	-31.861	-0.101	-0.055
-152.647	-159.388	-0.044	0.002
-151.633	-127.092	-0.252	0.036
-150.618	66.271	-0.201	0.200
-149.604	171.936	0.268	0.376
-148.589	14.368	0.228	0.174
-147.574	-31.300	0.114	0.063
-146.560	784.008	0.033	-0.089
-145.545	178.901	-0.085	-0.122
-144.531	-44.465	0.291	-0.142
-143.516	85.477	0.230	-0.248
-142.502	-76.869	0.040	0.014
-141.487	-43.152	-0.120	0.059
-140.472	232.329	0.060	0.097
-139.458	78.495	0.069	0.072
-138.443	-200.000	-0.067	0.340
-137.429	-200.000	-0.036	0.193
-136.414	275.067	-0.199	0.345
-135.399	377.263	-0.167	-0.334
-134.385	297.767	0.171	-0.308
-133.370	36.233	-0.228	0.196
-132.356	-47.689	-0.146	0.069
-131.341	92.456	-0.191	-0.211
-130.326	104.369	-0.169	0.194
-129.312	580.951	-0.075	0.180
-128.297	89.940	-0.159	0.173
-127.283	50.988	-0.112	-0.104
-126.268	-39.360	-0.242	0.124
-125.253	154.636	0.132	0.178
-124.239	-81.865	0.177	0.056
-123.224	-181.096	0.312	-0.006
-122.210	-200.000	-0.061	0.289
-121.195	-34.918	-0.162	-0.086
-120.180	-148.299	-0.272	0.022
-119.166	-181.690	0.315	-0.006
-118.151	14.162	0.148	0.112
-117.137	169.630	0.115	0.161
-116.122	16.875	-0.069	-0.053
-115.107	-54.459	-0.117	0.052
-114.093	21.179	-0.187	0.148
-113.078	38.503	0.141	0.122
-112.064	-60.552	-0.488	0.202
-111.049	379.533	0.073	-0.145
-110.034	-53.245	0.259	-0.116
-109.020	29.002	0.224	0.186
-108.005	-200.000	-0.003	0.246
-106.991	21.254	0.226	0.179
-105.976	-40.213	0.143	-0.073
-104.962	-6.638	0.416	-0.277
-103.947	-143.559	-0.116	-0.011
-102.932	-200.000	-0.027	0.115
-101.918	-30.252	-0.069	-0.038
-100.903	183.151	0.130	-0.187
-99.889	-80.201	-0.315	-0.103
-98.874	-200.000	-0.028	0.119
-97.859	-122.369	-0.163	-0.026
-96.845	-200.000	0.008	-0.176
-95.830	161.689	0.123	-0.169
-94.816	-22.551	0.378	-0.223
-93.801	206.399	-0.164	0.249
-92.786	379.192	0.064	0.129
-91.772	180.176	0.077	-0.110
-90.757	167.807	-0.192	0.267
-89.743	-111.608	-0.146	0.029
-88.728	-101.096	0.072	0.017
-87.713	-200.000	0.064	0.287
-86.699	50.531	0.107	0.098
-85.684	-115.416	0.319	0.059
-84.670	65.548	0.089	0.088
-83.655	-10.025	-0.100	0.065
-82.640	80.120	-0.074	0.077
-81.626	800.000	0.070	0.193
-80.611	800.000	0.034	-0.102
-79.597	411.978	0.126	-0.261
-78.582	643.441	0.028	0.068
-77.567	46.637	-0.092	-0.083
-76.553	-127.708	0.192	-0.027
-75.538	27.579	-0.208	0.171
-74.524	-28.761	-0.138	-0.078
-73.509	-200.000	0.147	0.000
-72.494	185.646	-0.107	0.155
-71.480	-74.627	-0.380	0.133
-70.465	-200.000	-0.004	-0.242
-69.451	-105.189	-0.093	0.021
-68.436	-1.005	-0.199	0.137
-67.422	-200.000	-0.027	0.207
-66.407	-28.174	-0.119	-0.067
-65.392	-120.136	0.315	0.052
-64.378	737.047	-0.035	0.092
-63.363	15.179	-0.077	0.059
-62.349	-200.000	0.022	0.340
-61.334	139.820	-1.127	-1.447
-60.319	145.181	0.600	0.783
-59.305	771.193	-0.567	-1.505
-58.290	371.191	0.768	1.518
-57.276	800.000	0.428	1.527
-56.261	-200.000	135.547	678.682
-55.246	337.417	1678.679	3179.681
-54.232	133.949	2804.335	3538.500
-53.217	87.560	2172.850	2343.813
-52.203	32.069	1602.775	1346.261
-51.188	24.108	1352.146	1087.306
-50.173	21.806	1316.621	1044.994
-49.159	49.544	1390.907	1275.670
-48.144	45.884	1399.515	1261.068
-47.130	24.100	1347.059	1082.994
-46.115	20.921	1327.991	1048.532
-45.100	20.747	1322.323	1042.972
-44.086	20.746	1319.779	1040.917
-43.071	20.641	1317.141	1038.167
-42.057	20.727	1315.494	1037.341
-41.042	20.675	1313.938	1035.765
-40.027	20.693	1312.499	1034.696
-39.013	20.679	1310.663	1033.126
-37.998	20.767	1308.534	1031.925
-36.984	20.750	1307.067	1030.629
-35.969	20.707	1305.378	1029.003
-34.954	20.888	1303.536	1028.575
-33.940	20.782	1302.447	1027.054
-32.925	20.963	1300.379	1026.448
-31.911	20.866	1299.467	1025.112
-30.896	20.906	1298.171	1024.287
-29.881	20.921	1296.916	1023.347
-28.867	20.974	1295.118	1022.193
-27.852	20.942	1294.138	1021.195
-26.838	20.940	1292.539	1019.881
-25.823	20.824	1291.404	1018.268
-24.809	20.832	1290.201	1017.324
-23.794	20.820	1288.961	1016.233
-22.779	20.898	1287.592	1015.571
-21.765	20.995	1285.878	1014.742
-20.750	20.983	1284.830	1013.807
-19.736	20.763	1283.764	1011.647
-18.721	20.784	1282.354	1010.618
-17.706	20.801	1281.630	1010.108
-16.692	20.763	1280.459	1008.924
-15.677	20.823	1279.165	1008.207
-14.663	20.842	1277.918	1007.295
-13.648	20.681	1277.356	1005.879
-12.633	20.821	1276.165	1005.712
-11.619	20.804	1274.954	1004.618
-10.604	20.729	1274.450	1003.750
-9.590	20.785	1273.409	1003.215
-8.575	20.734	1272.797	1002.399
-7.560	20.707	1272.017	1001.590
-6.546	20.681	1271.432	1000.940
-5.531	20.676	1270.141	999.857
-4.517	20.780	1269.279	999.735
-3.502	20.779	1268.662	999.201
-2.487	20.665	1267.737	997.782
-1.473	20.699	1263.036	994.232
-0.458	18.994	1248.056	972.771
0.556	14.727	1232.147	936.000
1.571	11.214	1240.480	922.393
2.586	10.578	1256.233	930.378
3.600	10.586	1244.215	921.440
4.615	8.070	1172.172	854.533
5.629	3.037	1102.521	778.253
6.644	0.781	1086.469	755.594
7.659	0.667	1084.725	753.743
8.673	0.591	1084.070	752.842
9.688	0.561	1082.921	751.831
10.702	0.814	1079.765	750.828
11.717	3.841	1083.160	768.177
12.731	10.095	1091.644	805.359
13.746	15.455	1098.672	837.275
14.761	17.285	1100.655	847.849
15.775	16.405	1099.539	842.527
16.790	15.588	1096.812	836.298
17.804	14.973	1094.928	831.730
18.819	14.485	1094.427	828.853
19.834	14.235	1093.690	826.982
20.848	14.093	1092.563	825.349
21.863	13.822	1091.371	823.032
22.877	13.643	1091.025	821.813
23.892	13.558	1089.903	820.472
24.907	13.670	1089.189	820.414
25.921	13.628	1089.193	820.138
26.936	13.796	1087.640	819.725
27.950	13.782	1086.641	818.831
28.965	13.831	1085.407	818.073
29.980	13.697	1084.254	816.469
30.994	13.834	1083.466	816.479
32.009	13.899	1082.147	815.733
33.023	13.822	1081.363	814.691
34.038	13.840	1080.285	813.893
35.053	13.849	1079.211	813.056
36.067	13.876	1078.204	812.361
37.082	13.875	1077.571	811.807
38.096	13.904	1076.658	811.188
39.111	13.809	1076.099	810.233
40.126	13.734	1075.202	809.119
41.140	13.763	1073.430	807.854
42.155	13.784	1072.659	807.306
43.169	13.634	1071.803	805.860
44.184	13.659	1070.671	805.058
45.199	13.707	1069.640	804.445
46.213	13.734	1068.623	803.739
47.228	13.645	1067.571	802.447
48.242	13.683	1066.513	801.766
49.257	13.769	1065.140	801.075
50.271	13.782	1064.567	800.638
51.286	13.900	1063.646	800.442
52.301	13.718	1062.736	798.811
53.315	13.864	1061.663	798.637
54.330	13.720	1060.316	796.859
55.344	13.771	1059.771	796.625
56.359	13.619	1059.231	795.419
57.374	13.729	1057.851	794.841
58.388	13.520	1057.347	793.391
59.403	13.693	1056.452	793.477
60.417	13.578	1055.811	792.372
61.432	13.730	1054.532	792.068
62.447	13.568	1053.855	790.719
63.461	13.497	1052.782	789.506
64.476	13.703	1051.713	789.612
65.490	13.626	1051.306	788.874
66.505	13.694	1050.122	788.237
67.520	13.713	1049.429	787.739
68.534	13.679	1048.351	786.697
69.549	13.712	1047.831	786.395
70.563	13.522	1047.687	785.314
71.578	13.573	1046.375	784.502
72.593	13.572	1045.699	783.925
73.607	13.613	1045.204	783.674
74.622	13.597	1044.829	783.253
75.636	13.612	1043.843	782.512
76.651	13.548	1042.856	781.403
77.666	13.657	1042.202	781.357
78.680	13.669	1041.314	780.678
79.695	13.548	1041.242	779.984
80.709	13.690	1040.430	779.976
81.724	13.709	1039.771	779.501
82.739	13.748	1039.104	779.115
83.753	13.783	1038.268	778.587
84.768	13.873	1036.988	777.976
85.782	13.854	1036.235	777.254
86.797	13.887	1034.840	776.296
87.812	13.725	1034.480	775.198
88.826	13.784	1033.452	774.635
89.841	13.832	1032.333	773.952
90.855	13.901	1031.675	773.712
91.870	13.771	1030.992	772.525
92.884	13.895	1029.878	772.199
93.899	13.957	1028.919	771.700
94.914	13.838	1028.319	770.628
95.928	13.899	1027.528	770.251
96.943	13.997	1026.288	769.709
97.957	13.885	1025.557	768.571
98.972	13.891	1024.404	767.668
99.987	13.851	1023.848	766.999
101.001	13.807	1022.886	766.007
102.016	13.865	1021.816	765.404
103.030	13.883	1021.354	765.075
104.045	13.954	1020.263	764.516
105.060	13.854	1019.239	763.222
106.074	13.742	1019.032	762.486
107.089	13.676	1017.715	761.130
108.103	13.714	1016.647	760.439
109.118	13.777	1015.238	759.605
110.133	13.795	1015.039	759.471
111.147	13.773	1013.803	758.379
112.162	13.761	1013.182	757.791
113.176	13.883	1012.320	757.636
114.191	13.881	1011.332	756.820
115.206	13.709	1011.271	755.923
116.220	13.783	1009.801	755.096
117.235	13.783	1008.943	754.387
118.249	13.872	1008.278	754.229
119.264	13.860	1007.449	753.485
120.279	13.783	1006.953	752.699
121.293	13.731	1006.067	751.733
122.308	13.691	1004.983	750.678
123.322	13.708	1004.119	750.042
124.337	13.760	1002.795	749.220
125.352	13.870	1001.699	748.832
126.366	13.786	1000.537	747.518
127.381	13.777	999.419	746.578
128.395	13.645	998.930	745.553
129.410	13.897	997.653	745.665
130.424	13.836	996.622	744.555
131.439	13.736	996.075	743.634
132.454	13.726	995.421	743.035
133.468	13.772	994.710	742.641
134.483	13.833	993.434	741.900
135.497	13.920	992.399	741.449
136.512	13.726	992.187	740.358
137.527	13.783	991.005	739.663
138.541	13.747	990.374	738.968
139.556	13.832	989.214	738.416
140.570	13.847	989.309	738.484
141.585	13.884	988.045	737.641
142.600	13.899	987.289	737.078
143.614	13.881	986.245	736.153
144.629	14.081	984.954	736.010
145.643	14.045	984.242	735.257
146.658	13.943	983.165	733.936
147.673	13.971	982.647	733.608
148.687	13.859	981.899	732.489
149.702	13.994	980.775	732.183
150.716	13.909	980.369	731.439
151.731	14.061	978.910	730.954
152.746	13.878	978.685	729.915
153.760	14.032	977.979	730.003
154.775	14.138	977.528	730.068
155.789	14.065	977.106	729.368
156.804	14.076	975.568	728.202
157.819	14.032	974.975	727.502
158.833	14.117	974.698	727.603
159.848	14.150	973.438	726.742
160.862	14.166	972.646	726.155
161.877	14.135	971.509	725.108
162.892	14.008	971.037	724.138
163.906	14.194	969.473	723.715
164.921	14.012	969.299	722.730
165.935	14.114	968.252	722.330
166.950	14.173	967.214	721.747
167.964	14.111	966.743	721.065
168.979	14.225	965.607	720.648
169.994	14.256	964.670	720.015
171.008	14.176	964.102	719.184
172.023	14.275	963.066	718.776
173.037	14.235	962.827	718.360
174.052	14.236	961.981	717.669
175.067	14.240	961.146	717.002
176.081	14.288	960.661	716.783
177.096	14.196	960.642	716.310
178.110	14.245	959.654	715.719
179.125	14.229	958.920	715.041
180.140	14.285	958.497	714.901
181.154	14.380	957.829	714.748
182.169	14.253	957.454	713.859
183.183	14.267	956.960	713.488
184.198	14.493	955.838	713.554
185.213	14.461	955.096	712.802
186.227	14.408	954.378	711.978
187.242	14.449	953.940	711.761
188.256	14.423	953.123	710.978
189.271	14.318	952.340	709.885
190.286	14.300	951.862	709.389
191.300	14.277	951.000	708.587
192.315	14.286	949.954	707.781
193.329	14.333	949.554	707.619
194.344	14.377	949.028	707.352
195.359	14.330	948.502	706.699
196.373	14.460	947.960	706.784
197.388	14.575	947.174	706.621
198.402	14.617	946.405	706.164
199.417	14.593	945.901	705.624
200.432	14.616	945.533	705.384
201.446	14.525	945.378	704.821
202.461	14.666	944.634	704.800
203.475	14.805	943.661	704.599
204.490	14.503	943.495	703.137
205.504	14.651	942.412	702.892
206.519	14.687	942.086	702.737
207.534	14.802	940.913	702.284
208.548	14.617	940.628	701.233
209.563	14.655	939.615	700.573
210.577	14.800	939.081	700.723
211.592	14.863	938.263	700.315
212.607	14.865	937.088	699.383
213.621	14.760	937.002	698.816
214.636	14.859	935.881	698.334
215.650	14.789	935.297	697.544
216.665	14.898	934.445	697.302
217.680	14.896	933.881	696.808
218.694	14.924	932.995	696.204
219.709	14.929	932.508	695.801
220.723	14.837	932.067	695.026
221.738	14.981	931.067	694.815
222.753	14.898	930.479	693.972
223.767	15.108	929.583	694.112
224.782	14.997	929.617	693.619
225.796	14.869	929.179	692.697
226.811	15.071	927.942	692.550
227.826	14.912	927.600	691.576
228.840	14.918	926.691	690.862
229.855	14.915	925.706	690.056
230.869	15.106	924.865	690.152
231.884	15.113	924.342	689.731
232.899	14.974	923.551	688.509
233.913	15.026	923.141	688.356
234.928	15.013	922.294	687.610
235.942	15.063	921.995	687.533
236.957	14.990	921.561	686.847
237.972	15.106	920.644	686.580
238.986	14.991	920.008	685.574
240.001	15.074	919.536	685.501
241.015	15.167	918.375	684.955
242.030	15.068	918.283	684.420
243.045	15.052	917.931	684.033
244.059	15.153	916.824	683.558
245.074	15.195	916.309	683.288
246.088	15.231	915.586	682.835
247.103	15.224	914.735	682.109
248.117	15.253	914.374	681.898
249.132	15.329	913.542	681.527
250.147	15.440	912.687	681.276
251.161	15.456	912.374	681.050
252.176	15.264	911.673	679.686
253.190	15.315	911.530	679.727
254.205	15.537	910.412	679.731
255.220	15.501	909.620	678.937
256.234	15.414	909.040	678.091
257.249	15.503	908.558	678.031
258.263	15.509	907.816	677.441
259.278	15.422	907.178	676.553
260.293	15.562	906.607	676.634
261.307	15.662	905.896	676.442
262.322	15.600	905.481	675.825
263.336	15.693	904.483	675.395
264.351	15.685	903.676	674.701
265.366	15.594	903.009	673.777
266.380	15.691	902.515	673.737
267.395	15.671	901.669	672.965
268.409	15.774	900.830	672.694
269.424	15.793	900.253	672.279
270.439	15.681	899.742	671.391
271.453	15.787	898.666	670.950
272.468	15.694	898.524	670.414
273.482	15.804	897.980	670.388
274.497	15.758	897.251	669.600
275.512	15.892	896.097	669.213
276.526	15.828	895.844	668.712
277.541	15.858	895.557	668.554
278.555	15.811	895.082	667.954
279.570	15.919	894.145	667.626
280.585	15.973	893.319	667.166
281.599	15.980	892.503	666.523
282.614	15.854	891.936	665.541
283.628	15.818	891.572	665.067
284.643	15.894	891.154	664.999
285.657	16.063	890.097	664.819
286.672	16.129	889.233	664.373
287.687	15.891	888.972	663.181
288.701	16.001	888.580	663.263
289.716	16.000	887.755	662.586
290.730	15.967	887.415	662.145
291.745	16.066	886.435	661.743
292.760	15.898	886.291	660.919
293.774	16.237	885.246	661.409
294.789	16.051	884.788	660.278
295.803	16.148	883.926	659.956
296.818	16.015	883.479	659.046
297.833	16.013	882.645	658.357
298.847	16.087	881.902	658.031
299.862	16.213	881.460	658.135
300.876	16.195	880.756	657.483
301.891	16.196	879.983	656.851
302.906	16.275	879.697	656.887
303.920	16.361	879.287	656.859
304.935	16.399	878.616	656.447
305.949	16.337	877.634	655.413
306.964	16.246	877.617	654.988
307.979	16.213	877.059	654.385
308.993	16.375	876.218	654.330
310.008	16.344	875.631	653.714
311.022	16.411	874.948	653.405
312.037	16.350	874.471	652.755
313.052	16.353	873.962	652.327
314.066	16.344	873.500	651.890
315.081	16.483	872.400	651.550
316.095	16.375	871.873	650.679
317.110	16.519	871.364	650.797
318.125	16.346	871.098	649.876
319.139	16.440	870.628	649.831
320.154	16.521	869.814	649.475
321.168	16.437	869.269	648.690
322.183	16.582	868.674	648.743
323.197	16.458	868.676	648.213
324.212	16.485	867.994	647.749
325.227	16.577	867.262	647.498
326.241	16.480	866.592	646.569
327.256	16.468	866.102	646.101
328.270	16.592	865.343	645.951
329.285	16.485	865.011	645.236
330.300	16.595	864.233	645.018
331.314	16.543	863.842	644.472
332.329	16.595	863.492	644.354
333.343	16.668	862.831	644.077
334.358	16.685	862.205	643.621
335.373	16.548	862.067	642.938
336.387	16.680	861.694	643.105
337.402	16.788	861.522	643.331
338.416	16.772	861.226	642.990
339.431	16.778	860.644	642.524
340.446	16.705	860.328	641.952
341.460	16.724	860.142	641.831
342.475	16.918	859.572	642.081
343.489	16.849	858.606	641.044
344.504	16.819	858.378	640.702
345.519	16.952	858.026	640.887
346.533	16.956	857.475	640.431
347.548	17.048	857.009	640.374
348.562	16.876	856.167	639.043
349.577	16.889	855.797	638.755
350.592	16.945	855.040	638.347
351.606	16.887	854.278	637.503
352.621	16.979	853.676	637.343
353.635	16.950	852.946	636.635
354.650	16.958	852.353	636.165
355.665	16.977	851.525	635.559
356.679	17.054	851.014	635.411
357.694	17.042	850.244	634.736
358.708	17.189	849.523	634.690
359.723	17.267	848.940	634.488
360.738	17.135	848.597	633.684
361.752	17.051	848.225	633.039
362.767	17.220	847.177	632.830
363.781	17.147	846.827	632.238
364.796	17.287	846.557	632.502
365.810	17.140	846.137	631.586
366.825	17.246	845.902	631.749
367.840	17.234	845.125	631.069
368.854	17.386	844.463	631.082
369.869	17.370	844.448	630.957
370.883	17.219	843.762	629.828
371.898	17.504	842.884	630.173
372.913	17.380	843.160	629.863
373.927	17.339	842.795	629.385
374.942	17.345	842.046	628.789
375.956	17.522	841.347	628.865
376.971	17.544	840.851	628.521
377.986	17.399	840.996	628.039
379.000	17.513	840.455	628.001
380.015	17.552	839.710	627.531
381.029	17.517	838.905	626.745
382.044	17.528	838.366	626.329
383.059	17.629	837.569	626.049
384.073	17.523	837.217	625.341
385.088	17.512	836.868	624.984
386.102	17.539	836.482	624.739
387.117	17.761	835.422	624.703
388.132	17.577	834.762	623.482
389.146	17.650	834.316	623.360
390.161	17.869	833.781	623.708
391.175	17.671	833.302	622.570
392.190	17.722	832.788	622.318
393.205	17.689	832.116	621.640
394.219	17.529	832.209	621.071
395.234	17.579	831.950	621.004
396.248	17.565	831.416	620.500
397.263	17.640	830.692	620.180
398.278	17.727	830.452	620.261
399.292	17.584	830.094	619.419
400.307	17.689	829.629	619.400
401.321	17.734	829.059	619.080
402.336	17.870	828.149	618.840
403.350	17.717	828.193	618.263
404.365	17.770	827.580	617.944
405.380	17.882	827.046	617.897
406.394	17.922	826.407	617.507
407.409	17.945	825.946	617.191
408.423	17.866	825.902	616.819
409.438	18.055	825.496	617.143
410.453	17.972	825.077	616.477
411.467	17.963	824.535	615.984
412.482	18.136	823.618	615.866
413.496	18.019	823.882	615.589
414.511	18.087	823.358	615.387
415.526	18.092	822.734	614.885
416.540	18.195	822.188	614.792
417.555	18.099	821.853	614.142
418.569	18.184	821.227	613.926
419.584	18.148	821.019	613.588
420.599	18.254	820.428	613.472
421.613	115.892	1302.067	1492.628
422.628	100.559	1372.202	1492.693
