DTS Sentinel unit serial number:	SN413079Multiplexer serial number:	ORYXHardware model number:	OX4-SRSoftware version number:	ORYX F/W v4.00 Oryx Data Collector v3.7.2.0data status	okinstallation	princeton_trtdifferential loss correction	single-endedforward channel	channel 1reverse channel	N/Adate	2019/09/19time	06:26:35forward acquisition time	60.00reverse acquisition time	0.00gamma	496.2192k internal	0.2343k external	0.2343temperature offset calibration	1.0018default loss term (dB/km)	0.3790temperature slope calibration	1.0000multiplexer offset coefficient	1.0000multiplexer slope coefficient	1.0000fibre end	0.00T internal ref (°C)	19.06T ext. ref 1 (°C)	0.57T ext. ref 2 (°C)	12.85length (m)	temperature (°C)	Stokes	anti-Stokes-747.200	-200.000	-0.026	0.152
-746.185	1.455	-0.172	-0.124
-745.171	-85.684	-0.104	-0.032
-744.156	154.949	-0.100	0.137
-743.142	86.455	0.083	-0.092
-742.127	250.026	-0.032	0.054
-741.112	312.236	-0.189	0.356
-740.098	-117.702	-0.214	0.039
-739.083	-10.066	0.058	-0.039
-738.069	-200.000	-0.018	0.158
-737.054	197.450	-0.121	0.185
-736.039	70.703	-0.054	-0.055
-735.025	-200.000	0.061	0.461
-734.010	-200.000	0.013	0.093
-732.996	-200.000	-0.000	0.229
-731.981	-200.000	-0.012	-0.189
-730.966	-38.148	0.120	0.064
-729.952	156.070	0.195	-0.269
-728.937	573.317	-0.007	0.016
-727.923	289.063	-0.199	-0.361
-726.908	800.000	-0.052	-0.152
-725.894	563.276	-0.076	-0.183
-724.879	-200.000	0.016	-0.074
-723.864	-128.463	-0.442	-0.063
-722.850	-111.976	-0.210	-0.042
-721.835	-90.986	0.206	0.059
-720.821	-31.682	0.209	-0.117
-719.806	59.898	-0.196	-0.194
-718.791	-200.000	-0.041	-0.188
-717.777	-15.426	-0.295	0.189
-716.762	56.435	-0.129	-0.126
-715.748	-39.717	-0.164	-0.086
-714.733	-59.801	-0.237	-0.102
-713.718	800.000	-0.127	0.499
-712.704	800.000	0.003	-0.009
-711.689	-200.000	0.004	-0.198
-710.675	800.000	0.088	0.269
-709.660	101.693	0.140	-0.164
-708.645	16.749	-0.153	-0.121
-707.631	-29.004	-0.073	-0.042
-706.616	18.411	-0.049	-0.039
-705.602	800.000	-0.079	-0.310
-704.587	505.650	-0.068	-0.157
-703.572	41.764	-0.240	0.217
-702.558	800.000	-0.098	0.289
-701.543	-200.000	-0.003	-0.225
-700.529	-13.982	-0.150	0.097
-699.514	274.810	-0.081	0.143
-698.499	40.624	-0.323	-0.291
-697.485	-37.976	-0.194	0.103
-696.470	-82.799	0.306	-0.099
-695.456	-200.000	-0.004	-0.065
-694.441	-200.000	0.037	-0.286
-693.426	55.137	-0.294	0.284
-692.412	18.964	-0.121	0.097
-691.397	-200.000	-0.004	-0.053
-690.383	204.888	0.067	-0.103
-689.368	800.000	-0.079	-0.267
-688.354	68.626	-0.065	0.066
-687.339	-84.449	-0.179	-0.057
-686.324	-40.416	0.070	0.036
-685.310	-200.000	0.023	-0.170
-684.295	-68.493	0.123	0.047
-683.281	-84.984	0.108	-0.034
-682.266	173.727	-0.283	-0.408
-681.251	93.077	0.111	0.125
-680.237	341.468	0.058	0.114
-679.222	231.695	0.119	-0.195
-678.208	-163.848	-0.337	-0.016
-677.193	-80.619	0.049	0.016
-676.178	-200.000	-0.016	0.244
-675.164	179.589	-0.022	0.031
-674.149	-92.113	-0.081	0.023
-673.135	298.712	-0.117	-0.214
-672.120	55.415	0.162	-0.156
-671.105	289.045	-0.046	0.083
-670.091	114.345	-0.186	-0.227
-669.076	447.417	0.218	-0.478
-668.062	-150.091	-0.205	0.016
-667.047	29.885	0.327	-0.278
-666.032	18.709	-0.313	-0.250
-665.018	-56.628	0.160	0.071
-664.003	-94.382	-0.449	0.122
-662.989	138.706	0.068	0.089
-661.974	-137.305	-0.271	0.031
-660.959	9.751	0.054	-0.041
-659.945	332.931	-0.106	0.204
-658.930	-200.000	0.067	0.370
-657.916	-27.052	-0.156	-0.091
-656.901	-200.000	-0.007	-0.156
-655.886	54.391	0.167	0.161
-654.872	217.687	-0.231	0.368
-653.857	-60.745	-0.061	-0.026
-652.843	192.186	-0.119	-0.179
-651.828	-200.000	-0.023	-0.318
-650.814	51.742	-0.061	-0.058
-649.799	456.646	0.033	-0.072
-648.784	800.000	0.087	0.296
-647.770	-108.475	0.407	0.087
-646.755	-200.000	-0.092	-0.541
-645.741	149.004	0.158	0.213
-644.726	-65.997	0.054	-0.022
-643.711	116.852	-0.051	-0.062
-642.697	-146.634	-0.099	-0.009
-641.682	-30.684	0.266	-0.150
-640.668	640.083	0.185	0.470
-639.653	-148.017	-0.262	-0.022
-638.638	77.576	-0.246	0.261
-637.624	239.075	-0.067	0.112
-636.609	-8.301	-0.094	0.063
-635.595	-173.848	-0.226	0.007
-634.580	2.351	0.158	-0.114
-633.565	8.542	0.324	0.243
-632.551	48.840	-0.011	0.011
-631.536	-200.000	-0.047	-0.269
-630.522	277.181	-0.071	-0.126
-629.507	800.000	0.042	0.136
-628.492	-11.489	0.147	-0.097
-627.478	-200.000	-0.020	0.199
-626.463	22.527	-0.192	0.156
-625.449	-29.548	0.254	0.145
-624.434	2.221	-0.144	0.104
-623.419	-85.664	-0.283	0.088
-622.405	707.970	0.147	-0.387
-621.390	-146.061	-0.275	-0.024
-620.376	-200.000	-0.014	-0.083
-619.361	800.000	-0.065	-0.272
-618.346	100.364	-0.117	0.135
-617.332	-200.000	-0.083	0.477
-616.317	-68.958	0.137	0.053
-615.303	200.916	0.069	-0.106
-614.288	87.010	0.198	0.218
-613.273	196.240	-0.206	-0.313
-612.259	53.695	0.044	-0.042
-611.244	-200.000	-0.001	0.365
-610.230	126.402	0.194	-0.245
-609.215	46.750	0.133	0.123
-608.201	-80.039	0.383	0.128
-607.186	-47.789	-0.035	0.017
-606.171	38.652	0.121	0.108
-605.157	-42.954	0.331	-0.167
-604.142	-24.664	-0.199	0.118
-603.128	40.559	-0.208	0.186
-602.113	-153.671	0.149	0.010
-601.098	198.292	0.053	-0.081
-600.084	615.704	-0.039	0.097
-599.069	-48.449	0.100	-0.048
-598.055	800.000	0.081	0.306
-597.040	-91.465	-0.167	0.047
-596.025	98.439	-0.118	0.135
-595.011	-83.039	0.257	-0.082
-593.996	321.634	0.160	0.304
-592.982	145.722	0.104	0.138
-591.967	800.000	-0.068	0.218
-590.952	-121.600	-0.149	-0.025
-589.938	800.000	0.026	0.072
-588.923	-164.229	-0.340	0.016
-587.909	51.585	0.225	-0.213
-586.894	435.438	0.129	-0.279
-585.879	-72.815	0.090	0.033
-584.865	-46.197	-0.095	0.046
-583.850	305.963	-0.054	-0.099
-582.836	-97.589	-0.099	0.026
-581.821	-200.000	0.037	0.248
-580.806	178.362	-0.075	0.109
-579.792	-73.618	-0.066	-0.024
-578.777	11.330	0.092	0.070
-577.763	-156.455	-0.108	0.007
-576.748	-135.186	-0.173	0.021
-575.733	-200.000	-0.038	-0.223
-574.719	-200.000	0.003	0.332
-573.704	-113.869	-0.324	0.063
-572.690	-200.000	0.024	0.284
-571.675	278.976	0.087	0.155
-570.661	800.000	-0.050	0.183
-569.646	107.773	-0.130	0.154
-568.631	-200.000	-0.043	-0.201
-567.617	-104.518	-0.489	-0.112
-566.602	-200.000	-0.070	0.364
-565.588	307.113	-0.081	0.151
-564.573	-200.000	0.023	0.288
-563.558	-200.000	0.004	-0.168
-562.544	-200.000	0.029	-0.312
-561.529	-135.319	0.100	-0.012
-560.515	-78.289	-0.336	-0.115
-559.500	522.919	0.155	-0.362
-558.485	429.663	-0.215	-0.462
-557.471	-75.638	0.075	-0.026
-556.456	16.787	-0.088	-0.069
-555.442	-7.986	0.304	0.204
-554.427	20.767	0.209	-0.168
-553.412	700.788	0.056	0.146
-552.398	-149.305	-0.212	0.017
-551.383	-48.010	0.140	0.067
-550.369	58.467	-0.197	0.192
-549.354	-140.005	0.119	0.012
-548.339	233.130	-0.155	-0.254
-547.325	-70.100	-0.208	-0.079
-546.310	-200.000	0.020	-0.149
-545.296	146.197	-0.060	-0.080
-544.281	-64.796	0.187	0.075
-543.266	-185.223	0.144	-0.002
-542.252	81.889	0.113	0.122
-541.237	-66.325	-0.134	0.053
-540.223	360.025	-0.026	-0.051
-539.208	218.497	-0.100	-0.158
-538.193	268.955	-0.154	0.269
-537.179	-200.000	0.018	-0.292
-536.164	67.475	-0.032	-0.032
-535.150	10.323	-0.193	0.146
-534.135	341.392	0.212	-0.411
-533.121	-200.000	-0.000	0.145
-532.106	800.000	0.160	-0.453
-531.091	-200.000	0.058	0.264
-530.077	283.147	0.202	0.359
-529.062	23.255	0.125	-0.102
-528.048	282.234	0.150	-0.268
-527.033	-70.230	0.226	-0.085
-526.018	-46.617	-0.088	-0.043
-525.004	-2.391	0.120	0.084
-523.989	219.086	0.182	0.289
-522.975	-60.691	-0.171	0.072
-521.960	12.074	-0.103	0.079
-520.945	-200.000	0.011	0.070
-519.931	800.000	0.078	0.241
-518.916	-27.942	-0.348	-0.200
-517.902	45.220	-0.176	-0.161
-516.887	-200.000	-0.070	-0.425
-515.872	-124.366	-0.224	0.035
-514.858	800.000	0.070	0.206
-513.843	-200.000	0.014	0.139
-512.829	270.371	0.072	-0.126
-511.814	445.554	0.048	-0.105
-510.799	119.366	0.155	-0.190
-509.785	-200.000	0.017	0.256
-508.770	-131.756	0.313	-0.041
-507.756	62.463	0.097	0.097
-506.741	-23.897	0.052	-0.031
-505.726	237.723	-0.157	-0.258
-504.712	800.000	-0.029	-0.120
-503.697	-106.599	-0.166	0.037
-502.683	-192.046	-0.185	-0.002
-501.668	74.152	0.043	0.045
-500.653	232.720	0.040	0.065
-499.639	686.885	-0.031	-0.079
-498.624	205.658	-0.059	-0.091
-497.610	-200.000	0.043	-0.476
-496.595	55.480	0.067	-0.064
-495.581	-90.760	-0.216	-0.062
-494.566	278.868	0.189	0.335
-493.551	394.896	-0.111	-0.228
-492.537	-200.000	-0.001	-0.187
-491.522	581.659	0.177	0.430
-490.508	190.836	-0.104	0.155
-489.493	306.527	-0.121	0.223
-488.478	92.676	0.130	0.145
-487.464	369.150	0.130	0.260
-486.449	800.000	-0.070	0.210
-485.435	567.510	-0.057	0.137
-484.420	51.379	-0.018	-0.017
-483.405	-200.000	0.012	0.098
-482.391	-84.376	0.539	-0.169
-481.376	-154.845	-0.322	0.021
-480.362	800.000	-0.077	0.225
-479.347	37.845	-0.148	-0.130
-478.332	-200.000	0.002	0.057
-477.318	800.000	-0.015	-0.051
-476.303	381.647	-0.175	-0.356
-475.289	64.855	0.222	-0.222
-474.274	-3.899	-0.152	-0.105
-473.259	-172.688	0.234	-0.007
-472.245	-200.000	0.017	-0.115
-471.230	510.479	0.108	-0.248
-470.216	61.365	0.300	0.295
-469.201	800.000	-0.059	-0.168
-468.186	186.596	-0.115	-0.170
-467.172	171.089	0.065	0.092
-466.157	800.000	-0.088	0.296
-465.143	800.000	0.150	0.484
-464.128	64.927	-0.147	-0.147
-463.113	-82.531	0.224	-0.072
-462.099	-63.574	-0.126	-0.051
-461.084	230.646	0.067	-0.108
-460.070	234.903	-0.110	-0.179
-459.055	-106.220	0.303	0.067
-458.040	568.789	0.062	0.150
-457.026	130.314	-0.360	-0.456
-456.011	-10.129	0.060	-0.040
-454.997	-44.128	0.141	-0.070
-453.982	-116.483	-0.401	-0.073
-452.968	-200.000	0.069	0.339
-451.953	258.104	0.063	0.108
-450.938	16.600	0.060	-0.047
-449.924	-97.542	0.138	0.035
-448.909	-94.616	0.342	-0.092
-447.895	-200.000	-0.002	0.158
-446.880	145.440	0.341	0.452
-445.865	-200.000	0.010	-0.093
-444.851	195.525	-0.106	-0.159
-443.836	142.140	-0.249	-0.327
-442.822	490.654	-0.012	-0.027
-441.807	-67.901	-0.059	-0.023
-440.792	800.000	0.044	-0.125
-439.778	-52.232	0.325	-0.149
-438.763	-187.563	-0.474	-0.006
-437.749	800.000	-0.043	-0.159
-436.734	32.137	0.200	-0.171
-435.719	50.260	-0.179	0.167
-434.705	534.133	0.048	0.112
-433.690	-79.359	0.330	0.110
-432.676	441.957	-0.051	-0.111
-431.661	7.396	0.181	-0.134
-430.646	-43.966	0.209	-0.104
-429.632	8.020	-0.248	0.184
-428.617	154.184	0.160	0.218
-427.603	-37.706	-0.257	0.135
-426.588	656.296	-0.056	-0.143
-425.573	138.761	-0.286	0.371
-424.559	-200.000	0.022	0.172
-423.544	538.523	0.042	-0.099
-422.530	-42.601	0.150	0.075
-421.515	800.000	-0.061	0.191
-420.500	-200.000	0.041	-0.186
-419.486	800.000	-0.034	-0.116
-418.471	800.000	0.062	-0.170
-417.457	49.109	-0.144	-0.133
-416.442	-139.431	-0.452	0.048
-415.428	6.382	-0.295	-0.217
-414.413	-200.000	-0.433	0.002
-413.398	-19.482	0.261	-0.160
-412.384	492.002	-0.111	0.252
-411.369	-46.227	0.388	-0.189
-410.355	-47.918	0.191	0.092
-409.340	-200.000	0.008	-0.307
-408.325	-46.995	-0.277	0.134
-407.311	-137.666	-0.323	0.036
-406.296	-200.000	0.082	-0.372
-405.282	-200.000	-0.012	0.168
-404.267	-23.550	-0.470	-0.279
-403.252	-200.000	-0.007	0.070
-402.238	439.132	0.075	-0.162
-401.223	155.610	0.144	0.195
-400.209	-200.000	0.039	-0.186
-399.194	-200.000	-0.006	-0.391
-398.179	-200.000	-0.003	0.243
-397.165	-21.886	0.137	-0.082
-396.150	332.937	0.117	0.222
-395.136	155.533	-0.228	0.310
-394.121	48.291	0.176	0.163
-393.106	800.000	-0.101	-0.291
-392.092	31.011	0.216	-0.182
-391.077	33.775	-0.187	0.161
-390.063	171.333	0.061	0.086
-389.048	121.960	-0.107	0.131
-388.033	-60.013	0.034	0.014
-387.019	124.965	-0.099	-0.123
-386.004	800.000	0.046	0.196
-384.990	-129.755	-0.256	-0.035
-383.975	-119.499	0.133	-0.023
-382.960	-200.000	0.024	0.228
-381.946	114.066	-0.247	-0.296
-380.931	360.360	0.137	-0.271
-379.917	797.886	-0.090	-0.245
-378.902	-166.133	-0.318	-0.013
-377.888	-68.970	-0.219	0.084
-376.873	271.565	0.263	0.458
-375.858	257.264	-0.092	-0.155
-374.844	800.000	-0.038	-0.140
-373.829	-115.594	0.226	0.042
-372.815	757.314	-0.032	0.084
-371.800	244.360	-0.093	0.154
-370.785	-125.793	0.199	0.030
-369.771	16.609	0.437	0.341
-368.756	186.879	0.139	0.204
-367.742	62.483	-0.114	-0.112
-366.727	-200.000	0.057	-0.300
-365.712	-30.733	0.181	-0.101
-364.698	48.306	-0.199	0.184
-363.683	66.251	-0.167	-0.167
-362.669	-76.128	-0.278	-0.097
-361.654	-130.080	0.106	-0.014
-360.639	-129.217	0.192	-0.026
-359.625	-39.201	-0.212	-0.110
-358.610	-136.266	-0.170	-0.020
-357.596	-56.157	0.537	-0.236
-356.581	-39.309	0.320	-0.166
-355.566	-47.793	-0.104	0.050
-354.552	-200.000	-0.039	0.475
-353.537	292.875	0.054	0.098
-352.523	-44.939	-0.294	-0.144
-351.508	-200.000	0.040	-0.195
-350.493	-20.024	0.157	-0.095
-349.479	-200.000	0.003	-0.095
-348.464	800.000	-0.107	-0.379
-347.450	493.974	0.097	-0.220
-346.435	-54.628	0.175	0.078
-345.420	-200.000	0.004	-0.081
-344.406	-200.000	-0.031	-0.234
-343.391	-64.213	-0.292	-0.117
-342.377	800.000	0.045	0.164
-341.362	65.735	0.105	0.105
-340.348	-200.000	-0.066	-0.340
-339.333	-200.000	-0.016	-0.277
-338.318	-97.456	-0.096	0.024
-337.304	-174.653	-0.418	0.012
-336.289	93.581	0.280	-0.313
-335.275	193.752	-0.152	-0.227
-334.260	-83.421	-0.098	0.031
-333.245	800.000	-0.040	0.171
-332.231	-200.000	0.012	-0.066
-331.216	91.727	-0.265	0.294
-330.202	402.606	0.073	0.151
-329.187	184.970	-0.213	-0.311
-328.172	-38.092	0.287	0.150
-327.158	-200.000	0.002	0.014
-326.143	48.750	-0.170	-0.157
-325.129	800.000	-0.074	0.213
-324.114	-186.722	0.096	-0.001
-323.099	-144.545	0.243	0.022
-322.085	-3.597	-0.397	-0.272
-321.070	22.435	0.043	-0.034
-320.056	-150.770	0.383	0.029
-319.041	-178.801	-0.337	0.008
-318.026	419.515	0.226	0.476
-317.012	380.788	-0.110	-0.222
-315.997	-119.830	0.435	-0.074
-314.983	16.624	0.229	0.178
-313.968	175.196	-0.040	-0.058
-312.953	207.396	0.093	-0.143
-311.939	-200.000	0.007	-0.064
-310.924	-107.375	0.149	-0.032
-309.910	257.018	0.039	-0.067
-308.895	-131.597	-0.191	0.025
-307.880	568.133	0.044	-0.104
-306.866	-200.000	0.041	-0.182
-305.851	-200.000	-0.024	-0.115
-304.837	-68.170	-0.465	0.178
-303.822	-200.000	0.126	-0.001
-302.807	-9.172	-0.237	-0.156
-301.793	-0.788	0.056	-0.039
-300.778	178.883	0.175	0.251
-299.764	800.000	0.048	0.181
-298.749	607.702	-0.058	0.142
-297.735	-82.343	0.192	0.062
-296.720	-115.131	-0.152	-0.028
-295.705	-19.106	0.105	-0.064
-294.691	224.773	0.141	0.224
-293.676	154.882	0.097	0.132
-292.662	88.727	-0.061	0.067
-291.647	-200.000	0.019	0.270
-290.632	-200.000	-0.013	-0.183
-289.618	28.543	0.268	-0.223
-288.603	-77.599	-0.275	-0.094
-287.589	-88.174	-0.265	0.078
-286.574	132.721	0.083	0.105
-285.559	-64.751	-0.022	-0.009
-284.545	-114.141	0.259	0.049
-283.530	616.950	0.095	0.235
-282.516	-113.580	-0.217	-0.042
-281.501	-99.497	0.305	0.076
-280.486	-109.444	0.188	-0.039
-279.472	800.000	-0.075	-0.283
-278.457	-92.814	0.315	0.087
-277.443	-0.006	-0.178	0.125
-276.428	464.257	-0.022	-0.048
-275.413	-200.000	-0.017	-0.079
-274.399	-200.000	0.050	-0.273
-273.384	-200.000	-0.020	-0.168
-272.370	-200.000	0.015	0.233
-271.355	-14.627	0.224	0.141
-270.340	-20.629	0.095	-0.058
-269.326	74.244	-0.180	0.186
-268.311	405.415	-0.108	-0.224
-267.297	602.491	-0.054	0.131
-266.282	242.263	-0.115	-0.189
-265.267	-200.000	-0.034	-0.208
-264.253	369.062	0.061	0.122
-263.238	66.361	-0.091	-0.091
-262.224	38.516	-0.163	0.143
-261.209	-83.655	0.101	0.032
-260.195	55.657	-0.068	-0.065
-259.180	496.739	-0.140	0.316
-258.165	-109.934	-0.105	0.022
-257.151	55.161	-0.067	0.064
-256.136	-200.000	-0.016	0.198
-255.122	-30.735	0.209	0.116
-254.107	-31.935	0.363	-0.200
-253.092	-200.000	0.022	-0.275
-252.078	466.717	0.178	0.392
-251.063	-45.145	-0.139	-0.068
-250.049	800.000	0.040	0.111
-249.034	-200.000	0.007	-0.136
-248.019	-145.721	0.256	-0.022
-247.005	-91.062	-0.282	0.080
-245.990	-154.940	-0.229	-0.015
-244.976	196.556	-0.250	0.373
-243.961	-151.086	0.255	-0.019
-242.946	-90.658	-0.171	0.049
-241.932	800.000	0.022	-0.062
-240.917	-200.000	-0.014	-0.173
-239.903	29.195	0.149	0.124
-238.888	-30.561	-0.209	0.116
-237.873	-83.758	-0.247	-0.077
-236.859	70.196	-0.163	0.165
-235.844	-178.023	0.274	-0.006
-234.830	-200.000	-0.041	0.218
-233.815	7.077	-0.136	0.100
-232.800	17.559	-0.140	0.109
-231.786	503.265	-0.102	0.231
-230.771	-200.000	0.038	-0.214
-229.757	-200.000	-0.050	-0.230
-228.742	-155.200	0.137	-0.009
-227.727	-109.849	-0.114	0.023
-226.713	800.000	-0.095	-0.348
-225.698	71.175	0.154	-0.157
-224.684	317.874	0.084	-0.156
-223.669	-21.848	0.199	0.119
-222.655	38.856	-0.187	0.164
-221.640	-200.000	-0.005	0.029
-220.625	112.528	0.234	-0.278
-219.611	-197.826	0.151	-0.001
-218.596	-200.000	0.014	0.155
-217.582	800.000	0.036	-0.101
-216.567	-128.118	0.096	-0.013
-215.552	180.538	-0.191	0.275
-214.538	800.000	0.056	-0.237
-213.523	-58.994	0.197	0.083
-212.509	-118.252	-0.304	-0.053
-211.494	115.586	-0.107	-0.128
-210.479	-25.781	-0.325	-0.188
-209.465	-200.000	-0.049	0.286
-208.450	-162.503	0.527	0.026
-207.436	18.558	-0.302	0.237
-206.421	-131.309	-0.379	-0.049
-205.406	-200.000	0.025	0.130
-204.392	800.000	-0.061	0.166
-203.377	-36.753	0.112	0.059
-202.363	38.613	0.280	0.245
-201.348	-200.000	0.004	-0.317
-200.333	208.502	-0.081	0.125
-199.319	800.000	0.047	0.156
-198.304	248.123	-0.087	0.144
-197.290	-37.865	0.057	-0.030
-196.275	89.167	0.071	-0.078
-195.260	119.534	-0.192	-0.233
-194.246	123.853	-0.017	0.021
-193.231	72.165	-0.109	0.111
-192.217	-200.000	-0.014	0.084
-191.202	516.404	0.086	-0.197
-190.187	-108.179	-0.283	-0.060
-189.173	-85.877	0.266	-0.081
-188.158	-200.000	-0.028	-0.322
-187.144	214.341	-0.120	0.186
-186.129	-200.000	-0.044	-0.207
-185.114	98.292	-0.169	-0.190
-184.100	-29.694	0.139	-0.078
-183.085	-55.047	-0.213	-0.094
-182.071	51.899	0.198	0.184
-181.056	173.909	0.173	-0.245
-180.042	-200.000	-0.004	-0.074
-179.027	-147.657	0.182	-0.015
-178.012	310.619	-0.155	0.283
-176.998	-200.000	0.006	-0.137
-175.983	620.018	0.106	0.262
-174.969	84.170	0.093	0.100
-173.954	607.146	0.032	0.077
-172.939	-200.000	0.015	0.084
-171.925	-98.361	-0.157	-0.039
-170.910	74.384	0.134	-0.138
-169.896	-200.000	0.001	0.029
-168.881	800.000	-0.123	-0.444
-167.866	-200.000	0.024	-0.105
-166.852	388.060	0.196	0.396
-165.837	-141.807	0.458	-0.045
-164.823	252.368	-0.081	0.134
-163.808	372.628	-0.067	-0.134
-162.793	-95.681	-0.044	-0.012
-161.779	800.000	0.112	0.363
-160.764	482.978	0.056	0.125
-159.750	193.440	0.238	-0.353
-158.735	-200.000	-0.007	0.032
-157.720	800.000	-0.133	-0.451
-156.706	146.606	0.120	-0.158
-155.691	-88.176	-0.254	0.074
-154.677	254.038	0.111	0.186
-153.662	-61.689	-0.082	0.034
-152.647	100.368	0.125	0.142
-151.633	-102.859	0.054	-0.012
-150.618	281.604	0.195	0.341
-149.604	-200.000	0.033	0.165
-148.589	222.898	-0.447	0.705
-147.574	-82.845	0.066	-0.021
-146.560	226.476	-0.197	0.313
-145.545	-200.000	0.004	0.081
-144.531	800.000	-0.030	0.107
-143.516	-21.173	0.212	-0.127
-142.502	79.238	0.268	0.281
-141.487	-96.385	-0.106	-0.027
-140.472	46.544	0.112	0.102
-139.458	371.116	0.179	-0.354
-138.443	-200.000	-0.003	0.071
-137.429	-128.078	-0.348	0.049
-136.414	-116.218	-0.306	-0.055
-135.399	489.299	0.078	0.175
-134.385	800.000	-0.097	-0.399
-133.370	-59.636	-0.242	-0.101
-132.356	19.224	0.079	0.062
-131.341	-120.551	0.244	0.041
-130.326	693.058	0.054	0.137
-129.312	-200.000	0.003	-0.032
-128.297	107.090	0.117	-0.136
-127.283	-162.697	0.371	-0.018
-126.268	-43.780	-0.341	-0.168
-125.253	-90.664	0.144	-0.041
-124.239	-200.000	0.034	0.222
-123.224	-113.370	0.272	-0.052
-122.210	88.541	0.128	-0.139
-121.195	-137.345	-0.167	0.019
-120.180	-167.702	0.341	-0.013
-119.166	-200.000	-0.025	0.155
-118.151	-97.664	0.083	-0.021
-117.137	-134.000	0.368	-0.044
-116.122	21.354	0.032	-0.025
-115.107	800.000	0.014	0.041
-114.093	-183.441	0.342	-0.006
-113.078	-200.000	0.032	0.170
-112.064	-84.424	-0.217	0.067
-111.049	-17.449	0.249	-0.153
-110.034	247.710	0.128	-0.212
-109.020	-200.000	0.012	-0.053
-108.005	800.000	-0.037	-0.111
-106.991	-200.000	0.000	0.148
-105.976	-35.610	-0.064	0.034
-104.962	-27.941	0.042	0.024
-103.947	157.982	-0.068	-0.093
-102.932	211.489	0.062	-0.096
-101.918	538.296	0.127	0.295
-100.903	-107.005	0.105	0.023
-99.889	-200.000	-0.022	-0.423
-98.874	-200.000	-0.002	-0.130
-97.859	-131.497	-0.134	-0.017
-96.845	70.938	0.145	0.147
-95.830	-35.629	0.131	0.069
-94.816	34.361	-0.251	-0.214
-93.801	80.712	0.065	0.069
-92.786	-89.967	-0.197	0.056
-91.772	-1.440	0.262	0.180
-90.757	-200.000	-0.026	0.159
-89.743	22.229	0.065	-0.052
-88.728	442.322	0.124	0.266
-87.713	-114.322	0.160	-0.030
-86.699	37.534	0.294	0.254
-85.684	-125.630	-0.094	0.014
-84.670	-57.343	0.356	-0.153
-83.655	-200.000	-0.020	-0.097
-82.640	209.351	-0.213	0.325
-81.626	800.000	-0.092	0.331
-80.611	-115.087	-0.453	-0.084
-79.597	-107.926	0.148	-0.031
-78.582	-123.902	0.103	0.016
-77.567	8.520	0.160	-0.117
-76.553	-130.716	0.125	-0.016
-75.538	-107.377	-0.087	0.019
-74.524	-200.000	0.009	0.210
-73.509	-43.338	0.339	0.167
-72.494	-200.000	-0.023	0.361
-71.480	-200.000	-0.009	0.066
-70.465	-17.525	0.194	0.119
-69.451	51.966	0.170	0.158
-68.436	47.537	0.379	0.345
-67.422	-122.433	0.131	-0.021
-66.407	64.749	0.174	-0.171
-65.392	-73.968	-0.118	0.042
-64.378	55.527	-0.228	0.215
-63.363	-200.000	-0.007	0.413
-62.349	-200.000	0.001	-0.147
-61.334	65.939	-1.135	-1.122
-60.319	67.888	0.952	0.949
-59.305	478.987	-0.680	-1.501
-58.290	221.652	0.934	1.464
-57.276	409.983	0.625	1.290
-56.261	-200.000	135.647	626.784
-55.246	344.849	1630.810	3120.039
-54.232	138.274	2766.393	3536.421
-53.217	81.221	2152.518	2265.940
-52.203	29.671	1588.842	1317.775
-51.188	22.066	1341.590	1066.672
-50.173	20.135	1307.740	1028.272
-49.159	46.773	1381.864	1250.883
-48.144	42.239	1390.485	1230.882
-47.130	22.046	1338.821	1064.176
-46.115	19.330	1319.732	1032.717
-45.100	18.960	1315.518	1027.166
-44.086	18.939	1312.674	1024.779
-43.071	18.932	1309.907	1022.539
-42.057	18.896	1308.018	1020.809
-41.042	18.999	1306.566	1020.246
-40.027	19.028	1304.753	1018.961
-39.013	19.070	1302.912	1017.735
-37.998	18.969	1301.368	1015.894
-36.984	19.006	1299.578	1014.671
-35.969	19.100	1297.574	1013.618
-34.954	19.083	1296.516	1012.653
-33.940	19.170	1294.680	1011.689
-32.925	19.081	1293.550	1010.245
-31.911	19.157	1291.758	1009.253
-30.896	19.121	1290.286	1007.849
-29.881	19.245	1289.078	1007.593
-28.867	19.274	1287.539	1006.517
-27.852	19.147	1286.061	1004.582
-26.838	19.109	1285.195	1003.642
-25.823	19.152	1283.276	1002.355
-24.809	19.272	1282.027	1002.039
-23.794	19.220	1280.800	1000.738
-22.779	19.208	1279.360	999.503
-21.765	19.154	1278.491	998.470
-20.750	19.133	1277.200	997.300
-19.736	19.026	1276.212	995.870
-18.721	18.964	1274.565	994.189
-17.706	19.000	1273.652	993.643
-16.692	19.001	1271.999	992.318
-15.677	19.025	1271.246	991.832
-14.663	18.935	1270.101	990.381
-13.648	18.946	1268.728	989.336
-12.633	18.987	1268.066	989.015
-11.619	18.916	1267.616	988.217
-10.604	18.970	1266.397	987.540
-9.590	18.968	1265.715	986.953
-8.575	18.913	1264.995	986.037
-7.560	18.988	1263.769	985.472
-6.546	18.983	1262.743	984.605
-5.531	19.033	1261.749	984.078
-4.517	19.024	1261.452	983.753
-3.502	18.982	1260.593	982.805
-2.487	18.966	1259.745	982.015
-1.473	19.003	1254.795	978.327
-0.458	17.366	1239.428	957.104
0.556	12.986	1224.382	920.808
1.571	9.490	1232.708	907.314
2.586	8.970	1247.634	915.255
3.600	9.322	1235.040	907.924
4.615	7.031	1163.923	843.364
5.629	2.614	1096.508	772.227
6.644	0.737	1081.323	752.134
7.659	0.559	1079.410	749.850
8.673	0.517	1079.282	749.490
9.688	0.467	1077.511	747.944
10.702	0.673	1074.871	747.061
11.717	3.277	1077.264	761.550
12.731	9.404	1085.059	797.436
13.746	14.899	1092.882	830.478
14.761	17.026	1095.146	842.697
15.775	16.356	1093.710	838.197
16.790	15.390	1091.347	831.526
17.804	14.760	1089.849	827.190
18.819	14.545	1088.620	825.121
19.834	14.219	1088.055	823.008
20.848	13.917	1087.211	820.807
21.863	13.724	1086.624	819.334
22.877	13.738	1085.101	818.185
23.892	13.694	1084.596	817.514
24.907	13.539	1084.086	816.297
25.921	13.585	1083.106	815.710
26.936	13.714	1082.350	815.706
27.950	13.681	1080.995	814.447
28.965	13.838	1080.185	814.536
29.980	13.826	1078.542	813.167
30.994	13.819	1077.694	812.420
32.009	13.794	1076.794	811.550
33.023	13.694	1076.167	810.515
34.038	13.800	1074.533	809.728
35.053	13.652	1074.159	808.654
36.067	13.775	1072.791	808.153
37.082	13.734	1072.110	807.369
38.096	13.721	1071.547	806.809
39.111	13.719	1070.761	806.136
40.126	13.738	1069.298	805.054
41.140	13.658	1068.175	803.754
42.155	13.529	1067.336	802.426
43.169	13.633	1065.658	801.595
44.184	13.466	1065.145	800.329
45.199	13.486	1064.139	799.598
46.213	13.636	1062.856	799.292
47.228	13.616	1062.190	798.623
48.242	13.690	1060.845	797.893
49.257	13.730	1059.412	796.939
50.271	13.666	1058.865	796.152
51.286	13.690	1057.994	795.539
52.301	13.664	1056.386	794.136
53.315	13.814	1055.305	793.971
54.330	13.705	1054.581	792.837
55.344	13.685	1054.139	792.339
56.359	13.627	1053.302	791.360
57.374	13.570	1052.063	790.090
58.388	13.604	1051.638	789.860
59.403	13.609	1050.521	788.978
60.417	13.550	1049.792	788.078
61.432	13.711	1048.755	787.994
62.447	13.532	1048.337	786.762
63.461	13.586	1047.483	786.308
64.476	13.569	1046.177	785.177
65.490	13.413	1045.888	784.149
66.505	13.643	1044.705	784.284
67.520	13.541	1044.318	783.441
68.534	13.550	1043.758	782.994
69.549	13.549	1043.133	782.448
70.563	13.560	1041.930	781.529
71.578	13.477	1041.304	780.600
72.593	13.452	1040.304	779.667
73.607	13.479	1039.765	779.317
74.622	13.553	1038.807	778.880
75.636	13.589	1038.182	778.512
76.651	13.558	1037.106	777.491
77.666	13.559	1036.757	777.165
78.680	13.491	1036.066	776.259
79.695	13.535	1035.744	776.154
80.709	13.600	1034.732	775.634
81.724	13.571	1034.106	774.958
82.739	13.636	1033.443	774.696
83.753	13.657	1032.682	774.154
84.768	13.811	1031.283	773.757
85.782	13.899	1030.186	773.274
86.797	13.718	1029.926	772.167
87.812	13.659	1029.041	771.161
88.826	13.653	1028.104	770.365
89.841	13.690	1026.988	769.632
90.855	13.689	1026.206	768.974
91.870	13.609	1025.914	768.315
92.884	13.632	1024.384	767.210
93.899	13.816	1023.684	767.467
94.914	13.824	1022.975	766.904
95.928	13.815	1021.954	766.031
96.943	13.766	1020.737	764.823
97.957	13.722	1020.336	764.252
98.972	13.881	1019.020	763.933
99.987	13.668	1018.610	762.576
101.001	13.817	1017.570	762.415
102.016	13.745	1016.689	761.357
103.030	13.826	1015.652	760.885
104.045	13.747	1015.077	760.026
105.060	13.818	1014.188	759.616
106.074	13.705	1013.392	758.438
107.089	13.673	1012.251	757.371
108.103	13.568	1011.654	756.378
109.118	13.759	1010.205	756.098
110.133	13.668	1009.405	755.015
111.147	13.642	1008.921	754.471
112.162	13.691	1008.060	753.982
113.176	13.939	1006.686	754.014
114.191	13.727	1006.210	752.627
115.206	13.653	1005.412	751.630
116.220	13.789	1004.505	751.500
117.235	13.770	1003.553	750.634
118.249	13.697	1002.950	749.790
119.264	13.815	1001.913	749.478
120.279	13.774	1001.192	748.687
121.293	13.720	1000.610	747.946
122.308	13.679	999.888	747.154
123.322	13.737	998.597	746.382
124.337	13.705	997.417	745.292
125.352	13.751	995.977	744.355
126.366	13.688	995.448	743.615
127.381	13.679	994.024	742.444
128.395	13.740	993.436	742.212
129.410	13.602	992.914	741.138
130.424	13.640	991.873	740.466
131.439	13.595	991.433	739.869
132.454	13.648	990.864	739.614
133.468	13.621	989.309	738.272
134.483	13.722	988.484	738.039
135.497	13.710	987.492	737.178
136.512	13.761	986.634	736.699
137.527	13.700	985.948	735.850
138.541	13.724	985.494	735.556
139.556	13.824	984.413	735.125
140.570	13.873	983.642	734.702
141.585	13.944	982.461	734.070
142.600	13.823	982.030	733.147
143.614	14.054	980.947	733.293
144.629	13.933	980.480	732.343
145.643	13.823	979.749	731.251
146.658	13.877	978.289	730.332
147.673	13.786	977.798	729.504
148.687	13.812	977.057	728.997
149.702	13.815	976.148	728.267
150.716	13.849	975.368	727.771
151.731	13.908	974.249	727.131
152.746	13.873	973.636	726.456
153.760	13.872	973.128	726.009
154.775	14.020	972.543	726.152
155.789	13.902	971.965	725.142
156.804	13.932	971.445	724.822
157.819	13.991	970.630	724.405
158.833	14.128	969.566	724.144
159.848	14.105	968.906	723.487
160.862	14.154	967.732	722.760
161.877	14.045	967.082	721.738
162.892	13.962	966.150	720.619
163.906	14.097	964.928	720.228
164.921	13.937	964.690	719.292
165.935	13.974	963.676	718.636
166.950	14.155	962.698	718.623
167.964	14.070	962.098	717.744
168.979	14.087	960.932	716.886
169.994	13.951	960.479	715.896
171.008	14.145	959.414	715.877
172.023	14.067	958.750	714.982
173.037	14.235	957.735	714.884
174.052	14.231	957.157	714.369
175.067	14.184	956.323	713.485
176.081	14.129	955.833	712.821
177.096	14.125	955.433	712.442
178.110	14.292	954.520	712.413
179.125	14.259	953.894	711.741
180.140	14.107	953.658	710.852
181.154	14.207	953.235	710.902
182.169	14.235	952.714	710.569
183.183	14.348	951.929	710.400
184.198	14.296	950.936	709.376
185.213	14.294	950.230	708.780
186.227	14.417	949.739	708.871
187.242	14.371	949.197	708.211
188.256	14.466	948.450	707.995
189.271	14.336	947.522	706.685
190.286	14.313	946.927	706.084
191.300	14.203	946.703	705.386
192.315	14.169	945.856	704.551
193.329	14.172	945.271	704.065
194.344	14.319	944.138	703.781
195.359	14.375	943.653	703.592
196.373	14.399	943.333	703.391
197.388	14.395	942.668	702.816
198.402	14.496	941.780	702.520
199.417	14.481	941.211	701.971
200.432	14.568	940.525	701.760
201.446	14.601	940.128	701.540
202.461	14.604	939.381	700.937
203.475	14.613	938.971	700.603
204.490	14.639	938.089	699.992
205.504	14.416	938.371	699.208
206.519	14.558	936.367	698.247
207.534	14.504	935.973	697.665
208.548	14.548	935.752	697.621
209.563	14.690	934.724	697.389
210.577	14.676	934.152	696.838
211.592	14.790	933.202	696.544
212.607	14.658	932.587	695.473
213.621	14.671	932.129	695.124
214.636	14.702	930.815	694.214
215.650	14.776	930.465	694.196
216.665	14.742	929.731	693.449
217.680	14.849	929.064	693.332
218.694	14.914	928.098	692.821
219.709	14.810	927.566	691.930
220.723	14.924	926.865	691.819
221.738	14.700	926.786	690.770
222.753	14.782	925.783	690.300
223.767	14.959	925.088	690.452
224.782	14.978	924.575	690.086
225.796	14.917	924.112	689.431
226.811	14.898	923.657	688.949
227.826	14.907	922.779	688.273
228.840	14.879	921.958	687.484
229.855	14.934	920.804	686.787
230.869	14.868	920.318	686.093
231.884	14.860	919.779	685.598
232.899	14.766	919.108	684.652
233.913	14.899	918.146	684.420
234.928	14.981	918.033	684.609
235.942	15.020	917.240	684.117
236.957	14.977	916.323	683.196
237.972	15.025	915.854	682.982
238.986	14.968	915.271	682.256
240.001	15.167	914.088	682.126
241.015	14.917	913.370	680.512
242.030	15.057	913.063	680.790
243.045	15.077	912.442	680.350
244.059	15.035	911.912	679.726
245.074	15.151	911.235	679.629
246.088	15.123	910.757	679.101
247.103	15.236	909.775	678.763
248.117	15.205	909.433	678.323
249.132	15.267	908.751	678.005
250.147	15.266	907.984	677.369
251.161	15.377	907.427	677.341
252.176	15.406	906.890	676.997
253.190	15.362	906.281	676.305
254.205	15.357	905.378	675.551
255.220	15.281	904.662	674.651
256.234	15.444	904.154	674.870
257.249	15.439	903.394	674.222
258.263	15.472	902.476	673.612
259.278	15.407	902.014	672.944
260.293	15.556	901.404	673.027
261.307	15.634	900.541	672.634
262.322	15.617	900.122	672.194
263.336	15.564	899.850	671.721
264.351	15.609	898.973	671.188
265.366	15.670	898.191	670.788
266.380	15.553	897.519	669.759
267.395	15.611	896.870	669.446
268.409	15.668	895.977	668.947
269.424	15.661	894.993	668.124
270.439	15.605	894.610	667.557
271.453	15.558	893.654	666.598
272.468	15.646	893.580	666.835
273.482	15.674	892.478	666.063
274.497	15.653	891.699	665.341
275.512	15.639	891.461	665.049
276.526	15.671	891.379	665.055
277.541	15.665	890.666	664.442
278.555	15.778	889.931	664.280
279.570	15.912	889.088	664.120
280.585	15.887	888.506	663.530
281.599	15.873	887.470	662.640
282.614	15.808	887.182	662.112
283.628	15.857	886.304	661.591
284.643	15.859	886.048	661.347
285.657	15.891	885.320	660.873
286.672	15.860	884.361	659.977
287.687	15.910	884.108	659.925
288.701	15.859	883.206	658.993
289.716	15.964	882.324	658.687
290.730	15.962	882.285	658.592
291.745	15.917	881.841	658.026
292.760	16.161	880.964	658.266
293.774	16.221	880.208	657.879
294.789	16.070	879.627	656.798
295.803	15.887	879.215	655.718
296.818	16.008	878.369	655.500
297.833	16.025	877.957	655.200
298.847	16.082	877.144	654.759
299.862	16.306	876.123	654.807
300.876	16.072	875.974	653.729
301.891	16.102	875.578	653.492
302.906	16.296	874.575	653.438
303.920	16.263	874.172	652.951
304.935	16.306	873.300	652.408
305.949	16.315	873.147	652.271
306.964	16.224	872.400	651.303
307.979	16.341	871.692	651.170
308.993	16.274	871.168	650.461
310.008	16.431	870.522	650.527
311.022	16.508	869.831	650.250
312.037	16.340	869.438	649.251
313.052	16.287	868.773	648.493
314.066	16.150	868.712	647.862
315.081	16.281	867.656	647.520
316.095	16.279	867.039	646.996
317.110	16.305	866.690	646.780
318.125	16.338	866.354	646.596
319.139	16.277	865.739	645.849
320.154	16.458	865.053	645.969
321.168	16.319	864.567	645.020
322.183	16.260	864.223	644.478
323.197	16.403	863.233	644.228
324.212	16.531	862.430	644.062
325.227	16.391	862.074	643.206
326.241	16.391	861.498	642.721
327.256	16.404	861.510	642.719
328.270	16.313	861.303	642.162
329.285	16.337	860.129	641.321
330.300	16.450	859.289	641.067
331.314	16.524	858.927	641.022
332.329	16.626	858.304	640.885
333.343	16.488	858.133	640.181
334.358	16.501	857.709	639.854
335.373	16.610	857.108	639.762
336.387	16.683	856.809	639.759
337.402	16.633	856.638	639.385
338.416	16.678	856.336	639.272
339.431	16.694	855.379	638.564
340.446	16.813	855.120	638.761
341.460	16.850	854.762	638.576
342.475	16.609	855.018	637.803
343.489	16.746	853.934	637.453
344.504	16.760	853.550	637.164
345.519	16.892	853.018	637.208
346.533	16.782	852.569	636.402
347.548	16.701	851.805	635.471
348.562	16.934	851.229	635.859
349.577	16.900	850.694	635.273
350.592	16.805	850.440	634.674
351.606	16.706	849.382	633.456
352.621	16.827	848.860	633.464
353.635	16.933	848.010	633.171
354.650	16.837	847.613	632.459
355.665	17.120	846.740	632.808
356.679	17.034	846.111	631.960
357.694	17.062	845.508	631.558
358.708	16.969	845.045	630.812
359.723	16.866	844.583	630.029
360.738	16.918	843.775	629.562
361.752	16.944	843.552	629.438
362.767	17.169	842.502	629.430
363.781	17.176	841.984	629.015
364.796	17.129	841.812	628.657
365.810	17.126	841.507	628.362
366.825	17.143	841.119	628.078
367.840	17.241	840.466	627.899
368.854	17.145	839.815	627.000
369.869	17.091	839.272	626.340
370.883	17.276	839.149	626.874
371.898	17.413	838.668	626.966
372.913	17.264	838.359	626.132
373.927	17.239	837.864	625.615
374.942	17.217	837.281	625.041
375.956	17.311	836.964	625.097
376.971	17.527	836.232	625.286
377.986	17.445	835.781	624.595
379.000	17.549	834.785	624.175
380.015	17.438	834.992	623.869
381.029	17.414	834.633	623.457
382.044	17.500	833.594	622.941
383.059	17.461	833.089	622.365
384.073	17.583	832.694	622.461
385.088	17.441	831.831	621.244
386.102	17.503	831.638	621.271
387.117	17.455	830.954	620.528
388.132	17.489	830.371	620.161
389.146	17.499	829.661	619.613
390.161	17.487	829.426	619.338
391.175	17.530	829.217	619.286
392.190	17.529	828.286	618.532
393.205	17.622	827.816	618.463
394.219	17.645	827.419	618.196
395.234	17.655	826.848	617.750
396.248	17.551	826.984	617.420
397.263	17.512	826.325	616.732
398.278	17.620	826.077	616.884
399.292	17.564	825.642	616.301
400.307	17.719	824.786	616.168
401.321	17.619	824.373	615.445
402.336	17.633	823.874	615.067
403.350	17.670	823.619	614.957
404.365	17.706	823.141	614.676
405.380	17.808	822.418	614.447
406.394	17.780	822.049	614.017
407.409	17.954	821.419	614.117
408.423	17.844	821.466	613.702
409.438	17.866	821.102	613.456
410.453	17.940	820.378	613.126
411.467	17.951	819.834	612.704
412.482	17.984	819.737	612.697
413.496	17.961	819.174	612.141
414.511	17.883	818.910	611.606
415.526	17.881	818.210	611.025
416.540	18.070	817.777	611.322
417.555	17.983	817.308	610.607
418.569	18.035	817.014	610.519
419.584	18.172	816.577	610.627
420.599	18.064	816.166	609.882
421.613	116.226	1301.554	1494.345
422.628	100.750	1372.222	1494.397
