DTS Sentinel unit serial number:	SN413079Multiplexer serial number:	ORYXHardware model number:	OX4-SRSoftware version number:	ORYX F/W v4.00 Oryx Data Collector v3.7.2.0data status	okinstallation	princeton_trtdifferential loss correction	single-endedforward channel	channel 1reverse channel	N/Adate	2019/09/12time	18:35:34forward acquisition time	15.00reverse acquisition time	0.00gamma	496.2192k internal	0.2318k external	0.2318temperature offset calibration	1.0105default loss term (dB/km)	0.3790temperature slope calibration	1.0000multiplexer offset coefficient	1.0000multiplexer slope coefficient	1.0000fibre end	0.00T internal ref (°C)	33.19T ext. ref 1 (°C)	2.94T ext. ref 2 (°C)	27.72length (m)	temperature (°C)	Stokes	anti-Stokes-747.200	800.000	-0.111	0.422
-746.185	59.989	-0.108	-0.108
-745.171	-200.000	0.002	0.358
-744.156	-66.346	-0.678	-0.273
-743.142	54.575	0.115	-0.112
-742.127	138.918	0.196	-0.260
-741.112	-46.161	0.257	0.128
-740.098	-100.454	-0.699	0.175
-739.083	-152.134	-0.365	-0.027
-738.069	-46.402	0.395	-0.196
-737.054	121.646	-0.236	0.298
-736.039	724.419	-0.217	0.584
-735.025	-6.914	0.155	0.106
-734.010	255.966	-0.156	0.271
-732.996	-139.641	0.670	-0.072
-731.981	-42.017	-0.509	-0.263
-730.966	-200.000	-0.037	0.180
-729.952	186.318	-0.292	0.439
-728.937	150.845	-0.454	0.624
-727.923	367.421	-0.176	0.359
-726.908	-86.417	0.225	0.070
-725.894	-138.729	1.094	-0.121
-724.879	-138.759	-0.913	-0.101
-723.864	252.870	0.707	1.219
-722.850	37.571	0.212	0.190
-721.835	-200.000	0.046	0.380
-720.821	800.000	0.059	0.250
-719.806	-137.846	-0.436	0.049
-718.791	52.257	0.234	0.226
-717.777	800.000	-0.331	1.022
-716.762	-200.000	-0.118	-0.594
-715.748	-89.013	-0.901	-0.270
-714.733	-200.000	0.064	0.540
-713.718	800.000	0.084	-0.348
-712.704	588.651	0.222	0.554
-711.689	-50.423	-0.723	-0.345
-710.675	-104.330	-0.558	-0.131
-709.660	59.624	-0.721	-0.719
-708.645	222.078	0.341	0.555
-707.631	-1.911	0.728	0.518
-706.616	16.247	-0.189	-0.151
-705.602	104.448	-0.699	-0.832
-704.587	12.631	0.681	0.532
-703.572	98.062	-0.842	0.979
-702.558	279.137	-0.106	-0.191
-701.543	-137.133	0.703	-0.081
-700.529	712.105	-0.075	-0.202
-699.514	534.885	0.132	0.316
-698.499	-0.665	-0.486	0.348
-697.485	-42.437	0.570	-0.294
-696.470	-4.588	-0.273	-0.191
-695.456	-141.342	-0.304	0.031
-694.441	495.258	-0.110	0.255
-693.426	-200.000	0.088	-0.511
-692.412	-182.381	-0.998	-0.019
-691.397	800.000	0.105	-0.424
-690.383	84.262	-0.496	-0.547
-689.368	-9.057	0.218	0.148
-688.354	-130.428	-0.630	0.086
-687.339	46.053	-0.376	-0.351
-686.324	110.996	0.255	0.309
-685.310	-116.347	-0.218	0.041
-684.295	-162.408	-0.686	0.034
-683.281	25.501	0.253	0.213
-682.266	-30.983	0.335	0.191
-681.251	800.000	0.234	-0.849
-680.237	134.804	-0.573	-0.751
-679.222	800.000	0.112	0.389
-678.208	65.021	0.035	-0.035
-677.193	-113.565	0.705	0.139
-676.178	209.618	0.091	0.144
-675.164	-2.562	0.523	0.370
-674.149	-200.000	0.022	-0.434
-673.135	213.993	-0.078	0.125
-672.120	-200.000	0.050	-0.461
-671.105	-164.992	-0.765	-0.034
-670.091	-78.790	-0.851	-0.293
-669.076	-200.000	0.024	-0.168
-668.062	680.995	0.168	0.442
-667.047	-35.334	-0.107	0.059
-666.032	221.555	0.451	-0.731
-665.018	-13.788	0.348	-0.227
-664.003	-200.000	0.008	-0.684
-662.989	211.003	0.328	-0.520
-661.974	-133.562	-0.534	-0.067
-660.959	43.748	-0.493	0.455
-659.945	-200.000	0.016	-0.985
-658.930	-76.897	-0.391	-0.138
-657.916	63.143	0.106	-0.107
-656.901	-180.025	0.325	-0.007
-655.886	115.761	0.561	0.692
-654.872	-200.000	-0.172	-1.016
-653.857	-75.567	0.515	-0.185
-652.843	-200.000	-0.091	-0.752
-651.828	-23.460	0.497	-0.301
-650.814	800.000	0.297	-1.064
-649.799	-69.405	0.461	-0.178
-648.784	32.700	0.314	0.274
-647.770	-200.000	0.016	-0.859
-646.755	69.655	-0.305	-0.317
-645.741	95.749	0.478	-0.551
-644.726	800.000	-0.073	-0.233
-643.711	32.031	-0.616	0.535
-642.697	183.575	-0.220	0.327
-641.682	-42.878	-0.471	-0.241
-640.668	-42.274	0.877	-0.451
-639.653	-163.680	-0.563	0.027
-638.638	-67.700	0.339	0.134
-637.624	-159.997	-0.767	0.042
-636.609	-115.966	-1.002	-0.188
-635.595	-200.000	0.123	1.348
-634.580	-156.255	-0.282	-0.018
-633.565	579.440	-0.237	0.586
-632.551	-200.000	-0.006	-0.752
-631.536	800.000	0.444	-1.348
-630.522	38.698	-0.351	-0.315
-629.507	174.022	-0.341	-0.497
-628.492	-200.000	-0.112	-0.546
-627.478	243.626	0.319	-0.539
-626.463	800.000	-0.120	0.487
-625.449	-103.534	-0.584	0.138
-624.434	45.140	0.596	0.554
-623.419	-80.946	0.493	0.165
-622.405	28.682	0.401	-0.342
-621.390	-128.202	0.113	-0.016
-620.376	460.621	0.186	-0.418
-619.361	63.951	0.399	0.404
-618.346	-200.000	-0.053	-0.337
-617.332	215.646	0.215	0.344
-616.317	-25.937	-0.746	-0.443
-615.303	-45.670	-0.515	-0.257
-614.288	800.000	0.287	-0.891
-613.273	16.236	0.698	-0.555
-612.259	36.418	0.094	0.084
-611.244	-44.164	-0.500	-0.253
-610.230	-135.119	0.632	-0.077
-609.215	-9.343	0.372	0.250
-608.201	-200.000	-0.204	-1.197
-607.186	-200.000	-0.004	-0.188
-606.171	660.530	-0.354	0.919
-605.157	409.815	-0.397	-0.846
-604.142	-200.000	0.006	0.982
-603.128	-200.000	-0.063	0.298
-602.113	-59.290	-0.742	-0.322
-601.098	794.996	-0.014	0.038
-600.084	100.881	-0.261	0.305
-599.069	800.000	0.192	0.785
-598.055	102.988	0.406	-0.479
-597.040	388.761	-0.246	-0.513
-596.025	537.877	0.312	-0.745
-595.011	-79.624	0.302	0.103
-593.996	800.000	-0.220	-0.698
-592.982	217.067	0.496	-0.795
-591.967	-200.000	0.036	0.442
-590.952	-53.120	0.739	-0.341
-589.938	163.963	-0.189	0.268
-588.923	800.000	-0.213	0.723
-587.909	-200.000	-0.097	-0.550
-586.894	289.985	0.264	-0.482
-585.879	556.480	0.192	-0.466
-584.865	800.000	-0.172	-0.630
-583.850	800.000	-0.198	-0.670
-582.836	-200.000	-0.001	0.403
-581.821	-67.230	-0.266	0.105
-580.806	-132.300	-1.512	-0.197
-579.792	-200.000	0.146	0.693
-578.777	74.499	0.198	0.210
-577.763	683.796	-0.229	0.600
-576.748	-99.614	0.252	-0.064
-575.733	-200.000	0.054	-0.493
-574.719	-179.269	0.439	-0.010
-573.704	800.000	0.027	0.077
-572.690	-200.000	0.066	0.345
-571.675	482.342	-0.024	0.056
-570.661	-200.000	-0.130	0.730
-569.646	-200.000	0.027	-0.197
-568.631	-118.099	0.679	-0.122
-567.617	-4.504	0.567	-0.394
-566.602	-46.538	-0.712	-0.351
-565.588	575.837	-0.361	0.886
-564.573	-77.814	-0.203	-0.070
-563.558	162.123	-0.419	0.590
-562.544	-74.501	0.323	-0.117
-561.529	800.000	-0.153	-0.636
-560.515	48.793	0.726	0.684
-559.500	800.000	0.031	-0.115
-558.485	-169.108	-1.001	0.037
-557.471	-15.837	-0.412	0.264
-556.456	-74.021	0.417	0.152
-555.442	-79.790	1.418	0.480
-554.427	577.077	0.064	0.156
-553.412	-158.475	-0.567	0.033
-552.398	-200.000	0.077	-0.386
-551.383	27.826	-0.149	-0.126
-550.369	-142.643	0.487	0.048
-549.354	800.000	-0.147	-0.542
-548.339	105.515	-0.228	-0.270
-547.325	-0.227	0.340	-0.243
-546.310	490.489	-0.496	1.139
-545.296	68.926	0.230	-0.238
-544.281	-84.766	-0.428	-0.135
-543.266	-88.002	0.495	-0.149
-542.252	732.510	-0.166	-0.447
-541.237	800.000	0.182	-0.642
-540.223	-200.000	0.087	0.491
-539.208	-17.786	0.569	0.359
-538.193	-99.457	-0.232	0.059
-537.179	107.419	0.216	0.258
-536.164	-200.000	-0.072	-0.661
-535.150	-74.898	0.466	0.168
-534.135	-38.673	0.144	0.076
-533.121	-104.211	-0.637	0.149
-532.106	-200.000	0.056	0.333
-531.091	-200.000	0.036	-0.816
-530.077	-101.048	0.628	-0.154
-529.062	-73.145	0.193	-0.071
-528.048	-70.792	0.671	0.254
-527.033	592.820	0.379	-0.941
-526.018	-200.000	-0.054	-0.443
-525.004	-200.000	-0.229	-1.086
-523.989	-200.000	-0.103	1.021
-522.975	-104.280	-0.969	0.226
-521.960	-96.085	0.237	0.063
-520.945	92.074	0.105	0.119
-519.931	800.000	0.198	-0.648
-518.916	59.278	-0.150	-0.148
-517.902	-14.633	0.605	-0.390
-516.887	-149.444	-1.379	0.110
-515.872	80.981	-0.108	0.117
-514.858	297.502	0.198	0.364
-513.843	8.482	-0.274	-0.207
-512.829	-52.663	-0.224	0.104
-511.814	206.402	-0.485	-0.758
-510.799	-200.000	-0.129	-1.111
-509.785	-4.284	0.940	-0.652
-508.770	-88.929	-0.315	-0.094
-507.756	-22.115	-1.190	-0.725
-506.741	6.656	-0.093	-0.069
-505.726	49.217	-0.398	-0.375
-504.712	155.546	-0.438	0.605
-503.697	-125.229	0.071	0.011
-502.683	-200.000	0.070	0.563
-501.668	-75.965	0.218	-0.077
-500.653	778.057	0.180	0.493
-499.639	197.040	0.375	0.574
-498.624	-4.589	0.543	0.376
-497.610	-200.000	0.040	-0.387
-496.595	244.957	-0.651	1.097
-495.581	800.000	-0.063	0.246
-494.566	-81.813	0.404	-0.133
-493.551	-13.581	-0.728	-0.473
-492.537	-200.000	0.036	-0.279
-491.522	314.362	0.121	0.229
-490.508	-55.983	-0.454	0.203
-489.493	249.742	0.095	0.161
-488.478	-200.000	-0.104	0.619
-487.464	-200.000	-0.062	-0.339
-486.449	87.196	-0.343	-0.380
-485.435	351.067	-0.293	-0.582
-484.420	-200.000	-0.006	0.418
-483.405	-38.210	-0.805	-0.428
-482.391	450.335	-0.097	0.215
-481.376	-91.756	1.143	0.325
-480.362	348.599	0.358	0.707
-479.347	64.351	-0.024	0.024
-478.332	-69.514	0.487	-0.187
-477.318	-200.000	0.011	0.242
-476.303	-71.723	0.351	0.131
-475.289	346.487	0.344	0.678
-474.274	25.594	-0.975	0.813
-473.259	2.102	-0.186	0.135
-472.245	-200.000	0.158	-0.759
-471.230	-182.301	-0.251	0.005
-470.216	-200.000	0.030	0.191
-469.201	51.575	0.109	0.103
-468.186	-23.631	-0.360	-0.216
-467.172	17.899	0.192	0.153
-466.157	800.000	-0.289	0.874
-465.143	-120.292	0.870	0.149
-464.128	204.270	0.349	0.541
-463.113	33.132	0.478	0.415
-462.099	800.000	0.224	-0.801
-461.084	638.669	0.074	0.188
-460.070	26.870	0.431	-0.362
-459.055	228.978	0.281	-0.459
-458.040	-44.234	-0.287	0.144
-457.026	-98.166	0.580	-0.149
-456.011	290.369	0.063	-0.114
-454.997	-36.083	-0.089	0.048
-453.982	-160.239	-0.972	-0.053
-452.968	63.865	0.645	0.649
-451.953	-200.000	-0.123	-0.560
-450.938	-59.552	-0.169	0.073
-449.924	-43.989	0.936	0.471
-448.909	-45.320	-0.574	-0.285
-447.895	-200.000	-0.012	0.830
-446.880	800.000	-0.071	0.232
-445.865	800.000	0.065	-0.242
-444.851	4.987	-0.459	0.338
-443.836	2.124	0.323	-0.233
-442.822	248.757	-0.328	0.555
-441.807	-200.000	-0.030	0.493
-440.792	-3.347	-0.128	-0.089
-439.778	-61.099	-0.384	-0.162
-438.763	-4.787	0.961	-0.663
-437.749	-86.257	0.512	0.158
-436.734	-42.743	0.672	0.342
-435.719	-32.745	-0.646	0.359
-434.705	62.618	0.729	0.729
-433.690	-200.000	-0.112	0.933
-432.676	243.182	0.182	-0.305
-431.661	-183.030	-0.396	0.007
-430.646	-200.000	0.082	-0.532
-429.632	-69.814	-0.525	-0.200
-428.617	-200.000	-0.064	-0.698
-427.603	172.638	0.153	0.220
-426.588	-31.233	-0.289	0.163
-425.573	344.807	-0.294	-0.576
-424.559	32.164	0.228	0.197
-423.544	-200.000	-0.247	1.178
-422.530	95.917	0.571	0.652
-421.515	-98.394	0.171	0.044
-420.500	-36.446	-0.158	-0.085
-419.486	543.384	-0.328	-0.782
-418.471	60.688	-0.201	0.199
-417.457	800.000	0.052	0.167
-416.442	-105.774	0.338	0.076
-415.428	-200.000	0.096	0.522
-414.413	90.335	-0.321	-0.359
-413.398	141.463	-0.256	-0.338
-412.384	43.671	-0.302	-0.277
-411.369	800.000	0.305	-0.926
-410.355	-91.497	0.137	-0.039
-409.340	-42.380	-0.725	-0.370
-408.325	800.000	-0.280	0.954
-407.311	-183.590	0.900	0.015
-406.296	800.000	-0.235	0.724
-405.282	-78.449	0.028	0.010
-404.267	-33.931	-0.116	0.064
-403.252	-41.625	0.480	-0.246
-402.238	8.456	0.205	-0.154
-401.223	269.623	-0.240	-0.421
-400.209	-189.358	-0.465	0.005
-399.194	424.441	-0.249	0.535
-398.179	250.674	0.206	0.349
-397.165	215.429	-0.110	0.174
-396.150	-28.815	0.458	0.263
-395.136	-25.231	0.546	0.323
-394.121	338.232	-0.244	0.473
-393.106	301.129	0.096	0.177
-392.092	-59.526	0.754	0.323
-391.077	-200.000	-0.029	0.671
-390.063	-200.000	0.031	-0.245
-389.048	-142.546	-0.556	0.054
-388.033	-129.532	-0.537	-0.074
-387.019	-193.633	-0.317	-0.003
-386.004	800.000	-0.147	0.409
-384.990	27.875	0.395	0.332
-383.975	-138.826	-0.360	-0.039
-382.960	5.913	-0.517	-0.382
-381.946	-200.000	-0.033	-0.343
-380.931	-119.860	-0.705	0.121
-379.917	333.696	0.170	-0.329
-378.902	228.957	0.225	0.366
-377.888	-94.913	-0.249	-0.067
-376.873	-97.518	0.254	-0.066
-375.858	-129.995	-0.830	0.113
-374.844	14.016	-0.309	-0.240
-373.829	-101.937	-0.632	0.152
-372.815	392.779	-0.205	0.426
-371.800	-136.231	0.370	0.043
-370.785	-200.000	0.000	0.298
-369.771	-146.588	0.786	0.068
-368.756	-200.000	0.419	0.002
-367.742	-109.506	0.378	-0.080
-366.727	-200.000	0.039	-1.089
-365.712	11.032	0.670	-0.511
-364.698	-138.913	1.585	-0.172
-363.683	-200.000	0.119	-0.580
-362.669	-200.000	0.143	-0.736
-361.654	-102.821	0.450	-0.107
-360.639	-200.000	0.006	-1.115
-359.625	-106.785	-0.612	0.135
-358.610	61.141	0.647	-0.641
-357.596	102.528	0.434	-0.506
-356.581	800.000	0.065	-0.216
-355.566	12.635	0.101	0.078
-354.552	-67.632	-0.122	-0.048
-353.537	-89.030	-0.404	-0.119
-352.523	-141.629	-0.230	-0.023
-351.508	7.938	0.338	-0.252
-350.493	161.184	0.233	-0.325
-349.479	-19.667	-0.561	0.346
-348.464	-200.000	-0.088	0.748
-347.450	-200.000	-0.132	-0.660
-346.435	-77.787	0.224	-0.077
-345.420	298.801	-0.266	-0.489
-344.406	-44.955	0.440	0.218
-343.391	-168.541	0.414	-0.016
-342.377	800.000	-0.062	0.193
-341.362	-200.000	-0.001	-0.962
-340.348	496.429	0.003	0.007
-339.333	155.441	-0.134	0.184
-338.318	-133.353	-0.341	-0.043
-337.304	147.712	-0.813	1.091
-336.289	-80.348	0.351	-0.117
-335.275	800.000	0.212	-0.635
-334.260	-26.724	-0.364	0.212
-333.245	31.606	-0.662	-0.567
-332.231	8.953	0.812	-0.611
-331.216	682.733	-0.082	-0.214
-330.202	147.413	0.271	-0.364
-329.187	-57.548	0.871	-0.380
-328.172	88.523	-0.470	-0.520
-327.158	-127.320	0.111	-0.016
-326.143	-169.894	1.457	0.052
-325.129	79.653	0.139	0.148
-324.114	-112.061	0.857	0.172
-323.099	53.252	-0.470	-0.449
-322.085	106.834	-0.614	0.725
-321.070	-129.505	-0.104	0.014
-320.056	-52.822	-1.048	0.481
-319.041	-85.818	0.094	0.029
-318.026	43.633	-0.210	0.191
-317.012	-105.417	-0.423	0.096
-315.997	673.480	-0.082	0.211
-314.983	-29.695	0.588	-0.334
-313.968	-200.000	-0.001	-0.311
-312.953	29.528	0.805	-0.681
-311.939	-162.181	0.681	0.034
-310.924	178.895	0.351	-0.511
-309.910	-200.000	0.001	-0.184
-308.895	-19.638	0.276	0.170
-307.880	-27.998	-0.138	0.079
-306.866	319.302	-0.531	1.001
-305.851	-23.402	0.489	-0.292
-304.837	40.917	0.076	-0.068
-303.822	-78.514	-0.565	-0.192
-302.807	378.645	0.311	-0.633
-301.793	-145.898	0.236	-0.021
-300.778	214.580	-0.578	0.911
-299.764	-136.378	-0.391	0.045
-298.749	613.347	-0.399	0.994
-297.735	-200.000	0.041	0.599
-296.720	-148.177	0.230	-0.019
-295.705	-200.000	-0.001	0.462
-294.691	-61.088	-0.182	-0.076
-293.676	82.855	0.345	0.373
-292.662	-106.516	-0.316	0.070
-291.647	-162.471	0.365	-0.018
-290.632	-144.130	0.567	-0.053
-289.618	33.255	-0.323	-0.279
-288.603	-135.848	-0.218	0.026
-287.589	221.536	-0.333	-0.532
-286.574	-200.000	0.026	-0.234
-285.559	-40.555	0.407	0.210
-284.545	479.337	0.063	0.142
-283.530	-200.000	0.058	0.367
-282.516	-200.000	0.066	0.476
-281.501	-24.226	0.288	-0.171
-280.486	-200.000	0.080	1.239
-279.472	198.969	0.194	0.295
-278.457	-145.425	-0.419	-0.037
-277.443	-32.094	0.629	-0.350
-276.428	-96.031	-0.276	-0.073
-275.413	-200.000	0.037	-0.228
-274.399	444.010	-0.046	0.099
-273.384	4.052	0.473	-0.344
-272.370	1.438	0.223	-0.159
-271.355	566.284	0.149	0.359
-270.340	3.259	-0.358	-0.259
-269.326	-97.435	-0.562	0.145
-268.311	32.342	0.270	-0.231
-267.297	50.108	-0.419	0.393
-266.282	-200.000	-0.090	-0.533
-265.267	-141.351	0.767	0.077
-264.253	147.114	-0.259	0.346
-263.238	800.000	0.217	0.811
-262.224	-159.738	0.328	-0.018
-261.209	70.825	0.267	0.275
-260.195	-61.998	0.725	0.301
-259.180	-2.301	0.266	0.186
-258.165	-200.000	-0.026	0.493
-257.151	-39.719	0.465	-0.241
-256.136	424.244	-0.053	0.113
-255.122	167.864	-0.147	0.207
-254.107	354.928	0.158	0.312
-253.092	800.000	0.097	-0.325
-252.078	-95.579	0.585	-0.156
-251.063	-200.000	-0.000	-0.414
-250.049	392.964	-0.360	-0.744
-249.034	694.565	0.255	0.663
-248.019	-200.000	0.004	0.926
-247.005	-132.678	0.142	-0.018
-245.990	-63.466	0.334	-0.136
-244.976	-200.000	-0.032	-0.452
-243.961	-200.000	-0.039	0.222
-242.946	77.336	0.478	-0.504
-241.932	251.334	-0.143	-0.242
-240.917	-200.000	-0.011	-0.383
-239.903	800.000	-0.091	0.373
-238.888	-200.000	0.001	0.327
-237.873	-136.455	0.469	-0.054
-236.859	178.588	0.165	-0.240
-235.844	164.565	-0.254	-0.356
-234.830	21.642	0.613	0.495
-233.815	-53.176	-0.432	0.197
-232.800	800.000	0.120	0.424
-231.786	67.614	0.237	0.240
-230.771	-112.003	0.154	-0.031
-229.757	58.256	-0.327	0.318
-228.742	-36.812	-0.351	-0.187
-227.727	-200.000	-0.065	0.434
-226.713	-42.578	0.343	0.173
-225.698	-200.000	0.044	0.785
-224.684	-200.000	0.009	-0.159
-223.669	800.000	0.226	-0.808
-222.655	271.345	0.245	0.429
-221.640	246.938	0.500	0.837
-220.625	-116.047	0.295	-0.054
-219.611	-135.641	-0.850	0.100
-218.596	80.418	0.268	0.286
-217.582	-87.886	0.340	-0.101
-216.567	8.294	-0.446	-0.332
-215.552	-112.390	-0.266	-0.053
-214.538	2.021	-0.446	-0.319
-213.523	-83.150	-0.792	0.253
-212.509	-113.258	-0.753	-0.147
-211.494	-90.534	-0.401	-0.115
-210.479	-48.122	-1.199	0.574
-209.465	-63.189	0.802	0.328
-208.450	-200.000	0.025	-0.298
-207.436	-115.408	-0.477	0.089
-206.421	-63.780	0.477	0.194
-205.406	-89.814	0.654	0.190
-204.392	40.235	-0.524	0.467
-203.377	-131.293	0.199	-0.026
-202.363	-172.233	0.367	-0.012
-201.348	-50.903	-0.815	-0.379
-200.333	72.753	-0.635	-0.656
-199.319	78.695	0.548	0.581
-198.304	-115.382	-0.102	-0.019
-197.290	-80.534	-0.879	-0.290
-196.275	396.884	-0.127	-0.262
-195.260	57.247	-0.035	-0.034
-194.246	34.361	0.434	0.376
-193.231	-13.878	-0.243	0.155
-192.217	-45.546	-0.630	0.309
-191.202	155.488	-0.768	1.048
-190.187	-200.000	0.062	0.396
-189.173	-200.000	0.012	-0.391
-188.158	180.739	0.254	0.370
-187.144	-152.935	0.814	0.057
-186.129	-70.420	0.689	0.259
-185.114	-141.330	-0.655	0.066
-184.100	64.907	-0.574	0.574
-183.085	-172.023	-1.832	-0.059
-182.071	127.050	-0.425	-0.534
-181.056	-200.000	-0.004	-0.056
-180.042	-114.594	-0.547	-0.104
-179.027	-200.000	0.128	0.640
-178.012	-52.691	-0.477	0.218
-176.998	-200.000	-0.117	0.910
-175.983	-61.725	-0.607	0.252
-174.969	-10.382	-0.423	-0.278
-173.954	800.000	-0.069	0.287
-172.939	-123.391	-0.482	0.076
-171.925	-43.427	0.553	-0.276
-170.910	-50.110	0.434	0.204
-169.896	-35.313	-0.534	-0.288
-168.881	-35.750	-0.675	0.362
-167.866	248.269	-0.042	-0.070
-166.852	104.989	0.213	-0.249
-165.837	-123.121	-0.738	0.117
-164.823	-163.188	0.131	-0.006
-163.808	-128.745	-0.389	0.054
-162.793	-200.000	-0.015	-0.439
-161.779	-96.552	0.403	0.105
-160.764	-200.000	0.161	-0.854
-159.750	-111.945	0.463	0.092
-158.735	-200.000	-0.143	-1.061
-157.720	51.481	0.360	0.339
-156.706	-161.450	0.654	0.033
-155.691	43.426	0.221	-0.199
-154.677	-70.827	0.332	-0.124
-153.662	35.831	-0.663	0.577
-152.647	-200.000	-0.051	-0.951
-151.633	128.854	0.507	-0.639
-150.618	-29.937	0.811	-0.457
-149.604	-146.686	0.755	-0.065
-148.589	-22.675	-0.706	0.422
-147.574	-165.432	-1.031	0.045
-146.560	-114.486	-1.309	-0.248
-145.545	143.727	-0.389	-0.512
-144.531	-49.811	-0.384	0.180
-143.516	-109.529	0.633	0.132
-142.502	-37.965	-0.261	0.137
-141.487	-119.012	-0.273	0.047
-140.472	-140.998	-0.196	-0.020
-139.458	-52.476	0.192	-0.088
-138.443	-15.991	-0.148	-0.093
-137.429	-186.544	0.095	0.001
-136.414	281.476	0.213	-0.378
-135.399	800.000	-0.269	0.833
-134.385	659.988	0.108	-0.274
-133.370	-117.038	0.996	-0.180
-132.356	-82.783	0.708	0.226
-131.341	10.585	-0.361	-0.272
-130.326	-14.395	0.245	0.156
-129.312	800.000	0.231	0.692
-128.297	-93.570	-0.341	-0.093
-127.283	-200.000	0.053	0.720
-126.268	-87.684	0.471	0.140
-125.253	175.874	0.089	-0.128
-124.239	181.516	-0.133	0.194
-123.224	169.998	-0.416	-0.588
-122.210	35.971	0.220	-0.191
-121.195	714.299	0.270	0.706
-120.180	-45.277	0.434	0.213
-119.166	-200.000	0.005	-0.209
-118.151	193.444	0.246	0.367
-117.137	-99.241	0.079	0.020
-116.122	-74.244	-0.405	-0.145
-115.107	35.809	-0.459	0.399
-114.093	77.017	0.367	-0.384
-113.078	800.000	0.193	0.572
-112.064	26.459	-0.615	0.508
-111.049	34.513	-0.358	-0.309
-110.034	-200.000	-0.217	0.941
-109.020	333.297	0.548	-1.046
-108.005	61.074	-0.658	-0.645
-106.991	-200.000	-0.033	-0.345
-105.976	-200.000	-0.104	0.786
-104.962	265.035	0.046	-0.079
-103.947	-40.092	-1.152	-0.593
-102.932	-8.750	-0.672	-0.445
-101.918	-13.153	-0.217	0.139
-100.903	205.988	-0.199	-0.305
-99.889	224.415	0.186	0.296
-98.874	-28.955	-0.372	0.211
-97.859	774.289	0.492	-1.324
-96.845	75.936	0.595	0.621
-95.830	249.129	0.086	0.144
-94.816	102.622	0.692	-0.799
-93.801	234.347	-0.443	-0.720
-92.786	-200.000	0.087	-0.701
-91.772	132.462	0.243	-0.309
-90.757	314.814	0.053	0.098
-89.743	133.281	-0.400	-0.511
-88.728	-60.228	-0.550	-0.231
-87.713	164.200	-0.195	-0.271
-86.699	-84.279	0.499	0.156
-85.684	-125.469	0.426	-0.064
-84.670	-8.727	0.391	0.259
-83.655	310.742	-0.087	-0.160
-82.640	-142.114	0.565	0.055
-81.626	596.933	0.290	0.710
-80.611	465.256	-0.201	0.444
-79.597	-200.000	0.047	-0.985
-78.582	-178.368	1.335	0.031
-77.567	499.770	0.167	0.380
-76.553	-117.657	0.469	0.083
-75.538	-114.497	-0.380	-0.072
-74.524	800.000	0.175	0.507
-73.509	515.957	-0.459	1.058
-72.494	0.442	-0.689	0.486
-71.480	-200.000	0.002	0.677
-70.465	-60.544	-0.398	-0.167
-69.451	290.593	0.104	-0.187
-68.436	70.808	0.977	-0.997
-67.422	86.572	0.252	0.274
-66.407	531.441	-0.067	0.156
-65.392	639.336	0.382	-0.957
-64.378	-66.334	0.382	0.150
-63.363	-2.570	-0.499	0.344
-62.349	800.000	-0.093	-0.386
-61.334	132.891	-0.684	-0.870
-60.319	-200.000	-0.188	1.372
-59.305	232.574	-0.765	-1.238
-58.290	641.233	0.392	0.984
-57.276	270.404	1.195	2.071
-56.261	-200.000	94.765	568.336
-55.246	641.987	1365.079	3426.644
-54.232	201.356	2530.713	3839.356
-53.217	117.672	2126.745	2579.091
-52.203	44.737	1596.944	1447.129
-51.188	36.864	1335.988	1163.557
-50.173	33.390	1295.215	1107.722
-49.159	56.338	1344.861	1287.400
-48.144	57.476	1360.799	1309.376
-47.130	36.687	1319.326	1147.814
-46.115	33.221	1302.364	1112.665
-45.100	33.133	1296.989	1107.516
-44.086	32.818	1294.801	1103.761
-43.071	33.214	1291.147	1102.909
-42.057	33.071	1289.269	1100.428
-41.042	32.914	1288.672	1098.960
-40.027	33.252	1286.915	1099.387
-39.013	33.497	1283.407	1097.765
-37.998	32.924	1283.761	1094.705
-36.984	33.366	1281.261	1095.083
-35.969	33.094	1279.900	1092.306
-34.954	33.105	1278.193	1090.867
-33.940	33.142	1276.890	1089.926
-32.925	33.229	1274.843	1088.638
-31.911	33.469	1273.084	1088.471
-30.896	33.308	1272.293	1086.828
-29.881	33.180	1270.547	1084.557
-28.867	33.276	1269.688	1084.330
-27.852	33.316	1266.749	1082.012
-26.838	33.459	1265.666	1081.859
-25.823	33.306	1265.049	1080.412
-24.809	33.160	1264.415	1078.996
-23.794	33.196	1263.349	1078.249
-22.779	33.273	1260.738	1076.414
-21.765	33.327	1260.408	1076.396
-20.750	33.245	1259.087	1074.764
-19.736	32.954	1258.535	1072.598
-18.721	33.224	1256.557	1072.397
-17.706	33.009	1255.952	1070.622
-16.692	33.503	1253.793	1071.531
-15.677	33.145	1254.122	1069.748
-14.663	32.953	1253.829	1068.367
-13.648	33.095	1250.341	1066.154
-12.633	33.296	1250.164	1067.093
-11.619	33.078	1250.281	1065.919
-10.604	33.138	1248.407	1064.620
-9.590	33.081	1248.443	1064.285
-8.575	33.214	1246.401	1063.254
-7.560	33.182	1246.491	1063.105
-6.546	32.960	1245.810	1061.237
-5.531	32.894	1244.743	1059.914
-4.517	33.111	1243.528	1060.054
-3.502	33.143	1242.382	1059.213
-2.487	33.056	1242.505	1058.789
-1.473	33.044	1237.051	1054.035
-0.458	31.448	1222.880	1033.109
0.556	28.726	1204.589	993.875
1.571	24.920	1210.290	977.748
2.586	23.869	1225.768	984.353
3.600	23.121	1214.760	971.317
4.615	17.231	1143.016	883.346
5.629	7.434	1068.259	777.684
6.644	3.422	1046.665	742.602
7.659	2.966	1043.238	737.911
8.673	2.665	1043.566	736.634
9.688	2.710	1041.586	735.384
10.702	3.175	1039.420	736.016
11.717	9.126	1049.438	771.713
12.731	18.976	1062.391	828.872
13.746	24.286	1068.498	859.230
14.761	25.151	1068.513	863.330
15.775	24.863	1068.272	861.677
16.790	24.843	1067.671	861.018
17.804	24.763	1067.287	860.246
18.819	24.983	1066.990	860.988
19.834	25.162	1066.702	861.540
20.848	24.870	1065.884	859.402
21.863	25.030	1066.203	860.350
22.877	25.005	1064.102	858.460
23.892	25.019	1063.724	858.149
24.907	25.132	1063.612	858.521
25.921	25.029	1062.536	857.082
26.936	24.743	1061.682	854.951
27.950	24.399	1060.629	852.385
28.965	24.761	1057.696	851.676
29.980	25.072	1056.190	851.866
30.994	24.748	1055.883	850.005
32.009	24.905	1055.589	850.437
33.023	24.715	1054.398	848.504
34.038	24.772	1053.079	847.638
35.053	24.778	1051.547	846.356
36.067	25.113	1050.717	847.197
37.082	25.235	1050.552	847.568
38.096	24.896	1050.787	846.077
39.111	25.281	1049.462	846.756
40.126	25.138	1047.990	844.815
41.140	25.109	1045.349	842.478
42.155	24.627	1046.065	840.711
43.169	24.495	1045.924	839.905
44.184	24.564	1043.601	838.289
45.199	24.502	1042.781	837.263
46.213	24.646	1040.845	836.309
47.228	24.941	1041.968	838.519
48.242	24.894	1041.303	837.689
49.257	24.918	1040.576	837.143
50.271	25.271	1039.544	837.890
51.286	25.603	1038.105	838.200
52.301	25.014	1037.731	835.083
53.315	24.745	1037.558	833.615
54.330	24.804	1035.990	832.554
55.344	24.853	1035.933	832.663
56.359	25.025	1033.828	831.697
57.374	24.874	1033.895	830.978
58.388	24.817	1033.190	830.071
59.403	24.821	1031.598	828.736
60.417	24.601	1031.613	827.656
61.432	24.701	1030.814	827.404
62.447	25.116	1029.967	828.572
63.461	24.725	1029.802	826.559
64.476	24.922	1028.206	826.113
65.490	24.728	1026.860	824.066
66.505	25.028	1025.199	824.040
67.520	24.819	1026.086	823.715
68.534	24.544	1025.122	821.603
69.549	24.439	1023.777	819.972
70.563	24.154	1023.933	818.714
71.578	24.221	1023.337	818.473
72.593	24.257	1022.235	817.685
73.607	24.035	1022.327	816.666
74.622	24.661	1021.125	818.502
75.636	24.405	1020.002	816.358
76.651	24.797	1018.474	816.854
77.666	24.555	1018.519	815.714
78.680	24.512	1017.686	814.776
79.695	24.338	1017.386	813.670
80.709	24.680	1016.388	814.361
81.724	24.641	1015.773	813.618
82.739	24.626	1014.864	812.746
83.753	25.097	1014.286	814.354
84.768	25.382	1013.783	815.170
85.782	25.362	1013.408	814.709
86.797	25.627	1011.274	814.120
87.812	25.277	1011.838	812.916
88.826	25.439	1010.066	812.154
89.841	25.190	1009.771	810.720
90.855	25.687	1008.000	811.467
91.870	25.419	1008.071	810.242
92.884	25.150	1007.476	808.483
93.899	25.377	1006.080	808.311
94.914	25.418	1004.775	807.373
95.928	25.081	1003.890	805.077
96.943	25.067	1003.415	804.563
97.957	24.907	1002.683	803.188
98.972	24.618	1001.886	801.184
99.987	25.357	999.947	802.866
101.001	25.163	999.404	801.495
102.016	24.974	999.262	800.464
103.030	25.320	997.800	800.768
104.045	25.279	996.875	799.768
105.060	24.788	996.492	797.204
106.074	25.141	996.659	798.839
107.089	25.101	994.901	797.183
108.103	24.912	994.460	795.920
109.118	25.101	992.616	795.211
110.133	24.786	991.373	792.748
111.147	24.705	991.194	792.175
112.162	24.801	989.622	791.276
113.176	24.877	989.484	791.432
114.191	24.546	990.031	790.334
115.206	24.799	987.434	789.308
116.220	24.550	987.815	788.444
117.235	25.032	985.706	788.813
118.249	24.583	985.653	786.725
119.264	24.411	984.960	785.342
120.279	24.362	984.042	784.325
121.293	24.436	984.103	784.633
122.308	24.786	982.184	784.565
123.322	24.779	980.790	783.355
124.337	24.314	980.556	781.060
125.352	24.136	979.936	779.718
126.366	24.265	978.489	779.064
127.381	24.613	978.440	780.473
128.395	25.011	977.968	781.766
129.410	25.116	977.118	781.476
130.424	25.035	975.982	780.146
131.439	25.302	974.591	780.123
132.454	24.844	974.498	777.993
133.468	24.853	973.639	777.277
134.483	25.187	972.013	777.357
135.497	25.276	971.867	777.554
136.512	25.430	970.472	777.039
137.527	25.230	971.185	776.673
138.541	25.265	970.366	776.102
139.556	25.361	969.065	775.407
140.570	25.585	967.978	775.433
141.585	25.704	966.872	774.991
142.600	25.348	966.570	773.151
143.614	25.741	966.302	774.556
144.629	25.549	964.621	772.315
145.643	25.404	963.525	770.749
146.658	25.032	961.823	767.728
147.673	25.346	960.928	768.290
148.687	25.156	959.807	766.512
149.702	25.135	959.712	766.279
150.716	25.080	958.978	765.390
151.731	25.306	958.383	765.810
152.746	25.571	956.992	765.759
153.760	25.509	957.547	765.873
154.775	25.715	955.896	765.362
155.789	25.609	956.333	765.194
156.804	25.650	955.250	764.433
157.819	25.382	954.120	762.323
158.833	25.466	953.203	761.876
159.848	25.678	953.191	762.699
160.862	25.765	951.012	761.256
161.877	25.537	950.053	759.458
162.892	25.217	948.882	757.104
163.906	25.241	948.113	756.526
164.921	25.489	947.136	756.724
165.935	25.688	946.060	756.633
166.950	25.661	944.741	755.401
167.964	25.484	945.217	754.967
168.979	25.237	943.178	752.238
169.994	25.615	942.408	753.142
171.008	25.392	943.623	753.111
172.023	25.723	941.741	752.925
173.037	25.603	941.355	752.048
174.052	25.180	940.550	749.574
175.067	25.205	940.041	749.204
176.081	25.485	938.538	749.107
177.096	25.255	938.372	747.949
178.110	24.720	938.123	745.455
179.125	24.931	937.335	745.641
180.140	25.296	936.039	746.062
181.154	25.346	936.056	746.217
182.169	25.185	936.363	745.728
183.183	25.434	935.432	745.955
184.198	25.392	934.398	744.890
185.213	25.279	934.498	744.435
186.227	25.215	934.586	744.174
187.242	25.729	931.759	743.980
188.256	26.010	930.625	744.172
189.271	25.710	932.382	744.269
190.286	25.438	929.793	741.015
191.300	24.777	928.861	737.484
192.315	24.258	928.249	734.792
193.329	24.071	926.850	732.848
194.344	24.969	927.482	736.981
195.359	25.534	926.471	738.436
196.373	25.687	926.514	739.031
197.388	25.367	926.291	737.475
198.402	25.521	925.343	737.287
199.417	25.780	923.946	737.167
200.432	25.801	924.058	737.278
201.446	25.871	921.785	735.686
202.461	25.569	923.014	735.368
203.475	25.402	920.911	732.943
204.490	24.157	919.579	726.742
205.504	25.042	919.790	730.455
206.519	25.409	919.559	731.701
207.534	25.390	919.592	731.587
208.548	25.549	919.271	731.913
209.563	25.467	918.422	730.841
210.577	25.996	916.424	731.332
211.592	25.667	917.708	730.956
212.607	25.782	917.592	731.267
213.621	26.006	916.305	731.081
214.636	26.061	914.752	730.000
215.650	25.618	914.917	728.274
216.665	25.552	914.211	727.383
217.680	25.905	912.838	727.652
218.694	25.555	911.797	725.346
219.709	25.620	911.452	725.266
220.723	25.605	910.501	724.389
221.738	25.513	910.049	723.595
222.753	25.671	909.734	723.914
223.767	25.804	909.960	724.563
224.782	26.331	907.852	724.937
225.796	25.942	908.593	723.901
226.811	25.494	907.840	721.439
227.826	24.667	905.970	716.579
228.840	25.053	905.165	717.425
229.855	25.014	904.078	716.344
230.869	25.228	904.162	717.200
231.884	25.138	903.496	716.250
232.899	25.778	902.559	717.995
233.913	25.252	903.741	716.770
234.928	25.571	901.780	716.423
235.942	25.255	901.711	715.046
236.957	25.473	900.491	714.882
237.972	25.038	901.021	713.510
238.986	25.420	900.116	714.251
240.001	25.387	899.678	713.705
241.015	25.477	898.453	713.029
242.030	25.368	898.447	712.530
243.045	25.457	898.083	712.528
244.059	25.336	897.476	711.505
245.074	25.610	897.247	712.347
246.088	25.400	896.550	710.898
247.103	26.093	895.282	712.568
248.117	26.310	895.085	713.207
249.132	26.177	895.876	713.245
250.147	26.520	895.541	714.272
251.161	26.400	894.603	712.985
252.176	26.161	894.580	711.961
253.190	26.826	893.607	713.744
254.205	26.387	893.294	711.705
255.220	26.412	891.886	710.618
256.234	26.393	890.654	709.497
257.249	26.389	890.632	709.401
258.263	26.141	889.857	707.750
259.278	26.567	888.335	708.141
260.293	26.660	887.766	707.989
261.307	26.624	887.625	707.674
262.322	26.164	887.850	705.994
263.336	26.024	885.956	703.876
264.351	25.312	884.258	699.692
265.366	25.305	884.470	699.771
266.380	26.137	883.810	702.427
267.395	26.378	884.157	703.579
268.409	26.244	882.676	701.816
269.424	26.328	882.171	701.681
270.439	26.462	881.453	701.566
271.453	25.937	881.577	699.565
272.468	26.301	880.803	700.302
273.482	26.214	880.044	699.298
274.497	26.230	879.195	698.625
275.512	26.010	878.924	697.496
276.526	26.233	878.870	698.253
277.541	26.337	878.525	698.318
278.555	26.439	877.220	697.613
279.570	26.196	877.307	696.684
280.585	26.321	876.335	696.331
281.599	26.294	875.295	695.342
282.614	25.915	873.237	692.189
283.628	25.787	873.628	691.945
284.643	25.996	873.580	692.647
285.657	26.278	872.176	692.555
286.672	25.794	872.219	690.672
287.687	26.113	871.607	691.348
288.701	26.172	870.819	690.890
289.716	25.582	870.768	688.528
290.730	25.745	869.958	688.449
291.745	25.646	869.205	687.414
292.760	25.840	869.114	688.025
293.774	26.288	868.908	689.511
294.789	26.585	868.127	689.962
295.803	26.556	867.205	689.056
296.818	26.676	866.935	689.238
297.833	26.604	865.190	687.517
298.847	26.555	864.322	686.579
299.862	26.517	865.378	687.215
300.876	26.586	864.998	687.115
301.891	26.718	864.314	687.010
302.906	26.205	863.354	684.243
303.920	26.707	862.380	685.310
304.935	26.813	862.896	686.061
305.949	26.616	861.710	684.314
306.964	26.414	860.902	682.847
307.979	26.614	860.037	682.854
308.993	26.413	860.844	682.676
310.008	26.416	860.010	681.966
311.022	26.570	858.738	681.478
312.037	26.449	857.816	680.230
313.052	26.346	856.893	679.052
314.066	25.913	855.387	676.172
315.081	25.612	855.777	675.293
316.095	25.975	856.286	676.997
317.110	26.185	856.133	677.604
318.125	25.698	854.431	674.373
319.139	25.101	853.166	671.080
320.154	24.891	853.796	670.730
321.168	25.680	853.566	673.443
322.183	26.202	852.557	674.539
323.197	26.721	851.633	675.682
324.212	26.455	851.602	674.608
325.227	26.636	850.845	674.622
326.241	26.199	850.031	672.290
327.256	25.958	849.996	671.305
328.270	25.743	849.907	670.377
329.285	25.816	848.655	669.600
330.300	25.478	848.246	667.963
331.314	25.911	847.592	668.997
332.329	26.364	846.938	670.100
333.343	26.543	846.838	670.625
334.358	26.387	846.477	669.702
335.373	26.566	845.967	669.901
336.387	26.338	846.477	669.404
337.402	27.063	845.929	671.593
338.416	26.741	845.801	670.241
339.431	26.958	845.046	670.385
340.446	26.845	845.016	669.884
341.460	26.751	844.583	669.136
342.475	26.881	843.990	669.083
343.489	26.861	844.150	669.078
344.504	27.295	842.994	669.700
345.519	27.019	843.093	668.703
346.533	27.107	842.125	668.199
347.548	27.340	841.000	668.104
348.562	27.249	841.171	667.845
349.577	27.194	840.387	666.966
350.592	26.697	840.085	664.842
351.606	26.850	839.084	664.552
352.621	26.663	838.203	663.110
353.635	26.891	837.363	663.221
354.650	26.222	837.080	660.493
355.665	25.778	836.191	658.111
356.679	26.413	834.994	659.426
357.694	26.364	834.758	659.003
358.708	26.529	833.691	658.703
359.723	26.732	833.328	659.096
360.738	26.955	831.978	658.782
361.752	26.917	832.694	659.151
362.767	26.754	832.169	658.086
363.781	27.139	831.866	659.184
364.796	27.128	831.455	658.758
365.810	26.957	831.634	658.222
366.825	27.104	830.605	657.882
367.840	27.058	829.873	657.081
368.854	26.706	829.912	655.777
369.869	26.795	828.180	654.673
370.883	26.979	827.768	654.953
371.898	27.002	827.403	654.690
372.913	26.942	828.190	655.036
373.927	26.871	827.116	653.876
374.942	27.072	826.161	653.785
375.956	26.711	826.429	652.640
376.971	27.022	826.037	653.390
377.986	27.601	824.855	654.476
379.000	27.529	824.005	653.487
380.015	27.461	823.594	652.859
381.029	27.332	823.837	652.532
382.044	27.134	823.221	651.278
383.059	27.216	822.595	651.017
384.073	26.865	823.123	650.119
385.088	26.964	821.699	649.293
386.102	26.975	820.165	648.064
387.117	26.894	819.483	647.176
388.132	26.744	819.200	646.362
389.146	26.462	818.032	644.376
390.161	26.679	818.835	645.728
391.175	27.251	818.599	647.519
392.190	27.010	816.729	645.127
393.205	26.384	815.490	641.870
394.219	25.189	814.737	636.982
395.234	24.691	814.490	634.964
396.248	26.001	814.509	639.570
397.263	26.690	814.938	642.293
398.278	26.483	814.430	641.105
399.292	26.512	813.622	640.515
400.307	26.211	812.720	638.682
401.321	26.246	812.418	638.514
402.336	26.399	812.508	639.069
403.350	26.656	813.643	640.815
404.365	27.352	812.934	642.657
405.380	27.129	812.220	641.251
406.394	27.452	811.569	641.818
407.409	27.742	810.542	641.969
408.423	27.596	810.585	641.431
409.438	27.872	810.006	641.887
410.453	27.506	809.003	639.752
411.467	27.355	808.833	639.029
412.482	27.247	808.706	638.493
413.496	27.094	808.603	637.817
414.511	27.100	807.789	637.142
415.526	27.302	807.317	637.418
416.540	27.601	806.159	637.494
417.555	27.155	806.574	636.204
418.569	27.358	806.115	636.499
419.584	27.600	805.771	637.014
420.599	27.310	805.528	635.755
421.613	159.644	1371.601	1793.532
422.628	138.706	1454.097	1793.586
