DTS Sentinel unit serial number:	SN413079Multiplexer serial number:	ORYXHardware model number:	OX4-SRSoftware version number:	ORYX F/W v4.00 Oryx Data Collector v3.7.2.0data status	okinstallation	princeton_trtdifferential loss correction	single-endedforward channel	channel 1reverse channel	N/Adate	2019/09/12time	08:40:11forward acquisition time	60.00reverse acquisition time	0.00gamma	496.2192k internal	0.2312k external	0.2312temperature offset calibration	1.0041default loss term (dB/km)	0.3790temperature slope calibration	1.0000multiplexer offset coefficient	1.0000multiplexer slope coefficient	1.0000fibre end	0.00T internal ref (°C)	33.81T ext. ref 1 (°C)	1.71T ext. ref 2 (°C)	30.20length (m)	temperature (°C)	Stokes	anti-Stokes-747.200	-70.270	0.259	0.100
-746.185	-200.000	0.007	-0.212
-745.171	9.272	0.144	-0.111
-744.156	250.062	0.195	0.337
-743.142	-95.354	0.249	0.068
-742.127	-15.142	-0.074	-0.048
-741.112	48.032	0.212	-0.201
-740.098	471.867	-0.159	0.364
-739.083	-124.176	-0.281	-0.045
-738.069	520.381	0.172	-0.410
-737.054	-180.873	0.349	0.007
-736.039	-198.456	-0.266	0.002
-735.025	-61.410	-0.039	-0.016
-734.010	-200.000	-0.010	-0.165
-732.996	-200.000	0.010	0.153
-731.981	46.567	0.098	-0.093
-730.966	465.753	-0.143	-0.326
-729.952	800.000	-0.068	-0.198
-728.937	45.333	0.072	0.067
-727.923	-185.230	0.129	-0.002
-726.908	800.000	0.071	-0.221
-725.894	121.673	-0.212	-0.268
-724.879	-96.152	-0.286	-0.077
-723.864	-54.918	-0.257	0.117
-722.850	-104.468	-0.221	-0.052
-721.835	-12.124	0.352	-0.233
-720.821	-176.452	-0.145	-0.004
-719.806	-116.454	0.077	-0.014
-718.791	94.180	-0.033	-0.038
-717.777	184.062	-0.085	-0.128
-716.762	800.000	0.097	-0.273
-715.748	-57.866	0.231	-0.102
-714.733	-81.497	-0.199	-0.066
-713.718	-200.000	0.044	0.320
-712.704	-2.391	0.155	-0.110
-711.689	198.735	0.039	-0.060
-710.675	-107.943	-0.066	0.014
-709.660	-9.691	0.030	0.020
-708.645	75.737	-0.155	-0.166
-707.631	23.127	-0.058	0.048
-706.616	79.314	0.233	0.253
-705.602	-166.254	-0.359	-0.015
-704.587	-101.574	-0.094	-0.023
-703.572	-90.262	-0.409	0.120
-702.558	51.283	0.036	0.034
-701.543	-200.000	0.086	0.532
-700.529	21.287	-0.378	-0.311
-699.514	-69.297	0.298	-0.116
-698.499	-56.899	-0.151	0.068
-697.485	800.000	0.027	-0.083
-696.470	-115.434	0.125	0.024
-695.456	-98.071	-0.305	-0.080
-694.441	253.619	0.104	0.180
-693.426	82.720	-0.256	0.282
-692.412	-99.151	-0.057	0.015
-691.397	19.950	0.076	0.062
-690.383	27.204	-0.350	-0.298
-689.368	-200.000	-0.013	0.131
-688.354	-200.000	-0.061	-0.361
-687.339	402.170	-0.043	0.092
-686.324	-97.397	-0.160	-0.042
-685.310	800.000	0.157	-0.558
-684.295	135.111	-0.205	-0.270
-683.281	23.359	0.235	0.196
-682.266	18.847	-0.086	-0.070
-681.251	21.297	0.150	0.123
-680.237	800.000	-0.005	-0.019
-679.222	-10.945	-0.332	-0.222
-678.208	-200.000	-0.021	-0.235
-677.193	-200.000	0.030	-0.229
-676.178	-133.039	0.291	-0.037
-675.164	-200.000	-0.008	0.110
-674.149	96.283	0.097	-0.113
-673.135	317.695	-0.131	-0.251
-672.120	-32.361	-0.149	0.084
-671.105	-71.331	-0.531	-0.201
-670.091	-200.000	-0.013	-0.059
-669.076	-65.473	0.033	-0.013
-668.062	337.792	0.054	0.107
-667.047	9.996	0.161	-0.124
-666.032	68.916	0.116	0.121
-665.018	-119.673	-0.336	0.059
-664.003	-200.000	0.046	-0.251
-662.989	800.000	0.040	-0.171
-661.974	-200.000	-0.014	0.092
-660.959	4.472	-0.176	-0.131
-659.945	-183.187	-0.339	-0.006
-658.930	-200.000	0.021	-0.169
-657.916	127.788	-0.302	-0.388
-656.901	78.504	0.129	-0.139
-655.886	0.571	-0.063	0.045
-654.872	-107.969	0.332	-0.073
-653.857	189.846	-0.172	-0.260
-652.843	-140.877	-0.259	-0.027
-651.828	5.961	0.137	0.102
-650.814	-200.000	0.008	0.130
-649.799	57.525	-0.163	0.161
-648.784	800.000	0.063	-0.227
-647.770	-200.000	0.005	-0.264
-646.755	-130.260	0.322	0.044
-645.741	-176.618	0.116	0.003
-644.726	-136.129	-0.296	-0.035
-643.711	-115.762	-0.168	-0.032
-642.697	261.743	-0.134	0.235
-641.682	453.743	-0.024	-0.053
-640.668	800.000	0.158	0.521
-639.653	-40.749	0.233	0.122
-638.638	55.469	-0.145	0.141
-637.624	70.338	-0.335	-0.350
-636.609	593.355	0.034	-0.085
-635.595	-121.391	-0.269	0.045
-634.580	-200.000	-0.006	-0.158
-633.565	-136.302	-0.061	0.007
-632.551	175.056	0.076	0.111
-631.536	-61.057	-0.299	-0.128
-630.522	-200.000	-0.008	-0.226
-629.507	293.311	0.152	-0.280
-628.492	21.271	-0.489	-0.401
-627.478	33.185	0.202	-0.177
-626.463	121.064	-0.160	0.202
-625.449	-200.000	0.005	-0.076
-624.434	266.235	0.128	-0.227
-623.419	800.000	-0.044	-0.127
-622.405	-200.000	-0.006	-0.128
-621.390	88.676	-0.149	0.168
-620.376	184.303	-0.110	-0.164
-619.361	-131.879	-0.123	-0.016
-618.346	57.523	-0.088	-0.087
-617.332	104.402	0.083	-0.098
-616.317	117.511	0.198	0.246
-615.303	-127.107	-0.184	-0.027
-614.288	97.215	0.101	-0.117
-613.273	-98.618	0.273	-0.070
-612.259	-123.175	0.268	0.043
-611.244	-131.330	0.300	-0.040
-610.230	-86.396	-0.191	-0.059
-609.215	627.828	0.021	0.053
-608.201	-200.000	-0.197	-0.000
-607.186	232.778	-0.194	-0.323
-606.171	800.000	-0.013	-0.056
-605.157	82.185	-0.196	0.214
-604.142	56.278	-0.007	-0.007
-603.128	120.234	-0.089	-0.111
-602.113	342.412	0.043	-0.085
-601.098	-18.360	0.155	-0.098
-600.084	-2.336	0.151	-0.107
-599.069	110.161	0.042	0.051
-598.055	138.403	-0.120	-0.158
-597.040	-200.000	0.005	-0.178
-596.025	-200.000	-0.035	0.319
-595.011	172.434	-0.086	0.125
-593.996	-200.000	-0.002	0.378
-592.982	147.779	-0.108	0.146
-591.967	-194.703	0.518	-0.004
-590.952	-75.952	0.323	0.115
-589.938	-122.335	0.257	0.042
-588.923	-200.000	-0.052	-0.241
-587.909	-200.000	-0.032	-0.317
-586.894	16.227	0.277	0.220
-585.879	-200.000	0.006	0.028
-584.865	160.671	0.094	-0.133
-583.850	-200.000	0.043	-0.238
-582.836	-122.432	-0.184	-0.030
-581.821	251.736	0.133	-0.228
-580.806	350.205	0.147	0.293
-579.792	-92.409	-0.168	-0.048
-578.777	-200.000	-0.051	-0.230
-577.763	121.636	-0.084	0.105
-576.748	182.116	-0.056	-0.084
-575.733	-45.753	-0.143	-0.071
-574.719	-116.618	0.084	-0.016
-573.704	-5.014	-0.284	-0.197
-572.690	-5.229	0.211	0.146
-571.675	75.005	0.172	0.183
-570.661	-82.730	0.272	0.089
-569.646	340.960	-0.013	0.025
-568.631	-200.000	-0.034	0.223
-567.617	26.767	-0.097	-0.082
-566.602	76.066	0.186	-0.198
-565.588	-131.762	-0.271	-0.036
-564.573	218.750	0.057	-0.092
-563.558	-143.267	0.351	-0.034
-562.544	-82.025	0.086	-0.028
-561.529	429.771	-0.051	0.110
-560.515	12.390	0.324	0.252
-559.500	800.000	0.026	0.099
-558.485	800.000	0.176	0.576
-557.471	-125.154	-0.271	0.042
-556.456	77.025	-0.127	-0.136
-555.442	516.967	-0.065	-0.153
-554.427	196.983	0.066	-0.101
-553.412	33.388	-0.272	-0.238
-552.398	4.721	-0.362	-0.268
-551.383	20.117	-0.367	-0.298
-550.369	-60.708	-0.044	-0.019
-549.354	782.788	0.117	-0.321
-548.339	-23.027	0.112	-0.068
-547.325	-123.258	-0.065	-0.010
-546.310	-5.669	0.177	-0.122
-545.296	800.000	-0.056	-0.186
-544.281	-100.974	0.150	0.037
-543.266	60.063	-0.188	0.187
-542.252	-200.000	0.018	-0.143
-541.237	-67.555	-0.420	0.166
-540.223	-19.987	0.135	-0.084
-539.208	194.365	0.186	-0.285
-538.193	-86.312	0.105	0.032
-537.179	446.728	-0.072	0.160
-536.164	-56.622	0.163	0.073
-535.150	800.000	-0.068	0.247
-534.135	175.193	0.026	0.039
-533.121	80.716	-0.258	-0.280
-532.106	132.686	-0.039	0.050
-531.091	242.303	-0.144	0.243
-530.077	-200.000	-0.009	0.294
-529.062	-126.163	-0.258	-0.039
-528.048	423.127	-0.125	-0.271
-527.033	-200.000	0.012	0.249
-526.018	-110.798	-0.122	0.025
-525.004	800.000	0.036	0.132
-523.989	121.471	-0.105	0.131
-522.975	28.929	-0.208	-0.177
-521.960	542.657	-0.100	0.241
-520.945	726.183	-0.079	0.211
-519.931	798.752	0.045	0.125
-518.916	406.000	0.110	-0.233
-517.902	-158.764	-0.404	-0.023
-516.887	-200.000	-0.024	-0.239
-515.872	-154.853	-0.374	0.025
-514.858	-200.000	-0.014	0.067
-513.843	-89.664	0.359	-0.106
-512.829	683.495	-0.056	0.147
-511.814	-151.347	0.104	-0.008
-510.799	276.657	0.103	0.185
-509.785	22.948	-0.156	0.129
-508.770	-72.764	-0.229	0.085
-507.756	800.000	0.067	-0.284
-506.741	-200.000	0.080	-0.429
-505.726	-0.414	-0.273	0.195
-504.712	-50.465	0.145	0.069
-503.697	-200.000	0.016	0.123
-502.683	731.545	0.069	-0.186
-501.668	-147.658	-0.365	-0.031
-500.653	61.496	0.096	0.096
-499.639	122.482	-0.059	-0.074
-498.624	-200.000	-0.032	0.272
-497.610	161.672	-0.143	-0.202
-496.595	35.912	-0.097	-0.086
-495.581	272.112	0.111	0.197
-494.566	-200.000	-0.020	0.170
-493.551	542.513	0.073	0.175
-492.537	800.000	0.109	-0.397
-491.522	-200.000	0.014	0.074
-490.508	-200.000	-0.034	-0.319
-489.493	-11.515	-0.211	0.139
-488.478	-200.000	-0.011	0.258
-487.464	-177.264	-0.082	-0.002
-486.449	800.000	0.064	0.181
-485.435	800.000	-0.124	0.401
-484.420	-68.796	0.202	0.078
-483.405	-143.293	-0.168	0.016
-482.391	218.147	-0.256	0.410
-481.376	-98.964	-0.186	0.047
-480.362	7.763	-0.364	0.274
-479.347	-200.000	-0.038	0.226
-478.332	-200.000	-0.013	-0.078
-477.318	-45.497	0.248	-0.123
-476.303	272.418	0.192	-0.340
-475.289	18.127	-0.201	-0.161
-474.274	156.541	0.135	-0.187
-473.259	182.051	-0.189	0.279
-472.245	-119.384	0.158	-0.028
-471.230	-200.000	0.006	-0.148
-470.216	266.573	0.070	0.124
-469.201	7.222	0.226	0.169
-468.186	405.553	0.182	0.386
-467.172	-81.962	-0.080	-0.026
-466.157	165.178	-0.070	-0.099
-465.143	-98.151	-0.217	0.056
-464.128	-107.195	0.134	0.030
-463.113	-200.000	-0.035	-0.380
-462.099	105.927	0.055	-0.066
-461.084	-200.000	0.020	-0.121
-460.070	-2.769	-0.191	-0.134
-459.055	-200.000	-0.005	-0.105
-458.040	-167.156	0.296	0.012
-457.026	-200.000	0.020	0.111
-456.011	-193.120	-0.060	-0.001
-454.997	-200.000	-0.026	-0.134
-453.982	358.485	0.060	-0.120
-452.968	-200.000	-0.009	0.415
-451.953	-91.422	0.261	-0.075
-450.938	-173.780	-0.215	0.006
-449.924	-200.000	0.030	-0.140
-448.909	104.666	-0.074	0.087
-447.895	168.637	0.204	0.292
-446.880	588.574	0.095	0.235
-445.865	17.437	-0.177	-0.141
-444.851	56.537	0.309	-0.302
-443.836	74.918	-0.144	0.153
-442.822	-200.000	0.053	0.459
-441.807	-12.860	-0.047	0.031
-440.792	83.108	-0.080	-0.087
-439.778	60.572	-0.183	0.182
-438.763	384.120	0.052	-0.107
-437.749	-148.460	-0.207	0.017
-436.734	129.934	-0.183	-0.235
-435.719	800.000	-0.088	0.256
-434.705	59.555	0.147	0.145
-433.690	-26.041	-0.196	0.116
-432.676	129.872	0.150	-0.193
-431.661	-32.280	-0.186	-0.104
-430.646	294.775	0.064	0.117
-429.632	800.000	-0.053	0.168
-428.617	-200.000	0.030	0.234
-427.603	270.895	-0.065	0.114
-426.588	-37.111	0.079	-0.042
-425.573	800.000	0.024	-0.072
-424.559	-15.358	0.148	-0.095
-423.544	172.317	0.113	0.162
-422.530	128.207	-0.095	-0.122
-421.515	-118.020	-0.269	0.048
-420.500	270.569	0.091	-0.161
-419.486	-85.962	0.199	0.062
-418.471	800.000	0.004	0.014
-417.457	407.607	0.189	0.401
-416.442	-28.800	0.280	-0.161
-415.428	-101.427	-0.113	0.028
-414.413	490.804	0.118	0.270
-413.398	169.894	-0.101	0.144
-412.384	-136.531	0.478	0.056
-411.369	186.867	0.136	0.203
-410.355	-51.995	-0.056	0.026
-409.340	-15.722	0.338	-0.216
-408.325	-168.393	-0.225	0.009
-407.311	282.481	-0.104	-0.187
-406.296	253.951	-0.140	0.240
-405.282	16.334	-0.117	-0.093
-404.267	-37.278	0.149	0.080
-403.252	-106.810	0.097	-0.022
-402.238	205.160	-0.041	0.063
-401.223	558.372	0.044	0.106
-400.209	-98.921	0.422	0.107
-399.194	-105.443	-0.215	0.049
-398.179	33.184	0.046	-0.040
-397.165	-200.000	-0.020	0.210
-396.150	146.430	-0.057	0.077
-395.136	-200.000	0.017	-0.075
-394.121	-200.000	-0.011	0.139
-393.106	298.556	-0.129	-0.238
-392.092	-149.630	-0.427	0.034
-391.077	591.842	0.063	0.157
-390.063	-149.028	0.396	-0.032
-389.048	79.662	0.086	-0.092
-388.033	800.000	-0.030	0.125
-387.019	153.193	-0.098	0.134
-386.004	-200.000	-0.016	-0.147
-384.990	25.119	0.094	0.078
-383.975	-50.561	-0.039	0.019
-382.960	-200.000	0.011	0.083
-381.946	-76.370	-0.052	-0.018
-380.931	-0.833	0.215	-0.152
-379.917	-89.917	-0.260	-0.076
-378.902	9.029	0.070	0.053
-377.888	-127.986	-0.064	0.009
-376.873	121.070	-0.316	0.394
-375.858	104.334	0.163	0.192
-374.844	48.102	0.248	0.232
-373.829	-71.928	0.150	-0.056
-372.815	-81.313	0.224	-0.074
-371.800	211.252	0.136	0.213
-370.785	-200.000	0.016	0.307
-369.771	166.700	0.028	-0.040
-368.756	148.784	-0.099	0.134
-367.742	-66.090	-0.200	-0.080
-366.727	-22.319	0.058	-0.035
-365.712	115.914	0.032	0.039
-364.698	-200.000	-0.038	-0.224
-363.683	-26.026	-0.224	-0.132
-362.669	328.158	-0.064	0.123
-361.654	-43.220	0.326	0.165
-360.639	-16.551	0.326	-0.206
-359.625	76.125	-0.077	-0.082
-358.610	-133.221	0.251	0.032
-357.596	190.823	-0.094	0.141
-356.581	-96.526	0.215	-0.057
-355.566	80.444	-0.103	-0.111
-354.552	49.492	-0.181	0.170
-353.537	48.131	-0.128	0.119
-352.523	64.328	0.254	-0.256
-351.508	-45.962	-0.211	-0.104
-350.493	96.737	0.128	0.147
-349.479	612.135	-0.012	0.031
-348.464	251.668	0.072	0.122
-347.450	249.430	-0.127	0.215
-346.435	504.370	-0.062	-0.143
-345.420	-136.482	-0.277	-0.032
-344.406	-200.000	-0.014	0.196
-343.391	41.634	-0.105	0.095
-342.377	800.000	-0.119	-0.405
-341.362	800.000	-0.115	-0.334
-340.348	-200.000	0.008	0.271
-339.333	119.906	0.108	0.133
-338.318	-45.675	-0.297	0.147
-337.304	-39.131	-0.298	0.157
-336.289	-149.215	-0.287	-0.023
-335.275	94.672	-0.131	-0.148
-334.260	-147.561	0.343	-0.029
-333.245	-84.093	-0.109	0.034
-332.231	-87.484	-0.071	-0.021
-331.216	800.000	0.041	0.171
-330.202	-200.000	-0.026	-0.142
-329.187	-114.347	-0.342	-0.066
-328.172	-113.101	0.195	0.038
-327.158	420.813	-0.112	0.239
-326.143	232.024	0.018	-0.030
-325.129	-19.441	-0.164	0.102
-324.114	557.212	0.117	-0.281
-323.099	408.203	-0.066	-0.140
-322.085	-112.042	-0.272	0.055
-321.070	-200.000	0.018	0.174
-320.056	800.000	0.018	0.052
-319.041	136.309	0.262	-0.341
-318.026	-103.469	0.308	0.072
-317.012	6.745	0.212	0.157
-315.997	800.000	0.007	0.025
-314.983	144.134	-0.048	-0.063
-313.968	800.000	-0.029	-0.114
-312.953	800.000	0.101	-0.333
-311.939	-60.911	-0.120	-0.051
-310.924	-98.248	-0.075	0.019
-309.910	-180.615	-0.256	0.005
-308.895	-200.000	-0.021	-0.113
-307.880	-125.640	-0.154	0.023
-306.866	145.586	-0.137	0.184
-305.851	-149.799	0.063	0.005
-304.837	353.001	-0.132	0.260
-303.822	-71.452	0.353	-0.132
-302.807	-108.455	0.170	0.037
-301.793	-200.000	0.055	0.266
-300.778	54.983	-0.203	0.196
-299.764	358.024	0.038	-0.076
-298.749	-121.721	0.444	0.073
-297.735	-61.934	-0.171	-0.071
-296.720	800.000	-0.028	0.121
-295.705	-5.760	0.175	-0.119
-294.691	22.112	-0.185	0.151
-293.676	-76.165	-0.174	-0.061
-292.662	-18.736	0.094	-0.058
-291.647	-75.522	-0.239	0.085
-290.632	-38.150	-0.278	-0.147
-289.618	142.320	-0.099	-0.131
-288.603	-200.000	-0.029	0.236
-287.589	800.000	-0.021	0.081
-286.574	-83.760	-0.204	-0.065
-285.559	45.550	-0.252	0.232
-284.545	303.738	0.150	0.277
-283.530	-29.914	-0.276	-0.157
-282.516	800.000	0.139	-0.535
-281.501	-179.836	0.295	-0.006
-280.486	-75.354	-0.406	-0.144
-279.472	-13.171	0.431	-0.279
-278.457	-6.189	0.111	-0.075
-277.443	22.631	-0.306	0.250
-276.428	-78.728	0.227	0.077
-275.413	-23.492	0.242	-0.145
-274.399	800.000	0.013	0.048
-273.384	33.828	-0.216	0.187
-272.370	-200.000	0.184	-0.001
-271.355	302.025	0.029	-0.054
-270.340	-107.553	0.069	-0.015
-269.326	95.864	-0.223	0.254
-268.311	1.140	-0.301	-0.215
-267.297	-200.000	-0.003	0.074
-266.282	-200.000	-0.013	-0.086
-265.267	800.000	0.091	-0.259
-264.253	297.888	-0.135	0.248
-263.238	-76.381	0.267	0.094
-262.224	800.000	0.045	0.190
-261.209	2.729	0.190	0.137
-260.195	-33.132	0.051	0.028
-259.180	-200.000	-0.027	0.186
-258.165	800.000	-0.029	-0.110
-257.151	36.291	-0.064	-0.056
-256.136	-37.124	0.106	-0.056
-255.122	800.000	-0.023	0.065
-254.107	-15.507	-0.439	-0.279
-253.092	770.388	0.114	-0.309
-252.078	89.815	-0.048	-0.054
-251.063	-66.001	0.069	-0.027
-250.049	198.380	0.222	-0.338
-249.034	442.925	-0.131	0.285
-248.019	-171.523	0.500	0.017
-247.005	-9.752	0.327	-0.216
-245.990	49.335	-0.082	0.077
-244.976	-166.376	-0.066	-0.003
-243.961	24.736	0.030	0.025
-242.946	-18.918	-0.179	0.111
-241.932	-123.101	-0.141	0.023
-240.917	240.972	-0.038	0.064
-239.903	287.596	0.113	-0.204
-238.888	14.818	0.201	-0.157
-237.873	-72.191	0.198	-0.073
-236.859	-200.000	0.001	-0.204
-235.844	7.562	0.170	-0.127
-234.830	800.000	-0.019	-0.057
-233.815	-200.000	0.004	-0.025
-232.800	-200.000	0.019	-0.309
-231.786	-119.672	0.256	-0.044
-230.771	306.914	-0.011	0.020
-229.757	249.968	0.143	0.241
-228.742	-56.236	0.217	-0.096
-227.727	89.461	-0.142	-0.157
-226.713	-163.119	0.209	0.010
-225.698	-200.000	-0.005	-0.156
-224.684	168.129	0.135	0.191
-223.669	14.012	-0.283	-0.219
-222.655	-126.367	0.221	0.033
-221.640	8.661	-0.335	0.251
-220.625	-200.000	0.053	-0.332
-219.611	159.576	0.107	0.149
-218.596	34.310	-0.065	-0.056
-217.582	8.814	-0.050	-0.038
-216.567	-34.093	-0.440	-0.240
-215.552	132.726	0.098	-0.126
-214.538	355.149	0.082	0.162
-213.523	288.376	-0.078	0.141
-212.509	25.905	0.150	0.124
-211.494	-119.845	0.322	-0.055
-210.479	90.879	0.052	-0.058
-209.465	268.279	0.081	-0.141
-208.450	-117.695	-0.410	-0.073
-207.436	-6.319	0.160	0.108
-206.421	800.000	0.010	-0.034
-205.406	143.866	0.153	-0.203
-204.392	505.266	-0.160	-0.369
-203.377	-200.000	-0.048	0.321
-202.363	-151.631	0.159	0.012
-201.348	-39.614	0.152	-0.079
-200.333	165.724	0.049	-0.070
-199.319	20.363	0.124	0.100
-198.304	-59.344	-0.256	-0.109
-197.290	-200.000	-0.028	0.147
-196.275	-200.000	-0.059	0.363
-195.260	31.420	0.084	-0.071
-194.246	-186.881	0.401	0.006
-193.231	23.664	0.043	-0.035
-192.217	-148.741	0.109	0.009
-191.202	226.165	0.090	-0.144
-190.187	523.471	-0.097	0.225
-189.173	-200.000	0.008	0.088
-188.158	-43.708	-0.210	0.105
-187.144	-120.520	-0.189	0.032
-186.129	162.824	-0.116	-0.162
-185.114	166.314	-0.126	-0.178
-184.100	19.815	-0.100	-0.080
-183.085	434.786	0.085	-0.184
-182.071	673.302	0.039	-0.101
-181.056	-107.471	0.200	0.044
-180.042	-200.000	-0.023	0.246
-179.027	-62.857	0.205	-0.084
-178.012	0.878	0.144	-0.103
-176.998	-200.000	0.036	-0.261
-175.983	-130.843	0.337	-0.045
-174.969	-96.360	0.207	0.054
-173.954	-118.652	0.136	0.024
-172.939	58.302	-0.082	-0.079
-171.925	125.952	0.242	-0.304
-170.910	11.355	0.243	0.184
-169.896	-200.000	0.049	0.219
-168.881	12.206	-0.150	-0.115
-167.866	203.762	-0.102	-0.157
-166.852	88.505	0.073	-0.080
-165.837	-200.000	0.019	-0.243
-164.823	270.594	0.130	-0.227
-163.808	351.742	0.087	0.170
-162.793	-57.915	-0.230	-0.100
-161.779	-22.068	0.047	-0.028
-160.764	-109.489	0.431	-0.090
-159.750	800.000	-0.039	-0.138
-158.735	177.822	-0.119	0.172
-157.720	577.338	0.147	0.356
-156.706	-58.342	-0.280	-0.121
-155.691	-136.073	0.150	0.017
-154.677	-171.886	0.113	-0.004
-153.662	-139.770	-0.108	0.011
-152.647	466.784	-0.070	0.155
-151.633	-79.110	0.195	0.066
-150.618	-125.992	0.107	-0.016
-149.604	-164.214	0.379	-0.017
-148.589	-31.958	-0.308	0.171
-147.574	13.691	0.130	0.101
-146.560	800.000	0.095	0.267
-145.545	223.207	-0.060	-0.096
-144.531	342.692	0.049	0.095
-143.516	585.139	0.047	0.115
-142.502	800.000	0.035	0.144
-141.487	9.269	0.329	0.246
-140.472	302.865	-0.182	0.333
-139.458	-136.489	-0.277	0.032
-138.443	800.000	0.080	-0.339
-137.429	-37.941	-0.313	0.165
-136.414	-200.000	0.004	0.021
-135.399	39.590	-0.206	0.183
-134.385	-59.966	0.072	-0.030
-133.370	-73.206	0.191	0.069
-132.356	-90.659	0.194	0.056
-131.341	665.855	0.042	-0.108
-130.326	69.351	-0.097	0.099
-129.312	144.378	0.144	-0.190
-128.297	-200.000	-0.017	-0.252
-127.283	-21.325	-0.062	-0.037
-126.268	-41.862	-0.132	0.067
-125.253	74.252	0.305	-0.318
-124.239	-200.000	-0.027	-0.129
-123.224	800.000	-0.022	-0.077
-122.210	-132.873	-0.155	-0.020
-121.195	-48.151	-0.235	0.112
-120.180	-73.474	-0.065	0.024
-119.166	-140.531	0.275	-0.028
-118.151	-45.619	-0.052	0.026
-117.137	-75.082	0.128	-0.045
-116.122	26.664	0.109	0.090
-115.107	121.271	0.137	0.170
-114.093	-112.347	0.002	0.000
-113.078	271.023	-0.044	-0.076
-112.064	800.000	-0.076	0.214
-111.049	-2.960	0.305	-0.211
-110.034	21.020	-0.077	-0.062
-109.020	413.829	0.194	0.409
-108.005	-27.409	0.354	-0.204
-106.991	-24.698	-0.210	0.124
-105.976	-200.000	-0.038	0.320
-104.962	-200.000	-0.036	-0.180
-103.947	-200.000	-0.006	-0.137
-102.932	641.189	0.118	0.298
-101.918	-142.409	0.135	-0.013
-100.903	-102.528	-0.028	0.007
-99.889	-68.182	-0.308	-0.119
-98.874	-11.960	0.209	-0.135
-97.859	-42.834	-0.052	-0.026
-96.845	466.946	0.020	-0.045
-95.830	800.000	-0.088	-0.318
-94.816	-57.538	0.297	0.129
-93.801	67.895	-0.060	0.060
-92.786	221.185	0.080	-0.127
-91.772	-200.000	0.014	-0.222
-90.757	-200.000	0.048	-0.288
-89.743	800.000	0.162	-0.443
-88.728	74.421	0.112	0.116
-87.713	11.025	0.175	-0.132
-86.699	-33.656	0.507	0.277
-85.684	0.798	-0.379	0.268
-84.670	-66.658	-0.227	-0.089
-83.655	-99.432	0.371	-0.092
-82.640	137.890	0.043	0.056
-81.626	-200.000	-0.056	0.261
-80.611	26.203	-0.274	0.226
-79.597	138.105	0.229	0.297
-78.582	60.508	0.086	0.084
-77.567	43.442	0.214	0.194
-76.553	-200.000	-0.023	-0.236
-75.538	800.000	0.041	0.121
-74.524	-200.000	-0.020	-0.246
-73.509	59.450	0.253	-0.247
-72.494	800.000	-0.055	0.174
-71.480	-103.372	0.177	0.041
-70.465	127.167	-0.122	0.153
-69.451	-200.000	-0.087	0.391
-68.436	-200.000	0.027	-0.414
-67.422	-200.000	0.002	-0.290
-66.407	58.842	0.363	-0.352
-65.392	62.102	-0.111	-0.109
-64.378	-39.144	0.176	0.092
-63.363	-200.000	0.005	0.162
-62.349	342.600	-0.093	-0.180
-61.334	-53.802	-1.474	-0.665
-60.319	209.689	0.305	0.473
-59.305	-200.000	-0.065	-0.728
-58.290	185.413	0.564	0.827
-57.276	51.073	0.871	0.816
-56.261	-200.000	99.326	589.712
-55.246	531.094	1415.621	3306.204
-54.232	148.592	2620.661	3497.424
-53.217	112.684	2177.849	2604.902
-52.203	45.518	1625.615	1482.655
-51.188	37.305	1360.625	1190.839
-50.173	34.029	1317.738	1133.762
-49.159	57.080	1367.940	1317.394
-48.144	60.748	1385.243	1356.206
-47.130	37.686	1339.276	1174.262
-46.115	33.982	1321.667	1136.682
-45.100	33.761	1316.915	1131.237
-44.086	33.686	1314.708	1128.846
-43.071	33.666	1312.149	1126.489
-42.057	33.623	1309.949	1124.301
-41.042	33.662	1308.287	1123.057
-40.027	33.712	1307.063	1122.257
-39.013	33.785	1304.915	1120.801
-37.998	33.787	1302.938	1119.070
-36.984	33.844	1301.590	1118.204
-35.969	33.943	1299.308	1116.783
-34.954	33.829	1298.021	1114.959
-33.940	33.882	1296.425	1113.858
-32.925	33.841	1295.666	1112.918
-31.911	33.950	1293.868	1111.969
-30.896	33.868	1292.281	1110.085
-29.881	33.920	1291.052	1109.284
-28.867	33.973	1289.464	1108.187
-27.852	33.903	1288.488	1106.899
-26.838	33.950	1286.558	1105.466
-25.823	33.908	1285.397	1104.184
-24.809	33.821	1284.251	1102.649
-23.794	33.927	1282.682	1101.872
-22.779	33.778	1281.423	1099.883
-21.765	33.874	1279.927	1099.112
-20.750	33.883	1278.704	1098.069
-19.736	33.784	1277.851	1096.723
-18.721	33.724	1276.574	1095.236
-17.706	33.795	1275.093	1094.329
-16.692	33.881	1274.324	1094.123
-15.677	33.817	1272.729	1092.342
-14.663	33.796	1272.189	1091.713
-13.648	33.698	1271.222	1090.279
-12.633	33.737	1270.465	1089.812
-11.619	33.776	1269.237	1088.935
-10.604	33.722	1268.323	1087.800
-9.590	33.697	1267.505	1086.914
-8.575	33.730	1266.322	1086.044
-7.560	33.702	1265.550	1085.176
-6.546	33.655	1264.813	1084.236
-5.531	33.667	1264.219	1083.749
-4.517	33.658	1263.131	1082.726
-3.502	33.679	1262.275	1082.070
-2.487	33.681	1261.126	1081.051
-1.473	33.719	1257.113	1077.786
-0.458	32.522	1242.271	1058.295
0.556	29.173	1224.131	1021.567
1.571	25.586	1229.625	1006.037
2.586	24.778	1245.410	1014.282
3.600	23.888	1234.306	1000.145
4.615	17.056	1159.194	902.981
5.629	6.582	1080.705	789.560
6.644	2.072	1059.443	751.785
7.659	1.772	1057.151	748.617
8.673	1.543	1055.511	746.267
9.688	1.435	1054.599	745.026
10.702	1.723	1053.228	745.402
11.717	8.123	1062.139	783.160
12.731	18.507	1077.189	845.669
13.746	23.966	1084.122	878.064
14.761	24.860	1085.087	883.179
15.775	24.967	1084.396	883.065
16.790	24.699	1083.829	881.205
17.804	24.781	1082.890	880.766
18.819	24.747	1083.029	880.634
19.834	24.970	1082.098	880.896
20.848	25.077	1081.615	880.952
21.863	25.006	1081.272	880.246
22.877	24.995	1080.383	879.389
23.892	24.861	1079.996	878.340
24.907	24.982	1079.099	878.124
25.921	24.841	1078.324	876.726
26.936	24.872	1077.028	875.746
27.950	24.924	1074.951	874.237
28.965	24.732	1073.574	872.104
29.980	24.886	1071.348	870.968
30.994	25.171	1070.904	871.915
32.009	25.118	1069.900	870.762
33.023	24.707	1069.063	868.006
34.038	24.877	1068.083	867.961
35.053	24.939	1067.748	867.913
36.067	25.002	1066.718	867.303
37.082	25.033	1066.319	867.054
38.096	25.231	1065.497	867.263
39.111	25.297	1064.418	866.627
40.126	25.167	1063.124	864.871
41.140	24.624	1061.664	860.989
42.155	24.526	1060.038	859.124
43.169	24.661	1059.086	858.926
44.184	24.714	1058.178	858.370
45.199	24.594	1057.374	857.063
46.213	24.608	1056.579	856.411
47.228	24.868	1055.565	856.758
48.242	24.788	1054.945	855.797
49.257	24.944	1054.448	856.064
50.271	25.049	1053.715	855.895
51.286	25.150	1052.618	855.408
52.301	25.167	1051.508	854.514
53.315	24.884	1051.227	852.861
54.330	24.969	1049.895	852.107
55.344	24.910	1049.484	851.419
56.359	24.979	1048.457	850.840
57.374	24.741	1047.216	848.626
58.388	24.751	1046.753	848.225
59.403	24.698	1045.574	846.944
60.417	24.605	1044.641	845.672
61.432	24.648	1044.073	845.339
62.447	24.719	1043.902	845.460
63.461	24.813	1042.739	844.888
64.476	24.674	1042.152	843.682
65.490	24.642	1040.904	842.448
66.505	24.616	1040.633	842.029
67.520	24.700	1039.472	841.412
68.534	24.437	1038.530	839.338
69.549	24.256	1037.506	837.588
70.563	24.270	1036.212	836.533
71.578	24.320	1035.625	836.219
72.593	23.996	1034.669	833.859
73.607	24.201	1034.532	834.634
74.622	24.386	1034.393	835.311
75.636	24.554	1033.073	834.957
76.651	24.428	1032.185	833.580
77.666	24.284	1031.693	832.435
78.680	24.382	1031.038	832.289
79.695	24.450	1030.531	832.122
80.709	24.544	1030.100	832.140
81.724	24.493	1028.964	830.913
82.739	24.665	1027.938	830.810
83.753	24.994	1027.733	832.101
84.768	25.260	1026.869	832.559
85.782	25.275	1025.906	831.776
86.797	25.155	1024.867	830.303
87.812	25.088	1023.755	829.020
88.826	25.168	1023.348	828.987
89.841	25.205	1022.755	828.602
90.855	25.308	1021.218	827.760
91.870	25.226	1020.436	826.673
92.884	25.032	1019.629	825.052
93.899	25.094	1018.172	824.089
94.914	25.249	1017.286	824.012
95.928	25.208	1016.483	823.098
96.943	24.914	1015.176	820.619
97.957	24.588	1014.109	818.193
98.972	24.468	1012.497	816.270
99.987	24.826	1011.999	817.433
101.001	24.923	1011.579	817.463
102.016	24.937	1010.642	816.698
103.030	24.782	1009.622	815.097
104.045	24.642	1008.519	813.495
105.060	24.566	1007.079	811.916
106.074	24.811	1006.874	812.792
107.089	25.114	1006.157	813.515
108.103	24.915	1005.422	811.950
109.118	24.725	1004.145	809.983
110.133	24.696	1002.837	808.727
111.147	24.477	1002.075	807.050
112.162	24.474	1000.962	806.067
113.176	24.783	1000.645	807.137
114.191	24.538	999.643	805.155
115.206	24.349	998.502	803.314
116.220	24.293	997.524	802.203
117.235	24.425	996.876	802.204
118.249	24.456	995.905	801.490
119.264	24.447	995.052	800.694
120.279	24.124	994.844	799.006
121.293	24.468	994.017	799.811
122.308	24.412	993.028	798.694
123.322	24.325	991.562	797.056
124.337	24.249	990.465	795.765
125.352	23.659	989.070	791.941
126.366	23.697	988.226	791.364
127.381	24.466	988.076	794.599
128.395	24.674	988.034	795.422
129.410	24.988	986.471	795.490
130.424	24.922	985.573	794.403
131.439	24.883	984.669	793.429
132.454	24.925	983.695	792.762
133.468	24.863	982.547	791.490
134.483	24.989	982.293	791.774
135.497	25.129	981.667	791.818
136.512	25.110	980.854	791.007
137.527	25.177	979.662	790.270
138.541	25.156	979.524	789.995
139.556	25.125	978.484	788.951
140.570	25.235	977.431	788.518
141.585	25.243	976.665	787.865
142.600	25.233	975.030	786.431
143.614	25.445	974.851	787.148
144.629	25.559	974.097	786.969
145.643	25.384	972.819	785.101
146.658	25.173	971.353	782.929
147.673	25.109	970.263	781.698
148.687	25.019	969.529	780.649
149.702	25.042	968.067	779.499
150.716	24.951	967.546	778.616
151.731	25.105	967.004	778.782
152.746	25.283	966.501	779.081
153.760	25.333	966.011	778.831
154.775	25.494	965.423	778.988
155.789	25.218	964.591	777.053
156.804	25.322	963.734	776.743
157.819	25.333	962.639	775.839
158.833	25.502	961.974	775.965
159.848	25.376	961.394	774.885
160.862	25.432	959.442	773.483
161.877	25.236	958.853	772.095
162.892	25.365	958.088	771.968
163.906	25.360	956.514	770.609
164.921	25.353	955.633	769.800
165.935	25.375	954.961	769.285
166.950	25.344	954.663	768.845
167.964	25.268	953.405	767.438
168.979	25.171	952.464	766.200
169.994	25.058	951.488	764.863
171.008	25.442	951.142	766.154
172.023	25.322	950.651	765.181
173.037	25.206	949.461	763.660
174.052	25.120	947.825	761.911
175.067	25.144	947.535	761.715
176.081	25.274	946.928	761.710
177.096	25.148	946.368	760.659
178.110	24.772	945.576	758.361
179.125	24.575	944.990	756.990
180.140	24.747	944.491	757.252
181.154	24.845	944.212	757.375
182.169	25.079	944.330	758.393
183.183	25.462	943.356	759.163
184.198	25.177	942.510	757.212
185.213	25.244	941.897	756.932
186.227	25.268	941.436	756.596
187.242	25.235	941.108	756.129
188.256	25.306	940.313	755.721
189.271	25.484	938.804	755.189
190.286	25.036	938.139	752.707
191.300	24.523	936.430	749.116
192.315	23.634	934.917	744.116
193.329	23.532	935.181	743.835
194.344	24.453	935.522	747.900
195.359	25.185	934.876	750.379
196.373	25.258	934.454	750.281
197.388	25.198	933.459	749.166
198.402	25.117	933.441	748.746
199.417	25.270	932.484	748.549
200.432	24.954	931.570	746.432
201.446	24.812	930.943	745.275
202.461	24.984	929.981	745.152
203.475	24.058	928.465	740.024
204.490	23.282	927.222	735.743
205.504	24.152	927.582	739.579
206.519	24.739	927.639	741.995
207.534	24.879	927.091	742.074
208.548	25.205	927.293	743.518
209.563	24.939	926.019	741.331
210.577	24.936	925.476	740.819
211.592	25.384	925.033	742.251
212.607	25.430	924.136	741.656
213.621	25.520	923.591	741.523
214.636	25.327	923.119	740.284
215.650	25.487	922.114	740.072
216.665	25.391	921.677	739.258
217.680	25.476	920.516	738.611
218.694	25.020	919.627	735.961
219.709	24.877	918.878	734.712
220.723	25.035	919.213	735.561
221.738	25.152	918.063	735.054
222.753	25.222	917.215	734.600
223.767	25.307	917.265	734.920
224.782	25.500	916.869	735.330
225.796	25.372	916.570	734.500
226.811	24.803	914.740	730.646
227.826	24.088	913.548	726.711
228.840	24.430	912.957	727.570
229.855	24.492	911.846	726.875
230.869	24.122	911.190	724.780
231.884	24.430	911.484	726.204
232.899	25.287	911.026	729.259
233.913	25.110	910.729	728.239
234.928	25.053	910.208	727.525
235.942	25.083	909.452	726.977
236.957	24.712	908.577	724.714
237.972	24.620	908.077	723.878
238.986	24.949	907.330	724.547
240.001	24.863	906.902	723.794
241.015	25.098	906.191	724.113
242.030	25.182	905.875	724.137
243.045	25.290	905.436	724.157
244.059	25.313	905.118	723.929
245.074	25.249	903.908	722.640
246.088	24.857	903.194	720.428
247.103	25.084	902.801	720.965
248.117	25.613	902.894	723.102
249.132	26.062	902.411	724.452
250.147	25.855	902.088	723.302
251.161	26.131	901.557	723.915
252.176	26.174	900.515	723.189
253.190	26.184	900.081	722.814
254.205	26.264	899.977	722.990
255.220	26.204	899.379	722.206
256.234	26.072	898.579	720.969
257.249	26.034	897.750	720.091
258.263	26.040	896.678	719.190
259.278	26.092	896.647	719.308
260.293	26.230	896.039	719.307
261.307	26.138	894.990	718.036
262.322	25.958	893.925	716.402
263.336	25.132	892.559	711.965
264.351	24.029	890.833	706.153
265.366	24.281	890.292	706.661
266.380	25.393	891.007	711.575
267.395	25.671	890.731	712.391
268.409	25.661	890.146	711.820
269.424	26.031	889.326	712.563
270.439	25.842	889.126	711.595
271.453	25.883	888.564	711.242
272.468	26.246	887.981	712.146
273.482	26.202	887.657	711.650
274.497	25.734	886.467	708.788
275.512	25.304	885.761	706.472
276.526	25.866	885.782	708.635
277.541	25.858	885.380	708.220
278.555	25.827	884.082	706.998
279.570	25.528	883.531	705.322
280.585	25.736	883.339	705.922
281.599	25.636	882.168	704.530
282.614	25.164	880.760	701.500
283.628	25.172	880.227	701.044
284.643	25.448	880.215	702.050
285.657	25.117	879.120	699.822
286.672	24.878	878.260	698.146
287.687	25.555	878.311	700.764
288.701	25.438	877.808	699.845
289.716	25.187	876.891	698.075
290.730	25.178	875.805	697.112
291.745	24.844	875.125	695.213
292.760	25.128	875.260	696.363
293.774	26.271	875.848	701.205
294.789	26.509	875.326	701.648
295.803	26.463	874.781	700.970
296.818	26.448	874.341	700.501
297.833	26.043	872.954	697.760
298.847	25.905	872.309	696.650
299.862	26.046	872.356	697.170
300.876	26.551	871.899	698.694
301.891	26.376	870.878	697.137
302.906	25.924	870.149	694.750
303.920	26.144	869.782	695.246
304.935	26.360	869.713	695.958
305.949	26.370	868.783	695.191
306.964	26.048	867.840	693.138
307.979	26.339	867.388	693.833
308.993	26.511	867.517	694.537
310.008	26.554	866.629	693.930
311.022	26.340	866.026	692.565
312.037	26.081	865.247	690.888
313.052	25.997	864.005	689.516
314.066	24.984	862.322	684.244
315.081	24.656	861.966	682.647
316.095	25.563	862.495	686.470
317.110	25.983	862.182	687.762
318.125	25.244	860.754	683.750
319.139	24.172	859.221	678.390
320.154	24.069	858.873	677.662
321.168	25.028	859.459	681.717
322.183	25.755	859.494	684.447
323.197	26.071	858.641	684.908
324.212	26.210	858.777	685.485
325.227	26.198	857.954	684.722
326.241	25.962	857.472	683.383
327.256	25.926	856.993	682.803
328.270	25.913	856.011	681.910
329.285	25.669	854.950	680.083
330.300	25.419	854.508	678.728
331.314	25.746	854.152	679.619
332.329	26.206	854.043	681.210
333.343	26.330	853.681	681.328
334.358	26.247	853.591	680.881
335.373	26.342	852.745	680.504
336.387	26.635	853.190	681.901
337.402	26.736	853.073	682.128
338.416	26.687	852.429	681.370
339.431	26.877	851.771	681.495
340.446	26.946	851.619	681.575
341.460	26.751	851.234	680.473
342.475	26.637	850.588	679.470
343.489	26.801	850.363	679.845
344.504	26.979	850.163	680.290
345.519	27.073	849.951	680.414
346.533	26.914	849.334	679.263
347.548	27.148	848.643	679.528
348.562	27.187	847.884	679.005
349.577	27.057	847.530	678.174
350.592	26.948	846.930	677.227
351.606	26.990	845.964	676.553
352.621	26.981	845.083	675.755
353.635	26.714	844.306	674.081
354.650	26.181	842.720	670.774
355.665	25.120	841.423	665.745
356.679	25.767	840.652	667.477
357.694	26.080	840.861	668.743
358.708	25.925	840.458	667.789
359.723	26.437	840.261	669.471
360.738	26.734	839.634	670.009
361.752	26.754	839.252	669.719
362.767	27.228	839.015	671.221
363.781	27.450	838.855	671.851
364.796	27.437	838.393	671.373
365.810	27.483	838.190	671.324
366.825	27.463	837.383	670.544
367.840	27.262	836.495	669.033
368.854	26.815	835.859	666.823
369.869	26.863	835.301	666.496
370.883	26.649	835.084	665.476
371.898	26.741	834.469	665.265
372.913	27.018	834.073	665.905
373.927	26.883	833.861	665.183
374.942	27.212	833.172	665.780
375.956	27.213	833.197	665.744
376.971	27.243	832.693	665.393
377.986	27.456	832.122	665.655
379.000	27.456	831.696	665.257
380.015	27.275	831.300	664.221
381.029	27.396	830.208	663.729
382.044	27.517	829.833	663.813
383.059	27.521	829.503	663.505
384.073	27.331	828.958	662.318
385.088	27.247	828.586	661.658
386.102	27.157	827.609	660.490
387.117	27.199	826.582	659.766
388.132	26.903	825.410	657.699
389.146	26.406	824.489	655.109
390.161	26.645	824.990	656.314
391.175	27.020	824.848	657.501
392.190	26.783	823.551	655.551
393.205	25.361	821.274	648.551
394.219	23.919	819.524	641.908
395.234	23.850	819.319	641.442
396.248	25.518	820.403	648.255
397.263	26.987	821.504	654.367
398.278	26.982	821.028	653.913
399.292	26.660	820.476	652.257
400.307	26.644	820.281	651.985
401.321	26.838	819.888	652.311
402.336	27.246	819.662	653.542
403.350	27.542	819.911	654.747
404.365	27.873	819.684	655.698
405.380	28.152	819.360	656.381
406.394	28.282	818.579	656.164
407.409	28.158	818.013	655.208
408.423	27.945	817.810	654.223
409.438	28.175	817.288	654.572
410.453	28.285	816.989	654.665
411.467	28.137	816.293	653.521
412.482	28.068	816.094	653.058
413.496	28.029	815.813	652.637
414.511	28.037	815.635	652.464
415.526	28.087	815.028	652.100
416.540	27.983	814.165	650.982
417.555	27.627	813.520	649.142
418.569	27.832	813.025	649.419
419.584	27.894	812.285	648.989
420.599	27.640	811.682	647.550
421.613	107.832	1283.937	1449.434
422.628	93.191	1352.760	1449.540
