DTS Sentinel unit serial number:	SN413079Multiplexer serial number:	ORYXHardware model number:	OX4-SRSoftware version number:	ORYX F/W v4.00 Oryx Data Collector v3.7.2.0data status	okinstallation	princeton_trtdifferential loss correction	single-endedforward channel	channel 1reverse channel	N/Adate	2019/09/12time	19:13:34forward acquisition time	15.00reverse acquisition time	0.00gamma	496.2192k internal	0.2320k external	0.2320temperature offset calibration	1.0126default loss term (dB/km)	0.3790temperature slope calibration	1.0000multiplexer offset coefficient	1.0000multiplexer slope coefficient	1.0000fibre end	0.00T internal ref (°C)	32.56T ext. ref 1 (°C)	3.24T ext. ref 2 (°C)	27.10length (m)	temperature (°C)	Stokes	anti-Stokes-747.200	-132.330	-0.577	-0.075
-746.185	103.419	0.112	-0.133
-745.171	-108.280	-0.519	-0.113
-744.156	-164.308	-0.826	0.038
-743.142	-200.000	-0.564	0.003
-742.127	-200.000	0.153	1.021
-741.112	-9.207	0.378	0.256
-740.098	-87.876	-0.132	-0.040
-739.083	800.000	-0.225	-0.881
-738.069	-200.000	-0.067	-0.738
-737.054	-200.000	0.008	-0.289
-736.039	213.998	-0.669	-1.069
-735.025	23.013	0.360	0.298
-734.010	-200.000	0.099	1.032
-732.996	-3.646	-0.268	-0.189
-731.981	800.000	-0.116	0.432
-730.966	531.970	0.287	0.686
-729.952	211.542	0.349	0.555
-728.937	-36.041	-0.713	0.389
-727.923	-40.447	0.910	-0.478
-726.908	250.066	-0.771	-1.322
-725.894	147.154	0.593	-0.806
-724.879	-20.712	0.619	0.384
-723.864	116.809	0.213	0.264
-722.850	-116.572	-0.146	-0.027
-721.835	800.000	-0.258	-0.898
-720.821	603.351	0.078	0.197
-719.806	17.318	-0.354	-0.284
-718.791	288.617	-0.394	0.720
-717.777	141.011	0.114	0.153
-716.762	-12.530	0.340	-0.224
-715.748	70.275	-0.252	-0.263
-714.733	246.732	0.267	-0.455
-713.718	-98.575	0.552	0.142
-712.704	118.511	0.165	-0.205
-711.689	-116.388	-0.602	-0.112
-710.675	-104.921	0.350	-0.081
-709.660	196.654	0.636	-0.978
-708.645	-200.000	-0.019	-0.307
-707.631	-200.000	-0.018	0.189
-706.616	-200.000	0.037	0.376
-705.602	-62.097	0.286	0.120
-704.587	800.000	0.032	-0.136
-703.572	-117.270	0.872	-0.160
-702.558	-90.846	-0.887	-0.258
-701.543	800.000	-0.216	0.705
-700.529	17.255	-0.478	0.383
-699.514	279.257	0.135	-0.242
-698.499	-200.000	-0.001	-0.188
-697.485	236.087	0.114	-0.190
-696.470	12.270	0.187	-0.146
-695.456	8.645	0.291	0.221
-694.441	-138.772	0.340	0.037
-693.426	15.057	-0.326	-0.258
-692.412	221.184	-0.226	0.366
-691.397	-91.764	-0.965	-0.277
-690.383	-108.126	0.422	-0.092
-689.368	-39.502	-0.868	-0.459
-688.354	-109.567	-0.604	-0.129
-687.339	-106.484	0.665	0.150
-686.324	800.000	0.174	0.619
-685.310	61.055	-0.676	0.677
-684.295	8.146	0.430	-0.326
-683.281	-45.263	-0.607	0.304
-682.266	-56.890	0.651	0.290
-681.251	386.511	0.157	0.328
-680.237	-200.000	-0.017	-0.199
-679.222	-200.000	0.112	-0.732
-678.208	-55.458	1.105	-0.500
-677.193	508.051	-0.278	-0.651
-676.178	800.000	0.194	-0.560
-675.164	-109.390	1.010	0.216
-674.149	-16.798	-0.610	-0.389
-673.135	-183.990	1.201	-0.020
-672.120	-77.797	0.407	0.142
-671.105	269.140	0.083	0.148
-670.091	-62.408	0.440	-0.184
-669.076	-200.000	0.004	0.411
-668.062	-4.460	-0.226	-0.158
-667.047	800.000	-0.141	-0.474
-666.032	-200.000	0.132	0.760
-665.018	94.923	0.354	-0.406
-664.003	-76.540	0.038	0.014
-662.989	-90.376	-0.615	0.180
-661.974	-200.000	-0.035	-0.249
-660.959	48.342	-0.282	-0.266
-659.945	-200.000	-0.138	-0.762
-658.930	-23.399	0.297	0.180
-657.916	800.000	0.182	-0.707
-656.901	-107.169	-0.690	0.153
-655.886	551.967	0.028	-0.067
-654.872	342.081	-0.358	0.706
-653.857	-138.432	0.584	-0.065
-652.843	-200.000	-0.004	-0.032
-651.828	608.692	0.095	0.240
-650.814	800.000	-0.167	-0.621
-649.799	28.920	0.053	-0.045
-648.784	-200.000	-0.097	0.739
-647.770	-155.701	0.177	-0.011
-646.755	-77.264	-0.343	0.120
-645.741	167.751	0.729	-1.044
-644.726	-140.405	-0.985	0.103
-643.711	121.868	0.345	-0.434
-642.697	607.594	0.263	-0.662
-641.682	10.089	1.196	-0.915
-640.668	493.665	0.350	-0.808
-639.653	184.434	-0.400	-0.596
-638.638	800.000	-0.121	0.470
-637.624	-200.000	0.027	-0.472
-636.609	96.190	0.300	-0.346
-635.595	13.000	-0.389	0.303
-634.580	135.738	-0.301	0.394
-633.565	-200.000	-0.005	0.105
-632.551	74.082	0.255	-0.270
-631.536	706.425	0.125	-0.333
-630.522	-200.000	-0.002	-0.083
-629.507	-131.514	-0.721	-0.096
-628.492	225.960	0.056	0.091
-627.478	104.857	0.329	0.390
-626.463	-100.868	0.398	0.099
-625.449	604.979	0.177	0.443
-624.434	125.618	-0.363	-0.462
-623.419	406.427	0.259	-0.549
-622.405	245.207	-0.219	0.371
-621.390	-200.000	-0.084	-0.893
-620.376	151.256	-0.415	0.568
-619.361	106.040	-0.798	-0.950
-618.346	-137.040	0.624	-0.072
-617.332	800.000	0.048	-0.211
-616.317	121.525	-0.440	-0.552
-615.303	-178.969	-0.665	-0.015
-614.288	-43.904	-0.481	-0.243
-613.273	-200.000	-0.155	1.089
-612.259	-72.775	0.602	0.223
-611.244	800.000	-0.133	0.493
-610.230	49.211	-0.540	-0.511
-609.215	-200.000	-0.100	-0.492
-608.201	75.010	-0.399	-0.423
-607.186	800.000	-0.030	-0.106
-606.171	232.280	0.225	-0.371
-605.157	5.879	-0.269	-0.200
-604.142	-200.000	0.026	-0.517
-603.128	-141.406	-0.289	-0.029
-602.113	-82.662	0.472	0.154
-601.098	-182.558	0.612	0.011
-600.084	-200.000	0.061	-0.430
-599.069	-10.820	-0.771	0.512
-598.055	800.000	0.172	-0.569
-597.040	-76.998	-0.558	-0.196
-596.025	142.576	-0.143	0.191
-595.011	129.316	0.659	-0.846
-593.996	114.538	-0.289	0.354
-592.982	-103.765	-0.385	-0.090
-591.967	43.333	-0.503	-0.462
-590.952	258.569	-0.431	0.746
-589.938	487.555	0.267	0.612
-588.923	558.807	-0.069	0.168
-587.909	-106.115	-1.016	-0.229
-586.894	67.973	-0.802	-0.824
-585.879	585.578	0.462	1.141
-584.865	-200.000	0.022	-0.176
-583.850	-173.507	-0.178	0.005
-582.836	-200.000	0.037	-0.425
-581.821	800.000	0.161	0.469
-580.806	800.000	-0.303	-0.875
-579.792	51.575	-0.196	-0.188
-578.777	-145.365	-0.603	-0.055
-577.763	-114.630	0.841	0.162
-576.748	564.596	0.214	0.521
-575.733	487.873	-0.273	0.627
-574.719	-88.096	0.753	-0.227
-573.704	217.118	-0.246	-0.393
-572.690	37.026	0.334	-0.297
-571.675	-200.000	-0.188	0.994
-570.661	-113.386	0.122	-0.024
-569.646	-15.661	-0.234	0.150
-568.631	-200.000	0.040	-0.394
-567.617	29.277	-0.463	0.395
-566.602	-147.030	-0.617	-0.053
-565.588	-200.000	0.067	0.798
-564.573	232.904	-0.092	0.152
-563.558	-75.192	0.274	0.098
-562.544	-82.435	0.751	-0.245
-561.529	800.000	-0.080	-0.346
-560.515	800.000	0.165	0.534
-559.500	800.000	-0.058	0.195
-558.485	-116.513	-0.643	0.119
-557.471	169.769	0.392	-0.562
-556.456	723.227	-0.129	-0.344
-555.442	239.273	-0.378	-0.631
-554.427	-15.942	-0.600	-0.383
-553.412	92.218	0.746	-0.844
-552.398	-86.755	0.288	-0.088
-551.383	-74.982	0.340	0.122
-550.369	287.804	-0.399	0.725
-549.354	-105.495	-0.821	-0.187
-548.339	-200.000	0.081	-0.774
-547.325	800.000	0.160	0.471
-546.310	800.000	0.214	-0.644
-545.296	56.800	0.329	-0.322
-544.281	-200.000	-0.202	0.920
-543.266	-200.000	0.018	0.392
-542.252	-133.201	0.232	0.029
-541.237	-184.253	0.851	0.014
-540.223	100.675	-0.334	-0.389
-539.208	800.000	-0.147	-0.471
-538.193	140.222	0.118	0.156
-537.179	127.316	-0.524	-0.667
-536.164	-49.867	-0.393	-0.187
-535.150	234.847	-0.258	-0.427
-534.135	231.888	0.184	-0.302
-533.121	800.000	-0.438	-1.255
-532.106	-200.000	-0.010	0.830
-531.091	26.456	0.621	0.521
-530.077	70.339	-0.495	-0.513
-529.062	498.049	-0.165	0.382
-528.048	259.193	-0.268	-0.463
-527.033	45.878	0.451	0.418
-526.018	412.505	0.262	-0.558
-525.004	-109.925	0.943	-0.198
-523.989	-122.189	0.262	0.043
-522.975	-25.498	-0.559	0.331
-521.960	-32.222	0.499	0.279
-520.945	-12.724	-0.753	0.492
-519.931	-200.000	0.062	0.566
-518.916	-117.355	0.824	-0.150
-517.902	155.979	0.434	-0.600
-516.887	52.897	-0.090	-0.086
-515.872	14.587	0.393	-0.308
-514.858	-6.963	1.164	-0.792
-513.843	-76.366	-0.178	0.063
-512.829	119.895	-0.115	0.143
-511.814	800.000	0.257	0.742
-510.799	-173.878	0.331	-0.010
-509.785	-154.380	-0.370	-0.025
-508.770	-200.000	0.001	0.142
-507.756	-97.033	-0.925	-0.242
-506.741	-74.443	0.430	0.155
-505.726	267.808	0.382	0.670
-504.712	-51.925	0.423	0.197
-503.697	-82.540	0.823	-0.267
-502.683	-16.611	-0.874	0.555
-501.668	-43.136	0.145	0.073
-500.653	236.148	0.280	0.463
-499.639	-200.000	-0.028	0.429
-498.624	-28.172	-0.216	-0.125
-497.610	256.123	-0.249	0.428
-496.595	-108.106	0.665	0.144
-495.581	318.990	-0.124	-0.236
-494.566	-186.578	0.661	0.009
-493.551	255.865	-0.294	0.504
-492.537	-55.116	-0.448	0.202
-491.522	-4.928	-0.116	0.080
-490.508	-200.000	-0.007	-0.440
-489.493	612.946	0.264	-0.661
-488.478	160.009	0.058	-0.081
-487.464	-200.000	-0.038	-0.427
-486.449	56.050	-0.613	0.595
-485.435	282.206	0.123	-0.221
-484.420	-65.794	0.980	0.392
-483.405	-151.510	0.128	0.009
-482.391	584.463	0.229	0.564
-481.376	-133.212	0.367	-0.046
-480.362	124.231	0.204	0.256
-479.347	124.115	0.429	0.539
-478.332	-154.011	0.279	-0.019
-477.318	-31.239	0.174	-0.098
-476.303	-96.475	-0.916	0.242
-475.289	465.874	0.236	0.529
-474.274	201.762	-0.410	0.631
-473.259	-200.000	-0.045	-1.316
-472.245	-25.804	-0.433	0.255
-471.230	-77.835	0.318	-0.110
-470.216	-200.000	0.158	-0.922
-469.201	58.256	-0.747	0.733
-468.186	-200.000	0.025	0.724
-467.172	-200.000	-0.108	0.511
-466.157	-87.289	-0.140	0.042
-465.143	50.351	0.136	0.128
-464.128	-150.358	1.103	-0.085
-463.113	-82.927	0.377	-0.122
-462.099	800.000	0.024	0.086
-461.084	96.403	-0.349	-0.399
-460.070	-1.409	-0.505	-0.356
-459.055	-72.177	0.561	-0.208
-458.040	-126.439	-0.401	-0.060
-457.026	531.243	-0.278	0.656
-456.011	-96.335	0.487	-0.129
-454.997	11.855	0.385	-0.296
-453.982	776.456	-0.267	-0.728
-452.968	165.532	-0.517	0.731
-451.953	22.139	-0.809	0.660
-450.938	-200.000	1.169	0.004
-449.924	-14.124	-0.612	-0.395
-448.909	-200.000	0.112	0.502
-447.895	26.725	0.343	-0.287
-446.880	300.050	-0.406	-0.749
-445.865	33.323	0.445	-0.386
-444.851	245.213	-0.083	0.139
-443.836	800.000	0.319	0.983
-442.822	800.000	0.326	1.120
-441.807	-167.884	0.972	-0.038
-440.792	-8.806	-0.220	0.147
-439.778	77.382	0.371	0.394
-438.763	79.381	0.599	-0.642
-437.749	479.076	0.357	-0.808
-436.734	-32.125	-0.567	0.317
-435.719	-131.367	0.305	-0.040
-434.705	-33.640	0.542	-0.299
-433.690	181.706	0.199	-0.292
-432.676	187.031	-0.406	0.604
-431.661	346.401	0.328	0.645
-430.646	-154.473	0.717	-0.048
-429.632	-200.000	0.046	-0.357
-428.617	-123.132	-0.778	-0.125
-427.603	7.567	-0.419	0.313
-426.588	800.000	0.105	-0.396
-425.573	20.499	0.252	0.204
-424.559	89.391	0.579	0.644
-423.544	362.273	0.230	-0.461
-422.530	88.938	0.549	0.610
-421.515	800.000	-0.207	0.677
-420.500	-200.000	-0.007	-0.096
-419.486	800.000	0.344	-1.081
-418.471	-29.719	0.115	0.065
-417.457	-171.187	-0.451	-0.015
-416.442	-106.287	-0.871	-0.195
-415.428	800.000	-0.231	-0.754
-414.413	-200.000	-0.026	0.317
-413.398	-47.313	0.759	-0.369
-412.384	800.000	0.197	0.597
-411.369	263.214	-0.310	0.537
-410.355	178.901	-0.541	-0.789
-409.340	256.180	-0.382	-0.654
-408.325	248.198	0.294	-0.496
-407.311	88.016	0.231	0.256
-406.296	-20.383	-0.289	0.177
-405.282	-170.197	0.503	-0.018
-404.267	572.986	0.425	1.034
-403.252	-18.936	0.721	0.447
-402.238	-104.015	-0.221	0.051
-401.223	-200.000	0.006	0.221
-400.209	128.457	0.402	0.510
-399.194	190.363	-0.097	-0.145
-398.179	202.501	-0.261	-0.403
-397.165	-17.850	-0.249	-0.156
-396.150	-200.000	-0.072	0.394
-395.136	800.000	0.036	0.122
-394.121	800.000	-0.052	-0.228
-393.106	-80.824	-0.765	-0.253
-392.092	344.595	0.355	-0.694
-391.077	-200.000	0.126	-0.702
-390.063	51.011	0.305	-0.289
-389.048	-84.837	0.266	0.083
-388.033	800.000	-0.054	-0.191
-387.019	692.473	0.451	1.177
-386.004	-83.922	-0.224	0.071
-384.990	-95.708	-0.099	0.026
-383.975	50.894	-0.047	0.045
-382.960	406.891	0.109	-0.230
-381.946	96.474	-0.634	-0.723
-380.931	-111.983	-0.251	0.050
-379.917	197.367	0.390	0.593
-378.902	-31.685	-0.590	0.330
-377.888	96.667	-0.290	-0.331
-376.873	-101.522	0.353	0.085
-375.858	68.443	0.308	-0.315
-374.844	-149.622	1.044	0.082
-373.829	-16.647	0.362	0.229
-372.815	-200.000	0.054	-0.749
-371.800	800.000	-0.355	-1.114
-370.785	48.212	0.245	-0.228
-369.771	-177.657	0.569	-0.014
-368.756	13.361	0.474	-0.366
-367.742	51.202	0.600	-0.567
-366.727	-26.379	0.586	-0.342
-365.712	-108.926	0.555	-0.118
-364.698	-200.000	0.005	-0.160
-363.683	223.430	-0.157	0.252
-362.669	-200.000	0.031	-0.403
-361.654	-92.107	-0.413	-0.116
-360.639	226.638	0.116	0.187
-359.625	-52.653	-0.337	-0.155
-358.610	-126.421	0.984	0.146
-357.596	19.738	-0.191	-0.153
-356.581	-59.993	-0.803	-0.342
-355.566	800.000	-0.100	-0.380
-354.552	464.172	-0.189	0.420
-353.537	-139.590	-0.816	-0.087
-352.523	127.462	0.997	-1.260
-351.508	800.000	-0.185	0.544
-350.493	17.124	-0.510	-0.403
-349.479	91.433	0.205	0.229
-348.464	-2.985	-0.286	0.199
-347.450	-4.196	0.174	0.120
-346.435	800.000	0.064	-0.264
-345.420	-182.830	-0.287	-0.005
-344.406	98.838	-0.078	0.090
-343.391	-9.336	-0.795	-0.529
-342.377	-22.713	0.338	-0.203
-341.362	-115.424	0.829	-0.155
-340.348	-77.478	-0.780	0.269
-339.333	-98.256	-0.261	-0.067
-338.318	207.575	0.253	-0.392
-337.304	561.801	-0.180	0.433
-336.289	-200.000	-0.053	-0.654
-335.275	-21.056	0.503	0.306
-334.260	800.000	-0.233	0.807
-333.245	13.453	0.533	-0.411
-332.231	-119.863	0.522	0.089
-331.216	159.170	-0.575	0.796
-330.202	-200.000	-0.079	-0.359
-329.187	360.841	-0.074	0.147
-328.172	-73.412	0.148	0.054
-327.158	292.686	0.293	0.530
-326.143	-111.142	-0.907	-0.185
-325.129	-113.337	-0.277	0.054
-324.114	623.763	0.156	-0.390
-323.099	-60.752	0.494	0.208
-322.085	-67.309	0.820	-0.321
-321.070	-127.367	-0.567	-0.082
-320.056	-161.688	-0.482	0.024
-319.041	-200.000	-0.103	0.492
-318.026	68.502	-0.531	-0.541
-317.012	63.360	-0.437	0.436
-315.997	-119.330	0.341	-0.059
-314.983	-200.000	0.036	-0.444
-313.968	-200.000	0.063	0.390
-312.953	61.761	0.406	0.402
-311.939	-167.645	0.555	0.022
-310.924	-120.209	0.425	0.072
-309.910	58.091	0.423	0.412
-308.895	-128.789	-0.393	0.055
-307.880	275.874	-0.119	0.210
-306.866	800.000	-0.172	0.710
-305.851	322.403	0.274	0.519
-304.837	-86.834	0.234	-0.071
-303.822	800.000	0.064	0.235
-302.807	116.694	0.423	-0.516
-301.793	-154.507	0.383	0.025
-300.778	-200.000	0.062	0.467
-299.764	-200.000	-0.029	-0.888
-298.749	800.000	0.069	-0.195
-297.735	-96.658	0.598	0.156
-296.720	61.402	-0.513	0.507
-295.705	-41.293	-0.341	-0.175
-294.691	130.600	0.413	-0.525
-293.676	-23.528	-0.553	-0.330
-292.662	200.096	-0.174	0.265
-291.647	-200.000	-0.150	-1.265
-290.632	50.222	0.600	-0.563
-289.618	-158.314	-0.095	0.005
-288.603	-200.000	0.085	0.502
-287.589	-179.183	0.241	-0.005
-286.574	116.037	0.170	-0.207
-285.559	-106.449	0.408	-0.091
-284.545	243.355	0.171	-0.284
-283.530	-150.421	-0.527	0.040
-282.516	-200.000	-0.078	0.406
-281.501	-105.088	-0.419	-0.095
-280.486	-200.000	0.029	0.148
-279.472	-73.650	0.535	0.193
-278.457	6.608	0.678	-0.501
-277.443	-122.484	0.132	0.021
-276.428	68.555	-0.685	-0.697
-275.413	800.000	-0.320	-1.016
-274.399	-108.946	-0.208	-0.044
-273.384	126.667	0.099	-0.125
-272.370	-81.385	-0.148	-0.048
-271.355	663.312	-0.257	0.658
-270.340	-87.901	-0.177	0.053
-269.326	-17.619	0.394	-0.246
-268.311	-41.174	-0.764	-0.391
-267.297	800.000	0.151	0.615
-266.282	-122.556	-1.060	0.171
-265.267	145.017	-0.104	0.138
-264.253	-200.000	-0.124	-0.609
-263.238	8.445	-0.456	-0.341
-262.224	-200.000	-0.063	0.344
-261.209	-200.000	-0.126	-0.673
-260.195	-122.432	-0.425	-0.069
-259.180	-25.904	0.566	0.331
-258.165	-200.000	0.067	-0.447
-257.151	384.814	-0.245	0.501
-256.136	-200.000	-0.200	0.964
-255.122	800.000	-0.393	1.487
-254.107	-158.311	0.468	0.027
-253.092	-42.427	-0.690	0.349
-252.078	-28.705	0.362	0.206
-251.063	-92.516	-0.386	0.108
-250.049	135.663	-0.356	0.459
-249.034	800.000	-0.297	-1.011
-248.019	-87.902	-0.710	0.212
-247.005	-156.316	-0.562	-0.035
-245.990	103.338	-0.245	0.284
-244.976	-200.000	0.022	0.348
-243.961	-200.000	-0.077	0.551
-242.946	154.652	-0.429	0.584
-241.932	274.795	-0.068	0.119
-240.917	-39.885	-0.173	-0.090
-239.903	-200.000	-0.029	0.395
-238.888	79.170	0.290	-0.308
-237.873	-200.000	-0.108	0.981
-236.859	-200.000	-0.129	0.958
-235.844	300.036	0.188	0.344
-234.830	17.588	-0.021	0.016
-233.815	554.255	0.154	0.367
-232.800	800.000	-0.041	0.169
-231.786	-65.501	0.868	0.345
-230.771	-200.000	-0.003	0.099
-229.757	-76.310	-0.078	-0.027
-228.742	-46.689	0.449	-0.218
-227.727	-200.000	0.016	-0.457
-226.713	-104.277	-0.289	0.066
-225.698	-177.791	0.519	0.012
-224.684	-134.743	-0.543	0.065
-223.669	800.000	0.101	-0.350
-222.655	-161.197	0.366	-0.019
-221.640	-11.909	-0.799	0.519
-220.625	-116.202	0.770	0.142
-219.611	-99.453	-0.453	0.113
-218.596	548.847	-0.016	-0.038
-217.582	-132.783	-0.362	-0.046
-216.567	44.297	-0.399	-0.363
-215.552	800.000	0.066	0.227
-214.538	-89.340	-0.793	-0.231
-213.523	-16.248	-0.296	-0.186
-212.509	-200.000	0.031	-0.752
-211.494	86.631	-0.210	0.229
-210.479	800.000	0.150	-0.440
-209.465	699.561	-0.187	-0.488
-208.450	-59.885	0.470	-0.199
-207.436	-22.498	0.133	-0.080
-206.421	-119.467	-1.195	-0.205
-205.406	-85.924	0.458	-0.140
-204.392	-0.318	0.398	0.280
-203.377	75.982	0.550	0.575
-202.363	168.861	-0.751	1.060
-201.348	-200.000	0.077	0.458
-200.333	201.696	-0.328	0.500
-199.319	-36.782	0.020	0.011
-198.304	-113.155	-0.504	0.098
-197.290	-126.201	1.042	0.154
-196.275	800.000	-0.173	0.729
-195.260	-120.946	-0.352	0.059
-194.246	-74.836	-0.421	-0.150
-193.231	-22.373	0.186	-0.111
-192.217	800.000	-0.080	-0.282
-191.202	-169.030	-0.302	0.011
-190.187	150.583	-0.415	0.557
-189.173	-60.259	-0.575	0.242
-188.158	165.490	0.211	0.295
-187.144	-141.882	0.822	-0.081
-186.129	800.000	0.061	-0.254
-185.114	-31.729	0.783	-0.435
-184.100	188.135	0.252	0.373
-183.085	-200.000	-0.258	1.270
-182.071	-200.000	0.047	0.774
-181.056	172.968	-0.354	-0.504
-180.042	-200.000	0.021	0.289
-179.027	168.619	0.268	-0.377
-178.012	-200.000	-0.027	-0.156
-176.998	-37.884	0.613	0.322
-175.983	-200.000	-0.145	1.870
-174.969	-200.000	-0.004	-0.321
-173.954	-93.844	-0.694	0.189
-172.939	170.061	-0.121	-0.171
-171.925	-124.711	-0.103	0.016
-170.910	800.000	0.259	-0.993
-169.896	-91.678	0.957	-0.269
-168.881	-200.000	-0.040	0.829
-167.866	-200.000	0.091	-1.009
-166.852	208.503	-0.354	-0.546
-165.837	-200.000	-0.096	-0.900
-164.823	-19.829	0.200	-0.122
-163.808	-109.442	0.492	0.103
-162.793	-200.000	0.039	1.265
-161.779	-141.184	-0.354	0.036
-160.764	427.455	-0.275	-0.587
-159.750	-17.660	-0.343	0.213
-158.735	111.711	0.468	0.558
-157.720	140.136	-0.278	0.362
-156.706	47.632	-0.462	0.425
-155.691	68.418	-0.308	0.312
-154.677	-115.237	0.405	-0.076
-153.662	-200.000	0.019	-0.135
-152.647	800.000	0.084	-0.303
-151.633	-126.921	-0.713	-0.104
-150.618	78.751	0.612	0.647
-149.604	-200.000	0.179	-0.843
-148.589	99.600	0.216	-0.246
-147.574	218.169	-0.361	0.570
-146.560	-104.123	0.389	0.089
-145.545	-50.513	-0.085	0.040
-144.531	-53.365	0.082	0.037
-143.516	-79.248	0.502	0.168
-142.502	2.651	-0.163	0.117
-141.487	12.617	-0.453	-0.345
-140.472	-200.000	0.086	-0.401
-139.458	109.035	-0.576	-0.680
-138.443	-39.761	0.056	0.029
-137.429	249.284	-0.265	0.443
-136.414	18.260	0.296	0.234
-135.399	160.063	-0.532	0.732
-134.385	45.266	-0.235	0.214
-133.370	800.000	-0.042	0.132
-132.356	-200.000	0.078	0.479
-131.341	-96.130	0.780	-0.204
-130.326	18.524	-0.198	-0.156
-129.312	208.951	-0.125	-0.194
-128.297	-139.824	0.842	-0.088
-127.283	129.811	-0.146	0.184
-126.268	88.941	-0.352	0.386
-125.253	800.000	-0.060	0.200
-124.239	800.000	0.233	-0.640
-123.224	-200.000	0.015	-0.915
-122.210	-60.151	0.474	0.200
-121.195	-200.000	0.252	-1.337
-120.180	800.000	-0.158	-0.510
-119.166	-200.000	0.094	0.479
-118.151	-200.000	0.047	0.269
-117.137	406.901	-0.170	0.355
-116.122	-124.756	-0.276	0.042
-115.107	-67.887	-0.433	0.167
-114.093	-136.067	0.644	-0.075
-113.078	-138.598	-0.895	0.097
-112.064	491.625	0.147	0.333
-111.049	-200.000	-0.021	-0.409
-110.034	19.613	-0.497	0.394
-109.020	-124.452	-0.522	0.080
-108.005	67.394	0.306	-0.308
-106.991	-62.770	-0.624	-0.255
-105.976	784.680	0.460	1.244
-104.962	721.282	-0.200	-0.525
-103.947	636.857	-0.024	0.061
-102.932	-125.432	0.535	0.080
-101.918	800.000	-0.258	0.749
-100.903	47.048	-0.548	-0.502
-99.889	280.793	-0.166	0.292
-98.874	121.151	0.137	0.168
-97.859	-18.733	0.190	-0.117
-96.845	-118.162	0.694	0.122
-95.830	292.185	-0.261	0.468
-94.816	-4.206	0.420	0.287
-93.801	577.380	0.159	-0.383
-92.786	43.193	-0.048	0.043
-91.772	-200.000	-0.058	0.390
-90.757	-153.833	0.596	0.040
-89.743	-151.455	0.194	-0.014
-88.728	-72.847	0.473	-0.171
-87.713	-85.776	-0.790	-0.241
-86.699	67.637	0.261	0.263
-85.684	-52.854	-0.449	0.204
-84.670	800.000	0.127	-0.370
-83.655	-45.518	-0.684	0.334
-82.640	-24.225	-0.470	-0.276
-81.626	5.218	-0.454	-0.330
-80.611	187.879	0.570	-0.838
-79.597	71.885	0.422	-0.432
-78.582	-93.797	-0.764	-0.207
-77.567	800.000	-0.250	0.844
-76.553	151.957	-0.624	-0.838
-75.538	-200.000	0.151	0.780
-74.524	236.262	-0.149	0.242
-73.509	124.239	-0.223	-0.276
-72.494	174.072	0.468	-0.665
-71.480	-200.000	-0.048	0.546
-70.465	-200.000	-0.005	0.507
-69.451	84.083	-0.619	0.666
-68.436	-200.000	-0.174	1.233
-67.422	61.986	0.401	0.394
-66.407	-140.266	0.221	-0.023
-65.392	744.817	0.185	-0.491
-64.378	-200.000	-0.164	0.830
-63.363	-200.000	0.126	-0.774
-62.349	-41.672	-0.519	0.262
-61.334	195.316	-0.758	-1.134
-60.319	46.305	0.526	0.480
-59.305	522.622	-0.463	-1.071
-58.290	800.000	0.714	2.074
-57.276	720.537	0.658	1.722
-56.261	-200.000	94.858	590.360
-55.246	676.561	1352.871	3459.610
-54.232	204.623	2516.243	3840.257
-53.217	119.855	2122.151	2588.673
-52.203	44.499	1593.710	1440.807
-51.188	36.316	1332.706	1156.047
-50.173	33.254	1291.356	1102.329
-49.159	55.975	1342.039	1281.052
-48.144	57.158	1358.418	1303.657
-47.130	36.156	1317.012	1141.301
-46.115	32.672	1299.470	1105.662
-45.100	32.414	1294.133	1099.572
-44.086	32.733	1290.152	1098.003
-43.071	32.543	1289.416	1096.225
-42.057	32.333	1286.756	1092.703
-41.042	32.395	1286.508	1092.806
-40.027	32.730	1283.142	1091.848
-39.013	32.734	1281.418	1090.358
-37.998	32.296	1280.020	1086.597
-36.984	32.429	1278.720	1086.220
-35.969	32.838	1276.393	1086.556
-34.954	32.736	1274.281	1084.128
-33.940	32.564	1273.998	1082.854
-32.925	32.747	1272.089	1082.237
-31.911	32.780	1269.895	1080.519
-30.896	32.769	1269.069	1079.709
-29.881	32.602	1268.616	1078.327
-28.867	32.736	1266.368	1077.137
-27.852	32.721	1265.519	1076.286
-26.838	32.582	1264.174	1074.308
-25.823	32.560	1263.051	1073.185
-24.809	32.675	1260.656	1071.762
-23.794	32.523	1260.453	1070.680
-22.779	32.531	1258.929	1069.391
-21.765	32.467	1257.684	1067.926
-20.750	32.506	1256.495	1067.096
-19.736	32.514	1254.305	1065.241
-18.721	32.657	1253.812	1065.588
-17.706	32.394	1252.409	1062.865
-16.692	32.503	1251.050	1062.286
-15.677	32.665	1249.254	1061.629
-14.663	32.577	1249.212	1061.059
-13.648	32.416	1248.216	1059.262
-12.633	32.366	1247.452	1058.293
-11.619	32.573	1245.933	1058.123
-10.604	32.361	1245.811	1056.790
-9.590	32.422	1244.562	1056.027
-8.575	32.571	1243.753	1056.137
-7.560	32.567	1242.673	1055.153
-6.546	32.507	1242.427	1054.568
-5.531	32.451	1241.750	1053.637
-4.517	32.447	1240.142	1052.211
-3.502	32.533	1239.501	1052.106
-2.487	32.360	1238.324	1050.101
-1.473	32.447	1234.609	1047.392
-0.458	31.022	1219.353	1026.569
0.556	28.587	1199.984	986.112
1.571	24.484	1205.924	968.691
2.586	23.655	1219.383	974.866
3.600	22.809	1207.691	960.830
4.615	16.990	1137.355	874.873
5.629	7.511	1062.135	771.091
6.644	3.724	1041.768	738.169
7.659	3.133	1038.784	733.172
8.673	3.173	1038.056	732.785
9.688	2.932	1036.580	730.530
10.702	3.533	1034.811	732.070
11.717	9.245	1043.260	765.245
12.731	18.747	1056.769	820.717
13.746	23.943	1062.526	850.014
14.761	24.330	1063.283	852.396
15.775	24.241	1061.169	850.200
16.790	23.922	1060.102	847.749
17.804	23.694	1060.569	846.962
18.819	23.833	1059.577	846.755
19.834	23.852	1060.107	847.192
20.848	23.995	1058.320	846.372
21.863	24.073	1058.042	846.444
22.877	23.837	1057.435	844.763
23.892	23.635	1057.622	843.879
24.907	23.663	1056.226	842.821
25.921	23.501	1055.802	841.642
26.936	23.748	1053.535	840.928
27.950	23.488	1050.918	837.539
28.965	23.854	1049.142	837.773
29.980	23.786	1049.147	837.384
30.994	23.957	1048.005	837.204
32.009	23.775	1047.983	836.253
33.023	23.345	1047.660	833.900
34.038	23.542	1045.881	833.334
35.053	23.873	1044.737	833.899
36.067	23.344	1044.778	831.378
37.082	23.697	1042.518	831.158
38.096	23.698	1042.022	830.693
39.111	23.797	1042.461	831.436
40.126	23.587	1040.486	828.807
41.140	23.227	1038.897	825.789
42.155	23.217	1037.825	824.816
43.169	23.179	1037.097	823.986
44.184	23.223	1035.726	823.031
45.199	22.863	1035.156	820.830
46.213	23.368	1034.461	822.551
47.228	23.854	1033.179	823.713
48.242	24.119	1032.234	824.110
49.257	23.813	1032.325	822.698
50.271	23.775	1032.034	822.215
51.286	24.088	1030.569	822.423
52.301	24.159	1028.461	820.994
53.315	23.948	1028.822	820.234
54.330	23.535	1028.669	818.137
55.344	23.959	1026.316	818.142
56.359	23.593	1026.064	816.188
57.374	23.825	1024.886	816.244
58.388	23.276	1024.666	813.475
59.403	23.521	1023.239	813.394
60.417	22.962	1024.233	811.547
61.432	23.567	1021.716	812.251
62.447	23.262	1021.787	810.837
63.461	22.966	1020.994	808.783
64.476	22.857	1019.695	807.186
65.490	22.849	1018.842	806.400
66.505	23.396	1017.890	808.073
67.520	23.541	1017.221	808.130
68.534	23.047	1016.436	805.183
69.549	23.250	1015.369	805.192
70.563	22.920	1014.564	802.981
71.578	22.453	1014.199	800.501
72.593	22.386	1012.609	798.871
73.607	22.904	1011.306	800.117
74.622	22.675	1011.972	799.536
75.636	22.695	1011.526	799.204
76.651	22.977	1010.788	799.828
77.666	22.775	1011.059	799.055
78.680	22.754	1009.415	797.590
79.695	22.970	1008.613	797.863
80.709	23.324	1007.545	798.541
81.724	23.795	1006.043	799.400
82.739	23.160	1007.336	797.498
83.753	23.656	1006.572	799.053
84.768	24.401	1005.017	801.095
85.782	24.149	1005.345	800.152
86.797	24.509	1003.926	800.567
87.812	24.070	1002.760	797.603
88.826	24.022	1002.450	797.067
89.841	24.016	1002.571	797.067
90.855	23.971	1001.805	796.189
91.870	24.136	1000.431	795.763
92.884	24.206	999.625	795.362
93.899	24.340	997.769	794.412
94.914	24.103	997.187	792.824
95.928	24.270	995.485	792.142
96.943	23.950	994.577	789.929
97.957	23.874	993.704	788.830
98.972	24.026	993.308	789.118
99.987	24.091	992.786	788.924
101.001	23.765	991.989	786.776
102.016	23.767	990.489	785.527
103.030	23.920	990.399	786.063
104.045	23.968	989.743	785.682
105.060	23.834	988.988	784.421
106.074	23.463	987.958	781.899
107.089	23.685	985.989	781.252
108.103	23.684	984.907	780.318
109.118	23.342	983.858	777.920
110.133	22.945	983.638	775.930
111.147	23.112	982.322	775.558
112.162	22.766	982.622	774.209
113.176	23.291	980.673	774.903
114.191	23.400	979.539	774.415
115.206	23.188	979.206	773.156
116.220	23.030	978.319	771.696
117.235	22.839	976.748	769.559
118.249	22.619	976.558	768.381
119.264	22.879	975.568	768.665
120.279	22.624	975.552	767.477
121.293	22.640	975.246	767.237
122.308	22.793	972.459	765.639
123.322	22.862	971.006	764.725
124.337	22.675	971.365	764.130
125.352	22.493	970.621	762.692
126.366	22.648	969.288	762.244
127.381	22.872	968.440	762.479
128.395	23.424	966.838	763.530
129.410	23.292	967.185	763.165
130.424	23.322	966.955	763.045
131.439	23.714	965.095	763.195
132.454	23.227	966.203	761.909
133.468	23.501	964.314	761.528
134.483	23.417	963.167	760.197
135.497	23.466	962.561	759.862
136.512	23.395	961.655	758.775
137.527	23.562	961.090	758.973
138.541	23.784	959.710	758.765
139.556	23.670	959.938	758.393
140.570	23.991	957.374	757.666
141.585	24.115	958.843	759.292
142.600	24.030	957.399	757.717
143.614	24.326	956.329	758.065
144.629	24.180	956.149	757.233
145.643	24.261	954.626	756.302
146.658	23.927	952.463	753.108
147.673	23.689	953.531	752.876
148.687	23.563	951.863	750.963
149.702	23.355	951.538	749.757
150.716	23.674	948.978	749.022
151.731	23.742	949.684	749.801
152.746	24.038	947.978	749.634
153.760	24.257	946.402	749.240
154.775	24.390	945.920	749.350
155.789	24.014	946.632	748.266
156.804	23.995	945.950	747.581
157.819	23.715	945.912	746.308
158.833	24.049	944.121	746.230
159.848	24.112	944.337	746.600
160.862	23.775	943.367	744.357
161.877	23.697	941.202	742.257
162.892	23.676	939.509	740.768
163.906	23.632	939.812	740.758
164.921	23.540	938.361	739.163
165.935	23.418	938.394	738.616
166.950	24.115	936.810	740.203
167.964	23.654	936.586	738.046
168.979	23.495	935.220	736.244
169.994	23.440	933.743	734.785
171.008	23.880	933.461	736.322
172.023	24.338	933.178	737.928
173.037	24.125	931.905	735.979
174.052	23.996	931.209	734.830
175.067	23.493	930.829	732.387
176.081	23.174	929.785	730.189
177.096	23.501	929.042	730.888
178.110	23.041	928.471	728.476
179.125	22.987	928.078	727.882
180.140	23.269	926.960	728.102
181.154	23.706	926.784	729.696
182.169	23.748	927.975	730.740
183.183	23.927	926.245	730.046
184.198	23.566	926.194	728.462
185.213	23.873	925.333	728.976
186.227	23.799	923.924	727.499
187.242	24.000	923.714	728.093
188.256	24.111	923.775	728.532
189.271	24.361	921.698	727.850
190.286	23.880	921.919	725.996
191.300	23.445	919.173	721.999
192.315	22.795	919.043	719.184
193.329	23.102	918.141	719.665
194.344	23.463	918.967	721.717
195.359	23.614	917.936	721.457
196.373	23.960	917.461	722.426
197.388	24.114	917.272	722.839
198.402	24.357	917.996	724.331
199.417	24.739	916.290	724.472
200.432	24.285	917.320	723.379
201.446	24.497	915.682	722.883
202.461	24.079	916.539	721.800
203.475	23.852	915.109	719.691
204.490	23.706	912.450	716.946
205.504	23.684	912.657	716.959
206.519	24.005	911.583	717.346
207.534	23.805	911.090	716.086
208.548	24.161	910.572	717.048
209.563	23.972	911.178	716.700
210.577	23.789	910.171	715.110
211.592	24.495	908.822	716.822
212.607	24.409	908.355	716.048
213.621	24.287	907.781	715.042
214.636	24.522	906.108	714.600
215.650	24.109	906.418	713.130
216.665	24.304	905.830	713.382
217.680	24.360	904.912	712.820
218.694	24.198	904.412	711.717
219.709	23.717	904.382	709.708
220.723	24.038	903.295	710.072
221.738	24.213	902.291	709.919
222.753	23.801	902.476	708.361
223.767	24.100	902.234	709.297
224.782	24.529	901.620	710.461
225.796	24.390	900.729	709.142
226.811	24.160	899.626	707.299
227.826	23.572	899.223	704.583
228.840	23.408	898.096	702.990
229.855	23.639	897.126	703.080
230.869	23.973	895.676	703.203
231.884	23.914	895.325	702.631
232.899	23.836	895.787	702.625
233.913	23.926	894.532	701.932
234.928	23.652	893.052	699.632
235.942	23.405	893.026	698.575
236.957	23.498	892.079	698.140
237.972	23.189	892.387	697.099
238.986	23.106	891.762	696.224
240.001	23.395	890.879	696.611
241.015	23.355	891.002	696.485
242.030	23.738	889.149	696.481
243.045	24.114	888.210	697.155
244.059	23.844	888.774	696.475
245.074	23.964	888.475	696.652
246.088	23.820	888.598	696.121
247.103	24.364	887.944	697.676
248.117	24.604	887.969	698.573
249.132	24.872	888.017	699.596
250.147	25.159	886.831	699.722
251.161	25.371	885.798	699.671
252.176	25.339	885.496	699.246
253.190	25.359	884.752	698.672
254.205	25.306	884.681	698.348
255.220	25.107	883.352	696.464
256.234	25.126	882.143	695.523
257.249	24.777	882.797	694.622
258.263	24.921	881.535	694.128
259.278	24.723	881.023	692.896
260.293	24.974	880.283	693.222
261.307	25.102	879.375	692.942
262.322	24.825	879.761	692.111
263.336	25.016	878.596	691.873
264.351	24.883	876.703	689.809
265.366	24.619	876.254	688.376
266.380	24.891	877.040	689.984
267.395	24.599	876.694	688.522
268.409	24.494	875.783	687.345
269.424	24.973	874.191	687.875
270.439	25.137	873.448	687.857
271.453	24.479	874.300	685.939
272.468	24.679	873.533	686.047
273.482	25.193	871.965	686.723
274.497	24.854	871.629	685.100
275.512	24.637	872.340	684.766
276.526	24.726	871.770	684.597
277.541	24.864	870.015	683.686
278.555	25.212	869.217	684.328
279.570	25.048	869.557	683.908
280.585	25.206	868.259	683.429
281.599	25.091	867.321	682.193
282.614	25.046	866.019	680.936
283.628	24.498	865.439	678.340
284.643	24.968	865.382	680.018
285.657	24.763	865.418	679.209
286.672	24.229	866.026	677.596
287.687	24.756	864.102	678.029
288.701	24.756	862.990	677.095
289.716	24.717	863.158	677.019
290.730	25.024	861.942	677.169
291.745	24.502	862.791	675.799
292.760	25.115	861.331	676.911
293.774	25.530	860.982	678.141
294.789	25.392	860.153	676.910
295.803	25.102	860.112	675.725
296.818	25.059	858.366	674.134
297.833	24.374	858.991	671.983
298.847	24.728	858.236	672.666
299.862	24.796	856.873	671.792
300.876	24.990	856.941	672.514
301.891	25.426	856.202	673.510
302.906	25.374	856.059	673.143
303.920	25.619	855.911	673.885
304.935	25.674	854.874	673.215
305.949	25.196	854.158	670.804
306.964	25.155	853.710	670.239
307.979	24.922	853.561	669.195
308.993	25.419	852.033	669.790
310.008	25.215	851.684	668.695
311.022	24.875	852.442	667.965
312.037	24.887	852.112	667.693
313.052	24.555	850.327	664.998
314.066	24.303	849.554	663.396
315.081	24.286	849.236	663.027
316.095	24.644	848.583	663.788
317.110	24.574	847.520	662.638
318.125	24.326	847.222	661.427
319.139	24.005	846.677	659.751
320.154	23.988	846.189	659.249
321.168	24.299	845.000	659.417
322.183	24.558	844.944	660.271
323.197	24.820	844.204	660.603
324.212	24.347	844.396	658.947
325.227	24.533	843.121	658.580
326.241	24.613	842.305	658.180
327.256	24.413	842.090	657.216
328.270	24.346	841.171	656.196
329.285	24.266	840.977	655.692
330.300	24.014	839.842	653.823
331.314	24.578	840.077	656.018
332.329	24.746	839.441	656.083
333.343	25.113	839.175	657.160
334.358	25.152	839.151	657.228
335.373	24.616	839.615	655.565
336.387	24.833	838.893	655.741
337.402	25.181	839.204	657.201
338.416	25.431	838.883	657.806
339.431	25.653	837.981	657.851
340.446	25.810	838.062	658.432
341.460	25.893	837.281	658.061
342.475	25.995	836.800	657.999
343.489	26.029	836.261	657.639
344.504	25.926	836.388	657.306
345.519	26.386	834.937	657.781
346.533	25.974	834.668	656.012
347.548	25.614	834.293	654.350
348.562	25.350	833.629	652.814
349.577	25.533	832.236	652.327
350.592	25.290	832.885	651.895
351.606	25.383	831.727	651.272
352.621	25.225	830.839	649.946
353.635	25.271	830.409	649.717
354.650	24.838	829.566	647.434
355.665	24.914	828.538	646.847
356.679	24.997	828.105	646.752
357.694	25.459	827.685	648.036
358.708	25.082	826.808	645.934
359.723	24.890	826.322	644.805
360.738	25.387	824.905	645.428
361.752	25.109	825.342	644.714
362.767	25.437	825.664	646.086
363.781	25.746	824.531	646.254
364.796	26.014	824.234	646.924
365.810	26.296	823.756	647.502
366.825	26.052	823.788	646.597
367.840	25.730	822.784	644.599
368.854	25.783	821.864	644.009
369.869	25.509	820.834	642.166
370.883	25.611	820.634	642.317
371.898	25.596	821.264	642.699
372.913	25.837	821.334	643.561
373.927	25.487	820.288	641.435
374.942	25.417	820.419	641.231
375.956	25.429	819.696	640.652
376.971	25.866	818.363	641.108
377.986	25.879	818.833	641.463
379.000	26.009	817.732	641.009
380.015	25.924	817.301	640.311
381.029	26.287	815.856	640.411
382.044	26.335	815.886	640.548
383.059	26.227	815.316	639.660
384.073	26.218	813.445	638.105
385.088	25.723	813.189	636.099
386.102	25.513	813.373	635.445
387.117	25.430	812.085	634.088
388.132	25.287	811.820	633.321
389.146	25.519	811.970	634.200
390.161	25.851	811.586	635.013
391.175	26.113	810.718	635.201
392.190	25.904	810.369	634.137
393.205	25.114	809.133	630.336
394.219	24.474	808.996	627.926
395.234	24.615	809.098	628.443
396.248	25.205	807.933	629.554
397.263	25.397	807.108	629.529
398.278	25.329	806.372	628.662
399.292	25.140	805.684	627.408
400.307	25.147	805.675	627.368
401.321	24.848	805.747	626.322
402.336	25.147	806.130	627.614
403.350	25.192	806.988	628.381
404.365	26.195	805.103	630.362
405.380	26.763	804.238	631.608
406.394	26.621	803.971	630.847
407.409	26.759	803.641	631.017
408.423	26.774	802.360	630.005
409.438	26.715	802.294	629.691
410.453	26.323	802.670	628.570
411.467	26.236	802.561	628.125
412.482	26.526	802.020	628.653
413.496	26.559	801.532	628.329
414.511	25.848	802.652	626.682
415.526	25.913	801.967	626.317
416.540	26.270	800.192	626.113
417.555	26.621	799.382	626.639
418.569	26.283	799.448	625.463
419.584	26.370	798.807	625.209
420.599	26.394	798.202	624.763
421.613	161.244	1370.404	1793.704
422.628	139.945	1453.715	1793.758
