DTS Sentinel unit serial number:	SN413079Multiplexer serial number:	ORYXHardware model number:	OX4-SRSoftware version number:	ORYX F/W v4.00 Oryx Data Collector v3.7.2.0data status	okinstallation	princeton_trtdifferential loss correction	single-endedforward channel	channel 1reverse channel	N/Adate	2019/09/11time	05:40:11forward acquisition time	60.00reverse acquisition time	0.00gamma	496.2192k internal	0.2331k external	0.2331temperature offset calibration	0.9925default loss term (dB/km)	0.3790temperature slope calibration	1.0000multiplexer offset coefficient	1.0000multiplexer slope coefficient	1.0000fibre end	0.00T internal ref (°C)	29.41T ext. ref 1 (°C)	-0.23T ext. ref 2 (°C)	23.33length (m)	temperature (°C)	Stokes	anti-Stokes-747.200	-154.573	0.257	0.017
-746.185	-71.220	-0.044	0.017
-745.171	42.556	0.101	-0.092
-744.156	-75.836	-0.119	0.042
-743.142	-95.184	0.147	-0.040
-742.127	568.394	-0.067	-0.165
-741.112	642.743	-0.060	-0.155
-740.098	-200.000	-0.057	0.297
-739.083	-200.000	0.000	0.080
-738.069	800.000	0.068	0.228
-737.054	-135.029	0.157	-0.019
-736.039	250.234	-0.154	0.263
-735.025	-9.224	0.122	-0.082
-734.010	-200.000	0.000	0.172
-732.996	73.454	-0.212	0.223
-731.981	-97.381	-0.148	-0.039
-730.966	-200.000	-0.011	0.121
-729.952	6.145	0.315	-0.235
-728.937	332.109	-0.110	0.214
-727.923	328.324	-0.015	0.030
-726.908	485.226	0.175	-0.400
-725.894	800.000	-0.098	-0.286
-724.879	800.000	-0.183	0.557
-723.864	-33.509	0.444	-0.247
-722.850	-200.000	-0.325	-0.001
-721.835	-155.655	0.244	0.016
-720.821	66.619	-0.190	-0.194
-719.806	225.728	-0.119	0.195
-718.791	16.548	0.268	0.213
-717.777	-47.796	-0.215	-0.105
-716.762	-103.090	-0.125	-0.030
-715.748	-119.903	0.205	-0.035
-714.733	800.000	0.033	-0.106
-713.718	-133.964	-0.148	0.018
-712.704	427.506	-0.024	-0.053
-711.689	-145.534	0.323	0.029
-710.675	9.886	0.260	-0.199
-709.660	39.108	0.043	-0.039
-708.645	-111.418	-0.095	-0.020
-707.631	251.321	0.213	-0.365
-706.616	134.444	0.043	0.056
-705.602	-200.000	-0.006	0.355
-704.587	49.228	0.099	-0.094
-703.572	516.077	-0.107	-0.251
-702.558	38.037	-0.172	-0.153
-701.543	16.719	-0.181	0.144
-700.529	800.000	0.082	-0.334
-699.514	-200.000	0.004	0.231
-698.499	253.963	0.124	-0.213
-697.485	-45.276	-0.193	-0.096
-696.470	-185.366	0.177	0.003
-695.456	-112.765	-0.215	0.043
-694.441	-126.600	0.301	-0.045
-693.426	-200.000	0.025	-0.144
-692.412	-200.000	0.025	-0.150
-691.397	-84.283	-0.416	-0.132
-690.383	515.357	0.081	-0.190
-689.368	202.313	-0.123	-0.191
-688.354	-10.283	-0.160	-0.106
-687.339	640.672	-0.063	-0.162
-686.324	-200.000	-0.008	0.289
-685.310	149.920	0.163	0.222
-684.295	800.000	0.030	0.086
-683.281	800.000	-0.024	0.089
-682.266	-156.370	-0.240	-0.015
-681.251	215.153	-0.126	0.200
-680.237	800.000	0.046	-0.158
-679.222	-82.630	-0.135	0.044
-678.208	74.852	-0.161	0.171
-677.193	800.000	-0.045	-0.160
-676.178	428.013	-0.087	-0.190
-675.164	187.880	0.123	-0.185
-674.149	-96.561	0.459	-0.122
-673.135	-40.296	0.014	0.007
-672.120	-134.206	-0.223	0.028
-671.105	562.664	0.118	-0.286
-670.091	287.883	0.244	-0.443
-669.076	53.185	0.046	0.045
-668.062	-200.000	0.020	-0.112
-667.047	-200.000	-0.221	0.001
-666.032	26.688	-0.120	-0.101
-665.018	286.411	-0.232	-0.421
-664.003	76.468	0.339	0.361
-662.989	142.774	-0.002	0.003
-661.974	-200.000	0.012	0.125
-660.959	-47.875	0.113	-0.055
-659.945	-158.874	-0.357	-0.020
-658.930	372.323	-0.183	-0.373
-657.916	-141.999	-0.201	-0.020
-656.901	-150.758	-0.124	-0.009
-655.886	-39.757	0.045	-0.023
-654.872	-97.668	-0.095	-0.025
-653.857	527.754	-0.207	-0.489
-652.843	308.871	-0.107	0.200
-651.828	69.662	-0.298	0.308
-650.814	62.952	-0.405	0.406
-649.799	14.743	-0.016	-0.013
-648.784	-4.876	-0.174	-0.121
-647.770	-37.053	0.357	0.192
-646.755	-161.967	-0.215	0.011
-645.741	-99.400	0.082	-0.021
-644.726	569.660	-0.054	-0.131
-643.711	56.341	-0.132	-0.129
-642.697	800.000	0.137	-0.386
-641.682	-200.000	-0.024	0.134
-640.668	-148.172	0.178	0.015
-639.653	583.147	0.031	-0.077
-638.638	-144.415	-0.169	0.016
-637.624	-105.026	0.121	0.028
-636.609	-200.000	0.062	-0.404
-635.595	-88.330	-0.485	0.145
-634.580	800.000	0.110	-0.327
-633.565	-200.000	0.037	-0.434
-632.551	-79.689	0.246	-0.083
-631.536	595.650	-0.158	-0.392
-630.522	768.831	0.070	0.190
-629.507	99.140	-0.077	-0.089
-628.492	71.110	0.124	-0.129
-627.478	280.877	-0.101	-0.181
-626.463	252.421	0.050	-0.086
-625.449	-111.479	0.200	-0.041
-624.434	30.090	-0.111	0.095
-623.419	-200.000	-0.009	-0.067
-622.405	800.000	-0.060	-0.224
-621.390	145.560	0.123	0.165
-620.376	7.131	-0.203	0.152
-619.361	150.313	0.067	-0.091
-618.346	-69.977	-0.067	0.025
-617.332	-23.391	-0.029	0.017
-616.317	614.352	-0.045	-0.112
-615.303	-200.000	0.045	0.261
-614.288	65.955	0.179	0.182
-613.273	64.470	0.148	-0.149
-612.259	72.081	-0.069	0.072
-611.244	-74.104	0.344	-0.125
-610.230	262.186	-0.201	-0.349
-609.215	-115.606	-0.222	-0.042
-608.201	-173.817	-0.196	0.006
-607.186	-200.000	-0.036	0.332
-606.171	-200.000	0.065	0.321
-605.157	127.646	0.127	-0.162
-604.142	-140.518	-0.163	0.017
-603.128	-200.000	0.006	0.131
-602.113	281.217	0.117	-0.209
-601.098	173.907	-0.285	-0.412
-600.084	-84.384	-0.371	-0.117
-599.069	-144.600	-0.285	-0.026
-598.055	116.833	-0.094	0.115
-597.040	666.441	-0.116	0.301
-596.025	-78.457	-0.239	-0.082
-595.011	-145.941	-0.399	-0.035
-593.996	26.220	-0.078	-0.066
-592.982	800.000	0.023	-0.074
-591.967	534.254	0.085	0.203
-590.952	-40.652	0.082	-0.042
-589.938	166.037	-0.112	-0.159
-588.923	-200.000	0.017	-0.222
-587.909	-200.000	-0.040	0.177
-586.894	225.188	-0.090	0.146
-585.879	130.212	-0.162	-0.208
-584.865	75.747	0.138	-0.146
-583.850	-180.606	0.218	0.004
-582.836	139.662	0.023	-0.030
-581.821	-200.000	-0.010	-0.220
-580.806	-81.440	0.040	0.013
-579.792	22.564	-0.265	-0.217
-578.777	378.917	-0.147	-0.301
-577.763	694.439	0.087	0.230
-576.748	-100.661	0.135	0.033
-575.733	172.738	0.061	0.088
-574.719	-43.122	-0.231	-0.117
-573.704	-133.385	-0.329	0.041
-572.690	800.000	-0.060	-0.261
-571.675	800.000	0.009	0.034
-570.661	-200.000	-0.015	-0.170
-569.646	-12.199	0.244	0.160
-568.631	-153.408	-0.469	-0.033
-567.617	-164.321	-0.258	-0.012
-566.602	229.338	0.129	-0.211
-565.588	203.544	-0.069	0.107
-564.573	-200.000	0.038	0.230
-563.558	101.688	-0.081	0.095
-562.544	6.223	0.069	-0.051
-561.529	-128.566	0.300	0.042
-560.515	-9.943	-0.172	-0.114
-559.500	19.610	0.294	-0.236
-558.485	-200.000	-0.007	0.129
-557.471	397.660	-0.129	-0.269
-556.456	-200.000	0.074	-0.426
-555.442	14.785	-0.158	0.123
-554.427	-200.000	0.024	0.553
-553.412	-200.000	-0.018	-0.096
-552.398	-200.000	0.047	-0.219
-551.383	167.417	-0.052	0.074
-550.369	71.350	0.146	0.151
-549.354	431.485	-0.074	0.160
-548.339	-200.000	-0.055	0.276
-547.325	-37.533	0.039	0.021
-546.310	-103.327	-0.206	-0.048
-545.296	-76.983	-0.291	-0.102
-544.281	294.812	0.035	-0.063
-543.266	800.000	-0.085	-0.246
-542.252	176.585	0.093	-0.135
-541.237	189.625	-0.151	-0.227
-540.223	396.981	-0.120	-0.250
-539.208	-0.959	-0.332	0.234
-538.193	-135.162	-0.182	0.022
-537.179	-200.000	-0.008	-0.060
-536.164	575.971	0.036	-0.087
-535.150	-135.859	0.252	0.030
-534.135	22.478	-0.156	0.127
-533.121	42.093	-0.138	-0.125
-532.106	-200.000	-0.054	-0.240
-531.091	33.905	-0.154	-0.134
-530.077	63.142	-0.176	0.176
-529.062	113.099	0.137	0.166
-528.048	-4.633	-0.218	0.150
-527.033	2.036	-0.263	0.190
-526.018	-117.383	-0.502	0.091
-525.004	-200.000	-0.057	0.350
-523.989	-83.515	0.120	-0.038
-522.975	-200.000	0.038	0.381
-521.960	233.812	0.106	-0.174
-520.945	7.196	0.167	0.125
-519.931	-63.486	0.222	-0.091
-518.916	-200.000	-0.009	0.152
-517.902	-133.767	-0.126	-0.016
-516.887	404.455	0.164	-0.344
-515.872	7.286	0.095	0.071
-514.858	486.096	0.074	0.167
-513.843	-67.130	0.370	0.145
-512.829	-200.000	-0.065	-0.299
-511.814	117.357	0.146	-0.179
-510.799	35.101	0.053	0.046
-509.785	156.588	-0.211	-0.291
-508.770	-200.000	0.054	0.263
-507.756	285.298	-0.098	-0.176
-506.741	-200.000	0.002	-0.324
-505.726	-27.652	-0.158	-0.091
-504.712	27.730	0.201	-0.169
-503.697	-200.000	0.021	-0.171
-502.683	-91.972	0.271	0.076
-501.668	288.278	0.190	0.343
-500.653	-105.828	-0.067	0.015
-499.639	142.739	0.209	-0.277
-498.624	-28.383	-0.128	-0.074
-497.610	800.000	-0.085	-0.347
-496.595	-200.000	0.023	0.306
-495.581	-63.176	-0.159	-0.065
-494.566	-200.000	0.030	-0.151
-493.551	-38.255	0.089	-0.047
-492.537	94.720	0.085	-0.096
-491.522	-200.000	0.008	-0.151
-490.508	55.064	-0.090	0.086
-489.493	-0.564	-0.051	-0.036
-488.478	800.000	0.052	0.222
-487.464	-200.000	0.036	-0.369
-486.449	63.567	-0.155	-0.155
-485.435	-12.595	0.064	-0.041
-484.420	311.996	-0.152	0.283
-483.405	89.089	0.213	0.236
-482.391	-56.980	-0.197	-0.087
-481.376	-200.000	-0.014	-0.182
-480.362	-109.942	-0.359	-0.075
-479.347	-200.000	-0.026	-0.319
-478.332	-200.000	0.022	-0.138
-477.318	403.203	-0.197	-0.413
-476.303	-140.840	0.274	0.028
-475.289	111.388	0.141	-0.169
-474.274	141.173	-0.088	-0.116
-473.259	81.177	-0.126	0.135
-472.245	590.177	0.084	-0.207
-471.230	89.776	-0.120	-0.133
-470.216	51.255	0.244	0.230
-469.201	51.197	0.132	-0.124
-468.186	-80.449	0.341	0.113
-467.172	733.130	0.098	-0.262
-466.157	153.496	-0.028	0.038
-465.143	73.434	-0.166	-0.173
-464.128	-81.314	-0.141	-0.046
-463.113	219.042	-0.125	0.199
-462.099	-179.513	0.097	0.002
-461.084	99.356	-0.225	-0.259
-460.070	-75.697	-0.274	0.097
-459.055	800.000	-0.151	0.419
-458.040	-48.586	0.186	-0.089
-457.026	231.873	0.144	0.235
-456.011	610.882	0.109	0.272
-454.997	-44.181	0.039	-0.020
-453.982	-200.000	0.059	-0.525
-452.968	733.906	0.126	0.336
-451.953	800.000	-0.039	0.134
-450.938	33.792	0.106	-0.092
-449.924	9.953	-0.421	-0.318
-448.909	-200.000	0.040	-0.189
-447.895	678.458	-0.041	0.105
-446.880	244.580	-0.139	0.232
-445.865	204.314	0.153	0.236
-444.851	48.808	0.156	-0.145
-443.836	-17.371	-0.089	0.056
-442.822	-109.906	0.276	0.058
-441.807	-1.033	0.323	-0.228
-440.792	119.317	0.128	0.157
-439.778	169.462	0.162	0.230
-438.763	-9.315	-0.135	-0.090
-437.749	371.569	-0.088	0.178
-436.734	-45.658	-0.242	-0.119
-435.719	-200.000	-0.080	-0.422
-434.705	660.880	-0.158	0.405
-433.690	139.519	-0.111	-0.145
-432.676	800.000	0.050	0.192
-431.661	-124.634	-0.351	-0.054
-430.646	-107.169	0.010	-0.002
-429.632	521.708	-0.033	0.078
-428.617	35.955	-0.069	0.060
-427.603	86.252	0.120	0.131
-426.588	-40.972	-0.164	-0.084
-425.573	-200.000	-0.038	0.286
-424.559	-200.000	-0.009	0.137
-423.544	-68.555	-0.049	0.019
-422.530	-28.268	-0.163	0.093
-421.515	112.058	0.128	0.153
-420.500	168.983	0.239	0.339
-419.486	392.212	0.016	-0.033
-418.471	481.334	-0.095	0.214
-417.457	0.075	0.265	-0.188
-416.442	-200.000	-0.115	-0.553
-415.428	616.730	0.074	-0.184
-414.413	-152.277	0.485	-0.035
-413.398	-38.965	0.135	0.071
-412.384	440.105	0.109	-0.236
-411.369	-200.000	0.023	0.536
-410.355	-200.000	-0.022	-0.239
-409.340	-128.674	0.166	0.023
-408.325	-88.246	0.272	-0.081
-407.311	186.207	0.174	-0.258
-406.296	-1.736	0.017	0.012
-405.282	-200.000	-0.050	0.560
-404.267	-200.000	-0.035	0.303
-403.252	187.498	0.129	-0.191
-402.238	461.464	-0.139	-0.308
-401.223	116.661	-0.121	0.148
-400.209	27.923	-0.208	-0.174
-399.194	15.850	-0.177	0.138
-398.179	-54.035	0.379	0.171
-397.165	800.000	0.053	-0.210
-396.150	-8.118	-0.200	0.134
-395.136	-200.000	-0.019	-0.252
-394.121	-138.697	0.089	0.010
-393.106	434.898	0.189	-0.409
-392.092	-200.000	0.020	-0.125
-391.077	-200.000	0.004	0.043
-390.063	-125.677	-0.230	0.035
-389.048	-200.000	0.047	0.366
-388.033	800.000	-0.134	0.450
-387.019	-200.000	0.001	0.081
-386.004	139.805	0.064	0.083
-384.990	-40.018	-0.211	-0.109
-383.975	464.822	0.066	-0.146
-382.960	-108.056	0.381	-0.082
-381.946	175.891	-0.041	0.060
-380.931	125.009	-0.097	-0.121
-379.917	-200.000	-0.062	-0.300
-378.902	9.916	-0.152	-0.115
-377.888	435.525	0.158	0.340
-376.873	-141.894	0.270	0.027
-375.858	133.105	-0.102	0.130
-374.844	103.154	-0.088	-0.102
-373.829	-200.000	-0.020	0.093
-372.815	-200.000	-0.058	-0.290
-371.800	293.743	-0.209	-0.378
-370.785	-6.527	-0.076	-0.051
-369.771	-47.699	0.284	-0.137
-368.756	-139.522	0.192	-0.020
-367.742	-49.081	0.154	0.073
-366.727	-64.510	-0.206	0.083
-365.712	800.000	0.065	-0.278
-364.698	61.760	-0.171	0.169
-363.683	-132.458	-0.163	0.021
-362.669	325.477	0.020	-0.038
-361.654	800.000	0.073	-0.223
-360.639	-200.000	0.006	-0.207
-359.625	-200.000	0.018	0.132
-358.610	-113.325	-0.163	-0.032
-357.596	763.369	0.033	-0.088
-356.581	-26.101	-0.054	-0.031
-355.566	-101.354	0.370	0.089
-354.552	-32.969	-0.100	-0.055
-353.537	17.211	-0.115	0.090
-352.523	-51.057	-0.283	0.131
-351.508	201.137	-0.074	0.113
-350.493	119.903	-0.065	-0.080
-349.479	585.476	0.037	-0.090
-348.464	105.104	-0.138	0.161
-347.450	800.000	0.047	0.183
-346.435	-47.130	0.239	-0.115
-345.420	-15.302	-0.131	-0.083
-344.406	71.956	-0.135	-0.140
-343.391	-34.683	0.320	-0.173
-342.377	-200.000	0.054	0.383
-341.362	61.891	-0.253	-0.249
-340.348	231.734	-0.136	0.221
-339.333	-11.644	0.062	0.040
-338.318	-77.909	0.181	-0.062
-337.304	-41.467	0.172	-0.088
-336.289	-87.027	0.178	0.054
-335.275	800.000	0.024	-0.087
-334.260	-68.261	-0.129	0.050
-333.245	-75.630	-0.181	0.064
-332.231	203.670	0.107	0.164
-331.216	800.000	-0.082	0.310
-330.202	-87.775	-0.133	0.040
-329.187	800.000	0.108	0.371
-328.172	800.000	-0.113	0.446
-327.158	-200.000	0.005	0.347
-326.143	194.433	0.200	0.300
-325.129	-179.980	0.145	-0.003
-324.114	-143.793	0.196	-0.018
-323.099	197.529	0.214	-0.324
-322.085	-200.000	0.039	0.311
-321.070	-200.000	0.014	-0.132
-320.056	203.431	0.077	-0.118
-319.041	280.294	-0.121	-0.213
-318.026	320.963	0.173	0.326
-317.012	2.721	-0.238	0.171
-315.997	259.830	-0.114	0.195
-314.983	-38.604	-0.213	0.111
-313.968	35.213	0.228	-0.198
-312.953	44.237	0.229	-0.208
-311.939	276.442	-0.177	-0.311
-310.924	112.888	0.355	0.425
-309.910	411.308	0.087	0.182
-308.895	156.947	0.104	0.142
-307.880	-7.543	0.109	0.073
-306.866	-200.000	-0.029	0.158
-305.851	-100.930	0.328	0.080
-304.837	800.000	-0.023	0.086
-303.822	800.000	-0.098	-0.410
-302.807	-45.171	-0.103	0.051
-301.793	4.692	-0.052	-0.038
-300.778	-200.000	-0.037	0.420
-299.764	-200.000	-0.045	-0.328
-298.749	107.543	0.118	-0.139
-297.735	330.681	-0.152	0.290
-296.720	31.381	0.099	0.084
-295.705	642.661	0.226	-0.569
-294.691	-167.361	0.196	0.008
-293.676	-30.893	0.083	0.047
-292.662	-142.383	0.386	0.038
-291.647	-50.399	-0.366	-0.171
-290.632	-120.938	0.211	-0.035
-289.618	81.185	0.190	0.203
-288.603	780.961	-0.055	-0.148
-287.589	-200.000	0.007	-0.150
-286.574	-50.844	-0.119	-0.055
-285.559	-114.094	0.203	-0.039
-284.545	-3.797	-0.037	-0.026
-283.530	-147.007	-0.181	0.015
-282.516	-51.623	0.179	0.082
-281.501	-42.604	0.249	0.125
-280.486	756.104	-0.129	0.346
-279.472	800.000	-0.033	0.100
-278.457	-200.000	-0.038	0.282
-277.443	161.617	0.153	-0.212
-276.428	-24.612	-0.115	-0.068
-275.413	-200.000	-0.030	0.211
-274.399	493.290	0.130	0.295
-273.384	318.551	0.031	0.057
-272.370	-96.345	-0.199	-0.052
-271.355	-123.675	0.099	-0.016
-270.340	-0.693	0.035	0.025
-269.326	-138.719	0.148	-0.016
-268.311	80.191	-0.118	0.125
-267.297	-108.198	0.077	-0.016
-266.282	59.975	-0.085	-0.083
-265.267	-132.145	0.336	0.043
-264.253	38.380	-0.263	0.231
-263.238	426.843	0.090	0.191
-262.224	-200.000	0.006	0.118
-261.209	19.413	-0.303	-0.240
-260.195	-200.000	0.063	0.380
-259.180	-19.033	0.374	0.230
-258.165	800.000	0.115	0.320
-257.151	800.000	0.051	0.142
-256.136	78.841	0.047	0.049
-255.122	-172.625	-0.114	-0.004
-254.107	775.924	-0.080	-0.215
-253.092	74.615	0.264	-0.274
-252.078	-24.990	0.277	0.162
-251.063	-110.369	-0.401	-0.082
-250.049	-186.073	0.127	0.002
-249.034	-149.535	0.250	-0.020
-248.019	-60.271	0.205	0.086
-247.005	-33.625	0.369	-0.201
-245.990	800.000	0.059	-0.204
-244.976	27.620	0.208	-0.173
-243.961	231.888	-0.149	0.242
-242.946	106.176	0.256	0.299
-241.932	-19.991	-0.226	0.137
-240.917	800.000	-0.095	-0.289
-239.903	800.000	0.092	-0.341
-238.888	-133.726	0.055	0.007
-237.873	-113.340	0.227	0.044
-236.859	-37.994	-0.138	0.072
-235.844	-16.272	0.241	0.151
-234.830	162.909	-0.083	0.114
-233.815	411.582	0.152	-0.318
-232.800	-149.384	-0.053	0.004
-231.786	-15.897	0.077	-0.049
-230.771	-84.852	-0.260	-0.081
-229.757	-200.000	-0.016	-0.094
-228.742	147.421	0.280	0.372
-227.727	118.669	0.218	0.266
-226.713	800.000	-0.091	-0.274
-225.698	-200.000	0.104	0.468
-224.684	-46.639	0.163	-0.079
-223.669	95.679	0.106	0.120
-222.655	36.418	0.071	0.062
-221.640	25.725	-0.195	0.160
-220.625	7.197	-0.298	-0.219
-219.611	-11.046	-0.204	-0.133
-218.596	-200.000	0.010	-0.061
-217.582	-59.134	0.197	0.084
-216.567	-103.550	0.363	0.084
-215.552	-110.862	-0.221	-0.045
-214.538	-122.455	-0.329	0.053
-213.523	-200.000	0.025	-0.112
-212.509	637.265	0.149	-0.374
-211.494	127.153	-0.136	0.170
-210.479	-12.080	0.048	-0.031
-209.465	403.927	-0.017	-0.036
-208.450	-119.583	0.332	0.057
-207.436	800.000	-0.043	-0.165
-206.421	-46.194	-0.263	-0.128
-205.406	580.494	0.054	-0.129
-204.392	-58.934	-0.245	-0.104
-203.377	203.867	-0.193	-0.294
-202.363	-113.783	-0.305	0.059
-201.348	-200.000	0.021	0.260
-200.333	-137.099	-0.464	-0.052
-199.319	-85.559	-0.172	0.053
-198.304	-14.287	-0.225	0.143
-197.290	-20.070	-0.088	-0.054
-196.275	-77.822	0.372	0.127
-195.260	-84.130	-0.264	-0.083
-194.246	800.000	-0.042	0.169
-193.231	800.000	-0.083	0.306
-192.217	-96.287	-0.129	0.034
-191.202	56.428	-0.084	0.081
-190.187	-81.551	0.258	0.083
-189.173	588.570	-0.070	0.169
-188.158	-45.251	-0.253	0.124
-187.144	-200.000	0.001	0.008
-186.129	17.582	0.082	-0.065
-185.114	-80.866	0.493	-0.161
-184.100	-4.109	0.123	-0.084
-183.085	800.000	-0.026	-0.105
-182.071	-200.000	-0.014	0.325
-181.056	-105.025	-0.045	0.010
-180.042	69.179	-0.074	-0.074
-179.027	-4.446	0.376	0.256
-178.012	27.650	0.093	0.077
-176.998	-200.000	-0.004	0.301
-175.983	-96.524	-0.050	0.013
-174.969	-31.008	-0.342	0.190
-173.954	-200.000	-0.023	0.107
-172.939	6.456	-0.104	-0.076
-171.925	-174.043	0.390	-0.011
-170.910	800.000	-0.066	0.275
-169.896	314.512	-0.132	0.244
-168.881	221.324	-0.218	-0.344
-167.866	79.389	0.163	0.173
-166.852	29.683	-0.237	-0.198
-165.837	-200.000	-0.016	0.244
-164.823	515.478	-0.008	0.019
-163.808	142.769	-0.190	-0.249
-162.793	-142.197	-0.078	0.008
-161.779	-124.500	0.254	0.039
-160.764	316.854	0.079	-0.148
-159.750	-55.498	-0.224	-0.099
-158.735	-137.278	-0.092	-0.010
-157.720	42.077	0.127	-0.113
-156.706	-76.407	0.332	-0.115
-155.691	20.876	-0.077	0.061
-154.677	800.000	0.102	0.299
-153.662	800.000	0.055	-0.168
-152.647	74.557	0.294	0.305
-151.633	690.228	-0.124	0.319
-150.618	-200.000	-0.014	0.087
-149.604	12.702	0.108	-0.082
-148.589	312.718	-0.023	-0.042
-147.574	-87.322	-0.402	0.120
-146.560	-117.838	0.111	-0.020
-145.545	-200.000	-0.083	-0.457
-144.531	20.681	-0.255	0.203
-143.516	22.150	0.255	0.205
-142.502	-200.000	0.021	-0.172
-141.487	134.926	0.146	0.186
-140.472	-82.670	-0.249	-0.079
-139.458	-200.000	0.036	0.198
-138.443	-35.007	-0.222	-0.119
-137.429	-200.000	0.004	-0.150
-136.414	339.031	-0.039	0.075
-135.399	-123.844	0.111	-0.017
-134.385	-156.563	-0.262	-0.016
-133.370	-25.474	0.098	0.057
-132.356	104.322	-0.159	0.184
-131.341	12.239	-0.177	0.134
-130.326	22.479	0.147	0.118
-129.312	-185.937	0.114	0.002
-128.297	-61.757	0.143	0.059
-127.283	788.417	-0.123	0.331
-126.268	24.335	0.131	-0.106
-125.253	-200.000	0.003	-0.038
-124.239	-143.573	-0.037	0.003
-123.224	-200.000	0.046	0.280
-122.210	-26.947	0.107	0.062
-121.195	-200.000	0.019	-0.184
-120.180	61.480	0.276	-0.269
-119.166	-99.192	0.114	-0.028
-118.151	131.905	-0.148	-0.187
-117.137	-200.000	-0.006	0.082
-116.122	226.272	0.137	-0.219
-115.107	-160.964	0.257	0.013
-114.093	258.650	-0.277	0.468
-113.078	87.527	-0.091	0.099
-112.064	-63.739	-0.202	-0.081
-111.049	-94.941	-0.171	0.045
-110.034	10.160	0.160	-0.120
-109.020	-10.261	-0.149	0.097
-108.005	-200.000	0.006	0.447
-106.991	-115.579	0.066	-0.012
-105.976	-79.162	0.102	0.034
-104.962	800.000	-0.020	-0.080
-103.947	-200.000	-0.006	0.101
-102.932	-102.632	-0.077	0.018
-101.918	100.131	-0.233	-0.265
-100.903	61.426	0.120	-0.118
-99.889	108.388	-0.061	0.071
-98.874	-83.561	0.331	-0.104
-97.859	263.893	-0.168	-0.287
-96.845	-130.003	0.520	-0.070
-95.830	439.960	0.070	-0.149
-94.816	-4.908	0.025	-0.017
-93.801	73.543	-0.232	0.238
-92.786	359.386	-0.149	0.291
-91.772	20.893	0.179	0.142
-90.757	85.620	-0.219	-0.236
-89.743	613.769	0.073	-0.179
-88.728	-48.019	0.309	0.147
-87.713	-160.026	-0.068	0.004
-86.699	800.000	-0.055	0.187
-85.684	17.651	0.130	0.102
-84.670	-200.000	0.001	-0.093
-83.655	631.666	-0.099	-0.245
-82.640	-200.000	0.020	-0.105
-81.626	-200.000	0.008	0.077
-80.611	571.843	0.063	-0.150
-79.597	288.759	0.109	-0.193
-78.582	-200.000	0.009	0.235
-77.567	-60.343	0.103	0.043
-76.553	43.246	0.149	0.133
-75.538	22.611	-0.025	-0.020
-74.524	724.619	0.064	-0.168
-73.509	-57.139	-0.169	0.073
-72.494	-100.039	0.474	-0.116
-71.480	-200.000	-0.000	-0.421
-70.465	183.274	-0.128	-0.186
-69.451	800.000	0.068	-0.256
-68.436	800.000	0.087	-0.300
-67.422	800.000	0.133	-0.503
-66.407	-99.843	0.448	0.110
-65.392	-49.197	0.078	-0.037
-64.378	33.133	0.268	0.228
-63.363	6.379	0.219	0.159
-62.349	97.385	-0.255	0.287
-61.334	124.940	-1.009	-1.246
-60.319	-86.445	0.740	0.223
-59.305	121.849	-0.557	-0.681
-58.290	223.516	0.623	0.984
-57.276	434.312	0.600	1.278
-56.261	-200.000	107.086	618.072
-55.246	505.045	1512.825	3432.434
-54.232	176.151	2703.371	3845.794
-53.217	111.472	2164.612	2557.320
-52.203	41.405	1599.926	1418.008
-51.188	32.888	1334.852	1132.213
-50.173	29.804	1293.004	1078.726
-49.159	54.516	1347.828	1272.261
-48.144	54.644	1363.131	1287.415
-47.130	33.007	1317.593	1118.102
-46.115	29.534	1299.937	1082.749
-45.100	29.320	1295.094	1077.427
-44.086	29.299	1292.684	1075.254
-43.071	29.200	1290.603	1072.904
-42.057	29.260	1287.880	1070.948
-41.042	29.288	1286.304	1069.755
-40.027	29.323	1284.888	1068.737
-39.013	29.402	1282.817	1067.435
-37.998	29.302	1281.244	1065.505
-36.984	29.377	1279.453	1064.402
-35.969	29.480	1277.459	1063.298
-34.954	29.449	1275.942	1061.811
-33.940	29.443	1274.455	1060.498
-32.925	29.476	1273.224	1059.624
-31.911	29.484	1271.968	1058.579
-30.896	29.453	1270.365	1057.029
-29.881	29.508	1269.032	1056.191
-28.867	29.588	1267.435	1055.274
-27.852	29.561	1265.844	1053.754
-26.838	29.512	1264.852	1052.608
-25.823	29.461	1263.550	1051.193
-24.809	29.485	1262.005	1050.000
-23.794	29.359	1261.296	1048.655
-22.779	29.507	1259.334	1047.823
-21.765	29.502	1257.921	1046.578
-20.750	29.532	1256.774	1045.750
-19.736	29.407	1255.556	1043.986
-18.721	29.289	1254.313	1042.249
-17.706	29.384	1253.358	1041.947
-16.692	29.349	1252.217	1040.761
-15.677	29.385	1251.492	1040.318
-14.663	29.214	1250.664	1038.628
-13.648	29.334	1248.976	1037.861
-12.633	29.368	1247.793	1037.025
-11.619	29.273	1247.204	1035.961
-10.604	29.383	1246.132	1035.645
-9.590	29.352	1245.574	1034.971
-8.575	29.401	1244.002	1033.895
-7.560	29.373	1243.586	1033.353
-6.546	29.275	1242.958	1032.238
-5.531	29.371	1242.089	1032.013
-4.517	29.287	1241.275	1030.826
-3.502	29.347	1240.383	1030.384
-2.487	29.411	1239.608	1030.055
-1.473	29.397	1234.992	1026.101
-0.458	27.983	1220.469	1006.213
0.556	22.156	1203.281	969.055
1.571	18.671	1209.168	954.364
2.586	17.995	1223.783	962.009
3.600	17.893	1213.593	953.346
4.615	13.583	1142.787	874.930
5.629	4.629	1068.741	773.778
6.644	0.200	1048.135	737.140
7.659	-0.344	1046.022	732.931
8.673	-0.381	1044.515	731.634
9.688	-0.383	1042.984	730.485
10.702	0.194	1041.678	732.314
11.717	6.221	1050.079	767.635
12.731	15.268	1063.254	821.729
13.746	19.624	1068.433	847.068
14.761	20.667	1070.296	853.587
15.775	20.819	1069.086	853.294
16.790	20.590	1068.549	851.668
17.804	20.467	1068.173	850.687
18.819	20.547	1067.961	850.836
19.834	20.583	1067.467	850.545
20.848	20.679	1066.857	850.452
21.863	20.729	1066.130	850.040
22.877	20.694	1065.342	849.165
23.892	20.603	1064.796	848.214
24.907	20.661	1064.183	847.932
25.921	20.701	1062.848	846.987
26.936	20.662	1061.666	845.781
27.950	20.635	1059.793	844.082
28.965	20.464	1057.800	841.592
29.980	20.564	1056.528	840.990
30.994	20.830	1055.361	841.273
32.009	20.731	1054.360	839.920
33.023	20.519	1053.023	837.763
34.038	20.598	1052.409	837.579
35.053	20.728	1051.606	837.495
36.067	20.699	1050.964	836.769
37.082	20.823	1049.879	836.425
38.096	20.977	1049.015	836.402
39.111	20.986	1048.077	835.624
40.126	20.903	1046.676	834.036
41.140	20.522	1044.972	830.782
42.155	20.419	1043.443	828.999
43.169	20.348	1042.936	828.187
44.184	20.369	1041.774	827.291
45.199	20.320	1040.899	826.292
46.213	20.331	1040.241	825.746
47.228	20.440	1039.597	825.681
48.242	20.552	1038.570	825.321
49.257	20.635	1037.665	824.925
50.271	20.730	1036.854	824.656
51.286	20.871	1035.786	824.402
52.301	20.739	1035.428	823.418
53.315	20.626	1034.174	821.817
54.330	20.619	1033.278	820.997
55.344	20.821	1031.731	820.648
56.359	20.689	1031.164	819.501
57.374	20.439	1030.300	817.567
58.388	20.498	1029.918	817.470
59.403	20.403	1029.031	816.248
60.417	20.363	1027.590	814.842
61.432	20.521	1027.122	815.140
62.447	20.563	1026.364	814.662
63.461	20.585	1025.832	814.272
64.476	20.478	1024.913	812.969
65.490	20.396	1023.746	811.590
66.505	20.391	1023.150	811.022
67.520	20.498	1022.133	810.644
68.534	20.369	1020.993	809.066
69.549	20.086	1019.616	806.586
70.563	20.060	1019.455	806.269
71.578	20.015	1018.696	805.388
72.593	19.901	1017.379	803.743
73.607	19.957	1017.204	803.793
74.622	20.421	1016.155	805.044
75.636	20.396	1015.955	804.702
76.651	20.216	1014.867	802.933
77.666	20.071	1014.377	801.805
78.680	20.212	1014.069	802.141
79.695	20.368	1013.029	801.971
80.709	20.369	1012.703	801.645
81.724	20.351	1011.440	800.491
82.739	20.462	1010.698	800.345
83.753	20.728	1010.521	801.358
84.768	20.833	1009.768	801.176
85.782	20.974	1008.776	800.962
86.797	20.918	1007.310	799.475
87.812	20.786	1006.321	798.012
88.826	21.011	1005.247	798.120
89.841	21.060	1004.032	797.310
90.855	21.022	1003.461	796.611
91.870	20.969	1002.403	795.459
92.884	20.678	1001.674	793.485
93.899	20.840	1000.108	792.911
94.914	20.888	999.660	792.703
95.928	20.811	998.522	791.382
96.943	20.486	997.435	788.975
97.957	20.211	996.325	786.780
98.972	20.076	995.549	785.482
99.987	20.431	994.849	786.471
101.001	20.374	994.315	785.719
102.016	20.564	993.118	785.562
103.030	20.546	992.054	784.572
104.045	20.338	991.275	782.945
105.060	20.224	990.078	781.417
106.074	20.452	989.340	781.795
107.089	20.872	988.586	783.015
108.103	20.662	987.703	781.307
109.118	20.377	986.729	779.185
110.133	20.364	985.542	778.123
111.147	20.311	984.293	776.830
112.162	20.020	983.277	774.660
113.176	20.397	981.976	775.250
114.191	20.240	981.749	774.301
115.206	19.864	980.832	771.829
116.220	20.012	979.823	771.629
117.235	20.196	978.971	771.708
118.249	20.278	977.595	770.919
119.264	19.901	977.272	768.922
120.279	20.236	976.220	769.513
121.293	20.160	975.813	768.787
122.308	20.119	975.199	768.052
123.322	20.248	973.548	767.254
124.337	20.008	972.012	764.917
125.352	19.582	970.480	761.764
126.366	19.562	969.553	760.880
127.381	20.403	969.306	764.325
128.395	20.631	969.093	765.090
129.410	20.728	968.077	764.649
130.424	20.688	967.110	763.639
131.439	20.702	965.859	762.648
132.454	20.656	965.237	761.888
133.468	20.512	964.065	760.266
134.483	20.754	963.456	760.776
135.497	20.848	962.958	760.725
136.512	20.872	962.206	760.167
137.527	20.966	960.996	759.555
138.541	20.944	960.304	758.843
139.556	20.902	959.388	757.869
140.570	20.889	958.943	757.396
141.585	20.881	957.699	756.310
142.600	20.857	956.701	755.352
143.614	21.077	955.977	755.665
144.629	21.117	955.190	755.152
145.643	20.933	954.149	753.468
146.658	20.750	952.931	751.647
147.673	20.685	951.725	750.348
148.687	20.699	950.515	749.390
149.702	20.678	949.820	748.685
150.716	20.728	948.703	747.951
151.731	20.831	948.404	748.092
152.746	21.029	947.522	748.180
153.760	21.003	947.136	747.700
154.775	21.009	946.104	746.843
155.789	20.950	945.348	745.930
156.804	20.979	944.426	745.259
157.819	21.071	944.054	745.290
158.833	21.198	943.088	745.006
159.848	21.165	942.002	743.941
160.862	21.103	940.559	742.472
161.877	21.299	939.511	742.412
162.892	21.071	939.161	741.100
163.906	20.991	937.979	739.761
164.921	21.042	936.696	738.901
165.935	21.180	935.809	738.722
166.950	21.141	934.859	737.739
167.964	20.923	934.320	736.330
168.979	20.843	933.338	735.152
169.994	20.840	932.192	734.170
171.008	21.026	931.951	734.699
172.023	21.027	931.288	734.118
173.037	20.845	929.837	732.143
174.052	20.692	929.038	730.807
175.067	20.672	928.489	730.228
176.081	20.894	927.914	730.641
177.096	20.887	927.087	729.898
178.110	20.597	926.150	727.880
179.125	20.349	925.490	726.260
180.140	20.555	924.905	726.596
181.154	20.638	924.475	726.544
182.169	20.925	924.479	727.680
183.183	21.138	923.775	727.948
184.198	20.988	922.801	726.494
185.213	20.950	922.246	725.831
186.227	21.069	921.625	725.774
187.242	21.137	920.788	725.336
188.256	21.127	920.104	724.691
189.271	21.249	919.504	724.657
190.286	20.881	917.940	721.838
191.300	20.208	917.074	718.308
192.315	19.564	915.470	714.324
193.329	19.447	915.493	713.796
194.344	20.412	915.599	717.807
195.359	20.908	915.413	719.644
196.373	21.024	915.161	719.863
197.388	20.734	914.230	717.868
198.402	20.893	913.416	717.823
199.417	20.841	912.887	717.130
200.432	20.550	911.964	715.144
201.446	20.357	911.409	713.850
202.461	20.651	910.152	714.010
203.475	19.629	908.583	708.529
204.490	18.973	907.227	704.719
205.504	19.841	907.909	708.746
206.519	20.533	907.538	711.226
207.534	20.573	907.088	710.972
208.548	20.966	907.071	712.502
209.563	20.717	906.031	710.606
210.577	20.718	905.863	710.416
211.592	21.057	905.068	711.113
212.607	20.986	904.392	710.230
213.621	21.200	903.336	710.209
214.636	21.084	902.808	709.258
215.650	20.953	902.515	708.431
216.665	21.159	901.758	708.613
217.680	21.078	900.703	707.391
218.694	20.731	899.677	705.119
219.709	20.514	899.495	704.032
220.723	20.821	898.579	704.496
221.738	20.892	897.428	703.820
222.753	20.901	897.217	703.628
223.767	21.080	896.586	703.794
224.782	21.253	896.444	704.314
225.796	21.191	895.736	703.450
226.811	20.511	894.774	699.892
227.826	19.935	893.180	696.267
228.840	20.135	892.827	696.737
229.855	20.149	892.289	696.311
230.869	19.889	890.891	694.112
231.884	20.462	890.941	696.391
232.899	20.942	891.157	698.419
233.913	20.911	890.458	697.687
234.928	21.047	889.464	697.391
235.942	20.716	889.718	696.204
236.957	20.407	888.603	694.033
237.972	20.585	887.654	693.943
238.986	20.633	886.927	693.503
240.001	20.602	886.680	693.125
241.015	20.729	885.956	693.007
242.030	20.950	885.483	693.453
243.045	21.071	884.815	693.347
244.059	21.071	884.531	693.065
245.074	20.826	883.606	691.306
246.088	20.467	882.941	689.300
247.103	20.901	882.205	690.386
248.117	21.259	882.390	691.889
249.132	21.517	882.079	692.604
250.147	21.530	881.460	692.108
251.161	21.844	880.501	692.533
252.176	21.627	880.267	691.432
253.190	21.844	879.442	691.580
254.205	21.936	879.048	691.569
255.220	22.107	878.234	691.540
256.234	21.851	877.272	689.717
257.249	21.701	876.638	688.569
258.263	21.666	876.137	687.977
259.278	21.876	875.582	688.303
260.293	21.820	874.991	687.558
261.307	21.674	874.185	686.293
262.322	21.477	873.483	684.911
263.336	20.676	871.015	679.783
264.351	19.772	869.473	674.994
265.366	19.839	869.261	675.030
266.380	20.998	870.043	680.101
267.395	21.235	869.797	680.772
268.409	21.348	868.722	680.310
269.424	21.549	868.482	680.846
270.439	21.541	867.826	680.239
271.453	21.727	867.327	680.510
272.468	21.869	866.847	680.627
273.482	21.803	866.644	680.149
274.497	21.520	864.620	677.407
275.512	21.132	864.251	675.554
276.526	21.486	864.225	676.843
277.541	21.649	864.061	677.288
278.555	21.394	862.760	675.222
279.570	21.258	862.228	674.222
280.585	21.484	861.537	674.492
281.599	21.419	860.599	673.449
282.614	20.665	859.674	669.763
283.628	20.893	858.743	669.854
284.643	21.266	858.848	671.312
285.657	20.729	857.647	668.253
286.672	20.478	856.408	666.266
287.687	21.142	856.720	668.994
288.701	21.211	856.083	668.702
289.716	20.902	854.860	666.507
290.730	20.895	854.522	666.159
291.745	20.542	853.608	664.038
292.760	20.981	853.619	665.664
293.774	21.719	853.963	668.692
294.789	22.165	853.525	669.992
295.803	22.146	852.971	669.422
296.818	22.210	852.324	669.101
297.833	21.822	851.185	666.673
298.847	21.511	850.289	664.728
299.862	21.828	850.194	665.801
300.876	22.177	849.872	666.814
301.891	21.998	849.265	665.600
302.906	21.556	848.401	663.189
303.920	21.896	847.626	663.813
304.935	22.038	847.747	664.385
305.949	22.146	846.901	664.073
306.964	21.750	846.248	662.005
307.979	21.792	846.090	661.981
308.993	22.235	845.480	663.117
310.008	22.251	844.785	662.574
311.022	21.849	844.170	660.518
312.037	21.882	843.372	659.961
313.052	21.472	842.790	657.905
314.066	20.834	840.976	654.033
315.081	20.437	840.286	651.951
316.095	21.490	840.389	655.924
317.110	21.755	840.411	656.876
318.125	20.993	838.986	652.853
319.139	19.960	837.527	647.797
320.154	20.046	837.222	647.825
321.168	20.877	837.523	651.107
322.183	21.392	837.916	653.277
323.197	21.587	837.342	653.503
324.212	21.834	836.958	654.067
325.227	21.929	836.075	653.673
326.241	21.859	835.227	652.692
327.256	21.664	835.169	651.861
328.270	21.738	834.139	651.277
329.285	21.583	833.250	649.947
330.300	21.234	832.897	648.320
331.314	21.526	832.298	648.878
332.329	21.739	832.615	649.860
333.343	22.010	832.027	650.345
334.358	21.924	831.439	649.510
335.373	22.021	831.331	649.729
336.387	22.319	831.001	650.513
337.402	22.296	830.690	650.130
338.416	22.339	830.283	649.910
339.431	22.481	830.031	650.179
340.446	22.606	829.693	650.319
341.460	22.266	829.449	648.817
342.475	22.195	828.745	647.945
343.489	22.246	828.644	647.998
344.504	22.627	828.312	649.085
345.519	22.789	828.092	649.450
346.533	22.857	827.302	649.025
347.548	22.933	826.726	648.794
348.562	22.862	826.175	648.044
349.577	22.600	825.723	646.669
350.592	22.750	825.039	646.626
351.606	22.881	824.185	646.379
352.621	22.843	822.631	644.966
353.635	22.495	822.405	643.461
354.650	21.823	820.997	639.852
355.665	20.919	819.714	635.499
356.679	21.296	819.844	636.919
357.694	21.849	819.264	638.427
358.708	21.754	818.537	637.457
359.723	22.185	818.353	638.825
360.738	22.377	817.888	639.103
361.752	22.557	817.376	639.299
362.767	22.894	817.058	640.212
363.781	23.074	816.969	640.738
364.796	23.142	816.373	640.461
365.810	23.187	816.161	640.404
366.825	23.129	815.868	639.905
367.840	22.721	815.110	637.778
368.854	22.379	814.096	635.694
369.869	22.516	813.692	635.816
370.883	22.534	813.197	635.441
371.898	22.220	812.910	634.026
372.913	22.514	812.649	634.827
373.927	22.503	812.366	634.509
374.942	22.642	811.606	634.362
375.956	22.855	811.193	634.749
376.971	22.763	810.874	634.112
377.986	23.001	810.910	634.937
379.000	23.055	809.951	634.323
380.015	22.784	809.247	632.745
381.029	22.980	808.962	633.169
382.044	23.021	808.503	632.900
383.059	23.095	807.620	632.420
384.073	23.120	807.527	632.378
385.088	23.010	806.668	631.257
386.102	22.920	805.721	630.141
387.117	22.823	805.522	629.581
388.132	22.516	804.106	627.327
389.146	22.062	803.342	625.062
390.161	22.250	803.570	625.851
391.175	22.764	803.170	627.313
392.190	22.371	801.932	624.896
393.205	21.092	799.918	618.739
394.219	19.759	798.365	612.760
395.234	19.703	798.137	612.332
396.248	21.358	799.324	619.056
397.263	22.691	800.430	624.581
398.278	22.705	799.625	623.946
399.292	22.358	799.105	622.259
400.307	22.395	798.775	622.080
401.321	22.676	798.327	622.666
402.336	22.969	798.192	623.539
403.350	23.294	798.219	624.653
404.365	23.505	798.138	625.277
405.380	23.713	797.739	625.641
406.394	23.836	796.980	625.427
407.409	23.647	796.602	624.409
408.423	23.553	796.667	624.074
409.438	23.628	795.810	623.609
410.453	23.780	795.264	623.660
411.467	23.721	794.941	623.144
412.482	23.638	794.371	622.353
413.496	23.624	794.493	622.345
414.511	23.709	794.245	622.391
415.526	23.605	793.889	621.695
416.540	23.516	792.409	620.169
417.555	23.348	791.704	618.977
418.569	23.510	791.517	619.341
419.584	23.492	790.704	618.587
420.599	23.080	790.520	616.952
421.613	158.025	1365.210	1799.628
422.628	136.873	1448.927	1799.728
