DTS Sentinel unit serial number:	SN413079Multiplexer serial number:	ORYXHardware model number:	OX4-SRSoftware version number:	ORYX F/W v4.00 Oryx Data Collector v3.7.2.0data status	okinstallation	princeton_trtdifferential loss correction	single-endedforward channel	channel 1reverse channel	N/Adate	2019/09/19time	14:54:35forward acquisition time	60.00reverse acquisition time	0.00gamma	496.2192k internal	0.2316k external	0.2316temperature offset calibration	1.0023default loss term (dB/km)	0.3790temperature slope calibration	1.0000multiplexer offset coefficient	1.0000multiplexer slope coefficient	1.0000fibre end	0.00T internal ref (°C)	32.94T ext. ref 1 (°C)	1.10T ext. ref 2 (°C)	29.88length (m)	temperature (°C)	Stokes	anti-Stokes-747.200	-135.692	-0.460	0.055
-746.185	-79.286	-0.105	0.036
-745.171	96.126	-0.250	-0.290
-744.156	469.817	-0.137	-0.312
-743.142	-200.000	-0.017	-0.101
-742.127	61.156	-0.189	-0.190
-741.112	129.013	0.140	-0.181
-740.098	-200.000	0.001	0.263
-739.083	-104.755	0.265	-0.062
-738.069	-31.429	-0.252	0.144
-737.054	-200.000	-0.032	-0.357
-736.039	73.566	-0.310	-0.329
-735.025	169.256	-0.054	0.078
-734.010	-88.751	-0.240	-0.072
-732.996	-115.260	-0.358	0.069
-731.981	-43.467	-0.221	-0.113
-730.966	-140.662	-0.122	-0.013
-729.952	-109.997	-0.191	0.040
-728.937	-11.420	0.092	0.061
-727.923	433.964	-0.062	-0.137
-726.908	-48.531	-0.019	-0.009
-725.894	-142.887	-0.239	-0.023
-724.879	-23.868	-0.084	-0.051
-723.864	99.900	-0.070	-0.082
-722.850	-88.367	0.036	-0.011
-721.835	-4.122	0.087	0.061
-720.821	217.357	0.166	-0.268
-719.806	-45.866	-0.222	-0.111
-718.791	800.000	-0.148	-0.517
-717.777	-61.242	-0.205	-0.087
-716.762	116.847	-0.193	-0.240
-715.748	-115.355	-0.175	-0.033
-714.733	26.148	0.123	0.104
-713.718	411.873	-0.073	0.157
-712.704	457.226	0.101	-0.226
-711.689	800.000	-0.042	-0.124
-710.675	-117.964	0.149	-0.027
-709.660	-103.876	-0.037	-0.009
-708.645	77.811	-0.103	-0.111
-707.631	101.174	0.163	0.192
-706.616	210.662	0.069	0.109
-705.602	177.160	0.212	0.312
-704.587	40.273	-0.133	-0.121
-703.572	60.254	-0.209	-0.209
-702.558	69.509	-0.191	-0.199
-701.543	-123.866	-0.225	-0.036
-700.529	171.590	-0.091	0.132
-699.514	13.148	0.038	-0.030
-698.499	-86.785	0.045	0.014
-697.485	123.851	0.171	-0.218
-696.470	800.000	0.088	-0.376
-695.456	117.303	0.276	-0.343
-694.441	-173.105	0.170	0.005
-693.426	163.729	-0.148	0.210
-692.412	800.000	-0.037	0.106
-691.397	-106.479	-0.231	0.052
-690.383	-200.000	-0.003	-0.064
-689.368	-123.042	-0.150	-0.024
-688.354	104.551	0.113	0.134
-687.339	-79.590	0.318	-0.108
-686.324	248.762	-0.108	-0.185
-685.310	189.953	-0.059	-0.089
-684.295	-148.855	-0.275	-0.022
-683.281	55.277	0.279	-0.273
-682.266	-23.643	0.121	0.074
-681.251	-30.271	0.111	0.063
-680.237	-200.000	0.030	-0.179
-679.222	-200.000	-0.016	-0.170
-678.208	-10.758	0.302	-0.202
-677.193	-101.888	-0.163	-0.040
-676.178	-200.000	-0.025	0.275
-675.164	-200.000	-0.024	-0.359
-674.149	800.000	-0.024	0.102
-673.135	-26.081	-0.252	0.150
-672.120	800.000	0.038	0.161
-671.105	-12.888	0.100	-0.065
-670.091	-44.756	-0.266	0.134
-669.076	-3.914	0.168	0.118
-668.062	-200.000	-0.014	0.144
-667.047	-36.375	-0.135	0.074
-666.032	-6.818	-0.151	-0.104
-665.018	101.365	-0.016	0.019
-664.003	610.025	-0.092	0.231
-662.989	-84.057	-0.117	0.038
-661.974	-183.755	0.195	0.003
-660.959	117.965	0.144	-0.179
-659.945	-200.000	0.002	0.037
-658.930	-133.801	-0.133	-0.017
-657.916	329.691	-0.153	0.296
-656.901	-200.000	0.024	-0.192
-655.886	6.204	-0.296	-0.221
-654.872	-58.128	-0.224	-0.099
-653.857	221.892	0.150	0.243
-652.843	-38.442	-0.152	0.081
-651.828	-134.648	0.332	-0.041
-650.814	-89.226	-0.202	0.060
-649.799	174.093	-0.193	-0.282
-648.784	117.183	-0.238	-0.295
-647.770	-99.786	0.107	0.027
-646.755	-200.000	0.028	-0.263
-645.741	-200.000	-0.001	0.045
-644.726	96.689	-0.200	-0.231
-643.711	-200.000	0.012	0.291
-642.697	-134.623	0.114	-0.014
-641.682	-112.580	-0.298	-0.060
-640.668	800.000	-0.035	-0.113
-639.653	72.346	-0.085	-0.089
-638.638	117.041	-0.123	-0.152
-637.624	41.466	0.095	-0.086
-636.609	432.737	0.165	0.361
-635.595	800.000	-0.086	-0.359
-634.580	392.734	-0.210	0.440
-633.565	135.694	-0.173	0.227
-632.551	800.000	-0.066	-0.195
-631.536	-116.992	-0.107	0.020
-630.522	-119.606	-0.396	0.069
-629.507	800.000	-0.036	-0.118
-628.492	78.121	-0.388	-0.418
-627.478	-113.070	-0.379	0.075
-626.463	257.679	-0.070	-0.121
-625.449	132.884	0.125	-0.163
-624.434	10.211	-0.211	0.162
-623.419	-93.629	-0.217	-0.060
-622.405	139.359	0.180	0.238
-621.390	510.995	0.081	0.189
-620.376	-98.875	-0.261	-0.067
-619.361	-200.000	0.035	-0.306
-618.346	-65.099	0.193	-0.078
-617.332	153.748	0.195	-0.269
-616.317	800.000	-0.016	-0.048
-615.303	-100.111	0.100	0.025
-614.288	800.000	0.047	0.207
-613.273	-93.813	0.146	0.041
-612.259	27.666	-0.028	0.023
-611.244	-80.628	-0.114	0.038
-610.230	800.000	0.025	-0.106
-609.215	-111.391	-0.339	0.070
-608.201	603.049	-0.039	0.098
-607.186	94.044	0.071	0.082
-606.171	-26.326	-0.238	0.141
-605.157	-200.000	-0.038	0.221
-604.142	-50.585	0.087	-0.041
-603.128	-144.737	-0.270	0.025
-602.113	318.413	0.169	-0.322
-601.098	-43.250	-0.194	-0.099
-600.084	-200.000	-0.023	0.235
-599.069	2.867	0.262	0.191
-598.055	-200.000	0.000	0.039
-597.040	-25.999	0.232	-0.138
-596.025	800.000	-0.071	0.254
-595.011	139.644	0.060	-0.079
-593.996	-200.000	0.069	-0.308
-592.982	92.582	0.028	0.032
-591.967	9.895	-0.231	-0.176
-590.952	-139.788	0.426	-0.045
-589.938	155.274	-0.247	0.343
-588.923	-85.135	-0.276	-0.087
-587.909	-95.050	-0.269	-0.073
-586.894	-200.000	0.005	0.247
-585.879	-150.304	-0.100	-0.008
-584.865	-104.484	0.177	-0.041
-583.850	373.477	0.128	-0.263
-582.836	-200.000	-0.026	-0.281
-581.821	549.324	-0.039	0.094
-580.806	-141.125	0.376	-0.039
-579.792	-200.000	0.018	0.376
-578.777	115.464	-0.230	0.283
-577.763	130.374	-0.209	-0.270
-576.748	-95.059	0.385	-0.105
-575.733	193.827	-0.069	0.104
-574.719	660.998	0.057	-0.147
-573.704	-39.972	0.188	0.099
-572.690	223.283	0.144	-0.234
-571.675	110.077	0.150	-0.181
-570.661	800.000	-0.096	-0.404
-569.646	-30.812	-0.114	-0.065
-568.631	11.629	0.233	0.180
-567.617	-102.099	-0.286	-0.069
-566.602	23.436	0.103	0.085
-565.588	41.990	0.178	-0.163
-564.573	11.395	0.144	-0.111
-563.558	100.794	-0.052	-0.061
-562.544	604.449	-0.130	-0.325
-561.529	-23.215	0.091	0.055
-560.515	-200.000	0.092	0.477
-559.500	-200.000	0.019	-0.087
-558.485	71.928	-0.288	-0.301
-557.471	-51.889	-0.236	0.110
-556.456	-94.711	0.155	0.042
-555.442	-107.206	-0.105	-0.023
-554.427	-32.000	0.091	0.051
-553.412	-200.000	-0.004	-0.264
-552.398	-68.391	0.068	-0.026
-551.383	155.088	0.129	-0.178
-550.369	-159.878	-0.047	-0.003
-549.354	-5.793	0.070	0.048
-548.339	-7.723	-0.305	-0.207
-547.325	-200.000	0.003	-0.020
-546.310	-48.985	0.431	-0.207
-545.296	800.000	-0.019	-0.081
-544.281	26.611	0.076	0.064
-543.266	800.000	-0.070	0.243
-542.252	115.857	0.166	0.205
-541.237	-200.000	0.011	0.100
-540.223	-106.664	-0.218	-0.049
-539.208	88.990	0.117	-0.130
-538.193	56.825	-0.260	0.255
-537.179	-55.276	0.110	0.050
-536.164	6.443	-0.177	-0.132
-535.150	-37.765	0.105	0.056
-534.135	616.328	0.074	0.185
-533.121	-164.608	-0.188	0.009
-532.106	-200.000	0.004	-0.274
-531.091	-17.492	0.136	0.086
-530.077	-86.524	-0.087	0.027
-529.062	-100.266	0.199	-0.050
-528.048	800.000	-0.030	-0.111
-527.033	-200.000	0.034	0.353
-526.018	84.620	0.283	-0.311
-525.004	-72.899	0.391	0.144
-523.989	-178.014	0.066	0.002
-522.975	-89.509	-0.217	0.064
-521.960	711.670	-0.148	0.392
-520.945	800.000	0.085	-0.296
-519.931	-146.410	0.117	-0.010
-518.916	254.049	-0.186	0.319
-517.902	182.554	-0.184	0.273
-516.887	-27.691	-0.311	-0.181
-515.872	800.000	-0.063	0.229
-514.858	23.118	0.381	0.314
-513.843	800.000	-0.104	-0.413
-512.829	-5.325	-0.138	0.095
-511.814	800.000	-0.097	0.301
-510.799	6.820	-0.141	-0.106
-509.785	800.000	0.046	-0.193
-508.770	-200.000	0.019	0.338
-507.756	-107.127	0.208	-0.046
-506.741	54.409	0.309	0.299
-505.726	-88.497	-0.198	-0.059
-504.712	96.082	0.167	-0.191
-503.697	18.702	-0.143	-0.115
-502.683	-200.000	0.007	-0.569
-501.668	326.800	0.096	0.185
-500.653	-151.200	0.376	0.028
-499.639	31.943	0.123	-0.106
-498.624	-200.000	0.008	0.358
-497.610	-132.291	-0.082	-0.011
-496.595	84.224	-0.062	-0.068
-495.581	-200.000	-0.051	-0.320
-494.566	632.770	-0.066	0.169
-493.551	800.000	0.089	-0.349
-492.537	280.960	-0.160	-0.287
-491.522	-42.105	-0.072	-0.037
-490.508	-19.175	-0.125	-0.078
-489.493	800.000	-0.120	0.353
-488.478	-74.771	0.090	-0.032
-487.464	258.134	-0.110	-0.190
-486.449	-55.503	-0.167	0.075
-485.435	118.010	-0.219	0.270
-484.420	99.193	0.215	-0.249
-483.405	-116.772	0.122	-0.022
-482.391	351.894	-0.085	0.169
-481.376	-99.853	-0.125	0.031
-480.362	91.760	0.221	-0.249
-479.347	-21.164	-0.104	0.064
-478.332	-141.452	0.166	0.017
-477.318	-132.073	0.253	0.033
-476.303	184.452	-0.088	-0.131
-475.289	-125.859	0.011	0.002
-474.274	-200.000	-0.033	-0.261
-473.259	-38.953	0.315	-0.166
-472.245	800.000	0.033	-0.108
-471.230	225.331	0.092	-0.149
-470.216	800.000	-0.051	0.197
-469.201	109.136	-0.137	-0.164
-468.186	800.000	0.038	-0.135
-467.172	-107.722	-0.211	0.046
-466.157	-34.258	-0.090	-0.050
-465.143	217.164	-0.238	0.380
-464.128	594.350	-0.136	0.336
-463.113	-200.000	-0.002	0.030
-462.099	37.754	-0.063	-0.056
-461.084	300.142	-0.115	-0.213
-460.070	429.466	-0.167	0.362
-459.055	-200.000	-0.020	-0.131
-458.040	-33.349	-0.186	-0.103
-457.026	86.306	0.044	-0.048
-456.011	21.156	-0.368	0.299
-454.997	-200.000	-0.032	0.260
-453.982	-200.000	-0.025	0.134
-452.968	99.476	0.166	-0.192
-451.953	-200.000	-0.015	-0.079
-450.938	160.909	0.129	0.180
-449.924	266.773	0.062	-0.109
-448.909	-128.027	0.102	-0.015
-447.895	-200.000	0.039	-0.223
-446.880	-25.962	0.135	0.079
-445.865	-200.000	-0.028	-0.396
-444.851	8.541	-0.087	-0.066
-443.836	-200.000	0.016	-0.109
-442.822	-35.816	-0.323	0.175
-441.807	800.000	-0.035	0.117
-440.792	-3.660	0.125	-0.087
-439.778	-35.663	-0.267	-0.145
-438.763	-112.788	-0.073	-0.014
-437.749	-120.709	-0.269	-0.045
-436.734	14.387	-0.138	-0.108
-435.719	-5.089	-0.209	0.144
-434.705	63.583	0.186	0.187
-433.690	204.410	-0.275	0.426
-432.676	-61.876	-0.317	-0.133
-431.661	354.138	-0.077	-0.153
-430.646	357.930	-0.092	-0.184
-429.632	-23.480	-0.158	-0.095
-428.617	75.462	-0.155	0.164
-427.603	800.000	-0.015	-0.055
-426.588	-200.000	0.026	-0.257
-425.573	223.675	-0.132	0.213
-424.559	-200.000	0.039	0.238
-423.544	-9.349	0.093	-0.062
-422.530	-112.235	0.054	0.011
-421.515	-51.769	-0.124	-0.058
-420.500	71.143	-0.037	-0.039
-419.486	330.819	-0.140	0.270
-418.471	-200.000	0.040	0.628
-417.457	111.181	0.338	0.407
-416.442	-200.000	0.006	0.094
-415.428	-200.000	-0.000	-0.094
-414.413	291.640	0.075	-0.137
-413.398	699.007	0.075	-0.198
-412.384	253.922	-0.162	0.277
-411.369	-15.257	0.143	-0.092
-410.355	290.999	-0.087	-0.158
-409.340	181.068	-0.151	-0.222
-408.325	257.609	0.059	0.101
-407.311	800.000	-0.098	-0.304
-406.296	297.759	-0.123	0.226
-405.282	-96.273	-0.230	-0.061
-404.267	-27.726	0.064	0.037
-403.252	-53.175	-0.203	0.093
-402.238	181.507	0.274	0.403
-401.223	-40.936	-0.055	0.028
-400.209	-87.846	-0.210	-0.063
-399.194	-175.408	-0.063	0.002
-398.179	70.901	0.027	-0.028
-397.165	-136.478	0.238	-0.028
-396.150	-33.716	0.168	-0.093
-395.136	-200.000	0.046	0.238
-394.121	-100.678	-0.332	-0.082
-393.106	-200.000	-0.031	0.247
-392.092	-98.942	0.303	-0.077
-391.077	83.389	0.174	0.189
-390.063	-58.445	0.289	-0.125
-389.048	182.623	-0.171	0.252
-388.033	-59.930	0.057	-0.024
-387.019	3.935	-0.226	0.165
-386.004	-187.902	-0.107	-0.001
-384.990	800.000	0.139	-0.461
-383.975	-200.000	0.012	0.000
-382.960	521.300	-0.120	0.282
-381.946	50.918	-0.090	0.085
-380.931	154.782	0.240	-0.330
-379.917	737.039	0.081	0.218
-378.902	-108.553	-0.347	0.075
-377.888	-200.000	-0.021	0.135
-376.873	-62.298	-0.354	-0.147
-375.858	-200.000	-0.017	-0.238
-374.844	800.000	-0.046	0.176
-373.829	-66.030	0.233	0.093
-372.815	-200.000	0.061	-0.437
-371.800	-200.000	0.018	0.166
-370.785	-83.273	-0.073	0.023
-369.771	203.032	-0.159	-0.245
-368.756	-35.300	-0.141	0.076
-367.742	-67.204	0.156	0.061
-366.727	-76.067	0.135	0.048
-365.712	30.672	-0.054	-0.046
-364.698	357.392	0.063	-0.125
-363.683	-138.577	0.145	0.016
-362.669	800.000	0.012	-0.042
-361.654	800.000	0.068	-0.218
-360.639	-200.000	0.008	0.214
-359.625	-193.795	0.135	0.001
-358.610	-65.994	-0.274	0.109
-357.596	-119.784	0.158	0.027
-356.581	800.000	0.029	-0.098
-355.566	33.656	0.093	-0.081
-354.552	-63.959	0.351	0.143
-353.537	45.194	0.263	0.242
-352.523	305.829	-0.123	0.228
-351.508	800.000	-0.032	0.125
-350.493	89.358	0.101	-0.112
-349.479	56.607	0.108	-0.105
-348.464	181.297	-0.259	-0.379
-347.450	-110.056	-0.206	0.043
-346.435	-200.000	0.012	0.155
-345.420	-34.852	-0.216	-0.117
-344.406	-59.165	0.412	-0.177
-343.391	-5.494	-0.165	0.113
-342.377	157.890	0.203	0.280
-341.362	-200.000	0.035	-0.176
-340.348	-82.713	-0.319	0.103
-339.333	-118.239	0.320	-0.057
-338.318	-83.459	0.368	0.117
-337.304	-45.365	0.132	0.065
-336.289	800.000	0.014	-0.049
-335.275	-5.106	-0.200	-0.137
-334.260	369.361	0.213	0.431
-333.245	118.137	0.046	-0.056
-332.231	-116.838	0.533	-0.097
-331.216	-200.000	0.022	-0.101
-330.202	77.510	-0.175	-0.185
-329.187	800.000	0.046	-0.183
-328.172	800.000	0.011	0.046
-327.158	118.699	-0.283	0.348
-326.143	-133.860	0.422	0.052
-325.129	-19.147	-0.216	0.134
-324.114	-90.372	0.247	0.071
-323.099	228.835	0.156	-0.253
-322.085	-27.662	0.270	0.156
-321.070	-31.755	-0.151	-0.084
-320.056	-85.483	0.050	0.015
-319.041	800.000	0.072	0.246
-318.026	-7.876	-0.125	0.084
-317.012	73.623	-0.101	0.105
-315.997	364.854	-0.056	0.112
-314.983	-200.000	-0.011	0.209
-313.968	63.461	0.168	-0.168
-312.953	34.911	-0.202	-0.176
-311.939	725.596	0.061	0.163
-310.924	-200.000	0.042	0.308
-309.910	-200.000	-0.011	-0.147
-308.895	-121.793	-0.265	-0.044
-307.880	167.643	0.131	0.185
-306.866	-38.508	-0.341	-0.180
-305.851	-34.120	0.119	-0.065
-304.837	-200.000	-0.020	0.417
-303.822	-128.866	0.243	-0.034
-302.807	-30.042	0.145	-0.082
-301.793	654.834	-0.080	-0.203
-300.778	420.001	-0.007	0.016
-299.764	-138.260	-0.137	0.015
-298.749	0.018	0.215	0.153
-297.735	-8.542	-0.157	-0.105
-296.720	-34.536	0.377	-0.205
-295.705	-42.594	0.233	-0.118
-294.691	290.198	-0.078	-0.140
-293.676	800.000	-0.115	0.386
-292.662	107.973	-0.211	0.250
-291.647	19.431	0.165	0.132
-290.632	144.127	-0.149	0.198
-289.618	800.000	0.048	-0.132
-288.603	-200.000	0.033	-0.259
-287.589	-43.151	0.204	0.103
-286.574	-200.000	-0.009	0.042
-285.559	123.606	0.285	-0.355
-284.545	-95.918	-0.133	-0.035
-283.530	800.000	0.069	-0.225
-282.516	261.052	0.241	0.415
-281.501	13.163	-0.245	0.189
-280.486	-123.797	0.085	-0.013
-279.472	-23.525	-0.290	-0.173
-278.457	-200.000	-0.026	-0.148
-277.443	-200.000	0.051	0.320
-276.428	-71.272	-0.212	-0.079
-275.413	-12.021	-0.081	0.053
-274.399	77.973	0.127	0.135
-273.384	-200.000	-0.013	-0.301
-272.370	-58.962	-0.234	0.100
-271.355	14.874	0.168	-0.131
-270.340	800.000	0.023	-0.093
-269.326	69.973	0.173	-0.178
-268.311	409.028	-0.158	0.332
-267.297	60.002	-0.205	-0.202
-266.282	-110.795	-0.328	0.067
-265.267	216.200	0.154	0.243
-264.253	-94.706	-0.220	0.059
-263.238	-150.574	-0.419	0.032
-262.224	-200.000	0.050	0.484
-261.209	800.000	0.066	0.247
-260.195	-37.016	0.149	0.079
-259.180	-200.000	0.019	-0.084
-258.165	211.583	-0.056	-0.087
-257.151	-94.662	-0.102	-0.028
-256.136	-86.442	0.224	0.068
-255.122	-44.157	-0.231	-0.115
-254.107	26.897	0.184	-0.154
-253.092	-200.000	0.004	-0.072
-252.078	-104.072	0.186	0.043
-251.063	-65.771	0.295	0.117
-250.049	-95.929	0.495	0.131
-249.034	-200.000	-0.040	0.448
-248.019	800.000	-0.020	0.071
-247.005	-28.102	-0.239	0.137
-245.990	292.991	-0.087	0.158
-244.976	487.112	-0.046	0.105
-243.961	340.099	-0.058	0.113
-242.946	-69.875	0.063	-0.024
-241.932	-200.000	-0.015	-0.135
-240.917	30.735	0.174	0.148
-239.903	-200.000	0.032	0.161
-238.888	134.115	0.021	-0.027
-237.873	524.715	0.042	0.098
-236.859	34.278	-0.315	-0.273
-235.844	-47.412	-0.424	-0.205
-234.830	661.762	0.116	-0.296
-233.815	-200.000	0.042	0.256
-232.800	800.000	-0.039	-0.125
-231.786	-134.285	0.297	-0.036
-230.771	-118.986	0.279	0.048
-229.757	-200.000	-0.047	-0.415
-228.742	-162.858	0.330	0.016
-227.727	-42.367	-0.183	0.093
-226.713	800.000	-0.056	-0.193
-225.698	-77.891	-0.231	-0.079
-224.684	12.060	-0.047	0.036
-223.669	-78.298	-0.342	-0.117
-222.655	325.334	0.074	-0.141
-221.640	-200.000	0.030	-0.496
-220.625	-83.649	-0.090	-0.029
-219.611	382.567	0.087	-0.178
-218.596	317.820	-0.201	-0.377
-217.582	94.965	0.431	-0.486
-216.567	450.463	0.042	0.093
-215.552	-111.909	0.186	-0.037
-214.538	-134.335	-0.282	-0.034
-213.523	-100.077	0.137	0.034
-212.509	800.000	0.031	-0.126
-211.494	-200.000	0.021	-0.274
-210.479	-142.061	-0.351	-0.035
-209.465	-106.460	-0.210	-0.046
-208.450	800.000	-0.070	-0.230
-207.436	507.458	0.105	0.242
-206.421	-65.267	0.298	0.119
-205.406	800.000	-0.014	-0.054
-204.392	800.000	-0.023	0.064
-203.377	99.410	-0.323	-0.371
-202.363	149.777	0.079	-0.107
-201.348	301.673	-0.153	0.280
-200.333	-200.000	0.037	-0.169
-199.319	800.000	0.025	0.090
-198.304	-16.018	0.128	0.081
-197.290	-200.000	-0.014	-0.255
-196.275	92.078	0.247	-0.276
-195.260	-31.334	-0.111	-0.062
-194.246	-98.358	0.303	-0.077
-193.231	-200.000	0.055	0.296
-192.217	179.350	0.163	0.236
-191.202	-200.000	0.035	0.170
-190.187	-200.000	-0.029	-0.152
-189.173	519.018	0.113	-0.262
-188.158	721.440	0.032	-0.084
-187.144	-58.239	0.257	0.111
-186.129	-164.534	0.258	-0.012
-185.114	31.366	0.277	0.236
-184.100	-200.000	-0.080	0.351
-183.085	165.171	0.139	-0.195
-182.071	-36.609	0.066	0.035
-181.056	-24.410	0.250	0.148
-180.042	800.000	0.077	-0.290
-179.027	366.830	0.045	0.090
-178.012	-54.254	-0.078	0.035
-176.998	-200.000	-0.005	-0.043
-175.983	-147.551	0.132	-0.011
-174.969	-182.622	0.227	0.004
-173.954	24.712	-0.163	0.134
-172.939	800.000	-0.121	0.396
-171.925	157.003	-0.104	0.142
-170.910	800.000	-0.027	0.097
-169.896	-154.095	0.374	-0.025
-168.881	58.460	-0.151	-0.147
-167.866	270.379	0.152	-0.265
-166.852	800.000	-0.027	-0.081
-165.837	-200.000	0.001	0.234
-164.823	-87.991	0.296	-0.088
-163.808	116.851	0.188	0.228
-162.793	-200.000	-0.029	0.138
-161.779	-200.000	0.051	0.385
-160.764	-94.584	-0.180	-0.049
-159.750	178.782	0.115	0.166
-158.735	-103.363	-0.128	0.030
-157.720	-200.000	0.340	-0.000
-156.706	800.000	0.103	-0.295
-155.691	141.551	0.111	-0.146
-154.677	-36.845	-0.200	0.106
-153.662	-34.503	0.081	0.044
-152.647	55.505	0.133	-0.128
-151.633	-200.000	0.027	0.242
-150.618	75.565	-0.160	0.167
-149.604	-147.686	-0.183	0.015
-148.589	800.000	-0.016	0.069
-147.574	-77.764	-0.261	0.089
-146.560	-66.749	0.265	-0.104
-145.545	-22.055	-0.264	0.159
-144.531	-200.000	0.010	0.062
-143.516	83.850	-0.078	0.084
-142.502	-200.000	0.020	-0.328
-141.487	69.074	-0.113	0.115
-140.472	-69.471	0.370	-0.140
-139.458	-151.301	0.196	-0.014
-138.443	539.563	0.098	0.231
-137.429	-94.162	0.218	-0.059
-136.414	-165.470	-0.156	-0.007
-135.399	422.300	0.113	-0.240
-134.385	209.243	0.047	0.074
-133.370	158.878	-0.053	-0.073
-132.356	800.000	-0.038	0.147
-131.341	323.210	0.072	0.136
-130.326	-200.000	-0.031	0.194
-129.312	-94.513	0.132	-0.036
-128.297	144.945	-0.063	-0.084
-127.283	-139.036	0.199	-0.021
-126.268	66.043	0.315	0.316
-125.253	-200.000	0.002	-0.103
-124.239	16.825	-0.066	0.052
-123.224	315.126	-0.109	0.203
-122.210	-156.914	0.118	-0.007
-121.195	-200.000	-0.069	0.405
-120.180	-200.000	0.023	-0.170
-119.166	-200.000	0.009	-0.054
-118.151	-26.855	-0.239	0.138
-117.137	-200.000	0.025	-0.110
-116.122	-120.729	0.262	-0.044
-115.107	-200.000	-0.021	0.371
-114.093	800.000	-0.063	-0.225
-113.078	36.369	-0.315	0.275
-112.064	800.000	-0.122	0.462
-111.049	201.283	-0.159	0.242
-110.034	800.000	-0.078	0.271
-109.020	-200.000	-0.032	-0.160
-108.005	-200.000	-0.029	-0.247
-106.991	82.978	0.186	0.200
-105.976	491.602	0.135	0.305
-104.962	-200.000	0.004	-0.223
-103.947	-117.212	0.575	0.103
-102.932	-104.943	-0.262	-0.059
-101.918	-57.342	0.225	-0.098
-100.903	-200.000	-0.007	0.213
-99.889	800.000	0.079	0.316
-98.874	-131.906	-0.443	-0.057
-97.859	-123.792	-0.118	0.018
-96.845	-161.472	-0.033	-0.002
-95.830	-200.000	0.019	-0.190
-94.816	198.624	0.058	0.087
-93.801	-79.156	0.219	-0.074
-92.786	800.000	-0.155	-0.454
-91.772	157.803	0.158	-0.216
-90.757	43.345	0.076	0.069
-89.743	800.000	-0.056	0.171
-88.728	366.616	0.107	-0.213
-87.713	-56.051	0.165	0.073
-86.699	62.801	-0.241	0.238
-85.684	75.159	0.075	-0.078
-84.670	22.232	0.298	-0.241
-83.655	446.742	0.069	0.150
-82.640	205.466	-0.104	-0.160
-81.626	192.207	0.114	-0.169
-80.611	800.000	0.051	-0.142
-79.597	297.602	-0.058	-0.106
-78.582	183.389	-0.121	-0.176
-77.567	-200.000	-0.006	-0.111
-76.553	688.957	-0.016	0.040
-75.538	233.011	-0.085	-0.137
-74.524	-68.401	0.121	0.046
-73.509	-86.791	-0.112	0.034
-72.494	-49.531	0.101	0.047
-71.480	-89.514	0.110	-0.032
-70.465	40.448	0.094	0.083
-69.451	299.160	-0.055	-0.099
-68.436	74.883	-0.159	-0.165
-67.422	-200.000	0.024	0.280
-66.407	19.143	0.126	0.099
-65.392	346.136	0.085	-0.164
-64.378	-7.096	-0.171	-0.115
-63.363	-200.000	0.014	0.220
-62.349	-57.364	0.095	-0.041
-61.334	30.616	-0.993	-0.838
-60.319	-62.338	0.643	0.264
-59.305	-200.000	-0.015	-0.750
-58.290	549.157	0.441	1.043
-57.276	800.000	0.421	1.354
-56.261	-200.000	95.244	542.521
-55.246	475.855	1435.900	3198.240
-54.232	146.108	2648.840	3503.736
-53.217	109.086	2217.886	2615.848
-52.203	44.556	1656.914	1501.211
-51.188	36.450	1386.415	1205.746
-50.173	33.233	1342.839	1148.319
-49.159	54.916	1389.082	1322.018
-48.144	56.868	1406.561	1350.633
-47.130	36.685	1364.997	1188.376
-46.115	33.092	1347.364	1151.143
-45.100	32.871	1342.798	1145.853
-44.086	32.776	1340.496	1143.268
-43.071	32.842	1338.352	1141.796
-42.057	32.741	1335.899	1139.049
-41.042	32.815	1334.738	1138.460
-40.027	32.843	1332.880	1137.000
-39.013	32.826	1331.265	1135.474
-37.998	32.860	1329.080	1133.768
-36.984	32.962	1327.265	1132.786
-35.969	32.979	1325.524	1131.359
-34.954	32.916	1323.986	1129.627
-33.940	33.026	1322.635	1129.081
-32.925	33.005	1321.399	1127.858
-31.911	33.133	1319.446	1126.909
-30.896	33.064	1318.018	1125.234
-29.881	32.991	1317.190	1124.046
-28.867	33.082	1315.169	1122.818
-27.852	32.962	1314.279	1121.301
-26.838	33.078	1312.193	1120.168
-25.823	33.117	1311.149	1119.460
-24.809	33.063	1309.788	1117.939
-23.794	33.063	1308.352	1116.666
-22.779	32.941	1307.139	1114.867
-21.765	33.028	1305.737	1114.138
-20.750	33.087	1303.893	1112.867
-19.736	33.033	1302.849	1111.619
-18.721	32.862	1302.306	1110.103
-17.706	32.917	1300.806	1109.105
-16.692	32.844	1300.154	1108.075
-15.677	32.810	1299.173	1106.997
-14.663	32.971	1297.196	1106.211
-13.648	32.902	1296.368	1105.056
-12.633	32.983	1295.094	1104.403
-11.619	32.768	1294.632	1102.707
-10.604	32.836	1293.950	1102.475
-9.590	32.843	1292.543	1101.279
-8.575	32.853	1291.498	1100.400
-7.560	32.805	1290.942	1099.605
-6.546	32.768	1290.260	1098.766
-5.531	32.716	1289.511	1097.777
-4.517	32.705	1288.546	1096.850
-3.502	32.814	1287.859	1096.853
-2.487	32.802	1286.482	1095.571
-1.473	32.969	1282.559	1093.149
-0.458	31.886	1268.317	1074.765
0.556	27.932	1250.101	1036.107
1.571	23.602	1255.660	1015.896
2.586	21.813	1270.019	1017.057
3.600	20.481	1257.021	998.905
4.615	14.789	1181.177	907.715
5.629	5.703	1102.291	800.769
6.644	1.385	1081.503	763.913
7.659	1.061	1079.126	760.538
8.673	0.938	1078.113	759.143
9.688	1.007	1077.197	758.777
10.702	1.214	1075.217	758.350
11.717	5.924	1080.907	785.922
12.731	13.526	1090.684	831.243
13.746	17.222	1094.943	853.005
14.761	17.662	1095.177	855.321
15.775	16.949	1093.486	850.352
16.790	15.825	1091.827	843.355
17.804	15.173	1090.438	838.945
18.819	14.946	1088.226	836.035
19.834	14.572	1087.927	833.863
20.848	14.251	1087.097	831.550
21.863	14.052	1085.933	829.591
22.877	13.830	1085.165	827.822
23.892	13.747	1084.658	826.949
24.907	13.842	1083.816	826.709
25.921	13.846	1083.000	826.033
26.936	13.951	1082.104	825.797
27.950	13.966	1080.866	824.855
28.965	13.970	1079.960	824.112
29.980	14.004	1078.713	823.255
30.994	14.078	1077.509	822.630
32.009	14.253	1076.142	822.379
33.023	14.081	1075.703	821.119
34.038	14.116	1074.471	820.280
35.053	13.969	1073.608	818.822
36.067	14.030	1072.864	818.484
37.082	14.051	1072.215	818.020
38.096	14.063	1071.558	817.502
39.111	14.081	1070.605	816.795
40.126	14.050	1069.041	815.377
41.140	13.803	1068.535	813.707
42.155	13.762	1067.205	812.422
43.169	13.825	1066.080	811.803
44.184	13.877	1065.140	811.267
45.199	13.921	1064.161	810.662
46.213	13.777	1063.593	809.457
47.228	14.009	1061.690	809.069
48.242	14.037	1060.686	808.367
49.257	14.031	1059.375	807.266
50.271	13.903	1059.111	806.375
51.286	14.054	1058.105	806.267
52.301	13.938	1056.912	804.725
53.315	13.876	1055.989	803.654
54.330	13.807	1054.993	802.490
55.344	13.957	1053.853	802.276
56.359	13.837	1052.985	800.965
57.374	13.881	1052.023	800.375
58.388	13.982	1051.016	800.026
59.403	13.824	1050.232	798.597
60.417	13.804	1049.768	798.076
61.432	13.847	1049.222	797.798
62.447	13.790	1048.323	796.771
63.461	13.842	1047.507	796.328
64.476	13.820	1046.252	795.196
65.490	13.859	1045.398	794.666
66.505	13.875	1045.203	794.521
67.520	13.903	1044.164	793.797
68.534	13.796	1044.017	793.102
69.549	13.763	1042.999	792.104
70.563	13.753	1041.934	791.178
71.578	13.741	1041.416	790.654
72.593	13.802	1040.362	790.075
73.607	13.762	1039.726	789.332
74.622	13.784	1039.134	788.920
75.636	13.773	1038.411	788.246
76.651	13.802	1037.829	787.875
77.666	13.799	1036.856	787.052
78.680	13.838	1036.075	786.575
79.695	13.763	1036.100	786.169
80.709	13.881	1035.237	786.001
81.724	13.867	1034.553	785.348
82.739	13.970	1033.519	784.978
83.753	13.937	1032.685	784.118
84.768	14.002	1031.964	783.811
85.782	13.972	1031.117	782.956
86.797	13.969	1029.907	781.952
87.812	13.996	1029.144	781.433
88.826	13.993	1028.235	780.660
89.841	13.959	1027.604	779.951
90.855	14.017	1026.546	779.349
91.870	14.022	1025.696	778.660
92.884	14.007	1024.818	777.856
93.899	14.128	1024.005	777.735
94.914	14.059	1023.210	776.737
95.928	14.066	1022.412	776.097
96.943	14.095	1021.387	775.386
97.957	14.101	1020.582	774.736
98.972	14.023	1019.750	773.670
99.987	13.992	1018.926	772.834
101.001	14.010	1017.865	772.044
102.016	14.054	1017.205	771.679
103.030	14.152	1016.059	771.197
104.045	14.124	1015.567	770.626
105.060	14.042	1014.841	769.624
106.074	13.984	1014.071	768.704
107.089	14.048	1012.620	767.833
108.103	13.983	1011.914	766.931
109.118	13.914	1010.592	765.544
110.133	14.016	1009.713	765.278
111.147	13.925	1008.724	764.043
112.162	14.003	1007.819	763.647
113.176	13.890	1007.825	763.067
114.191	14.089	1006.691	763.053
115.206	14.037	1005.880	762.133
116.220	13.992	1005.230	761.365
117.235	14.081	1004.180	760.912
118.249	13.965	1003.717	759.963
119.264	14.029	1002.375	759.171
120.279	13.951	1002.183	758.600
121.293	14.118	1000.993	758.394
122.308	13.938	1000.309	756.992
123.322	14.038	998.938	756.340
124.337	14.038	998.154	755.680
125.352	14.025	997.273	754.886
126.366	14.089	995.824	754.012
127.381	14.007	995.063	752.998
128.395	14.025	993.950	752.173
129.410	13.949	993.481	751.406
130.424	14.113	992.300	751.187
131.439	14.230	991.449	751.004
132.454	14.076	991.113	749.992
133.468	14.174	990.046	749.558
134.483	14.108	989.097	748.475
135.497	14.183	987.947	747.878
136.512	14.032	987.467	746.769
137.527	14.144	986.547	746.511
138.541	14.077	985.790	745.568
139.556	14.110	984.949	745.014
140.570	14.243	984.294	745.048
141.585	14.307	983.085	744.353
142.600	14.180	982.760	743.474
143.614	14.365	981.501	743.283
144.629	14.210	980.824	742.015
145.643	14.184	980.107	741.289
146.658	14.190	979.002	740.414
147.673	14.231	977.820	739.638
148.687	14.203	977.241	739.008
149.702	14.121	976.427	737.965
150.716	14.186	975.493	737.480
151.731	14.118	974.797	736.591
152.746	14.173	974.306	736.395
153.760	14.318	973.359	736.255
154.775	14.286	972.737	735.581
155.789	14.315	972.249	735.273
156.804	14.255	971.704	734.530
157.819	14.264	971.052	734.013
158.833	14.336	970.085	733.533
159.848	14.225	969.560	732.586
160.862	14.396	968.413	732.404
161.877	14.338	967.267	731.217
162.892	14.235	966.493	730.115
163.906	14.232	965.691	729.433
164.921	14.377	964.712	729.265
165.935	14.308	963.961	728.329
166.950	14.388	962.891	727.808
167.964	14.357	962.213	727.093
168.979	14.282	961.308	726.021
169.994	14.307	960.367	725.351
171.008	14.387	959.704	725.136
172.023	14.381	959.540	724.921
173.037	14.463	958.383	724.342
174.052	14.535	957.396	723.844
175.067	14.364	956.929	722.685
176.081	14.466	956.039	722.389
177.096	14.299	955.702	721.346
178.110	14.241	955.304	720.734
179.125	14.611	954.398	721.585
180.140	14.468	954.168	720.729
181.154	14.571	953.561	720.652
182.169	14.569	953.046	720.190
183.183	14.576	952.581	719.807
184.198	14.603	951.477	719.022
185.213	14.635	950.696	718.510
186.227	14.591	950.059	717.775
187.242	14.725	949.293	717.706
188.256	14.602	949.093	716.963
189.271	14.616	947.996	716.131
190.286	14.668	947.459	715.885
191.300	14.477	946.640	714.384
192.315	14.577	945.643	713.999
193.329	14.508	945.086	713.219
194.344	14.470	944.791	712.770
195.359	14.658	943.736	712.716
196.373	14.637	943.242	712.189
197.388	14.689	942.648	711.899
198.402	14.823	942.202	712.072
199.417	14.881	941.328	711.593
200.432	15.003	940.639	711.529
201.446	14.786	940.362	710.336
202.461	14.935	939.604	710.332
203.475	14.960	939.430	710.243
204.490	14.729	938.858	708.766
205.504	14.877	937.790	708.527
206.519	14.817	937.343	707.873
207.534	14.786	936.704	707.193
208.548	14.852	935.829	706.752
209.563	14.901	934.894	706.190
210.577	14.923	934.273	705.752
211.592	15.101	933.344	705.736
212.607	15.032	932.870	705.026
213.621	14.972	932.292	704.272
214.636	15.012	931.253	703.595
215.650	15.116	930.664	703.524
216.665	15.053	929.889	702.611
217.680	14.979	929.233	701.745
218.694	15.076	928.701	701.685
219.709	15.101	928.173	701.330
220.723	15.179	927.416	701.021
221.738	15.091	926.844	700.158
222.753	15.158	926.029	699.761
223.767	15.051	925.654	698.969
224.782	15.075	925.094	698.586
225.796	15.118	924.170	698.004
226.811	15.093	923.565	697.383
227.826	15.190	923.030	697.319
228.840	15.237	921.699	696.448
229.855	15.075	921.266	695.388
230.869	15.146	920.710	695.200
231.884	15.183	919.894	694.675
232.899	15.235	918.835	694.028
233.913	15.182	918.165	693.241
234.928	15.313	917.795	693.445
235.942	15.198	917.303	692.537
236.957	15.278	916.099	691.896
237.972	15.191	916.282	691.613
238.986	15.227	915.366	691.011
240.001	15.165	914.751	690.227
241.015	15.231	914.108	689.956
242.030	15.220	913.457	689.358
243.045	15.400	912.605	689.391
244.059	15.251	912.571	688.695
245.074	15.426	911.195	688.312
246.088	15.312	911.191	687.782
247.103	15.376	910.523	687.480
248.117	15.492	909.791	687.339
249.132	15.589	909.093	687.146
250.147	15.424	908.797	686.190
251.161	15.420	907.959	685.477
252.176	15.604	906.853	685.332
253.190	15.585	906.395	684.851
254.205	15.640	905.721	684.501
255.220	15.785	904.615	684.196
256.234	15.710	904.261	683.564
257.249	15.691	904.046	683.264
258.263	15.695	902.724	682.222
259.278	15.774	901.996	681.928
260.293	15.684	901.761	681.328
261.307	15.768	901.361	681.306
262.322	15.802	900.852	680.996
263.336	15.863	899.457	680.127
264.351	15.889	898.857	679.721
265.366	15.959	898.614	679.761
266.380	15.816	897.949	678.621
267.395	15.894	896.801	678.006
268.409	15.872	896.085	677.315
269.424	15.813	895.461	676.548
270.439	15.913	894.480	676.149
271.453	15.962	894.346	676.184
272.468	15.983	893.523	675.584
273.482	15.948	892.905	674.916
274.497	15.856	892.441	674.138
275.512	15.975	891.950	674.186
276.526	15.931	891.737	673.787
277.541	15.975	891.233	673.523
278.555	16.022	890.330	672.968
279.570	16.076	889.116	672.205
280.585	16.155	888.558	672.040
281.599	16.179	887.793	671.499
282.614	16.053	887.206	670.492
283.628	16.072	886.772	670.183
284.643	16.198	886.154	670.158
285.657	16.088	885.697	669.315
286.672	16.143	884.941	668.903
287.687	16.188	883.956	668.277
288.701	16.125	883.629	667.721
289.716	16.149	883.440	667.615
290.730	16.355	882.258	667.474
291.745	16.252	882.127	666.909
292.760	16.323	881.203	666.435
293.774	16.178	880.824	665.518
294.789	16.335	879.906	665.383
295.803	16.388	879.081	664.906
296.818	16.265	878.469	663.902
297.833	16.263	877.740	663.286
298.847	16.300	877.252	663.005
299.862	16.445	876.616	663.032
300.876	16.331	875.891	661.979
301.891	16.527	874.962	661.986
302.906	16.602	874.595	661.942
303.920	16.431	874.496	661.138
304.935	16.412	873.729	660.425
305.949	16.481	873.050	660.123
306.964	16.501	872.591	659.796
307.979	16.559	871.739	659.322
308.993	16.442	871.483	658.612
310.008	16.520	870.626	658.209
311.022	16.556	870.266	658.022
312.037	16.547	869.589	657.414
313.052	16.624	868.816	657.072
314.066	16.464	868.782	656.365
315.081	16.539	868.124	656.104
316.095	16.515	867.590	655.549
317.110	16.545	866.671	654.911
318.125	16.679	866.146	654.973
319.139	16.574	865.974	654.381
320.154	16.519	865.391	653.672
321.168	16.723	864.727	653.898
322.183	16.865	863.660	653.581
323.197	16.735	863.656	653.021
324.212	16.675	863.195	652.383
325.227	16.590	862.507	651.478
326.241	16.611	862.053	651.157
327.256	16.719	861.032	650.745
328.270	16.614	861.102	650.336
329.285	16.862	860.155	650.513
330.300	16.683	859.691	649.417
331.314	16.833	858.890	649.332
332.329	16.848	858.355	648.925
333.343	16.684	858.495	648.347
334.358	16.751	857.958	648.139
335.373	16.676	857.546	647.486
336.387	16.794	856.964	647.439
337.402	17.031	856.457	647.903
338.416	16.999	856.271	647.585
339.431	17.090	855.696	647.440
340.446	16.898	855.375	646.406
341.460	17.003	854.891	646.385
342.475	17.078	854.363	646.212
343.489	17.120	853.898	645.962
344.504	17.087	853.325	645.349
345.519	16.943	853.495	644.869
346.533	17.054	852.447	644.444
347.548	17.165	851.789	644.312
348.562	17.230	851.075	643.959
349.577	17.174	850.597	643.329
350.592	17.077	850.192	642.600
351.606	16.954	849.690	641.696
352.621	17.096	849.211	641.815
353.635	17.180	848.069	641.213
354.650	17.194	847.551	640.819
355.665	17.110	846.763	639.847
356.679	17.266	846.310	640.036
357.694	17.166	845.653	639.105
358.708	17.269	844.903	638.870
359.723	17.242	844.463	638.381
360.738	17.203	843.904	637.756
361.752	17.337	843.419	637.833
362.767	17.344	842.569	637.163
363.781	17.366	842.290	636.977
364.796	17.502	841.476	636.814
365.810	17.467	841.671	636.775
366.825	17.354	841.080	635.846
367.840	17.440	840.690	635.818
368.854	17.471	839.818	635.217
369.869	17.483	839.665	635.091
370.883	17.545	838.793	634.605
371.898	17.538	838.684	634.441
372.913	17.615	838.438	634.485
373.927	17.529	837.784	633.615
374.942	17.537	837.248	633.185
375.956	17.659	836.991	633.385
376.971	17.684	836.457	633.019
377.986	17.712	835.855	632.610
379.000	17.781	835.191	632.308
380.015	17.876	834.804	632.313
381.029	17.679	834.687	631.438
382.044	17.733	834.045	631.096
383.059	17.852	833.026	630.707
384.073	17.789	832.468	629.996
385.088	17.814	832.022	629.697
386.102	17.727	831.641	629.033
387.117	17.740	830.976	628.519
388.132	17.758	830.401	628.098
389.146	17.937	829.940	628.352
390.161	17.937	829.196	627.732
391.175	17.940	829.122	627.630
392.190	17.893	828.428	626.877
393.205	17.817	827.952	626.184
394.219	17.756	827.733	625.739
395.234	17.878	827.287	625.795
396.248	17.925	826.526	625.335
397.263	17.782	826.390	624.653
398.278	17.935	826.124	624.958
399.292	17.916	825.100	624.055
400.307	17.834	824.903	623.553
401.321	17.774	824.742	623.158
402.336	17.953	823.742	622.998
403.350	17.872	823.613	622.552
404.365	18.185	822.842	623.053
405.380	18.089	821.963	621.984
406.394	18.051	821.871	621.722
407.409	18.067	821.904	621.748
408.423	18.118	821.545	621.608
409.438	18.154	820.855	621.161
410.453	18.352	820.188	621.322
411.467	18.133	819.945	620.287
412.482	18.143	819.763	620.131
413.496	18.280	819.046	620.030
414.511	18.246	818.694	619.585
415.526	18.154	818.662	619.174
416.540	18.348	817.991	619.311
417.555	18.414	817.183	618.885
418.569	18.343	817.082	618.495
419.584	18.318	816.333	617.785
420.599	18.416	816.067	617.882
421.613	108.070	1288.611	1455.758
422.628	93.456	1357.452	1455.858
