DTS Sentinel unit serial number:	SN413079Multiplexer serial number:	ORYXHardware model number:	OX4-SRSoftware version number:	ORYX F/W v4.00 Oryx Data Collector v3.7.2.0data status	okinstallation	princeton_trtdifferential loss correction	single-endedforward channel	channel 1reverse channel	N/Adate	2019/09/14time	19:38:35forward acquisition time	60.00reverse acquisition time	0.00gamma	496.2192k internal	0.2313k external	0.2313temperature offset calibration	1.0022default loss term (dB/km)	0.3790temperature slope calibration	1.0000multiplexer offset coefficient	1.0000multiplexer slope coefficient	1.0000fibre end	0.00T internal ref (°C)	34.56T ext. ref 1 (°C)	4.87T ext. ref 2 (°C)	28.80length (m)	temperature (°C)	Stokes	anti-Stokes-747.200	-125.432	0.076	-0.012
-746.185	605.339	-0.136	0.344
-745.171	-200.000	-0.261	-0.001
-744.156	26.436	-0.067	0.056
-743.142	34.577	0.011	0.010
-742.127	408.803	-0.139	0.299
-741.112	63.043	-0.045	0.046
-740.098	-11.687	0.331	-0.220
-739.083	-200.000	0.008	-0.345
-738.069	-52.633	-0.152	0.071
-737.054	4.232	0.241	0.179
-736.039	192.994	-0.205	-0.314
-735.025	472.738	0.137	0.314
-734.010	-124.692	0.069	-0.011
-732.996	-200.000	0.028	-0.263
-731.981	-86.986	-0.174	-0.054
-730.966	-159.329	0.245	-0.014
-729.952	800.000	0.081	-0.288
-728.937	-89.475	-0.084	-0.025
-727.923	-107.069	-0.467	-0.104
-726.908	-64.546	-0.143	0.059
-725.894	40.393	0.035	-0.032
-724.879	-54.752	0.390	-0.179
-723.864	-7.271	-0.360	0.247
-722.850	-73.733	0.181	0.067
-721.835	52.956	-0.082	-0.080
-720.821	-116.911	-0.235	-0.044
-719.806	19.880	0.080	0.065
-718.791	-152.372	-0.126	0.009
-717.777	644.420	-0.148	-0.383
-716.762	23.572	0.393	-0.328
-715.748	-52.051	-0.105	-0.049
-714.733	260.663	-0.067	-0.117
-713.718	353.601	-0.122	-0.245
-712.704	-37.262	0.320	0.174
-711.689	-46.941	-0.171	-0.085
-710.675	-56.726	-0.099	0.044
-709.660	-88.139	-0.444	0.135
-708.645	443.910	0.110	-0.245
-707.631	-200.000	-0.036	-0.395
-706.616	103.832	-0.122	0.145
-705.602	-78.996	0.051	-0.018
-704.587	800.000	0.104	-0.336
-703.572	349.156	-0.169	0.339
-702.558	463.218	0.042	-0.094
-701.543	800.000	0.059	-0.208
-700.529	685.633	-0.110	-0.291
-699.514	-148.022	0.425	-0.036
-698.499	177.075	-0.068	-0.100
-697.485	800.000	-0.054	-0.193
-696.470	-35.217	-0.214	-0.118
-695.456	-55.393	-0.290	-0.132
-694.441	19.798	-0.173	-0.141
-693.426	377.420	-0.052	-0.108
-692.412	90.564	0.166	0.188
-691.397	-10.341	0.093	-0.063
-690.383	-122.186	0.050	0.008
-689.368	800.000	0.066	-0.265
-688.354	409.916	-0.031	-0.066
-687.339	-127.793	-0.170	0.025
-686.324	-191.947	0.198	0.002
-685.310	326.207	-0.090	-0.174
-684.295	-94.915	-0.375	-0.103
-683.281	27.713	-0.166	-0.142
-682.266	-200.000	0.029	-0.409
-681.251	-200.000	0.013	0.271
-680.237	-142.215	-0.138	0.014
-679.222	-200.000	-0.003	0.135
-678.208	381.979	0.033	-0.070
-677.193	-108.278	-0.061	0.013
-676.178	72.340	-0.191	0.202
-675.164	-167.159	-0.293	-0.012
-674.149	-9.302	-0.119	-0.080
-673.135	-133.907	-0.205	-0.026
-672.120	-200.000	0.033	-0.395
-671.105	219.654	0.174	-0.282
-670.091	-79.285	-0.312	0.107
-669.076	12.049	-0.067	0.052
-668.062	-200.000	-0.026	0.177
-667.047	33.362	-0.250	0.220
-666.032	240.178	0.116	0.195
-665.018	80.799	0.228	0.249
-664.003	61.464	0.176	0.177
-662.989	-132.598	-0.192	-0.025
-661.974	538.586	0.095	-0.228
-660.959	-98.362	-0.026	0.007
-659.945	800.000	0.061	0.242
-658.930	662.613	-0.110	0.286
-657.916	-133.642	0.172	-0.022
-656.901	800.000	-0.017	0.047
-655.886	288.439	0.175	0.320
-654.872	-24.454	-0.201	-0.121
-653.857	-183.430	-0.168	-0.003
-652.843	618.955	0.070	-0.177
-651.828	-91.909	-0.157	0.045
-650.814	-113.367	0.056	-0.011
-649.799	-165.044	0.333	-0.015
-648.784	262.980	0.176	-0.308
-647.770	162.160	-0.264	0.374
-646.755	140.992	0.152	-0.203
-645.741	-46.686	0.200	-0.099
-644.726	800.000	-0.103	-0.296
-643.711	-64.117	-0.089	-0.037
-642.697	17.271	-0.116	-0.093
-641.682	-123.203	-0.271	-0.044
-640.668	52.849	0.134	-0.130
-639.653	313.819	-0.123	-0.235
-638.638	-200.000	0.023	0.178
-637.624	-8.320	-0.271	0.184
-636.609	-200.000	-0.028	0.125
-635.595	-79.566	-0.246	0.084
-634.580	84.102	-0.139	0.153
-633.565	307.668	0.091	0.172
-632.551	230.777	-0.085	-0.141
-631.536	164.627	-0.089	0.127
-630.522	-106.771	0.166	0.037
-629.507	-132.016	-0.156	0.020
-628.492	-200.000	0.019	-0.208
-627.478	-115.034	0.192	0.037
-626.463	-56.607	-0.334	0.149
-625.449	499.477	0.097	0.225
-624.434	148.329	-0.049	-0.067
-623.419	-115.445	0.209	0.040
-622.405	-79.269	-0.194	-0.066
-621.390	29.985	-0.287	-0.247
-620.376	-200.000	-0.021	-0.242
-619.361	-42.208	0.221	-0.114
-618.346	800.000	0.024	0.080
-617.332	-78.609	0.119	-0.041
-616.317	-200.000	-0.184	-0.000
-615.303	-29.343	0.132	-0.076
-614.288	75.150	-0.130	0.138
-613.273	-200.000	0.006	0.068
-612.259	-41.381	0.225	0.117
-611.244	800.000	0.090	0.282
-610.230	211.764	0.067	0.107
-609.215	765.929	-0.046	0.126
-608.201	-14.324	0.328	-0.213
-607.186	-58.338	-0.060	0.026
-606.171	-35.991	-0.240	-0.131
-605.157	32.689	-0.034	-0.030
-604.142	245.743	-0.106	-0.180
-603.128	-200.000	0.021	0.163
-602.113	-200.000	0.025	0.344
-601.098	-56.993	0.134	0.060
-600.084	-102.473	-0.259	-0.063
-599.069	181.899	0.168	-0.250
-598.055	-4.008	0.212	-0.149
-597.040	-14.493	0.282	0.183
-596.025	-200.000	0.001	0.053
-595.011	618.085	-0.049	-0.123
-593.996	8.784	-0.089	0.068
-592.982	226.536	-0.098	0.160
-591.967	-89.506	-0.233	-0.069
-590.952	-200.000	0.091	0.408
-589.938	-89.229	0.118	-0.035
-588.923	-200.000	0.003	0.279
-587.909	-58.416	0.068	-0.030
-586.894	40.852	0.255	0.232
-585.879	800.000	-0.027	-0.082
-584.865	800.000	-0.046	0.194
-583.850	-200.000	-0.013	-0.182
-582.836	-200.000	-0.016	-0.130
-581.821	473.005	0.010	0.024
-580.806	424.354	0.034	0.074
-579.792	-199.968	-0.330	-0.002
-578.777	1.638	-0.316	0.229
-577.763	278.674	-0.078	0.140
-576.748	-115.223	-0.197	-0.038
-575.733	-200.000	0.116	0.001
-574.719	-106.531	-0.199	0.045
-573.704	151.198	-0.149	-0.204
-572.690	4.685	-0.338	-0.250
-571.675	-45.516	0.327	0.163
-570.661	-200.000	-0.002	0.245
-569.646	-66.934	0.099	-0.039
-568.631	359.902	0.054	-0.110
-567.617	-150.766	0.271	0.021
-566.602	-55.676	-0.159	-0.071
-565.588	107.481	-0.125	0.149
-564.573	-157.053	0.244	0.015
-563.558	-17.694	-0.330	0.209
-562.544	184.415	-0.148	-0.221
-561.529	91.499	-0.198	0.224
-560.515	600.823	-0.028	0.069
-559.500	70.281	-0.170	-0.177
-558.485	800.000	0.072	-0.204
-557.471	39.263	0.192	0.173
-556.456	-200.000	-0.003	0.108
-555.442	-5.947	0.335	-0.231
-554.427	237.113	-0.157	0.261
-553.412	-81.320	-0.240	-0.080
-552.398	386.898	-0.064	0.133
-551.383	-127.258	-0.312	-0.046
-550.369	-147.288	-0.222	0.019
-549.354	800.000	0.093	0.367
-548.339	-163.451	-0.447	0.021
-547.325	31.100	0.208	-0.180
-546.310	-200.000	-0.047	0.228
-545.296	131.034	0.130	-0.168
-544.281	-23.420	0.194	0.117
-543.266	369.425	-0.051	0.104
-542.252	-200.000	0.002	-0.388
-541.237	123.158	0.134	-0.169
-540.223	800.000	0.051	0.183
-539.208	-78.357	-0.094	-0.033
-538.193	19.728	0.164	0.133
-537.179	-28.778	0.119	-0.069
-536.164	-110.412	-0.339	0.071
-535.150	-200.000	-0.024	-0.266
-534.135	-200.000	0.049	-0.341
-533.121	-31.234	-0.226	0.128
-532.106	800.000	-0.077	-0.214
-531.091	176.708	0.022	0.032
-530.077	72.676	0.169	0.178
-529.062	-200.000	-0.030	0.135
-528.048	-149.819	0.143	-0.011
-527.033	800.000	0.043	0.134
-526.018	547.981	0.100	0.240
-525.004	747.287	0.103	0.279
-523.989	10.220	0.142	0.109
-522.975	-37.709	-0.342	-0.183
-521.960	-137.343	0.454	0.052
-520.945	-72.677	-0.124	-0.046
-519.931	258.367	0.190	0.329
-518.916	78.488	0.262	0.281
-517.902	771.370	0.107	0.292
-516.887	-200.000	0.018	0.278
-515.872	122.778	0.184	-0.232
-514.858	-71.248	-0.235	-0.089
-513.843	302.105	0.137	0.254
-512.829	-50.975	0.149	0.070
-511.814	800.000	0.036	0.105
-510.799	292.174	0.187	-0.343
-509.785	180.756	-0.269	0.397
-508.770	-71.756	-0.100	0.037
-507.756	-88.776	-0.098	0.029
-506.741	-200.000	-0.009	0.131
-505.726	611.978	0.048	-0.122
-504.712	-4.133	-0.198	0.138
-503.697	-84.792	0.207	-0.065
-502.683	399.622	0.121	0.255
-501.668	-126.929	-0.250	-0.037
-500.653	197.807	-0.103	0.159
-499.639	-88.192	0.260	0.078
-498.624	172.165	-0.309	-0.446
-497.610	65.632	0.156	-0.159
-496.595	-6.833	-0.300	0.205
-495.581	31.396	0.084	-0.073
-494.566	-148.760	0.313	0.025
-493.551	21.812	0.041	-0.033
-492.537	114.380	-0.020	0.025
-491.522	600.260	-0.077	-0.192
-490.508	-200.000	0.006	-0.102
-489.493	342.702	-0.077	-0.152
-488.478	-135.169	-0.187	-0.023
-487.464	165.496	-0.137	0.195
-486.449	751.169	-0.089	-0.240
-485.435	69.053	0.108	-0.112
-484.420	-115.226	0.460	-0.087
-483.405	-34.000	0.278	-0.154
-482.391	-200.000	-0.035	0.271
-481.376	-200.000	-0.045	0.387
-480.362	143.941	-0.147	0.197
-479.347	7.502	0.359	-0.270
-478.332	-137.598	0.280	-0.032
-477.318	800.000	-0.104	-0.355
-476.303	-66.570	0.217	0.086
-475.289	2.216	0.191	-0.138
-474.274	-81.547	-0.271	-0.089
-473.259	-200.000	0.006	-0.399
-472.245	-200.000	-0.022	0.250
-471.230	-108.788	-0.291	-0.063
-470.216	289.315	-0.073	-0.133
-469.201	367.967	-0.033	-0.067
-468.186	-200.000	-0.005	-0.057
-467.172	-123.279	-0.258	0.041
-466.157	-76.857	-0.060	0.021
-465.143	-112.614	-0.309	-0.062
-464.128	-99.034	-0.266	-0.068
-463.113	15.394	0.100	0.079
-462.099	-38.968	0.239	0.126
-461.084	273.180	-0.068	0.121
-460.070	-125.068	-0.296	-0.046
-459.055	-14.793	0.221	0.142
-458.040	237.267	-0.188	-0.313
-457.026	199.415	-0.177	0.273
-456.011	-109.368	0.166	0.035
-454.997	164.579	0.052	0.074
-453.982	-200.000	0.037	0.229
-452.968	420.526	0.150	0.321
-451.953	207.669	0.071	0.112
-450.938	-200.000	-0.054	-0.256
-449.924	-47.029	-0.179	0.087
-448.909	-148.097	0.137	-0.011
-447.895	58.323	0.133	0.130
-446.880	-200.000	0.027	0.333
-445.865	129.535	-0.193	-0.248
-444.851	-200.000	0.013	-0.159
-443.836	-44.115	-0.060	0.030
-442.822	-200.000	-0.055	-0.355
-441.807	325.591	0.023	-0.044
-440.792	173.465	-0.050	0.073
-439.778	-72.406	-0.102	0.038
-438.763	-59.604	-0.218	-0.094
-437.749	5.080	0.108	-0.080
-436.734	146.044	0.238	-0.320
-435.719	-200.000	0.024	0.122
-434.705	-68.565	0.379	-0.147
-433.690	10.134	-0.239	0.182
-432.676	-147.532	-0.177	0.015
-431.661	-49.205	-0.086	-0.041
-430.646	194.272	0.150	0.228
-429.632	-200.000	0.032	-0.219
-428.617	-66.657	0.086	-0.034
-427.603	305.659	-0.139	-0.259
-426.588	-50.032	0.300	-0.142
-425.573	800.000	0.066	0.234
-424.559	-64.411	-0.076	0.031
-423.544	124.275	-0.065	0.082
-422.530	-75.650	0.088	0.031
-421.515	-6.658	-0.100	-0.068
-420.500	70.129	-0.344	0.356
-419.486	-34.481	0.182	0.100
-418.471	-89.587	-0.298	-0.088
-417.457	800.000	-0.068	-0.274
-416.442	281.934	-0.115	-0.207
-415.428	85.644	-0.026	0.029
-414.413	-140.215	-0.385	0.040
-413.398	164.536	-0.122	0.173
-412.384	15.143	0.165	-0.129
-411.369	220.713	0.067	0.108
-410.355	7.284	0.277	0.207
-409.340	-99.350	0.113	0.029
-408.325	800.000	-0.014	0.055
-407.311	-53.140	0.255	0.117
-406.296	-99.575	-0.131	-0.033
-405.282	800.000	0.120	0.406
-404.267	-200.000	0.022	-0.143
-403.252	145.094	-0.084	-0.112
-402.238	-94.025	-0.123	0.034
-401.223	-200.000	-0.077	-0.344
-400.209	800.000	-0.032	-0.135
-399.194	324.872	0.086	0.165
-398.179	305.912	0.127	0.236
-397.165	-200.000	-0.049	-0.253
-396.150	-79.029	-0.443	-0.151
-395.136	-99.161	0.186	0.047
-394.121	53.665	-0.391	-0.375
-393.106	530.036	-0.078	-0.184
-392.092	800.000	-0.105	-0.305
-391.077	325.317	-0.140	0.268
-390.063	-106.465	-0.173	0.039
-389.048	-200.000	-0.011	0.068
-388.033	36.023	-0.169	-0.149
-387.019	800.000	-0.065	-0.257
-386.004	-200.000	0.061	-0.272
-384.990	-106.668	-0.107	-0.024
-383.975	-134.010	-0.292	0.036
-382.960	4.145	-0.057	0.042
-381.946	-43.725	0.158	-0.079
-380.931	148.696	-0.136	0.184
-379.917	196.903	0.142	-0.217
-378.902	25.786	-0.104	0.087
-377.888	-49.602	-0.442	-0.210
-376.873	-154.433	-0.095	0.006
-375.858	-200.000	0.057	-0.395
-374.844	29.940	0.254	0.216
-373.829	6.465	0.082	-0.061
-372.815	-55.561	-0.255	-0.114
-371.800	-172.119	-0.258	0.008
-370.785	186.434	0.049	0.073
-369.771	13.810	-0.120	-0.093
-368.756	-60.121	-0.268	-0.114
-367.742	606.022	-0.036	0.090
-366.727	-141.466	0.182	-0.018
-365.712	-55.047	-0.225	-0.101
-364.698	44.428	0.152	0.139
-363.683	-62.808	-0.122	0.051
-362.669	-109.842	0.381	-0.080
-361.654	-134.739	0.092	0.011
-360.639	-35.579	-0.162	-0.088
-359.625	88.765	0.229	-0.254
-358.610	-174.481	-0.265	-0.008
-357.596	118.792	-0.106	-0.131
-356.581	-139.770	0.060	0.006
-355.566	-132.570	-0.122	-0.016
-354.552	-86.012	0.111	0.034
-353.537	55.182	0.187	0.181
-352.523	-3.530	-0.212	0.147
-351.508	-48.748	0.193	0.092
-350.493	-200.000	-0.017	0.083
-349.479	594.162	-0.091	0.226
-348.464	721.803	0.101	0.269
-347.450	-7.495	0.057	-0.038
-346.435	-97.438	-0.250	-0.065
-345.420	-200.000	0.003	-0.222
-344.406	-139.352	0.367	-0.039
-343.391	-159.621	-0.110	0.006
-342.377	91.493	0.345	-0.387
-341.362	-97.443	-0.150	0.039
-340.348	-200.000	0.018	-0.135
-339.333	-127.537	0.262	-0.038
-338.318	52.692	0.125	-0.119
-337.304	190.668	-0.098	-0.147
-336.289	-104.617	-0.184	-0.042
-335.275	27.747	0.171	0.144
-334.260	365.714	-0.088	0.177
-333.245	-45.575	0.338	-0.167
-332.231	-200.000	0.056	-0.342
-331.216	-57.400	-0.146	-0.064
-330.202	-15.991	0.259	-0.165
-329.187	-200.000	0.019	-0.307
-328.172	652.349	0.098	0.250
-327.158	290.505	-0.165	0.298
-326.143	-200.000	-0.041	-0.294
-325.129	-127.490	-0.250	0.036
-324.114	153.521	0.221	0.303
-323.099	62.189	-0.016	-0.016
-322.085	-107.534	-0.160	-0.035
-321.070	800.000	-0.171	0.544
-320.056	-200.000	0.001	0.057
-319.041	-200.000	-0.037	-0.272
-318.026	-45.145	-0.228	-0.113
-317.012	-200.000	0.011	-0.053
-315.997	800.000	0.102	-0.415
-314.983	-44.191	-0.197	0.099
-313.968	-200.000	0.027	-0.184
-312.953	-195.528	0.266	0.002
-311.939	-63.794	0.143	0.058
-310.924	427.679	-0.032	-0.069
-309.910	59.064	0.155	-0.152
-308.895	-2.521	-0.150	-0.105
-307.880	-33.139	-0.175	0.097
-306.866	-200.000	0.006	-0.404
-305.851	-120.291	-0.140	-0.024
-304.837	-8.354	-0.276	-0.185
-303.822	314.238	-0.026	-0.050
-302.807	-85.980	-0.189	-0.058
-301.793	-156.046	0.090	-0.006
-300.778	-200.000	-0.002	-0.209
-299.764	-62.220	-0.280	0.116
-298.749	-0.434	-0.109	-0.077
-297.735	291.582	-0.049	0.089
-296.720	800.000	-0.071	0.234
-295.705	-170.406	0.456	-0.016
-294.691	-200.000	0.053	0.312
-293.676	137.146	-0.056	0.073
-292.662	-124.473	0.140	-0.022
-291.647	136.285	-0.122	-0.158
-290.632	-200.000	-0.001	0.150
-289.618	-75.942	0.186	0.066
-288.603	-166.644	-0.226	-0.009
-287.589	414.447	-0.103	-0.218
-286.574	338.493	0.150	-0.291
-285.559	-81.578	-0.221	0.072
-284.545	-200.000	-0.014	0.232
-283.530	-76.060	0.134	-0.047
-282.516	-97.380	0.333	0.086
-281.501	320.997	0.086	-0.162
-280.486	-75.639	-0.254	-0.090
-279.472	-66.789	0.080	-0.032
-278.457	-24.982	0.274	-0.162
-277.443	138.011	-0.148	0.193
-276.428	87.145	0.081	-0.090
-275.413	404.160	0.107	0.224
-274.399	487.792	-0.112	0.254
-273.384	-200.000	0.016	0.167
-272.370	-33.811	0.226	0.124
-271.355	215.915	-0.163	0.258
-270.340	384.991	0.050	-0.102
-269.326	638.499	0.028	0.072
-268.311	-200.000	0.013	-0.078
-267.297	-108.228	0.256	-0.055
-266.282	120.729	0.108	-0.133
-265.267	158.603	-0.104	0.144
-264.253	493.572	0.013	-0.031
-263.238	551.866	-0.168	-0.401
-262.224	59.276	-0.266	-0.260
-261.209	-17.619	0.222	-0.139
-260.195	-1.644	0.111	-0.078
-259.180	374.916	0.069	0.141
-258.165	-22.788	0.062	0.037
-257.151	800.000	-0.030	0.124
-256.136	104.146	0.075	-0.088
-255.122	319.191	0.058	0.109
-254.107	-76.225	0.358	0.126
-253.092	61.768	0.275	0.272
-252.078	218.243	0.216	0.343
-251.063	-4.078	-0.081	0.056
-250.049	59.014	-0.017	-0.017
-249.034	-200.000	-0.008	0.035
-248.019	5.364	0.340	0.249
-247.005	-53.888	-0.198	0.090
-245.990	-65.456	-0.109	0.043
-244.976	7.732	0.044	-0.033
-243.961	-200.000	-0.008	-0.090
-242.946	-143.534	0.168	-0.016
-241.932	44.011	-0.279	-0.254
-240.917	346.187	0.119	-0.233
-239.903	37.537	-0.106	0.094
-238.888	-104.196	-0.252	0.058
-237.873	-200.000	-0.023	-0.281
-236.859	-57.995	0.238	-0.103
-235.844	147.070	0.109	-0.146
-234.830	466.634	-0.055	0.122
-233.815	96.997	0.147	0.167
-232.800	263.075	0.075	0.129
-231.786	438.344	-0.124	0.270
-230.771	24.185	0.073	-0.060
-229.757	-181.754	0.364	-0.007
-228.742	-136.816	-0.134	-0.015
-227.727	-142.501	-0.207	0.020
-226.713	-16.603	-0.043	0.027
-225.698	557.957	-0.070	0.167
-224.684	-105.755	-0.178	-0.040
-223.669	4.956	-0.035	0.026
-222.655	687.387	-0.019	0.048
-221.640	95.722	0.036	-0.040
-220.625	-200.000	0.019	-0.452
-219.611	230.987	-0.094	-0.153
-218.596	800.000	0.073	-0.258
-217.582	282.364	0.052	0.093
-216.567	127.904	0.162	0.205
-215.552	-200.000	0.007	0.052
-214.538	-100.980	0.254	-0.062
-213.523	27.588	-0.036	0.030
-212.509	-54.820	0.443	0.199
-211.494	625.715	0.089	0.224
-210.479	-105.523	-0.373	0.084
-209.465	133.110	0.072	-0.093
-208.450	450.687	-0.196	0.430
-207.436	-91.340	0.253	0.072
-206.421	24.561	0.278	-0.228
-205.406	-200.000	0.002	-0.127
-204.392	-200.000	-0.024	-0.215
-203.377	-200.000	-0.027	0.170
-202.363	-127.961	0.111	0.016
-201.348	205.619	0.128	0.197
-200.333	-200.000	0.008	0.153
-199.319	214.472	0.184	-0.290
-198.304	800.000	-0.006	0.023
-197.290	160.382	0.142	0.197
-196.275	-104.296	-0.202	0.047
-195.260	-73.202	-0.199	0.072
-194.246	289.442	0.049	0.088
-193.231	45.302	0.194	0.178
-192.217	-149.465	0.460	0.036
-191.202	-142.326	-0.106	-0.010
-190.187	748.437	-0.073	0.195
-189.173	-83.494	0.377	-0.120
-188.158	-18.968	0.320	0.197
-187.144	34.587	-0.189	-0.164
-186.129	768.200	0.129	0.350
-185.114	155.234	0.017	0.023
-184.100	-141.818	0.176	-0.018
-183.085	-2.623	0.275	-0.191
-182.071	-200.000	0.038	-0.183
-181.056	-135.963	-0.148	0.017
-180.042	-29.540	-0.234	0.133
-179.027	-200.000	-0.038	-0.262
-178.012	-200.000	0.023	-0.208
-176.998	-200.000	0.003	-0.208
-175.983	-23.275	-0.355	0.212
-174.969	-200.000	-0.012	-0.222
-173.954	159.833	0.196	-0.270
-172.939	-41.755	0.240	-0.122
-171.925	-0.754	0.031	-0.022
-170.910	249.659	-0.160	-0.270
-169.896	349.982	-0.126	0.247
-168.881	800.000	0.103	0.325
-167.866	-80.471	0.278	-0.092
-166.852	2.723	0.018	-0.013
-165.837	281.294	-0.159	-0.282
-164.823	-200.000	-0.034	0.228
-163.808	139.442	-0.125	0.163
-162.793	-200.000	-0.041	0.274
-161.779	-200.000	0.039	-0.213
-160.764	59.593	-0.035	0.034
-159.750	-33.844	0.282	-0.154
-158.735	298.199	0.160	0.292
-157.720	-110.984	-0.193	-0.039
-156.706	-186.052	-0.307	0.004
-155.691	800.000	-0.021	-0.064
-154.677	-126.398	0.230	0.034
-153.662	290.486	0.082	-0.147
-152.647	48.111	0.113	-0.104
-151.633	-185.632	0.137	0.002
-150.618	-86.552	-0.064	0.019
-149.604	10.734	0.058	0.044
-148.589	800.000	-0.121	0.509
-147.574	-101.447	0.024	0.006
-146.560	269.796	-0.127	0.222
-145.545	-140.016	0.456	-0.048
-144.531	193.548	-0.108	-0.162
-143.516	797.490	0.119	-0.324
-142.502	-88.451	-0.133	-0.039
-141.487	187.809	0.105	-0.155
-140.472	5.759	-0.446	-0.326
-139.458	800.000	-0.031	0.088
-138.443	157.637	0.151	0.207
-137.429	178.511	-0.229	-0.331
-136.414	272.599	-0.159	-0.278
-135.399	-200.000	0.035	0.578
-134.385	91.418	-0.233	0.259
-133.370	130.450	0.046	0.059
-132.356	-111.160	0.138	0.028
-131.341	712.245	-0.071	-0.186
-130.326	183.747	0.172	0.252
-129.312	-200.000	-0.004	-0.137
-128.297	-22.592	-0.289	-0.173
-127.283	447.005	-0.113	-0.245
-126.268	693.707	0.080	-0.207
-125.253	-110.156	0.235	0.049
-124.239	-186.661	0.169	-0.002
-123.224	356.174	0.078	0.154
-122.210	41.503	0.158	-0.141
-121.195	60.952	0.233	0.229
-120.180	-200.000	-0.007	0.171
-119.166	-129.801	0.240	-0.033
-118.151	-32.783	0.296	0.163
-117.137	-200.000	-0.000	-0.088
-116.122	-200.000	0.009	0.302
-115.107	-110.566	0.200	0.041
-114.093	-130.858	0.089	0.012
-113.078	-35.347	0.265	0.142
-112.064	507.101	0.038	0.086
-111.049	-200.000	0.044	-0.373
-110.034	-72.196	-0.214	-0.078
-109.020	-153.444	0.350	-0.024
-108.005	-127.178	-0.015	0.002
-106.991	23.510	-0.253	-0.206
-105.976	800.000	0.013	-0.039
-104.962	-83.935	0.086	-0.027
-103.947	-1.056	-0.145	0.101
-102.932	-200.000	-0.018	-0.142
-101.918	-145.489	0.089	0.008
-100.903	-41.973	0.140	-0.071
-99.889	-48.922	-0.140	0.066
-98.874	78.525	0.109	0.116
-97.859	298.018	-0.095	0.172
-96.845	-183.228	0.368	-0.006
-95.830	10.466	0.193	0.145
-94.816	-200.000	0.000	0.016
-93.801	-200.000	0.001	0.175
-92.786	-89.062	0.409	0.120
-91.772	-200.000	0.052	0.348
-90.757	-103.787	-0.287	-0.066
-89.743	-46.930	-0.406	-0.196
-88.728	-200.000	-0.037	-0.192
-87.713	-64.028	0.178	0.072
-86.699	-144.405	-0.028	-0.003
-85.684	-200.000	0.031	0.222
-84.670	35.142	-0.176	-0.152
-83.655	-200.000	0.017	0.222
-82.640	-85.006	-0.100	0.031
-81.626	3.874	-0.059	0.043
-80.611	423.455	0.056	0.119
-79.597	274.603	0.204	0.356
-78.582	53.112	-0.265	0.251
-77.567	-200.000	0.094	0.493
-76.553	230.228	0.123	-0.199
-75.538	-200.000	0.026	-0.252
-74.524	-132.403	0.151	0.019
-73.509	-0.434	-0.307	0.215
-72.494	-66.301	-0.249	0.098
-71.480	-2.512	-0.297	0.205
-70.465	-107.020	-0.045	-0.010
-69.451	-200.000	-0.006	0.310
-68.436	141.015	0.308	-0.403
-67.422	-97.891	-0.198	0.051
-66.407	-200.000	0.001	0.170
-65.392	761.715	-0.049	0.130
-64.378	233.983	0.095	-0.155
-63.363	429.017	0.093	-0.199
-62.349	-50.339	-0.275	-0.128
-61.334	48.310	-0.800	-0.739
-60.319	38.854	0.527	0.464
-59.305	-200.000	-0.189	-0.902
-58.290	343.379	0.571	1.104
-57.276	583.174	0.733	1.778
-56.261	-200.000	97.705	579.575
-55.246	637.060	1393.208	3493.956
-54.232	189.890	2590.140	3836.706
-53.217	121.570	2163.012	2661.467
-52.203	46.251	1618.353	1480.371
-51.188	37.943	1355.914	1189.855
-50.173	34.695	1313.234	1133.123
-49.159	57.510	1362.250	1313.643
-48.144	61.552	1380.117	1355.153
-47.130	38.311	1335.260	1173.751
-46.115	34.746	1317.056	1136.546
-45.100	34.573	1312.385	1131.441
-44.086	34.417	1310.914	1129.206
-43.071	34.427	1307.972	1126.688
-42.057	34.325	1305.881	1124.235
-41.042	34.357	1304.406	1123.111
-40.027	34.531	1302.880	1122.779
-39.013	34.570	1301.081	1121.413
-37.998	34.575	1298.944	1119.553
-36.984	34.608	1297.383	1118.356
-35.969	34.567	1295.821	1116.731
-34.954	34.574	1294.179	1115.312
-33.940	34.663	1292.579	1114.407
-32.925	34.631	1291.522	1113.261
-31.911	34.680	1290.414	1112.548
-30.896	34.753	1288.361	1111.162
-29.881	34.739	1286.927	1109.800
-28.867	34.767	1285.621	1108.793
-27.852	34.670	1284.587	1107.293
-26.838	34.612	1283.032	1105.570
-25.823	34.662	1281.962	1104.895
-24.809	34.603	1280.330	1103.105
-23.794	34.639	1279.433	1102.494
-22.779	34.677	1277.629	1101.115
-21.765	34.616	1276.339	1099.608
-20.750	34.522	1275.367	1098.190
-19.736	34.518	1274.088	1097.017
-18.721	34.431	1273.433	1095.909
-17.706	34.462	1271.789	1094.631
-16.692	34.458	1270.721	1093.646
-15.677	34.609	1269.451	1093.372
-14.663	34.434	1268.250	1091.295
-13.648	34.459	1267.626	1090.857
-12.633	34.530	1266.311	1090.091
-11.619	34.453	1265.130	1088.591
-10.604	34.489	1264.615	1088.306
-9.590	34.497	1263.598	1087.437
-8.575	34.487	1262.329	1086.243
-7.560	34.485	1261.538	1085.505
-6.546	34.455	1260.569	1084.459
-5.531	34.451	1260.081	1083.972
-4.517	34.522	1258.760	1083.200
-3.502	34.587	1258.285	1083.116
-2.487	34.411	1257.345	1081.266
-1.473	34.506	1252.963	1077.989
-0.458	32.818	1237.846	1055.512
0.556	28.318	1219.814	1014.525
1.571	24.216	1224.653	995.597
2.586	23.267	1239.884	1002.518
3.600	22.522	1228.996	989.442
4.615	16.942	1157.698	902.354
5.629	8.653	1082.379	802.181
6.644	4.981	1061.858	768.817
7.659	4.804	1059.217	765.967
8.673	4.849	1058.571	765.655
9.688	4.847	1057.183	764.574
10.702	4.903	1055.542	763.595
11.717	9.451	1061.742	790.391
12.731	16.779	1072.299	834.397
13.746	19.557	1074.984	850.110
14.761	18.854	1073.384	845.315
15.775	17.650	1071.394	837.757
16.790	16.734	1068.741	831.114
17.804	15.987	1067.589	826.483
18.819	15.550	1066.410	823.354
19.834	15.292	1065.533	821.341
20.848	15.107	1064.699	819.718
21.863	14.997	1063.846	818.451
22.877	14.832	1063.160	817.047
23.892	14.834	1062.515	816.488
24.907	14.764	1061.948	815.639
25.921	14.775	1060.971	814.870
26.936	14.855	1059.265	813.874
27.950	14.762	1057.982	812.365
28.965	14.899	1056.418	811.756
29.980	15.018	1055.141	811.284
30.994	15.122	1054.078	810.895
32.009	15.110	1053.075	809.997
33.023	15.009	1052.140	808.715
34.038	15.053	1051.092	808.050
35.053	15.091	1049.615	807.027
36.067	14.885	1049.105	805.572
37.082	14.941	1048.350	805.193
38.096	15.012	1047.826	805.058
39.111	14.933	1047.181	804.110
40.126	15.070	1045.183	803.162
41.140	14.708	1044.552	800.873
42.155	14.625	1043.131	799.316
43.169	14.695	1042.061	798.759
44.184	14.615	1041.148	797.604
45.199	14.627	1040.122	796.804
46.213	14.750	1038.802	796.310
47.228	14.853	1037.879	796.024
48.242	14.874	1036.714	795.158
49.257	14.834	1035.930	794.297
50.271	14.923	1034.942	793.893
51.286	14.936	1033.953	793.126
52.301	14.934	1033.078	792.374
53.315	14.790	1032.110	790.878
54.330	14.769	1031.106	789.941
55.344	14.744	1030.273	789.113
56.359	14.937	1029.290	789.204
57.374	14.774	1028.529	787.784
58.388	14.758	1027.675	786.983
59.403	14.572	1026.848	785.405
60.417	14.680	1025.835	785.066
61.432	14.691	1024.837	784.288
62.447	14.584	1024.277	783.288
63.461	14.519	1023.614	782.406
64.476	14.543	1022.510	781.603
65.490	14.551	1021.558	780.844
66.505	14.677	1020.807	780.791
67.520	14.651	1020.391	780.284
68.534	14.674	1019.535	779.664
69.549	14.582	1018.771	778.582
70.563	14.584	1018.075	777.991
71.578	14.442	1017.659	776.944
72.593	14.422	1016.547	775.932
73.607	14.444	1015.585	775.233
74.622	14.509	1015.082	775.082
75.636	14.456	1014.470	774.299
76.651	14.491	1013.501	773.655
77.666	14.430	1013.123	773.012
78.680	14.665	1012.229	773.351
79.695	14.501	1011.656	772.088
80.709	14.609	1011.073	772.073
81.724	14.692	1010.581	772.013
82.739	14.718	1009.661	771.364
83.753	14.801	1009.038	771.198
84.768	15.111	1008.070	771.823
85.782	14.928	1007.379	770.381
86.797	14.979	1006.336	769.750
87.812	14.978	1005.042	768.686
88.826	14.796	1004.754	767.563
89.841	14.993	1003.495	767.437
90.855	14.900	1002.858	766.454
91.870	15.163	1001.919	766.875
92.884	15.178	1001.067	766.222
93.899	14.875	1000.894	764.640
94.914	15.007	999.801	764.337
95.928	15.113	998.441	763.712
96.943	15.052	997.733	762.829
97.957	14.986	997.135	762.001
98.972	15.032	996.081	761.339
99.987	15.083	995.144	760.785
101.001	15.027	994.348	759.856
102.016	15.084	993.476	759.380
103.030	14.964	993.031	758.429
104.045	15.013	992.138	757.903
105.060	14.986	991.218	757.012
106.074	14.793	990.392	755.441
107.089	14.594	989.767	753.997
108.103	14.565	988.535	752.863
109.118	14.737	987.178	752.535
110.133	14.652	986.347	751.453
111.147	14.616	985.888	750.874
112.162	14.783	984.709	750.661
113.176	14.715	984.201	749.903
114.191	14.779	983.526	749.609
115.206	14.776	982.714	748.912
116.220	14.734	981.718	747.899
117.235	14.865	980.687	747.630
118.249	14.782	980.216	746.834
119.264	14.783	979.348	746.111
120.279	14.744	978.159	744.965
121.293	14.660	977.581	744.085
122.308	14.723	976.784	743.692
123.322	14.553	975.710	742.054
124.337	14.670	974.608	741.669
125.352	14.517	973.937	740.416
126.366	14.537	973.004	739.728
127.381	14.592	971.880	739.053
128.395	14.760	970.948	739.021
129.410	14.777	969.973	738.288
130.424	14.718	969.353	737.492
131.439	14.765	968.460	736.956
132.454	14.793	968.268	736.864
133.468	14.783	967.218	735.958
134.483	14.852	966.334	735.525
135.497	14.860	965.507	734.865
136.512	14.884	964.555	734.178
137.527	14.891	964.150	733.840
138.541	14.882	963.047	732.894
139.556	14.793	962.660	732.145
140.570	15.105	961.624	732.656
141.585	15.116	960.908	732.093
142.600	15.086	960.205	731.363
143.614	15.263	958.976	731.135
144.629	15.269	958.511	730.743
145.643	15.153	957.363	729.299
146.658	15.010	956.378	727.859
147.673	15.095	955.377	727.404
148.687	14.988	954.566	726.257
149.702	14.921	953.958	725.441
150.716	14.957	952.896	724.722
151.731	14.901	952.283	723.951
152.746	14.912	951.594	723.409
153.760	15.053	951.235	723.683
154.775	15.085	950.406	723.128
155.789	15.055	950.043	722.656
156.804	15.146	949.084	722.258
157.819	15.211	948.295	721.872
158.833	15.172	948.033	721.440
159.848	15.209	947.158	720.868
160.862	15.155	946.412	720.007
161.877	15.005	945.010	718.233
162.892	14.887	943.780	716.730
163.906	14.892	943.137	716.196
164.921	14.985	942.242	715.851
165.935	15.099	941.399	715.638
166.950	15.264	940.270	715.417
167.964	15.185	939.624	714.528
168.979	14.998	938.673	712.946
169.994	15.023	938.104	712.557
171.008	15.040	937.300	711.955
172.023	15.186	936.671	712.033
173.037	15.180	936.439	711.769
174.052	15.204	935.363	710.991
175.067	15.137	934.128	709.705
176.081	14.929	933.758	708.480
177.096	15.022	933.377	708.520
178.110	15.224	932.290	708.487
179.125	15.154	931.985	707.897
180.140	15.206	931.514	707.695
181.154	15.179	931.288	707.348
182.169	15.386	930.601	707.636
183.183	15.322	930.025	706.866
184.198	15.230	929.572	706.074
185.213	15.351	928.460	705.676
186.227	15.462	927.313	705.206
187.242	15.464	926.927	704.861
188.256	15.519	926.640	704.808
189.271	15.513	925.844	704.116
190.286	15.260	925.244	702.537
191.300	15.002	924.290	700.669
192.315	14.940	923.581	699.812
193.329	15.079	923.147	700.004
194.344	15.087	922.788	699.703
195.359	15.329	921.943	700.011
196.373	15.262	921.606	699.413
197.388	15.462	920.928	699.671
198.402	15.557	920.388	699.595
199.417	15.734	919.773	699.799
200.432	15.770	918.899	699.221
201.446	15.690	919.005	698.909
202.461	15.788	918.324	698.734
203.475	15.677	918.122	698.060
204.490	15.798	916.548	697.304
205.504	15.576	915.750	695.716
206.519	15.496	915.260	694.948
207.534	15.584	914.463	694.647
208.548	15.638	914.059	694.503
209.563	15.524	913.575	693.601
210.577	15.759	912.727	693.866
211.592	15.721	912.288	693.316
212.607	15.849	911.644	693.291
213.621	15.715	910.680	691.943
214.636	15.731	909.925	691.376
215.650	15.821	909.548	691.400
216.665	15.719	908.978	690.484
217.680	16.037	907.845	690.866
218.694	16.022	907.429	690.429
219.709	15.788	907.329	689.332
220.723	15.908	906.112	688.838
221.738	15.846	905.105	687.756
222.753	15.900	904.895	687.758
223.767	15.937	904.505	687.552
224.782	16.100	903.946	687.731
225.796	16.012	903.287	686.810
226.811	15.927	902.666	685.928
227.826	15.798	901.781	684.674
228.840	15.843	901.152	684.319
229.855	15.993	900.155	684.111
230.869	15.949	899.427	683.317
231.884	15.958	898.354	682.478
232.899	15.927	897.994	682.020
233.913	15.783	897.493	680.994
234.928	15.756	896.855	680.339
235.942	15.712	896.551	679.870
236.957	15.875	895.542	679.706
237.972	15.838	895.256	679.279
238.986	15.841	894.414	678.593
240.001	15.828	894.270	678.369
241.015	15.813	893.346	677.549
242.030	15.934	892.866	677.611
243.045	16.044	892.441	677.670
244.059	15.899	891.750	676.505
245.074	15.906	891.042	675.935
246.088	16.028	890.376	675.859
247.103	16.167	889.660	675.813
248.117	16.155	889.861	675.856
249.132	16.353	888.946	675.894
250.147	16.354	888.430	675.446
251.161	16.460	887.735	675.281
252.176	16.453	887.139	674.742
253.190	16.450	886.631	674.282
254.205	16.626	885.762	674.266
255.220	16.388	885.507	673.061
256.234	16.607	884.582	673.170
257.249	16.513	884.063	672.343
258.263	16.504	883.233	671.618
259.278	16.610	882.337	671.297
260.293	16.586	881.916	670.823
261.307	16.642	881.561	670.715
262.322	16.660	880.718	670.086
263.336	16.906	879.399	669.994
264.351	16.776	879.064	669.166
265.366	16.761	878.940	668.952
266.380	16.737	878.577	668.523
267.395	16.706	877.300	667.368
268.409	16.661	876.446	666.484
269.424	16.728	875.917	666.285
270.439	16.534	875.542	665.177
271.453	16.601	874.700	664.743
272.468	16.669	874.294	664.645
273.482	16.637	873.291	663.697
274.497	16.635	873.168	663.538
275.512	16.646	872.248	662.820
276.526	16.730	871.400	662.446
277.541	16.712	871.405	662.323
278.555	16.695	870.857	661.783
279.570	16.817	870.187	661.687
280.585	16.745	869.311	660.683
281.599	16.905	868.732	660.809
282.614	16.774	867.703	659.459
283.628	16.946	867.008	659.542
284.643	16.843	866.384	658.606
285.657	16.909	866.273	658.720
286.672	16.808	865.787	657.899
287.687	16.873	864.923	657.438
288.701	16.934	864.398	657.216
289.716	16.983	863.706	656.822
290.730	16.925	862.924	655.945
291.745	17.022	862.430	655.887
292.760	17.036	862.230	655.731
293.774	17.084	861.823	655.547
294.789	17.017	860.777	654.437
295.803	17.120	859.947	654.145
296.818	16.840	859.785	652.885
297.833	16.892	858.673	652.184
298.847	16.989	858.343	652.247
299.862	17.139	857.638	652.228
300.876	17.009	857.315	651.428
301.891	17.273	856.457	651.731
302.906	17.175	856.026	650.968
303.920	17.341	855.411	651.079
304.935	17.303	854.986	650.553
305.949	17.172	854.427	649.571
306.964	17.204	854.055	649.352
307.979	17.207	852.923	648.445
308.993	17.490	852.533	649.168
310.008	17.546	851.451	648.501
311.022	17.317	851.252	647.421
312.037	17.127	851.084	646.515
313.052	17.193	850.090	645.951
314.066	17.073	849.846	645.254
315.081	17.148	849.242	645.024
316.095	16.994	848.751	644.006
317.110	17.261	847.520	644.028
318.125	17.214	847.280	643.610
319.139	17.240	847.002	643.442
320.154	17.297	846.134	642.940
321.168	17.398	845.451	642.746
322.183	17.360	845.169	642.331
323.197	17.206	844.848	641.449
324.212	17.311	844.123	641.237
325.227	17.179	843.786	640.427
326.241	17.168	843.373	640.018
327.256	17.369	842.163	639.798
328.270	17.330	841.945	639.430
329.285	17.356	841.230	638.926
330.300	17.235	840.480	637.845
331.314	17.473	840.122	638.413
332.329	17.338	839.772	637.582
333.343	17.430	839.737	637.843
334.358	17.515	839.025	637.567
335.373	17.491	838.922	637.342
336.387	17.547	838.527	637.192
337.402	17.572	838.275	637.039
338.416	17.568	838.344	637.021
339.431	17.693	837.458	636.757
340.446	17.751	837.068	636.622
341.460	17.929	836.710	636.956
342.475	17.799	836.290	636.096
343.489	17.870	835.592	635.773
344.504	17.865	835.325	635.497
345.519	18.083	834.863	635.900
346.533	17.877	834.225	634.591
347.548	17.751	833.590	633.583
348.562	17.770	832.869	633.050
349.577	17.696	832.433	632.390
350.592	17.667	831.755	631.710
351.606	17.717	831.061	631.312
352.621	17.620	830.299	630.318
353.635	17.825	829.548	630.449
354.650	17.821	829.381	630.253
355.665	17.806	828.949	629.811
356.679	17.874	828.258	629.482
357.694	17.867	827.574	628.884
358.708	17.870	826.793	628.244
359.723	17.816	826.411	627.699
360.738	17.890	825.247	627.029
361.752	17.902	825.177	626.965
362.767	17.953	824.788	626.805
363.781	18.041	824.093	626.541
364.796	18.263	823.531	626.873
365.810	18.303	823.466	626.914
366.825	18.138	823.094	625.972
367.840	18.222	822.644	625.881
368.854	18.215	821.898	625.232
369.869	18.016	821.864	624.425
370.883	18.141	821.093	624.241
371.898	18.311	820.755	624.550
372.913	18.268	820.638	624.246
373.927	18.216	819.953	623.483
374.942	18.216	819.468	623.058
375.956	18.239	819.264	622.932
376.971	18.346	818.831	622.935
377.986	18.399	818.154	622.557
379.000	18.478	817.510	622.301
380.015	18.431	817.131	621.786
381.029	18.426	816.386	621.144
382.044	18.494	815.947	621.001
383.059	18.569	815.282	620.713
384.073	18.463	814.838	619.937
385.088	18.417	814.210	619.238
386.102	18.274	813.968	618.480
387.117	18.443	813.184	618.441
388.132	18.492	812.009	617.668
389.146	18.544	811.737	617.595
390.161	18.565	811.632	617.536
391.175	18.486	810.974	616.697
392.190	18.460	810.313	616.045
393.205	18.547	809.999	616.067
394.219	18.489	809.647	615.536
395.234	18.255	809.364	614.426
396.248	18.242	808.672	613.798
397.263	18.418	807.887	613.782
398.278	18.226	808.170	613.251
399.292	18.167	807.946	612.818
400.307	18.321	807.376	612.881
401.321	18.209	806.983	612.129
402.336	18.374	806.197	612.068
403.350	18.469	805.576	611.880
404.365	18.649	805.390	612.327
405.380	18.745	804.860	612.214
406.394	18.753	804.400	611.839
407.409	18.639	804.018	611.086
408.423	18.788	803.430	611.115
409.438	18.853	803.566	611.398
410.453	18.792	802.878	610.601
411.467	18.842	802.111	610.143
412.482	18.889	802.021	610.188
413.496	18.866	801.589	609.722
414.511	18.951	801.358	609.795
415.526	18.838	800.967	609.041
416.540	18.897	800.356	608.733
417.555	18.958	800.017	608.638
418.569	18.963	799.265	608.029
419.584	18.806	799.079	607.278
420.599	18.865	798.727	607.165
421.613	155.224	1370.619	1789.385
422.628	134.500	1453.980	1789.500
