DTS Sentinel unit serial number:	SN413079Multiplexer serial number:	ORYXHardware model number:	OX4-SRSoftware version number:	ORYX F/W v4.00 Oryx Data Collector v3.7.2.0data status	okinstallation	princeton_trtdifferential loss correction	single-endedforward channel	channel 1reverse channel	N/Adate	2019/09/17time	07:38:35forward acquisition time	60.00reverse acquisition time	0.00gamma	496.2192k internal	0.2332k external	0.2332temperature offset calibration	0.9967default loss term (dB/km)	0.3790temperature slope calibration	1.0000multiplexer offset coefficient	1.0000multiplexer slope coefficient	1.0000fibre end	0.00T internal ref (°C)	27.17T ext. ref 1 (°C)	0.12T ext. ref 2 (°C)	21.90length (m)	temperature (°C)	Stokes	anti-Stokes-747.200	800.000	-0.076	0.216
-746.185	99.780	0.104	0.121
-745.171	-124.551	0.308	-0.048
-744.156	-200.000	-0.023	0.385
-743.142	74.556	0.177	-0.187
-742.127	-200.000	-0.003	0.258
-741.112	-200.000	-0.010	0.098
-740.098	-119.090	0.262	-0.046
-739.083	539.071	-0.090	0.216
-738.069	-128.203	-0.449	0.064
-737.054	-200.000	-0.017	0.074
-736.039	-118.258	0.167	-0.030
-735.025	-200.000	0.065	0.393
-734.010	-200.000	-0.004	-0.230
-732.996	-95.659	-0.214	-0.058
-731.981	446.832	-0.071	-0.156
-730.966	-8.657	0.123	-0.083
-729.952	8.714	-0.049	0.037
-728.937	800.000	-0.052	-0.150
-727.923	-167.440	0.123	0.005
-726.908	-200.000	-0.020	0.174
-725.894	51.391	-0.325	-0.310
-724.879	-60.590	-0.261	0.111
-723.864	-15.100	0.336	0.216
-722.850	-97.080	0.145	-0.038
-721.835	504.080	0.248	-0.576
-720.821	192.376	-0.021	0.032
-719.806	35.405	-0.066	-0.059
-718.791	-200.000	-0.037	0.250
-717.777	-153.507	0.216	0.015
-716.762	145.850	0.287	-0.386
-715.748	-78.471	0.131	-0.045
-714.733	800.000	-0.088	-0.286
-713.718	800.000	-0.043	0.178
-712.704	-53.662	-0.154	-0.071
-711.689	621.392	-0.070	-0.176
-710.675	-149.475	0.267	0.021
-709.660	211.104	-0.059	-0.094
-708.645	-200.000	0.015	-0.087
-707.631	79.167	0.205	-0.221
-706.616	-103.402	0.320	0.076
-705.602	-54.653	-0.229	0.104
-704.587	-85.370	0.069	-0.021
-703.572	-149.254	-0.277	0.022
-702.558	-6.219	-0.148	0.102
-701.543	-200.000	0.046	0.229
-700.529	-46.226	0.170	-0.084
-699.514	800.000	-0.056	0.200
-698.499	800.000	0.013	0.057
-697.485	-200.000	-0.040	-0.232
-696.470	-200.000	-0.042	0.223
-695.456	-13.030	-0.342	0.223
-694.441	92.552	-0.088	-0.099
-693.426	-200.000	-0.010	-0.081
-692.412	363.024	0.082	-0.165
-691.397	113.887	0.195	-0.238
-690.383	181.914	-0.060	-0.089
-689.368	309.637	-0.165	-0.309
-688.354	80.649	0.281	-0.304
-687.339	60.972	-0.032	-0.031
-686.324	800.000	0.033	0.119
-685.310	-160.146	0.184	-0.010
-684.295	-97.613	0.279	-0.073
-683.281	-56.415	-0.223	-0.099
-682.266	-71.230	-0.128	-0.048
-681.251	-117.139	-0.190	0.035
-680.237	209.249	-0.128	-0.202
-679.222	800.000	-0.013	0.047
-678.208	-200.000	-0.015	0.113
-677.193	79.769	-0.111	0.120
-676.178	-76.929	-0.202	-0.071
-675.164	200.414	0.076	-0.117
-674.149	-98.735	-0.368	0.094
-673.135	94.622	0.056	-0.064
-672.120	619.305	0.124	0.313
-671.105	-200.000	0.001	0.045
-670.091	-132.196	-0.248	0.032
-669.076	162.170	0.185	-0.259
-668.062	-177.237	0.165	-0.004
-667.047	-85.053	0.071	-0.022
-666.032	800.000	0.092	-0.326
-665.018	-200.000	0.096	-0.500
-664.003	-200.000	-0.026	-0.119
-662.989	-200.000	0.027	0.146
-661.974	-126.549	0.308	0.046
-660.959	-9.045	-0.173	0.116
-659.945	-144.508	-0.068	0.006
-658.930	-61.840	0.217	0.091
-657.916	800.000	-0.089	-0.258
-656.901	-200.000	0.018	0.089
-655.886	17.815	-0.164	-0.131
-654.872	484.931	0.115	0.262
-653.857	-84.199	-0.259	0.082
-652.843	294.359	0.035	0.065
-651.828	-99.580	0.319	0.080
-650.814	-62.185	-0.189	-0.079
-649.799	505.906	-0.086	0.199
-648.784	330.924	-0.163	0.314
-647.770	82.550	0.162	0.177
-646.755	15.536	0.124	-0.098
-645.741	-85.598	-0.348	0.109
-644.726	-200.000	-0.006	-0.123
-643.711	-200.000	0.055	0.325
-642.697	-200.000	-0.003	0.151
-641.682	800.000	0.058	-0.192
-640.668	-200.000	0.009	-0.191
-639.653	-200.000	0.005	-0.244
-638.638	0.032	-0.153	-0.109
-637.624	184.674	-0.112	-0.166
-636.609	-67.266	-0.215	0.085
-635.595	-66.939	0.070	-0.028
-634.580	136.977	0.131	-0.171
-633.565	-178.465	-0.125	-0.003
-632.551	22.032	0.091	-0.074
-631.536	5.740	0.066	-0.049
-630.522	-44.635	0.288	0.144
-629.507	-200.000	0.026	-0.285
-628.492	2.746	-0.050	-0.037
-627.478	-140.680	0.290	0.030
-626.463	-120.480	0.140	0.024
-625.449	-11.208	0.180	0.119
-624.434	376.494	-0.127	-0.260
-623.419	-65.163	0.255	-0.103
-622.405	-130.300	-0.204	0.028
-621.390	-159.403	0.216	0.012
-620.376	-81.270	0.070	0.023
-619.361	-130.685	0.055	0.007
-618.346	46.851	-0.185	0.172
-617.332	12.451	-0.291	-0.225
-616.317	-162.334	0.216	0.011
-615.303	254.613	-0.064	0.109
-614.288	-200.000	-0.000	0.100
-613.273	-200.000	0.031	0.179
-612.259	-70.121	0.186	0.071
-611.244	157.084	0.203	-0.280
-610.230	-200.000	-0.051	-0.454
-609.215	-5.253	-0.269	0.185
-608.201	320.061	0.176	0.334
-607.186	-64.646	-0.485	-0.197
-606.171	13.200	0.034	-0.026
-605.157	-154.225	-0.326	0.022
-604.142	160.869	-0.042	0.059
-603.128	-200.000	-0.031	-0.261
-602.113	-134.763	0.169	-0.021
-601.098	-95.588	0.378	0.101
-600.084	-146.761	-0.171	0.015
-599.069	-112.015	-0.276	0.056
-598.055	-109.663	0.233	-0.049
-597.040	29.965	-0.255	-0.217
-596.025	367.011	-0.038	-0.077
-595.011	182.447	0.149	-0.220
-593.996	800.000	-0.039	-0.114
-592.982	35.918	-0.217	-0.191
-591.967	56.851	-0.154	0.150
-590.952	-128.316	-0.430	0.061
-589.938	84.429	0.210	0.230
-588.923	-84.309	0.312	-0.099
-587.909	-11.001	-0.149	0.098
-586.894	-7.355	-0.164	-0.111
-585.879	-95.863	-0.397	-0.106
-584.865	-167.186	0.464	-0.019
-583.850	-200.000	-0.020	-0.128
-582.836	442.806	-0.071	-0.155
-581.821	-200.000	0.002	-0.144
-580.806	-200.000	-0.044	0.262
-579.792	-141.133	0.214	0.022
-578.777	382.148	-0.140	-0.288
-577.763	8.527	0.178	-0.134
-576.748	209.918	0.132	-0.208
-575.733	-200.000	0.006	-0.062
-574.719	478.428	-0.144	0.326
-573.704	-126.994	-0.124	0.018
-572.690	-100.622	-0.476	-0.117
-571.675	-28.985	-0.111	-0.064
-570.661	-105.766	-0.080	0.018
-569.646	30.082	0.317	-0.270
-568.631	23.348	-0.139	0.114
-567.617	-93.675	0.264	-0.073
-566.602	132.429	-0.188	0.242
-565.588	5.484	0.111	-0.082
-564.573	760.458	-0.033	0.089
-563.558	800.000	0.128	0.387
-562.544	-19.807	0.346	-0.213
-561.529	-200.000	-0.015	0.132
-560.515	7.829	-0.055	-0.041
-559.500	-107.210	0.117	0.026
-558.485	-94.328	0.235	0.064
-557.471	-200.000	-0.004	-0.069
-556.456	587.010	-0.214	0.526
-555.442	93.530	-0.080	0.090
-554.427	224.129	0.172	0.277
-553.412	103.883	0.099	-0.116
-552.398	155.405	-0.187	-0.257
-551.383	-48.743	-0.285	-0.137
-550.369	-100.429	0.268	0.066
-549.354	-92.308	0.415	-0.117
-548.339	64.074	0.090	0.090
-547.325	12.718	0.254	0.196
-546.310	-19.579	0.021	0.013
-545.296	-200.000	-0.058	0.282
-544.281	-11.732	0.243	0.159
-543.266	-42.401	0.147	-0.075
-542.252	108.519	-0.221	0.263
-541.237	-200.000	0.010	-0.065
-540.223	31.772	-0.160	-0.137
-539.208	56.725	-0.182	0.177
-538.193	25.583	-0.155	0.129
-537.179	442.757	-0.091	-0.200
-536.164	-96.115	0.080	0.021
-535.150	-109.766	-0.305	-0.064
-534.135	-118.847	-0.437	-0.077
-533.121	800.000	-0.045	0.156
-532.106	-144.537	-0.184	0.017
-531.091	-87.205	0.130	-0.039
-530.077	220.145	0.169	-0.269
-529.062	-200.000	0.017	-0.089
-528.048	-200.000	0.015	-0.071
-527.033	-200.000	-0.034	-0.217
-526.018	-88.360	0.168	-0.050
-525.004	-73.550	0.294	-0.107
-523.989	-200.000	-0.011	-0.189
-522.975	117.019	-0.174	0.213
-521.960	80.564	-0.181	0.195
-520.945	252.921	-0.207	-0.353
-519.931	-200.000	0.040	0.232
-518.916	-108.507	-0.074	-0.016
-517.902	103.341	0.051	-0.059
-516.887	-198.118	-0.089	0.001
-515.872	296.367	0.023	-0.042
-514.858	-200.000	0.001	0.043
-513.843	-98.095	0.207	-0.053
-512.829	-57.809	-0.183	0.080
-511.814	-42.375	0.170	0.086
-510.799	-98.634	-0.039	-0.010
-509.785	-200.000	-0.022	-0.100
-508.770	-200.000	0.058	0.256
-507.756	-200.000	-0.006	-0.056
-506.741	86.715	-0.098	0.108
-505.726	-17.846	0.150	-0.094
-504.712	26.407	0.165	0.137
-503.697	-110.827	0.284	-0.058
-502.683	74.203	-0.068	-0.071
-501.668	63.239	0.178	0.178
-500.653	-64.481	0.072	-0.029
-499.639	481.796	0.032	-0.073
-498.624	24.031	0.072	-0.059
-497.610	132.417	0.097	-0.125
-496.595	-81.976	-0.264	-0.086
-495.581	-112.873	0.384	0.076
-494.566	89.156	0.209	-0.232
-493.551	-109.721	0.177	0.037
-492.537	10.677	0.207	-0.157
-491.522	0.580	-0.141	0.101
-490.508	-36.891	-0.034	0.018
-489.493	266.952	-0.095	0.165
-488.478	87.969	-0.081	-0.090
-487.464	53.345	-0.147	0.140
-486.449	-200.000	0.033	0.235
-485.435	300.512	0.195	0.359
-484.420	-136.970	0.530	-0.060
-483.405	414.787	0.031	0.065
-482.391	706.808	0.142	-0.374
-481.376	-4.743	0.038	-0.026
-480.362	-48.803	-0.091	-0.044
-479.347	16.086	0.088	-0.069
-478.332	-2.693	-0.128	0.089
-477.318	800.000	-0.069	0.210
-476.303	800.000	0.021	-0.072
-475.289	382.153	-0.039	-0.080
-474.274	-129.950	-0.252	-0.034
-473.259	-149.135	-0.037	-0.003
-472.245	16.440	0.084	-0.066
-471.230	-200.000	0.033	-0.278
-470.216	-200.000	0.020	0.184
-469.201	800.000	-0.034	-0.122
-468.186	-10.161	-0.096	-0.063
-467.172	-200.000	0.010	-0.233
-466.157	-200.000	0.042	-0.338
-465.143	-59.380	-0.120	0.051
-464.128	-47.060	0.117	0.057
-463.113	-200.000	-0.015	0.128
-462.099	431.714	0.133	0.287
-461.084	645.539	0.120	0.305
-460.070	-4.201	-0.102	-0.070
-459.055	-89.951	-0.080	0.023
-458.040	-48.758	-0.173	-0.083
-457.026	-113.574	0.374	-0.073
-456.011	200.841	0.062	0.094
-454.997	-112.623	-0.141	-0.028
-453.982	-200.000	-0.096	-0.517
-452.968	-51.200	-0.211	0.098
-451.953	300.078	-0.030	-0.054
-450.938	-146.187	-0.265	0.023
-449.924	-55.050	-0.144	-0.065
-448.909	-75.027	-0.169	-0.060
-447.895	18.009	-0.139	0.110
-446.880	-136.268	0.262	0.030
-445.865	79.219	0.187	0.200
-444.851	-63.283	0.027	-0.011
-443.836	110.562	0.141	0.169
-442.822	5.761	0.039	-0.029
-441.807	241.397	-0.051	-0.084
-440.792	-55.043	-0.058	-0.026
-439.778	220.383	0.174	-0.277
-438.763	449.782	-0.077	-0.169
-437.749	1.870	-0.033	0.024
-436.734	-182.715	-0.244	-0.004
-435.719	-200.000	-0.009	-0.105
-434.705	65.219	-0.123	0.124
-433.690	65.191	0.120	0.121
-432.676	800.000	-0.098	-0.322
-431.661	-7.036	0.196	-0.132
-430.646	164.248	-0.018	-0.026
-429.632	-200.000	-0.006	-0.238
-428.617	342.620	0.046	0.090
-427.603	462.028	-0.109	-0.241
-426.588	140.359	-0.194	0.254
-425.573	-121.556	0.209	-0.035
-424.559	51.121	0.170	-0.161
-423.544	-146.976	0.351	-0.030
-422.530	378.722	0.086	-0.174
-421.515	-29.854	-0.057	-0.032
-420.500	90.797	-0.119	0.133
-419.486	-200.000	-0.006	-0.268
-418.471	127.627	0.253	0.319
-417.457	-196.303	-0.120	0.001
-416.442	-200.000	-0.018	-0.134
-415.428	-120.570	-0.244	0.041
-414.413	415.920	-0.128	-0.272
-413.398	-38.450	-0.342	0.180
-412.384	69.272	-0.057	-0.059
-411.369	681.800	0.063	-0.163
-410.355	580.149	-0.047	-0.115
-409.340	27.656	-0.083	0.069
-408.325	-10.897	0.277	0.181
-407.311	-5.812	-0.202	-0.137
-406.296	-200.000	0.005	0.086
-405.282	-190.871	-0.234	-0.002
-404.267	-142.039	0.227	0.022
-403.252	267.585	-0.114	-0.198
-402.238	241.436	0.027	-0.045
-401.223	800.000	0.112	-0.332
-400.209	800.000	0.012	0.051
-399.194	-136.444	0.221	-0.025
-398.179	702.002	0.063	-0.166
-397.165	800.000	0.095	-0.368
-396.150	84.322	0.060	0.065
-395.136	-83.964	0.127	-0.040
-394.121	26.090	-0.032	-0.026
-393.106	-200.000	0.031	0.497
-392.092	-46.239	0.046	-0.023
-391.077	50.956	0.063	-0.059
-390.063	-56.964	-0.164	0.072
-389.048	213.006	0.175	0.274
-388.033	-200.000	0.008	0.420
-387.019	107.985	0.082	0.097
-386.004	-198.400	-0.400	0.002
-384.990	576.932	0.094	0.228
-383.975	33.031	0.113	0.098
-382.960	-71.164	0.215	-0.080
-381.946	205.196	0.206	0.317
-380.931	-200.000	-0.036	0.159
-379.917	800.000	0.071	0.269
-378.902	142.017	-0.043	-0.056
-377.888	800.000	-0.119	0.438
-376.873	18.462	-0.149	0.118
-375.858	29.683	0.243	0.205
-374.844	346.783	-0.074	-0.144
-373.829	140.627	-0.086	0.112
-372.815	230.549	-0.155	-0.251
-371.800	183.989	-0.107	0.157
-370.785	-112.331	0.084	0.017
-369.771	-176.715	-0.289	0.007
-368.756	-200.000	0.026	0.380
-367.742	156.141	-0.051	-0.069
-366.727	-200.000	-0.011	-0.056
-365.712	-133.430	-0.153	0.019
-364.698	800.000	-0.065	0.194
-363.683	23.921	0.113	0.093
-362.669	775.997	-0.083	0.223
-361.654	-169.791	-0.057	-0.002
-360.639	97.479	0.142	0.162
-359.625	110.058	0.126	0.150
-358.610	22.442	0.161	0.130
-357.596	470.027	0.092	-0.204
-356.581	-114.051	0.152	-0.029
-355.566	-200.000	-0.038	-0.190
-354.552	223.208	0.138	0.220
-353.537	198.384	0.043	-0.066
-352.523	-8.813	0.121	0.080
-351.508	-139.702	0.226	-0.024
-350.493	-79.980	0.088	-0.029
-349.479	-200.000	0.033	-0.264
-348.464	444.717	-0.064	-0.139
-347.450	-37.571	-0.072	0.038
-346.435	10.506	-0.071	-0.054
-345.420	240.697	0.078	-0.129
-344.406	112.478	-0.063	0.075
-343.391	-56.668	-0.200	0.088
-342.377	-200.000	-0.034	0.245
-341.362	-25.408	0.120	0.070
-340.348	-148.501	-0.375	-0.030
-339.333	800.000	-0.007	0.026
-338.318	-200.000	-0.022	0.182
-337.304	-121.815	0.228	-0.037
-336.289	-200.000	0.098	0.464
-335.275	131.485	0.083	0.106
-334.260	800.000	0.014	0.047
-333.245	-118.910	0.303	0.053
-332.231	-200.000	0.046	-0.213
-331.216	800.000	0.033	0.097
-330.202	86.764	0.245	-0.267
-329.187	800.000	-0.056	-0.198
-328.172	-100.172	-0.240	-0.059
-327.158	15.665	-0.065	0.051
-326.143	85.382	0.116	0.126
-325.129	-20.432	0.086	-0.052
-324.114	668.527	0.059	0.150
-323.099	136.511	0.143	-0.184
-322.085	44.384	-0.076	0.069
-321.070	690.631	0.055	0.142
-320.056	-35.802	0.166	0.089
-319.041	-168.258	-0.133	0.005
-318.026	-200.000	0.024	-0.292
-317.012	800.000	-0.107	-0.364
-315.997	270.874	0.076	-0.133
-314.983	-200.000	-0.023	0.258
-313.968	800.000	-0.058	0.216
-312.953	-163.786	0.180	0.008
-311.939	-200.000	0.021	0.181
-310.924	130.240	0.087	-0.110
-309.910	385.773	-0.098	0.199
-308.895	-81.544	-0.275	0.089
-307.880	800.000	0.085	0.251
-306.866	-46.489	-0.206	0.100
-305.851	190.528	0.214	-0.318
-304.837	96.337	-0.144	0.163
-303.822	156.661	-0.132	0.180
-302.807	-157.357	0.212	0.013
-301.793	-44.355	-0.114	0.056
-300.778	-39.611	0.139	0.072
-299.764	-94.123	-0.098	-0.027
-298.749	800.000	-0.044	-0.137
-297.735	800.000	0.078	0.272
-296.720	800.000	-0.087	0.354
-295.705	800.000	0.033	-0.140
-294.691	-29.343	-0.391	0.221
-293.676	-189.521	-0.084	0.001
-292.662	800.000	0.103	-0.321
-291.647	150.836	0.228	0.307
-290.632	800.000	-0.071	-0.253
-289.618	-11.918	-0.223	0.144
-288.603	279.408	0.128	0.225
-287.589	496.405	0.109	-0.248
-286.574	-200.000	0.088	-0.399
-285.559	-107.915	-0.196	0.042
-284.545	-200.000	-0.009	-0.102
-283.530	800.000	0.032	-0.114
-282.516	153.712	0.056	-0.075
-281.501	735.521	-0.108	0.285
-280.486	152.446	0.237	0.319
-279.472	-128.704	-0.396	0.055
-278.457	-200.000	-0.012	-0.316
-277.443	-200.000	0.025	-0.252
-276.428	-43.534	0.163	0.081
-275.413	800.000	-0.066	0.234
-274.399	181.609	-0.042	-0.062
-273.384	9.323	-0.048	0.036
-272.370	12.283	0.439	0.334
-271.355	-200.000	-0.001	-0.090
-270.340	800.000	0.035	0.096
-269.326	-172.297	-0.228	-0.007
-268.311	-93.710	-0.110	-0.030
-267.297	69.103	0.067	-0.068
-266.282	85.838	-0.139	-0.151
-265.267	-143.628	-0.102	-0.010
-264.253	473.229	0.069	-0.153
-263.238	-15.402	-0.288	-0.182
-262.224	202.825	0.015	-0.023
-261.209	6.316	0.172	0.126
-260.195	-127.143	-0.265	-0.038
-259.180	-85.298	0.056	-0.017
-258.165	800.000	-0.114	-0.311
-257.151	-0.006	0.227	0.160
-256.136	15.652	-0.274	-0.212
-255.122	62.106	-0.235	-0.232
-254.107	146.490	0.227	0.301
-253.092	-200.000	-0.079	0.433
-252.078	800.000	0.084	-0.345
-251.063	-200.000	0.028	0.144
-250.049	192.976	0.105	0.157
-249.034	-32.695	-0.251	0.138
-248.019	96.365	0.203	-0.229
-247.005	555.093	-0.077	-0.182
-245.990	226.063	-0.070	-0.112
-244.976	-107.878	-0.513	0.110
-243.961	78.574	0.146	0.154
-242.946	21.877	0.137	0.110
-241.932	439.880	0.013	0.029
-240.917	-147.246	0.050	0.004
-239.903	-200.000	0.010	-0.053
-238.888	-189.915	-0.313	-0.003
-237.873	122.537	0.165	-0.204
-236.859	-200.000	-0.005	-0.082
-235.844	-200.000	0.021	-0.452
-234.830	106.174	-0.150	-0.175
-233.815	218.517	0.271	-0.427
-232.800	-193.496	-0.043	-0.000
-231.786	25.516	0.077	0.063
-230.771	-48.339	-0.145	-0.069
-229.757	-102.337	-0.374	-0.088
-228.742	-200.000	-0.009	0.076
-227.727	24.920	-0.188	-0.154
-226.713	440.490	0.055	-0.118
-225.698	-200.000	-0.010	-0.261
-224.684	-73.129	0.028	-0.010
-223.669	124.825	0.155	-0.193
-222.655	-69.390	-0.168	0.063
-221.640	126.496	0.223	0.278
-220.625	800.000	0.030	-0.128
-219.611	-56.038	-0.328	-0.144
-218.596	12.741	0.300	0.228
-217.582	-200.000	0.014	-0.130
-216.567	36.313	0.126	-0.109
-215.552	64.341	0.338	-0.335
-214.538	57.778	-0.308	-0.297
-213.523	-86.104	-0.306	-0.093
-212.509	44.150	-0.251	0.227
-211.494	-200.000	0.031	0.196
-210.479	-200.000	-0.009	0.367
-209.465	-130.307	-0.086	-0.012
-208.450	383.170	0.084	-0.169
-207.436	345.032	-0.095	0.185
-206.421	-69.526	0.304	0.115
-205.406	251.543	-0.201	0.336
-204.392	86.595	-0.071	0.077
-203.377	-77.221	0.467	-0.160
-202.363	-200.000	-0.052	-0.262
-201.348	-9.673	-0.141	0.093
-200.333	-26.919	-0.102	-0.059
-199.319	340.897	0.083	0.160
-198.304	800.000	0.085	0.240
-197.290	109.096	-0.097	-0.114
-196.275	-136.876	-0.238	-0.027
-195.260	61.639	-0.044	0.043
-194.246	170.966	-0.130	-0.183
-193.231	-200.000	0.014	-0.216
-192.217	-200.000	0.001	-0.489
-191.202	-42.406	-0.166	-0.083
-190.187	-147.941	-0.055	0.005
-189.173	-75.727	-0.101	-0.035
-188.158	-121.511	0.235	0.038
-187.144	-112.866	0.115	0.022
-186.129	166.018	-0.088	0.122
-185.114	-200.000	0.008	0.235
-184.100	526.068	0.034	-0.078
-183.085	60.444	0.193	0.188
-182.071	-117.365	0.290	0.052
-181.056	124.227	0.206	0.255
-180.042	777.304	-0.012	0.031
-179.027	800.000	-0.040	0.150
-178.012	-15.787	-0.097	0.061
-176.998	4.361	-0.086	0.062
-175.983	-200.000	0.045	-0.220
-174.969	-200.000	-0.009	0.152
-173.954	-61.290	0.371	0.154
-172.939	263.767	0.132	-0.225
-171.925	-142.311	0.124	-0.012
-170.910	-200.000	0.018	0.079
-169.896	-200.000	-0.001	0.237
-168.881	-92.436	-0.263	0.073
-167.866	-60.726	0.270	0.113
-166.852	-81.718	-0.385	0.124
-165.837	522.796	0.195	-0.451
-164.823	-135.240	-0.040	-0.005
-163.808	-115.063	-0.134	-0.025
-162.793	-103.720	0.373	-0.086
-161.779	-200.000	0.027	0.292
-160.764	29.514	-0.277	-0.232
-159.750	800.000	-0.073	-0.233
-158.735	625.103	-0.156	0.388
-157.720	-50.234	-0.154	0.071
-156.706	800.000	0.034	0.143
-155.691	-79.515	0.047	0.016
-154.677	31.838	-0.096	-0.082
-153.662	151.076	0.109	0.145
-152.647	-200.000	-0.006	-0.130
-151.633	-106.359	-0.245	-0.054
-150.618	-200.000	0.006	-0.416
-149.604	800.000	0.103	-0.386
-148.589	119.242	-0.136	-0.166
-147.574	800.000	0.012	0.048
-146.560	-184.205	0.261	-0.004
-145.545	342.159	-0.125	0.239
-144.531	-200.000	0.029	0.126
-143.516	-30.094	0.183	0.102
-142.502	-200.000	-0.044	-0.271
-141.487	525.204	0.096	0.222
-140.472	-200.000	-0.002	-0.071
-139.458	213.289	-0.145	-0.225
-138.443	5.746	-0.059	-0.043
-137.429	39.969	-0.113	-0.100
-136.414	-70.380	0.374	0.139
-135.399	-58.232	0.149	-0.064
-134.385	-200.000	0.024	-0.225
-133.370	99.033	-0.023	-0.026
-132.356	31.089	0.301	0.253
-131.341	548.016	0.183	0.431
-130.326	32.814	-0.116	-0.098
-129.312	-89.373	0.160	0.046
-128.297	-114.181	0.531	-0.101
-127.283	-178.447	-0.452	0.010
-126.268	31.148	0.026	0.022
-125.253	465.514	0.101	-0.223
-124.239	160.492	-0.176	-0.241
-123.224	800.000	0.020	0.055
-122.210	-145.603	0.332	-0.029
-121.195	-188.691	-0.252	-0.003
-120.180	-163.437	0.132	-0.006
-119.166	160.908	-0.195	0.268
-118.151	127.406	0.139	-0.173
-117.137	-200.000	0.002	-0.012
-116.122	493.413	0.158	-0.355
-115.107	40.732	-0.169	0.150
-114.093	251.293	0.138	0.231
-113.078	-122.265	-0.207	0.033
-112.064	557.665	-0.006	0.014
-111.049	-57.697	-0.133	0.057
-110.034	-74.837	-0.151	-0.053
-109.020	249.533	0.151	0.251
-108.005	407.416	-0.082	-0.171
-106.991	-125.580	-0.039	0.006
-105.976	177.939	-0.170	0.244
-104.962	-167.037	-0.243	-0.010
-103.947	-116.779	0.273	-0.049
-102.932	-94.058	-0.195	0.052
-101.918	81.972	0.028	-0.030
-100.903	-56.522	0.130	0.056
-99.889	-200.000	0.007	-0.036
-98.874	-8.777	0.067	-0.044
-97.859	-200.000	0.059	-0.333
-96.845	-86.218	0.375	-0.113
-95.830	-84.621	-0.160	0.049
-94.816	-0.432	0.236	-0.164
-93.801	2.937	-0.125	-0.089
-92.786	-100.439	-0.289	-0.070
-91.772	-126.729	0.236	-0.034
-90.757	-69.109	0.269	0.102
-89.743	-200.000	-0.017	0.270
-88.728	-200.000	0.005	-0.181
-87.713	-200.000	0.323	0.000
-86.699	394.487	0.107	0.219
-85.684	143.525	-0.153	0.200
-84.670	71.177	0.131	-0.134
-83.655	-200.000	-0.045	-0.214
-82.640	-200.000	0.025	0.254
-81.626	469.959	-0.096	0.212
-80.611	-19.165	-0.089	-0.054
-79.597	41.729	-0.187	-0.166
-78.582	-145.485	-0.328	0.029
-77.567	-200.000	0.043	-0.315
-76.553	-10.984	0.231	-0.150
-75.538	206.059	-0.163	-0.249
-74.524	-83.685	-0.169	0.053
-73.509	88.316	0.085	0.093
-72.494	650.869	-0.087	-0.219
-71.480	20.202	0.231	-0.183
-70.465	-61.376	0.334	0.138
-69.451	98.856	-0.144	0.163
-68.436	57.950	0.146	0.140
-67.422	-26.160	-0.197	0.114
-66.407	800.000	-0.053	0.190
-65.392	-158.662	-0.294	0.017
-64.378	-59.433	0.213	0.090
-63.363	139.314	0.121	-0.156
-62.349	58.364	0.118	0.113
-61.334	39.340	-1.321	-1.159
-60.319	28.088	0.556	0.460
-59.305	514.338	-0.604	-1.381
-58.290	355.906	0.634	1.237
-57.276	476.293	0.618	1.367
-56.261	-200.000	114.743	647.736
-55.246	471.626	1508.542	3324.777
-54.232	147.774	2670.807	3525.364
-53.217	103.487	2148.137	2468.340
-52.203	38.571	1594.283	1392.303
-51.188	30.340	1340.190	1120.904
-50.173	27.705	1301.739	1073.223
-49.159	55.197	1357.652	1285.024
-48.144	53.547	1372.238	1288.904
-47.130	30.740	1327.915	1112.851
-46.115	27.393	1309.548	1077.638
-45.100	27.092	1304.718	1071.848
-44.086	27.017	1302.432	1069.485
-43.071	26.944	1299.595	1066.686
-42.057	26.951	1298.120	1065.475
-41.042	27.066	1296.426	1064.711
-40.027	27.130	1294.451	1063.424
-39.013	26.975	1292.990	1061.273
-37.998	27.037	1291.074	1060.022
-36.984	27.066	1289.415	1058.785
-35.969	27.209	1287.173	1057.738
-34.954	27.210	1285.460	1056.291
-33.940	27.155	1285.107	1055.639
-32.925	27.283	1282.877	1054.508
-31.911	27.300	1281.328	1053.294
-30.896	27.228	1280.254	1051.953
-29.881	27.256	1279.133	1051.152
-28.867	27.185	1277.402	1049.275
-27.852	27.249	1275.865	1048.344
-26.838	27.298	1274.463	1047.428
-25.823	27.346	1272.830	1046.326
-24.809	27.242	1272.247	1045.206
-23.794	27.172	1270.511	1043.337
-22.779	27.217	1269.610	1042.811
-21.765	27.266	1268.405	1042.063
-20.750	27.267	1266.772	1040.686
-19.736	27.204	1265.688	1039.393
-18.721	27.221	1264.458	1038.437
-17.706	27.145	1263.284	1037.000
-16.692	27.126	1262.616	1036.299
-15.677	27.180	1261.208	1035.412
-14.663	27.215	1259.741	1034.364
-13.648	27.153	1258.775	1033.182
-12.633	27.114	1258.291	1032.519
-11.619	27.084	1257.547	1031.699
-10.604	27.156	1256.281	1031.026
-9.590	27.123	1255.506	1030.162
-8.575	27.109	1254.545	1029.255
-7.560	27.094	1253.729	1028.456
-6.546	27.081	1252.420	1027.270
-5.531	27.102	1251.375	1026.490
-4.517	27.099	1251.267	1026.342
-3.502	27.218	1250.289	1026.175
-2.487	27.182	1248.934	1024.818
-1.473	27.230	1244.592	1021.485
-0.458	25.582	1230.181	1000.459
0.556	20.451	1213.346	963.176
1.571	16.692	1219.648	947.100
2.586	15.730	1234.310	952.956
3.600	15.590	1222.494	942.966
4.615	11.544	1150.492	865.934
5.629	3.895	1077.841	773.072
6.644	0.466	1058.519	742.294
7.659	0.037	1056.649	738.809
8.673	-0.012	1055.419	737.644
9.688	-0.019	1054.012	736.559
10.702	0.375	1051.854	736.916
11.717	4.909	1057.645	763.152
12.731	12.754	1067.975	809.207
13.746	16.686	1072.849	832.192
14.761	16.996	1072.623	833.467
15.775	15.967	1070.980	827.066
16.790	15.038	1068.618	820.618
17.804	14.372	1066.865	815.938
18.819	13.975	1066.022	813.279
19.834	13.758	1064.729	811.158
20.848	13.490	1064.206	809.380
21.863	13.265	1063.207	807.451
22.877	13.155	1062.648	806.417
23.892	13.024	1061.744	805.018
24.907	13.081	1061.431	804.989
25.921	13.126	1060.590	804.499
26.936	13.194	1059.157	803.674
27.950	13.258	1058.577	803.471
28.965	13.215	1058.036	802.781
29.980	13.277	1056.414	801.780
30.994	13.301	1055.654	801.247
32.009	13.334	1054.305	800.314
33.023	13.358	1052.950	799.331
34.038	13.323	1052.096	798.443
35.053	13.347	1051.172	797.788
36.067	13.223	1050.334	796.482
37.082	13.275	1049.718	796.193
38.096	13.367	1048.734	795.822
39.111	13.333	1048.348	795.296
40.126	13.225	1047.242	793.864
41.140	13.101	1046.272	792.465
42.155	13.202	1044.875	791.819
43.169	13.284	1043.477	791.085
44.184	13.190	1042.496	789.819
45.199	13.138	1041.756	788.941
46.213	13.275	1040.849	788.839
47.228	13.208	1039.970	787.783
48.242	13.240	1038.469	786.729
49.257	13.220	1037.816	786.071
50.271	13.222	1036.907	785.319
51.286	13.238	1035.923	784.582
52.301	13.210	1034.750	783.493
53.315	13.331	1033.778	783.257
54.330	13.177	1033.148	781.984
55.344	13.122	1032.581	781.224
56.359	13.156	1031.233	780.297
57.374	13.133	1030.557	779.608
58.388	13.033	1029.608	778.351
59.403	12.982	1028.960	777.550
60.417	13.020	1028.062	776.982
61.432	13.008	1027.003	776.058
62.447	12.978	1026.642	775.572
63.461	12.949	1026.060	774.930
64.476	13.177	1024.598	774.827
65.490	12.981	1024.055	773.428
66.505	13.019	1023.319	772.984
67.520	13.083	1023.103	773.048
68.534	13.164	1021.740	772.328
69.549	13.160	1021.094	771.754
70.563	12.909	1020.564	770.114
71.578	12.994	1019.573	769.695
72.593	12.955	1019.018	769.024
73.607	13.024	1018.150	768.626
74.622	13.026	1017.807	768.307
75.636	12.907	1017.022	767.092
76.651	13.056	1016.146	767.058
77.666	13.025	1015.365	766.257
78.680	12.954	1014.732	765.379
79.695	13.082	1014.018	765.367
80.709	13.108	1013.285	764.868
81.724	13.175	1012.119	764.227
82.739	13.123	1012.443	764.164
83.753	13.223	1011.261	763.666
84.768	13.334	1010.281	763.372
85.782	13.371	1009.015	762.518
86.797	13.255	1008.668	761.653
87.812	13.167	1007.701	760.453
88.826	13.127	1006.610	759.377
89.841	13.231	1005.523	758.969
90.855	13.238	1004.696	758.309
91.870	13.305	1003.480	757.631
92.884	13.461	1002.471	757.518
93.899	13.495	1001.743	757.054
94.914	13.459	1001.502	756.640
95.928	13.445	1000.659	755.874
96.943	13.391	999.715	754.848
97.957	13.284	999.221	753.921
98.972	13.382	997.754	753.190
99.987	13.274	997.192	752.209
101.001	13.324	995.977	751.452
102.016	13.342	995.294	750.952
103.030	13.316	994.540	750.200
104.045	13.310	993.776	749.533
105.060	13.316	992.665	748.653
106.074	13.176	992.062	747.500
107.089	13.082	990.933	746.157
108.103	13.112	990.091	745.593
109.118	13.160	988.838	744.801
110.133	13.222	988.161	744.503
111.147	13.224	987.146	743.682
112.162	13.225	986.467	743.107
113.176	13.142	985.923	742.259
114.191	13.330	985.060	742.389
115.206	13.241	984.306	741.355
116.220	13.244	983.710	740.853
117.235	13.216	982.720	739.919
118.249	13.196	982.357	739.490
119.264	13.210	981.076	738.524
120.279	13.165	980.202	737.598
121.293	13.282	979.113	737.234
122.308	13.142	978.389	736.002
123.322	13.239	977.032	735.345
124.337	13.136	976.781	734.637
125.352	13.231	975.107	733.733
126.366	13.190	974.248	732.842
127.381	13.174	972.904	731.691
128.395	13.135	972.370	731.054
129.410	13.148	971.544	730.428
130.424	13.213	971.136	730.343
131.439	13.281	970.066	729.772
132.454	13.346	969.233	729.369
133.468	13.288	968.626	728.590
134.483	13.337	967.841	728.154
135.497	13.235	967.088	727.072
136.512	13.351	966.219	726.863
137.527	13.249	965.149	725.546
138.541	13.225	964.588	724.955
139.556	13.295	963.950	724.718
140.570	13.306	963.379	724.275
141.585	13.451	962.456	724.150
142.600	13.372	961.600	723.096
143.614	13.455	960.817	722.805
144.629	13.416	959.809	721.813
145.643	13.541	958.857	721.577
146.658	13.473	958.122	720.668
147.673	13.531	956.617	719.722
148.687	13.394	956.270	718.802
149.702	13.281	955.218	717.459
150.716	13.327	954.852	717.318
151.731	13.302	954.110	716.591
152.746	13.450	953.113	716.418
153.760	13.378	952.645	715.692
154.775	13.476	952.045	715.602
155.789	13.551	951.228	715.247
156.804	13.564	950.607	714.775
157.819	13.686	949.433	714.353
158.833	13.684	949.345	714.213
159.848	13.636	948.437	713.263
160.862	13.564	947.250	711.995
161.877	13.639	946.112	711.400
162.892	13.534	945.561	710.474
163.906	13.467	944.412	709.259
164.921	13.391	943.966	708.534
165.935	13.471	942.900	708.015
166.950	13.610	942.011	707.878
167.964	13.500	941.125	706.681
168.979	13.589	940.211	706.314
169.994	13.556	939.290	705.416
171.008	13.551	938.988	705.109
172.023	13.628	938.140	704.735
173.037	13.683	937.344	704.309
174.052	13.695	936.846	703.923
175.067	13.456	936.228	702.383
176.081	13.580	935.309	702.155
177.096	13.577	934.820	701.714
178.110	13.635	934.031	701.304
179.125	13.636	933.884	701.138
180.140	13.793	933.159	701.195
181.154	13.613	932.935	700.203
182.169	13.679	932.324	699.962
183.183	13.816	931.599	699.932
184.198	13.805	930.784	699.213
185.213	13.787	930.078	698.545
186.227	13.794	929.527	698.098
187.242	13.960	928.515	697.974
188.256	13.796	928.040	696.867
189.271	13.914	927.207	696.675
190.286	13.622	926.432	694.805
191.300	13.541	926.149	694.195
192.315	13.587	925.132	693.562
193.329	13.636	924.557	693.276
194.344	13.675	923.866	692.857
195.359	13.774	923.499	692.937
196.373	13.914	922.545	692.742
197.388	13.879	922.552	692.538
198.402	13.745	922.450	691.845
199.417	14.040	921.333	692.172
200.432	14.130	920.768	692.063
201.446	14.111	920.069	691.398
202.461	14.006	919.880	690.759
203.475	14.055	918.948	690.198
204.490	14.114	918.327	689.916
205.504	14.051	917.237	688.776
206.519	13.955	917.084	688.202
207.534	13.954	916.111	687.406
208.548	14.106	915.072	687.196
209.563	14.027	914.723	686.547
210.577	14.014	914.110	685.972
211.592	14.278	912.721	685.958
212.607	14.290	912.482	685.763
213.621	14.272	911.613	684.975
214.636	14.184	910.918	684.032
215.650	14.254	910.332	683.818
216.665	14.298	909.669	683.442
217.680	14.281	908.991	682.803
218.694	14.304	908.384	682.382
219.709	14.225	908.051	681.747
220.723	14.352	907.100	681.490
221.738	14.485	906.270	681.350
222.753	14.262	905.912	680.109
223.767	14.404	905.082	680.006
224.782	14.484	904.630	679.934
225.796	14.398	904.264	679.246
226.811	14.573	903.285	679.163
227.826	14.384	902.793	677.965
228.840	14.452	901.974	677.566
229.855	14.470	901.216	677.011
230.869	14.391	900.558	676.134
231.884	14.397	899.784	675.517
232.899	14.502	898.727	675.089
233.913	14.326	898.274	673.979
234.928	14.296	897.658	673.337
235.942	14.306	897.462	673.169
236.957	14.382	896.682	672.831
237.972	14.442	896.238	672.683
238.986	14.366	895.391	671.681
240.001	14.459	894.514	671.338
241.015	14.352	894.308	670.691
242.030	14.495	893.727	670.772
243.045	14.575	892.891	670.406
244.059	14.465	892.310	669.468
245.074	14.551	891.487	669.136
246.088	14.631	891.199	669.184
247.103	14.661	889.996	668.341
248.117	14.596	890.094	668.095
249.132	14.673	889.778	668.107
250.147	15.070	888.098	668.373
251.161	14.863	887.953	667.376
252.176	14.894	887.435	667.052
253.190	14.985	886.319	666.516
254.205	14.825	886.131	665.678
255.220	14.791	885.709	665.170
256.234	15.059	884.649	665.377
257.249	15.099	883.849	664.877
258.263	14.901	883.364	663.669
259.278	14.997	882.783	663.554
260.293	15.004	882.444	663.269
261.307	15.070	881.508	662.765
262.322	15.149	881.033	662.663
263.336	15.015	880.572	661.727
264.351	15.112	879.264	661.069
265.366	15.169	878.983	661.023
266.380	15.111	878.684	660.512
267.395	15.192	877.304	659.736
268.409	15.022	876.892	658.698
269.424	15.144	876.262	658.648
270.439	15.144	875.755	658.205
271.453	15.121	875.012	657.499
272.468	15.074	874.484	656.862
273.482	15.208	874.173	657.093
274.497	15.146	873.447	656.250
275.512	15.133	872.979	655.787
276.526	15.054	872.583	655.123
277.541	15.247	871.458	654.974
278.555	15.319	870.990	654.847
279.570	15.290	870.261	654.128
280.585	15.314	869.533	653.617
281.599	15.153	868.999	652.530
282.614	15.246	868.608	652.538
283.628	15.316	867.708	652.079
284.643	15.253	866.866	651.141
285.657	15.324	866.611	651.169
286.672	15.456	865.617	650.878
287.687	15.379	864.960	650.027
288.701	15.363	864.878	649.847
289.716	15.463	863.993	649.511
290.730	15.420	863.361	648.811
291.745	15.432	863.102	648.606
292.760	15.498	862.190	648.118
293.774	15.540	861.430	647.649
294.789	15.472	861.184	647.147
295.803	15.470	860.080	646.252
296.818	15.346	860.014	645.669
297.833	15.579	859.023	645.763
298.847	15.623	858.273	645.310
299.862	15.567	857.882	644.746
300.876	15.527	857.287	644.087
301.891	15.568	856.855	643.861
302.906	15.763	856.002	643.913
303.920	15.620	856.098	643.378
304.935	15.740	855.023	642.973
305.949	15.706	854.897	642.689
306.964	15.782	853.836	642.126
307.979	15.883	853.254	642.016
308.993	15.752	852.840	641.151
310.008	15.880	851.953	640.914
311.022	15.961	851.630	640.923
312.037	15.796	851.034	639.788
313.052	15.646	850.670	638.890
314.066	15.690	850.009	638.503
315.081	15.783	849.739	638.598
316.095	15.817	848.657	637.856
317.110	15.834	847.965	637.342
318.125	15.908	847.400	637.145
319.139	15.734	846.972	636.107
320.154	15.846	846.799	636.346
321.168	15.886	845.920	635.777
322.183	15.796	845.648	635.178
323.197	15.836	845.124	634.877
324.212	15.927	844.377	634.605
325.227	15.974	843.628	634.163
326.241	15.815	843.463	633.384
327.256	15.903	842.908	633.240
328.270	15.973	842.240	632.949
329.285	15.745	841.750	631.668
330.300	15.974	840.813	631.767
331.314	15.807	841.024	631.243
332.329	15.929	840.287	631.091
333.343	15.906	839.711	630.518
334.358	16.231	839.058	631.185
335.373	15.991	838.806	630.045
336.387	16.029	838.649	630.012
337.402	16.224	838.189	630.339
338.416	16.208	837.737	629.883
339.431	16.148	837.598	629.499
340.446	16.140	836.999	628.965
341.460	16.137	836.757	628.713
342.475	16.152	836.474	628.500
343.489	16.261	835.488	628.113
344.504	16.367	834.925	628.027
345.519	16.347	834.933	627.903
346.533	16.272	834.400	627.167
347.548	16.325	833.512	626.639
348.562	16.393	833.166	626.577
349.577	16.291	832.588	625.711
350.592	16.256	831.817	624.945
351.606	16.115	831.613	624.213
352.621	16.245	830.631	623.904
353.635	16.377	829.534	623.512
354.650	16.306	829.287	623.010
355.665	16.378	828.500	622.627
356.679	16.336	828.159	622.162
357.694	16.436	827.457	621.947
358.708	16.499	826.563	621.451
359.723	16.424	826.230	620.871
360.738	16.472	825.770	620.647
361.752	16.433	825.105	619.948
362.767	16.425	824.540	619.438
363.781	16.603	824.079	619.692
364.796	16.660	823.624	619.505
365.810	16.601	823.392	619.058
366.825	16.811	822.843	619.357
367.840	16.794	822.272	618.812
368.854	16.743	821.236	617.790
369.869	16.633	821.572	617.588
370.883	16.504	821.551	617.045
371.898	16.733	820.487	617.028
372.913	16.834	819.917	616.912
373.927	16.741	819.579	616.263
374.942	16.829	819.098	616.168
375.956	16.852	818.969	616.099
376.971	16.809	818.656	615.652
377.986	16.863	817.781	615.139
379.000	16.884	817.401	614.874
380.015	16.955	816.786	614.612
381.029	16.965	816.159	614.124
382.044	16.993	815.656	613.791
383.059	16.940	815.514	613.440
384.073	16.969	814.591	612.796
385.088	17.030	813.621	612.229
386.102	16.873	813.495	611.515
387.117	16.935	812.865	611.210
388.132	16.950	812.366	610.836
389.146	16.943	811.852	610.371
390.161	16.962	811.644	610.228
391.175	17.065	811.106	610.140
392.190	16.942	810.533	609.212
393.205	17.028	809.690	608.833
394.219	16.921	809.862	608.525
395.234	16.898	809.717	608.281
396.248	16.918	808.717	607.546
397.263	17.084	808.300	607.774
398.278	17.158	808.187	607.901
399.292	17.037	807.602	606.972
400.307	17.022	807.158	606.532
401.321	16.985	806.702	606.004
402.336	17.089	806.319	606.035
403.350	16.974	805.679	605.092
404.365	17.133	805.306	605.322
405.380	17.244	804.775	605.265
406.394	17.289	804.376	605.073
407.409	17.374	803.734	604.838
408.423	17.363	803.596	604.642
409.438	17.386	803.368	604.497
410.453	17.266	802.963	603.715
411.467	17.334	802.366	603.454
412.482	17.516	801.702	603.544
413.496	17.439	801.751	603.254
414.511	17.435	801.168	602.748
415.526	17.607	800.232	602.600
416.540	17.512	800.200	602.188
417.555	17.334	799.824	601.221
418.569	17.520	799.313	601.440
419.584	17.340	799.121	600.609
420.599	17.485	798.487	600.588
421.613	111.419	1294.824	1477.742
422.628	95.919	1367.132	1477.837
