DTS Sentinel unit serial number:	SN413079Multiplexer serial number:	ORYXHardware model number:	OX4-SRSoftware version number:	ORYX F/W v4.00 Oryx Data Collector v3.7.2.0data status	okinstallation	princeton_trtdifferential loss correction	single-endedforward channel	channel 1reverse channel	N/Adate	2019/09/18time	01:14:35forward acquisition time	60.00reverse acquisition time	0.00gamma	496.2192k internal	0.2341k external	0.2341temperature offset calibration	0.9985default loss term (dB/km)	0.3790temperature slope calibration	1.0000multiplexer offset coefficient	1.0000multiplexer slope coefficient	1.0000fibre end	0.00T internal ref (°C)	23.19T ext. ref 1 (°C)	0.17T ext. ref 2 (°C)	16.89length (m)	temperature (°C)	Stokes	anti-Stokes-747.200	-200.000	0.005	-0.155
-746.185	77.180	-0.122	0.130
-745.171	-200.000	-0.012	-0.182
-744.156	-200.000	0.016	0.359
-743.142	84.080	-0.126	0.138
-742.127	800.000	0.181	0.531
-741.112	486.204	0.110	0.252
-740.098	-200.000	0.000	0.271
-739.083	22.661	-0.393	0.323
-738.069	-200.000	0.005	0.314
-737.054	-152.941	-0.177	-0.013
-736.039	393.485	0.054	0.112
-735.025	-117.936	0.247	0.044
-734.010	-200.000	-0.074	-0.386
-732.996	33.044	-0.075	-0.065
-731.981	-189.751	-0.365	0.004
-730.966	-200.000	-0.009	-0.278
-729.952	-200.000	-0.018	0.139
-728.937	271.110	-0.144	-0.254
-727.923	428.523	0.124	-0.268
-726.908	-200.000	-0.019	0.271
-725.894	744.965	-0.149	-0.403
-724.879	-89.850	-0.359	0.105
-723.864	70.467	-0.137	-0.142
-722.850	-139.477	-0.103	0.011
-721.835	800.000	-0.109	-0.464
-720.821	624.289	-0.100	-0.252
-719.806	-88.455	-0.088	0.026
-718.791	88.145	-0.163	-0.181
-717.777	-161.008	-0.403	-0.021
-716.762	-103.820	-0.066	0.016
-715.748	-22.002	0.228	-0.139
-714.733	72.370	-0.148	-0.154
-713.718	25.113	-0.173	0.144
-712.704	-200.000	0.023	0.196
-711.689	800.000	0.057	-0.199
-710.675	-42.676	-0.274	-0.140
-709.660	558.527	0.109	-0.263
-708.645	725.918	0.084	-0.224
-707.631	-94.527	0.054	-0.015
-706.616	373.652	0.056	0.114
-705.602	63.697	-0.075	-0.076
-704.587	800.000	-0.060	0.224
-703.572	-57.465	-0.053	-0.023
-702.558	800.000	-0.100	-0.393
-701.543	-170.241	-0.286	0.010
-700.529	800.000	-0.052	0.209
-699.514	646.489	0.098	-0.252
-698.499	-7.260	-0.265	-0.180
-697.485	800.000	-0.029	-0.083
-696.470	-200.000	0.028	-0.182
-695.456	83.000	0.191	-0.208
-694.441	-10.201	-0.452	-0.300
-693.426	-146.672	-0.137	-0.012
-692.412	-135.439	0.328	-0.039
-691.397	130.659	0.193	0.247
-690.383	-99.274	-0.206	-0.052
-689.368	-88.314	-0.201	0.060
-688.354	10.441	0.242	-0.184
-687.339	520.199	-0.155	0.362
-686.324	301.882	-0.096	0.177
-685.310	48.787	0.175	0.165
-684.295	575.985	-0.082	-0.200
-683.281	-66.598	0.233	-0.093
-682.266	68.474	0.052	-0.053
-681.251	800.000	-0.079	0.256
-680.237	115.967	-0.142	0.173
-679.222	800.000	-0.028	0.084
-678.208	103.629	0.139	0.163
-677.193	800.000	-0.090	-0.263
-676.178	-200.000	-0.001	-0.041
-675.164	171.110	-0.031	0.044
-674.149	1.024	0.087	0.062
-673.135	-102.305	-0.157	-0.038
-672.120	-91.526	0.145	0.041
-671.105	75.414	-0.165	-0.174
-670.091	-84.242	0.344	0.109
-669.076	112.303	-0.022	-0.026
-668.062	-200.000	0.025	0.111
-667.047	-108.317	0.514	-0.111
-666.032	101.944	0.541	-0.631
-665.018	800.000	0.097	-0.359
-664.003	475.139	0.030	0.067
-662.989	800.000	0.071	-0.250
-661.974	106.245	-0.098	-0.116
-660.959	-200.000	0.024	0.132
-659.945	-175.571	0.174	0.005
-658.930	-200.000	0.035	0.178
-657.916	800.000	-0.077	-0.254
-656.901	-5.274	-0.210	-0.144
-655.886	-26.328	-0.443	-0.260
-654.872	71.264	0.217	0.225
-653.857	800.000	0.092	0.300
-652.843	-200.000	-0.006	-0.063
-651.828	-200.000	-0.009	-0.126
-650.814	-200.000	-0.051	-0.257
-649.799	35.217	0.230	-0.201
-648.784	-200.000	0.020	0.291
-647.770	-155.069	-0.335	0.022
-646.755	-71.466	0.150	0.056
-645.741	-46.822	-0.138	-0.068
-644.726	-200.000	-0.060	0.407
-643.711	-114.338	-0.233	-0.045
-642.697	269.216	0.171	0.299
-641.682	-200.000	-0.022	0.235
-640.668	58.247	-0.220	0.216
-639.653	-52.362	-0.182	0.084
-638.638	800.000	-0.055	0.214
-637.624	-145.253	0.331	0.030
-636.609	104.659	0.108	0.127
-635.595	800.000	0.035	-0.101
-634.580	45.295	-0.315	0.290
-633.565	605.116	-0.070	0.174
-632.551	-30.269	-0.109	0.062
-631.536	115.912	0.183	-0.223
-630.522	130.267	0.115	-0.148
-629.507	-41.691	0.072	-0.037
-628.492	-160.310	0.237	-0.013
-627.478	-200.000	0.015	-0.112
-626.463	-156.194	-0.222	-0.014
-625.449	-128.809	-0.109	-0.015
-624.434	-200.000	-0.067	0.309
-623.419	-108.368	-0.103	0.022
-622.405	36.868	0.174	-0.153
-621.390	111.949	0.081	-0.097
-620.376	-26.623	0.191	0.111
-619.361	-200.000	-0.023	0.188
-618.346	-82.168	-0.215	0.070
-617.332	174.045	-0.115	-0.166
-616.317	-3.489	0.088	-0.061
-615.303	-50.151	-0.063	0.030
-614.288	177.514	-0.134	-0.194
-613.273	235.410	-0.071	-0.117
-612.259	-90.119	-0.273	0.079
-611.244	6.896	-0.235	-0.175
-610.230	186.814	-0.166	-0.246
-609.215	168.643	0.104	-0.148
-608.201	25.054	0.179	-0.148
-607.186	-166.421	-0.155	0.006
-606.171	3.494	0.087	0.063
-605.157	669.521	-0.216	0.558
-604.142	-119.573	-0.129	-0.022
-603.128	-200.000	-0.024	0.124
-602.113	-32.137	-0.133	-0.074
-601.098	170.624	-0.137	-0.196
-600.084	243.779	-0.169	0.282
-599.069	4.504	0.123	0.090
-598.055	137.498	-0.082	0.107
-597.040	64.261	0.052	0.052
-596.025	-44.015	-0.158	-0.079
-595.011	-122.112	-0.275	-0.045
-593.996	70.947	-0.300	0.310
-592.982	-135.657	-0.240	-0.028
-591.967	800.000	0.028	-0.116
-590.952	-200.000	0.011	0.127
-589.938	113.878	-0.172	-0.208
-588.923	-55.160	-0.239	-0.107
-587.909	-200.000	0.049	0.295
-586.894	7.549	-0.205	-0.153
-585.879	-138.800	0.145	0.016
-584.865	-126.642	-0.348	0.051
-583.850	10.075	-0.059	0.044
-582.836	7.928	0.273	0.204
-581.821	-200.000	-0.040	-0.186
-580.806	25.335	-0.047	-0.039
-579.792	222.494	-0.188	-0.301
-578.777	115.497	-0.099	0.121
-577.763	289.871	-0.124	-0.223
-576.748	-200.000	0.016	-0.086
-575.733	-80.665	0.142	0.047
-574.719	-159.815	0.096	-0.005
-573.704	-153.671	-0.424	-0.029
-572.690	25.866	-0.103	-0.085
-571.675	-5.693	-0.076	0.052
-570.661	-24.308	0.017	-0.010
-569.646	-200.000	-0.020	-0.148
-568.631	305.686	0.175	0.324
-567.617	51.817	-0.138	0.131
-566.602	-200.000	0.028	-0.387
-565.588	193.601	0.248	-0.374
-564.573	-178.654	0.339	-0.008
-563.558	-155.273	-0.066	-0.004
-562.544	515.240	-0.106	0.245
-561.529	66.565	0.091	-0.092
-560.515	386.135	0.075	-0.153
-559.500	-200.000	0.036	-0.418
-558.485	800.000	0.130	0.382
-557.471	-200.000	0.047	-0.242
-556.456	179.181	0.123	-0.179
-555.442	-0.672	0.524	0.370
-554.427	457.306	0.033	-0.072
-553.412	-200.000	-0.042	0.191
-552.398	276.867	-0.104	-0.185
-551.383	629.598	-0.069	-0.172
-550.369	-200.000	0.056	-0.372
-549.354	8.729	0.214	-0.160
-548.339	41.159	0.069	0.062
-547.325	-46.250	-0.196	-0.096
-546.310	800.000	-0.041	-0.173
-545.296	-200.000	0.014	-0.186
-544.281	569.402	0.101	-0.245
-543.266	142.157	-0.048	0.063
-542.252	95.816	-0.161	0.182
-541.237	357.009	-0.073	-0.145
-540.223	-46.441	0.219	0.107
-539.208	-200.000	-0.049	0.274
-538.193	101.153	-0.060	-0.070
-537.179	402.028	0.125	0.262
-536.164	800.000	0.098	-0.356
-535.150	-21.459	-0.319	0.193
-534.135	178.514	0.100	-0.145
-533.121	34.247	0.271	-0.235
-532.106	800.000	0.095	-0.403
-531.091	-200.000	-0.043	-0.290
-530.077	-35.067	0.188	0.102
-529.062	-200.000	-0.026	-0.163
-528.048	-33.553	0.109	0.060
-527.033	-78.236	0.301	-0.103
-526.018	-200.000	-0.030	-0.199
-525.004	800.000	-0.061	-0.225
-523.989	120.960	-0.086	-0.106
-522.975	244.307	0.256	0.428
-521.960	-156.428	-0.317	0.020
-520.945	-183.166	0.202	-0.004
-519.931	487.082	-0.048	-0.109
-518.916	800.000	-0.050	-0.197
-517.902	28.544	-0.068	-0.057
-516.887	13.464	-0.041	0.031
-515.872	336.621	-0.087	0.168
-514.858	-6.947	0.304	0.205
-513.843	-43.206	0.231	0.116
-512.829	247.560	0.152	-0.255
-511.814	-128.314	0.330	0.047
-510.799	5.751	-0.340	-0.249
-509.785	36.245	0.259	0.226
-508.770	-200.000	-0.021	-0.312
-507.756	67.166	0.226	-0.229
-506.741	-131.044	0.284	0.038
-505.726	-200.000	0.128	0.000
-504.712	-102.714	0.289	-0.068
-503.697	12.057	0.241	-0.184
-502.683	-200.000	0.004	-0.104
-501.668	-22.458	0.195	0.117
-500.653	318.513	0.098	0.184
-499.639	800.000	-0.059	-0.202
-498.624	269.649	-0.126	-0.219
-497.610	-111.710	-0.113	0.023
-496.595	-73.239	0.160	-0.058
-495.581	51.037	-0.261	-0.246
-494.566	-7.944	-0.104	-0.070
-493.551	-178.266	-0.065	-0.002
-492.537	-38.176	-0.176	0.092
-491.522	-145.116	0.304	0.027
-490.508	133.134	-0.054	0.069
-489.493	0.440	-0.285	0.202
-488.478	36.667	0.135	0.118
-487.464	3.529	0.234	-0.169
-486.449	414.787	-0.094	0.198
-485.435	249.236	-0.044	-0.075
-484.420	800.000	0.099	0.304
-483.405	800.000	0.079	-0.285
-482.391	-126.341	0.179	-0.027
-481.376	-30.424	0.408	-0.230
-480.362	481.906	0.075	0.169
-479.347	-36.577	-0.100	-0.053
-478.332	-80.906	0.456	-0.150
-477.318	7.956	-0.234	-0.174
-476.303	455.086	0.086	0.189
-475.289	-71.461	0.226	-0.084
-474.274	-200.000	-0.011	-0.149
-473.259	800.000	0.100	0.305
-472.245	418.706	-0.105	0.223
-471.230	-48.967	0.089	0.042
-470.216	-80.750	0.282	0.093
-469.201	512.070	0.057	0.132
-468.186	-69.589	0.202	-0.077
-467.172	90.460	-0.183	-0.203
-466.157	-200.000	-0.064	-0.362
-465.143	-200.000	0.021	-0.269
-464.128	5.876	-0.111	0.082
-463.113	-200.000	-0.010	-0.068
-462.099	435.765	0.077	0.165
-461.084	362.117	0.102	-0.203
-460.070	631.298	0.038	-0.095
-459.055	-4.817	-0.212	-0.145
-458.040	94.062	-0.123	0.138
-457.026	-200.000	-0.035	0.330
-456.011	-35.894	0.430	-0.231
-454.997	800.000	-0.124	-0.360
-453.982	-163.042	-0.223	0.011
-452.968	-19.556	0.063	0.039
-451.953	42.556	-0.074	0.067
-450.938	-152.220	0.337	0.024
-449.924	-84.076	-0.274	0.086
-448.909	-200.000	-0.012	0.175
-447.895	-10.012	-0.080	0.052
-446.880	-200.000	-0.015	0.276
-445.865	-39.766	-0.177	-0.092
-444.851	800.000	0.046	0.130
-443.836	108.072	0.110	-0.130
-442.822	-129.350	-0.372	-0.051
-441.807	-62.101	0.200	-0.083
-440.792	-123.304	-0.169	0.027
-439.778	255.020	0.094	0.160
-438.763	88.697	-0.222	-0.244
-437.749	-64.361	-0.166	0.067
-436.734	492.476	0.065	-0.148
-435.719	104.362	-0.137	0.160
-434.705	21.872	-0.203	0.164
-433.690	32.873	0.174	-0.149
-432.676	-88.506	-0.112	-0.033
-431.661	170.336	0.008	-0.012
-430.646	-150.985	0.488	0.036
-429.632	288.202	0.304	0.545
-428.617	169.761	0.076	0.107
-427.603	582.104	-0.042	0.103
-426.588	718.180	0.100	0.264
-425.573	-200.000	0.027	0.285
-424.559	-96.465	0.020	0.005
-423.544	-200.000	-0.031	0.194
-422.530	-87.786	-0.145	0.043
-421.515	-135.589	-0.333	-0.039
-420.500	42.679	-0.118	-0.107
-419.486	144.946	0.126	0.166
-418.471	-200.000	-0.041	0.363
-417.457	800.000	-0.025	0.097
-416.442	-57.410	0.272	-0.118
-415.428	-128.621	-0.326	0.046
-414.413	-141.064	0.293	0.030
-413.398	101.320	0.076	-0.088
-412.384	-17.405	0.098	0.061
-411.369	800.000	-0.045	-0.169
-410.355	800.000	0.048	0.167
-409.340	-31.140	-0.256	0.143
-408.325	-123.650	-0.417	-0.065
-407.311	-200.000	-0.016	-0.171
-406.296	-128.504	0.159	0.022
-405.282	-29.481	0.196	-0.111
-404.267	-139.872	0.282	0.029
-403.252	-200.000	0.075	0.380
-402.238	-200.000	0.015	-0.133
-401.223	511.145	-0.020	0.046
-400.209	90.051	-0.062	-0.069
-399.194	114.521	-0.141	-0.170
-398.179	800.000	-0.040	0.128
-397.165	800.000	-0.007	-0.021
-396.150	219.885	0.105	0.166
-395.136	-46.122	0.101	-0.049
-394.121	-200.000	-0.046	-0.355
-393.106	186.070	0.230	-0.338
-392.092	-200.000	0.015	-0.102
-391.077	-31.877	0.323	-0.179
-390.063	-200.000	0.006	-0.271
-389.048	-200.000	-0.008	-0.052
-388.033	-69.075	0.437	-0.166
-387.019	-200.000	0.034	-0.214
-386.004	60.074	-0.207	0.202
-384.990	800.000	0.006	-0.024
-383.975	18.755	-0.158	-0.125
-382.960	3.120	-0.213	-0.153
-381.946	-160.974	0.042	0.002
-380.931	48.943	-0.046	-0.043
-379.917	592.036	0.082	0.199
-378.902	-200.000	-0.026	-0.185
-377.888	-99.279	-0.148	0.037
-376.873	-153.732	0.271	-0.018
-375.858	-18.956	-0.213	0.131
-374.844	-27.657	-0.240	0.137
-373.829	-198.520	-0.231	0.001
-372.815	-47.124	0.255	-0.123
-371.800	685.723	-0.079	-0.203
-370.785	-200.000	0.005	0.122
-369.771	146.349	-0.093	0.123
-368.756	138.531	0.023	0.030
-367.742	-200.000	0.068	-0.296
-366.727	273.061	-0.108	-0.189
-365.712	-11.533	0.207	0.134
-364.698	22.480	-0.455	0.367
-363.683	-63.610	0.260	-0.106
-362.669	800.000	-0.088	0.278
-361.654	800.000	-0.048	0.207
-360.639	-200.000	-0.010	-0.203
-359.625	800.000	-0.028	0.116
-358.610	110.960	-0.110	0.131
-357.596	-31.595	-0.033	-0.018
-356.581	26.761	-0.177	0.146
-355.566	800.000	-0.050	0.200
-354.552	293.136	0.162	0.292
-353.537	76.610	0.072	-0.076
-352.523	-165.861	-0.211	0.009
-351.508	112.118	0.021	0.025
-350.493	270.219	-0.036	0.063
-349.479	-200.000	-0.020	0.214
-348.464	-17.413	-0.421	0.261
-347.450	-200.000	0.016	-0.175
-346.435	196.607	-0.129	-0.194
-345.420	800.000	0.066	0.248
-344.406	55.542	-0.223	0.213
-343.391	-58.467	-0.029	-0.012
-342.377	130.619	-0.230	0.290
-341.362	118.913	-0.013	0.016
-340.348	-200.000	0.006	0.332
-339.333	-200.000	-0.089	0.407
-338.318	586.947	-0.073	-0.178
-337.304	-200.000	-0.014	-0.165
-336.289	800.000	0.069	0.247
-335.275	209.759	-0.122	0.189
-334.260	-200.000	0.084	-0.437
-333.245	428.561	-0.192	-0.409
-332.231	-50.424	0.370	-0.172
-331.216	-114.487	0.059	0.011
-330.202	86.939	-0.184	-0.201
-329.187	39.181	0.277	0.244
-328.172	265.477	-0.107	-0.183
-327.158	-94.613	0.124	-0.033
-326.143	8.001	-0.068	0.051
-325.129	54.663	-0.181	-0.172
-324.114	-200.000	-0.001	0.063
-323.099	-151.661	0.470	-0.034
-322.085	800.000	0.011	-0.040
-321.070	-72.120	-0.338	0.124
-320.056	-165.820	0.210	0.009
-319.041	188.453	-0.047	-0.069
-318.026	57.620	0.115	0.111
-317.012	263.321	0.016	0.028
-315.997	-54.230	0.157	0.070
-314.983	101.709	-0.072	-0.082
-313.968	376.658	0.170	-0.342
-312.953	-146.461	0.067	0.006
-311.939	244.062	0.135	-0.224
-310.924	-200.000	-0.010	-0.283
-309.910	-18.079	-0.478	0.295
-308.895	-116.188	0.237	0.043
-307.880	345.595	-0.044	-0.084
-306.866	41.294	0.314	0.279
-305.851	133.776	0.161	0.205
-304.837	-157.522	-0.255	0.015
-303.822	64.830	-0.181	0.180
-302.807	4.401	-0.278	0.201
-301.793	25.151	-0.116	0.095
-300.778	-36.727	-0.618	0.327
-299.764	-181.981	0.118	-0.002
-298.749	-46.420	-0.203	-0.098
-297.735	566.446	-0.109	-0.260
-296.720	57.571	-0.260	-0.250
-295.705	147.717	0.157	-0.208
-294.691	-8.340	-0.121	0.080
-293.676	161.366	0.082	-0.112
-292.662	241.173	0.243	0.399
-291.647	715.999	-0.082	0.214
-290.632	-186.034	-0.218	-0.003
-289.618	641.266	-0.095	-0.239
-288.603	78.098	-0.170	0.178
-287.589	-141.324	-0.164	-0.016
-286.574	0.248	-0.114	0.080
-285.559	-123.444	0.206	-0.032
-284.545	-145.593	0.126	0.011
-283.530	-44.601	-0.133	-0.065
-282.516	-121.498	0.134	-0.022
-281.501	-200.000	-0.016	0.132
-280.486	-1.270	0.186	0.129
-279.472	-200.000	-0.017	-0.098
-278.457	92.395	-0.345	0.383
-277.443	-66.932	0.132	0.051
-276.428	-200.000	0.024	0.199
-275.413	569.622	0.034	-0.082
-274.399	-55.673	0.274	-0.121
-273.384	-174.743	-0.107	0.003
-272.370	-200.000	0.002	-0.208
-271.355	406.750	0.009	-0.018
-270.340	-84.893	-0.118	0.036
-269.326	-200.000	-0.013	0.142
-268.311	79.696	-0.259	-0.274
-267.297	-200.000	-0.001	-0.010
-266.282	-60.311	-0.131	-0.055
-265.267	-200.000	0.070	-0.371
-264.253	-41.551	-0.079	0.040
-263.238	332.052	0.099	-0.189
-262.224	97.125	-0.081	0.092
-261.209	492.228	0.092	-0.208
-260.195	82.656	-0.267	-0.286
-259.180	118.839	0.180	-0.219
-258.165	-78.649	0.286	-0.096
-257.151	-81.211	-0.274	-0.089
-256.136	120.960	0.032	0.039
-255.122	-143.119	0.416	-0.039
-254.107	71.177	0.223	0.227
-253.092	148.409	0.207	-0.275
-252.078	-196.703	-0.289	0.002
-251.063	-3.445	-0.263	-0.180
-250.049	-32.924	0.157	-0.086
-249.034	84.247	0.097	0.104
-248.019	46.053	-0.164	0.149
-247.005	181.936	0.012	0.018
-245.990	-63.846	0.325	-0.131
-244.976	566.865	0.043	-0.102
-243.961	-200.000	-0.012	-0.084
-242.946	-107.033	0.061	0.013
-241.932	800.000	0.033	0.098
-240.917	-150.798	-0.280	-0.021
-239.903	285.322	-0.141	-0.249
-238.888	-57.631	0.056	0.024
-237.873	340.462	-0.081	0.155
-236.859	-66.303	0.183	-0.071
-235.844	-200.000	-0.066	-0.376
-234.830	-200.000	-0.052	0.366
-233.815	-4.591	0.072	0.049
-232.800	-157.571	-0.376	0.022
-231.786	-48.506	-0.070	0.033
-230.771	-200.000	0.024	0.192
-229.757	-200.000	-0.018	0.136
-228.742	-163.113	0.028	-0.001
-227.727	-42.045	-0.173	-0.087
-226.713	-80.555	0.347	0.113
-225.698	800.000	0.045	0.191
-224.684	-200.000	0.002	-0.436
-223.669	-137.313	-0.186	0.021
-222.655	-42.022	0.465	0.234
-221.640	21.043	-0.312	0.248
-220.625	21.099	-0.181	0.144
-219.611	-97.100	0.177	0.045
-218.596	-159.287	-0.158	-0.009
-217.582	-183.387	-0.176	-0.003
-216.567	-47.864	0.300	-0.143
-215.552	-22.433	0.211	-0.125
-214.538	800.000	-0.080	-0.248
-213.523	-167.552	-0.156	-0.006
-212.509	20.684	-0.121	0.096
-211.494	-26.660	-0.191	-0.110
-210.479	-35.835	-0.304	-0.161
-209.465	99.534	0.391	0.444
-208.450	113.734	0.229	0.274
-207.436	254.032	-0.189	-0.317
-206.421	-125.596	-0.294	0.044
-205.406	-200.000	0.021	-0.141
-204.392	-93.639	-0.179	-0.048
-203.377	-71.574	-0.200	-0.073
-202.363	-117.900	-0.034	0.006
-201.348	-115.701	0.393	0.072
-200.333	-147.956	0.121	-0.010
-199.319	800.000	-0.034	-0.111
-198.304	800.000	-0.103	-0.419
-197.290	60.932	0.022	0.021
-196.275	800.000	0.049	-0.190
-195.260	-200.000	0.037	0.244
-194.246	-49.639	0.064	-0.030
-193.231	362.762	-0.041	-0.080
-192.217	283.713	-0.044	-0.077
-191.202	-47.729	-0.263	0.125
-190.187	-172.203	-0.090	0.003
-189.173	-72.732	0.071	-0.026
-188.158	-200.000	0.029	-0.253
-187.144	-4.939	0.060	-0.040
-186.129	144.445	0.239	-0.314
-185.114	-108.568	0.111	0.023
-184.100	-90.899	-0.120	-0.034
-183.085	96.276	0.170	-0.190
-182.071	-25.053	0.204	0.119
-181.056	-31.371	0.204	0.112
-180.042	-200.000	-0.040	0.339
-179.027	9.579	-0.125	0.093
-178.012	-200.000	0.035	0.175
-176.998	-103.328	0.523	0.121
-175.983	-145.709	-0.163	0.014
-174.969	389.232	0.187	-0.380
-173.954	436.359	-0.119	0.255
-172.939	-200.000	-0.005	0.091
-171.925	-46.488	0.110	0.053
-170.910	-200.000	-0.040	0.304
-169.896	-86.050	0.137	0.042
-168.881	-200.000	-0.004	0.083
-167.866	118.290	0.170	0.205
-166.852	800.000	0.034	-0.138
-165.837	42.358	-0.124	0.110
-164.823	-60.594	0.211	-0.088
-163.808	606.473	-0.107	-0.261
-162.793	-200.000	0.077	0.386
-161.779	112.669	-0.202	0.239
-160.764	-81.773	0.179	0.057
-159.750	-87.464	0.061	0.018
-158.735	126.415	-0.187	0.231
-157.720	72.179	-0.138	-0.141
-156.706	-135.262	0.173	0.020
-155.691	-161.461	0.097	-0.005
-154.677	206.690	-0.022	-0.033
-153.662	-90.546	0.405	0.115
-152.647	460.724	0.133	0.291
-151.633	118.179	0.169	0.204
-150.618	437.023	-0.085	-0.182
-149.604	-60.267	0.426	-0.178
-148.589	778.482	-0.038	0.102
-147.574	-8.766	-0.055	0.036
-146.560	-28.272	-0.124	0.070
-145.545	-95.675	0.274	-0.072
-144.531	180.959	-0.257	-0.370
-143.516	315.460	0.149	0.276
-142.502	75.458	0.202	0.209
-141.487	-200.000	-0.028	0.184
-140.472	-3.919	-0.125	-0.085
-139.458	-200.000	-0.051	-0.338
-138.443	-79.089	-0.201	-0.067
-137.429	51.854	0.132	-0.122
-136.414	-120.624	-0.330	0.055
-135.399	204.355	0.265	0.402
-134.385	0.094	0.127	0.089
-133.370	28.534	-0.120	0.099
-132.356	800.000	-0.078	0.241
-131.341	-126.309	-0.149	-0.022
-130.326	-200.000	-0.025	0.136
-129.312	33.533	0.035	-0.030
-128.297	179.605	0.057	-0.082
-127.283	-200.000	-0.040	-0.265
-126.268	-200.000	-0.000	0.036
-125.253	-147.724	0.109	0.009
-124.239	-200.000	0.041	0.244
-123.224	35.797	0.201	-0.173
-122.210	101.075	0.107	-0.122
-121.195	-122.287	0.489	-0.078
-120.180	-141.383	0.243	0.024
-119.166	15.635	0.127	-0.097
-118.151	800.000	-0.104	-0.364
-117.137	11.979	0.073	-0.055
-116.122	-8.597	0.149	-0.098
-115.107	301.012	-0.269	0.486
-114.093	-99.454	-0.195	0.048
-113.078	51.416	0.209	0.194
-112.064	37.680	0.118	-0.103
-111.049	-200.000	-0.016	0.159
-110.034	238.392	0.212	-0.344
-109.020	216.974	-0.181	0.282
-108.005	96.472	0.095	-0.106
-106.991	173.402	0.090	0.127
-105.976	-43.565	-0.260	-0.128
-104.962	-177.702	-0.250	-0.006
-103.947	225.569	0.041	0.066
-102.932	62.993	0.253	-0.248
-101.918	800.000	0.041	-0.121
-100.903	-108.739	0.140	0.029
-99.889	485.886	-0.114	-0.253
-98.874	-67.016	0.245	-0.094
-97.859	67.749	0.096	0.096
-96.845	-38.330	-0.495	0.256
-95.830	800.000	0.028	0.120
-94.816	23.461	-0.341	0.274
-93.801	-64.638	0.029	0.011
-92.786	-150.660	0.199	0.015
-91.772	171.527	-0.117	-0.164
-90.757	44.336	0.064	0.057
-89.743	383.525	0.029	-0.059
-88.728	-200.000	0.080	-0.380
-87.713	2.913	0.171	-0.121
-86.699	-200.000	-0.087	0.379
-85.684	-46.912	0.124	-0.059
-84.670	-63.138	0.222	0.089
-83.655	-6.869	-0.314	0.208
-82.640	-200.000	0.008	-0.102
-81.626	132.978	0.356	0.449
-80.611	-59.680	0.264	-0.110
-79.597	800.000	-0.053	-0.209
-78.582	16.693	0.302	-0.233
-77.567	-2.040	-0.137	0.094
-76.553	-186.109	-0.548	-0.008
-75.538	-123.689	-0.260	-0.040
-74.524	339.631	0.160	-0.304
-73.509	-200.000	-0.010	0.111
-72.494	-37.168	0.482	0.252
-71.480	-112.758	0.116	0.023
-70.465	174.724	-0.247	0.349
-69.451	-200.000	-0.035	-0.322
-68.436	296.534	-0.040	-0.072
-67.422	267.018	0.262	-0.447
-66.407	800.000	0.098	0.375
-65.392	760.167	0.096	0.254
-64.378	-63.931	-0.026	0.010
-63.363	93.185	-0.098	-0.108
-62.349	-163.980	0.298	0.014
-61.334	-4.326	-1.152	-0.777
-60.319	366.903	0.449	0.883
-59.305	-200.000	-0.304	-1.403
-58.290	195.344	0.937	1.388
-57.276	213.431	0.837	1.291
-56.261	-200.000	126.354	673.668
-55.246	425.045	1578.403	3314.279
-54.232	142.357	2729.231	3533.450
-53.217	96.292	2149.440	2397.712
-52.203	34.659	1584.417	1350.587
-51.188	26.432	1328.932	1083.709
-50.173	23.941	1291.944	1038.976
-49.159	52.680	1361.811	1268.938
-48.144	49.148	1373.114	1258.246
-47.130	26.621	1320.492	1077.778
-46.115	23.244	1302.260	1042.996
-45.100	23.100	1296.658	1037.625
-44.086	23.059	1294.505	1035.620
-43.071	23.103	1291.926	1033.773
-42.057	23.099	1289.478	1031.749
-41.042	23.052	1288.326	1030.513
-40.027	23.163	1286.654	1029.784
-39.013	23.144	1284.806	1028.150
-37.998	23.149	1282.662	1026.427
-36.984	23.093	1281.387	1025.037
-35.969	23.242	1279.371	1024.248
-34.954	23.164	1278.017	1022.671
-33.940	23.252	1277.037	1022.355
-32.925	23.095	1275.568	1020.231
-31.911	23.219	1273.655	1019.376
-30.896	23.234	1272.934	1018.844
-29.881	23.393	1270.720	1017.945
-28.867	23.353	1270.061	1017.147
-27.852	23.284	1268.794	1015.696
-26.838	23.343	1267.195	1014.717
-25.823	23.371	1265.864	1013.773
-24.809	23.278	1264.737	1012.294
-23.794	23.272	1263.296	1011.065
-22.779	23.363	1261.863	1010.398
-21.765	23.261	1260.912	1009.018
-20.750	23.267	1259.190	1007.633
-19.736	23.264	1257.906	1006.550
-18.721	23.175	1256.899	1005.199
-17.706	23.238	1255.541	1004.431
-16.692	23.114	1254.966	1003.225
-15.677	23.035	1253.924	1001.906
-14.663	23.013	1252.595	1000.679
-13.648	23.103	1251.415	1000.204
-12.633	23.053	1250.971	999.526
-11.619	23.196	1250.194	999.676
-10.604	23.103	1249.208	998.325
-9.590	23.057	1248.274	997.276
-8.575	23.149	1247.092	996.810
-7.560	23.096	1246.304	995.845
-6.546	23.086	1245.408	995.033
-5.531	23.127	1244.586	994.565
-4.517	23.152	1243.773	994.016
-3.502	23.147	1242.917	993.265
-2.487	23.303	1242.021	993.387
-1.473	23.065	1238.104	988.883
-0.458	21.509	1222.741	967.974
0.556	16.602	1207.745	932.019
1.571	13.162	1215.084	918.504
2.586	12.453	1230.932	926.406
3.600	12.468	1218.645	917.160
4.615	9.135	1147.598	846.079
5.629	3.079	1078.433	764.959
6.644	0.397	1061.360	739.642
7.659	0.087	1059.665	736.875
8.673	0.100	1058.508	736.066
9.688	0.076	1057.294	735.043
10.702	0.320	1054.822	734.447
11.717	4.070	1058.809	755.476
12.731	10.923	1068.165	795.715
13.746	15.754	1073.853	823.590
14.761	16.867	1075.161	829.970
15.775	16.252	1073.220	825.392
16.790	15.154	1071.660	818.756
17.804	14.480	1070.031	814.149
18.819	14.014	1069.353	811.285
19.834	13.956	1067.581	809.590
20.848	13.695	1066.887	807.716
21.863	13.462	1066.115	805.930
22.877	13.220	1065.205	803.993
23.892	13.163	1065.068	803.542
24.907	13.195	1064.169	802.944
25.921	13.374	1063.246	803.047
26.936	13.292	1062.313	801.875
27.950	13.237	1061.248	800.736
28.965	13.345	1060.183	800.382
29.980	13.572	1058.401	800.062
30.994	13.634	1057.735	799.786
32.009	13.576	1056.764	798.701
33.023	13.426	1055.839	797.211
34.038	13.445	1054.900	796.524
35.053	13.524	1053.776	795.982
36.067	13.311	1053.631	794.778
37.082	13.480	1052.713	794.827
38.096	13.417	1051.467	793.514
39.111	13.412	1050.927	793.012
40.126	13.345	1049.772	791.752
41.140	13.282	1048.574	790.474
42.155	13.264	1047.488	789.499
43.169	13.331	1045.939	788.583
44.184	13.305	1045.486	788.047
45.199	13.180	1044.830	786.886
46.213	13.301	1043.685	786.531
47.228	13.231	1042.662	785.358
48.242	13.353	1041.226	784.787
49.257	13.350	1040.423	784.097
50.271	13.414	1039.429	783.585
51.286	13.360	1038.307	782.413
52.301	13.339	1037.628	781.734
53.315	13.375	1036.381	780.892
54.330	13.322	1035.654	780.026
55.344	13.413	1034.853	779.784
56.359	13.341	1033.797	778.577
57.374	13.325	1033.278	778.046
58.388	13.244	1032.372	776.911
59.403	13.242	1031.133	775.904
60.417	13.266	1030.433	775.417
61.432	13.263	1029.660	774.755
62.447	13.205	1028.979	773.902
63.461	13.144	1028.498	773.187
64.476	13.224	1027.535	772.770
65.490	13.209	1026.727	772.023
66.505	13.160	1025.837	771.057
67.520	13.347	1025.464	771.581
68.534	13.228	1024.740	770.411
69.549	13.275	1023.870	769.909
70.563	13.113	1023.334	768.685
71.578	13.151	1022.469	768.142
72.593	13.149	1021.752	767.526
73.607	13.080	1020.968	766.552
74.622	13.217	1019.732	766.189
75.636	13.221	1019.218	765.754
76.651	13.112	1018.799	764.867
77.666	13.175	1018.236	764.667
78.680	13.100	1018.036	764.101
79.695	13.167	1016.896	763.488
80.709	13.260	1016.120	763.268
81.724	13.225	1016.051	762.986
82.739	13.344	1014.592	762.371
83.753	13.338	1014.337	762.083
84.768	13.509	1013.105	761.881
85.782	13.479	1012.470	761.196
86.797	13.331	1011.476	759.701
87.812	13.427	1010.486	759.330
88.826	13.298	1009.539	757.962
89.841	13.388	1008.774	757.731
90.855	13.428	1007.944	757.224
91.870	13.425	1006.895	756.355
92.884	13.538	1005.865	756.031
93.899	13.441	1005.316	755.110
94.914	13.597	1004.331	755.015
95.928	13.537	1003.656	754.165
96.943	13.453	1002.667	752.974
97.957	13.527	1001.634	752.470
98.972	13.502	1000.907	751.743
99.987	13.414	1000.460	750.941
101.001	13.418	999.392	750.090
102.016	13.469	998.055	749.250
103.030	13.471	997.434	748.727
104.045	13.386	997.048	747.988
105.060	13.436	995.903	747.290
106.074	13.266	995.327	746.024
107.089	13.337	994.028	745.302
108.103	13.272	993.271	744.376
109.118	13.300	991.957	743.453
110.133	13.255	991.212	742.628
111.147	13.223	990.814	742.118
112.162	13.301	989.669	741.545
113.176	13.410	988.565	741.139
114.191	13.346	988.550	740.775
115.206	13.466	987.305	740.315
116.220	13.383	986.250	739.087
117.235	13.326	985.581	738.268
118.249	13.326	984.805	737.618
119.264	13.443	983.674	737.228
120.279	13.380	983.189	736.519
121.293	13.329	982.128	735.434
122.308	13.221	981.844	734.673
123.322	13.291	980.393	733.836
124.337	13.327	979.442	733.218
125.352	13.368	978.226	732.426
126.366	13.392	977.192	731.691
127.381	13.444	975.899	730.890
128.395	13.451	975.344	730.441
129.410	13.395	974.203	729.273
130.424	13.321	973.506	728.362
131.439	13.332	973.086	728.031
132.454	13.508	971.405	727.482
133.468	13.400	971.019	726.655
134.483	13.361	970.621	726.121
135.497	13.382	969.724	725.477
136.512	13.408	968.571	724.666
137.527	13.485	967.527	724.155
138.541	13.325	966.990	722.990
139.556	13.484	966.556	723.299
140.570	13.491	965.644	722.582
141.585	13.575	964.732	722.199
142.600	13.548	963.630	721.196
143.614	13.548	962.878	720.567
144.629	13.666	962.116	720.445
145.643	13.627	961.288	719.595
146.658	13.485	960.401	718.252
147.673	13.609	959.599	718.124
148.687	13.540	958.936	717.264
149.702	13.596	957.831	716.617
150.716	13.532	956.953	715.620
151.731	13.485	956.635	715.119
152.746	13.541	955.824	714.689
153.760	13.597	955.029	714.272
154.775	13.642	954.609	714.091
155.789	13.716	953.635	713.618
156.804	13.664	953.114	712.940
157.819	13.701	952.223	712.369
158.833	13.767	951.740	712.228
159.848	13.832	950.747	711.703
160.862	13.808	949.888	710.893
161.877	13.775	949.278	710.231
162.892	13.781	948.482	709.596
163.906	13.691	947.304	708.269
164.921	13.697	946.623	707.721
165.935	13.716	945.933	707.224
166.950	13.608	945.511	706.387
167.964	13.730	944.392	706.007
168.979	13.725	943.205	705.039
169.994	13.652	942.227	703.934
171.008	13.713	942.105	704.040
172.023	13.813	941.360	703.844
173.037	13.891	940.421	703.410
174.052	13.815	939.794	702.560
175.067	13.711	938.984	701.449
176.081	13.746	938.780	701.383
177.096	13.809	937.788	700.846
178.110	13.803	937.487	700.533
179.125	13.785	936.984	700.020
180.140	13.861	936.313	699.777
181.154	13.786	936.044	699.199
182.169	13.965	935.288	699.326
183.183	13.998	934.463	698.785
184.198	14.046	933.295	698.053
185.213	13.919	933.460	697.580
186.227	13.888	932.620	696.763
187.242	14.076	931.567	696.701
188.256	14.007	931.356	696.190
189.271	14.074	930.062	695.444
190.286	13.866	929.563	694.141
191.300	13.920	928.846	693.769
192.315	13.930	928.184	693.253
193.329	13.771	928.184	692.527
194.344	13.911	926.990	692.162
195.359	14.074	926.204	692.192
196.373	13.940	926.105	691.497
197.388	14.101	925.597	691.726
198.402	14.230	924.887	691.673
199.417	14.266	924.100	691.170
200.432	14.218	923.728	690.634
201.446	14.192	923.271	690.122
202.461	14.365	922.663	690.325
203.475	14.137	922.243	689.005
204.490	14.258	921.060	688.560
205.504	14.268	920.421	688.063
206.519	14.323	919.497	687.538
207.534	14.338	918.571	686.848
208.548	14.406	918.373	686.919
209.563	14.351	917.477	685.960
210.577	14.377	916.693	685.421
211.592	14.301	916.681	685.037
212.607	14.245	916.172	684.367
213.621	14.334	914.922	683.739
214.636	14.414	914.036	683.342
215.650	14.391	913.481	682.775
216.665	14.327	913.219	682.255
217.680	14.476	912.031	681.917
218.694	14.442	911.607	681.403
219.709	14.504	910.754	680.954
220.723	14.477	910.295	680.444
221.738	14.493	909.450	679.817
222.753	14.599	908.689	679.617
223.767	14.456	908.750	679.022
224.782	14.637	907.672	678.890
225.796	14.632	907.056	678.350
226.811	14.543	906.600	677.588
227.826	14.538	905.783	676.899
228.840	14.604	905.395	676.815
229.855	14.650	904.368	676.176
230.869	14.529	903.623	675.069
231.884	14.604	902.775	674.679
232.899	14.568	902.199	674.043
233.913	14.735	901.191	673.902
234.928	14.510	900.924	672.735
235.942	14.484	900.393	672.173
236.957	14.590	899.909	672.182
237.972	14.696	899.228	672.041
238.986	14.658	898.542	671.316
240.001	14.735	897.645	670.894
241.015	14.649	897.363	670.281
242.030	14.689	896.953	670.073
243.045	14.679	896.310	669.497
244.059	14.776	895.574	669.276
245.074	14.746	894.659	668.411
246.088	14.768	894.183	668.084
247.103	14.851	893.537	667.874
248.117	14.931	893.231	667.905
249.132	15.006	892.306	667.454
250.147	14.895	891.776	666.556
251.161	15.094	890.905	666.638
252.176	14.999	890.653	666.012
253.190	15.036	889.811	665.470
254.205	15.091	889.592	665.466
255.220	15.064	888.691	664.626
256.234	15.184	887.815	664.388
257.249	15.150	887.331	663.834
258.263	15.107	886.666	663.109
259.278	15.085	885.898	662.388
260.293	15.104	885.406	662.036
261.307	15.006	885.092	661.357
262.322	15.173	883.883	661.052
263.336	15.321	883.370	661.196
264.351	15.251	882.828	660.455
265.366	15.222	882.023	659.678
266.380	15.434	881.452	660.029
267.395	15.274	880.887	658.917
268.409	15.304	879.662	658.062
269.424	15.168	879.122	657.066
270.439	15.334	878.682	657.329
271.453	15.397	877.586	656.697
272.468	15.348	877.359	656.277
273.482	15.225	876.877	655.376
274.497	15.321	875.956	655.008
275.512	15.340	875.679	654.816
276.526	15.441	875.136	654.747
277.541	15.196	874.783	653.470
278.555	15.306	874.150	653.366
279.570	15.621	873.257	653.866
280.585	15.448	872.552	652.610
281.599	15.517	872.015	652.418
282.614	15.432	871.512	651.651
283.628	15.524	870.718	651.360
284.643	15.457	870.410	650.809
285.657	15.633	869.363	650.651
286.672	15.548	868.712	649.778
287.687	15.569	868.088	649.333
288.701	15.603	867.615	649.056
289.716	15.606	866.922	648.492
290.730	15.564	866.571	648.008
291.745	15.755	865.345	647.770
292.760	15.602	865.375	647.146
293.774	15.812	864.316	647.106
294.789	15.647	864.225	646.344
295.803	15.732	863.125	645.790
296.818	15.672	862.541	645.067
297.833	15.592	862.219	644.464
298.847	15.628	861.543	644.038
299.862	15.878	860.700	644.306
300.876	15.773	860.209	643.482
301.891	15.779	859.695	643.061
302.906	15.831	859.091	642.752
303.920	15.825	858.502	642.231
304.935	15.896	857.815	641.932
305.949	16.000	857.166	641.786
306.964	15.933	856.700	641.126
307.979	15.863	856.280	640.488
308.993	15.866	855.704	640.011
310.008	16.016	854.843	639.881
311.022	15.976	854.339	639.296
312.037	15.900	854.048	638.732
313.052	15.984	852.721	638.004
314.066	15.889	852.851	637.684
315.081	16.120	851.954	637.828
316.095	15.986	851.401	636.853
317.110	15.987	850.766	636.326
318.125	16.048	850.484	636.290
319.139	16.005	850.177	635.841
320.154	15.902	849.819	635.127
321.168	16.049	849.023	635.031
322.183	16.118	848.445	634.799
323.197	16.138	848.123	634.581
324.212	16.222	847.288	634.213
325.227	16.176	846.974	633.750
326.241	16.058	846.618	632.985
327.256	16.159	845.788	632.687
328.270	16.043	845.111	631.691
329.285	15.984	844.644	631.064
330.300	16.102	843.939	630.924
331.314	16.096	843.288	630.358
332.329	16.052	843.369	630.200
333.343	16.096	842.846	629.917
334.358	16.118	842.649	629.795
335.373	16.235	841.739	629.498
336.387	16.385	841.299	629.671
337.402	16.353	841.085	629.334
338.416	16.330	840.706	628.909
339.431	16.173	840.910	628.424
340.446	16.337	840.278	628.505
341.460	16.465	839.508	628.351
342.475	16.455	839.229	628.047
343.489	16.485	838.561	627.604
344.504	16.515	838.304	627.469
345.519	16.559	837.868	627.250
346.533	16.552	837.138	626.621
347.548	16.513	836.310	625.802
348.562	16.555	836.004	625.672
349.577	16.512	835.498	625.078
350.592	16.437	834.728	624.169
351.606	16.521	834.116	623.968
352.621	16.624	833.351	623.718
353.635	16.506	833.192	623.112
354.650	16.410	832.378	622.094
355.665	16.502	832.188	622.236
356.679	16.467	830.990	621.156
357.694	16.557	830.590	621.133
358.708	16.708	829.800	621.041
359.723	16.684	829.223	620.464
360.738	16.613	828.946	619.944
361.752	16.725	828.041	619.622
362.767	16.782	827.335	619.246
363.781	16.712	826.934	618.637
364.796	16.756	826.712	618.578
365.810	16.874	826.503	618.794
366.825	16.809	826.168	618.251
367.840	16.843	825.194	617.593
368.854	17.012	824.511	617.641
369.869	16.927	824.687	617.411
370.883	16.980	823.936	616.986
371.898	16.849	823.802	616.354
372.913	16.960	823.275	616.310
373.927	17.140	822.474	616.307
374.942	16.916	822.892	615.755
375.956	17.058	821.867	615.448
376.971	17.044	821.021	614.711
377.986	17.069	820.615	614.439
379.000	17.153	820.639	614.709
380.015	16.989	820.384	613.870
381.029	17.006	819.273	613.047
382.044	17.087	819.082	613.142
383.059	17.221	818.028	612.781
384.073	17.083	817.838	612.087
385.088	17.174	817.170	611.861
386.102	17.000	816.763	610.874
387.117	16.980	816.313	610.412
388.132	17.173	815.274	610.275
389.146	17.198	815.074	610.162
390.161	17.174	814.583	609.655
391.175	17.232	813.708	609.152
392.190	17.228	813.329	608.800
393.205	17.255	813.091	608.666
394.219	17.358	812.769	608.739
395.234	17.237	812.301	607.901
396.248	17.070	811.995	607.023
397.263	17.224	811.102	606.850
398.278	17.155	811.431	606.796
399.292	17.135	810.731	606.149
400.307	17.339	809.758	606.092
401.321	17.250	809.346	605.416
402.336	17.295	808.931	605.211
403.350	17.358	808.565	605.107
404.365	17.404	808.325	605.038
405.380	17.303	807.926	604.327
406.394	17.493	807.281	604.465
407.409	17.434	806.932	603.941
408.423	17.355	806.999	603.659
409.438	17.537	806.066	603.551
410.453	17.682	805.449	603.550
411.467	17.524	805.553	603.015
412.482	17.582	805.064	602.801
413.496	17.767	804.341	602.859
414.511	17.676	804.046	602.264
415.526	17.699	803.625	601.976
416.540	17.618	802.971	601.148
417.555	17.802	802.457	601.360
418.569	17.648	802.691	600.936
419.584	17.737	801.799	600.530
420.599	17.738	801.337	600.134
421.613	114.134	1298.093	1486.283
422.628	98.446	1370.432	1486.355
