DTS Sentinel unit serial number:	SN413079Multiplexer serial number:	ORYXHardware model number:	OX4-SRSoftware version number:	ORYX F/W v4.00 Oryx Data Collector v3.7.2.0data status	okinstallation	princeton_trtdifferential loss correction	single-endedforward channel	channel 1reverse channel	N/Adate	2019/09/15time	10:22:35forward acquisition time	60.00reverse acquisition time	0.00gamma	496.2192k internal	0.2309k external	0.2309temperature offset calibration	0.9989default loss term (dB/km)	0.3790temperature slope calibration	1.0000multiplexer offset coefficient	1.0000multiplexer slope coefficient	1.0000fibre end	0.00T internal ref (°C)	34.25T ext. ref 1 (°C)	5.03T ext. ref 2 (°C)	29.39length (m)	temperature (°C)	Stokes	anti-Stokes-747.200	-153.959	-0.227	-0.016
-746.185	800.000	-0.118	0.390
-745.171	247.338	-0.185	-0.317
-744.156	389.566	-0.087	0.182
-743.142	254.404	-0.173	-0.301
-742.127	-42.135	-0.139	-0.072
-741.112	-48.126	0.164	0.081
-740.098	-200.000	0.002	0.154
-739.083	-200.000	0.028	0.146
-738.069	-200.000	-0.001	-0.261
-737.054	28.938	-0.183	-0.157
-736.039	-57.088	-0.239	0.107
-735.025	329.027	-0.177	0.346
-734.010	97.690	0.116	0.136
-732.996	271.295	-0.101	0.181
-731.981	589.392	0.055	0.137
-730.966	288.482	-0.162	0.297
-729.952	293.284	-0.090	0.167
-728.937	-200.000	-0.061	-0.384
-727.923	-143.706	-0.278	-0.027
-726.908	-63.479	-0.172	-0.072
-725.894	-200.000	-0.028	0.142
-724.879	-200.000	0.022	0.153
-723.864	273.960	-0.215	0.386
-722.850	-200.000	-0.031	-0.310
-721.835	618.127	-0.098	-0.249
-720.821	-136.669	-0.053	0.006
-719.806	172.005	-0.008	-0.012
-718.791	-200.000	0.047	0.225
-717.777	-200.000	0.131	0.000
-716.762	-14.157	0.158	-0.104
-715.748	124.682	-0.103	0.132
-714.733	57.281	-0.169	-0.168
-713.718	187.575	-0.152	-0.231
-712.704	232.417	0.174	-0.290
-711.689	-200.000	-0.002	0.076
-710.675	165.914	0.109	0.156
-709.660	-107.585	0.298	0.066
-708.645	102.161	0.186	-0.221
-707.631	-200.000	-0.026	0.140
-706.616	-128.469	0.179	-0.026
-705.602	800.000	0.084	-0.301
-704.587	431.051	0.051	-0.112
-703.572	-81.875	-0.221	-0.073
-702.558	-29.521	0.371	0.215
-701.543	-156.453	0.421	-0.027
-700.529	-110.989	-0.182	0.038
-699.514	9.480	-0.075	-0.058
-698.499	606.126	0.184	-0.465
-697.485	104.674	0.122	-0.145
-696.470	68.855	0.060	-0.063
-695.456	-105.685	-0.249	-0.057
-694.441	-51.288	-0.153	0.073
-693.426	-79.958	-0.282	0.096
-692.412	-200.000	-0.012	0.060
-691.397	-54.011	-0.133	0.061
-690.383	800.000	-0.038	-0.108
-689.368	800.000	0.014	0.040
-688.354	28.372	0.154	0.132
-687.339	-82.495	0.202	-0.066
-686.324	107.187	-0.139	-0.168
-685.310	104.385	-0.179	-0.214
-684.295	-22.380	-0.116	0.071
-683.281	109.701	-0.161	-0.196
-682.266	25.200	-0.015	0.012
-681.251	-3.806	0.245	0.172
-680.237	390.580	0.191	-0.401
-679.222	-128.090	0.081	-0.012
-678.208	83.157	-0.092	-0.102
-677.193	800.000	0.043	0.158
-676.178	176.380	0.042	-0.062
-675.164	561.813	-0.072	-0.175
-674.149	13.130	0.140	0.110
-673.135	601.264	0.074	-0.186
-672.120	800.000	-0.061	0.201
-671.105	50.418	-0.396	-0.379
-670.091	262.544	-0.131	0.230
-669.076	-150.999	0.095	0.007
-668.062	-69.475	0.132	-0.051
-667.047	-18.733	-0.268	-0.169
-666.032	-112.073	0.077	-0.016
-665.018	-85.977	0.348	-0.109
-664.003	-200.000	0.008	-0.262
-662.989	-200.000	0.039	-0.197
-661.974	800.000	0.092	-0.303
-660.959	-200.000	0.013	-0.255
-659.945	-64.285	0.276	0.114
-658.930	-69.611	0.078	-0.030
-657.916	-79.486	0.271	-0.093
-656.901	48.786	-0.350	0.332
-655.886	-168.814	0.202	-0.008
-654.872	95.082	-0.085	-0.098
-653.857	-98.419	-0.299	0.078
-652.843	-50.436	-0.234	0.112
-651.828	113.254	-0.216	-0.265
-650.814	-200.000	-0.006	-0.107
-649.799	-100.864	0.399	-0.099
-648.784	-79.229	-0.240	0.082
-647.770	-64.485	-0.250	-0.103
-646.755	631.957	-0.158	-0.406
-645.741	41.742	-0.137	0.126
-644.726	242.502	0.179	-0.303
-643.711	156.569	-0.137	-0.192
-642.697	-12.276	-0.102	-0.067
-641.682	119.236	0.117	-0.146
-640.668	-200.000	0.008	0.506
-639.653	-172.180	-0.051	0.002
-638.638	-200.000	0.134	0.000
-637.624	-59.071	0.265	-0.116
-636.609	168.167	-0.113	0.162
-635.595	-8.809	0.057	0.038
-634.580	-200.000	0.033	0.152
-633.565	-110.404	0.055	0.012
-632.551	174.578	-0.151	0.221
-631.536	800.000	-0.071	-0.205
-630.522	-200.000	0.065	-0.335
-629.507	-200.000	-0.000	-0.176
-628.492	-39.306	0.185	-0.098
-627.478	-48.755	0.070	0.034
-626.463	-61.277	0.105	0.045
-625.449	-200.000	0.070	-0.343
-624.434	85.448	-0.164	-0.183
-623.419	65.958	-0.031	0.032
-622.405	800.000	0.071	0.268
-621.390	217.986	-0.060	0.097
-620.376	-200.000	0.025	-0.228
-619.361	-43.613	-0.389	-0.198
-618.346	-200.000	-0.027	0.124
-617.332	-131.308	-0.316	0.042
-616.317	41.590	0.104	-0.096
-615.303	-47.837	-0.272	-0.133
-614.288	777.442	0.111	0.306
-613.273	163.871	0.061	-0.087
-612.259	338.968	0.087	-0.171
-611.244	-92.450	-0.186	0.053
-610.230	222.117	-0.096	0.155
-609.215	800.000	-0.039	0.163
-608.201	800.000	0.064	-0.201
-607.186	118.609	0.241	0.300
-606.171	-55.662	-0.088	-0.040
-605.157	123.650	0.182	-0.230
-604.142	-200.000	0.026	-0.369
-603.128	-149.785	0.133	-0.011
-602.113	368.513	-0.073	-0.150
-601.098	-200.000	-0.008	0.076
-600.084	22.743	-0.273	-0.226
-599.069	372.245	-0.042	0.086
-598.055	-123.044	0.108	0.017
-597.040	-111.612	0.233	0.048
-596.025	268.092	0.111	-0.196
-595.011	-1.608	0.124	-0.088
-593.996	-52.424	-0.266	-0.125
-592.982	-200.000	0.023	0.160
-591.967	-134.392	-0.158	0.020
-590.952	800.000	-0.079	0.256
-589.938	-200.000	0.008	-0.189
-588.923	-200.000	0.029	0.165
-587.909	139.647	0.086	-0.115
-586.894	78.952	-0.129	-0.139
-585.879	-124.774	-0.283	-0.044
-584.865	383.162	-0.082	0.171
-583.850	-64.026	0.145	-0.060
-582.836	151.227	0.094	0.129
-581.821	-84.917	0.260	-0.082
-580.806	-59.222	0.136	-0.059
-579.792	-200.000	0.001	0.145
-578.777	-113.552	0.333	-0.066
-577.763	-200.000	0.066	-0.345
-576.748	-47.427	0.125	-0.061
-575.733	184.084	0.087	0.130
-574.719	88.849	-0.287	-0.322
-573.704	500.177	-0.103	-0.240
-572.690	249.264	0.115	-0.196
-571.675	-1.201	-0.038	0.027
-570.661	-62.541	-0.315	0.132
-569.646	800.000	-0.060	-0.190
-568.631	-113.460	-0.125	-0.025
-567.617	293.017	-0.094	-0.173
-566.602	234.149	-0.104	0.173
-565.588	-94.715	0.071	0.019
-564.573	-177.052	-0.087	-0.002
-563.558	-200.000	-0.021	0.309
-562.544	-30.305	0.033	-0.019
-561.529	137.804	0.030	-0.039
-560.515	-200.000	0.011	0.094
-559.500	319.473	0.111	0.212
-558.485	-200.000	-0.022	-0.175
-557.471	211.144	-0.072	0.115
-556.456	104.359	-0.130	0.154
-555.442	-200.000	-0.012	0.080
-554.427	-21.803	-0.288	0.177
-553.412	-79.086	0.027	0.009
-552.398	800.000	-0.058	0.170
-551.383	234.960	-0.278	0.463
-550.369	12.526	-0.321	-0.250
-549.354	-136.797	0.228	-0.026
-548.339	130.834	0.140	0.181
-547.325	-97.918	0.381	-0.099
-546.310	72.725	0.211	0.222
-545.296	-44.321	-0.208	0.105
-544.281	-71.727	0.228	0.086
-543.266	-200.000	-0.047	-0.280
-542.252	-118.330	-0.231	-0.041
-541.237	-102.310	0.184	0.045
-540.223	-21.878	-0.186	0.114
-539.208	217.182	0.109	0.174
-538.193	144.156	-0.094	-0.126
-537.179	25.640	-0.333	-0.279
-536.164	65.205	0.220	-0.225
-535.150	-154.448	0.230	0.016
-534.135	-200.000	-0.110	0.000
-533.121	-39.275	-0.004	-0.002
-532.106	-73.664	-0.381	-0.140
-531.091	-27.165	-0.117	-0.069
-530.077	800.000	0.101	-0.380
-529.062	-125.785	0.156	0.024
-528.048	404.129	0.001	-0.001
-527.033	-200.000	-0.004	0.179
-526.018	-153.625	-0.255	0.018
-525.004	52.688	0.223	-0.215
-523.989	-92.511	-0.034	0.010
-522.975	-200.000	-0.027	-0.166
-521.960	99.357	-0.096	-0.111
-520.945	-104.900	-0.062	0.014
-519.931	800.000	-0.077	-0.337
-518.916	24.997	0.139	-0.116
-517.902	65.737	-0.124	-0.127
-516.887	-126.846	0.120	0.018
-515.872	800.000	-0.068	-0.297
-514.858	-200.000	0.005	0.169
-513.843	52.330	-0.115	0.110
-512.829	-200.000	0.013	0.258
-511.814	429.932	-0.051	-0.111
-510.799	-136.672	0.512	0.060
-509.785	225.878	-0.079	-0.129
-508.770	800.000	0.034	-0.125
-507.756	154.842	-0.185	-0.256
-506.741	548.116	-0.135	-0.327
-505.726	-64.174	0.377	-0.155
-504.712	-200.000	-0.066	0.356
-503.697	800.000	0.090	0.339
-502.683	-200.000	-0.003	0.196
-501.668	712.622	0.058	0.155
-500.653	-200.000	-0.009	-0.052
-499.639	-200.000	-0.015	-0.161
-498.624	207.670	-0.182	-0.286
-497.610	627.307	-0.059	0.149
-496.595	-200.000	0.029	-0.201
-495.581	-104.368	0.091	0.021
-494.566	-45.202	0.241	0.120
-493.551	-123.054	-0.306	0.049
-492.537	-200.000	0.035	-0.250
-491.522	800.000	-0.088	-0.286
-490.508	-35.848	-0.172	0.094
-489.493	-94.085	0.268	-0.074
-488.478	76.152	-0.145	-0.155
-487.464	-56.724	-0.156	0.069
-486.449	-119.410	-0.430	-0.075
-485.435	169.308	0.083	-0.119
-484.420	-15.250	-0.081	-0.052
-483.405	-200.000	0.027	0.318
-482.391	245.634	-0.008	-0.014
-481.376	-60.947	0.188	0.080
-480.362	-75.338	-0.153	0.055
-479.347	33.498	-0.312	0.272
-478.332	-67.328	-0.053	-0.021
-477.318	515.854	-0.044	-0.103
-476.303	-200.000	0.006	-0.159
-475.289	34.073	-0.161	0.141
-474.274	481.170	-0.112	0.255
-473.259	44.751	0.063	0.058
-472.245	151.133	0.302	0.413
-471.230	772.245	-0.041	0.113
-470.216	302.913	0.122	0.227
-469.201	-19.024	-0.212	0.133
-468.186	497.489	-0.099	-0.228
-467.172	-116.046	0.143	-0.027
-466.157	-154.523	0.153	-0.010
-465.143	-46.875	0.303	-0.149
-464.128	60.603	0.081	-0.081
-463.113	800.000	0.072	0.229
-462.099	-35.638	0.079	-0.043
-461.084	-99.448	-0.163	0.041
-460.070	-132.260	0.141	0.018
-459.055	-79.758	0.314	0.106
-458.040	-200.000	-0.025	0.276
-457.026	-155.489	-0.303	0.020
-456.011	54.935	0.095	0.092
-454.997	-86.421	-0.277	0.086
-453.982	21.752	-0.309	0.253
-452.968	-120.781	0.269	-0.046
-451.953	-114.098	-0.123	-0.024
-450.938	-200.000	-0.042	0.228
-449.924	-200.000	0.090	0.408
-448.909	443.812	-0.140	-0.307
-447.895	-141.981	-0.199	-0.020
-446.880	218.912	0.089	-0.143
-445.865	29.949	-0.039	-0.033
-444.851	125.747	0.078	0.099
-443.836	77.840	0.071	-0.076
-442.822	-166.758	-0.205	0.008
-441.807	-200.000	0.039	0.209
-440.792	397.923	0.114	0.240
-439.778	112.678	-0.110	0.134
-438.763	-200.000	0.011	0.151
-437.749	179.943	-0.079	-0.116
-436.734	-152.298	0.265	0.019
-435.719	-4.652	-0.176	-0.122
-434.705	2.724	-0.215	-0.157
-433.690	-53.292	0.123	0.056
-432.676	257.901	0.043	0.074
-431.661	63.795	-0.094	-0.094
-430.646	-19.732	-0.106	-0.066
-429.632	-120.337	0.167	0.029
-428.617	-105.032	-0.111	-0.026
-427.603	64.831	-0.225	-0.228
-426.588	114.252	0.269	-0.329
-425.573	-66.843	0.366	0.145
-424.559	-200.000	0.004	-0.115
-423.544	800.000	-0.087	-0.289
-422.530	-107.196	-0.451	0.100
-421.515	173.927	-0.117	0.170
-420.500	-200.000	-0.031	0.190
-419.486	800.000	0.062	-0.192
-418.471	-200.000	0.037	0.262
-417.457	800.000	-0.029	0.121
-416.442	195.496	0.114	-0.173
-415.428	-200.000	-0.006	0.272
-414.413	-9.420	0.129	0.086
-413.398	-200.000	0.011	-0.275
-412.384	-43.543	-0.301	-0.152
-411.369	800.000	0.023	-0.069
-410.355	800.000	0.055	0.202
-409.340	-200.000	-0.013	0.092
-408.325	-200.000	-0.066	-0.318
-407.311	-200.000	-0.012	-0.087
-406.296	-67.226	0.290	0.115
-405.282	616.130	-0.090	-0.225
-404.267	-200.000	-0.027	0.232
-403.252	-200.000	0.026	0.174
-402.238	248.452	-0.137	-0.233
-401.223	410.975	0.146	0.310
-400.209	119.573	0.171	0.212
-399.194	761.445	-0.045	-0.122
-398.179	61.326	-0.265	-0.264
-397.165	76.315	0.065	0.069
-396.150	-200.000	0.011	-0.496
-395.136	-125.734	-0.020	0.003
-394.121	800.000	0.086	0.287
-393.106	-200.000	-0.065	0.462
-392.092	-101.491	0.339	0.083
-391.077	72.976	-0.049	0.051
-390.063	166.382	-0.101	-0.143
-389.048	-15.162	0.219	0.140
-388.033	800.000	-0.081	-0.226
-387.019	189.927	-0.098	-0.147
-386.004	9.391	0.085	0.065
-384.990	168.701	0.098	0.140
-383.975	-169.326	0.069	0.003
-382.960	140.618	-0.116	0.154
-381.946	29.671	0.195	-0.166
-380.931	699.008	0.091	0.239
-379.917	-130.501	0.237	-0.032
-378.902	-46.970	-0.123	0.060
-377.888	-129.387	0.059	-0.008
-376.873	155.092	0.166	0.229
-375.858	632.343	-0.178	-0.452
-374.844	312.497	-0.088	0.165
-373.829	-100.870	-0.181	-0.045
-372.815	-105.124	0.408	-0.093
-371.800	-200.000	-0.038	-0.356
-370.785	800.000	0.043	-0.145
-369.771	800.000	0.012	0.043
-368.756	493.340	-0.135	0.309
-367.742	175.336	0.067	-0.098
-366.727	800.000	0.005	0.014
-365.712	182.207	-0.023	-0.035
-364.698	-54.113	-0.051	0.023
-363.683	11.704	0.272	0.209
-362.669	-127.055	-0.150	0.022
-361.654	-137.852	-0.110	0.012
-360.639	-55.459	-0.204	0.092
-359.625	-25.064	0.059	-0.035
-358.610	234.162	-0.109	0.180
-357.596	-149.294	-0.150	-0.012
-356.581	-181.225	-0.205	-0.004
-355.566	-179.593	0.292	-0.006
-354.552	136.251	0.168	0.219
-353.537	-50.109	0.385	0.183
-352.523	800.000	-0.079	-0.293
-351.508	-66.638	0.207	0.082
-350.493	-103.392	0.348	-0.082
-349.479	-200.000	-0.011	0.117
-348.464	27.004	0.226	-0.190
-347.450	178.300	0.134	-0.195
-346.435	-12.204	-0.171	0.112
-345.420	-200.000	-0.004	-0.098
-344.406	47.414	-0.217	0.203
-343.391	201.687	-0.163	0.251
-342.377	37.116	-0.118	-0.104
-341.362	41.223	0.139	0.126
-340.348	-178.532	-0.068	0.002
-339.333	-25.752	-0.039	0.023
-338.318	714.185	-0.046	-0.122
-337.304	300.862	-0.032	-0.058
-336.289	-200.000	-0.019	-0.153
-335.275	100.607	0.079	-0.092
-334.260	-60.743	-0.114	-0.048
-333.245	-58.897	0.256	-0.110
-332.231	800.000	-0.001	-0.003
-331.216	-9.360	-0.102	0.068
-330.202	162.291	0.052	0.073
-329.187	-63.418	0.174	-0.072
-328.172	534.513	0.047	0.111
-327.158	123.289	-0.052	0.065
-326.143	591.899	-0.079	0.194
-325.129	473.038	-0.201	0.454
-324.114	-118.144	-0.130	0.023
-323.099	-200.000	-0.001	0.227
-322.085	3.645	-0.375	0.273
-321.070	-200.000	0.046	-0.271
-320.056	-53.261	0.095	-0.043
-319.041	114.466	0.330	-0.401
-318.026	-200.000	0.012	-0.390
-317.012	-67.623	-0.099	-0.039
-315.997	-1.711	-0.146	0.103
-314.983	-200.000	-0.031	-0.431
-313.968	-200.000	0.019	-0.279
-312.953	-35.217	-0.040	0.022
-311.939	257.250	0.046	0.079
-310.924	213.764	0.086	0.136
-309.910	-164.704	0.051	-0.002
-308.895	309.832	-0.212	0.397
-307.880	119.309	-0.231	-0.285
-306.866	-200.000	-0.026	-0.251
-305.851	-17.339	0.241	-0.151
-304.837	39.454	-0.139	0.124
-303.822	448.769	-0.137	-0.302
-302.807	-19.451	0.123	0.076
-301.793	13.958	-0.341	-0.265
-300.778	-137.059	-0.294	0.034
-299.764	-164.095	0.213	-0.010
-298.749	-124.017	0.428	-0.067
-297.735	-174.423	0.359	-0.010
-296.720	-200.000	-0.057	0.272
-295.705	800.000	-0.106	-0.450
-294.691	32.950	0.174	-0.150
-293.676	67.639	0.132	-0.135
-292.662	212.320	0.134	0.211
-291.647	-71.676	0.273	-0.102
-290.632	-4.566	0.195	0.135
-289.618	-97.491	-0.307	-0.080
-288.603	-98.300	0.271	0.069
-287.589	-200.000	0.007	0.203
-286.574	148.343	-0.090	0.122
-285.559	413.297	-0.143	0.303
-284.545	448.949	0.051	0.111
-283.530	-47.916	0.109	-0.053
-282.516	-64.114	0.347	0.141
-281.501	-111.910	0.042	-0.008
-280.486	800.000	-0.029	-0.110
-279.472	800.000	-0.024	0.085
-278.457	-200.000	-0.022	0.342
-277.443	454.812	0.115	0.254
-276.428	10.039	0.100	-0.075
-275.413	-45.598	0.225	-0.111
-274.399	433.701	0.240	0.520
-273.384	236.286	0.063	0.104
-272.370	-112.998	-0.207	-0.041
-271.355	-200.000	-0.033	-0.199
-270.340	37.668	-0.148	-0.131
-269.326	-133.505	0.064	0.008
-268.311	190.904	0.229	0.343
-267.297	127.480	-0.101	0.128
-266.282	-134.031	0.204	0.025
-265.267	-200.000	-0.002	0.104
-264.253	216.995	-0.058	0.092
-263.238	-123.189	0.239	-0.038
-262.224	-35.468	0.153	0.083
-261.209	116.764	0.090	0.110
-260.195	129.194	0.256	-0.326
-259.180	73.632	-0.089	0.093
-258.165	-200.000	0.012	0.107
-257.151	800.000	-0.091	-0.290
-256.136	-121.944	0.294	-0.048
-255.122	-133.291	-0.155	-0.020
-254.107	14.040	-0.228	0.177
-253.092	-200.000	-0.047	-0.242
-252.078	800.000	-0.040	0.115
-251.063	-82.026	0.151	0.049
-250.049	-200.000	-0.006	0.456
-249.034	800.000	-0.072	0.228
-248.019	-133.879	-0.143	-0.018
-247.005	-141.124	0.056	-0.006
-245.990	-200.000	-0.044	-0.239
-244.976	-200.000	0.034	-0.186
-243.961	116.007	0.228	0.278
-242.946	165.530	0.165	0.233
-241.932	2.215	0.028	0.020
-240.917	-17.982	0.226	0.141
-239.903	-165.109	-0.142	0.006
-238.888	-200.000	-0.463	0.001
-237.873	121.394	-0.237	0.294
-236.859	-86.402	0.331	0.101
-235.844	-65.874	0.038	-0.015
-234.830	730.963	0.101	-0.269
-233.815	-22.497	-0.339	-0.204
-232.800	800.000	0.184	0.518
-231.786	-122.259	0.344	-0.056
-230.771	-200.000	0.053	-0.469
-229.757	118.270	0.044	0.054
-228.742	-133.216	0.165	-0.021
-227.727	-86.403	0.121	-0.037
-226.713	-190.887	-0.161	-0.002
-225.698	89.640	0.067	-0.074
-224.684	-15.915	0.573	0.363
-223.669	374.277	0.075	-0.153
-222.655	-47.418	-0.382	0.185
-221.640	34.228	-0.206	-0.179
-220.625	767.736	-0.068	0.184
-219.611	31.960	0.220	-0.189
-218.596	573.572	0.116	0.280
-217.582	-200.000	-0.040	-0.221
-216.567	145.265	-0.123	0.164
-215.552	-122.865	-0.108	0.017
-214.538	-42.013	0.251	-0.128
-213.523	-170.530	0.258	0.009
-212.509	77.284	0.224	-0.237
-211.494	800.000	0.041	-0.141
-210.479	14.674	0.106	0.082
-209.465	561.921	-0.145	0.348
-208.450	22.502	0.140	-0.114
-207.436	-141.398	-0.146	-0.015
-206.421	-200.000	-0.011	0.349
-205.406	7.609	-0.255	-0.190
-204.392	-200.000	0.038	0.361
-203.377	-65.699	-0.234	-0.093
-202.363	47.035	0.123	0.114
-201.348	800.000	-0.099	0.389
-200.333	-7.073	-0.141	0.095
-199.319	39.741	-0.123	-0.109
-198.304	121.945	0.146	-0.182
-197.290	45.095	0.216	0.198
-196.275	-117.053	-0.191	0.035
-195.260	56.101	-0.141	-0.136
-194.246	800.000	0.047	0.187
-193.231	-200.000	-0.014	0.185
-192.217	-120.041	0.157	0.027
-191.202	-68.840	-0.236	-0.091
-190.187	-200.000	-0.043	0.288
-189.173	347.716	0.063	-0.123
-188.158	200.052	0.208	-0.317
-187.144	567.031	-0.075	-0.180
-186.129	-200.000	0.003	0.079
-185.114	-26.885	-0.044	0.025
-184.100	-200.000	0.043	-0.232
-183.085	627.810	-0.051	0.128
-182.071	800.000	0.089	-0.285
-181.056	96.863	0.154	0.175
-180.042	-13.187	-0.183	-0.118
-179.027	-61.643	-0.186	-0.078
-178.012	490.368	-0.065	0.148
-176.998	319.008	0.113	0.213
-175.983	800.000	-0.127	-0.448
-174.969	251.787	-0.204	-0.345
-173.954	-200.000	0.048	-0.248
-172.939	498.446	0.116	0.266
-171.925	15.169	-0.246	0.191
-170.910	-33.540	-0.029	-0.016
-169.896	-110.098	-0.379	-0.079
-168.881	117.712	-0.170	0.207
-167.866	-200.000	-0.011	-0.115
-166.852	310.752	0.112	-0.209
-165.837	-200.000	-0.008	-0.051
-164.823	-123.683	0.083	-0.013
-163.808	-83.663	-0.282	-0.089
-162.793	198.496	0.054	-0.082
-161.779	-89.657	-0.028	-0.008
-160.764	52.194	-0.089	-0.084
-159.750	142.796	-0.081	-0.107
-158.735	51.098	0.098	-0.092
-157.720	-61.041	-0.155	-0.065
-156.706	352.823	-0.152	-0.299
-155.691	800.000	-0.034	-0.130
-154.677	9.722	-0.170	0.128
-153.662	-200.000	0.023	0.110
-152.647	151.007	0.228	0.308
-151.633	-39.040	-0.045	-0.024
-150.618	95.789	0.379	-0.430
-149.604	-200.000	-0.008	-0.149
-148.589	800.000	-0.015	-0.065
-147.574	216.508	-0.082	-0.129
-146.560	192.194	0.118	-0.176
-145.545	-200.000	0.005	0.219
-144.531	-200.000	0.007	0.053
-143.516	36.257	-0.107	0.094
-142.502	-200.000	0.075	-0.355
-141.487	-183.824	-0.145	-0.002
-140.472	-128.322	0.075	-0.011
-139.458	-66.269	-0.266	-0.105
-138.443	-81.861	-0.124	-0.040
-137.429	-21.084	0.430	0.261
-136.414	48.171	0.231	-0.214
-135.399	-136.359	0.201	0.023
-134.385	-38.913	-0.254	-0.132
-133.370	-200.000	-0.047	0.414
-132.356	413.631	-0.065	0.138
-131.341	-34.343	0.221	-0.120
-130.326	-200.000	-0.054	-0.415
-129.312	24.655	-0.209	-0.172
-128.297	367.290	-0.101	0.201
-127.283	-125.032	-0.261	-0.040
-126.268	-13.263	0.216	-0.139
-125.253	174.898	-0.156	-0.224
-124.239	136.588	-0.169	-0.219
-123.224	-37.441	0.080	0.042
-122.210	143.839	-0.075	0.099
-121.195	510.225	0.034	0.078
-120.180	643.337	0.114	0.289
-119.166	42.568	0.140	-0.127
-118.151	34.153	0.122	-0.105
-117.137	280.641	-0.129	0.229
-116.122	-159.268	-0.160	-0.009
-115.107	504.861	0.114	0.261
-114.093	108.133	0.088	0.104
-113.078	-77.242	0.347	0.120
-112.064	765.437	0.055	-0.148
-111.049	0.705	0.246	-0.174
-110.034	-0.102	0.055	-0.039
-109.020	-96.142	0.197	-0.052
-108.005	-200.000	-0.058	0.361
-106.991	181.175	-0.088	-0.129
-105.976	800.000	0.059	0.216
-104.962	365.731	0.090	0.180
-103.947	-200.000	-0.008	-0.234
-102.932	-200.000	0.018	-0.265
-101.918	99.381	-0.074	-0.085
-100.903	800.000	0.057	0.162
-99.889	-165.656	0.262	-0.011
-98.874	-200.000	-0.037	-0.188
-97.859	-200.000	0.047	-0.271
-96.845	-62.322	-0.127	0.052
-95.830	-128.272	-0.081	-0.011
-94.816	113.693	-0.095	0.114
-93.801	332.424	0.046	0.088
-92.786	-46.013	-0.213	0.104
-91.772	800.000	-0.091	-0.283
-90.757	800.000	-0.080	0.334
-89.743	-200.000	-0.011	0.450
-88.728	-200.000	-0.042	-0.228
-87.713	-65.000	-0.256	-0.102
-86.699	178.680	0.087	-0.126
-85.684	-189.391	-0.156	0.002
-84.670	-36.014	0.037	0.020
-83.655	258.409	-0.156	-0.266
-82.640	31.812	0.224	-0.191
-81.626	800.000	-0.040	-0.137
-80.611	100.490	0.105	-0.121
-79.597	-200.000	-0.003	0.179
-78.582	-12.060	0.201	-0.130
-77.567	211.340	0.207	-0.322
-76.553	-51.877	0.210	0.096
-75.538	-129.024	-0.237	-0.033
-74.524	800.000	0.043	0.123
-73.509	-88.917	-0.156	-0.046
-72.494	168.629	0.148	0.209
-71.480	231.304	0.022	0.036
-70.465	89.279	-0.213	-0.235
-69.451	64.945	-0.264	0.263
-68.436	-200.000	-0.024	-0.204
-67.422	800.000	0.059	0.213
-66.407	-80.863	-0.166	-0.055
-65.392	-7.325	0.196	-0.131
-64.378	69.184	0.056	-0.057
-63.363	-46.109	0.057	0.028
-62.349	-200.000	-0.019	0.092
-61.334	27.936	-0.921	-0.768
-60.319	37.793	0.520	0.457
-59.305	800.000	-0.244	-0.866
-58.290	-200.000	0.139	1.200
-57.276	339.903	0.796	1.536
-56.261	-200.000	97.478	573.957
-55.246	626.616	1403.144	3502.297
-54.232	186.079	2610.215	3838.368
-53.217	120.966	2185.408	2688.155
-52.203	46.076	1634.224	1496.013
-51.188	37.706	1368.398	1201.274
-50.173	34.402	1325.953	1144.178
-49.159	56.385	1374.621	1320.918
-48.144	60.154	1392.521	1361.043
-47.130	38.087	1346.861	1184.491
-46.115	34.426	1329.249	1146.985
-45.100	34.175	1324.776	1141.577
-44.086	34.161	1322.246	1139.265
-43.071	34.100	1320.230	1137.120
-42.057	34.038	1317.706	1134.532
-41.042	34.109	1316.379	1133.763
-40.027	34.072	1315.037	1132.345
-39.013	34.122	1313.126	1130.950
-37.998	34.188	1310.952	1129.427
-36.984	34.275	1309.358	1128.523
-35.969	34.189	1307.726	1126.562
-34.954	34.239	1305.756	1125.117
-33.940	34.307	1304.315	1124.230
-32.925	34.205	1303.283	1122.698
-31.911	34.352	1301.699	1122.151
-30.896	34.454	1299.996	1121.238
-29.881	34.342	1298.666	1119.386
-28.867	34.311	1297.637	1118.274
-27.852	34.319	1296.018	1116.881
-26.838	34.382	1294.158	1115.608
-25.823	34.264	1293.419	1114.233
-24.809	34.322	1291.876	1113.198
-23.794	34.412	1290.278	1112.301
-22.779	34.363	1288.692	1110.607
-21.765	34.301	1287.566	1109.229
-20.750	34.293	1286.743	1108.434
-19.736	34.200	1285.600	1106.862
-18.721	34.195	1284.366	1105.724
-17.706	34.306	1282.670	1104.866
-16.692	34.138	1281.790	1103.089
-15.677	34.228	1280.896	1102.796
-14.663	34.262	1279.395	1101.657
-13.648	34.228	1278.419	1100.582
-12.633	34.181	1277.246	1099.252
-11.619	34.179	1276.951	1098.944
-10.604	34.257	1275.609	1098.195
-9.590	34.177	1274.745	1096.949
-8.575	34.152	1273.779	1095.932
-7.560	34.138	1272.911	1095.056
-6.546	34.243	1272.009	1094.843
-5.531	34.224	1271.108	1093.913
-4.517	34.184	1270.244	1092.898
-3.502	34.137	1269.966	1092.346
-2.487	34.155	1268.335	1091.002
-1.473	34.197	1264.470	1087.876
-0.458	32.882	1249.561	1067.574
0.556	27.902	1231.229	1026.728
1.571	24.054	1235.790	1008.683
2.586	22.814	1251.625	1014.396
3.600	22.014	1240.618	1000.828
4.615	17.069	1168.401	915.875
5.629	8.996	1092.988	815.783
6.644	5.326	1072.464	782.053
7.659	4.992	1069.693	778.298
8.673	5.003	1068.580	777.473
9.688	4.810	1067.615	775.738
10.702	5.177	1065.648	776.066
11.717	10.050	1072.790	805.538
12.731	17.282	1083.022	849.411
13.746	19.367	1084.285	860.745
14.761	18.124	1082.530	853.078
15.775	17.065	1080.123	845.832
16.790	15.976	1077.820	838.534
17.804	15.281	1076.365	833.872
18.819	14.844	1075.402	830.879
19.834	14.642	1074.339	828.985
20.848	14.411	1073.633	827.217
21.863	14.101	1073.265	825.324
22.877	14.007	1072.075	823.868
23.892	13.967	1071.534	823.184
24.907	13.939	1070.728	822.349
25.921	14.026	1069.391	821.681
26.936	14.065	1068.296	820.959
27.950	14.186	1066.779	820.317
28.965	14.096	1065.455	818.783
29.980	14.239	1063.602	817.991
30.994	14.367	1062.422	817.640
32.009	14.344	1061.533	816.772
33.023	14.227	1060.717	815.495
34.038	14.227	1059.394	814.406
35.053	14.141	1058.882	813.521
36.067	14.190	1057.440	812.583
37.082	14.111	1056.859	811.677
38.096	14.120	1056.192	811.139
39.111	14.215	1055.483	810.984
40.126	14.145	1054.135	809.533
41.140	14.107	1052.588	808.093
42.155	13.968	1051.256	806.323
43.169	13.959	1050.624	805.721
44.184	13.883	1049.855	804.696
45.199	13.934	1048.756	804.029
46.213	14.080	1047.112	803.400
47.228	14.119	1046.045	802.699
48.242	14.090	1045.647	802.182
49.257	14.006	1044.597	800.904
50.271	14.174	1043.539	800.827
51.286	14.226	1042.506	800.217
52.301	14.195	1041.434	799.172
53.315	13.999	1040.934	797.775
54.330	14.022	1039.567	796.769
55.344	14.002	1038.961	796.138
56.359	14.111	1037.536	795.496
57.374	14.128	1037.024	795.116
58.388	13.991	1036.129	793.707
59.403	13.857	1035.547	792.547
60.417	13.953	1034.238	791.937
61.432	13.863	1033.817	791.115
62.447	13.943	1032.577	790.477
63.461	13.810	1032.117	789.420
64.476	13.733	1031.250	788.320
65.490	13.858	1029.889	787.805
66.505	14.003	1029.365	788.022
67.520	13.985	1028.696	787.353
68.534	13.990	1027.940	786.731
69.549	13.821	1027.524	785.544
70.563	13.808	1026.813	784.867
71.578	13.800	1025.772	783.963
72.593	13.731	1024.789	782.819
73.607	13.839	1024.048	782.692
74.622	13.772	1023.812	782.128
75.636	13.799	1022.644	781.292
76.651	13.821	1021.787	780.675
77.666	13.689	1021.447	779.722
78.680	13.806	1020.770	779.685
79.695	13.969	1019.998	779.794
80.709	13.965	1019.015	778.956
81.724	13.960	1018.685	778.611
82.739	13.936	1018.214	778.066
83.753	14.230	1017.740	779.012
84.768	14.169	1016.923	778.033
85.782	14.210	1015.927	777.394
86.797	14.321	1014.804	776.983
87.812	14.220	1013.916	775.765
88.826	14.099	1013.305	774.663
89.841	14.209	1012.153	774.227
90.855	14.220	1011.027	773.347
91.870	14.288	1010.536	773.223
92.884	14.341	1008.921	772.163
93.899	14.267	1008.482	771.414
94.914	14.359	1008.024	771.422
95.928	14.401	1006.731	770.557
96.943	14.275	1006.469	769.708
97.957	14.182	1005.173	768.218
98.972	14.245	1004.329	767.796
99.987	14.201	1003.581	766.954
101.001	14.250	1002.507	766.289
102.016	14.296	1001.444	765.624
103.030	14.298	1000.820	765.088
104.045	14.275	999.880	764.193
105.060	14.220	999.327	763.454
106.074	14.019	998.306	761.683
107.089	13.914	997.212	760.303
108.103	13.938	996.325	759.668
109.118	13.955	995.246	758.856
110.133	14.002	994.517	758.449
111.147	14.008	993.469	757.606
112.162	14.026	992.673	757.014
113.176	14.036	992.034	756.509
114.191	14.199	991.356	756.665
115.206	13.959	990.564	754.905
116.220	14.091	989.724	754.796
117.235	14.116	988.894	754.207
118.249	14.017	987.764	752.830
119.264	13.935	987.112	751.896
120.279	14.105	985.955	751.718
121.293	14.013	985.599	750.962
122.308	13.915	984.810	749.854
123.322	14.013	983.042	748.883
124.337	14.110	981.802	748.309
125.352	13.998	981.213	747.291
126.366	13.973	980.274	746.398
127.381	14.054	979.087	745.792
128.395	14.064	978.891	745.619
129.410	14.160	977.423	744.867
130.424	14.031	977.059	743.944
131.439	14.078	976.144	743.393
132.454	14.105	975.634	743.058
133.468	14.130	974.841	742.499
134.483	14.096	974.193	741.791
135.497	14.168	972.977	741.121
136.512	14.030	972.298	739.924
137.527	14.082	971.241	739.281
138.541	14.152	970.332	738.839
139.556	14.196	969.866	738.611
140.570	14.300	968.703	738.122
141.585	14.427	968.126	738.178
142.600	14.408	967.076	737.230
143.614	14.331	966.842	736.645
144.629	14.360	965.503	735.690
145.643	14.387	964.696	735.127
146.658	14.329	963.790	734.114
147.673	14.255	963.092	733.194
148.687	14.314	961.904	732.482
149.702	14.221	961.056	731.362
150.716	14.259	960.238	730.845
151.731	14.244	959.701	730.306
152.746	14.284	959.247	730.069
153.760	14.290	958.618	729.552
154.775	14.368	958.165	729.484
155.789	14.459	957.259	729.130
156.804	14.313	956.749	728.040
157.819	14.460	955.864	727.941
158.833	14.465	955.741	727.808
159.848	14.538	954.430	727.063
160.862	14.312	953.724	725.475
161.877	14.303	952.405	724.370
162.892	14.238	951.202	723.107
163.906	14.249	950.200	722.330
164.921	14.187	949.782	721.680
165.935	14.294	949.085	721.548
166.950	14.352	948.065	720.960
167.964	14.446	947.033	720.518
168.979	14.409	946.526	719.908
169.994	14.413	945.597	719.156
171.008	14.468	944.681	718.632
172.023	14.563	943.681	718.216
173.037	14.508	943.411	717.710
174.052	14.367	942.571	716.404
175.067	14.342	941.978	715.782
176.081	14.375	941.808	715.729
177.096	14.425	940.761	715.088
178.110	14.358	940.407	714.465
179.125	14.263	939.766	713.508
180.140	14.514	938.971	713.919
181.154	14.487	938.813	713.620
182.169	14.659	938.318	713.914
183.183	14.548	937.931	713.084
184.198	14.710	936.378	712.528
185.213	14.744	935.584	712.007
186.227	14.761	935.223	711.740
187.242	14.671	934.927	711.070
188.256	14.935	934.093	711.495
189.271	14.783	933.245	710.140
190.286	14.635	932.380	708.794
191.300	14.469	931.683	707.494
192.315	14.341	931.190	706.513
193.329	14.304	930.841	706.031
194.344	14.557	929.902	706.327
195.359	14.573	929.215	705.811
196.373	14.768	928.740	706.214
197.388	14.793	928.471	706.052
198.402	14.956	928.079	706.380
199.417	14.938	927.296	705.642
200.432	14.992	926.913	705.518
201.446	14.973	926.477	705.042
202.461	14.977	925.824	704.504
203.475	14.835	925.516	703.608
204.490	14.893	924.362	702.913
205.504	14.911	923.421	702.211
206.519	14.816	923.148	701.539
207.534	14.824	922.114	700.728
208.548	14.848	921.459	700.268
209.563	14.772	921.112	699.625
210.577	14.904	920.153	699.387
211.592	14.995	919.445	699.165
212.607	15.241	918.405	699.338
213.621	15.080	917.822	698.161
214.636	14.975	917.733	697.593
215.650	15.150	916.340	697.204
216.665	15.242	915.773	697.091
217.680	15.083	915.316	696.020
218.694	15.217	914.289	695.734
219.709	15.113	914.259	695.219
220.723	15.234	913.407	695.011
221.738	15.020	912.767	693.574
222.753	15.146	912.153	693.572
223.767	15.250	911.428	693.389
224.782	15.236	911.087	693.011
225.796	15.305	910.237	692.586
226.811	15.274	909.845	692.099
227.826	15.132	909.492	691.183
228.840	15.119	908.371	690.216
229.855	15.221	907.504	689.914
230.869	15.197	906.490	688.986
231.884	15.215	905.654	688.362
232.899	15.172	905.511	688.017
233.913	15.154	904.698	687.264
234.928	15.082	904.031	686.401
235.942	15.161	903.317	686.125
236.957	15.281	902.830	686.182
237.972	15.223	901.908	685.183
238.986	15.278	901.399	684.961
240.001	15.171	900.969	684.138
241.015	15.338	899.935	683.974
242.030	15.247	899.802	683.441
243.045	15.383	899.378	683.611
244.059	15.331	898.603	682.751
245.074	15.256	898.331	682.179
246.088	15.298	897.638	681.763
247.103	15.415	896.716	681.479
248.117	15.517	896.240	681.469
249.132	15.725	895.661	681.811
250.147	15.794	895.002	681.529
251.161	15.743	894.420	680.819
252.176	15.753	893.668	680.229
253.190	15.874	892.938	680.100
254.205	15.857	892.084	679.323
255.220	15.822	891.830	678.926
256.234	15.889	890.956	678.471
257.249	15.984	890.149	678.179
258.263	15.854	889.738	677.282
259.278	15.754	889.124	676.355
260.293	15.855	888.838	676.484
261.307	15.893	887.856	675.829
262.322	15.945	887.394	675.624
263.336	15.984	886.720	675.209
264.351	16.064	885.824	674.786
265.366	16.074	885.392	674.436
266.380	15.928	884.569	673.167
267.395	15.838	884.247	672.503
268.409	16.010	883.289	672.401
269.424	15.849	882.700	671.253
270.439	16.022	881.696	671.116
271.453	15.823	881.437	670.069
272.468	15.900	880.766	669.806
273.482	15.931	880.411	669.599
274.497	15.937	879.804	669.105
275.512	15.849	879.048	668.119
276.526	16.139	878.411	668.728
277.541	16.060	877.966	668.017
278.555	16.097	877.325	667.616
279.570	16.251	876.785	667.756
280.585	16.136	875.548	666.298
281.599	16.190	874.848	665.921
282.614	16.181	874.354	665.451
283.628	16.102	873.842	664.691
284.643	16.043	873.502	664.139
285.657	16.232	872.773	664.269
286.672	16.181	872.116	663.512
287.687	16.249	871.299	663.098
288.701	16.291	870.369	662.499
289.716	16.393	870.056	662.601
290.730	16.155	869.739	661.369
291.745	16.267	869.179	661.320
292.760	16.286	869.106	661.282
293.774	16.325	868.013	660.546
294.789	16.274	867.345	659.779
295.803	16.416	866.300	659.478
296.818	16.285	866.085	658.745
297.833	16.292	865.505	658.275
298.847	16.397	864.549	657.897
299.862	16.446	864.436	657.943
300.876	16.486	863.438	657.281
301.891	16.511	862.951	656.949
302.906	16.566	862.442	656.718
303.920	16.505	862.068	656.139
304.935	16.586	861.517	655.975
305.949	16.560	860.762	655.242
306.964	16.636	859.873	654.800
307.979	16.478	859.625	653.941
308.993	16.583	859.246	654.004
310.008	16.554	858.557	653.306
311.022	16.637	857.745	652.953
312.037	16.567	857.486	652.427
313.052	16.470	856.484	651.233
314.066	16.468	855.993	650.795
315.081	16.540	855.459	650.606
316.095	16.679	854.632	650.458
317.110	16.557	854.275	649.657
318.125	16.664	853.749	649.610
319.139	16.585	853.030	648.706
320.154	16.621	853.034	648.786
321.168	16.568	852.210	647.900
322.183	16.673	851.567	647.755
323.197	16.518	851.321	646.920
324.212	16.587	851.072	646.938
325.227	16.718	850.027	646.583
326.241	16.682	849.222	645.778
327.256	16.616	848.558	644.966
328.270	16.598	848.632	644.897
329.285	16.646	847.657	644.279
330.300	16.630	847.377	643.948
331.314	16.685	846.867	643.715
332.329	16.742	846.247	643.403
333.343	16.722	845.959	643.050
334.358	16.811	845.380	642.889
335.373	16.616	845.326	642.055
336.387	16.840	844.710	642.378
337.402	16.939	844.421	642.475
338.416	16.804	844.546	642.002
339.431	16.934	843.828	641.892
340.446	16.989	843.604	641.873
341.460	16.980	843.489	641.694
342.475	17.045	842.537	641.160
343.489	17.217	842.169	641.473
344.504	17.136	841.637	640.703
345.519	17.226	840.875	640.405
346.533	17.075	840.796	639.722
347.548	17.073	839.879	638.959
348.562	17.300	838.969	639.062
349.577	16.939	838.711	637.452
350.592	17.052	838.111	637.365
351.606	17.106	837.178	636.802
352.621	16.901	837.112	635.928
353.635	17.080	836.503	636.078
354.650	17.012	835.904	635.311
355.665	17.137	835.177	635.173
356.679	17.183	834.492	634.768
357.694	17.102	833.821	633.899
358.708	17.184	833.243	633.708
359.723	17.066	832.532	632.672
360.738	17.178	832.220	632.794
361.752	17.235	831.615	632.492
362.767	17.374	831.061	632.532
363.781	17.332	830.721	632.060
364.796	17.386	830.239	631.840
365.810	17.530	829.752	631.947
366.825	17.498	829.686	631.722
367.840	17.463	828.537	630.662
368.854	17.434	828.308	630.324
369.869	17.576	827.783	630.392
370.883	17.457	827.128	629.398
371.898	17.353	827.443	629.199
372.913	17.490	826.754	629.124
373.927	17.471	825.845	628.305
374.942	17.539	825.638	628.345
375.956	17.610	825.605	628.526
376.971	17.737	824.821	628.343
377.986	17.654	824.407	627.664
379.000	17.609	823.940	627.089
380.015	17.834	823.297	627.372
381.029	17.892	822.626	627.016
382.044	17.884	821.929	626.400
383.059	17.801	821.470	625.692
384.073	17.876	820.913	625.486
385.088	17.863	820.260	624.886
386.102	17.752	819.833	624.098
387.117	17.568	819.623	623.209
388.132	17.587	818.819	622.612
389.146	17.626	818.397	622.381
390.161	17.685	818.003	622.240
391.175	17.813	817.467	622.244
392.190	17.793	816.610	621.466
393.205	17.655	816.327	620.693
394.219	17.805	815.899	620.858
395.234	17.657	815.586	620.026
396.248	17.669	815.025	619.589
397.263	17.638	814.527	619.043
398.278	17.653	814.073	618.698
399.292	17.778	813.700	618.811
400.307	17.668	813.397	618.128
401.321	17.801	812.807	618.108
402.336	17.895	812.497	618.157
403.350	17.793	811.938	617.307
404.365	17.958	811.462	617.487
405.380	18.014	810.928	617.229
406.394	18.077	810.604	617.155
407.409	18.143	810.259	617.077
408.423	18.102	810.091	616.745
409.438	18.100	809.432	616.181
410.453	18.362	809.054	616.782
411.467	18.196	808.571	615.764
412.482	18.297	808.114	615.726
413.496	18.330	807.766	615.523
414.511	18.200	807.839	615.056
415.526	18.231	806.888	614.392
416.540	18.239	806.748	614.258
417.555	18.237	806.102	613.706
418.569	18.238	805.678	613.332
419.584	18.318	804.956	613.013
420.599	18.389	804.714	613.030
421.613	153.893	1370.014	1790.933
422.628	133.514	1452.379	1791.048
