DTS Sentinel unit serial number:	SN413079Multiplexer serial number:	ORYXHardware model number:	OX4-SRSoftware version number:	ORYX F/W v4.00 Oryx Data Collector v3.7.2.0data status	okinstallation	princeton_trtdifferential loss correction	single-endedforward channel	channel 1reverse channel	N/Adate	2019/09/10time	19:36:11forward acquisition time	60.00reverse acquisition time	0.00gamma	496.2192k internal	0.2321k external	0.2321temperature offset calibration	0.9928default loss term (dB/km)	0.3790temperature slope calibration	1.0000multiplexer offset coefficient	1.0000multiplexer slope coefficient	1.0000fibre end	0.00T internal ref (°C)	33.31T ext. ref 1 (°C)	-0.34T ext. ref 2 (°C)	26.09length (m)	temperature (°C)	Stokes	anti-Stokes-747.200	-200.000	0.016	0.127
-746.185	-200.000	0.015	0.232
-745.171	-200.000	0.001	0.143
-744.156	-200.000	0.015	0.446
-743.142	622.919	-0.038	-0.098
-742.127	-106.702	0.177	0.040
-741.112	87.241	-0.078	0.087
-740.098	199.150	-0.212	0.328
-739.083	-157.285	-0.231	0.014
-738.069	-92.321	-0.155	-0.044
-737.054	362.648	0.093	0.190
-736.039	-59.463	-0.323	0.140
-735.025	-200.000	0.039	-0.267
-734.010	800.000	0.073	-0.223
-732.996	347.518	-0.087	-0.172
-731.981	154.496	0.107	-0.148
-730.966	412.675	0.060	-0.129
-729.952	105.079	-0.114	-0.136
-728.937	-200.000	0.037	-0.201
-727.923	800.000	0.007	0.025
-726.908	-117.157	0.223	-0.041
-725.894	428.163	-0.171	0.373
-724.879	-200.000	0.012	0.097
-723.864	309.219	0.150	-0.284
-722.850	63.971	0.175	0.177
-721.835	-98.909	-0.262	0.067
-720.821	800.000	0.093	-0.390
-719.806	-200.000	0.010	-0.152
-718.791	-106.361	0.211	0.048
-717.777	46.518	-0.219	-0.205
-716.762	116.507	-0.065	-0.080
-715.748	-41.786	-0.204	0.106
-714.733	394.806	-0.192	-0.405
-713.718	-123.853	-0.183	-0.029
-712.704	-200.000	0.008	-0.154
-711.689	9.759	0.048	0.037
-710.675	-200.000	0.047	-0.274
-709.660	-20.233	-0.346	-0.215
-708.645	-6.881	0.410	0.281
-707.631	20.441	-0.157	-0.128
-706.616	-200.000	-0.065	-0.302
-705.602	-90.919	0.334	0.097
-704.587	-68.450	-0.230	0.090
-703.572	-43.386	-0.152	-0.078
-702.558	443.170	0.172	0.380
-701.543	241.542	-0.223	-0.376
-700.529	101.278	0.149	-0.175
-699.514	-200.000	-0.009	-0.084
-698.499	-126.097	-0.187	0.028
-697.485	-200.000	0.393	-0.001
-696.470	-132.029	0.180	-0.024
-695.456	-127.524	-0.386	-0.057
-694.441	300.571	-0.079	-0.147
-693.426	-126.974	0.167	-0.025
-692.412	759.007	0.035	-0.097
-691.397	800.000	0.025	-0.095
-690.383	-200.000	-0.051	-0.274
-689.368	-106.591	-0.263	-0.059
-688.354	-162.666	0.166	0.008
-687.339	-160.417	0.256	0.014
-686.324	185.405	0.135	0.202
-685.310	-200.000	-0.010	-0.296
-684.295	213.052	-0.210	0.334
-683.281	-88.690	0.165	-0.049
-682.266	-200.000	0.021	-0.267
-681.251	148.884	0.249	0.340
-680.237	-30.618	-0.419	-0.239
-679.222	-80.359	0.094	-0.032
-678.208	19.261	0.215	0.174
-677.193	41.360	-0.051	-0.046
-676.178	-27.856	0.190	0.111
-675.164	-200.000	0.033	0.242
-674.149	593.470	0.068	-0.169
-673.135	124.412	-0.247	-0.314
-672.120	-58.673	0.177	-0.077
-671.105	-58.396	0.204	-0.089
-670.091	800.000	0.030	-0.120
-669.076	800.000	-0.063	-0.259
-668.062	-200.000	-0.008	-0.125
-667.047	-200.000	0.015	-0.101
-666.032	116.859	0.227	0.281
-665.018	104.188	0.045	0.054
-664.003	-67.483	-0.179	-0.071
-662.989	-39.513	0.111	-0.059
-661.974	252.453	-0.156	-0.268
-660.959	48.724	-0.424	0.400
-659.945	386.209	0.096	-0.200
-658.930	-150.334	-0.071	0.006
-657.916	146.960	0.119	0.161
-656.901	-200.000	-0.157	0.000
-655.886	-27.921	0.158	0.092
-654.872	800.000	-0.053	0.170
-653.857	-200.000	0.002	0.321
-652.843	-21.489	-0.062	-0.038
-651.828	-200.000	0.024	-0.109
-650.814	-200.000	-0.005	-0.153
-649.799	-54.593	-0.221	-0.101
-648.784	336.808	-0.171	0.334
-647.770	629.331	0.065	-0.165
-646.755	-146.999	0.153	0.013
-645.741	-33.876	-0.284	0.158
-644.726	-200.000	-0.005	0.265
-643.711	-58.877	-0.186	0.081
-642.697	137.452	0.074	0.098
-641.682	800.000	-0.029	0.090
-640.668	-200.000	0.071	-0.476
-639.653	-200.000	0.073	-0.371
-638.638	88.459	0.249	0.279
-637.624	681.059	-0.085	-0.223
-636.609	293.953	0.181	-0.333
-635.595	492.460	-0.111	-0.255
-634.580	71.794	-0.168	0.175
-633.565	628.857	-0.069	-0.175
-632.551	138.076	0.025	0.033
-631.536	134.309	-0.068	0.089
-630.522	272.606	-0.269	-0.477
-629.507	-127.989	-0.464	0.067
-628.492	-10.958	0.087	0.058
-627.478	193.129	-0.254	-0.386
-626.463	-23.978	-0.158	-0.095
-625.449	-200.000	-0.009	-0.065
-624.434	389.798	-0.038	0.080
-623.419	-58.094	0.118	0.052
-622.405	20.306	0.199	-0.162
-621.390	568.986	-0.115	0.282
-620.376	-200.000	-0.002	0.223
-619.361	-22.762	0.092	0.056
-618.346	-200.000	0.020	-0.332
-617.332	144.879	-0.084	-0.114
-616.317	-110.651	0.019	-0.004
-615.303	-57.930	0.091	0.040
-614.288	-123.924	-0.135	0.021
-613.273	-170.977	-0.244	0.008
-612.259	800.000	-0.033	-0.093
-611.244	190.532	-0.054	0.082
-610.230	800.000	0.021	-0.074
-609.215	-200.000	0.002	0.330
-608.201	67.357	-0.120	-0.123
-607.186	-124.800	-0.260	-0.040
-606.171	-91.011	0.113	-0.033
-605.157	-200.000	-0.007	-0.350
-604.142	220.884	0.236	-0.381
-603.128	505.006	-0.175	-0.407
-602.113	-200.000	-0.040	0.427
-601.098	-9.893	0.277	-0.185
-600.084	-200.000	0.047	-0.254
-599.069	-126.569	-0.188	0.028
-598.055	-169.096	-0.107	-0.004
-597.040	239.968	0.223	0.374
-596.025	61.976	0.184	-0.184
-595.011	-54.334	0.232	0.106
-593.996	-200.000	-0.009	0.198
-592.982	-117.526	-0.130	-0.024
-591.967	-107.011	0.245	0.054
-590.952	-150.456	-0.397	0.031
-589.938	-121.147	-0.259	0.044
-588.923	-67.986	-0.153	-0.060
-587.909	42.441	-0.190	0.174
-586.894	-161.485	-0.426	0.022
-585.879	357.162	-0.161	0.322
-584.865	800.000	0.036	-0.113
-583.850	-200.000	0.029	-0.245
-582.836	-58.792	0.182	0.079
-581.821	-200.000	0.033	-0.352
-580.806	800.000	0.070	-0.221
-579.792	493.985	0.148	0.340
-578.777	508.265	-0.175	-0.409
-577.763	-200.000	0.020	-0.172
-576.748	24.545	0.232	-0.193
-575.733	293.507	-0.259	-0.475
-574.719	88.732	-0.224	-0.251
-573.704	-200.000	-0.013	-0.078
-572.690	800.000	0.036	-0.121
-571.675	716.643	-0.044	-0.118
-570.661	170.451	0.135	0.193
-569.646	-200.000	-0.001	0.098
-568.631	-2.208	0.189	-0.133
-567.617	-200.000	0.006	-0.066
-566.602	3.723	0.221	0.162
-565.588	431.218	0.181	0.394
-564.573	75.092	-0.020	-0.022
-563.558	60.504	0.192	-0.191
-562.544	117.760	-0.280	-0.346
-561.529	-120.632	0.053	-0.009
-560.515	-86.245	0.208	-0.064
-559.500	-130.009	-0.206	-0.028
-558.485	25.041	-0.227	0.189
-557.471	208.901	-0.089	0.140
-556.456	-81.537	0.184	-0.061
-555.442	220.534	-0.049	0.078
-554.427	56.788	0.141	0.138
-553.412	-68.447	-0.163	0.064
-552.398	800.000	-0.028	-0.106
-551.383	-44.079	-0.191	-0.096
-550.369	-89.649	-0.166	-0.049
-549.354	-93.573	-0.317	0.088
-548.339	237.133	-0.090	-0.150
-547.325	436.995	0.040	0.087
-546.310	560.847	-0.115	-0.280
-545.296	-79.268	-0.238	0.081
-544.281	-200.000	0.034	-0.211
-543.266	-200.000	0.041	0.224
-542.252	-79.605	-0.177	0.060
-541.237	732.500	-0.025	-0.067
-540.223	-76.658	0.129	0.045
-539.208	-167.135	0.161	0.007
-538.193	-200.000	0.014	-0.165
-537.179	-200.000	-0.028	0.258
-536.164	-0.406	-0.164	0.117
-535.150	-139.670	0.171	-0.018
-534.135	800.000	0.063	0.257
-533.121	50.695	-0.200	0.190
-532.106	800.000	-0.156	-0.520
-531.091	453.546	0.054	-0.121
-530.077	-200.000	0.070	-0.322
-529.062	-96.416	0.086	0.023
-528.048	-144.044	0.213	-0.020
-527.033	181.462	-0.053	-0.078
-526.018	-142.760	-0.165	-0.016
-525.004	800.000	-0.055	-0.237
-523.989	-59.877	0.157	0.067
-522.975	-21.854	-0.069	-0.042
-521.960	-6.337	-0.240	-0.164
-520.945	-199.626	-0.225	-0.001
-519.931	-81.341	0.300	0.099
-518.916	-121.349	-0.078	0.013
-517.902	111.975	0.103	-0.125
-516.887	581.325	0.035	-0.086
-515.872	-137.072	-0.050	-0.006
-514.858	-200.000	-0.017	-0.289
-513.843	-55.645	0.127	0.057
-512.829	37.822	-0.093	0.083
-511.814	158.936	-0.156	-0.217
-510.799	-160.587	-0.289	-0.015
-509.785	39.161	-0.218	0.195
-508.770	20.454	0.197	-0.160
-507.756	-17.366	0.195	0.123
-506.741	-200.000	-0.068	0.370
-505.726	-200.000	-0.011	-0.095
-504.712	124.911	0.034	0.043
-503.697	207.017	-0.055	-0.086
-502.683	-94.304	0.066	0.018
-501.668	306.991	-0.137	0.255
-500.653	-61.874	0.454	0.190
-499.639	-118.511	0.248	-0.044
-498.624	156.483	0.240	-0.331
-497.610	10.374	0.165	0.126
-496.595	28.333	-0.348	0.295
-495.581	-127.320	0.317	-0.046
-494.566	25.492	0.072	0.060
-493.551	-111.972	-0.101	-0.020
-492.537	9.928	0.124	-0.094
-491.522	-12.055	-0.164	0.107
-490.508	15.744	-0.135	0.106
-489.493	-16.851	0.185	0.117
-488.478	-99.606	0.115	0.029
-487.464	-200.000	-0.008	-0.178
-486.449	121.331	-0.091	0.114
-485.435	-103.372	-0.115	0.027
-484.420	77.131	0.091	-0.097
-483.405	319.195	0.107	-0.203
-482.391	-21.932	0.045	-0.027
-481.376	194.060	-0.106	0.161
-480.362	-30.586	-0.176	-0.099
-479.347	102.948	0.215	-0.251
-478.332	94.665	-0.119	0.136
-477.318	-87.641	0.176	0.053
-476.303	73.246	0.211	0.220
-475.289	420.637	0.093	-0.199
-474.274	-25.735	-0.084	-0.050
-473.259	800.000	-0.009	-0.032
-472.245	-58.777	-0.380	-0.164
-471.230	-100.367	-0.269	0.067
-470.216	-200.000	-0.024	-0.507
-469.201	-46.623	0.102	0.050
-468.186	306.604	0.184	0.342
-467.172	106.287	0.100	-0.119
-466.157	800.000	-0.117	0.357
-465.143	218.035	-0.156	0.249
-464.128	190.210	0.045	0.068
-463.113	267.688	0.055	0.096
-462.099	-30.643	0.458	-0.259
-461.084	-78.060	-0.314	0.108
-460.070	800.000	0.050	0.161
-459.055	-45.949	-0.173	-0.085
-458.040	53.386	0.038	0.036
-457.026	-168.323	0.313	0.012
-456.011	62.236	-0.067	-0.067
-454.997	-81.514	-0.523	0.172
-453.982	-155.961	0.128	-0.008
-452.968	-79.823	0.252	0.085
-451.953	-28.030	-0.191	0.111
-450.938	21.477	0.340	0.276
-449.924	-27.642	0.377	0.219
-448.909	800.000	0.086	0.306
-447.895	800.000	0.037	-0.133
-446.880	219.002	0.249	-0.398
-445.865	-116.157	0.146	0.027
-444.851	800.000	0.070	0.214
-443.836	800.000	0.076	0.310
-442.822	-200.000	0.012	-0.058
-441.807	109.842	0.202	-0.242
-440.792	233.877	-0.196	0.322
-439.778	800.000	0.020	0.073
-438.763	-200.000	-0.012	-0.290
-437.749	-99.180	0.049	-0.012
-436.734	-70.583	0.312	0.118
-435.719	-135.470	0.267	-0.032
-434.705	-89.056	-0.286	0.084
-433.690	132.653	-0.095	-0.122
-432.676	156.771	0.041	-0.056
-431.661	-4.845	0.342	-0.235
-430.646	356.053	-0.141	0.280
-429.632	337.390	-0.040	0.077
-428.617	-135.754	-0.395	0.047
-427.603	800.000	0.078	-0.219
-426.588	44.365	0.196	-0.180
-425.573	-88.200	-0.303	0.091
-424.559	-82.085	0.495	-0.161
-423.544	-200.000	-0.014	0.134
-422.530	-97.017	0.134	-0.035
-421.515	34.174	0.089	-0.078
-420.500	-20.986	-0.160	0.097
-419.486	-200.000	-0.019	0.173
-418.471	407.284	0.116	0.245
-417.457	800.000	-0.015	-0.051
-416.442	-200.000	-0.023	-0.184
-415.428	-117.216	0.212	0.038
-414.413	-90.692	0.019	-0.006
-413.398	15.946	0.236	-0.185
-412.384	-200.000	-0.062	-0.330
-411.369	-123.536	0.138	-0.022
-410.355	243.611	0.150	-0.251
-409.340	0.330	0.212	-0.151
-408.325	52.842	-0.069	0.066
-407.311	300.770	-0.056	-0.104
-406.296	-158.097	-0.125	0.007
-405.282	5.587	0.156	-0.115
-404.267	-200.000	0.020	0.130
-403.252	74.851	0.105	0.110
-402.238	46.325	0.102	0.094
-401.223	325.486	0.019	-0.037
-400.209	-94.756	-0.168	0.045
-399.194	217.972	-0.173	0.275
-398.179	-117.693	-0.345	-0.062
-397.165	69.250	-0.103	-0.106
-396.150	-200.000	0.048	-0.217
-395.136	-106.047	-0.130	0.029
-394.121	-117.786	-0.168	0.030
-393.106	-58.056	0.097	-0.042
-392.092	-200.000	0.015	0.277
-391.077	-98.272	-0.129	-0.033
-390.063	-1.096	0.095	-0.067
-389.048	-200.000	-0.014	0.118
-388.033	-200.000	-0.041	0.280
-387.019	168.337	-0.147	-0.208
-386.004	63.312	-0.112	0.112
-384.990	800.000	-0.076	0.312
-383.975	704.632	0.100	-0.262
-382.960	340.124	0.125	-0.243
-381.946	-130.098	-0.172	0.023
-380.931	19.670	0.180	0.145
-379.917	-102.982	0.286	-0.068
-378.902	800.000	0.011	0.047
-377.888	-174.197	0.178	-0.005
-376.873	-76.857	0.258	0.090
-375.858	-77.781	0.073	-0.025
-374.844	232.683	-0.183	0.300
-373.829	-31.258	-0.125	0.070
-372.815	14.623	-0.322	-0.251
-371.800	-70.340	-0.243	0.092
-370.785	26.430	-0.142	0.118
-369.771	65.349	0.092	-0.093
-368.756	-7.068	0.147	0.100
-367.742	-104.576	0.231	0.053
-366.727	212.016	0.102	-0.160
-365.712	-200.000	0.017	-0.078
-364.698	66.871	0.089	0.090
-363.683	53.273	-0.097	-0.093
-362.669	503.062	-0.046	0.105
-361.654	-9.058	-0.326	0.217
-360.639	-49.024	0.240	0.114
-359.625	103.070	0.118	0.137
-358.610	800.000	0.018	0.051
-357.596	16.989	-0.093	0.073
-356.581	15.908	-0.291	-0.228
-355.566	800.000	-0.044	0.161
-354.552	-197.579	0.141	-0.001
-353.537	-200.000	-0.002	0.053
-352.523	-120.265	-0.304	-0.052
-351.508	-200.000	-0.017	0.075
-350.493	56.424	0.136	0.131
-349.479	-200.000	-0.012	-0.131
-348.464	800.000	0.071	-0.219
-347.450	-200.000	-0.003	0.190
-346.435	-200.000	0.012	-0.422
-345.420	-40.213	-0.102	-0.053
-344.406	800.000	-0.085	0.271
-343.391	-56.741	-0.048	0.021
-342.377	-121.532	-0.151	0.025
-341.362	54.940	-0.106	-0.102
-340.348	-200.000	-0.009	0.269
-339.333	-200.000	0.064	-0.338
-338.318	-81.539	0.288	-0.094
-337.304	148.124	0.226	-0.303
-336.289	-93.557	0.179	-0.049
-335.275	-163.376	-0.131	-0.006
-334.260	472.791	-0.078	0.176
-333.245	-200.000	-0.028	0.223
-332.231	282.663	-0.146	-0.261
-331.216	-14.125	-0.166	-0.107
-330.202	-15.798	-0.210	0.133
-329.187	-46.465	0.266	-0.130
-328.172	-104.721	-0.146	-0.033
-327.158	-200.000	0.020	0.198
-326.143	-200.000	-0.031	-0.142
-325.129	800.000	0.064	-0.248
-324.114	124.622	0.051	-0.064
-323.099	71.791	0.093	0.096
-322.085	-35.116	0.303	-0.164
-321.070	686.741	0.092	-0.239
-320.056	430.806	-0.089	-0.192
-319.041	800.000	-0.092	0.324
-318.026	68.818	0.057	-0.058
-317.012	-171.047	0.252	0.008
-315.997	-93.993	0.086	0.023
-314.983	-41.288	-0.016	0.008
-313.968	181.832	0.059	-0.086
-312.953	-27.331	-0.086	0.050
-311.939	110.605	0.171	0.204
-310.924	274.991	-0.106	0.187
-309.910	539.143	0.071	0.167
-308.895	800.000	0.108	0.434
-307.880	-152.050	-0.103	0.007
-306.866	535.032	-0.103	0.242
-305.851	96.286	-0.280	0.319
-304.837	800.000	0.029	0.085
-303.822	47.180	-0.327	0.302
-302.807	-115.394	0.254	-0.048
-301.793	800.000	-0.076	-0.238
-300.778	-33.347	-0.067	0.037
-299.764	-125.908	-0.279	0.042
-298.749	230.379	0.161	-0.261
-297.735	43.978	-0.218	0.198
-296.720	800.000	0.069	0.193
-295.705	7.678	0.048	-0.036
-294.691	784.167	0.096	0.260
-293.676	-26.725	-0.148	-0.086
-292.662	-84.939	-0.244	0.076
-291.647	101.454	-0.211	0.245
-290.632	-80.719	-0.129	-0.043
-289.618	-78.580	0.180	0.061
-288.603	-200.000	0.002	0.315
-287.589	-98.505	-0.274	-0.070
-286.574	46.663	-0.289	-0.266
-285.559	800.000	-0.046	-0.159
-284.545	-65.565	0.149	0.059
-283.530	-164.568	-0.471	-0.021
-282.516	-32.237	0.028	0.015
-281.501	800.000	0.059	0.174
-280.486	-162.651	0.200	-0.010
-279.472	-200.000	-0.054	-0.253
-278.457	-128.685	0.224	0.031
-277.443	-125.707	0.120	-0.018
-276.428	-200.000	-0.024	-0.178
-275.413	-66.011	0.177	-0.070
-274.399	18.188	-0.165	-0.131
-273.384	186.539	0.105	-0.154
-272.370	-29.489	0.214	-0.121
-271.355	-90.301	-0.171	-0.049
-270.340	-147.459	0.309	0.026
-269.326	-49.380	0.331	-0.157
-268.311	800.000	0.018	0.064
-267.297	61.397	-0.196	-0.194
-266.282	1.359	0.242	-0.172
-265.267	800.000	0.086	-0.263
-264.253	87.776	-0.063	-0.069
-263.238	-84.422	0.237	0.074
-262.224	-15.819	-0.066	-0.042
-261.209	45.176	0.440	-0.402
-260.195	202.494	-0.067	0.103
-259.180	-21.859	-0.151	-0.091
-258.165	-31.954	0.422	0.235
-257.151	-37.176	-0.354	0.188
-256.136	467.047	-0.127	0.282
-255.122	11.354	0.246	0.187
-254.107	-60.162	-0.397	0.168
-253.092	-169.107	-0.136	-0.005
-252.078	-200.000	0.041	0.264
-251.063	158.700	-0.020	0.027
-250.049	27.007	-0.195	-0.162
-249.034	21.125	0.210	-0.169
-248.019	655.621	0.089	-0.228
-247.005	-84.600	-0.120	0.037
-245.990	-108.375	-0.186	-0.040
-244.976	28.473	0.271	0.227
-243.961	-200.000	-0.012	0.251
-242.946	5.849	0.134	0.098
-241.932	-200.000	-0.008	0.100
-240.917	-200.000	0.014	0.119
-239.903	800.000	0.084	-0.305
-238.888	-45.196	0.071	-0.035
-237.873	800.000	-0.072	0.266
-236.859	-200.000	0.027	0.169
-235.844	-146.497	0.143	0.012
-234.830	-153.428	0.131	-0.009
-233.815	69.072	0.127	-0.130
-232.800	102.117	-0.124	0.144
-231.786	-200.000	0.007	-0.083
-230.771	-52.339	0.101	-0.046
-229.757	-55.125	0.294	-0.131
-228.742	-45.022	-0.195	-0.096
-227.727	-69.699	-0.334	0.127
-226.713	800.000	-0.026	0.104
-225.698	-38.040	-0.224	0.118
-224.684	-190.317	-0.271	-0.003
-223.669	-200.000	-0.015	-0.201
-222.655	2.198	0.306	0.219
-221.640	234.016	-0.083	-0.135
-220.625	-64.389	0.272	0.110
-219.611	-51.922	0.086	0.040
-218.596	59.156	0.086	0.084
-217.582	-48.587	-0.310	-0.148
-216.567	163.806	-0.191	-0.266
-215.552	800.000	-0.099	0.272
-214.538	-200.000	0.011	-0.087
-213.523	800.000	0.136	-0.476
-212.509	58.635	-0.100	0.097
-211.494	120.695	0.152	0.187
-210.479	785.979	0.108	-0.292
-209.465	800.000	0.086	0.314
-208.450	-11.983	0.324	-0.210
-207.436	139.254	-0.059	0.077
-206.421	-107.804	-0.118	-0.025
-205.406	800.000	0.082	-0.297
-204.392	114.770	-0.181	0.219
-203.377	550.699	0.089	0.210
-202.363	800.000	-0.039	0.149
-201.348	-104.959	-0.120	-0.027
-200.333	424.439	-0.087	-0.186
-199.319	-43.759	0.246	-0.123
-198.304	18.579	-0.101	-0.080
-197.290	-67.717	0.045	0.017
-196.275	-44.597	0.151	0.075
-195.260	800.000	0.060	-0.254
-194.246	525.431	0.009	0.020
-193.231	2.321	-0.101	0.072
-192.217	306.818	-0.036	0.066
-191.202	86.720	0.223	0.243
-190.187	800.000	-0.050	0.160
-189.173	128.340	-0.134	0.169
-188.158	5.614	-0.398	0.291
-187.144	258.609	0.320	0.545
-186.129	-112.315	-0.218	0.043
-185.114	800.000	0.065	-0.231
-184.100	-80.378	0.164	0.054
-183.085	245.843	0.337	0.561
-182.071	-33.458	-0.135	-0.074
-181.056	-13.396	-0.127	-0.082
-180.042	-22.633	0.108	-0.064
-179.027	-200.000	-0.051	0.317
-178.012	-200.000	-0.004	0.308
-176.998	-12.835	0.216	-0.139
-175.983	-85.746	0.403	0.124
-174.969	238.439	0.134	0.219
-173.954	-200.000	0.025	-0.284
-172.939	376.501	-0.047	0.095
-171.925	216.135	0.162	-0.254
-170.910	800.000	0.042	-0.170
-169.896	-61.206	-0.395	-0.164
-168.881	-200.000	0.014	-0.233
-167.866	-31.382	-0.225	-0.125
-166.852	328.893	0.210	0.399
-165.837	51.368	0.161	0.151
-164.823	60.936	-0.278	-0.273
-163.808	-19.222	-0.205	-0.126
-162.793	-39.126	0.273	0.142
-161.779	691.093	-0.049	-0.126
-160.764	-200.000	0.038	0.170
-159.750	42.892	-0.097	0.087
-158.735	-159.251	-0.090	-0.005
-157.720	-200.000	-0.034	0.256
-156.706	-200.000	-0.058	-0.257
-155.691	800.000	0.055	0.164
-154.677	-153.364	0.130	0.009
-153.662	795.133	-0.038	0.102
-152.647	800.000	-0.034	0.134
-151.633	65.800	0.158	-0.158
-150.618	-52.880	0.495	0.225
-149.604	29.115	-0.417	0.349
-148.589	77.548	0.267	-0.280
-147.574	36.573	0.123	0.108
-146.560	30.568	-0.177	-0.149
-145.545	-17.823	0.051	0.031
-144.531	-200.000	0.073	0.435
-143.516	-172.735	0.172	-0.005
-142.502	303.605	0.096	0.176
-141.487	-106.740	0.251	0.055
-140.472	-77.150	-0.186	0.064
-139.458	-94.404	0.227	-0.061
-138.443	317.809	-0.193	0.361
-137.429	-132.967	-0.133	0.017
-136.414	99.894	-0.216	0.247
-135.399	-106.520	-0.118	0.026
-134.385	-200.000	0.049	-0.251
-133.370	-118.249	0.078	0.014
-132.356	-89.679	0.170	-0.049
-131.341	800.000	-0.043	-0.117
-130.326	164.036	0.173	-0.241
-129.312	10.340	-0.305	0.229
-128.297	-144.031	0.332	0.031
-127.283	-11.356	0.185	0.120
-126.268	16.807	0.240	0.187
-125.253	-160.028	-0.212	-0.011
-124.239	-200.000	-0.028	0.137
-123.224	-138.522	-0.165	0.018
-122.210	470.525	-0.049	-0.108
-121.195	4.573	0.250	-0.181
-120.180	-200.000	-0.024	0.207
-119.166	-65.781	-0.087	0.034
-118.151	-50.187	-0.253	-0.118
-117.137	-200.000	-0.046	0.287
-116.122	-35.643	0.353	-0.189
-115.107	-17.460	-0.077	0.048
-114.093	-33.318	0.309	-0.169
-113.078	396.132	-0.038	0.079
-112.064	4.635	0.120	0.087
-111.049	280.653	-0.146	0.257
-110.034	-200.000	0.059	-0.283
-109.020	800.000	-0.054	0.186
-108.005	-200.000	0.022	0.249
-106.991	229.365	-0.041	0.066
-105.976	113.428	0.034	-0.041
-104.962	-47.691	0.188	0.090
-103.947	-32.416	-0.292	-0.161
-102.932	-72.459	-0.205	0.075
-101.918	393.499	-0.080	0.163
-100.903	-65.858	0.269	-0.106
-99.889	-105.101	-0.212	-0.048
-98.874	-145.806	-0.047	-0.004
-97.859	-110.954	-0.234	0.047
-96.845	-200.000	-0.041	0.191
-95.830	171.212	0.078	0.110
-94.816	-200.000	-0.031	-0.158
-93.801	-164.522	0.185	-0.008
-92.786	800.000	0.059	-0.188
-91.772	-200.000	-0.033	0.266
-90.757	279.270	0.118	0.207
-89.743	-189.343	-0.331	-0.004
-88.728	6.247	-0.145	-0.106
-87.713	-134.203	0.283	0.034
-86.699	105.469	0.151	-0.176
-85.684	-200.000	0.000	0.012
-84.670	-108.822	0.340	0.072
-83.655	-147.503	0.246	-0.020
-82.640	92.624	-0.119	0.132
-81.626	-185.190	0.245	0.004
-80.611	-100.469	-0.392	-0.095
-79.597	-200.000	0.050	-0.319
-78.582	-200.000	-0.039	0.174
-77.567	800.000	-0.069	-0.230
-76.553	-200.000	0.034	0.334
-75.538	800.000	0.055	0.164
-74.524	-149.959	0.271	0.021
-73.509	800.000	-0.068	0.193
-72.494	72.087	-0.217	0.223
-71.480	-36.308	-0.407	0.216
-70.465	-80.789	0.221	-0.072
-69.451	-89.736	0.608	0.175
-68.436	800.000	0.096	0.367
-67.422	-75.889	0.070	0.024
-66.407	69.298	-0.132	0.134
-65.392	-68.970	-0.242	-0.092
-64.378	-200.000	0.033	-0.193
-63.363	-3.301	0.260	0.178
-62.349	35.533	-0.239	0.206
-61.334	14.040	-1.363	-1.044
-60.319	231.038	0.277	0.447
-59.305	-200.000	-0.078	-0.774
-58.290	65.329	0.665	0.662
-57.276	685.410	0.624	1.604
-56.261	-200.000	101.307	615.581
-55.246	595.170	1439.095	3502.886
-54.232	183.169	2643.882	3841.309
-53.217	117.185	2172.672	2626.508
-52.203	44.912	1621.630	1468.474
-51.188	37.009	1358.202	1181.945
-50.173	33.479	1316.557	1124.751
-49.159	55.234	1367.116	1300.067
-48.144	57.767	1383.759	1331.150
-47.130	36.969	1338.393	1164.281
-46.115	33.460	1320.765	1128.050
-45.100	33.216	1316.111	1122.581
-44.086	33.223	1313.471	1120.329
-43.071	33.110	1311.570	1117.994
-42.057	33.120	1309.043	1115.857
-41.042	33.161	1307.611	1114.832
-40.027	33.247	1306.264	1114.144
-39.013	33.228	1304.567	1112.545
-37.998	33.209	1302.263	1110.421
-36.984	33.294	1300.393	1109.283
-35.969	33.439	1298.683	1108.627
-34.954	33.299	1297.767	1106.986
-33.940	33.296	1296.217	1105.600
-32.925	33.361	1294.816	1104.742
-31.911	33.390	1293.314	1103.584
-30.896	33.407	1291.562	1102.145
-29.881	33.416	1290.271	1101.050
-28.867	33.481	1289.178	1100.452
-27.852	33.454	1287.529	1098.842
-26.838	33.437	1286.090	1097.473
-25.823	33.432	1284.357	1095.923
-24.809	33.376	1283.132	1094.513
-23.794	33.426	1281.811	1093.626
-22.779	33.378	1280.662	1092.331
-21.765	33.440	1279.593	1091.731
-20.750	33.387	1278.164	1090.163
-19.736	33.340	1276.741	1088.633
-18.721	33.189	1276.026	1087.112
-17.706	33.333	1274.560	1086.647
-16.692	33.424	1272.988	1085.785
-15.677	33.256	1272.187	1084.096
-14.663	33.285	1270.994	1083.205
-13.648	33.203	1269.956	1081.806
-12.633	33.155	1269.514	1081.112
-11.619	33.215	1268.316	1080.394
-10.604	33.206	1267.611	1079.702
-9.590	33.177	1266.315	1078.388
-8.575	33.205	1265.462	1077.776
-7.560	33.232	1264.787	1077.313
-6.546	33.185	1263.882	1076.230
-5.531	33.295	1262.497	1075.635
-4.517	33.226	1261.823	1074.629
-3.502	33.283	1260.953	1074.165
-2.487	33.317	1260.432	1073.875
-1.473	33.216	1256.132	1069.596
-0.458	31.555	1240.625	1047.062
0.556	25.161	1222.035	1004.721
1.571	21.203	1226.567	986.058
2.586	20.248	1241.955	992.872
3.600	19.879	1231.622	982.430
4.615	14.444	1159.128	895.405
5.629	4.525	1082.138	785.893
6.644	-0.040	1060.847	747.694
7.659	-0.401	1058.088	743.890
8.673	-0.427	1056.755	742.762
9.688	-0.481	1055.054	741.232
10.702	-0.054	1053.693	742.321
11.717	6.013	1063.320	779.203
12.731	15.022	1075.770	833.305
13.746	18.387	1079.109	852.596
14.761	18.138	1078.857	851.080
15.775	17.966	1077.986	849.461
16.790	17.751	1077.084	847.607
17.804	17.550	1076.629	846.174
18.819	17.780	1075.704	846.514
19.834	17.681	1075.397	845.710
20.848	17.705	1074.629	845.148
21.863	17.740	1074.491	845.136
22.877	17.669	1073.728	844.111
23.892	17.709	1073.000	843.664
24.907	17.725	1071.944	842.837
25.921	17.637	1071.065	841.636
26.936	17.711	1069.691	840.847
27.950	17.725	1067.708	839.285
28.965	17.618	1065.573	837.007
29.980	17.642	1064.164	835.944
30.994	17.886	1063.002	836.151
32.009	17.670	1062.280	834.454
33.023	17.623	1060.749	832.947
34.038	17.664	1060.028	832.507
35.053	17.731	1059.429	832.288
36.067	17.651	1058.731	831.276
37.082	17.829	1057.431	831.048
38.096	18.066	1056.593	831.471
39.111	18.042	1055.857	830.702
40.126	17.964	1054.148	828.903
41.140	17.679	1052.592	826.224
42.155	17.488	1051.078	824.040
43.169	17.642	1049.460	823.441
44.184	17.594	1048.610	822.474
45.199	17.470	1047.408	820.858
46.213	17.516	1046.460	820.263
47.228	17.489	1045.329	819.173
48.242	17.527	1044.570	818.693
49.257	17.727	1043.404	818.665
50.271	17.763	1042.834	818.316
51.286	17.664	1042.296	817.350
52.301	17.878	1040.458	816.859
53.315	17.745	1039.992	815.783
54.330	17.727	1039.279	815.069
55.344	17.775	1038.152	814.343
56.359	17.679	1037.410	813.226
57.374	17.618	1036.267	811.970
58.388	17.606	1035.634	811.344
59.403	17.578	1034.743	810.441
60.417	17.425	1033.760	808.871
61.432	17.552	1033.177	808.950
62.447	17.708	1032.399	809.007
63.461	17.694	1031.210	807.936
64.476	17.590	1030.775	807.036
65.490	17.552	1029.227	805.573
66.505	17.741	1028.363	805.716
67.520	17.660	1027.880	804.884
68.534	17.514	1026.726	803.221
69.549	17.318	1025.658	801.389
70.563	17.372	1024.603	800.748
71.578	17.299	1024.129	799.965
72.593	17.206	1023.487	798.956
73.607	17.424	1022.676	799.274
74.622	17.496	1022.596	799.482
75.636	17.673	1021.711	799.549
76.651	17.465	1020.636	797.659
77.666	17.421	1019.756	796.699
78.680	17.584	1018.986	796.786
79.695	17.608	1018.485	796.436
80.709	17.709	1017.480	796.051
81.724	17.410	1017.084	794.276
82.739	17.520	1016.352	794.147
83.753	17.791	1015.345	794.553
84.768	18.056	1014.345	794.931
85.782	18.010	1013.470	793.961
86.797	17.893	1012.112	792.286
87.812	17.772	1011.730	791.353
88.826	17.964	1010.242	791.010
89.841	17.844	1009.675	789.940
90.855	17.964	1008.592	789.581
91.870	17.940	1007.236	788.339
92.884	17.809	1006.326	786.951
93.899	17.775	1005.681	786.222
94.914	17.938	1004.725	786.152
95.928	17.776	1003.650	784.497
96.943	17.657	1002.307	782.830
97.957	17.516	1001.307	781.336
98.972	17.311	999.841	779.182
99.987	17.573	999.432	779.995
101.001	17.735	998.721	780.112
102.016	17.681	998.031	779.259
103.030	17.507	996.860	777.481
104.045	17.384	995.798	776.020
105.060	17.242	994.983	774.669
106.074	17.555	994.236	775.447
107.089	17.942	993.803	776.801
108.103	17.780	992.789	775.204
109.118	17.663	991.150	773.323
110.133	17.767	990.197	772.982
111.147	17.604	988.798	771.082
112.162	17.467	987.768	769.595
113.176	17.592	987.189	769.639
114.191	17.532	986.416	768.699
115.206	17.251	985.302	766.494
116.220	17.352	984.570	766.312
117.235	17.464	983.488	765.905
118.249	17.477	982.703	765.286
119.264	17.447	981.794	764.375
120.279	17.409	981.256	763.717
121.293	17.506	980.094	763.181
122.308	17.587	979.435	762.964
123.322	17.584	978.173	761.901
124.337	17.355	976.838	759.768
125.352	17.125	974.004	756.474
126.366	16.912	973.295	754.907
127.381	17.608	973.135	757.814
128.395	17.792	972.800	758.304
129.410	17.986	971.846	758.354
130.424	17.837	970.911	756.895
131.439	17.824	969.872	755.964
132.454	17.846	968.253	754.732
133.468	17.847	967.322	753.943
134.483	17.974	966.736	753.980
135.497	18.039	966.227	753.802
136.512	18.251	965.306	753.954
137.527	18.072	964.283	752.298
138.541	18.138	963.440	751.866
139.556	17.937	962.758	750.383
140.570	18.028	962.270	750.335
141.585	18.056	960.572	749.068
142.600	18.036	959.528	748.101
143.614	18.135	959.067	748.107
144.629	18.276	957.894	747.741
145.643	18.039	956.836	745.818
146.658	18.085	955.913	745.231
147.673	17.910	954.988	743.681
148.687	18.077	953.423	743.122
149.702	17.982	952.836	742.186
150.716	17.853	952.359	741.192
151.731	18.152	951.568	741.806
152.746	18.238	950.684	741.423
153.760	18.301	950.027	741.120
154.775	18.258	949.788	740.680
155.789	18.091	948.783	739.111
156.804	18.251	947.663	738.865
157.819	18.345	946.744	738.486
158.833	18.291	946.177	737.746
159.848	18.238	945.236	736.718
160.862	18.120	944.109	735.270
161.877	18.142	943.171	734.567
162.892	18.147	942.617	734.090
163.906	18.236	941.388	733.451
164.921	18.222	940.375	732.537
165.935	18.252	939.593	731.990
166.950	18.282	938.252	731.011
167.964	18.175	937.463	729.874
168.979	18.108	936.632	728.877
169.994	18.124	935.432	727.948
171.008	18.238	934.996	728.029
172.023	18.101	934.289	726.832
173.037	17.930	932.905	724.964
174.052	17.888	932.057	724.063
175.067	17.955	931.725	724.024
176.081	18.137	930.848	724.050
177.096	18.162	930.198	723.588
178.110	17.951	929.254	721.897
179.125	17.664	928.744	720.223
180.140	17.852	928.174	720.512
181.154	17.939	927.410	720.222
182.169	18.111	927.509	720.961
183.183	18.310	926.741	721.136
184.198	18.221	925.849	720.005
185.213	18.236	925.108	719.428
186.227	18.245	924.622	719.026
187.242	18.133	923.632	717.720
188.256	18.299	922.888	717.776
189.271	18.180	922.605	716.994
190.286	18.186	921.028	715.729
191.300	17.691	919.969	712.776
192.315	17.114	918.443	709.121
193.329	17.082	917.721	708.366
194.344	17.707	918.374	711.417
195.359	18.163	918.216	713.131
196.373	18.370	917.422	713.316
197.388	18.020	916.805	711.315
198.402	17.841	916.270	710.090
199.417	17.988	915.266	709.863
200.432	17.614	914.338	707.527
201.446	17.555	913.764	706.774
202.461	17.612	912.675	706.106
203.475	16.756	911.182	701.345
204.490	16.282	910.022	698.429
205.504	17.193	910.434	702.453
206.519	17.857	910.050	704.838
207.534	17.959	909.290	704.610
208.548	18.295	909.147	705.821
209.563	18.089	908.201	704.177
210.577	17.874	907.801	702.917
211.592	18.105	907.584	703.639
212.607	18.159	906.211	702.735
213.621	18.245	905.634	702.576
214.636	18.232	904.876	701.875
215.650	18.267	904.293	701.502
216.665	18.325	904.028	701.471
217.680	18.194	902.824	699.942
218.694	17.827	901.655	697.470
219.709	17.771	900.685	696.434
220.723	18.075	900.228	697.257
221.738	18.148	899.648	697.042
222.753	18.123	898.785	696.211
223.767	18.011	899.163	695.987
224.782	18.423	898.009	696.707
225.796	18.402	897.256	695.974
226.811	17.752	895.992	692.295
227.826	17.295	894.879	689.522
228.840	17.537	894.369	690.048
229.855	17.602	893.292	689.419
230.869	17.245	892.208	687.078
231.884	17.625	892.474	688.761
232.899	18.216	891.973	690.700
233.913	18.260	891.536	690.478
234.928	18.267	890.605	689.723
235.942	18.233	890.307	689.295
236.957	17.959	889.521	687.521
237.972	17.851	888.710	686.402
238.986	17.968	888.210	686.422
240.001	18.224	887.059	686.499
241.015	18.087	886.954	685.810
242.030	18.253	886.263	685.880
243.045	18.342	885.524	685.603
244.059	18.551	884.877	685.878
245.074	18.052	884.073	683.200
246.088	17.830	882.929	681.367
247.103	18.126	882.322	682.019
248.117	18.571	882.166	683.613
249.132	18.685	881.684	683.632
250.147	18.695	880.597	682.768
251.161	18.670	880.531	682.559
252.176	18.826	879.755	682.515
253.190	18.882	879.034	682.120
254.205	19.031	878.772	682.447
255.220	18.978	878.085	681.644
256.234	18.832	876.962	680.132
257.249	18.799	876.418	679.519
258.263	18.779	875.620	678.762
259.278	18.947	874.902	678.807
260.293	18.984	874.183	678.339
261.307	18.707	873.634	676.759
262.322	18.640	872.303	675.403
263.336	17.926	870.616	671.231
264.351	16.921	868.637	665.703
265.366	17.094	868.594	666.291
266.380	18.139	869.063	670.691
267.395	18.441	868.591	671.454
268.409	18.464	868.077	671.086
269.424	18.653	867.728	671.495
270.439	18.740	867.123	671.311
271.453	19.021	866.007	671.483
272.468	18.988	865.907	671.219
273.482	19.218	865.030	671.376
274.497	18.644	863.973	668.262
275.512	18.426	862.735	666.395
276.526	18.784	862.900	667.855
277.541	18.870	862.530	667.844
278.555	18.556	861.493	665.763
279.570	18.430	860.284	664.281
280.585	18.557	859.637	664.218
281.599	18.537	859.274	663.800
282.614	18.175	857.596	661.046
283.628	18.158	857.595	660.922
284.643	18.431	857.318	661.703
285.657	18.207	856.080	659.825
286.672	17.895	855.211	657.895
287.687	18.487	855.030	659.977
288.701	18.432	854.468	659.275
289.716	18.080	853.691	657.261
290.730	18.123	852.641	656.563
291.745	17.904	851.580	654.847
292.760	18.041	851.673	655.385
293.774	19.007	851.837	659.156
294.789	19.331	851.543	660.113
295.803	19.470	851.156	660.284
296.818	19.421	850.695	659.683
297.833	19.155	849.248	657.487
298.847	18.966	848.345	656.009
299.862	19.209	848.354	656.883
300.876	19.255	847.865	656.622
301.891	19.295	846.805	655.896
302.906	18.811	845.744	653.177
303.920	18.787	845.940	653.176
304.935	19.014	845.556	653.685
305.949	19.289	844.657	653.978
306.964	18.933	844.024	652.079
307.979	19.128	843.841	652.621
308.993	19.472	843.624	653.696
310.008	19.348	842.640	652.408
311.022	19.208	841.923	651.266
312.037	19.251	841.170	650.786
313.052	18.921	840.462	648.938
314.066	18.094	839.365	644.912
315.081	17.947	838.559	643.682
316.095	18.756	838.551	646.667
317.110	19.091	838.219	647.615
318.125	18.508	836.737	644.222
319.139	17.559	835.776	639.863
320.154	17.662	835.308	639.834
321.168	18.465	835.409	642.868
322.183	18.986	835.417	644.774
323.197	19.024	834.813	644.392
324.212	19.203	834.674	644.895
325.227	19.235	834.197	644.589
326.241	19.104	833.518	643.519
327.256	19.073	832.752	642.755
328.270	19.157	832.022	642.450
329.285	18.917	831.068	640.761
330.300	18.837	830.405	639.895
331.314	18.828	830.568	639.929
332.329	19.201	829.950	640.784
333.343	19.270	829.562	640.685
334.358	19.367	828.788	640.390
335.373	19.387	828.380	640.094
336.387	19.627	828.276	640.848
337.402	19.631	827.708	640.367
338.416	19.518	827.280	639.557
339.431	19.601	827.035	639.622
340.446	19.813	826.474	639.913
341.460	19.427	826.483	638.437
342.475	19.390	825.739	637.668
343.489	19.430	825.405	637.503
344.504	19.795	824.746	638.283
345.519	19.874	824.512	638.336
346.533	19.731	824.449	637.705
347.548	19.814	824.263	637.810
348.562	19.848	823.443	637.245
349.577	20.037	822.663	637.281
350.592	20.044	822.004	636.739
351.606	19.950	821.136	635.667
352.621	19.830	820.558	634.724
353.635	19.764	819.666	633.735
354.650	19.248	818.294	630.730
355.665	18.347	817.086	626.446
356.679	18.750	816.724	627.587
357.694	19.127	816.142	628.462
358.708	19.008	815.635	627.582
359.723	19.354	815.817	628.927
360.738	19.683	815.192	629.587
361.752	19.785	814.451	629.331
362.767	20.015	814.236	629.947
363.781	20.285	813.609	630.388
364.796	20.246	813.492	630.099
365.810	20.289	813.120	629.910
366.825	19.996	813.006	628.703
367.840	20.018	811.983	627.938
368.854	19.642	811.074	625.817
369.869	19.778	810.513	625.820
370.883	19.731	810.027	625.221
371.898	19.545	809.606	624.168
372.913	19.777	809.167	624.611
373.927	19.903	808.875	624.785
374.942	19.904	808.675	624.582
375.956	20.207	808.133	625.199
376.971	20.126	807.739	624.547
377.986	20.257	807.315	624.635
379.000	20.068	806.908	623.583
380.015	20.035	806.221	622.878
381.029	20.124	805.849	622.857
382.044	20.261	804.782	622.469
383.059	20.118	804.656	621.804
384.073	20.123	804.562	621.694
385.088	20.216	803.629	621.252
386.102	20.269	802.908	620.829
387.117	20.104	802.331	619.736
388.132	19.850	801.055	617.790
389.146	19.451	800.442	615.838
390.161	19.714	799.885	616.293
391.175	20.015	799.706	617.176
392.190	19.726	798.705	615.317
393.205	18.627	797.287	610.263
394.219	17.416	796.221	605.090
395.234	17.450	795.649	604.722
396.248	18.878	796.767	610.597
397.263	20.083	797.151	615.117
398.278	20.190	797.039	615.355
399.292	19.927	796.456	613.918
400.307	19.870	795.833	613.181
401.321	20.013	795.525	613.396
402.336	20.407	795.207	614.491
403.350	20.645	794.877	615.024
404.365	20.534	794.786	614.506
405.380	20.827	794.472	615.246
406.394	20.806	793.762	614.564
407.409	20.805	792.933	613.867
408.423	20.732	792.795	613.449
409.438	20.669	792.715	613.111
410.453	20.913	791.728	613.150
411.467	20.755	791.805	612.598
412.482	20.839	791.073	612.274
413.496	20.773	790.863	611.827
414.511	20.875	790.455	611.814
415.526	20.945	789.989	611.646
416.540	20.692	789.355	610.215
417.555	20.495	788.416	608.742
418.569	20.543	787.986	608.526
419.584	20.565	787.743	608.361
420.599	20.266	787.360	606.965
421.613	156.694	1361.190	1794.666
422.628	135.637	1444.780	1794.749
